[Parameters]
Operating Mode, Non-Feedback
Subject  AA..ZZ, WT
Session  0..99, 41
No. Trials (1..9999), 500
Mouse Number, 1
Pressure Probe Serial Port, \00\00\00\04COM4
Save additional csv file, TRUE
Save using mouse number, FALSE
A/D Monitor Rate (Hz), 30000.000000
A/D Stimulate Rate (Hz), 30000.000000
A/D input range (+/- V), 5
No. Channels to acquire (N), 2
Pre-Stim Acq. time (ms), 100.000000
Post-Stim Acq. time (ms), 900.000000
Analysis window parameters.M-response Start (ms), 1.100000
Analysis window parameters.M-response Duration (ms), 5.500000
Analysis window parameters.H-response Duration (ms), 6.000000
Analysis window parameters.H-response Start (ms), 6.500000
Feedback window, H response
Proportional gain, 0.100000
Target value, 6.700000
Feedback Ch., 1
Stim Channel to Control (1-4), 4
Trial, 9
Wait for EMG Conditions, FALSE
Channel to monitor (0 - N-1), 1
EMG Hi Limit, 2.000000
EMG Lo Limit, 0.001000
Inter-Stim delay (sec), 10.000000
EMG Monitor Mode, Mean
Time to run Long Stim.(sec), 30
Save Long Stim Data?, OFF
BURST Save time (ms), 1000
BURST Save Interval (x above), 10
Long-Stim. Rep. Rate (Hz), 10.000000
Stim type cluster array.<size(s)>, 4
Stim type cluster array 0.Stimulus Output, Electrical
Stim type cluster array 1.Stimulus Output, OFF
Stim type cluster array 2.Stimulus Output, OFF
Stim type cluster array 3.Stimulus Output, Motor Length
Stim specs cluster array.<size(s)>, 4
Stim specs cluster array 0.Initial Stimulus ampl., 0.300000
Stim specs cluster array 0.Maximum Stimulus, 1.120000
Stim specs cluster array 0.#Pulses in train, 3
Stim specs cluster array 0.Peak Level time (ms), 1.000000
Stim specs cluster array 0.Total pulse period (ms), 150.000000
Stim specs cluster array 0.Start Delay (ms), 0.000000
Stim specs cluster array 0.Pulse Shape, Square
Stim specs cluster array 0.Ramp/Rel. time (ms), 0.100000
Stim specs cluster array 0.Peak Amplitude (V), 0.120000
Stim specs cluster array 1.Initial Stimulus ampl., 0.000000
Stim specs cluster array 1.Maximum Stimulus, 0.000000
Stim specs cluster array 1.#Pulses in train, 3
Stim specs cluster array 1.Peak Level time (ms), 29.000000
Stim specs cluster array 1.Total pulse period (ms), 200.000000
Stim specs cluster array 1.Start Delay (ms), 0.000000
Stim specs cluster array 1.Pulse Shape, Square
Stim specs cluster array 1.Ramp/Rel. time (ms), 0.000000
Stim specs cluster array 1.Peak Amplitude (V), 2.000000
Stim specs cluster array 2.Initial Stimulus ampl., 0.000000
Stim specs cluster array 2.Maximum Stimulus, 0.000000
Stim specs cluster array 2.#Pulses in train, 1
Stim specs cluster array 2.Peak Level time (ms), 25.000000
Stim specs cluster array 2.Total pulse period (ms), 200.000000
Stim specs cluster array 2.Start Delay (ms), 0.000000
Stim specs cluster array 2.Pulse Shape, Square
Stim specs cluster array 2.Ramp/Rel. time (ms), 20.000000
Stim specs cluster array 2.Peak Amplitude (V), 10.000000
Stim specs cluster array 3.Initial Stimulus ampl., 0.000000
Stim specs cluster array 3.Maximum Stimulus, 0.000000
Stim specs cluster array 3.#Pulses in train, 25
Stim specs cluster array 3.Peak Level time (ms), 0.100000
Stim specs cluster array 3.Total pulse period (ms), 4.000000
Stim specs cluster array 3.Start Delay (ms), -5.000000
Stim specs cluster array 3.Pulse Shape, Triangle
Stim specs cluster array 3.Ramp/Rel. time (ms), 3.000000
Stim specs cluster array 3.Peak Amplitude (V), 0.500000
Force cal. (mN/Volt), 100.000000
Force Range (mN), 100.000000
Length cal. (mm/Volt), 10.000000
Length Range (mm), 10.000000
Stim. 1, 0.300000
Stim. 2, 0.000000
Stim. 3, 0.000000
Stim. 4, 0.000000
Monitor acquire time (ms), 100.000000
EMG graph Ymax, 0.100000
Travel limit (mm), 20.000000
Use Pressure Probe, FALSE
Pressure goal (g), 100
Speed (mm/sec), 5.000000
Dwell time (ms), 100.000000
Pressure limit (g), 500.000000
Channel amplitude offset, 0.000000

[DATA]

0.160,0.033,0.290,-5.337
0.218,0.025,0.296,-5.337
1.248,-0.003,0.300,-5.337
2.639,-0.023,0.299,-5.337
3.284,-0.025,0.294,-5.337
3.304,-0.022,0.298,-5.337
3.285,-0.022,0.297,-5.337
3.245,-0.018,0.295,-5.337
3.077,-0.015,0.293,-5.337
2.993,-0.016,0.293,-5.337
2.955,-0.014,0.294,-5.337
2.831,-0.007,0.300,-5.337
2.672,-0.005,0.299,-5.337
2.500,-0.002,0.294,-5.337
2.330,-0.001,0.292,-5.337
2.288,-0.000,0.294,-5.337
2.260,-0.001,0.298,-5.337
2.179,-0.000,0.301,-5.337
2.065,0.001,0.298,-5.337
1.944,0.006,0.297,-5.337
1.823,0.010,0.295,-5.337
1.765,0.014,0.295,-5.337
1.851,0.009,0.298,-5.337
1.858,0.008,0.297,-5.337
1.664,0.012,0.293,-5.337
1.514,0.015,0.295,-5.337
1.516,0.015,0.299,-5.337
1.426,0.014,0.297,-5.337
1.359,0.016,0.293,-5.337
1.350,0.018,0.287,-5.337
1.383,0.016,0.291,-5.337
1.395,0.011,0.292,-5.337
1.336,0.017,0.294,-5.337
1.320,0.011,0.294,-5.337
1.348,0.004,0.295,-5.337
1.373,-0.005,0.298,-5.337
1.368,-0.011,0.303,-5.337
1.287,-0.027,0.299,-5.337
1.281,-0.040,0.294,-5.337
1.302,-0.043,0.295,-5.337
1.325,-0.039,0.295,-5.337
1.287,-0.030,0.297,-5.337
1.362,-0.023,0.298,-5.337
1.411,-0.032,0.298,-5.337
1.374,-0.071,0.295,-5.337
1.382,-0.136,0.291,-5.337
1.364,-0.215,0.285,-5.337
1.278,-0.313,0.290,-5.337
1.224,-0.421,0.295,-5.337
1.212,-0.518,0.298,-5.337
1.215,-0.601,0.298,-5.337
1.174,-0.669,0.298,-5.337
1.172,-0.726,0.297,-5.337
1.134,-0.757,0.295,-5.337
1.073,-0.771,0.293,-5.337
0.968,-0.759,0.292,-5.337
0.950,-0.739,0.292,-5.337
0.899,-0.713,0.294,-5.337
0.815,-0.697,0.296,-5.337
0.778,-0.682,0.294,-5.337
0.742,-0.659,0.290,-5.337
0.739,-0.618,0.290,-5.337
0.673,-0.552,0.292,-5.337
0.631,-0.467,0.295,-5.337
0.625,-0.360,0.297,-5.337
0.638,-0.243,0.297,-5.337
0.626,-0.122,0.295,-5.337
0.572,0.003,0.294,-5.337
0.459,0.122,0.294,-5.337
0.346,0.225,0.294,-5.337
0.459,0.312,0.298,-5.337
0.494,0.392,0.297,-5.337
0.470,0.455,0.296,-5.337
0.437,0.513,0.293,-5.337
0.415,0.552,0.292,-5.337
0.393,0.574,0.291,-5.337
0.370,0.589,0.292,-5.337
0.310,0.594,0.292,-5.337
0.352,0.585,0.291,-5.337
0.354,0.567,0.290,-5.337
0.377,0.551,0.292,-5.337
0.392,0.542,0.293,-5.337
0.336,0.535,0.294,-5.337
0.299,0.533,0.295,-5.337
0.380,0.522,0.298,-5.337
0.463,0.515,0.300,-5.337
0.483,0.511,0.296,-5.337
0.458,0.505,0.295,-5.337
0.406,0.491,0.297,-5.337
0.366,0.476,0.300,-5.337
0.337,0.455,0.298,-5.337
0.404,0.430,0.294,-5.337
0.467,0.404,0.292,-5.337
0.470,0.377,0.291,-5.337
0.446,0.349,0.291,-5.337
0.414,0.320,0.294,-5.337
0.419,0.291,0.292,-5.337
0.368,0.269,0.290,-5.337
0.366,0.245,0.287,-5.337
0.362,0.221,0.289,-5.337
0.330,0.200,0.295,-5.337
0.357,0.181,0.297,-5.337
0.430,0.166,0.294,-5.337
0.381,0.151,0.294,-5.337
0.345,0.137,0.295,-5.337
0.322,0.125,0.292,-5.337
0.411,0.114,0.290,-5.337
0.430,0.110,0.291,-5.337
0.334,0.104,0.292,-5.337
0.311,0.096,0.292,-5.337
0.326,0.089,0.292,-5.337
0.357,0.079,0.289,-5.337
0.437,0.076,0.289,-5.337
0.392,0.074,0.289,-5.337
0.354,0.068,0.292,-5.337
0.407,0.064,0.295,-5.337
0.444,0.064,0.297,-5.337
0.436,0.060,0.298,-5.337
0.453,0.054,0.298,-5.337
0.489,0.050,0.295,-5.337
0.426,0.050,0.292,-5.337
0.405,0.044,0.291,-5.337
0.464,0.045,0.292,-5.337
0.456,0.045,0.290,-5.337
0.481,0.045,0.294,-5.337
0.395,0.046,0.295,-5.337
0.327,0.044,0.295,-5.337
0.305,0.043,0.293,-5.337
0.305,0.045,0.294,-5.337
0.395,0.045,0.299,-5.337
0.445,0.042,0.299,-5.337
0.389,0.040,0.297,-5.337
0.296,0.040,0.293,-5.337
0.286,0.041,0.295,-5.337
0.345,0.041,0.294,-5.337
0.386,0.038,0.291,-5.337
0.370,0.033,0.291,-5.337
0.310,0.036,0.292,-5.337
0.278,0.037,0.292,-5.337
0.327,0.035,0.293,-5.337
0.343,0.037,0.293,-5.337
0.269,0.037,0.293,-5.337
0.241,0.033,0.293,-5.337
0.315,0.031,0.298,-5.337
0.304,0.032,0.300,-5.337
0.172,0.039,0.299,-5.337
0.166,0.036,0.294,-5.337
0.190,0.037,0.293,-5.337
0.254,0.035,0.293,-5.337
0.288,0.036,0.292,-5.337
0.302,0.037,0.292,-5.337
0.249,0.035,0.291,-5.337
0.216,0.032,0.295,-5.337
0.245,0.032,0.298,-5.337
0.344,0.032,0.300,-5.337
0.363,0.035,0.294,-5.337
0.338,0.037,0.292,-5.337
0.374,0.036,0.292,-5.337
0.417,0.035,0.297,-5.337
0.391,0.035,0.302,-5.337
0.264,0.039,0.298,-5.337
0.192,0.037,0.292,-5.337
0.258,0.032,0.290,-5.337
0.337,0.031,0.293,-5.337
0.266,0.035,0.296,-5.337
0.186,0.036,0.296,-5.337
0.212,0.032,0.294,-5.337
0.248,0.035,0.296,-5.337
0.219,0.036,0.298,-5.337
0.234,0.037,0.297,-5.337
0.301,0.039,0.292,-5.337
0.304,0.041,0.292,-5.337
0.327,0.039,0.292,-5.337
0.393,0.037,0.293,-5.337
0.427,0.039,0.293,-5.337
0.395,0.039,0.291,-5.337
0.418,0.035,0.287,-5.337
0.410,0.037,0.289,-5.337
0.352,0.038,0.292,-5.337
0.373,0.039,0.290,-5.337
0.335,0.038,0.285,-5.337
0.282,0.039,0.287,-5.337
0.268,0.039,0.288,-5.337
0.271,0.035,0.290,-5.337
0.220,0.036,0.293,-5.337
0.162,0.038,0.297,-5.337
0.151,0.043,0.298,-5.337
0.206,0.043,0.296,-5.337
0.272,0.041,0.294,-5.337
0.272,0.041,0.293,-5.337
0.209,0.045,0.295,-5.337
0.194,0.042,0.292,-5.337
0.273,0.038,0.287,-5.337
0.268,0.040,0.283,-5.337
0.238,0.044,0.285,-5.337
0.202,0.043,0.290,-5.337
0.225,0.044,0.294,-5.337
0.176,0.047,0.292,-5.337
0.177,0.053,0.290,-5.337
0.150,0.050,0.284,-5.337
0.208,0.047,0.283,-5.337
0.245,0.045,0.286,-5.337
0.175,0.048,0.289,-5.337
0.112,0.044,0.289,-5.337
0.175,0.044,0.288,-5.337
0.325,0.045,0.286,-5.337
0.332,0.049,0.288,-5.337
0.252,0.046,0.288,-5.337
0.260,0.044,0.288,-5.337
0.242,0.047,0.288,-5.337
0.193,0.050,0.287,-5.337
0.130,0.051,0.288,-5.337
0.120,0.050,0.292,-5.337
0.202,0.047,0.293,-5.337
0.209,0.045,0.291,-5.337
0.169,0.042,0.289,-5.337
0.155,0.043,0.287,-5.337
0.127,0.044,0.286,-5.337
0.139,0.046,0.285,-5.337
0.135,0.053,0.288,-5.337
0.076,0.054,0.284,-5.337
0.099,0.050,0.283,-5.337
0.161,0.046,0.283,-5.337
0.149,0.050,0.283,-5.337
0.190,0.047,0.282,-5.337
0.303,0.044,0.286,-5.337
0.266,0.046,0.287,-5.337
0.161,0.046,0.286,-5.337
0.174,0.043,0.286,-5.337
0.200,0.042,0.286,-5.337
0.205,0.037,0.285,-5.337
0.259,0.036,0.285,-5.337
0.154,0.043,0.285,-5.337
0.146,0.042,0.289,-5.337
0.202,0.038,0.288,-5.337
0.290,0.035,0.285,-5.337
0.265,0.038,0.284,-5.337
0.225,0.038,0.283,-5.337
0.148,0.038,0.286,-5.337
0.118,0.035,0.289,-5.337
0.096,0.036,0.290,-5.337
0.115,0.035,0.286,-5.337
0.165,0.037,0.285,-5.337
0.201,0.035,0.285,-5.337
0.213,0.040,0.284,-5.337
0.156,0.041,0.286,-5.337
0.127,0.041,0.290,-5.337
0.121,0.040,0.293,-5.337
0.121,0.036,0.292,-5.337
0.137,0.038,0.286,-5.337
0.109,0.041,0.280,-5.337
0.026,0.041,0.280,-5.337
0.017,0.039,0.284,-5.337
0.067,0.039,0.283,-5.337
0.067,0.042,0.278,-5.337
0.088,0.040,0.279,-5.337
0.152,0.041,0.284,-5.337
0.132,0.040,0.285,-5.337
0.124,0.039,0.282,-5.337
0.129,0.039,0.284,-5.337
0.169,0.036,0.283,-5.337
0.205,0.037,0.281,-5.337
0.154,0.042,0.281,-5.337
0.159,0.041,0.282,-5.337
0.167,0.038,0.283,-5.337
0.184,0.039,0.284,-5.337
0.213,0.038,0.284,-5.337
0.212,0.036,0.285,-5.337
0.162,0.035,0.285,-5.337
0.140,0.036,0.283,-5.337
0.087,0.040,0.281,-5.337
0.104,0.040,0.279,-5.337
0.184,0.036,0.282,-5.337
0.178,0.036,0.288,-5.337
0.143,0.037,0.286,-5.337
0.130,0.037,0.281,-5.337
0.139,0.038,0.280,-5.337
0.102,0.042,0.281,-5.337
0.086,0.039,0.284,-5.337
0.125,0.038,0.283,-5.337
0.060,0.040,0.285,-5.337
0.121,0.038,0.286,-5.337
0.220,0.039,0.284,-5.337
0.204,0.039,0.279,-5.337
0.145,0.043,0.279,-5.337
0.129,0.045,0.284,-5.337
0.133,0.042,0.290,-5.337
0.189,0.039,0.288,-5.337
0.164,0.043,0.282,-5.337
0.101,0.041,0.281,-5.337
0.137,0.039,0.281,-5.337
0.184,0.033,0.282,-5.337
0.204,0.037,0.283,-5.337
0.131,0.040,0.280,-5.337
0.057,0.041,0.280,-5.337
0.106,0.038,0.281,-5.337
0.177,0.037,0.282,-5.337
0.142,0.038,0.279,-5.337
0.068,0.043,0.274,-5.337
0.047,0.044,0.279,-5.337
0.142,0.040,0.279,-5.337
0.158,0.036,0.280,-5.337
0.070,0.039,0.281,-5.337
0.082,0.038,0.278,-5.337
0.152,0.036,0.282,-5.337
0.087,0.043,0.287,-5.337
-0.093,0.048,0.284,-5.337
-0.135,0.049,0.281,-5.337
-0.041,0.046,0.275,-5.337
0.055,0.041,0.277,-5.337
0.146,0.040,0.280,-5.337
0.171,0.039,0.282,-5.337
0.119,0.041,0.281,-5.337
0.043,0.043,0.279,-5.337
0.045,0.042,0.280,-5.337
0.074,0.041,0.280,-5.337
0.092,0.039,0.279,-5.337
0.084,0.040,0.279,-5.337
0.097,0.039,0.279,-5.337
0.041,0.038,0.279,-5.337
-0.049,0.041,0.282,-5.337
-0.030,0.042,0.280,-5.337
0.028,0.041,0.280,-5.337
0.054,0.036,0.279,-5.337
0.026,0.040,0.280,-5.337
-0.027,0.045,0.280,-5.337
-0.049,0.044,0.276,-5.337
0.020,0.042,0.277,-5.337
0.051,0.045,0.283,-5.337
-0.002,0.047,0.283,-5.337
-0.019,0.048,0.278,-5.337
0.005,0.043,0.277,-5.337
-0.033,0.045,0.280,-5.337
-0.101,0.045,0.282,-5.337
-0.003,0.040,0.282,-5.337
0.114,0.041,0.280,-5.337
0.109,0.040,0.279,-5.337
0.003,0.042,0.280,-5.337
0.002,0.044,0.280,-5.337
0.037,0.039,0.279,-5.337
0.049,0.039,0.276,-5.337
0.025,0.040,0.276,-5.337
0.063,0.042,0.277,-5.337
0.090,0.040,0.276,-5.337
0.104,0.036,0.273,-5.337
0.059,0.037,0.277,-5.337
0.025,0.037,0.280,-5.337
0.080,0.035,0.280,-5.337
0.082,0.036,0.277,-5.337
0.007,0.040,0.273,-5.337
-0.072,0.040,0.273,-5.337
-0.002,0.036,0.276,-5.337
0.081,0.033,0.276,-5.337
0.118,0.037,0.279,-5.337
0.062,0.043,0.281,-5.337
0.016,0.042,0.281,-5.337
0.038,0.038,0.277,-5.337
0.054,0.036,0.274,-5.337
0.024,0.035,0.277,-5.337
-0.028,0.039,0.279,-5.337
-0.077,0.043,0.279,-5.337
-0.057,0.037,0.274,-5.337
-0.004,0.040,0.275,-5.337
0.008,0.041,0.277,-5.337
-0.023,0.044,0.279,-5.337
-0.114,0.042,0.278,-5.337
-0.133,0.041,0.282,-5.337
-0.037,0.039,0.283,-5.337
0.034,0.036,0.284,-5.337
0.045,0.039,0.280,-5.337
0.035,0.040,0.277,-5.337
0.013,0.040,0.275,-5.337
-0.010,0.039,0.275,-5.337
0.019,0.038,0.275,-5.337
-0.001,0.040,0.276,-5.337
-0.043,0.040,0.275,-5.337
-0.045,0.038,0.275,-5.337
-0.009,0.039,0.275,-5.337
0.059,0.039,0.276,-5.337
0.069,0.038,0.276,-5.337
0.056,0.035,0.274,-5.337
0.086,0.034,0.272,-5.337
0.089,0.038,0.272,-5.337
0.084,0.039,0.273,-5.337
0.041,0.042,0.274,-5.337
0.008,0.042,0.279,-5.337
0.034,0.037,0.280,-5.337
-0.011,0.037,0.274,-5.337
-0.091,0.040,0.267,-5.337
-0.034,0.036,0.271,-5.337
0.064,0.035,0.278,-5.337
0.136,0.034,0.282,-5.337
0.075,0.033,0.283,-5.337
0.036,0.034,0.280,-5.337
0.041,0.034,0.275,-5.337
0.081,0.032,0.268,-5.337
0.032,0.035,0.269,-5.337
-0.011,0.034,0.274,-5.337
-0.005,0.032,0.279,-5.337
0.041,0.029,0.278,-5.337
0.015,0.036,0.276,-5.337
0.050,0.039,0.277,-5.337
0.032,0.039,0.282,-5.337
0.003,0.035,0.282,-5.337
0.012,0.035,0.277,-5.337
0.019,0.040,0.271,-5.337
0.043,0.039,0.275,-5.337
-0.028,0.038,0.277,-5.337
-0.113,0.039,0.278,-5.337
-0.113,0.036,0.277,-5.337
-0.065,0.039,0.274,-5.337
-0.069,0.037,0.274,-5.337
-0.133,0.036,0.275,-5.337
-0.171,0.037,0.275,-5.337
-0.072,0.036,0.276,-5.337
-0.051,0.039,0.278,-5.337
0.013,0.035,0.279,-5.337
0.017,0.034,0.275,-5.337
0.013,0.035,0.271,-5.337
0.049,0.035,0.275,-5.337
0.039,0.036,0.276,-5.337
0.052,0.034,0.272,-5.337
0.029,0.034,0.270,-5.337
-0.008,0.034,0.274,-5.337
0.002,0.036,0.277,-5.337
-0.037,0.039,0.277,-5.337
-0.041,0.035,0.274,-5.337
-0.020,0.035,0.274,-5.337
-0.037,0.037,0.271,-5.337
-0.046,0.037,0.271,-5.337
0.003,0.034,0.271,-5.337
-0.015,0.035,0.277,-5.337
-0.096,0.034,0.279,-5.337
-0.008,0.031,0.278,-5.337
0.075,0.031,0.279,-5.337
0.070,0.033,0.276,-5.337
0.005,0.035,0.271,-5.337
-0.022,0.035,0.273,-5.337
-0.046,0.034,0.276,-5.337
-0.028,0.034,0.278,-5.337
0.045,0.031,0.280,-5.337
0.069,0.034,0.280,-5.337
-0.007,0.034,0.275,-5.337
-0.021,0.033,0.270,-5.337
-0.049,0.036,0.266,-5.337
0.003,0.031,0.266,-5.337
0.078,0.031,0.269,-5.337
0.037,0.032,0.270,-5.337
-0.026,0.036,0.273,-5.337
0.057,0.035,0.274,-5.337
0.081,0.031,0.273,-5.337
0.068,0.032,0.268,-5.337
0.040,0.035,0.268,-5.337
0.054,0.036,0.268,-5.337
-0.025,0.041,0.271,-5.337
-0.088,0.039,0.275,-5.337
-0.044,0.035,0.273,-5.337
-0.040,0.035,0.272,-5.337
-0.136,0.039,0.276,-5.337
-0.106,0.036,0.276,-5.337
0.000,0.034,0.279,-5.337
0.020,0.037,0.277,-5.337
-0.049,0.038,0.269,-5.337
-0.084,0.041,0.259,-5.337
-0.062,0.040,0.261,-5.337
0.020,0.035,0.266,-5.337
-0.014,0.034,0.272,-5.337
-0.057,0.037,0.276,-5.337
-0.151,0.038,0.277,-5.337
-0.134,0.038,0.276,-5.337
-0.027,0.035,0.270,-5.337
-0.016,0.034,0.269,-5.337
-0.041,0.037,0.269,-5.337
-0.042,0.039,0.268,-5.337
-0.024,0.034,0.267,-5.337
-0.052,0.037,0.268,-5.337
-0.026,0.037,0.267,-5.337
-0.024,0.039,0.269,-5.337
-0.072,0.036,0.271,-5.337
-0.063,0.035,0.270,-5.337
-0.012,0.034,0.270,-5.337
0.068,0.034,0.271,-5.337
0.074,0.039,0.271,-5.337
-0.027,0.040,0.269,-5.337
-0.120,0.038,0.270,-5.337
-0.082,0.038,0.267,-5.337
0.036,0.037,0.267,-5.337
0.086,0.037,0.269,-5.337
0.074,0.038,0.269,-5.337
0.023,0.038,0.266,-5.337
-0.012,0.041,0.267,-5.337
-0.003,0.042,0.267,-5.337
-0.026,0.044,0.271,-5.337
-0.050,0.043,0.268,-5.337
0.009,0.040,0.267,-5.337
0.030,0.039,0.266,-5.337
-0.017,0.043,0.268,-5.337
-0.021,0.047,0.264,-5.337
-0.021,0.048,0.264,-5.337
-0.010,0.042,0.267,-5.337
0.038,0.044,0.269,-5.337
-0.019,0.045,0.268,-5.337
-0.054,0.044,0.272,-5.337
-0.027,0.041,0.271,-5.337
0.024,0.040,0.271,-5.337
0.070,0.039,0.271,-5.337
0.094,0.041,0.268,-5.337
0.069,0.044,0.264,-5.337
0.082,0.042,0.267,-5.337
0.095,0.043,0.269,-5.337
0.033,0.047,0.269,-5.337
0.045,0.047,0.267,-5.337
0.091,0.042,0.263,-5.337
0.075,0.046,0.266,-5.337
-0.003,0.048,0.268,-5.337
-0.021,0.044,0.272,-5.337
0.015,0.043,0.271,-5.337
0.086,0.043,0.269,-5.337
0.048,0.043,0.270,-5.337
0.027,0.042,0.270,-5.337
0.127,0.040,0.269,-5.337
0.116,0.045,0.267,-5.337
0.069,0.047,0.267,-5.337
0.092,0.046,0.271,-5.337
0.079,0.045,0.273,-5.337
-0.007,0.048,0.274,-5.337
0.031,0.045,0.269,-5.337
0.007,0.045,0.268,-5.337
0.038,0.041,0.270,-5.337
0.121,0.041,0.269,-5.337
0.085,0.042,0.269,-5.337
0.086,0.039,0.268,-5.337
0.137,0.039,0.270,-5.337
0.113,0.037,0.266,-5.337
0.070,0.039,0.265,-5.337
0.052,0.043,0.267,-5.337
0.134,0.044,0.275,-5.337
0.176,0.042,0.278,-5.337
0.142,0.045,0.277,-5.337
0.153,0.045,0.270,-5.337
0.092,0.049,0.264,-5.337
0.048,0.047,0.263,-5.337
0.014,0.046,0.267,-5.337
0.097,0.043,0.269,-5.337
0.166,0.046,0.270,-5.337
0.180,0.045,0.270,-5.337
0.113,0.050,0.271,-5.337
-0.010,0.051,0.270,-5.337
-0.032,0.049,0.269,-5.337
0.079,0.049,0.269,-5.337
0.039,0.051,0.267,-5.337
0.067,0.050,0.265,-5.337
0.126,0.053,0.266,-5.337
0.099,0.052,0.268,-5.337
0.028,0.053,0.269,-5.337
-0.071,0.057,0.270,-5.337
-0.055,0.055,0.270,-5.337
0.006,0.054,0.271,-5.337
0.104,0.049,0.269,-5.337
0.254,0.049,0.267,-5.337
0.297,0.048,0.266,-5.337
0.236,0.048,0.265,-5.337
0.144,0.049,0.267,-5.337
0.074,0.051,0.269,-5.337
0.049,0.053,0.270,-5.337
0.112,0.055,0.266,-5.337
0.145,0.052,0.265,-5.337
0.115,0.051,0.266,-5.337
0.119,0.054,0.269,-5.337
0.105,0.057,0.270,-5.337
0.075,0.059,0.274,-5.337
0.071,0.057,0.275,-5.337
0.085,0.058,0.274,-5.337
0.056,0.056,0.269,-5.337
0.105,0.053,0.267,-5.337
0.202,0.052,0.263,-5.337
0.174,0.055,0.264,-5.337
0.102,0.056,0.267,-5.337
0.148,0.056,0.270,-5.337
0.110,0.055,0.270,-5.337
0.077,0.053,0.269,-5.337
0.098,0.051,0.270,-5.337
0.147,0.053,0.269,-5.337
0.218,0.054,0.267,-5.337
0.188,0.054,0.267,-5.337
0.172,0.050,0.270,-5.337
0.219,0.050,0.270,-5.337
0.202,0.053,0.267,-5.337
0.138,0.061,0.267,-5.337
0.135,0.058,0.270,-5.337
0.175,0.059,0.268,-5.337
0.180,0.060,0.265,-5.337
0.194,0.061,0.264,-5.337
0.222,0.062,0.266,-5.337
0.176,0.060,0.265,-5.337
0.081,0.060,0.266,-5.337
0.091,0.060,0.268,-5.337
0.177,0.058,0.272,-5.337
0.123,0.063,0.272,-5.337
0.021,0.064,0.272,-5.337
0.068,0.061,0.272,-5.337
0.166,0.058,0.270,-5.337
0.208,0.057,0.267,-5.337
0.263,0.060,0.265,-5.337
0.279,0.060,0.263,-5.337
0.220,0.061,0.267,-5.337
0.195,0.060,0.267,-5.337
0.198,0.059,0.268,-5.337
0.164,0.057,0.270,-5.337
0.275,0.053,0.274,-5.337
0.317,0.055,0.276,-5.337
0.265,0.054,0.271,-5.337
0.227,0.052,0.265,-5.337
0.262,0.054,0.262,-5.337
0.257,0.058,0.265,-5.337
0.215,0.057,0.265,-5.337
0.230,0.055,0.266,-5.337
0.282,0.053,0.265,-5.337
0.277,0.059,0.270,-5.337
0.224,0.062,0.271,-5.337
0.177,0.061,0.270,-5.337
0.096,0.060,0.269,-5.337
0.187,0.058,0.270,-5.337
0.255,0.057,0.268,-5.337
0.263,0.055,0.268,-5.337
0.256,0.055,0.270,-5.337
0.262,0.059,0.270,-5.337
0.336,0.058,0.265,-5.337
0.289,0.058,0.266,-5.337
0.244,0.055,0.265,-5.337
0.223,0.055,0.265,-5.337
0.235,0.055,0.264,-5.337
0.200,0.060,0.267,-5.337
0.166,0.060,0.271,-5.337
0.189,0.057,0.270,-5.337
0.233,0.058,0.264,-5.337
0.223,0.063,0.262,-5.337
0.193,0.061,0.269,-5.337
0.134,0.062,0.272,-5.337
0.082,0.064,0.273,-5.337
0.117,0.065,0.273,-5.337
0.181,0.066,0.272,-5.337
0.263,0.063,0.267,-5.337
0.269,0.061,0.267,-5.337
0.202,0.063,0.271,-5.337
0.156,0.066,0.273,-5.337
0.165,0.063,0.268,-5.337
0.221,0.061,0.265,-5.337
0.245,0.057,0.266,-5.337
0.314,0.056,0.266,-5.337
0.329,0.060,0.267,-5.337
0.316,0.059,0.266,-5.337
0.272,0.061,0.267,-5.337
0.266,0.061,0.271,-5.337
0.210,0.063,0.272,-5.337
0.097,0.061,0.269,-5.337
0.067,0.061,0.267,-5.337
0.174,0.060,0.270,-5.337
0.234,0.062,0.276,-5.337
0.200,0.063,0.276,-5.337
0.193,0.063,0.275,-5.337
0.219,0.061,0.272,-5.337
0.275,0.061,0.269,-5.337
0.337,0.061,0.268,-5.337
0.389,0.060,0.268,-5.337
0.334,0.064,0.268,-5.337
0.283,0.066,0.272,-5.337
0.293,0.067,0.274,-5.337
0.250,0.068,0.277,-5.337
0.271,0.065,0.273,-5.337
0.285,0.068,0.268,-5.337
0.251,0.067,0.266,-5.337
0.273,0.066,0.267,-5.337
0.303,0.067,0.267,-5.337
0.250,0.066,0.268,-5.337
0.224,0.069,0.270,-5.337
0.299,0.065,0.271,-5.337
0.326,0.062,0.269,-5.337
0.307,0.064,0.268,-5.337
0.337,0.063,0.268,-5.337
0.305,0.065,0.271,-5.337
0.207,0.067,0.276,-5.337
0.115,0.065,0.277,-5.337
0.168,0.063,0.275,-5.337
0.255,0.065,0.272,-5.337
0.258,0.066,0.271,-5.337
0.249,0.063,0.273,-5.337
0.253,0.064,0.275,-5.337
0.192,0.068,0.274,-5.337
0.205,0.072,0.278,-5.337
0.192,0.071,0.277,-5.337
0.193,0.069,0.268,-5.337
0.284,0.063,0.264,-5.337
0.274,0.064,0.266,-5.337
0.250,0.065,0.272,-5.337
0.299,0.062,0.274,-5.337
0.317,0.064,0.272,-5.337
0.297,0.064,0.274,-5.337
0.222,0.068,0.277,-5.337
0.262,0.067,0.277,-5.337
0.304,0.064,0.272,-5.337
0.353,0.062,0.268,-5.337
0.383,0.060,0.274,-5.337
0.401,0.057,0.273,-5.337
0.385,0.061,0.268,-5.337
0.268,0.060,0.266,-5.337
0.225,0.063,0.271,-5.337
0.229,0.067,0.273,-5.337
0.246,0.065,0.275,-5.337
0.231,0.062,0.276,-5.337
0.162,0.061,0.276,-5.337
0.184,0.062,0.274,-5.337
0.303,0.058,0.274,-5.337
0.279,0.059,0.275,-5.337
0.207,0.063,0.273,-5.337
0.185,0.067,0.272,-5.337
0.228,0.066,0.271,-5.337
0.282,0.061,0.269,-5.337
0.282,0.060,0.271,-5.337
0.286,0.061,0.272,-5.337
0.341,0.062,0.268,-5.337
0.339,0.060,0.267,-5.337
0.346,0.054,0.271,-5.337
0.290,0.054,0.274,-5.337
0.267,0.054,0.272,-5.337
0.256,0.058,0.273,-5.337
0.194,0.058,0.274,-5.337
0.212,0.060,0.274,-5.337
0.192,0.062,0.271,-5.337
0.186,0.062,0.269,-5.337
0.196,0.061,0.266,-5.337
0.263,0.060,0.267,-5.337
0.255,0.061,0.273,-5.337
0.172,0.061,0.274,-5.337
0.137,0.061,0.272,-5.337
0.153,0.062,0.269,-5.337
0.196,0.060,0.269,-5.337
0.199,0.058,0.272,-5.337
0.146,0.060,0.272,-5.337
0.155,0.062,0.273,-5.337
0.183,0.062,0.274,-5.337
0.263,0.057,0.274,-5.337
0.352,0.054,0.273,-5.337
0.324,0.057,0.270,-5.337
0.225,0.060,0.270,-5.337
0.256,0.055,0.274,-5.337
0.288,0.055,0.274,-5.337
0.262,0.057,0.268,-5.337
0.255,0.056,0.263,-5.337
0.252,0.053,0.266,-5.337
0.227,0.051,0.271,-5.337
0.151,0.052,0.271,-5.337
0.120,0.058,0.270,-5.337
0.180,0.058,0.270,-5.337
0.322,0.055,0.273,-5.337
0.342,0.054,0.274,-5.337
0.244,0.057,0.274,-5.337
0.185,0.059,0.276,-5.337
0.164,0.058,0.278,-5.337
0.202,0.056,0.276,-5.337
0.195,0.056,0.273,-5.337
0.247,0.053,0.271,-5.337
0.250,0.055,0.273,-5.337
0.179,0.056,0.273,-5.337
0.183,0.056,0.271,-5.337
0.187,0.057,0.271,-5.337
0.234,0.058,0.274,-5.337
0.186,0.061,0.275,-5.337
0.122,0.060,0.269,-5.337
0.115,0.059,0.270,-5.337
0.108,0.059,0.273,-5.337
0.066,0.059,0.276,-5.337
0.106,0.053,0.273,-5.337
0.228,0.052,0.269,-5.337
0.222,0.053,0.268,-5.337
0.240,0.053,0.271,-5.337
0.245,0.049,0.273,-5.337
0.241,0.053,0.275,-5.337
0.231,0.050,0.277,-5.337
0.232,0.048,0.276,-5.337
0.219,0.049,0.272,-5.337
0.207,0.049,0.270,-5.337
0.271,0.042,0.274,-5.337
0.269,0.044,0.275,-5.337
0.189,0.045,0.275,-5.337
0.220,0.048,0.273,-5.337
0.178,0.050,0.274,-5.337
0.094,0.046,0.272,-5.337
0.102,0.045,0.272,-5.337
0.185,0.044,0.273,-5.337
0.140,0.047,0.277,-5.337
0.170,0.047,0.280,-5.337
0.211,0.048,0.281,-5.337
0.198,0.050,0.277,-5.337
0.162,0.048,0.270,-5.337
0.216,0.048,0.272,-5.337
0.257,0.049,0.274,-5.337
0.234,0.046,0.275,-5.337
0.236,0.045,0.274,-5.337
0.249,0.044,0.277,-5.337
0.191,0.049,0.279,-5.337
0.156,0.053,0.280,-5.337
0.173,0.054,0.275,-5.337
0.136,0.050,0.271,-5.337
0.144,0.049,0.268,-5.337
0.157,0.048,0.270,-5.337
0.170,0.045,0.271,-5.337
0.162,0.044,0.273,-5.337
0.114,0.046,0.274,-5.337
0.091,0.047,0.275,-5.337
0.101,0.050,0.277,-5.337
0.203,0.044,0.278,-5.337
0.271,0.042,0.280,-5.337
0.174,0.047,0.282,-5.337
0.226,0.045,0.283,-5.337
0.217,0.052,0.283,-5.337
0.076,0.051,0.280,-5.337
-0.019,0.050,0.278,-5.337
0.060,0.044,0.272,-5.337
0.173,0.043,0.269,-5.337
0.134,0.045,0.268,-5.337
0.157,0.044,0.271,-5.337
0.165,0.045,0.275,-5.337
0.097,0.048,0.277,-5.337
0.081,0.046,0.277,-5.337
0.110,0.046,0.277,-5.337
0.111,0.045,0.276,-5.337
0.097,0.045,0.274,-5.337
0.147,0.049,0.277,-5.337
0.158,0.051,0.277,-5.337
0.116,0.048,0.279,-5.337
0.061,0.048,0.275,-5.337
0.132,0.043,0.272,-5.337
0.205,0.039,0.271,-5.337
0.157,0.042,0.274,-5.337
0.155,0.044,0.279,-5.337
0.086,0.048,0.282,-5.337
0.086,0.049,0.280,-5.337
0.142,0.045,0.275,-5.337
0.222,0.040,0.274,-5.337
0.273,0.038,0.277,-5.337
0.240,0.039,0.278,-5.337
0.223,0.040,0.280,-5.337
0.132,0.041,0.282,-5.337
0.086,0.043,0.280,-5.337
0.098,0.047,0.279,-5.337
0.109,0.048,0.278,-5.337
0.110,0.046,0.277,-5.337
0.113,0.045,0.272,-5.337
0.137,0.043,0.270,-5.337
0.122,0.041,0.271,-5.337
0.135,0.042,0.275,-5.337
0.170,0.043,0.274,-5.337
0.168,0.044,0.275,-5.337
0.140,0.042,0.272,-5.337
0.106,0.042,0.272,-5.337
0.084,0.041,0.275,-5.337
0.083,0.043,0.276,-5.337
0.053,0.041,0.277,-5.337
0.053,0.042,0.280,-5.337
0.102,0.040,0.280,-5.337
0.083,0.041,0.279,-5.337
0.039,0.044,0.279,-5.337
0.100,0.044,0.278,-5.337
0.132,0.044,0.278,-5.337
0.128,0.041,0.278,-5.337
0.139,0.038,0.279,-5.337
0.073,0.040,0.279,-5.337
0.114,0.040,0.279,-5.337
0.095,0.043,0.275,-5.337
0.116,0.041,0.275,-5.337
0.128,0.036,0.278,-5.337
0.133,0.034,0.279,-5.337
0.081,0.036,0.276,-5.337
0.027,0.039,0.275,-5.337
0.018,0.039,0.273,-5.337
0.007,0.040,0.272,-5.337
0.046,0.036,0.272,-5.337
0.137,0.037,0.278,-5.337
0.158,0.038,0.282,-5.337
0.117,0.039,0.283,-5.337
-0.028,0.040,0.280,-5.337
-0.105,0.040,0.275,-5.337
-0.046,0.037,0.273,-5.337
0.056,0.036,0.273,-5.337
0.065,0.037,0.276,-5.337
0.047,0.038,0.278,-5.337
0.030,0.040,0.279,-5.337
0.093,0.036,0.277,-5.337
0.146,0.034,0.274,-5.337
0.096,0.035,0.274,-5.337
0.075,0.033,0.278,-5.337
0.056,0.037,0.279,-5.337
-0.000,0.039,0.280,-5.337
0.001,0.037,0.276,-5.337
0.119,0.035,0.275,-5.337
0.192,0.037,0.277,-5.337
0.159,0.038,0.280,-5.337
0.129,0.041,0.278,-5.337
0.166,0.035,0.277,-5.337
0.145,0.034,0.274,-5.337
0.162,0.038,0.275,-5.337
0.106,0.040,0.278,-5.337
0.094,0.042,0.283,-5.337
0.090,0.043,0.285,-5.337
0.114,0.045,0.283,-5.337
0.066,0.047,0.278,-5.337
0.045,0.044,0.273,-5.337
0.029,0.040,0.275,-5.337
0.014,0.041,0.278,-5.337
-0.036,0.044,0.280,-5.337
-0.051,0.038,0.281,-5.337
0.067,0.031,0.283,-5.337
0.148,0.033,0.284,-5.337
0.093,0.035,0.282,-5.337
0.078,0.040,0.278,-5.337
0.103,0.040,0.279,-5.337
0.137,0.039,0.278,-5.337
0.114,0.038,0.279,-5.337
0.128,0.035,0.275,-5.337
0.131,0.039,0.270,-5.337
0.094,0.038,0.272,-5.337
0.147,0.039,0.278,-5.337
0.139,0.037,0.277,-5.337
0.129,0.038,0.279,-5.337
0.067,0.040,0.282,-5.337
0.063,0.041,0.281,-5.337
0.083,0.038,0.279,-5.337
0.029,0.037,0.275,-5.337
-0.041,0.038,0.273,-5.337
-0.009,0.036,0.275,-5.337
0.040,0.036,0.278,-5.337
0.089,0.036,0.280,-5.337
0.019,0.042,0.282,-5.337
0.035,0.041,0.283,-5.337
0.049,0.036,0.283,-5.337
0.096,0.034,0.278,-5.337
0.154,0.038,0.276,-5.337
0.172,0.034,0.278,-5.337
0.172,0.031,0.280,-5.337
0.168,0.029,0.282,-5.337
0.142,0.035,0.282,-5.337
0.100,0.036,0.281,-5.337
0.036,0.033,0.279,-5.337
0.010,0.035,0.276,-5.337
-0.018,0.039,0.276,-5.337
0.028,0.039,0.278,-5.337
0.032,0.036,0.283,-5.337
0.093,0.034,0.284,-5.337
0.198,0.036,0.279,-5.337
0.125,0.040,0.277,-5.337
0.029,0.042,0.276,-5.337
0.031,0.040,0.278,-5.337
0.085,0.033,0.281,-5.337
-0.031,0.038,0.285,-5.337
-0.119,0.038,0.289,-5.337
-0.042,0.036,0.291,-5.337
-0.000,0.036,0.287,-5.337
0.030,0.033,0.280,-5.337
0.061,0.033,0.275,-5.337
0.011,0.039,0.276,-5.337
0.052,0.034,0.279,-5.337
0.142,0.031,0.283,-5.337
0.145,0.032,0.285,-5.337
0.184,0.033,0.287,-5.337
0.155,0.032,0.287,-5.337
0.066,0.033,0.284,-5.337
0.050,0.032,0.278,-5.337
0.087,0.032,0.277,-5.337
0.153,0.030,0.279,-5.337
0.205,0.030,0.281,-5.337
0.128,0.031,0.281,-5.337
0.013,0.032,0.281,-5.337
-0.055,0.033,0.283,-5.337
-0.044,0.033,0.285,-5.337
-0.000,0.035,0.287,-5.337
0.060,0.032,0.281,-5.337
0.090,0.035,0.279,-5.337
0.055,0.039,0.278,-5.337
0.091,0.037,0.281,-5.337
0.000,0.042,0.283,-5.337
-0.034,0.040,0.283,-5.337
0.006,0.039,0.283,-5.337
0.042,0.040,0.281,-5.337
-0.006,0.038,0.280,-5.337
-0.066,0.037,0.278,-5.337
-0.021,0.035,0.281,-5.337
0.026,0.038,0.283,-5.337
-0.022,0.042,0.279,-5.337
-0.088,0.043,0.277,-5.337
0.001,0.037,0.278,-5.337
0.103,0.036,0.281,-5.337
0.186,0.034,0.281,-5.337
0.203,0.036,0.286,-5.337
0.182,0.038,0.288,-5.337
0.113,0.040,0.286,-5.337
0.104,0.043,0.283,-5.337
0.144,0.040,0.279,-5.337
0.138,0.040,0.279,-5.337
0.099,0.040,0.281,-5.337
0.069,0.040,0.284,-5.337
0.076,0.040,0.281,-5.337
0.088,0.037,0.280,-5.337
0.077,0.035,0.280,-5.337
0.118,0.035,0.282,-5.337
0.131,0.035,0.281,-5.337
0.107,0.034,0.279,-5.337
0.031,0.036,0.278,-5.337
0.025,0.041,0.278,-5.337
0.056,0.041,0.276,-5.337
0.063,0.044,0.279,-5.337
0.048,0.045,0.280,-5.337
0.057,0.047,0.282,-5.337
0.036,0.046,0.280,-5.337
0.046,0.043,0.278,-5.337
0.147,0.038,0.280,-5.337
0.187,0.042,0.281,-5.337
0.147,0.044,0.283,-5.337
0.143,0.043,0.284,-5.337
0.158,0.039,0.284,-5.337
0.113,0.040,0.281,-5.337
0.123,0.043,0.283,-5.337
0.145,0.042,0.281,-5.337
0.204,0.039,0.282,-5.337
0.197,0.042,0.280,-5.337
0.100,0.044,0.282,-5.337
0.126,0.041,0.284,-5.337
0.172,0.044,0.281,-5.337
0.165,0.045,0.276,-5.337
0.071,0.051,0.280,-5.337
0.071,0.045,0.286,-5.337
0.113,0.042,0.287,-5.337
0.114,0.044,0.284,-5.337
0.200,0.043,0.282,-5.337
0.152,0.047,0.281,-5.337
0.150,0.047,0.281,-5.337
0.178,0.046,0.279,-5.337
0.160,0.050,0.279,-5.337
0.096,0.052,0.280,-5.337
0.054,0.053,0.282,-5.337
0.025,0.052,0.282,-5.337
0.055,0.049,0.284,-5.337
0.123,0.049,0.286,-5.337
0.179,0.051,0.284,-5.337
0.123,0.055,0.279,-5.337
0.043,0.053,0.275,-5.337
0.137,0.048,0.274,-5.337
0.216,0.049,0.279,-5.337
0.155,0.049,0.284,-5.337
0.186,0.044,0.285,-5.337
0.205,0.047,0.284,-5.337
0.144,0.049,0.282,-5.337
0.092,0.052,0.283,-5.337
0.127,0.050,0.280,-5.337
0.172,0.050,0.278,-5.337
0.168,0.048,0.278,-5.337
0.162,0.048,0.280,-5.337
0.172,0.047,0.280,-5.337
0.218,0.046,0.279,-5.337
0.215,0.051,0.280,-5.337
0.114,0.057,0.280,-5.337
0.084,0.053,0.285,-5.337
0.189,0.048,0.287,-5.337
0.154,0.051,0.287,-5.337
0.090,0.052,0.285,-5.337
0.164,0.050,0.285,-5.337
0.201,0.049,0.281,-5.337
0.154,0.051,0.280,-5.337
0.192,0.049,0.282,-5.337
0.225,0.049,0.283,-5.337
0.268,0.048,0.282,-5.337
0.305,0.047,0.279,-5.337
0.269,0.051,0.281,-5.337
0.216,0.053,0.285,-5.337
0.226,0.053,0.284,-5.337
0.295,0.053,0.283,-5.337
0.255,0.053,0.282,-5.337
0.225,0.054,0.286,-5.337
0.245,0.054,0.288,-5.337
0.249,0.056,0.281,-5.337
0.317,0.052,0.277,-5.337
0.266,0.053,0.274,-5.337
0.108,0.056,0.280,-5.337
0.156,0.054,0.283,-5.337
0.255,0.054,0.285,-5.337
0.294,0.055,0.286,-5.337
0.294,0.055,0.285,-5.337
0.225,0.056,0.282,-5.337
0.237,0.054,0.283,-5.337
0.280,0.050,0.287,-5.337
0.261,0.050,0.289,-5.337
0.157,0.052,0.284,-5.337
0.255,0.047,0.280,-5.337
0.381,0.049,0.284,-5.337
0.300,0.052,0.284,-5.337
0.195,0.053,0.283,-5.337
0.168,0.054,0.284,-5.337
0.217,0.051,0.285,-5.337
0.275,0.055,0.280,-5.337
0.304,0.053,0.279,-5.337
0.241,0.052,0.277,-5.337
0.253,0.055,0.277,-5.337
0.261,0.055,0.280,-5.337
0.240,0.058,0.283,-5.337
0.205,0.058,0.285,-5.337
0.211,0.055,0.287,-5.337
0.306,0.053,0.283,-5.337
0.287,0.056,0.279,-5.337
0.198,0.058,0.280,-5.337
0.175,0.057,0.287,-5.337
0.243,0.052,0.290,-5.337
0.267,0.053,0.287,-5.337
0.301,0.054,0.284,-5.337
0.297,0.057,0.286,-5.337
0.274,0.055,0.287,-5.337
0.260,0.054,0.285,-5.337
0.196,0.056,0.280,-5.337
0.226,0.055,0.281,-5.337
0.295,0.054,0.283,-5.337
0.270,0.054,0.282,-5.337
0.277,0.051,0.284,-5.337
0.280,0.052,0.287,-5.337
0.271,0.054,0.289,-5.337
0.292,0.058,0.287,-5.337
0.315,0.057,0.287,-5.337
0.347,0.055,0.281,-5.337
0.326,0.058,0.282,-5.337
0.263,0.058,0.281,-5.337
0.300,0.054,0.280,-5.337
0.390,0.053,0.281,-5.337
0.339,0.056,0.284,-5.337
0.258,0.059,0.285,-5.337
0.205,0.062,0.289,-5.337
0.229,0.060,0.288,-5.337
0.227,0.059,0.282,-5.337
0.211,0.057,0.279,-5.337
0.236,0.056,0.281,-5.337
0.229,0.057,0.286,-5.337
0.176,0.059,0.285,-5.337
0.144,0.063,0.280,-5.337
0.161,0.064,0.280,-5.337
0.260,0.060,0.282,-5.337
0.311,0.056,0.288,-5.337
0.298,0.059,0.291,-5.337
0.220,0.061,0.290,-5.337
0.218,0.059,0.291,-5.337
0.184,0.056,0.288,-5.337
0.219,0.056,0.283,-5.337
0.258,0.056,0.282,-5.337
0.289,0.057,0.283,-5.337
0.351,0.053,0.283,-5.337
0.396,0.054,0.285,-5.337
0.405,0.053,0.284,-5.337
0.347,0.057,0.285,-5.337
0.288,0.058,0.283,-5.337
0.280,0.059,0.281,-5.337
0.307,0.056,0.285,-5.337
0.324,0.056,0.290,-5.337
0.335,0.057,0.289,-5.337
0.317,0.055,0.287,-5.337
0.392,0.054,0.287,-5.337
0.356,0.058,0.288,-5.337
0.259,0.057,0.289,-5.337
0.307,0.056,0.286,-5.337
0.343,0.052,0.283,-5.337
0.314,0.054,0.282,-5.337
0.309,0.054,0.282,-5.337
0.334,0.056,0.280,-5.337
0.387,0.056,0.282,-5.337
0.380,0.059,0.282,-5.337
0.346,0.060,0.281,-5.337
0.335,0.059,0.283,-5.337
0.331,0.059,0.286,-5.337
0.339,0.057,0.288,-5.337
0.286,0.057,0.292,-5.337
0.278,0.056,0.290,-5.337
0.317,0.061,0.285,-5.337
0.348,0.063,0.284,-5.337
0.332,0.063,0.282,-5.337
0.227,0.065,0.283,-5.337
0.192,0.065,0.285,-5.337
0.273,0.064,0.288,-5.337
0.251,0.065,0.288,-5.337
0.180,0.065,0.288,-5.337
0.186,0.064,0.286,-5.337
0.228,0.063,0.285,-5.337
0.201,0.063,0.283,-5.337
0.245,0.063,0.287,-5.337
0.332,0.062,0.287,-5.337
0.398,0.059,0.285,-5.337
0.387,0.057,0.280,-5.337
0.276,0.061,0.283,-5.337
0.234,0.061,0.287,-5.337
0.264,0.057,0.287,-5.337
0.299,0.055,0.284,-5.337
0.324,0.057,0.288,-5.337
0.318,0.061,0.291,-5.337
0.309,0.063,0.291,-5.337
0.328,0.061,0.288,-5.337
0.372,0.061,0.286,-5.337
0.378,0.060,0.288,-5.337
0.397,0.058,0.290,-5.337
0.342,0.055,0.289,-5.337
0.320,0.054,0.287,-5.337
0.337,0.053,0.281,-5.337
0.340,0.054,0.282,-5.337
0.294,0.053,0.286,-5.337
0.411,0.056,0.289,-5.337
0.433,0.060,0.289,-5.337
0.320,0.063,0.290,-5.337
0.225,0.064,0.292,-5.337
0.332,0.058,0.288,-5.337
0.360,0.058,0.283,-5.337
0.340,0.057,0.282,-5.337
0.304,0.056,0.284,-5.337
0.305,0.054,0.286,-5.337
0.363,0.057,0.285,-5.337
0.379,0.056,0.281,-5.337
0.361,0.059,0.282,-5.337
0.244,0.060,0.285,-5.337
0.222,0.060,0.289,-5.337
0.290,0.052,0.291,-5.337
0.355,0.050,0.291,-5.337
0.330,0.051,0.291,-5.337
0.291,0.051,0.294,-5.337
0.278,0.053,0.295,-5.337
0.283,0.055,0.291,-5.337
0.288,0.054,0.290,-5.337
0.331,0.053,0.289,-5.337
0.347,0.053,0.291,-5.337
0.320,0.054,0.290,-5.337
0.293,0.056,0.289,-5.337
0.373,0.052,0.283,-5.337
0.409,0.051,0.283,-5.337
0.370,0.052,0.286,-5.337
0.297,0.053,0.287,-5.337
0.274,0.050,0.285,-5.337
0.303,0.048,0.287,-5.337
0.249,0.051,0.288,-5.337
0.255,0.050,0.289,-5.337
0.351,0.047,0.289,-5.337
0.367,0.047,0.288,-5.337
0.276,0.053,0.287,-5.337
0.234,0.054,0.287,-5.337
0.291,0.052,0.287,-5.337
0.327,0.052,0.292,-5.337
0.306,0.054,0.295,-5.337
0.260,0.054,0.293,-5.337
0.257,0.052,0.289,-5.337
0.269,0.050,0.286,-5.337
0.284,0.051,0.288,-5.337
0.299,0.049,0.288,-5.337
0.257,0.050,0.289,-5.337
0.217,0.050,0.289,-5.337
0.244,0.054,0.292,-5.337
0.317,0.050,0.291,-5.337
0.376,0.045,0.288,-5.337
0.361,0.051,0.283,-5.337
0.221,0.054,0.285,-5.337
0.203,0.053,0.285,-5.337
0.206,0.054,0.285,-5.337
0.252,0.053,0.287,-5.337
0.237,0.054,0.289,-5.337
0.190,0.052,0.287,-5.337
0.232,0.045,0.288,-5.337
0.278,0.048,0.289,-5.337
0.211,0.050,0.290,-5.337
0.166,0.049,0.291,-5.337
0.197,0.046,0.288,-5.337
0.286,0.043,0.289,-5.337
0.321,0.046,0.291,-5.337
0.255,0.048,0.292,-5.337
0.243,0.046,0.289,-5.337
0.240,0.045,0.287,-5.337
0.256,0.044,0.283,-5.337
0.260,0.046,0.287,-5.337
0.246,0.044,0.288,-5.337
0.186,0.044,0.289,-5.337
0.183,0.042,0.286,-5.337
0.257,0.041,0.288,-5.337
0.277,0.041,0.289,-5.337
0.278,0.043,0.287,-5.337
0.284,0.042,0.281,-5.337
0.287,0.042,0.283,-5.337
0.245,0.041,0.292,-5.337
0.227,0.044,0.294,-5.337
0.267,0.044,0.287,-5.337
0.253,0.045,0.283,-5.337
0.205,0.043,0.289,-5.337
0.229,0.042,0.293,-5.337
0.258,0.042,0.292,-5.337
0.172,0.047,0.286,-5.337
0.169,0.045,0.286,-5.337
0.247,0.043,0.286,-5.337
0.281,0.043,0.287,-5.337
0.256,0.042,0.286,-5.337
0.233,0.044,0.286,-5.337
0.199,0.044,0.283,-5.337
0.194,0.043,0.283,-5.337
0.145,0.043,0.288,-5.337
0.155,0.043,0.292,-5.337
0.200,0.040,0.291,-5.337
0.224,0.043,0.289,-5.337
0.239,0.042,0.289,-5.337
0.210,0.043,0.291,-5.337
0.204,0.042,0.289,-5.337
0.189,0.040,0.289,-5.337
0.166,0.040,0.287,-5.337
0.203,0.039,0.285,-5.337
0.199,0.040,0.285,-5.337
0.189,0.038,0.285,-5.337
0.205,0.037,0.284,-5.337
0.183,0.039,0.285,-5.337
0.163,0.040,0.288,-5.337
0.112,0.042,0.290,-5.337
0.139,0.036,0.288,-5.337
0.152,0.036,0.284,-5.337
0.124,0.037,0.287,-5.337
0.124,0.037,0.288,-5.337
0.223,0.034,0.288,-5.337
0.299,0.037,0.291,-5.337
0.261,0.039,0.297,-5.337
0.146,0.037,0.296,-5.337
0.128,0.034,0.284,-5.337
0.185,0.034,0.282,-5.337
0.181,0.034,0.284,-5.337
0.128,0.036,0.286,-5.337
0.070,0.036,0.292,-5.337
0.110,0.033,0.293,-5.337
0.126,0.036,0.291,-5.337
0.142,0.037,0.289,-5.337
0.145,0.035,0.288,-5.337
0.169,0.036,0.287,-5.337
0.193,0.036,0.285,-5.337
0.162,0.035,0.289,-5.337
0.154,0.037,0.288,-5.337
0.111,0.034,0.291,-5.337
0.174,0.031,0.290,-5.337
0.182,0.033,0.287,-5.337
0.170,0.033,0.287,-5.337
0.149,0.035,0.290,-5.337
0.115,0.030,0.292,-5.337
0.132,0.029,0.296,-5.337
0.129,0.032,0.298,-5.337
0.186,0.035,0.293,-5.337
0.215,0.033,0.286,-5.337
0.236,0.031,0.280,-5.337
0.238,0.031,0.283,-5.337
0.169,0.037,0.289,-5.337
0.143,0.037,0.290,-5.337
0.168,0.035,0.289,-5.337
0.121,0.036,0.284,-5.337
0.064,0.039,0.283,-5.337
0.093,0.038,0.286,-5.337
0.162,0.036,0.286,-5.337
0.191,0.034,0.285,-5.337
0.165,0.036,0.284,-5.337
0.103,0.035,0.289,-5.337
0.150,0.033,0.294,-5.337
0.190,0.032,0.295,-5.337
0.125,0.035,0.292,-5.337
0.027,0.038,0.292,-5.337
0.039,0.038,0.291,-5.337
0.098,0.034,0.288,-5.337
0.116,0.029,0.285,-5.337
0.145,0.029,0.284,-5.337
0.207,0.029,0.288,-5.337
0.195,0.029,0.288,-5.337
0.183,0.033,0.286,-5.337
0.204,0.033,0.286,-5.337
0.179,0.036,0.287,-5.337
0.100,0.035,0.291,-5.337
0.087,0.033,0.295,-5.337
0.153,0.034,0.296,-5.337
0.119,0.036,0.289,-5.337
0.082,0.037,0.286,-5.337
0.120,0.036,0.290,-5.337
0.148,0.035,0.294,-5.337
0.108,0.038,0.295,-5.337
0.072,0.038,0.289,-5.337
0.085,0.038,0.286,-5.337
0.218,0.030,0.289,-5.337
0.217,0.030,0.290,-5.337
0.128,0.031,0.289,-5.337
0.170,0.033,0.291,-5.337
0.184,0.034,0.293,-5.337
0.123,0.031,0.292,-5.337
0.022,0.033,0.288,-5.337
0.033,0.032,0.287,-5.337
0.069,0.031,0.287,-5.337
0.120,0.028,0.286,-5.337
0.098,0.030,0.289,-5.337
0.097,0.031,0.291,-5.337
0.066,0.031,0.287,-5.337
0.049,0.035,0.286,-5.337
0.103,0.034,0.285,-5.337
0.142,0.032,0.284,-5.337
0.102,0.036,0.286,-5.337
-0.008,0.038,0.287,-5.337
-0.019,0.037,0.290,-5.337
0.080,0.033,0.292,-5.337
0.226,0.033,0.293,-5.337
0.254,0.032,0.291,-5.337
0.183,0.032,0.293,-5.337
0.189,0.032,0.294,-5.337
0.195,0.030,0.290,-5.337
0.129,0.034,0.288,-5.337
0.020,0.035,0.286,-5.337
-0.046,0.035,0.284,-5.337
-0.010,0.034,0.287,-5.337
0.096,0.030,0.292,-5.337
0.152,0.032,0.293,-5.337
0.129,0.033,0.290,-5.337
0.084,0.032,0.287,-5.337
0.068,0.032,0.288,-5.337
0.097,0.031,0.289,-5.337
0.007,0.037,0.289,-5.337
-0.036,0.032,0.289,-5.337
0.055,0.026,0.288,-5.337
0.054,0.030,0.283,-5.337
0.049,0.032,0.285,-5.337
0.062,0.033,0.289,-5.337
0.055,0.031,0.291,-5.337
0.079,0.029,0.290,-5.337
0.042,0.032,0.289,-5.337
0.053,0.033,0.291,-5.337
0.063,0.033,0.290,-5.337
0.116,0.032,0.291,-5.337
0.145,0.033,0.292,-5.337
0.136,0.032,0.290,-5.337
0.067,0.032,0.290,-5.337
-0.003,0.029,0.288,-5.337
0.006,0.029,0.288,-5.337
0.074,0.029,0.292,-5.337
0.009,0.033,0.294,-5.337
0.013,0.030,0.291,-5.337
0.167,0.028,0.284,-5.337
0.227,0.028,0.284,-5.337
0.200,0.033,0.286,-5.337
0.108,0.033,0.288,-5.337
0.077,0.030,0.286,-5.337
0.098,0.030,0.284,-5.337
0.055,0.036,0.287,-5.337
0.080,0.036,0.292,-5.337
0.147,0.033,0.293,-5.337
0.182,0.033,0.291,-5.337
0.180,0.033,0.288,-5.337
0.163,0.036,0.286,-5.337
0.188,0.032,0.286,-5.337
0.181,0.033,0.290,-5.337
0.105,0.035,0.291,-5.337
0.079,0.034,0.292,-5.337
0.119,0.035,0.291,-5.337
0.143,0.034,0.288,-5.337
0.094,0.034,0.286,-5.337
0.105,0.032,0.288,-5.337
0.116,0.035,0.290,-5.337
0.086,0.039,0.287,-5.337
0.137,0.037,0.286,-5.337
0.087,0.036,0.287,-5.337
0.026,0.037,0.289,-5.337
0.099,0.040,0.292,-5.337
0.081,0.040,0.296,-5.337
0.057,0.039,0.291,-5.337
-0.002,0.040,0.288,-5.337
-0.022,0.039,0.289,-5.337
0.052,0.036,0.293,-5.337
0.106,0.034,0.293,-5.337
0.120,0.035,0.290,-5.337
0.045,0.037,0.290,-5.337
0.009,0.037,0.292,-5.337
0.005,0.038,0.293,-5.337
0.004,0.039,0.292,-5.337
0.027,0.038,0.290,-5.337
0.039,0.037,0.290,-5.337
0.062,0.032,0.289,-5.337
0.074,0.034,0.285,-5.337
0.046,0.037,0.284,-5.337
0.061,0.036,0.287,-5.337
0.158,0.032,0.292,-5.337
0.165,0.034,0.292,-5.337
0.107,0.031,0.289,-5.337
0.071,0.032,0.291,-5.337
0.012,0.034,0.292,-5.337
0.060,0.030,0.291,-5.337
0.117,0.027,0.292,-5.337
0.119,0.035,0.294,-5.337
0.046,0.040,0.292,-5.337
-0.027,0.038,0.290,-5.337
0.025,0.034,0.288,-5.337
0.124,0.031,0.286,-5.337
0.134,0.030,0.288,-5.337
0.156,0.029,0.293,-5.337
0.219,0.028,0.294,-5.337
0.251,0.030,0.296,-5.337
0.219,0.034,0.294,-5.337
0.135,0.035,0.291,-5.337
0.138,0.033,0.288,-5.337
0.151,0.032,0.286,-5.337
0.055,0.037,0.287,-5.337
0.018,0.044,0.291,-5.337
0.094,0.039,0.290,-5.337
0.137,0.039,0.290,-5.337
0.110,0.041,0.292,-5.337
0.151,0.043,0.296,-5.337
0.187,0.040,0.295,-5.337
0.125,0.042,0.293,-5.337
0.051,0.045,0.288,-5.337
0.076,0.046,0.288,-5.337
0.093,0.045,0.288,-5.337
0.121,0.040,0.290,-5.337
0.116,0.038,0.288,-5.337
0.069,0.038,0.287,-5.337
0.079,0.040,0.289,-5.337
0.158,0.039,0.290,-5.337
0.203,0.038,0.293,-5.337
0.172,0.037,0.294,-5.337
0.178,0.038,0.289,-5.337
0.178,0.039,0.289,-5.337
0.158,0.037,0.291,-5.337
0.188,0.040,0.294,-5.337
0.188,0.041,0.295,-5.337
0.117,0.041,0.294,-5.337
0.175,0.035,0.293,-5.337
0.242,0.035,0.288,-5.337
0.214,0.041,0.284,-5.337
0.198,0.045,0.288,-5.337
0.226,0.044,0.294,-5.337
0.226,0.044,0.293,-5.337
0.233,0.044,0.295,-5.337
0.217,0.046,0.297,-5.337
0.227,0.044,0.297,-5.337
0.189,0.044,0.293,-5.337
0.142,0.047,0.289,-5.337
0.102,0.047,0.286,-5.337
0.137,0.045,0.286,-5.337
0.135,0.044,0.288,-5.337
0.179,0.043,0.291,-5.337
0.130,0.050,0.290,-5.337
0.062,0.055,0.294,-5.337
0.050,0.053,0.297,-5.337
0.098,0.046,0.294,-5.337
0.164,0.046,0.288,-5.337
0.159,0.044,0.285,-5.337
0.143,0.047,0.285,-5.337
0.069,0.051,0.282,-5.337
0.129,0.048,0.284,-5.337
0.213,0.044,0.286,-5.337
0.206,0.046,0.293,-5.337
0.144,0.046,0.296,-5.337
0.156,0.046,0.298,-5.337
0.198,0.042,0.296,-5.337
0.192,0.042,0.292,-5.337
0.119,0.045,0.288,-5.337
0.113,0.045,0.290,-5.337
0.198,0.040,0.291,-5.337
0.225,0.040,0.292,-5.337
0.235,0.037,0.290,-5.337
0.282,0.039,0.290,-5.337
0.304,0.046,0.292,-5.337
0.155,0.049,0.291,-5.337
0.071,0.048,0.287,-5.337
0.132,0.048,0.289,-5.337
0.253,0.047,0.290,-5.337
0.280,0.047,0.290,-5.337
0.180,0.049,0.286,-5.337
0.224,0.044,0.284,-5.337
0.269,0.043,0.287,-5.337
0.174,0.047,0.290,-5.337
0.127,0.046,0.290,-5.337
0.193,0.045,0.289,-5.337
0.259,0.045,0.290,-5.337
0.244,0.044,0.289,-5.337
0.209,0.045,0.288,-5.337
0.214,0.047,0.289,-5.337
0.223,0.052,0.291,-5.337
0.230,0.051,0.290,-5.337
0.251,0.048,0.289,-5.337
0.272,0.050,0.289,-5.337
0.296,0.048,0.288,-5.337
0.309,0.048,0.287,-5.337
0.223,0.052,0.288,-5.337
0.234,0.050,0.288,-5.337
0.324,0.048,0.289,-5.337
0.359,0.048,0.289,-5.337
0.314,0.051,0.288,-5.337
0.229,0.049,0.287,-5.337
0.184,0.054,0.287,-5.337
0.167,0.056,0.292,-5.337
0.154,0.055,0.292,-5.337
0.177,0.054,0.292,-5.337
0.265,0.051,0.288,-5.337
0.295,0.053,0.286,-5.337
0.278,0.055,0.286,-5.337
0.252,0.050,0.290,-5.337
0.238,0.050,0.289,-5.337
0.211,0.048,0.289,-5.337
0.216,0.045,0.289,-5.337
0.251,0.049,0.289,-5.337
0.251,0.049,0.287,-5.337
0.276,0.046,0.286,-5.337
0.327,0.046,0.284,-5.337
0.258,0.050,0.284,-5.337
0.187,0.051,0.288,-5.337
0.219,0.052,0.290,-5.337
0.290,0.048,0.294,-5.337
0.349,0.048,0.296,-5.337
0.308,0.053,0.295,-5.337
0.260,0.055,0.292,-5.337
0.263,0.054,0.290,-5.337
0.209,0.053,0.289,-5.337
0.221,0.051,0.294,-5.337
0.210,0.052,0.294,-5.337
0.233,0.050,0.289,-5.337
0.273,0.050,0.288,-5.337
0.274,0.054,0.291,-5.337
0.253,0.055,0.291,-5.337
0.187,0.057,0.290,-5.337
0.208,0.054,0.289,-5.337
0.310,0.056,0.290,-5.337
0.247,0.053,0.290,-5.337
0.239,0.052,0.293,-5.337
0.308,0.053,0.294,-5.337
0.272,0.055,0.292,-5.337
0.199,0.058,0.286,-5.337
0.212,0.056,0.287,-5.337
0.290,0.052,0.296,-5.337
0.357,0.051,0.298,-5.337
0.293,0.052,0.296,-5.337
0.189,0.052,0.290,-5.337
0.262,0.050,0.290,-5.337
0.275,0.055,0.286,-5.337
0.230,0.054,0.285,-5.337
0.268,0.053,0.288,-5.337
0.317,0.052,0.291,-5.337
0.342,0.051,0.287,-5.337
0.311,0.051,0.290,-5.337
0.326,0.051,0.291,-5.337
0.242,0.054,0.290,-5.337
0.203,0.051,0.290,-5.337
0.277,0.052,0.293,-5.337
0.330,0.053,0.291,-5.337
0.299,0.056,0.288,-5.337
0.307,0.055,0.285,-5.337
0.311,0.058,0.289,-5.337
0.309,0.059,0.292,-5.337
0.269,0.057,0.289,-5.337
0.297,0.057,0.288,-5.337
0.311,0.059,0.288,-5.337
0.374,0.060,0.290,-5.337
0.420,0.057,0.291,-5.337
0.380,0.055,0.294,-5.337
0.283,0.057,0.294,-5.337
0.222,0.058,0.292,-5.337
0.251,0.057,0.290,-5.337
0.353,0.055,0.291,-5.337
0.417,0.059,0.289,-5.337
0.429,0.065,0.291,-5.337
0.371,0.062,0.292,-5.337
0.382,0.060,0.292,-5.337
0.313,0.060,0.289,-5.337
0.322,0.062,0.290,-5.337
0.351,0.059,0.290,-5.337
0.336,0.061,0.291,-5.337
0.302,0.061,0.289,-5.337
0.317,0.064,0.286,-5.337
0.298,0.068,0.287,-5.337
0.273,0.068,0.287,-5.337
0.271,0.063,0.287,-5.337
0.318,0.063,0.289,-5.337
0.275,0.068,0.293,-5.337
0.219,0.068,0.294,-5.337
0.242,0.060,0.292,-5.337
0.266,0.060,0.289,-5.337
0.322,0.061,0.289,-5.337
0.355,0.064,0.292,-5.337
0.289,0.064,0.293,-5.337
0.226,0.064,0.291,-5.337
0.311,0.062,0.291,-5.337
0.378,0.059,0.290,-5.337
0.342,0.061,0.289,-5.337
0.361,0.059,0.290,-5.337
0.389,0.061,0.294,-5.337
0.353,0.061,0.297,-5.337
0.283,0.065,0.298,-5.337
0.237,0.065,0.294,-5.337
0.307,0.063,0.289,-5.337
0.397,0.061,0.287,-5.337
0.389,0.061,0.288,-5.337
0.392,0.063,0.289,-5.337
0.342,0.063,0.290,-5.337
0.282,0.061,0.293,-5.337
0.289,0.063,0.295,-5.337
0.401,0.063,0.295,-5.337
0.393,0.063,0.291,-5.337
0.300,0.064,0.290,-5.337
0.286,0.068,0.289,-5.337
0.330,0.067,0.289,-5.337
0.313,0.066,0.288,-5.337
0.325,0.063,0.288,-5.337
0.341,0.063,0.289,-5.337
0.321,0.066,0.291,-5.337
0.296,0.063,0.294,-5.337
0.352,0.063,0.292,-5.337
0.366,0.065,0.289,-5.337
0.367,0.064,0.289,-5.337
0.411,0.064,0.287,-5.337
0.375,0.061,0.286,-5.337
0.372,0.062,0.285,-5.337
0.404,0.062,0.288,-5.337
0.398,0.062,0.289,-5.337
0.296,0.062,0.285,-5.337
0.263,0.060,0.291,-5.337
0.309,0.059,0.297,-5.337
0.372,0.057,0.295,-5.337
0.407,0.056,0.290,-5.337
0.300,0.057,0.288,-5.337
0.254,0.060,0.289,-5.337
0.230,0.065,0.294,-5.337
0.188,0.065,0.295,-5.337
0.184,0.061,0.294,-5.337
0.232,0.058,0.291,-5.337
0.302,0.061,0.291,-5.337
0.344,0.059,0.289,-5.337
0.266,0.061,0.287,-5.337
0.220,0.061,0.289,-5.337
0.263,0.062,0.291,-5.337
0.298,0.061,0.290,-5.337
0.311,0.060,0.291,-5.337
0.278,0.064,0.290,-5.337
0.278,0.064,0.289,-5.337
0.298,0.063,0.290,-5.337
0.278,0.062,0.290,-5.337
0.330,0.060,0.293,-5.337
0.314,0.060,0.293,-5.337
0.331,0.057,0.292,-5.337
0.366,0.058,0.291,-5.337
0.355,0.062,0.290,-5.337
0.319,0.065,0.287,-5.337
0.298,0.066,0.287,-5.337
0.301,0.066,0.288,-5.337
0.269,0.065,0.291,-5.337
0.180,0.064,0.292,-5.337
0.206,0.063,0.294,-5.337
0.243,0.060,0.293,-5.337
0.230,0.059,0.288,-5.337
0.305,0.059,0.288,-5.337
0.381,0.059,0.294,-5.337
0.363,0.058,0.293,-5.337
0.347,0.056,0.291,-5.337
0.376,0.056,0.289,-5.337
0.323,0.054,0.289,-5.337
0.304,0.053,0.290,-5.337
0.319,0.052,0.289,-5.337
0.277,0.054,0.290,-5.337
0.301,0.057,0.290,-5.337
0.264,0.060,0.291,-5.337
0.229,0.059,0.290,-5.337
0.193,0.063,0.292,-5.337
0.172,0.062,0.296,-5.337
0.134,0.061,0.299,-5.337
0.152,0.057,0.292,-5.337
0.314,0.055,0.286,-5.337
0.398,0.055,0.289,-5.337
0.338,0.054,0.294,-5.337
0.294,0.049,0.294,-5.337
0.274,0.050,0.291,-5.337
0.339,0.051,0.291,-5.337
0.296,0.054,0.292,-5.337
0.210,0.052,0.295,-5.337
0.283,0.048,0.293,-5.337
0.290,0.055,0.291,-5.337
0.293,0.054,0.289,-5.337
0.285,0.051,0.291,-5.337
0.238,0.051,0.291,-5.337
0.194,0.051,0.294,-5.337
0.216,0.052,0.290,-5.337
0.176,0.054,0.286,-5.337
0.144,0.053,0.289,-5.337
0.234,0.053,0.295,-5.337
0.259,0.053,0.300,-5.337
0.235,0.049,0.301,-5.337
0.226,0.046,0.297,-5.337
0.239,0.044,0.296,-5.337
0.284,0.045,0.292,-5.337
0.267,0.049,0.289,-5.337
0.271,0.051,0.293,-5.337
0.250,0.052,0.297,-5.337
0.279,0.049,0.294,-5.337
0.306,0.050,0.288,-5.337
0.296,0.051,0.287,-5.337
0.224,0.051,0.290,-5.337
0.143,0.055,0.293,-5.337
0.134,0.052,0.293,-5.337
0.144,0.048,0.290,-5.337
0.234,0.047,0.288,-5.337
0.256,0.047,0.289,-5.337
0.198,0.046,0.289,-5.337
0.189,0.047,0.293,-5.337
0.206,0.048,0.292,-5.337
0.195,0.046,0.290,-5.337
0.179,0.046,0.289,-5.337
0.200,0.046,0.294,-5.337
0.251,0.045,0.294,-5.337
0.205,0.051,0.291,-5.337
0.155,0.054,0.288,-5.337
0.158,0.052,0.292,-5.337
0.192,0.047,0.295,-5.337
0.264,0.046,0.295,-5.337
0.316,0.046,0.292,-5.337
0.265,0.049,0.295,-5.337
0.177,0.048,0.297,-5.337
0.162,0.049,0.296,-5.337
0.152,0.048,0.296,-5.337
0.141,0.049,0.293,-5.337
0.184,0.050,0.288,-5.337
0.165,0.048,0.285,-5.337
0.086,0.048,0.285,-5.337
0.137,0.044,0.288,-5.337
0.215,0.040,0.294,-5.337
0.238,0.039,0.295,-5.337
0.225,0.040,0.295,-5.337
0.197,0.044,0.294,-5.337
0.174,0.048,0.296,-5.337
0.137,0.047,0.295,-5.337
0.199,0.046,0.294,-5.337
0.197,0.048,0.287,-5.337
0.184,0.051,0.284,-5.337
0.235,0.048,0.285,-5.337
0.260,0.050,0.287,-5.337
0.295,0.047,0.289,-5.337
0.257,0.045,0.292,-5.337
0.217,0.041,0.294,-5.337
0.191,0.043,0.292,-5.337
0.216,0.048,0.291,-5.337
0.193,0.049,0.292,-5.337
0.179,0.046,0.294,-5.337
0.178,0.046,0.292,-5.337
0.128,0.050,0.291,-5.337
0.146,0.044,0.291,-5.337
0.177,0.041,0.292,-5.337
0.165,0.040,0.292,-5.337
0.241,0.039,0.296,-5.337
0.203,0.041,0.294,-5.337
0.120,0.045,0.291,-5.337
0.111,0.047,0.289,-5.337
0.098,0.046,0.289,-5.337
0.123,0.044,0.286,-5.337
0.215,0.043,0.289,-5.337
0.169,0.044,0.289,-5.337
0.093,0.048,0.291,-5.337
0.082,0.049,0.289,-5.337
0.078,0.046,0.287,-5.337
0.092,0.042,0.286,-5.337
0.162,0.042,0.286,-5.337
0.203,0.042,0.286,-5.337
0.197,0.042,0.291,-5.337
0.257,0.038,0.292,-5.337
0.231,0.041,0.290,-5.337
0.146,0.043,0.290,-5.337
0.119,0.038,0.294,-5.337
0.180,0.040,0.295,-5.337
0.172,0.042,0.295,-5.337
0.147,0.045,0.296,-5.337
0.099,0.042,0.294,-5.337
0.160,0.037,0.293,-5.337
0.227,0.039,0.292,-5.337
0.206,0.040,0.294,-5.337
0.169,0.038,0.293,-5.337
0.180,0.037,0.293,-5.337
0.123,0.040,0.291,-5.337
0.100,0.041,0.291,-5.337
0.138,0.035,0.288,-5.337
0.104,0.034,0.287,-5.337
0.082,0.032,0.289,-5.337
0.160,0.030,0.293,-5.337
0.180,0.036,0.295,-5.337
0.153,0.038,0.294,-5.337
0.100,0.037,0.292,-5.337
0.021,0.038,0.287,-5.337
0.040,0.036,0.288,-5.337
0.138,0.035,0.292,-5.337
0.219,0.035,0.291,-5.337
0.174,0.036,0.290,-5.337
0.129,0.036,0.292,-5.337
0.165,0.038,0.291,-5.337
0.182,0.039,0.292,-5.337
0.142,0.040,0.291,-5.337
0.114,0.038,0.288,-5.337
0.099,0.036,0.286,-5.337
0.061,0.041,0.289,-5.337
-0.000,0.042,0.291,-5.337
0.012,0.043,0.295,-5.337
0.064,0.039,0.294,-5.337
0.119,0.037,0.292,-5.337
0.108,0.041,0.294,-5.337
0.032,0.041,0.294,-5.337
0.077,0.040,0.290,-5.337
0.187,0.036,0.290,-5.337
0.212,0.038,0.292,-5.337
0.141,0.045,0.293,-5.337
0.102,0.043,0.292,-5.337
0.214,0.042,0.290,-5.337
0.190,0.041,0.292,-5.337
0.126,0.039,0.291,-5.337
0.043,0.042,0.291,-5.337
0.059,0.043,0.290,-5.337
0.091,0.042,0.293,-5.337
0.078,0.043,0.296,-5.337
0.090,0.042,0.296,-5.337
0.134,0.040,0.296,-5.337
0.076,0.047,0.292,-5.337
0.025,0.047,0.289,-5.337
0.073,0.046,0.291,-5.337
0.113,0.042,0.292,-5.337
0.099,0.042,0.293,-5.337
0.107,0.045,0.293,-5.337
0.111,0.047,0.291,-5.337
0.088,0.043,0.286,-5.337
0.089,0.041,0.286,-5.337
0.154,0.040,0.285,-5.337
0.163,0.040,0.285,-5.337
0.180,0.041,0.291,-5.337
0.116,0.044,0.295,-5.337
0.014,0.045,0.296,-5.337
0.065,0.042,0.293,-5.337
0.142,0.041,0.295,-5.337
0.126,0.038,0.296,-5.337
0.020,0.042,0.297,-5.337
0.027,0.042,0.294,-5.337
0.007,0.045,0.289,-5.337
-0.028,0.043,0.288,-5.337
0.070,0.041,0.290,-5.337
0.131,0.040,0.294,-5.337
0.170,0.041,0.298,-5.337
0.166,0.037,0.296,-5.337
0.233,0.037,0.290,-5.337
0.231,0.040,0.286,-5.337
0.135,0.043,0.288,-5.337
0.106,0.044,0.293,-5.337
0.101,0.041,0.293,-5.337
0.111,0.036,0.290,-5.337
0.106,0.037,0.289,-5.337
0.035,0.040,0.293,-5.337
0.063,0.044,0.293,-5.337
0.156,0.041,0.293,-5.337
0.157,0.040,0.293,-5.337
0.119,0.042,0.293,-5.337
0.138,0.042,0.293,-5.337
0.102,0.040,0.292,-5.337
0.087,0.042,0.286,-5.337
0.071,0.046,0.286,-5.337
0.062,0.045,0.288,-5.337
0.117,0.045,0.292,-5.337
0.078,0.041,0.293,-5.337
0.023,0.042,0.294,-5.337
0.002,0.037,0.293,-5.337
0.117,0.037,0.290,-5.337
0.086,0.036,0.288,-5.337
-0.004,0.039,0.293,-5.337
0.056,0.039,0.294,-5.337
0.099,0.039,0.291,-5.337
0.082,0.037,0.290,-5.337
0.070,0.039,0.294,-5.337
0.114,0.039,0.293,-5.337
0.121,0.039,0.289,-5.337
0.065,0.038,0.289,-5.337
0.087,0.034,0.293,-5.337
0.156,0.032,0.294,-5.337
0.141,0.034,0.290,-5.337
0.117,0.033,0.288,-5.337
0.089,0.035,0.288,-5.337
0.111,0.034,0.288,-5.337
0.116,0.037,0.290,-5.337
0.043,0.041,0.290,-5.337
0.069,0.039,0.290,-5.337
0.195,0.036,0.291,-5.337
0.216,0.034,0.292,-5.337
0.153,0.036,0.291,-5.337
0.133,0.034,0.291,-5.337
0.107,0.039,0.292,-5.337
0.063,0.039,0.291,-5.337
0.113,0.037,0.289,-5.337
0.131,0.038,0.293,-5.337
0.063,0.038,0.299,-5.337
0.112,0.036,0.298,-5.337
0.184,0.038,0.292,-5.337
0.185,0.038,0.289,-5.337
0.194,0.037,0.285,-5.337
0.165,0.038,0.284,-5.337
0.109,0.038,0.291,-5.337
0.138,0.036,0.300,-5.337
0.184,0.037,0.299,-5.337
0.223,0.040,0.297,-5.337
0.130,0.043,0.294,-5.337
0.117,0.045,0.294,-5.337
0.119,0.045,0.296,-5.337
0.060,0.043,0.297,-5.337
0.084,0.039,0.297,-5.337
0.131,0.041,0.294,-5.337
0.086,0.042,0.288,-5.337
0.099,0.043,0.286,-5.337
0.109,0.042,0.288,-5.337
0.135,0.042,0.293,-5.337
0.151,0.041,0.295,-5.337
0.126,0.042,0.293,-5.337
0.102,0.039,0.288,-5.337
0.080,0.037,0.291,-5.337
0.103,0.038,0.293,-5.337
0.152,0.041,0.294,-5.337
0.171,0.040,0.295,-5.337
0.137,0.041,0.293,-5.337
0.064,0.043,0.291,-5.337
0.011,0.047,0.289,-5.337
0.035,0.043,0.290,-5.337
0.118,0.040,0.288,-5.337
0.096,0.044,0.291,-5.337
0.111,0.044,0.291,-5.337
0.180,0.042,0.288,-5.337
0.195,0.039,0.285,-5.337
0.232,0.036,0.291,-5.337
0.239,0.039,0.296,-5.337
0.250,0.041,0.300,-5.337
0.315,0.037,0.299,-5.337
0.268,0.041,0.298,-5.337
0.145,0.043,0.298,-5.337
0.128,0.044,0.297,-5.337
0.104,0.043,0.295,-5.337
0.107,0.044,0.289,-5.337
0.090,0.048,0.285,-5.337
0.042,0.045,0.285,-5.337
0.146,0.042,0.288,-5.337
0.199,0.042,0.290,-5.337
0.126,0.042,0.291,-5.337
0.182,0.044,0.288,-5.337
0.204,0.047,0.287,-5.337
0.180,0.046,0.287,-5.337
0.233,0.043,0.291,-5.337
0.307,0.041,0.293,-5.337
0.293,0.043,0.294,-5.337
0.214,0.044,0.300,-5.337
0.145,0.044,0.300,-5.337
0.163,0.042,0.297,-5.337
0.192,0.046,0.293,-5.337
0.191,0.049,0.289,-5.337
0.173,0.049,0.291,-5.337
0.191,0.047,0.298,-5.337
0.194,0.047,0.299,-5.337
0.121,0.052,0.294,-5.337
0.101,0.051,0.291,-5.337
0.090,0.053,0.294,-5.337
0.105,0.050,0.293,-5.337
0.144,0.048,0.294,-5.337
0.150,0.048,0.292,-5.337
0.210,0.049,0.289,-5.337
0.211,0.051,0.285,-5.337
0.210,0.049,0.288,-5.337
0.189,0.049,0.292,-5.337
0.194,0.047,0.293,-5.337
0.217,0.043,0.289,-5.337
0.220,0.044,0.288,-5.337
0.289,0.042,0.292,-5.337
0.225,0.046,0.294,-5.337
0.100,0.050,0.294,-5.337
0.137,0.051,0.291,-5.337
0.264,0.047,0.291,-5.337
0.279,0.048,0.296,-5.337
0.182,0.052,0.295,-5.337
0.205,0.052,0.290,-5.337
0.215,0.051,0.292,-5.337
0.230,0.053,0.298,-5.337
0.278,0.050,0.299,-5.337
0.259,0.051,0.295,-5.337
0.178,0.050,0.291,-5.337
0.217,0.046,0.290,-5.337
0.197,0.046,0.292,-5.337
0.251,0.045,0.290,-5.337
0.266,0.049,0.290,-5.337
0.161,0.051,0.292,-5.337
0.149,0.050,0.293,-5.337
0.260,0.049,0.293,-5.337
0.307,0.047,0.293,-5.337
0.276,0.047,0.292,-5.337
0.220,0.048,0.288,-5.337
0.202,0.045,0.287,-5.337
0.228,0.047,0.289,-5.337
0.235,0.053,0.292,-5.337
0.216,0.054,0.292,-5.337
0.222,0.053,0.291,-5.337
0.276,0.050,0.289,-5.337
0.335,0.049,0.292,-5.337
0.314,0.053,0.292,-5.337
0.303,0.055,0.292,-5.337
0.257,0.054,0.291,-5.337
0.244,0.053,0.292,-5.337
0.256,0.054,0.291,-5.337
0.207,0.060,0.292,-5.337
0.125,0.061,0.293,-5.337
0.150,0.058,0.296,-5.337
0.178,0.058,0.294,-5.337
0.191,0.057,0.291,-5.337
0.236,0.058,0.285,-5.337
0.222,0.058,0.284,-5.337
0.226,0.058,0.287,-5.337
0.191,0.059,0.293,-5.337
0.255,0.057,0.296,-5.337
0.346,0.058,0.294,-5.337
0.413,0.053,0.291,-5.337
0.398,0.051,0.291,-5.337
0.293,0.057,0.291,-5.337
0.286,0.055,0.289,-5.337
0.348,0.053,0.288,-5.337
0.388,0.056,0.290,-5.337
0.395,0.056,0.291,-5.337
0.320,0.057,0.292,-5.337
0.320,0.049,0.293,-5.337
0.364,0.052,0.290,-5.337
0.266,0.056,0.289,-5.337
0.223,0.052,0.291,-5.337
0.318,0.046,0.294,-5.337
0.321,0.047,0.294,-5.337
0.280,0.054,0.295,-5.337
0.320,0.054,0.293,-5.337
0.346,0.052,0.290,-5.337
0.363,0.051,0.287,-5.337
0.381,0.053,0.288,-5.337
0.358,0.058,0.290,-5.337
0.221,0.058,0.293,-5.337
0.183,0.053,0.293,-5.337
0.234,0.054,0.291,-5.337
0.327,0.052,0.290,-5.337
0.413,0.052,0.289,-5.337
0.320,0.054,0.290,-5.337
0.255,0.055,0.293,-5.337
0.297,0.054,0.293,-5.337
0.347,0.056,0.292,-5.337
0.287,0.059,0.292,-5.337
0.238,0.059,0.289,-5.337
0.206,0.060,0.290,-5.337
0.249,0.056,0.289,-5.337
0.259,0.055,0.291,-5.337
0.292,0.057,0.290,-5.337
0.313,0.055,0.288,-5.337
0.303,0.054,0.286,-5.337
0.320,0.053,0.285,-5.337
0.350,0.054,0.286,-5.337
0.349,0.057,0.289,-5.337
0.311,0.057,0.292,-5.337
0.263,0.055,0.292,-5.337
0.254,0.054,0.292,-5.337
0.300,0.054,0.290,-5.337
0.379,0.055,0.288,-5.337
0.373,0.058,0.288,-5.337
0.286,0.055,0.286,-5.337
0.259,0.056,0.287,-5.337
0.285,0.056,0.292,-5.337
0.298,0.056,0.297,-5.337
0.275,0.054,0.295,-5.337
0.302,0.050,0.291,-5.337
0.337,0.052,0.294,-5.337
0.343,0.051,0.292,-5.337
0.305,0.055,0.294,-5.337
0.281,0.054,0.294,-5.337
0.353,0.056,0.292,-5.337
0.368,0.057,0.290,-5.337
0.339,0.053,0.291,-5.337
0.288,0.055,0.290,-5.337
0.273,0.058,0.292,-5.337
0.267,0.061,0.293,-5.337
0.242,0.063,0.295,-5.337
0.237,0.061,0.295,-5.337
0.226,0.061,0.293,-5.337
0.244,0.063,0.293,-5.337
0.272,0.065,0.293,-5.337
0.265,0.061,0.291,-5.337
0.308,0.059,0.285,-5.337
0.274,0.058,0.284,-5.337
0.256,0.058,0.287,-5.337
0.279,0.057,0.290,-5.337
0.316,0.059,0.288,-5.337
0.349,0.058,0.286,-5.337
0.300,0.057,0.283,-5.337
0.316,0.056,0.288,-5.337
0.345,0.059,0.293,-5.337
0.351,0.061,0.297,-5.337
0.358,0.055,0.298,-5.337
0.341,0.054,0.298,-5.337
0.386,0.054,0.298,-5.337
0.396,0.053,0.293,-5.337
0.371,0.055,0.291,-5.337
0.392,0.057,0.292,-5.337
0.405,0.056,0.290,-5.337
0.343,0.058,0.287,-5.337
0.351,0.056,0.283,-5.337
0.414,0.057,0.285,-5.337
0.449,0.054,0.290,-5.337
0.440,0.051,0.297,-5.337
0.282,0.058,0.297,-5.337
0.195,0.059,0.292,-5.337
0.228,0.057,0.291,-5.337
0.266,0.060,0.290,-5.337
0.299,0.062,0.291,-5.337
0.337,0.057,0.290,-5.337
0.445,0.055,0.289,-5.337
0.436,0.055,0.284,-5.337
0.366,0.059,0.286,-5.337
0.311,0.055,0.292,-5.337
0.258,0.059,0.297,-5.337
0.275,0.060,0.296,-5.337
0.372,0.058,0.291,-5.337
0.377,0.061,0.285,-5.337
0.339,0.065,0.286,-5.337
0.326,0.061,0.290,-5.337
0.267,0.063,0.292,-5.337
0.175,0.063,0.292,-5.337
0.255,0.064,0.289,-5.337
0.412,0.062,0.290,-5.337
0.475,0.061,0.292,-5.337
0.392,0.063,0.292,-5.337
0.281,0.063,0.294,-5.337
0.235,0.059,0.294,-5.337
0.223,0.058,0.290,-5.337
0.299,0.057,0.291,-5.337
0.331,0.057,0.291,-5.337
0.280,0.060,0.292,-5.337
0.285,0.059,0.290,-5.337
0.232,0.057,0.292,-5.337
0.166,0.054,0.292,-5.337
0.171,0.053,0.289,-5.337
0.225,0.053,0.286,-5.337
0.211,0.055,0.286,-5.337
0.216,0.055,0.291,-5.337
0.275,0.054,0.292,-5.337
0.295,0.054,0.293,-5.337
0.324,0.057,0.292,-5.337
0.403,0.056,0.292,-5.337
0.431,0.057,0.293,-5.337
0.402,0.053,0.292,-5.337
0.335,0.053,0.289,-5.337
0.310,0.055,0.287,-5.337
0.320,0.055,0.288,-5.337
0.340,0.052,0.291,-5.337
0.336,0.051,0.288,-5.337
0.364,0.049,0.290,-5.337
0.378,0.049,0.289,-5.337
0.323,0.048,0.292,-5.337
0.308,0.043,0.291,-5.337
0.300,0.044,0.290,-5.337
0.270,0.049,0.289,-5.337
0.260,0.050,0.292,-5.337
0.277,0.048,0.290,-5.337
0.237,0.051,0.290,-5.337
0.245,0.049,0.291,-5.337
0.310,0.046,0.289,-5.337
0.280,0.046,0.288,-5.337
0.256,0.050,0.288,-5.337
0.216,0.050,0.289,-5.337
0.245,0.051,0.293,-5.337
0.317,0.046,0.293,-5.337
0.361,0.043,0.292,-5.337
0.352,0.044,0.293,-5.337
0.283,0.046,0.296,-5.337
0.224,0.048,0.298,-5.337
0.235,0.046,0.296,-5.337
0.288,0.044,0.291,-5.337
0.256,0.048,0.285,-5.337
0.177,0.051,0.288,-5.337
0.181,0.050,0.291,-5.337
0.217,0.049,0.296,-5.337
0.197,0.050,0.297,-5.337
0.222,0.050,0.299,-5.337
0.264,0.051,0.293,-5.337
0.282,0.050,0.288,-5.337
0.227,0.050,0.289,-5.337
0.261,0.050,0.292,-5.337
0.317,0.046,0.292,-5.337
0.313,0.044,0.292,-5.337
0.260,0.048,0.290,-5.337
0.187,0.055,0.288,-5.337
0.163,0.055,0.289,-5.337
0.215,0.050,0.294,-5.337
0.217,0.048,0.296,-5.337
0.126,0.051,0.297,-5.337
0.051,0.054,0.296,-5.337
0.111,0.052,0.296,-5.337
0.231,0.047,0.296,-5.337
0.278,0.047,0.288,-5.337
0.217,0.048,0.285,-5.337
0.162,0.052,0.288,-5.337
0.151,0.049,0.293,-5.337
0.155,0.043,0.293,-5.337
0.238,0.042,0.291,-5.337
0.277,0.043,0.292,-5.337
0.179,0.047,0.296,-5.337
0.140,0.046,0.294,-5.337
0.139,0.047,0.290,-5.337
0.190,0.048,0.289,-5.337
0.321,0.043,0.295,-5.337
0.287,0.043,0.294,-5.337
0.192,0.045,0.291,-5.337
0.245,0.044,0.290,-5.337
0.267,0.044,0.292,-5.337
0.313,0.044,0.293,-5.337
0.352,0.044,0.294,-5.337
0.273,0.043,0.295,-5.337
0.209,0.042,0.292,-5.337
0.184,0.043,0.291,-5.337
0.226,0.041,0.296,-5.337
0.231,0.040,0.298,-5.337
0.192,0.041,0.293,-5.337
0.193,0.041,0.291,-5.337
0.195,0.039,0.290,-5.337
0.146,0.042,0.291,-5.337
0.096,0.044,0.290,-5.337
0.157,0.041,0.290,-5.337
0.277,0.042,0.290,-5.337
0.201,0.046,0.292,-5.337
0.116,0.049,0.294,-5.337
0.128,0.049,0.295,-5.337
0.167,0.046,0.296,-5.337
0.180,0.045,0.296,-5.337
0.234,0.045,0.292,-5.337
0.233,0.043,0.293,-5.337
0.159,0.044,0.297,-5.337
0.106,0.043,0.294,-5.337
0.171,0.038,0.295,-5.337
0.254,0.042,0.296,-5.337
0.236,0.043,0.297,-5.337
0.253,0.044,0.295,-5.337
0.205,0.040,0.294,-5.337
0.192,0.037,0.293,-5.337
0.193,0.040,0.292,-5.337
0.197,0.039,0.289,-5.337
0.219,0.039,0.287,-5.337
0.233,0.036,0.287,-5.337
0.226,0.034,0.290,-5.337
0.145,0.038,0.293,-5.337
0.068,0.037,0.291,-5.337
0.108,0.037,0.288,-5.337
0.090,0.040,0.289,-5.337
0.153,0.038,0.293,-5.337
0.162,0.039,0.292,-5.337
0.067,0.040,0.291,-5.337
0.129,0.036,0.291,-5.337
0.237,0.037,0.288,-5.337
0.219,0.043,0.286,-5.337
0.169,0.044,0.291,-5.337
0.122,0.043,0.293,-5.337
0.098,0.038,0.295,-5.337
0.132,0.038,0.294,-5.337
0.193,0.039,0.295,-5.337
0.220,0.042,0.295,-5.337
0.179,0.044,0.295,-5.337
0.134,0.040,0.294,-5.337
0.133,0.037,0.293,-5.337
0.168,0.037,0.291,-5.337
0.132,0.041,0.292,-5.337
0.043,0.039,0.292,-5.337
0.078,0.037,0.289,-5.337
0.146,0.033,0.291,-5.337
0.176,0.034,0.293,-5.337
0.136,0.036,0.295,-5.337
0.147,0.039,0.293,-5.337
0.121,0.035,0.292,-5.337
0.133,0.034,0.294,-5.337
0.185,0.035,0.295,-5.337
0.244,0.035,0.292,-5.337
0.246,0.039,0.289,-5.337
0.238,0.042,0.291,-5.337
0.186,0.042,0.299,-5.337
0.153,0.042,0.297,-5.337
0.217,0.038,0.292,-5.337
0.235,0.037,0.289,-5.337
0.168,0.040,0.292,-5.337
0.111,0.040,0.294,-5.337
0.108,0.039,0.292,-5.337
0.218,0.037,0.291,-5.337
0.282,0.036,0.292,-5.337
0.211,0.034,0.293,-5.337
0.172,0.034,0.292,-5.337
0.098,0.035,0.291,-5.337
0.054,0.040,0.289,-5.337
0.053,0.041,0.287,-5.337
0.097,0.042,0.290,-5.337
0.080,0.041,0.293,-5.337
0.082,0.038,0.294,-5.337
0.116,0.037,0.293,-5.337
0.112,0.037,0.292,-5.337
0.076,0.039,0.294,-5.337
0.106,0.038,0.296,-5.337
0.167,0.041,0.293,-5.337
0.162,0.043,0.288,-5.337
0.119,0.044,0.290,-5.337
0.129,0.042,0.293,-5.337
0.117,0.042,0.295,-5.337
0.134,0.041,0.291,-5.337
0.142,0.042,0.287,-5.337
0.116,0.048,0.289,-5.337
0.118,0.049,0.293,-5.337
0.110,0.046,0.296,-5.337
0.092,0.045,0.292,-5.337
0.138,0.042,0.291,-5.337
0.100,0.044,0.294,-5.337
0.022,0.043,0.295,-5.337
-0.016,0.041,0.294,-5.337
0.015,0.036,0.293,-5.337
0.113,0.034,0.291,-5.337
0.177,0.036,0.287,-5.337
0.095,0.035,0.287,-5.337
0.085,0.034,0.290,-5.337
0.184,0.034,0.292,-5.337
0.212,0.036,0.295,-5.337
0.174,0.039,0.293,-5.337
0.188,0.037,0.293,-5.337
0.162,0.040,0.292,-5.337
0.147,0.042,0.295,-5.337
0.127,0.039,0.294,-5.337
0.103,0.039,0.295,-5.337
0.094,0.038,0.294,-5.337
0.106,0.039,0.291,-5.337
0.134,0.036,0.290,-5.337
0.178,0.036,0.292,-5.337
0.149,0.035,0.295,-5.337
0.124,0.037,0.294,-5.337
0.151,0.040,0.291,-5.337
0.142,0.041,0.290,-5.337
0.083,0.038,0.290,-5.337
0.034,0.039,0.291,-5.337
0.035,0.038,0.294,-5.337
0.056,0.038,0.294,-5.337
0.138,0.036,0.293,-5.337
0.128,0.037,0.290,-5.337
-0.039,0.037,0.291,-5.337
-0.049,0.035,0.294,-5.337
0.035,0.032,0.298,-5.337
0.070,0.034,0.293,-5.337
0.134,0.035,0.290,-5.337
0.176,0.036,0.288,-5.337
0.135,0.040,0.290,-5.337
0.051,0.042,0.292,-5.337
-0.009,0.042,0.294,-5.337
0.086,0.035,0.294,-5.337
0.077,0.036,0.294,-5.337
0.042,0.035,0.293,-5.337
0.079,0.034,0.291,-5.337
0.070,0.036,0.288,-5.337
0.106,0.034,0.290,-5.337
0.191,0.031,0.293,-5.337
0.151,0.032,0.294,-5.337
0.079,0.035,0.292,-5.337
0.125,0.034,0.291,-5.337
0.199,0.031,0.291,-5.337
0.158,0.031,0.291,-5.337
-0.002,0.036,0.292,-5.337
0.035,0.036,0.293,-5.337
0.112,0.037,0.292,-5.337
0.131,0.037,0.290,-5.337
0.086,0.039,0.293,-5.337
0.068,0.039,0.291,-5.337
0.104,0.040,0.291,-5.337
0.170,0.038,0.291,-5.337
0.159,0.041,0.292,-5.337
0.083,0.043,0.292,-5.337
0.128,0.039,0.294,-5.337
0.180,0.038,0.296,-5.337
0.129,0.041,0.296,-5.337
0.092,0.042,0.295,-5.337
0.036,0.042,0.295,-5.337
-0.013,0.043,0.293,-5.337
0.018,0.044,0.293,-5.337
0.150,0.041,0.294,-5.337
0.179,0.038,0.288,-5.337
0.152,0.040,0.286,-5.337
0.125,0.041,0.290,-5.337
0.077,0.042,0.293,-5.337
0.049,0.041,0.293,-5.337
-0.003,0.042,0.297,-5.337
0.075,0.041,0.295,-5.337
0.166,0.039,0.294,-5.337
0.232,0.035,0.292,-5.337
0.209,0.037,0.290,-5.337
0.158,0.038,0.289,-5.337
0.153,0.041,0.291,-5.337
0.179,0.037,0.293,-5.337
0.146,0.038,0.295,-5.337
0.121,0.036,0.292,-5.337
0.131,0.038,0.288,-5.337
0.143,0.035,0.287,-5.337
0.157,0.037,0.287,-5.337
0.066,0.042,0.290,-5.337
0.038,0.043,0.295,-5.337
0.118,0.035,0.297,-5.337
0.188,0.037,0.296,-5.337
0.141,0.042,0.295,-5.337
0.124,0.040,0.296,-5.337
0.134,0.042,0.295,-5.337
0.132,0.038,0.293,-5.337
0.063,0.040,0.295,-5.337
0.027,0.040,0.292,-5.337
0.083,0.037,0.291,-5.337
0.126,0.042,0.288,-5.337
0.118,0.044,0.289,-5.337
0.144,0.045,0.291,-5.337
0.125,0.044,0.295,-5.337
0.107,0.044,0.294,-5.337
0.075,0.045,0.293,-5.337
0.117,0.043,0.288,-5.337
0.124,0.045,0.290,-5.337
0.121,0.046,0.297,-5.337
0.198,0.043,0.296,-5.337
0.158,0.043,0.292,-5.337
0.079,0.043,0.288,-5.337
0.161,0.043,0.288,-5.337
0.195,0.043,0.292,-5.337
0.157,0.043,0.295,-5.337
0.130,0.044,0.292,-5.337
0.140,0.041,0.293,-5.337
0.174,0.042,0.295,-5.337
0.195,0.038,0.298,-5.337
0.183,0.038,0.292,-5.337
0.176,0.041,0.286,-5.337
0.212,0.043,0.286,-5.337
0.211,0.047,0.292,-5.337
0.123,0.045,0.294,-5.337
0.042,0.046,0.291,-5.337
0.032,0.044,0.287,-5.337
0.140,0.045,0.291,-5.337
0.111,0.047,0.293,-5.337
0.036,0.048,0.293,-5.337
0.047,0.042,0.294,-5.337
0.134,0.047,0.293,-5.337
0.116,0.049,0.293,-5.337
0.156,0.044,0.292,-5.337
0.236,0.045,0.292,-5.337
0.247,0.046,0.293,-5.337
0.188,0.048,0.298,-5.337
0.145,0.047,0.296,-5.337
0.205,0.046,0.290,-5.337
0.273,0.049,0.291,-5.337
0.263,0.050,0.297,-5.337
0.158,0.050,0.297,-5.337
0.134,0.046,0.297,-5.337
0.206,0.045,0.297,-5.337
0.236,0.046,0.295,-5.337
0.161,0.048,0.290,-5.337
0.118,0.052,0.292,-5.337
0.199,0.052,0.295,-5.337
0.192,0.051,0.293,-5.337
0.214,0.046,0.289,-5.337
0.298,0.047,0.290,-5.337
0.301,0.050,0.293,-5.337
0.212,0.054,0.296,-5.337
0.108,0.054,0.297,-5.337
0.167,0.051,0.294,-5.337
0.226,0.049,0.292,-5.337
0.215,0.052,0.291,-5.337
0.122,0.055,0.292,-5.337
0.081,0.051,0.296,-5.337
0.173,0.044,0.298,-5.337
0.202,0.045,0.296,-5.337
0.155,0.047,0.295,-5.337
0.165,0.049,0.292,-5.337
0.169,0.051,0.295,-5.337
0.177,0.047,0.296,-5.337
0.211,0.044,0.297,-5.337
0.185,0.046,0.297,-5.337
0.152,0.048,0.297,-5.337
0.229,0.046,0.292,-5.337
0.252,0.049,0.289,-5.337
0.224,0.047,0.289,-5.337
0.185,0.044,0.291,-5.337
0.191,0.045,0.294,-5.337
0.196,0.050,0.298,-5.337
0.256,0.047,0.298,-5.337
0.331,0.042,0.292,-5.337
0.335,0.044,0.292,-5.337
0.353,0.045,0.294,-5.337
0.355,0.042,0.293,-5.337
0.380,0.044,0.290,-5.337
0.381,0.043,0.290,-5.337
0.342,0.046,0.290,-5.337
0.273,0.049,0.290,-5.337
0.267,0.046,0.291,-5.337
0.194,0.051,0.293,-5.337
0.159,0.056,0.289,-5.337
0.184,0.057,0.287,-5.337
0.146,0.055,0.291,-5.337
0.159,0.052,0.295,-5.337
0.202,0.052,0.298,-5.337
0.307,0.051,0.295,-5.337
0.345,0.048,0.290,-5.337
0.339,0.050,0.290,-5.337
0.300,0.051,0.291,-5.337
0.233,0.047,0.290,-5.337
0.211,0.048,0.291,-5.337
0.238,0.051,0.291,-5.337
0.252,0.052,0.293,-5.337
0.177,0.052,0.293,-5.337
0.142,0.052,0.293,-5.337
0.134,0.058,0.293,-5.337
0.084,0.060,0.291,-5.337
0.116,0.056,0.290,-5.337
0.238,0.052,0.294,-5.337
0.317,0.053,0.293,-5.337
0.205,0.056,0.292,-5.337
0.182,0.055,0.292,-5.337
0.281,0.055,0.296,-5.337
0.327,0.051,0.296,-5.337
0.274,0.052,0.295,-5.337
0.265,0.051,0.291,-5.337
0.338,0.051,0.288,-5.337
0.397,0.050,0.288,-5.337
0.345,0.052,0.291,-5.337
0.247,0.050,0.292,-5.337
0.263,0.052,0.290,-5.337
0.343,0.050,0.290,-5.337
0.383,0.050,0.291,-5.337
0.291,0.054,0.290,-5.337
0.226,0.053,0.292,-5.337
0.256,0.053,0.295,-5.337
0.250,0.056,0.294,-5.337
0.259,0.058,0.296,-5.337
0.290,0.053,0.298,-5.337
0.323,0.051,0.297,-5.337
0.383,0.053,0.293,-5.337
0.413,0.052,0.293,-5.337
0.286,0.055,0.293,-5.337
0.176,0.057,0.290,-5.337
0.178,0.054,0.284,-5.337
0.196,0.054,0.287,-5.337
0.189,0.056,0.295,-5.337
0.168,0.057,0.299,-5.337
0.244,0.048,0.298,-5.337
0.304,0.056,0.296,-5.337
0.235,0.060,0.293,-5.337
0.261,0.058,0.293,-5.337
0.287,0.058,0.295,-5.337
0.237,0.060,0.295,-5.337
0.172,0.061,0.291,-5.337
0.237,0.060,0.290,-5.337
0.271,0.058,0.288,-5.337
0.287,0.058,0.287,-5.337
0.222,0.060,0.293,-5.337
0.279,0.061,0.298,-5.337
0.310,0.058,0.300,-5.337
0.281,0.056,0.298,-5.337
0.201,0.057,0.295,-5.337
0.214,0.057,0.291,-5.337
0.313,0.054,0.290,-5.337
0.388,0.052,0.290,-5.337
0.377,0.050,0.290,-5.337
0.319,0.050,0.290,-5.337
0.322,0.049,0.289,-5.337
0.339,0.051,0.287,-5.337
0.284,0.057,0.289,-5.337
0.196,0.056,0.292,-5.337
0.272,0.053,0.299,-5.337
0.365,0.054,0.299,-5.337
0.309,0.056,0.295,-5.337
0.266,0.056,0.292,-5.337
0.290,0.056,0.292,-5.337
0.351,0.058,0.293,-5.337
0.336,0.058,0.291,-5.337
0.372,0.057,0.291,-5.337
0.331,0.057,0.291,-5.337
0.310,0.058,0.294,-5.337
0.313,0.056,0.293,-5.337
0.344,0.060,0.291,-5.337
0.315,0.065,0.290,-5.337
0.289,0.060,0.291,-5.337
0.291,0.054,0.289,-5.337
0.313,0.056,0.287,-5.337
0.362,0.058,0.288,-5.337
0.360,0.062,0.292,-5.337
0.309,0.059,0.291,-5.337
0.281,0.058,0.289,-5.337
0.325,0.057,0.290,-5.337
0.404,0.055,0.295,-5.337
0.375,0.054,0.293,-5.337
0.314,0.053,0.291,-5.337
0.315,0.055,0.292,-5.337
0.308,0.055,0.294,-5.337
0.346,0.054,0.294,-5.337
0.339,0.056,0.289,-5.337
0.327,0.058,0.288,-5.337
0.357,0.055,0.291,-5.337
0.421,0.056,0.294,-5.337
0.394,0.056,0.295,-5.337
0.340,0.056,0.296,-5.337
0.329,0.059,0.295,-5.337
0.335,0.060,0.293,-5.337
0.298,0.059,0.289,-5.337
0.235,0.060,0.286,-5.337
0.246,0.059,0.289,-5.337
0.275,0.057,0.292,-5.337
0.340,0.053,0.293,-5.337
0.331,0.058,0.293,-5.337
0.348,0.056,0.291,-5.337
0.374,0.055,0.290,-5.337
0.356,0.057,0.291,-5.337
0.367,0.058,0.290,-5.337
0.467,0.054,0.291,-5.337
0.412,0.053,0.293,-5.337
0.318,0.053,0.294,-5.337
0.265,0.056,0.292,-5.337
0.276,0.057,0.292,-5.337
0.227,0.059,0.291,-5.337
0.219,0.054,0.292,-5.337
0.321,0.051,0.294,-5.337
0.369,0.053,0.295,-5.337
0.347,0.058,0.292,-5.337
0.345,0.059,0.288,-5.337
0.381,0.057,0.288,-5.337
0.401,0.059,0.290,-5.337
0.334,0.056,0.294,-5.337
0.355,0.056,0.292,-5.337
0.317,0.059,0.287,-5.337
0.273,0.057,0.287,-5.337
0.287,0.054,0.289,-5.337
0.222,0.055,0.291,-5.337
0.229,0.060,0.293,-5.337
0.269,0.062,0.294,-5.337
0.292,0.060,0.290,-5.337
0.295,0.062,0.287,-5.337
0.308,0.061,0.292,-5.337
0.354,0.058,0.299,-5.337
0.457,0.057,0.301,-5.337
0.454,0.056,0.299,-5.337
0.339,0.056,0.296,-5.337
0.243,0.058,0.293,-5.337
0.236,0.059,0.290,-5.337
0.336,0.057,0.287,-5.337
0.376,0.059,0.290,-5.337
0.289,0.062,0.293,-5.337
0.252,0.062,0.293,-5.337
0.275,0.060,0.291,-5.337
0.239,0.062,0.291,-5.337
0.285,0.062,0.289,-5.337
0.243,0.059,0.288,-5.337
0.264,0.056,0.288,-5.337
0.375,0.054,0.293,-5.337
0.422,0.054,0.293,-5.337
0.364,0.057,0.295,-5.337
0.352,0.057,0.296,-5.337
0.364,0.056,0.292,-5.337
0.252,0.056,0.285,-5.337
0.150,0.056,0.285,-5.337
0.213,0.052,0.289,-5.337
0.276,0.051,0.292,-5.337
0.242,0.049,0.296,-5.337
0.220,0.051,0.295,-5.337
0.275,0.049,0.295,-5.337
0.314,0.048,0.291,-5.337
0.277,0.047,0.292,-5.337
0.281,0.046,0.291,-5.337
0.291,0.043,0.293,-5.337
0.344,0.039,0.292,-5.337
0.359,0.041,0.292,-5.337
0.308,0.040,0.293,-5.337
0.281,0.045,0.294,-5.337
0.323,0.047,0.293,-5.337
0.272,0.050,0.293,-5.337
0.278,0.052,0.293,-5.337
0.284,0.052,0.291,-5.337
0.281,0.053,0.291,-5.337
0.303,0.050,0.293,-5.337
0.305,0.045,0.295,-5.337
0.355,0.046,0.295,-5.337
0.356,0.047,0.293,-5.337
0.353,0.045,0.289,-5.337
0.269,0.044,0.287,-5.337
0.262,0.044,0.287,-5.337
0.323,0.045,0.292,-5.337
0.320,0.046,0.295,-5.337
0.330,0.047,0.294,-5.337
0.339,0.048,0.290,-5.337
0.314,0.049,0.290,-5.337
0.238,0.053,0.288,-5.337
0.257,0.052,0.288,-5.337
0.222,0.053,0.291,-5.337
0.104,0.053,0.294,-5.337
0.077,0.051,0.292,-5.337
0.160,0.047,0.291,-5.337
0.187,0.044,0.292,-5.337
0.167,0.047,0.295,-5.337
0.189,0.046,0.301,-5.337
0.174,0.047,0.302,-5.337
0.177,0.044,0.296,-5.337
0.194,0.044,0.292,-5.337
0.274,0.042,0.290,-5.337
0.324,0.045,0.290,-5.337
0.384,0.043,0.294,-5.337
0.328,0.044,0.299,-5.337
0.215,0.044,0.300,-5.337
0.192,0.045,0.293,-5.337
0.190,0.048,0.288,-5.337
0.257,0.044,0.286,-5.337
0.255,0.045,0.291,-5.337
0.215,0.046,0.296,-5.337
0.180,0.045,0.298,-5.337
0.223,0.041,0.299,-5.337
0.311,0.042,0.298,-5.337
0.258,0.047,0.293,-5.337
0.170,0.046,0.291,-5.337
0.241,0.043,0.290,-5.337
0.246,0.045,0.289,-5.337
0.207,0.046,0.291,-5.337
0.246,0.043,0.294,-5.337
0.338,0.042,0.294,-5.337
0.361,0.041,0.292,-5.337
0.227,0.044,0.293,-5.337
0.166,0.043,0.294,-5.337
0.245,0.041,0.295,-5.337
0.298,0.039,0.292,-5.337
0.275,0.042,0.295,-5.337
0.274,0.040,0.293,-5.337
0.255,0.043,0.297,-5.337
0.262,0.042,0.301,-5.337
0.265,0.042,0.301,-5.337
0.256,0.040,0.297,-5.337
0.200,0.045,0.295,-5.337
0.196,0.044,0.293,-5.337
0.216,0.042,0.292,-5.337
0.116,0.045,0.288,-5.337
0.084,0.047,0.288,-5.337
0.082,0.043,0.292,-5.337
0.142,0.040,0.297,-5.337
0.165,0.039,0.300,-5.337
0.156,0.042,0.299,-5.337
0.117,0.039,0.294,-5.337
0.091,0.041,0.291,-5.337
0.120,0.040,0.289,-5.337
0.221,0.038,0.290,-5.337
0.267,0.038,0.295,-5.337
0.259,0.036,0.298,-5.337
0.188,0.039,0.298,-5.337
0.141,0.038,0.295,-5.337
0.171,0.038,0.292,-5.337
0.189,0.039,0.291,-5.337
0.203,0.039,0.291,-5.337
0.188,0.036,0.291,-5.337
0.185,0.037,0.290,-5.337
0.208,0.036,0.290,-5.337
0.198,0.040,0.294,-5.337
0.253,0.040,0.296,-5.337
0.236,0.042,0.295,-5.337
0.080,0.046,0.293,-5.337
0.057,0.048,0.292,-5.337
0.127,0.047,0.291,-5.337
0.163,0.045,0.292,-5.337
0.128,0.042,0.295,-5.337
0.127,0.041,0.294,-5.337
0.187,0.041,0.294,-5.337
0.166,0.044,0.294,-5.337
0.164,0.047,0.294,-5.337
0.200,0.045,0.287,-5.337
0.171,0.047,0.284,-5.337
0.128,0.047,0.285,-5.337
0.126,0.045,0.292,-5.337
0.164,0.041,0.296,-5.337
0.151,0.041,0.297,-5.337
0.168,0.041,0.296,-5.337
0.149,0.043,0.296,-5.337
0.151,0.043,0.293,-5.337
0.116,0.048,0.289,-5.337
0.127,0.045,0.288,-5.337
0.186,0.044,0.291,-5.337
0.176,0.044,0.295,-5.337
0.213,0.043,0.295,-5.337
0.154,0.042,0.293,-5.337
0.048,0.042,0.288,-5.337
0.094,0.041,0.289,-5.337
0.214,0.042,0.289,-5.337
0.204,0.042,0.291,-5.337
0.142,0.039,0.294,-5.337
0.173,0.039,0.298,-5.337
0.129,0.035,0.296,-5.337
0.133,0.038,0.295,-5.337
0.241,0.039,0.292,-5.337
0.274,0.042,0.293,-5.337
0.144,0.041,0.293,-5.337
0.108,0.037,0.294,-5.337
0.147,0.035,0.292,-5.337
0.159,0.039,0.295,-5.337
0.128,0.037,0.298,-5.337
0.104,0.040,0.295,-5.337
0.066,0.039,0.292,-5.337
0.079,0.038,0.291,-5.337
0.091,0.036,0.292,-5.337
0.119,0.037,0.290,-5.337
0.143,0.042,0.290,-5.337
0.156,0.043,0.292,-5.337
0.116,0.042,0.294,-5.337
0.110,0.042,0.291,-5.337
0.120,0.039,0.288,-5.337
0.112,0.038,0.288,-5.337
0.107,0.038,0.289,-5.337
0.116,0.039,0.292,-5.337
0.155,0.036,0.296,-5.337
0.202,0.032,0.297,-5.337
0.236,0.030,0.298,-5.337
0.191,0.030,0.294,-5.337
0.142,0.034,0.291,-5.337
0.158,0.033,0.291,-5.337
0.178,0.035,0.295,-5.337
0.173,0.035,0.294,-5.337
0.060,0.040,0.294,-5.337
0.014,0.040,0.294,-5.337
0.112,0.035,0.293,-5.337
0.176,0.036,0.294,-5.337
0.046,0.041,0.297,-5.337
-0.053,0.041,0.297,-5.337
0.048,0.037,0.295,-5.337
0.119,0.038,0.292,-5.337
0.123,0.037,0.292,-5.337
0.090,0.036,0.292,-5.337
0.087,0.038,0.292,-5.337
0.107,0.041,0.295,-5.337
0.130,0.038,0.298,-5.337
0.105,0.036,0.297,-5.337
0.142,0.034,0.293,-5.337
0.192,0.034,0.291,-5.337
0.219,0.032,0.289,-5.337
0.206,0.034,0.293,-5.337
0.132,0.033,0.293,-5.337
0.075,0.032,0.291,-5.337
0.120,0.031,0.291,-5.337
0.143,0.031,0.291,-5.337
0.092,0.031,0.290,-5.337
0.056,0.032,0.291,-5.337
0.113,0.029,0.296,-5.337
0.145,0.033,0.297,-5.337
0.125,0.032,0.292,-5.337
0.093,0.031,0.290,-5.337
0.100,0.031,0.291,-5.337
0.087,0.033,0.293,-5.337
0.130,0.035,0.293,-5.337
0.091,0.035,0.293,-5.337
0.080,0.037,0.294,-5.337
0.139,0.035,0.293,-5.337
0.123,0.039,0.293,-5.337
0.112,0.040,0.293,-5.337
0.077,0.043,0.293,-5.337
0.047,0.045,0.287,-5.337
0.004,0.045,0.284,-5.337
0.013,0.041,0.284,-5.337
0.033,0.041,0.286,-5.337
0.041,0.042,0.290,-5.337
0.102,0.041,0.297,-5.337
0.156,0.042,0.299,-5.337
0.090,0.049,0.296,-5.337
-0.011,0.044,0.292,-5.337
0.076,0.042,0.292,-5.337
0.173,0.040,0.293,-5.337
0.151,0.037,0.295,-5.337
0.111,0.037,0.296,-5.337
0.088,0.035,0.291,-5.337
0.069,0.039,0.291,-5.337
0.026,0.038,0.291,-5.337
-0.001,0.033,0.291,-5.337
0.031,0.032,0.291,-5.337
0.140,0.032,0.294,-5.337
0.118,0.036,0.292,-5.337
0.040,0.036,0.287,-5.337
-0.039,0.034,0.286,-5.337
-0.032,0.035,0.289,-5.337
0.062,0.033,0.292,-5.337
0.129,0.036,0.296,-5.337
0.177,0.036,0.294,-5.337
0.177,0.033,0.293,-5.337
0.132,0.033,0.291,-5.337
0.089,0.032,0.291,-5.337
0.167,0.030,0.293,-5.337
0.196,0.031,0.291,-5.337
0.111,0.035,0.288,-5.337
0.081,0.035,0.288,-5.337
0.111,0.033,0.291,-5.337
0.100,0.034,0.290,-5.337
0.028,0.037,0.287,-5.337
0.048,0.036,0.289,-5.337
0.126,0.035,0.295,-5.337
0.066,0.038,0.297,-5.337
0.054,0.039,0.294,-5.337
0.103,0.042,0.291,-5.337
0.063,0.039,0.293,-5.337
0.065,0.035,0.294,-5.337
0.088,0.036,0.293,-5.337
0.165,0.039,0.291,-5.337
0.199,0.042,0.295,-5.337
0.178,0.040,0.293,-5.337
0.201,0.040,0.291,-5.337
0.194,0.040,0.295,-5.337
0.168,0.041,0.298,-5.337
0.127,0.042,0.298,-5.337
0.104,0.042,0.294,-5.337
0.108,0.042,0.290,-5.337
0.097,0.040,0.289,-5.337
0.097,0.040,0.292,-5.337
0.106,0.041,0.291,-5.337
0.099,0.041,0.288,-5.337
0.055,0.046,0.288,-5.337
0.040,0.045,0.292,-5.337
0.081,0.044,0.293,-5.337
0.131,0.043,0.294,-5.337
0.104,0.043,0.292,-5.337
0.072,0.042,0.294,-5.337
0.151,0.041,0.295,-5.337
0.209,0.043,0.297,-5.337
0.177,0.045,0.292,-5.337
0.146,0.045,0.285,-5.337
0.245,0.044,0.282,-5.337
0.264,0.045,0.285,-5.337
0.135,0.046,0.289,-5.337
0.084,0.045,0.290,-5.337
0.145,0.045,0.294,-5.337
0.225,0.045,0.295,-5.337
0.213,0.043,0.294,-5.337
0.233,0.042,0.295,-5.337
0.237,0.043,0.297,-5.337
0.169,0.044,0.295,-5.337
0.169,0.044,0.289,-5.337
0.117,0.044,0.289,-5.337
0.094,0.042,0.293,-5.337
0.155,0.040,0.294,-5.337
0.169,0.044,0.292,-5.337
0.162,0.048,0.292,-5.337
0.111,0.046,0.296,-5.337
0.112,0.045,0.294,-5.337
0.087,0.046,0.294,-5.337
0.096,0.044,0.293,-5.337
0.176,0.040,0.292,-5.337
0.222,0.038,0.290,-5.337
0.144,0.044,0.294,-5.337
0.153,0.041,0.296,-5.337
0.175,0.043,0.295,-5.337
0.121,0.042,0.292,-5.337
0.106,0.044,0.289,-5.337
0.111,0.041,0.289,-5.337
0.139,0.042,0.291,-5.337
0.167,0.042,0.291,-5.337
0.142,0.044,0.289,-5.337
0.130,0.042,0.287,-5.337
0.180,0.041,0.286,-5.337
0.299,0.042,0.289,-5.337
0.289,0.046,0.296,-5.337
0.175,0.046,0.296,-5.337
0.234,0.043,0.293,-5.337
0.349,0.041,0.295,-5.337
0.292,0.046,0.297,-5.337
0.201,0.044,0.294,-5.337
0.175,0.045,0.290,-5.337
0.170,0.047,0.287,-5.337
0.155,0.047,0.289,-5.337
0.191,0.046,0.293,-5.337
0.210,0.043,0.296,-5.337
0.238,0.042,0.296,-5.337
0.245,0.043,0.296,-5.337
0.243,0.044,0.294,-5.337
0.184,0.046,0.289,-5.337
0.139,0.045,0.289,-5.337
0.201,0.044,0.292,-5.337
0.183,0.046,0.294,-5.337
0.166,0.044,0.295,-5.337
0.169,0.045,0.296,-5.337
0.218,0.044,0.297,-5.337
0.259,0.047,0.293,-5.337
0.219,0.050,0.292,-5.337
0.256,0.045,0.293,-5.337
0.391,0.047,0.296,-5.337
0.329,0.047,0.294,-5.337
0.235,0.049,0.289,-5.337
0.244,0.046,0.286,-5.337
0.295,0.047,0.290,-5.337
0.246,0.044,0.292,-5.337
0.266,0.043,0.293,-5.337
0.265,0.050,0.294,-5.337
0.253,0.051,0.292,-5.337
0.240,0.048,0.293,-5.337
0.248,0.047,0.295,-5.337
0.241,0.044,0.293,-5.337
0.280,0.047,0.293,-5.337
0.280,0.051,0.299,-5.337
0.181,0.058,0.298,-5.337
0.135,0.056,0.294,-5.337
0.150,0.051,0.291,-5.337
0.217,0.050,0.292,-5.337
0.283,0.054,0.292,-5.337
0.244,0.053,0.293,-5.337
0.221,0.051,0.290,-5.337
0.189,0.052,0.287,-5.337
0.188,0.055,0.286,-5.337
0.223,0.058,0.294,-5.337
0.290,0.055,0.298,-5.337
0.224,0.057,0.301,-5.337
0.152,0.058,0.295,-5.337
0.160,0.059,0.291,-5.337
0.235,0.054,0.292,-5.337
0.270,0.054,0.294,-5.337
0.284,0.054,0.294,-5.337
0.252,0.054,0.294,-5.337
0.335,0.049,0.293,-5.337
0.320,0.049,0.294,-5.337
0.258,0.049,0.293,-5.337
0.272,0.048,0.292,-5.337
0.267,0.054,0.294,-5.337
0.234,0.054,0.294,-5.337
0.248,0.052,0.294,-5.337
0.300,0.051,0.293,-5.337
0.289,0.053,0.295,-5.337
0.296,0.052,0.296,-5.337
0.258,0.049,0.293,-5.337
0.311,0.044,0.291,-5.337
0.345,0.048,0.290,-5.337
0.334,0.050,0.288,-5.337
0.277,0.053,0.287,-5.337
0.238,0.049,0.286,-5.337
0.333,0.051,0.290,-5.337
0.350,0.052,0.292,-5.337
0.339,0.053,0.294,-5.337
0.308,0.052,0.293,-5.337
0.341,0.053,0.291,-5.337
0.293,0.054,0.292,-5.337
0.220,0.057,0.295,-5.337
0.234,0.057,0.297,-5.337
0.331,0.058,0.294,-5.337
0.402,0.055,0.290,-5.337
0.353,0.053,0.290,-5.337
0.235,0.056,0.290,-5.337
0.225,0.056,0.290,-5.337
0.292,0.051,0.292,-5.337
0.263,0.056,0.292,-5.337
0.232,0.059,0.292,-5.337
0.255,0.056,0.292,-5.337
0.328,0.056,0.295,-5.337
0.417,0.055,0.294,-5.337
0.370,0.057,0.293,-5.337
0.323,0.057,0.291,-5.337
0.319,0.060,0.292,-5.337
0.339,0.060,0.293,-5.337
0.371,0.058,0.293,-5.337
0.279,0.059,0.290,-5.337
0.173,0.059,0.287,-5.337
0.198,0.060,0.291,-5.337
0.282,0.059,0.296,-5.337
0.318,0.057,0.298,-5.337
0.220,0.061,0.294,-5.337
0.185,0.059,0.289,-5.337
0.206,0.059,0.287,-5.337
0.247,0.055,0.289,-5.337
0.270,0.057,0.294,-5.337
0.282,0.055,0.294,-5.337
0.266,0.056,0.291,-5.337
0.246,0.055,0.294,-5.337
0.305,0.054,0.292,-5.337
0.374,0.054,0.289,-5.337
0.378,0.054,0.288,-5.337
0.375,0.058,0.288,-5.337
0.357,0.060,0.286,-5.337
0.285,0.059,0.292,-5.337
0.262,0.057,0.296,-5.337
0.339,0.057,0.294,-5.337
0.318,0.056,0.293,-5.337
0.292,0.055,0.296,-5.337
0.321,0.051,0.294,-5.337
0.379,0.052,0.291,-5.337
0.356,0.059,0.292,-5.337
0.334,0.057,0.292,-5.337
0.351,0.055,0.288,-5.337
0.343,0.055,0.289,-5.337
0.285,0.056,0.294,-5.337
0.299,0.056,0.294,-5.337
0.282,0.056,0.292,-5.337
0.240,0.056,0.287,-5.337
0.268,0.055,0.289,-5.337
0.394,0.055,0.294,-5.337
0.357,0.057,0.299,-5.337
0.353,0.055,0.300,-5.337
0.373,0.057,0.298,-5.337
0.409,0.058,0.296,-5.337
0.352,0.058,0.294,-5.337
0.365,0.058,0.291,-5.337
0.395,0.059,0.290,-5.337
0.369,0.059,0.289,-5.337
0.344,0.057,0.291,-5.337
0.387,0.057,0.293,-5.337
0.390,0.056,0.288,-5.337
0.371,0.053,0.287,-5.337
0.336,0.056,0.289,-5.337
0.353,0.056,0.292,-5.337
0.349,0.054,0.296,-5.337
0.306,0.057,0.295,-5.337
0.256,0.061,0.292,-5.337
0.215,0.064,0.291,-5.337
0.250,0.062,0.293,-5.337
0.324,0.061,0.297,-5.337
0.287,0.062,0.298,-5.337
0.278,0.058,0.297,-5.337
0.306,0.057,0.293,-5.337
0.337,0.059,0.292,-5.337
0.284,0.060,0.292,-5.337
0.256,0.058,0.292,-5.337
0.334,0.055,0.292,-5.337
0.396,0.054,0.289,-5.337
0.345,0.057,0.292,-5.337
0.326,0.058,0.292,-5.337
0.356,0.058,0.292,-5.337
0.412,0.057,0.290,-5.337
0.373,0.054,0.288,-5.337
0.363,0.056,0.292,-5.337
0.368,0.057,0.294,-5.337
0.360,0.054,0.293,-5.337
0.368,0.057,0.290,-5.337
0.273,0.060,0.292,-5.337
0.250,0.062,0.294,-5.337
0.310,0.062,0.290,-5.337
0.324,0.060,0.288,-5.337
0.260,0.062,0.289,-5.337
0.213,0.065,0.297,-5.337
0.190,0.063,0.299,-5.337
0.216,0.065,0.295,-5.337
0.243,0.064,0.293,-5.337
0.323,0.063,0.295,-5.337
0.295,0.065,0.293,-5.337
0.314,0.063,0.290,-5.337
0.291,0.061,0.289,-5.337
0.264,0.057,0.288,-5.337
0.290,0.054,0.287,-5.337
0.343,0.056,0.288,-5.337
0.365,0.053,0.289,-5.337
0.362,0.052,0.290,-5.337
0.413,0.052,0.292,-5.337
0.480,0.052,0.295,-5.337
0.430,0.053,0.292,-5.337
0.379,0.052,0.293,-5.337
0.302,0.051,0.295,-5.337
0.252,0.051,0.295,-5.337
0.264,0.055,0.293,-5.337
0.253,0.054,0.294,-5.337
0.295,0.054,0.293,-5.337
0.329,0.053,0.289,-5.337
0.336,0.053,0.286,-5.337
0.317,0.052,0.287,-5.337
0.306,0.052,0.287,-5.337
0.330,0.050,0.290,-5.337
0.274,0.049,0.291,-5.337
0.246,0.049,0.288,-5.337
0.311,0.048,0.285,-5.337
0.402,0.049,0.287,-5.337
0.414,0.045,0.291,-5.337
0.392,0.044,0.294,-5.337
0.357,0.048,0.293,-5.337
0.297,0.050,0.291,-5.337
0.304,0.047,0.289,-5.337
0.384,0.044,0.289,-5.337
0.340,0.044,0.292,-5.337
0.311,0.046,0.295,-5.337
0.312,0.047,0.294,-5.337
0.276,0.048,0.296,-5.337
0.247,0.046,0.295,-5.337
0.257,0.045,0.294,-5.337
0.318,0.042,0.291,-5.337
0.340,0.044,0.290,-5.337
0.343,0.046,0.290,-5.337
0.335,0.045,0.290,-5.337
0.300,0.049,0.292,-5.337
0.287,0.046,0.292,-5.337
0.294,0.045,0.291,-5.337
0.276,0.052,0.294,-5.337
0.226,0.053,0.292,-5.337
0.260,0.049,0.292,-5.337
0.288,0.046,0.290,-5.337
0.245,0.049,0.291,-5.337
0.247,0.046,0.293,-5.337
0.253,0.043,0.296,-5.337
0.256,0.043,0.294,-5.337
0.259,0.046,0.292,-5.337
0.187,0.049,0.295,-5.337
0.176,0.046,0.299,-5.337
0.229,0.045,0.299,-5.337
0.235,0.044,0.295,-5.337
0.242,0.043,0.292,-5.337
0.278,0.044,0.286,-5.337
0.182,0.043,0.283,-5.337
0.111,0.042,0.283,-5.337
0.192,0.039,0.286,-5.337
0.253,0.037,0.293,-5.337
0.232,0.041,0.300,-5.337
0.185,0.044,0.301,-5.337
0.167,0.041,0.299,-5.337
0.172,0.042,0.297,-5.337
0.215,0.041,0.295,-5.337
0.217,0.040,0.291,-5.337
0.191,0.040,0.289,-5.337
0.167,0.038,0.289,-5.337
0.207,0.036,0.292,-5.337
0.269,0.036,0.298,-5.337
0.226,0.039,0.297,-5.337
0.168,0.041,0.298,-5.337
0.157,0.039,0.294,-5.337
0.226,0.038,0.294,-5.337
0.244,0.040,0.293,-5.337
0.194,0.040,0.295,-5.337
0.137,0.041,0.291,-5.337
0.212,0.038,0.287,-5.337
0.262,0.038,0.288,-5.337
0.171,0.041,0.289,-5.337
0.162,0.037,0.291,-5.337
0.216,0.038,0.292,-5.337
0.276,0.038,0.289,-5.337
0.240,0.037,0.290,-5.337
0.198,0.035,0.291,-5.337
0.192,0.034,0.295,-5.337
0.229,0.034,0.297,-5.337
0.276,0.039,0.295,-5.337
0.197,0.043,0.293,-5.337
0.182,0.040,0.293,-5.337
0.248,0.036,0.294,-5.337
0.240,0.037,0.291,-5.337
0.178,0.033,0.291,-5.337
0.206,0.029,0.295,-5.337
0.232,0.029,0.302,-5.337
0.182,0.034,0.299,-5.337
0.069,0.038,0.292,-5.337
0.098,0.036,0.286,-5.337
0.142,0.034,0.286,-5.337
0.206,0.036,0.291,-5.337
0.259,0.036,0.295,-5.337
0.285,0.034,0.297,-5.337
0.302,0.033,0.295,-5.337
0.233,0.034,0.289,-5.337
0.159,0.039,0.289,-5.337
0.155,0.035,0.295,-5.337
0.162,0.036,0.299,-5.337
0.174,0.036,0.296,-5.337
0.233,0.033,0.291,-5.337
0.244,0.036,0.289,-5.337
0.227,0.042,0.288,-5.337
0.231,0.042,0.289,-5.337
0.209,0.040,0.296,-5.337
0.132,0.039,0.299,-5.337
0.097,0.040,0.295,-5.337
0.207,0.036,0.292,-5.337
0.218,0.040,0.294,-5.337
0.180,0.038,0.294,-5.337
0.134,0.039,0.292,-5.337
0.132,0.040,0.291,-5.337
0.159,0.039,0.290,-5.337
0.185,0.035,0.292,-5.337
0.140,0.035,0.295,-5.337
0.130,0.037,0.296,-5.337
0.173,0.037,0.297,-5.337
0.164,0.041,0.294,-5.337
0.119,0.037,0.293,-5.337
0.142,0.031,0.292,-5.337
0.122,0.032,0.293,-5.337
0.056,0.033,0.295,-5.337
0.104,0.033,0.298,-5.337
0.123,0.032,0.297,-5.337
0.159,0.031,0.294,-5.337
0.156,0.029,0.295,-5.337
0.164,0.027,0.297,-5.337
0.217,0.031,0.292,-5.337
0.193,0.037,0.293,-5.337
0.127,0.039,0.293,-5.337
0.098,0.036,0.292,-5.337
0.162,0.036,0.294,-5.337
0.204,0.039,0.297,-5.337
0.189,0.038,0.297,-5.337
0.141,0.036,0.298,-5.337
0.103,0.034,0.296,-5.337
0.086,0.035,0.294,-5.337
0.070,0.033,0.292,-5.337
0.044,0.033,0.294,-5.337
0.064,0.031,0.296,-5.337
0.087,0.033,0.296,-5.337
0.088,0.037,0.295,-5.337
0.097,0.037,0.292,-5.337
0.128,0.031,0.291,-5.337
0.142,0.032,0.291,-5.337
0.048,0.034,0.288,-5.337
0.080,0.034,0.290,-5.337
0.176,0.029,0.293,-5.337
0.211,0.026,0.293,-5.337
0.083,0.030,0.294,-5.337
-0.007,0.031,0.298,-5.337
0.113,0.031,0.298,-5.337
0.263,0.029,0.293,-5.337
0.267,0.032,0.293,-5.337
0.222,0.033,0.295,-5.337
0.156,0.033,0.296,-5.337
0.156,0.030,0.293,-5.337
0.195,0.031,0.289,-5.337
0.188,0.034,0.287,-5.337
0.211,0.031,0.289,-5.337
0.176,0.029,0.293,-5.337
0.183,0.029,0.293,-5.337
0.208,0.031,0.293,-5.337
0.138,0.033,0.297,-5.337
0.143,0.029,0.295,-5.337
0.137,0.030,0.292,-5.337
0.136,0.030,0.289,-5.337
0.145,0.035,0.289,-5.337
0.035,0.037,0.291,-5.337
0.037,0.033,0.287,-5.337
0.063,0.032,0.285,-5.337
0.044,0.030,0.288,-5.337
0.101,0.033,0.295,-5.337
0.117,0.031,0.294,-5.337
0.105,0.032,0.290,-5.337
0.093,0.032,0.288,-5.337
0.117,0.029,0.290,-5.337
0.136,0.029,0.295,-5.337
0.137,0.029,0.298,-5.337
0.138,0.028,0.295,-5.337
0.186,0.029,0.294,-5.337
0.182,0.030,0.298,-5.337
0.106,0.031,0.301,-5.337
0.105,0.030,0.298,-5.337
0.078,0.031,0.293,-5.337
0.092,0.034,0.291,-5.337
0.083,0.032,0.289,-5.337
0.100,0.030,0.285,-5.337
0.127,0.031,0.284,-5.337
0.172,0.035,0.288,-5.337
0.151,0.034,0.290,-5.337
0.110,0.032,0.291,-5.337
0.152,0.033,0.290,-5.337
0.182,0.035,0.291,-5.337
0.133,0.034,0.293,-5.337
0.140,0.033,0.295,-5.337
0.095,0.031,0.298,-5.337
0.086,0.030,0.295,-5.337
0.151,0.029,0.291,-5.337
0.175,0.030,0.290,-5.337
0.165,0.031,0.291,-5.337
0.143,0.034,0.291,-5.337
0.136,0.033,0.294,-5.337
0.108,0.033,0.296,-5.337
0.082,0.033,0.293,-5.337
0.127,0.029,0.290,-5.337
0.127,0.032,0.289,-5.337
0.100,0.030,0.290,-5.337
0.098,0.030,0.290,-5.337
0.098,0.032,0.292,-5.337
0.134,0.033,0.298,-5.337
0.141,0.033,0.298,-5.337
0.114,0.029,0.293,-5.337
0.104,0.029,0.288,-5.337
0.104,0.028,0.292,-5.337
0.050,0.032,0.294,-5.337
-0.038,0.032,0.295,-5.337
0.015,0.030,0.292,-5.337
0.078,0.027,0.289,-5.337
0.092,0.026,0.289,-5.337
0.120,0.028,0.293,-5.337
0.129,0.025,0.293,-5.337
0.107,0.025,0.295,-5.337
0.096,0.022,0.297,-5.337
0.155,0.027,0.298,-5.337
0.118,0.031,0.294,-5.337
0.005,0.032,0.290,-5.337
-0.047,0.029,0.289,-5.337
0.027,0.028,0.287,-5.337
0.086,0.031,0.289,-5.337
0.136,0.030,0.293,-5.337
0.104,0.030,0.292,-5.337
0.031,0.031,0.293,-5.337
0.000,0.031,0.299,-5.337
0.096,0.032,0.299,-5.337
0.254,0.030,0.297,-5.337
0.267,0.032,0.292,-5.337
0.168,0.036,0.291,-5.337
0.053,0.032,0.288,-5.337
0.036,0.029,0.290,-5.337
0.040,0.028,0.291,-5.337
0.042,0.033,0.291,-5.337
-0.049,0.032,0.289,-5.337
-0.038,0.031,0.291,-5.337
0.047,0.026,0.293,-5.337
0.115,0.024,0.291,-5.337
0.168,0.023,0.290,-5.337
0.230,0.024,0.293,-5.337
0.148,0.029,0.296,-5.337
0.044,0.030,0.296,-5.337
-0.028,0.028,0.292,-5.337
0.060,0.030,0.286,-5.337
0.184,0.029,0.287,-5.337
0.188,0.030,0.291,-5.337
0.163,0.031,0.293,-5.337
0.141,0.033,0.291,-5.337
0.095,0.035,0.293,-5.337
-0.012,0.036,0.295,-5.337
0.029,0.032,0.298,-5.337
0.150,0.032,0.294,-5.337
0.141,0.035,0.290,-5.337
0.139,0.035,0.289,-5.337
0.169,0.034,0.292,-5.337
0.215,0.032,0.289,-5.337
0.280,0.035,0.284,-5.337
0.194,0.038,0.286,-5.337
0.114,0.036,0.291,-5.337
0.090,0.036,0.290,-5.337
0.103,0.040,0.290,-5.337
0.156,0.042,0.291,-5.337
0.163,0.042,0.293,-5.337
0.138,0.042,0.292,-5.337
0.135,0.040,0.290,-5.337
0.148,0.041,0.293,-5.337
0.124,0.043,0.294,-5.337
0.100,0.042,0.291,-5.337
0.143,0.041,0.287,-5.337
0.149,0.044,0.289,-5.337
0.089,0.043,0.292,-5.337
0.052,0.043,0.291,-5.337
0.025,0.043,0.289,-5.337
0.039,0.043,0.290,-5.337
0.033,0.042,0.289,-5.337
0.075,0.040,0.288,-5.337
0.146,0.039,0.290,-5.337
0.169,0.036,0.292,-5.337
0.283,0.031,0.291,-5.337
0.282,0.035,0.289,-5.337
0.259,0.033,0.287,-5.337
0.201,0.033,0.288,-5.337
0.170,0.035,0.292,-5.337
0.118,0.037,0.292,-5.337
0.091,0.035,0.289,-5.337
0.139,0.034,0.287,-5.337
0.140,0.035,0.292,-5.337
0.173,0.034,0.295,-5.337
0.205,0.031,0.295,-5.337
0.212,0.031,0.290,-5.337
0.188,0.037,0.288,-5.337
0.140,0.043,0.286,-5.337
0.059,0.043,0.289,-5.337
0.060,0.040,0.294,-5.337
0.148,0.041,0.296,-5.337
0.161,0.044,0.294,-5.337
0.106,0.046,0.289,-5.337
0.102,0.044,0.288,-5.337
0.127,0.046,0.289,-5.337
0.125,0.043,0.291,-5.337
0.148,0.044,0.292,-5.337
0.217,0.041,0.294,-5.337
0.215,0.040,0.299,-5.337
0.204,0.042,0.297,-5.337
0.248,0.044,0.294,-5.337
0.220,0.048,0.293,-5.337
0.124,0.047,0.293,-5.337
0.076,0.045,0.292,-5.337
0.155,0.045,0.288,-5.337
0.177,0.043,0.291,-5.337
0.195,0.041,0.291,-5.337
0.205,0.041,0.293,-5.337
0.247,0.045,0.292,-5.337
0.244,0.045,0.291,-5.337
0.164,0.047,0.290,-5.337
0.131,0.050,0.290,-5.337
0.244,0.049,0.290,-5.337
0.291,0.049,0.289,-5.337
0.277,0.049,0.289,-5.337
0.309,0.049,0.291,-5.337
0.230,0.051,0.295,-5.337
0.123,0.053,0.294,-5.337
0.167,0.047,0.289,-5.337
0.216,0.045,0.289,-5.337
0.233,0.046,0.292,-5.337
0.257,0.048,0.295,-5.337
0.289,0.047,0.295,-5.337
0.245,0.047,0.295,-5.337
0.182,0.048,0.292,-5.337
0.164,0.046,0.288,-5.337
0.179,0.045,0.288,-5.337
0.240,0.047,0.289,-5.337
0.188,0.055,0.291,-5.337
0.123,0.054,0.293,-5.337
0.220,0.050,0.291,-5.337
0.290,0.044,0.285,-5.337
0.336,0.045,0.286,-5.337
0.254,0.047,0.288,-5.337
0.183,0.049,0.292,-5.337
0.199,0.045,0.292,-5.337
0.219,0.047,0.290,-5.337
0.173,0.048,0.290,-5.337
0.163,0.049,0.291,-5.337
0.232,0.045,0.290,-5.337
0.312,0.048,0.289,-5.337
0.277,0.048,0.291,-5.337
0.304,0.045,0.295,-5.337
0.354,0.042,0.295,-5.337
0.299,0.046,0.295,-5.337
0.272,0.048,0.292,-5.337
0.247,0.048,0.285,-5.337
0.243,0.050,0.287,-5.337
0.258,0.052,0.290,-5.337
0.229,0.054,0.294,-5.337
0.220,0.054,0.294,-5.337
0.236,0.052,0.297,-5.337
0.203,0.052,0.295,-5.337
0.231,0.051,0.294,-5.337
0.283,0.050,0.289,-5.337
0.250,0.052,0.288,-5.337
0.254,0.052,0.286,-5.337
0.260,0.050,0.286,-5.337
0.219,0.048,0.287,-5.337
0.222,0.047,0.288,-5.337
0.212,0.052,0.292,-5.337
0.184,0.051,0.297,-5.337
0.252,0.052,0.298,-5.337
0.299,0.053,0.291,-5.337
0.325,0.053,0.288,-5.337
0.359,0.055,0.290,-5.337
0.417,0.052,0.293,-5.337
0.364,0.050,0.292,-5.337
0.248,0.051,0.292,-5.337
0.230,0.052,0.292,-5.337
0.232,0.054,0.294,-5.337
0.242,0.055,0.294,-5.337
0.272,0.055,0.296,-5.337
0.246,0.054,0.296,-5.337
0.253,0.053,0.293,-5.337
0.340,0.052,0.290,-5.337
0.355,0.051,0.289,-5.337
0.297,0.049,0.293,-5.337
0.297,0.052,0.295,-5.337
0.292,0.053,0.301,-5.337
0.216,0.052,0.305,-5.337
0.236,0.051,0.302,-5.337
0.341,0.048,0.295,-5.337
0.418,0.045,0.290,-5.337
0.390,0.047,0.288,-5.337
0.319,0.051,0.289,-5.337
0.262,0.052,0.291,-5.337
0.280,0.049,0.292,-5.337
0.320,0.049,0.292,-5.337
0.321,0.056,0.296,-5.337
0.289,0.056,0.296,-5.337
0.298,0.053,0.295,-5.337
0.270,0.052,0.294,-5.337
0.274,0.054,0.296,-5.337
0.325,0.050,0.295,-5.337
0.298,0.050,0.292,-5.337
0.327,0.050,0.292,-5.337
0.347,0.052,0.294,-5.337
0.386,0.052,0.292,-5.337
0.323,0.053,0.288,-5.337
0.274,0.053,0.289,-5.337
0.289,0.052,0.292,-5.337
0.328,0.053,0.293,-5.337
0.283,0.055,0.292,-5.337
0.275,0.054,0.290,-5.337
0.267,0.054,0.289,-5.337
0.257,0.055,0.290,-5.337
0.313,0.053,0.289,-5.337
0.307,0.052,0.291,-5.337
0.281,0.052,0.293,-5.337
0.253,0.053,0.294,-5.337
0.276,0.051,0.291,-5.337
0.290,0.054,0.290,-5.337
0.274,0.054,0.292,-5.337
0.317,0.052,0.295,-5.337
0.370,0.050,0.294,-5.337
0.349,0.053,0.292,-5.337
0.321,0.054,0.292,-5.337
0.268,0.053,0.293,-5.337
0.280,0.047,0.290,-5.337
0.330,0.046,0.289,-5.337
0.336,0.050,0.287,-5.337
0.332,0.054,0.289,-5.337
0.347,0.053,0.291,-5.337
0.331,0.051,0.290,-5.337
0.303,0.051,0.289,-5.337
0.330,0.052,0.290,-5.337
0.376,0.049,0.289,-5.337
0.360,0.050,0.287,-5.337
0.358,0.049,0.288,-5.337
0.363,0.048,0.291,-5.337
0.312,0.051,0.293,-5.337
0.293,0.053,0.290,-5.337
0.265,0.056,0.287,-5.337
0.243,0.058,0.287,-5.337
0.257,0.053,0.292,-5.337
0.320,0.051,0.293,-5.337
0.354,0.048,0.293,-5.337
0.402,0.052,0.287,-5.337
0.387,0.053,0.287,-5.337
0.424,0.048,0.290,-5.337
0.408,0.051,0.291,-5.337
0.319,0.056,0.292,-5.337
0.276,0.056,0.295,-5.337
0.329,0.053,0.297,-5.337
0.335,0.055,0.294,-5.337
0.294,0.056,0.291,-5.337
0.297,0.056,0.290,-5.337
0.319,0.053,0.289,-5.337
0.365,0.052,0.289,-5.337
0.344,0.052,0.291,-5.337
0.394,0.049,0.292,-5.337
0.311,0.053,0.294,-5.337
0.226,0.053,0.291,-5.337
0.270,0.051,0.289,-5.337
0.339,0.049,0.288,-5.337
0.341,0.050,0.292,-5.337
0.285,0.052,0.294,-5.337
0.255,0.056,0.293,-5.337
0.319,0.053,0.291,-5.337
0.362,0.051,0.294,-5.337
0.268,0.051,0.297,-5.337
0.217,0.053,0.295,-5.337
0.278,0.050,0.292,-5.337
0.313,0.051,0.290,-5.337
0.256,0.052,0.288,-5.337
0.274,0.052,0.288,-5.337
0.312,0.054,0.288,-5.337
0.262,0.056,0.288,-5.337
0.255,0.052,0.290,-5.337
0.281,0.052,0.291,-5.337
0.286,0.052,0.292,-5.337
0.285,0.055,0.292,-5.337
0.339,0.056,0.295,-5.337
0.428,0.052,0.296,-5.337
0.355,0.054,0.297,-5.337
0.336,0.053,0.291,-5.337
0.334,0.054,0.291,-5.337
0.361,0.053,0.291,-5.337
0.379,0.051,0.295,-5.337
0.357,0.050,0.294,-5.337
0.313,0.048,0.296,-5.337
0.287,0.043,0.296,-5.337
0.261,0.045,0.293,-5.337
0.238,0.051,0.291,-5.337
0.233,0.057,0.292,-5.337
0.277,0.053,0.291,-5.337
0.274,0.052,0.290,-5.337
0.248,0.051,0.289,-5.337
0.246,0.051,0.291,-5.337
0.274,0.051,0.292,-5.337
0.250,0.052,0.290,-5.337
0.226,0.051,0.287,-5.337
0.359,0.047,0.286,-5.337
0.337,0.049,0.292,-5.337
0.246,0.051,0.292,-5.337
0.229,0.050,0.291,-5.337
0.321,0.049,0.290,-5.337
0.397,0.048,0.293,-5.337
0.428,0.047,0.293,-5.337
0.300,0.051,0.293,-5.337
0.157,0.056,0.292,-5.337
0.244,0.055,0.292,-5.337
0.319,0.047,0.292,-5.337
0.303,0.046,0.290,-5.337
0.287,0.049,0.289,-5.337
0.327,0.050,0.292,-5.337
0.354,0.048,0.293,-5.337
0.334,0.046,0.292,-5.337
0.280,0.048,0.289,-5.337
0.291,0.049,0.289,-5.337
0.280,0.050,0.288,-5.337
0.275,0.045,0.287,-5.337
0.284,0.045,0.291,-5.337
0.202,0.047,0.291,-5.337
0.172,0.049,0.291,-5.337
0.239,0.048,0.289,-5.337
0.260,0.045,0.292,-5.337
0.305,0.045,0.294,-5.337
0.241,0.048,0.294,-5.337
0.237,0.047,0.291,-5.337
0.256,0.045,0.292,-5.337
0.232,0.046,0.293,-5.337
0.225,0.047,0.295,-5.337
0.244,0.041,0.292,-5.337
0.243,0.041,0.288,-5.337
0.197,0.041,0.285,-5.337
0.217,0.048,0.286,-5.337
0.230,0.047,0.287,-5.337
0.238,0.047,0.293,-5.337
0.258,0.048,0.296,-5.337
0.352,0.046,0.299,-5.337
0.367,0.044,0.296,-5.337
0.354,0.042,0.289,-5.337
0.349,0.044,0.285,-5.337
0.326,0.044,0.283,-5.337
0.291,0.044,0.286,-5.337
0.263,0.043,0.291,-5.337
0.294,0.041,0.295,-5.337
0.324,0.042,0.292,-5.337
0.290,0.044,0.288,-5.337
0.257,0.045,0.287,-5.337
0.235,0.042,0.289,-5.337
0.196,0.040,0.291,-5.337
0.155,0.043,0.291,-5.337
0.164,0.043,0.290,-5.337
0.277,0.044,0.291,-5.337
0.380,0.042,0.290,-5.337
0.344,0.046,0.289,-5.337
0.272,0.045,0.292,-5.337
0.287,0.042,0.295,-5.337
0.282,0.044,0.293,-5.337
0.228,0.045,0.289,-5.337
0.269,0.046,0.291,-5.337
0.217,0.043,0.297,-5.337
0.180,0.039,0.298,-5.337
0.231,0.038,0.292,-5.337
0.206,0.042,0.286,-5.337
0.157,0.045,0.284,-5.337
0.228,0.042,0.292,-5.337
0.294,0.038,0.293,-5.337
0.238,0.038,0.292,-5.337
0.156,0.037,0.292,-5.337
0.185,0.042,0.292,-5.337
0.193,0.044,0.284,-5.337
0.142,0.044,0.281,-5.337
0.109,0.042,0.286,-5.337
0.119,0.039,0.293,-5.337
0.201,0.040,0.295,-5.337
0.136,0.043,0.294,-5.337
0.093,0.038,0.294,-5.337
0.136,0.039,0.293,-5.337
0.181,0.037,0.289,-5.337
0.103,0.038,0.290,-5.337
0.118,0.036,0.290,-5.337
0.225,0.036,0.291,-5.337
0.223,0.040,0.293,-5.337
0.138,0.040,0.295,-5.337
0.155,0.039,0.295,-5.337
0.255,0.038,0.292,-5.337
0.277,0.037,0.291,-5.337
0.268,0.039,0.291,-5.337
0.168,0.040,0.290,-5.337
0.110,0.037,0.287,-5.337
0.099,0.035,0.285,-5.337
0.122,0.031,0.288,-5.337
0.159,0.034,0.292,-5.337
0.157,0.035,0.290,-5.337
0.191,0.037,0.287,-5.337
0.183,0.037,0.287,-5.337
0.093,0.041,0.290,-5.337
0.130,0.037,0.294,-5.337
0.175,0.038,0.296,-5.337
0.134,0.034,0.295,-5.337
0.147,0.030,0.292,-5.337
0.173,0.030,0.290,-5.337
0.233,0.032,0.289,-5.337
0.249,0.034,0.290,-5.337
0.233,0.031,0.293,-5.337
0.209,0.028,0.294,-5.337
0.160,0.029,0.293,-5.337
0.200,0.031,0.291,-5.337
0.219,0.031,0.287,-5.337
0.248,0.031,0.290,-5.337
0.191,0.034,0.292,-5.337
0.124,0.036,0.294,-5.337
0.170,0.033,0.291,-5.337
0.184,0.038,0.291,-5.337
0.165,0.038,0.291,-5.337
0.192,0.035,0.290,-5.337
0.203,0.030,0.290,-5.337
0.214,0.031,0.292,-5.337
0.191,0.035,0.291,-5.337
0.214,0.038,0.293,-5.337
0.252,0.035,0.293,-5.337
0.179,0.032,0.298,-5.337
0.116,0.030,0.296,-5.337
0.093,0.035,0.287,-5.337
0.104,0.036,0.286,-5.337
0.166,0.035,0.290,-5.337
0.128,0.034,0.292,-5.337
0.046,0.035,0.291,-5.337
0.086,0.033,0.292,-5.337
0.123,0.030,0.292,-5.337
0.109,0.030,0.294,-5.337
0.091,0.032,0.295,-5.337
0.113,0.032,0.296,-5.337
0.134,0.032,0.292,-5.337
0.186,0.033,0.290,-5.337
0.208,0.030,0.293,-5.337
0.185,0.035,0.294,-5.337
0.111,0.036,0.291,-5.337
0.091,0.034,0.288,-5.337
0.122,0.028,0.289,-5.337
0.209,0.025,0.293,-5.337
0.228,0.026,0.292,-5.337
0.189,0.030,0.291,-5.337
0.124,0.032,0.292,-5.337
0.063,0.031,0.290,-5.337
0.021,0.032,0.288,-5.337
0.065,0.033,0.288,-5.337
0.158,0.034,0.294,-5.337
0.176,0.033,0.296,-5.337
0.134,0.034,0.297,-5.337
0.107,0.036,0.295,-5.337
0.114,0.034,0.294,-5.337
0.163,0.033,0.289,-5.337
0.181,0.030,0.288,-5.337
0.104,0.035,0.289,-5.337
0.027,0.040,0.292,-5.337
0.028,0.036,0.294,-5.337
0.060,0.036,0.295,-5.337
0.071,0.038,0.295,-5.337
0.009,0.044,0.293,-5.337
-0.020,0.041,0.290,-5.337
0.030,0.039,0.291,-5.337
0.088,0.039,0.294,-5.337
0.125,0.040,0.297,-5.337
0.107,0.040,0.299,-5.337
0.165,0.036,0.293,-5.337
0.185,0.035,0.289,-5.337
0.169,0.038,0.290,-5.337
0.180,0.037,0.296,-5.337
0.154,0.039,0.298,-5.337
0.189,0.037,0.298,-5.337
0.190,0.038,0.296,-5.337
0.164,0.041,0.294,-5.337
0.122,0.042,0.293,-5.337
0.104,0.040,0.293,-5.337
0.130,0.038,0.292,-5.337
0.053,0.041,0.292,-5.337
0.069,0.036,0.293,-5.337
0.166,0.038,0.293,-5.337
0.155,0.037,0.293,-5.337
0.129,0.036,0.294,-5.337
0.133,0.033,0.295,-5.337
0.107,0.034,0.293,-5.337
0.068,0.038,0.290,-5.337
0.046,0.036,0.292,-5.337
0.074,0.035,0.292,-5.337
0.078,0.034,0.289,-5.337
0.054,0.039,0.285,-5.337
0.129,0.041,0.286,-5.337
0.126,0.037,0.292,-5.337
0.071,0.040,0.295,-5.337
0.047,0.040,0.292,-5.337
0.085,0.040,0.291,-5.337
0.111,0.039,0.292,-5.337
0.119,0.041,0.290,-5.337
0.153,0.038,0.288,-5.337
0.066,0.037,0.289,-5.337
-0.013,0.039,0.291,-5.337
0.052,0.035,0.290,-5.337
0.107,0.034,0.293,-5.337
0.116,0.034,0.296,-5.337
0.127,0.036,0.294,-5.337
0.145,0.037,0.293,-5.337
0.133,0.037,0.291,-5.337
0.086,0.038,0.289,-5.337
0.099,0.039,0.289,-5.337
0.177,0.036,0.291,-5.337
0.242,0.031,0.291,-5.337
0.132,0.033,0.288,-5.337
0.044,0.034,0.286,-5.337
0.067,0.035,0.289,-5.337
0.050,0.038,0.292,-5.337
0.024,0.034,0.291,-5.337
0.061,0.036,0.285,-5.337
0.112,0.035,0.285,-5.337
0.142,0.034,0.287,-5.337
0.124,0.037,0.290,-5.337
0.073,0.037,0.289,-5.337
0.084,0.037,0.292,-5.337
0.123,0.036,0.293,-5.337
0.107,0.037,0.291,-5.337
0.093,0.037,0.288,-5.337
0.036,0.037,0.293,-5.337
0.023,0.036,0.292,-5.337
0.010,0.035,0.289,-5.337
0.069,0.031,0.293,-5.337
0.038,0.037,0.297,-5.337
-0.022,0.041,0.292,-5.337
0.089,0.037,0.288,-5.337
0.186,0.034,0.285,-5.337
0.194,0.035,0.283,-5.337
0.156,0.039,0.285,-5.337
0.194,0.036,0.290,-5.337
0.270,0.035,0.299,-5.337
0.227,0.034,0.298,-5.337
0.125,0.038,0.295,-5.337
0.117,0.036,0.291,-5.337
0.120,0.037,0.292,-5.337
0.047,0.038,0.291,-5.337
-0.005,0.040,0.292,-5.337
0.019,0.042,0.290,-5.337
0.039,0.046,0.290,-5.337
0.019,0.045,0.291,-5.337
-0.028,0.043,0.292,-5.337
-0.040,0.039,0.294,-5.337
0.018,0.039,0.291,-5.337
0.148,0.035,0.289,-5.337
0.222,0.037,0.289,-5.337
0.153,0.042,0.287,-5.337
0.095,0.043,0.288,-5.337
0.107,0.043,0.287,-5.337
0.200,0.045,0.286,-5.337
0.163,0.045,0.289,-5.337
0.104,0.044,0.293,-5.337
0.085,0.041,0.295,-5.337
0.109,0.040,0.295,-5.337
0.067,0.040,0.298,-5.337
0.024,0.041,0.293,-5.337
0.095,0.043,0.290,-5.337
0.140,0.042,0.287,-5.337
0.140,0.038,0.287,-5.337
0.167,0.038,0.290,-5.337
0.199,0.041,0.292,-5.337
0.186,0.041,0.291,-5.337
0.194,0.041,0.293,-5.337
0.255,0.039,0.296,-5.337
0.265,0.039,0.296,-5.337
0.262,0.037,0.293,-5.337
0.276,0.037,0.288,-5.337
0.256,0.040,0.288,-5.337
0.179,0.042,0.290,-5.337
0.091,0.041,0.290,-5.337
0.119,0.041,0.288,-5.337
0.205,0.043,0.292,-5.337
0.186,0.043,0.295,-5.337
0.190,0.043,0.294,-5.337
0.243,0.045,0.292,-5.337
0.226,0.039,0.292,-5.337
0.157,0.040,0.290,-5.337
0.139,0.042,0.291,-5.337
0.155,0.043,0.289,-5.337
0.167,0.043,0.289,-5.337
0.208,0.038,0.286,-5.337
0.131,0.039,0.287,-5.337
0.084,0.040,0.289,-5.337
0.097,0.041,0.290,-5.337
0.149,0.041,0.292,-5.337
0.124,0.045,0.295,-5.337
0.108,0.045,0.293,-5.337
0.153,0.046,0.288,-5.337
0.232,0.044,0.284,-5.337
0.258,0.047,0.287,-5.337
0.098,0.049,0.292,-5.337
0.126,0.045,0.292,-5.337
0.180,0.045,0.289,-5.337
0.176,0.049,0.287,-5.337
0.223,0.048,0.294,-5.337
0.226,0.047,0.299,-5.337
0.181,0.046,0.294,-5.337
0.128,0.048,0.289,-5.337
0.138,0.052,0.288,-5.337
0.157,0.053,0.288,-5.337
0.173,0.049,0.294,-5.337
0.131,0.049,0.293,-5.337
0.108,0.052,0.290,-5.337
0.134,0.050,0.288,-5.337
0.141,0.048,0.289,-5.337
0.124,0.047,0.290,-5.337
0.177,0.048,0.290,-5.337
0.252,0.047,0.286,-5.337
0.245,0.048,0.284,-5.337
0.228,0.047,0.287,-5.337
0.211,0.049,0.291,-5.337
0.163,0.051,0.291,-5.337
0.176,0.050,0.288,-5.337
0.201,0.048,0.289,-5.337
0.239,0.047,0.290,-5.337
0.289,0.044,0.291,-5.337
0.274,0.042,0.293,-5.337
0.262,0.041,0.295,-5.337
0.328,0.041,0.290,-5.337
0.298,0.043,0.289,-5.337
0.158,0.047,0.288,-5.337
0.027,0.050,0.290,-5.337
0.035,0.050,0.291,-5.337
0.129,0.051,0.291,-5.337
0.194,0.049,0.288,-5.337
0.201,0.052,0.289,-5.337
0.208,0.048,0.291,-5.337
0.302,0.049,0.287,-5.337
0.321,0.048,0.282,-5.337
0.214,0.047,0.288,-5.337
0.212,0.051,0.295,-5.337
0.303,0.047,0.295,-5.337
0.290,0.048,0.291,-5.337
0.195,0.048,0.288,-5.337
0.188,0.045,0.287,-5.337
0.256,0.042,0.289,-5.337
0.340,0.042,0.290,-5.337
0.336,0.048,0.288,-5.337
0.266,0.053,0.290,-5.337
0.203,0.052,0.290,-5.337
0.179,0.053,0.292,-5.337
0.221,0.050,0.290,-5.337
0.336,0.051,0.290,-5.337
0.332,0.050,0.290,-5.337
0.331,0.048,0.290,-5.337
0.342,0.052,0.292,-5.337
0.291,0.052,0.294,-5.337
0.249,0.050,0.293,-5.337
0.195,0.051,0.291,-5.337
0.217,0.053,0.289,-5.337
0.182,0.055,0.289,-5.337
0.189,0.052,0.287,-5.337
0.197,0.052,0.285,-5.337
0.237,0.052,0.282,-5.337
0.285,0.050,0.280,-5.337
0.244,0.054,0.283,-5.337
0.197,0.056,0.287,-5.337
0.191,0.054,0.293,-5.337
0.254,0.051,0.295,-5.337
0.297,0.049,0.296,-5.337
0.258,0.052,0.297,-5.337
0.125,0.054,0.294,-5.337
0.143,0.052,0.288,-5.337
0.200,0.047,0.289,-5.337
0.320,0.046,0.291,-5.337
0.271,0.050,0.294,-5.337
0.209,0.053,0.292,-5.337
0.201,0.052,0.290,-5.337
0.204,0.053,0.288,-5.337
0.218,0.055,0.288,-5.337
0.249,0.055,0.291,-5.337
0.203,0.060,0.292,-5.337
0.128,0.054,0.287,-5.337
0.156,0.051,0.288,-5.337
0.206,0.053,0.290,-5.337
0.241,0.050,0.289,-5.337
0.270,0.052,0.292,-5.337
0.269,0.054,0.293,-5.337
0.274,0.053,0.289,-5.337
0.327,0.055,0.285,-5.337
0.361,0.056,0.289,-5.337
0.328,0.059,0.290,-5.337
0.313,0.059,0.292,-5.337
0.292,0.058,0.290,-5.337
0.327,0.058,0.286,-5.337
0.350,0.057,0.288,-5.337
0.305,0.060,0.292,-5.337
0.334,0.057,0.289,-5.337
0.368,0.054,0.289,-5.337
0.338,0.054,0.289,-5.337
0.297,0.056,0.292,-5.337
0.310,0.054,0.292,-5.337
0.402,0.056,0.290,-5.337
0.312,0.062,0.289,-5.337
0.279,0.061,0.291,-5.337
0.380,0.058,0.292,-5.337
0.365,0.056,0.292,-5.337
0.352,0.060,0.293,-5.337
0.313,0.064,0.293,-5.337
0.243,0.060,0.294,-5.337
0.211,0.058,0.295,-5.337
0.244,0.055,0.294,-5.337
0.242,0.059,0.288,-5.337
0.169,0.062,0.287,-5.337
0.234,0.057,0.287,-5.337
0.270,0.057,0.288,-5.337
0.262,0.055,0.291,-5.337
0.290,0.054,0.294,-5.337
0.321,0.053,0.290,-5.337
0.334,0.052,0.286,-5.337
0.420,0.051,0.287,-5.337
0.472,0.052,0.293,-5.337
0.388,0.052,0.292,-5.337
0.337,0.051,0.286,-5.337
0.388,0.055,0.291,-5.337
0.403,0.058,0.293,-5.337
0.387,0.057,0.292,-5.337
0.349,0.058,0.288,-5.337
0.305,0.058,0.290,-5.337
0.338,0.061,0.292,-5.337
0.325,0.061,0.294,-5.337
0.296,0.061,0.294,-5.337
0.365,0.060,0.292,-5.337
0.412,0.059,0.291,-5.337
0.421,0.057,0.294,-5.337
0.338,0.057,0.293,-5.337
0.343,0.059,0.288,-5.337
0.302,0.060,0.288,-5.337
0.297,0.062,0.293,-5.337
0.310,0.059,0.294,-5.337
0.253,0.060,0.294,-5.337
0.205,0.064,0.293,-5.337
0.209,0.067,0.295,-5.337
0.274,0.067,0.291,-5.337
0.278,0.067,0.290,-5.337
0.286,0.064,0.288,-5.337
0.370,0.061,0.287,-5.337
0.450,0.058,0.290,-5.337
0.440,0.060,0.294,-5.337
0.322,0.063,0.296,-5.337
0.278,0.060,0.297,-5.337
0.367,0.056,0.294,-5.337
0.372,0.063,0.291,-5.337
0.317,0.068,0.291,-5.337
0.280,0.065,0.290,-5.337
0.324,0.060,0.289,-5.337
0.329,0.061,0.287,-5.337
0.285,0.062,0.287,-5.337
0.304,0.060,0.290,-5.337
0.344,0.059,0.294,-5.337
0.389,0.053,0.293,-5.337
0.373,0.054,0.291,-5.337
0.278,0.055,0.288,-5.337
0.224,0.057,0.292,-5.337
0.292,0.057,0.293,-5.337
0.415,0.057,0.292,-5.337
0.398,0.056,0.290,-5.337
0.317,0.056,0.290,-5.337
0.265,0.056,0.290,-5.337
0.338,0.056,0.288,-5.337
0.413,0.058,0.289,-5.337
0.379,0.061,0.289,-5.337
0.214,0.065,0.289,-5.337
0.162,0.064,0.287,-5.337
0.238,0.063,0.288,-5.337
0.287,0.063,0.288,-5.337
0.301,0.063,0.287,-5.337
0.315,0.063,0.286,-5.337
0.344,0.062,0.291,-5.337
0.346,0.061,0.292,-5.337
0.276,0.067,0.292,-5.337
0.216,0.066,0.292,-5.337
0.326,0.059,0.289,-5.337
0.396,0.056,0.284,-5.337
0.407,0.057,0.282,-5.337
0.356,0.061,0.282,-5.337
0.289,0.062,0.288,-5.337
0.282,0.059,0.294,-5.337
0.293,0.058,0.295,-5.337
0.265,0.061,0.294,-5.337
0.232,0.057,0.289,-5.337
0.283,0.055,0.288,-5.337
0.342,0.057,0.290,-5.337
0.304,0.057,0.287,-5.337
0.301,0.055,0.287,-5.337
0.342,0.052,0.287,-5.337
0.383,0.052,0.282,-5.337
0.400,0.048,0.285,-5.337
0.358,0.050,0.289,-5.337
0.242,0.052,0.294,-5.337
0.225,0.049,0.292,-5.337
0.221,0.049,0.289,-5.337
0.272,0.049,0.289,-5.337
0.191,0.050,0.292,-5.337
0.153,0.051,0.290,-5.337
0.182,0.052,0.287,-5.337
0.200,0.054,0.287,-5.337
0.280,0.053,0.287,-5.337
0.348,0.051,0.289,-5.337
0.328,0.053,0.290,-5.337
0.341,0.054,0.290,-5.337
0.306,0.055,0.291,-5.337
0.283,0.050,0.292,-5.337
0.312,0.050,0.291,-5.337
0.286,0.051,0.289,-5.337
0.306,0.052,0.289,-5.337
0.375,0.051,0.289,-5.337
0.385,0.048,0.289,-5.337
0.329,0.045,0.290,-5.337
0.330,0.046,0.290,-5.337
0.279,0.050,0.290,-5.337
0.196,0.048,0.289,-5.337
0.207,0.050,0.289,-5.337
0.245,0.050,0.291,-5.337
0.333,0.046,0.292,-5.337
0.337,0.047,0.292,-5.337
0.293,0.048,0.294,-5.337
0.233,0.051,0.297,-5.337
0.161,0.052,0.291,-5.337
0.204,0.047,0.286,-5.337
0.218,0.048,0.287,-5.337
0.249,0.048,0.292,-5.337
0.174,0.050,0.295,-5.337
0.161,0.048,0.294,-5.337
0.300,0.051,0.292,-5.337
0.342,0.048,0.291,-5.337
0.317,0.050,0.290,-5.337
0.324,0.046,0.290,-5.337
0.339,0.047,0.289,-5.337
0.289,0.050,0.292,-5.337
0.186,0.049,0.289,-5.337
0.243,0.048,0.289,-5.337
0.240,0.049,0.290,-5.337
0.263,0.049,0.291,-5.337
0.333,0.046,0.289,-5.337
0.299,0.046,0.290,-5.337
0.209,0.048,0.292,-5.337
0.227,0.048,0.294,-5.337
0.260,0.048,0.294,-5.337
0.229,0.048,0.292,-5.337
0.327,0.046,0.290,-5.337
0.377,0.046,0.287,-5.337
0.362,0.043,0.288,-5.337
0.313,0.044,0.291,-5.337
0.331,0.040,0.292,-5.337
0.374,0.038,0.295,-5.337
0.323,0.039,0.295,-5.337
0.210,0.043,0.291,-5.337
0.153,0.045,0.289,-5.337
0.218,0.042,0.286,-5.337
0.290,0.042,0.288,-5.337
0.238,0.041,0.288,-5.337
0.232,0.044,0.287,-5.337
0.225,0.042,0.286,-5.337
0.169,0.041,0.288,-5.337
0.158,0.041,0.292,-5.337
0.230,0.042,0.290,-5.337
0.193,0.041,0.289,-5.337
0.221,0.037,0.290,-5.337
0.240,0.040,0.291,-5.337
0.188,0.044,0.295,-5.337
0.154,0.042,0.297,-5.337
0.249,0.037,0.292,-5.337
0.327,0.042,0.286,-5.337
0.247,0.044,0.286,-5.337
0.182,0.040,0.286,-5.337
0.215,0.035,0.288,-5.337
0.243,0.041,0.290,-5.337
0.183,0.042,0.289,-5.337
0.127,0.043,0.292,-5.337
0.143,0.040,0.290,-5.337
0.109,0.040,0.290,-5.337
0.157,0.038,0.289,-5.337
0.211,0.038,0.291,-5.337
0.238,0.037,0.289,-5.337
0.232,0.039,0.287,-5.337
0.169,0.040,0.290,-5.337
0.162,0.041,0.294,-5.337
0.179,0.041,0.293,-5.337
0.277,0.038,0.288,-5.337
0.273,0.037,0.286,-5.337
0.194,0.040,0.286,-5.337
0.178,0.041,0.289,-5.337
0.244,0.040,0.289,-5.337
0.187,0.041,0.292,-5.337
0.180,0.040,0.292,-5.337
0.192,0.040,0.290,-5.337
0.205,0.042,0.288,-5.337
0.230,0.043,0.289,-5.337
0.234,0.042,0.289,-5.337
0.184,0.042,0.287,-5.337
0.135,0.041,0.284,-5.337
0.126,0.041,0.285,-5.337
0.194,0.041,0.287,-5.337
0.180,0.039,0.290,-5.337
0.187,0.035,0.292,-5.337
0.221,0.037,0.292,-5.337
0.238,0.036,0.293,-5.337
0.186,0.037,0.290,-5.337
0.166,0.038,0.287,-5.337
0.200,0.036,0.290,-5.337
0.299,0.032,0.291,-5.337
0.254,0.036,0.289,-5.337
0.148,0.039,0.286,-5.337
0.233,0.036,0.285,-5.337
0.270,0.036,0.285,-5.337
0.170,0.042,0.289,-5.337
0.161,0.039,0.292,-5.337
0.160,0.038,0.292,-5.337
0.100,0.040,0.291,-5.337
0.081,0.040,0.292,-5.337
0.111,0.041,0.294,-5.337
0.163,0.037,0.290,-5.337
0.206,0.036,0.287,-5.337
0.185,0.036,0.288,-5.337
0.119,0.037,0.288,-5.337
0.131,0.035,0.288,-5.337
0.205,0.033,0.288,-5.337
0.135,0.035,0.287,-5.337
0.107,0.035,0.286,-5.337
0.247,0.030,0.288,-5.337
0.281,0.031,0.293,-5.337
0.213,0.034,0.293,-5.337
0.188,0.035,0.289,-5.337
0.161,0.035,0.288,-5.337
0.108,0.032,0.291,-5.337
0.082,0.034,0.295,-5.337
0.137,0.034,0.295,-5.337
0.158,0.036,0.291,-5.337
0.128,0.037,0.289,-5.337
0.067,0.037,0.289,-5.337
0.016,0.037,0.288,-5.337
0.013,0.034,0.287,-5.337
0.100,0.036,0.289,-5.337
0.147,0.037,0.295,-5.337
0.217,0.032,0.296,-5.337
0.296,0.036,0.295,-5.337
0.230,0.039,0.291,-5.337
0.188,0.041,0.289,-5.337
0.191,0.037,0.288,-5.337
0.134,0.038,0.291,-5.337
0.149,0.036,0.291,-5.337
0.105,0.039,0.290,-5.337
0.059,0.038,0.288,-5.337
0.137,0.036,0.289,-5.337
0.156,0.037,0.288,-5.337
0.052,0.040,0.287,-5.337
0.029,0.037,0.289,-5.337
0.082,0.036,0.290,-5.337
0.114,0.040,0.289,-5.337
0.097,0.039,0.289,-5.337
0.121,0.034,0.288,-5.337
0.163,0.032,0.289,-5.337
0.165,0.033,0.290,-5.337
0.169,0.036,0.285,-5.337
0.170,0.039,0.287,-5.337
0.116,0.039,0.290,-5.337
0.114,0.040,0.296,-5.337
0.104,0.040,0.296,-5.337
0.100,0.041,0.295,-5.337
0.145,0.039,0.290,-5.337
0.158,0.038,0.288,-5.337
0.146,0.037,0.290,-5.337
0.138,0.037,0.293,-5.337
0.103,0.036,0.294,-5.337
0.029,0.035,0.293,-5.337
0.066,0.032,0.289,-5.337
0.160,0.032,0.286,-5.337
0.223,0.035,0.288,-5.337
0.184,0.041,0.295,-5.337
0.102,0.043,0.298,-5.337
0.080,0.040,0.296,-5.337
0.116,0.037,0.293,-5.337
0.141,0.038,0.296,-5.337
0.162,0.038,0.297,-5.337
0.107,0.039,0.291,-5.337
0.113,0.041,0.286,-5.337
0.105,0.042,0.283,-5.337
0.098,0.038,0.284,-5.337
0.100,0.038,0.286,-5.337
0.126,0.038,0.292,-5.337
0.165,0.034,0.290,-5.337
0.157,0.037,0.291,-5.337
0.123,0.039,0.294,-5.337
0.096,0.034,0.295,-5.337
0.167,0.033,0.292,-5.337
0.134,0.040,0.293,-5.337
0.057,0.038,0.297,-5.337
0.100,0.038,0.296,-5.337
0.118,0.037,0.291,-5.337
0.101,0.041,0.290,-5.337
0.109,0.043,0.290,-5.337
0.129,0.041,0.291,-5.337
0.085,0.042,0.291,-5.337
0.014,0.043,0.285,-5.337
0.054,0.043,0.287,-5.337
0.188,0.038,0.290,-5.337
0.186,0.038,0.294,-5.337
0.126,0.040,0.294,-5.337
0.022,0.042,0.295,-5.337
0.024,0.043,0.294,-5.337
0.078,0.042,0.291,-5.337
0.128,0.039,0.287,-5.337
0.128,0.038,0.291,-5.337
0.135,0.033,0.295,-5.337
0.129,0.034,0.298,-5.337
0.104,0.036,0.296,-5.337
0.086,0.037,0.291,-5.337
0.053,0.037,0.285,-5.337
-0.001,0.037,0.288,-5.337
-0.015,0.038,0.290,-5.337
0.037,0.042,0.288,-5.337
0.130,0.040,0.292,-5.337
0.142,0.037,0.293,-5.337
0.117,0.038,0.292,-5.337
0.047,0.042,0.292,-5.337
0.079,0.042,0.292,-5.337
0.129,0.038,0.289,-5.337
0.061,0.037,0.287,-5.337
-0.004,0.036,0.288,-5.337
-0.004,0.036,0.290,-5.337
0.007,0.036,0.290,-5.337
0.024,0.035,0.290,-5.337
0.053,0.033,0.290,-5.337
0.103,0.033,0.293,-5.337
0.130,0.034,0.294,-5.337
0.122,0.036,0.286,-5.337
0.090,0.033,0.285,-5.337
0.095,0.034,0.288,-5.337
0.158,0.034,0.288,-5.337
0.202,0.032,0.291,-5.337
0.080,0.034,0.294,-5.337
0.048,0.035,0.294,-5.337
0.070,0.036,0.289,-5.337
0.149,0.037,0.286,-5.337
0.104,0.037,0.288,-5.337
0.035,0.037,0.288,-5.337
0.043,0.036,0.287,-5.337
0.050,0.036,0.286,-5.337
0.082,0.034,0.288,-5.337
0.099,0.034,0.291,-5.337
0.097,0.035,0.294,-5.337
0.135,0.035,0.294,-5.337
0.147,0.037,0.292,-5.337
0.113,0.038,0.288,-5.337
0.028,0.040,0.289,-5.337
0.038,0.039,0.286,-5.337
0.045,0.042,0.285,-5.337
0.148,0.039,0.285,-5.337
0.158,0.040,0.287,-5.337
0.156,0.039,0.292,-5.337
0.190,0.038,0.296,-5.337
0.161,0.038,0.292,-5.337
0.082,0.040,0.288,-5.337
0.073,0.040,0.285,-5.337
0.147,0.036,0.286,-5.337
0.166,0.038,0.287,-5.337
0.090,0.040,0.289,-5.337
0.029,0.040,0.291,-5.337
0.076,0.041,0.290,-5.337
0.151,0.040,0.288,-5.337
0.164,0.042,0.288,-5.337
0.132,0.043,0.288,-5.337
0.154,0.040,0.289,-5.337
0.175,0.040,0.288,-5.337
0.204,0.038,0.286,-5.337
0.201,0.040,0.288,-5.337
0.206,0.042,0.290,-5.337
0.135,0.040,0.289,-5.337
0.054,0.039,0.284,-5.337
0.044,0.042,0.282,-5.337
0.054,0.043,0.289,-5.337
0.157,0.039,0.295,-5.337
0.237,0.034,0.291,-5.337
0.122,0.035,0.285,-5.337
0.081,0.037,0.287,-5.337
0.122,0.039,0.294,-5.337
0.151,0.037,0.292,-5.337
0.169,0.040,0.287,-5.337
0.155,0.041,0.288,-5.337
0.144,0.039,0.292,-5.337
0.175,0.037,0.292,-5.337
0.210,0.041,0.288,-5.337
0.170,0.041,0.285,-5.337
0.173,0.040,0.285,-5.337
0.151,0.040,0.292,-5.337
0.197,0.038,0.292,-5.337
0.161,0.036,0.288,-5.337
0.146,0.035,0.288,-5.337
0.262,0.033,0.292,-5.337
0.251,0.035,0.293,-5.337
0.153,0.038,0.289,-5.337
0.181,0.036,0.287,-5.337
0.175,0.040,0.289,-5.337
0.091,0.043,0.290,-5.337
0.024,0.042,0.292,-5.337
0.109,0.039,0.289,-5.337
0.224,0.040,0.289,-5.337
0.214,0.042,0.290,-5.337
0.162,0.039,0.292,-5.337
0.119,0.038,0.293,-5.337
0.126,0.037,0.291,-5.337
0.214,0.037,0.290,-5.337
0.222,0.037,0.290,-5.337
0.253,0.037,0.291,-5.337
0.249,0.038,0.288,-5.337
0.190,0.040,0.287,-5.337
0.159,0.041,0.288,-5.337
0.096,0.038,0.293,-5.337
0.205,0.034,0.294,-5.337
0.322,0.039,0.293,-5.337
0.199,0.042,0.292,-5.337
0.092,0.042,0.292,-5.337
0.120,0.041,0.292,-5.337
0.225,0.041,0.289,-5.337
0.187,0.043,0.287,-5.337
0.102,0.048,0.289,-5.337
0.072,0.047,0.290,-5.337
0.093,0.045,0.290,-5.337
0.142,0.042,0.291,-5.337
0.246,0.040,0.292,-5.337
0.253,0.037,0.292,-5.337
0.150,0.042,0.291,-5.337
0.155,0.044,0.292,-5.337
0.193,0.044,0.287,-5.337
0.211,0.043,0.289,-5.337
0.252,0.043,0.290,-5.337
0.299,0.041,0.290,-5.337
0.250,0.046,0.286,-5.337
0.112,0.049,0.286,-5.337
0.090,0.043,0.286,-5.337
0.220,0.041,0.288,-5.337
0.259,0.041,0.289,-5.337
0.249,0.045,0.290,-5.337
0.219,0.047,0.288,-5.337
0.196,0.045,0.290,-5.337
0.227,0.047,0.291,-5.337
0.273,0.044,0.293,-5.337
0.238,0.047,0.294,-5.337
0.206,0.048,0.291,-5.337
0.238,0.047,0.287,-5.337
0.267,0.046,0.287,-5.337
0.216,0.049,0.292,-5.337
0.267,0.050,0.292,-5.337
0.353,0.053,0.290,-5.337
0.298,0.055,0.287,-5.337
0.161,0.056,0.288,-5.337
0.148,0.050,0.287,-5.337
0.224,0.049,0.287,-5.337
0.282,0.050,0.288,-5.337
0.253,0.051,0.288,-5.337
0.225,0.048,0.288,-5.337
0.232,0.050,0.286,-5.337
0.211,0.054,0.287,-5.337
0.149,0.056,0.287,-5.337
0.161,0.051,0.285,-5.337
0.191,0.048,0.286,-5.337
0.270,0.049,0.288,-5.337
0.325,0.052,0.293,-5.337
0.270,0.052,0.295,-5.337
0.251,0.051,0.289,-5.337
0.257,0.052,0.288,-5.337
0.286,0.049,0.286,-5.337
0.396,0.045,0.288,-5.337
0.329,0.049,0.291,-5.337
0.282,0.051,0.291,-5.337
0.297,0.050,0.286,-5.337
0.220,0.052,0.284,-5.337
0.205,0.049,0.283,-5.337
0.233,0.046,0.282,-5.337
0.262,0.045,0.281,-5.337
0.227,0.051,0.286,-5.337
0.249,0.047,0.289,-5.337
0.323,0.046,0.286,-5.337
0.325,0.048,0.286,-5.337
0.303,0.048,0.289,-5.337
0.246,0.048,0.288,-5.337
0.235,0.049,0.288,-5.337
0.253,0.047,0.288,-5.337
0.299,0.047,0.290,-5.337
0.333,0.046,0.290,-5.337
0.287,0.048,0.289,-5.337
0.286,0.045,0.292,-5.337
0.270,0.048,0.291,-5.337
0.253,0.051,0.289,-5.337
0.236,0.052,0.290,-5.337
0.239,0.047,0.294,-5.337
0.305,0.044,0.290,-5.337
0.275,0.047,0.284,-5.337
0.209,0.047,0.280,-5.337
0.197,0.050,0.287,-5.337
0.225,0.049,0.291,-5.337
0.272,0.050,0.290,-5.337
0.316,0.048,0.287,-5.337
