[Parameters]
Operating Mode, Non-Feedback
Subject  AA..ZZ, WT
Session  0..99, 41
No. Trials (1..9999), 500
Mouse Number, 1
Pressure Probe Serial Port, \00\00\00\04COM4
Save additional csv file, TRUE
Save using mouse number, FALSE
A/D Monitor Rate (Hz), 30000.000000
A/D Stimulate Rate (Hz), 30000.000000
A/D input range (+/- V), 5
No. Channels to acquire (N), 2
Pre-Stim Acq. time (ms), 100.000000
Post-Stim Acq. time (ms), 900.000000
Analysis window parameters.M-response Start (ms), 1.100000
Analysis window parameters.M-response Duration (ms), 5.500000
Analysis window parameters.H-response Duration (ms), 6.000000
Analysis window parameters.H-response Start (ms), 6.500000
Feedback window, H response
Proportional gain, 0.100000
Target value, 6.700000
Feedback Ch., 1
Stim Channel to Control (1-4), 4
Trial, 9
Wait for EMG Conditions, FALSE
Channel to monitor (0 - N-1), 1
EMG Hi Limit, 2.000000
EMG Lo Limit, 0.001000
Inter-Stim delay (sec), 10.000000
EMG Monitor Mode, Mean
Time to run Long Stim.(sec), 30
Save Long Stim Data?, OFF
BURST Save time (ms), 1000
BURST Save Interval (x above), 10
Long-Stim. Rep. Rate (Hz), 10.000000
Stim type cluster array.<size(s)>, 4
Stim type cluster array 0.Stimulus Output, Electrical
Stim type cluster array 1.Stimulus Output, OFF
Stim type cluster array 2.Stimulus Output, OFF
Stim type cluster array 3.Stimulus Output, Motor Length
Stim specs cluster array.<size(s)>, 4
Stim specs cluster array 0.Initial Stimulus ampl., 0.300000
Stim specs cluster array 0.Maximum Stimulus, 1.120000
Stim specs cluster array 0.#Pulses in train, 3
Stim specs cluster array 0.Peak Level time (ms), 1.000000
Stim specs cluster array 0.Total pulse period (ms), 150.000000
Stim specs cluster array 0.Start Delay (ms), 0.000000
Stim specs cluster array 0.Pulse Shape, Square
Stim specs cluster array 0.Ramp/Rel. time (ms), 0.100000
Stim specs cluster array 0.Peak Amplitude (V), 0.120000
Stim specs cluster array 1.Initial Stimulus ampl., 0.000000
Stim specs cluster array 1.Maximum Stimulus, 0.000000
Stim specs cluster array 1.#Pulses in train, 3
Stim specs cluster array 1.Peak Level time (ms), 29.000000
Stim specs cluster array 1.Total pulse period (ms), 200.000000
Stim specs cluster array 1.Start Delay (ms), 0.000000
Stim specs cluster array 1.Pulse Shape, Square
Stim specs cluster array 1.Ramp/Rel. time (ms), 0.000000
Stim specs cluster array 1.Peak Amplitude (V), 2.000000
Stim specs cluster array 2.Initial Stimulus ampl., 0.000000
Stim specs cluster array 2.Maximum Stimulus, 0.000000
Stim specs cluster array 2.#Pulses in train, 1
Stim specs cluster array 2.Peak Level time (ms), 25.000000
Stim specs cluster array 2.Total pulse period (ms), 200.000000
Stim specs cluster array 2.Start Delay (ms), 0.000000
Stim specs cluster array 2.Pulse Shape, Square
Stim specs cluster array 2.Ramp/Rel. time (ms), 20.000000
Stim specs cluster array 2.Peak Amplitude (V), 10.000000
Stim specs cluster array 3.Initial Stimulus ampl., 0.000000
Stim specs cluster array 3.Maximum Stimulus, 0.000000
Stim specs cluster array 3.#Pulses in train, 25
Stim specs cluster array 3.Peak Level time (ms), 0.100000
Stim specs cluster array 3.Total pulse period (ms), 4.000000
Stim specs cluster array 3.Start Delay (ms), -5.000000
Stim specs cluster array 3.Pulse Shape, Triangle
Stim specs cluster array 3.Ramp/Rel. time (ms), 3.000000
Stim specs cluster array 3.Peak Amplitude (V), 0.500000
Force cal. (mN/Volt), 100.000000
Force Range (mN), 100.000000
Length cal. (mm/Volt), 10.000000
Length Range (mm), 10.000000
Stim. 1, 0.300000
Stim. 2, 0.000000
Stim. 3, 0.000000
Stim. 4, 0.000000
Monitor acquire time (ms), 100.000000
EMG graph Ymax, 0.100000
Travel limit (mm), 20.000000
Use Pressure Probe, FALSE
Pressure goal (g), 100
Speed (mm/sec), 5.000000
Dwell time (ms), 100.000000
Pressure limit (g), 500.000000
Channel amplitude offset, 0.000000

[DATA]

0.129,0.046,0.285,-5.337
0.095,0.044,0.283,-5.337
0.042,0.043,0.285,-5.337
0.043,0.045,0.288,-5.337
0.080,0.045,0.289,-5.337
0.091,0.045,0.287,-5.337
0.084,0.046,0.285,-5.337
0.068,0.047,0.288,-5.337
0.065,0.046,0.290,-5.337
0.088,0.044,0.291,-5.337
0.020,0.044,0.292,-5.337
0.092,0.042,0.295,-5.337
0.093,0.046,0.294,-5.337
0.063,0.046,0.292,-5.337
0.108,0.045,0.294,-5.337
0.206,0.043,0.293,-5.337
0.216,0.044,0.292,-5.337
0.142,0.045,0.288,-5.337
0.105,0.045,0.289,-5.337
0.111,0.048,0.290,-5.337
0.092,0.049,0.294,-5.337
0.127,0.044,0.293,-5.337
0.156,0.044,0.291,-5.337
0.095,0.047,0.291,-5.337
0.049,0.049,0.292,-5.337
0.081,0.045,0.290,-5.337
0.105,0.044,0.287,-5.337
0.159,0.045,0.285,-5.337
0.188,0.046,0.287,-5.337
0.174,0.044,0.285,-5.337
0.165,0.047,0.286,-5.337
0.149,0.047,0.288,-5.337
0.189,0.047,0.287,-5.337
0.181,0.047,0.290,-5.337
0.132,0.047,0.294,-5.337
0.142,0.047,0.296,-5.337
0.199,0.051,0.293,-5.337
0.265,0.049,0.289,-5.337
0.312,0.046,0.290,-5.337
0.290,0.046,0.292,-5.337
0.192,0.050,0.292,-5.337
0.094,0.054,0.291,-5.337
0.055,0.057,0.286,-5.337
0.127,0.056,0.287,-5.337
0.136,0.057,0.289,-5.337
0.030,0.060,0.291,-5.337
0.002,0.054,0.293,-5.337
0.127,0.051,0.292,-5.337
0.153,0.052,0.289,-5.337
0.127,0.051,0.291,-5.337
0.206,0.046,0.295,-5.337
0.247,0.045,0.293,-5.337
0.202,0.046,0.288,-5.337
0.149,0.048,0.286,-5.337
0.258,0.046,0.290,-5.337
0.299,0.048,0.291,-5.337
0.276,0.054,0.284,-5.337
0.252,0.053,0.282,-5.337
0.268,0.052,0.287,-5.337
0.278,0.052,0.288,-5.337
0.154,0.050,0.286,-5.337
0.100,0.052,0.287,-5.337
0.155,0.056,0.290,-5.337
0.191,0.056,0.292,-5.337
0.275,0.052,0.294,-5.337
0.311,0.051,0.287,-5.337
0.168,0.055,0.283,-5.337
0.127,0.056,0.286,-5.337
0.225,0.053,0.290,-5.337
0.258,0.053,0.292,-5.337
0.199,0.054,0.292,-5.337
0.197,0.050,0.290,-5.337
0.169,0.049,0.287,-5.337
0.145,0.050,0.287,-5.337
0.189,0.051,0.292,-5.337
0.247,0.050,0.292,-5.337
0.276,0.048,0.292,-5.337
0.214,0.048,0.290,-5.337
0.218,0.049,0.289,-5.337
0.262,0.051,0.292,-5.337
0.230,0.056,0.293,-5.337
0.204,0.056,0.292,-5.337
0.179,0.058,0.287,-5.337
0.076,0.059,0.284,-5.337
0.109,0.054,0.280,-5.337
0.183,0.052,0.284,-5.337
0.168,0.055,0.286,-5.337
0.144,0.057,0.283,-5.337
0.190,0.054,0.286,-5.337
0.233,0.054,0.291,-5.337
0.260,0.055,0.290,-5.337
0.205,0.060,0.289,-5.337
0.186,0.057,0.289,-5.337
0.246,0.053,0.292,-5.337
0.266,0.053,0.290,-5.337
0.306,0.058,0.290,-5.337
0.292,0.058,0.291,-5.337
0.251,0.059,0.295,-5.337
0.262,0.058,0.295,-5.337
0.227,0.064,0.297,-5.337
0.214,0.064,0.295,-5.337
0.248,0.061,0.292,-5.337
0.292,0.059,0.288,-5.337
0.311,0.058,0.286,-5.337
0.303,0.055,0.289,-5.337
0.305,0.057,0.293,-5.337
0.239,0.062,0.294,-5.337
0.177,0.061,0.289,-5.337
0.275,0.056,0.286,-5.337
0.318,0.058,0.284,-5.337
0.272,0.060,0.291,-5.337
0.266,0.059,0.294,-5.337
0.235,0.059,0.294,-5.337
0.198,0.056,0.292,-5.337
0.244,0.052,0.291,-5.337
0.226,0.055,0.291,-5.337
0.275,0.057,0.290,-5.337
0.271,0.057,0.289,-5.337
0.202,0.059,0.286,-5.337
0.144,0.058,0.287,-5.337
0.211,0.058,0.292,-5.337
0.284,0.055,0.292,-5.337
0.345,0.053,0.295,-5.337
0.330,0.052,0.299,-5.337
0.319,0.049,0.293,-5.337
0.307,0.052,0.289,-5.337
0.377,0.049,0.289,-5.337
0.420,0.051,0.292,-5.337
0.345,0.056,0.292,-5.337
0.257,0.059,0.294,-5.337
0.229,0.060,0.296,-5.337
0.262,0.061,0.296,-5.337
0.306,0.059,0.293,-5.337
0.354,0.061,0.291,-5.337
0.362,0.059,0.290,-5.337
0.297,0.060,0.292,-5.337
0.350,0.055,0.290,-5.337
0.326,0.057,0.288,-5.337
0.284,0.056,0.287,-5.337
0.295,0.054,0.287,-5.337
0.352,0.059,0.290,-5.337
0.315,0.059,0.294,-5.337
0.330,0.059,0.293,-5.337
0.307,0.060,0.292,-5.337
0.271,0.058,0.292,-5.337
0.334,0.056,0.292,-5.337
0.392,0.058,0.291,-5.337
0.380,0.061,0.289,-5.337
0.239,0.065,0.288,-5.337
0.155,0.065,0.288,-5.337
0.183,0.065,0.287,-5.337
0.271,0.064,0.288,-5.337
0.302,0.063,0.291,-5.337
0.283,0.061,0.293,-5.337
0.256,0.064,0.292,-5.337
0.261,0.065,0.287,-5.337
0.272,0.064,0.284,-5.337
0.279,0.060,0.281,-5.337
0.272,0.059,0.288,-5.337
0.254,0.061,0.292,-5.337
0.266,0.066,0.290,-5.337
0.348,0.066,0.291,-5.337
0.328,0.063,0.292,-5.337
0.255,0.061,0.290,-5.337
0.271,0.064,0.291,-5.337
0.276,0.066,0.294,-5.337
0.297,0.064,0.291,-5.337
0.299,0.064,0.290,-5.337
0.252,0.066,0.293,-5.337
0.239,0.065,0.294,-5.337
0.319,0.066,0.293,-5.337
0.376,0.063,0.290,-5.337
0.359,0.063,0.286,-5.337
0.280,0.069,0.286,-5.337
0.198,0.070,0.288,-5.337
0.212,0.068,0.290,-5.337
0.354,0.062,0.290,-5.337
0.399,0.068,0.289,-5.337
0.349,0.067,0.286,-5.337
0.333,0.066,0.285,-5.337
0.313,0.067,0.285,-5.337
0.236,0.068,0.288,-5.337
0.312,0.065,0.292,-5.337
0.353,0.068,0.292,-5.337
0.305,0.067,0.290,-5.337
0.284,0.065,0.288,-5.337
0.303,0.067,0.291,-5.337
0.388,0.066,0.291,-5.337
0.376,0.068,0.292,-5.337
0.354,0.070,0.291,-5.337
0.366,0.070,0.294,-5.337
0.360,0.070,0.292,-5.337
0.329,0.069,0.290,-5.337
0.355,0.064,0.285,-5.337
0.332,0.066,0.286,-5.337
0.324,0.062,0.287,-5.337
0.423,0.061,0.290,-5.337
0.435,0.061,0.291,-5.337
0.358,0.065,0.290,-5.337
0.359,0.065,0.288,-5.337
0.363,0.065,0.285,-5.337
0.293,0.062,0.287,-5.337
0.256,0.063,0.288,-5.337
0.310,0.061,0.288,-5.337
0.408,0.062,0.289,-5.337
0.380,0.063,0.287,-5.337
0.333,0.062,0.287,-5.337
0.330,0.063,0.290,-5.337
0.305,0.062,0.293,-5.337
0.284,0.064,0.292,-5.337
0.293,0.068,0.292,-5.337
0.250,0.069,0.293,-5.337
0.255,0.068,0.288,-5.337
0.365,0.064,0.287,-5.337
0.326,0.069,0.285,-5.337
0.193,0.072,0.289,-5.337
0.230,0.066,0.287,-5.337
0.391,0.065,0.287,-5.337
0.386,0.067,0.290,-5.337
0.309,0.069,0.292,-5.337
0.333,0.064,0.289,-5.337
0.350,0.064,0.285,-5.337
0.397,0.062,0.284,-5.337
0.330,0.066,0.290,-5.337
0.317,0.063,0.295,-5.337
0.359,0.065,0.296,-5.337
0.349,0.067,0.292,-5.337
0.349,0.064,0.290,-5.337
0.270,0.063,0.291,-5.337
0.271,0.063,0.289,-5.337
0.280,0.065,0.286,-5.337
0.255,0.065,0.288,-5.337
0.276,0.064,0.289,-5.337
0.408,0.061,0.288,-5.337
0.421,0.065,0.289,-5.337
0.321,0.063,0.290,-5.337
0.345,0.058,0.292,-5.337
0.362,0.058,0.291,-5.337
0.332,0.060,0.290,-5.337
0.308,0.061,0.286,-5.337
0.269,0.063,0.286,-5.337
0.322,0.061,0.285,-5.337
0.377,0.061,0.287,-5.337
0.402,0.059,0.288,-5.337
0.442,0.065,0.290,-5.337
0.364,0.065,0.290,-5.337
0.263,0.066,0.291,-5.337
0.258,0.064,0.291,-5.337
0.309,0.062,0.294,-5.337
0.344,0.059,0.295,-5.337
0.309,0.062,0.294,-5.337
0.238,0.062,0.294,-5.337
0.254,0.058,0.294,-5.337
0.282,0.056,0.293,-5.337
0.290,0.057,0.284,-5.337
0.256,0.054,0.282,-5.337
0.228,0.056,0.287,-5.337
0.226,0.055,0.290,-5.337
0.323,0.053,0.288,-5.337
0.365,0.053,0.286,-5.337
0.301,0.051,0.288,-5.337
0.329,0.048,0.291,-5.337
0.368,0.046,0.289,-5.337
0.337,0.048,0.291,-5.337
0.338,0.049,0.289,-5.337
0.295,0.053,0.291,-5.337
0.247,0.051,0.292,-5.337
0.283,0.051,0.288,-5.337
0.305,0.052,0.286,-5.337
0.266,0.054,0.285,-5.337
0.270,0.054,0.288,-5.337
0.264,0.057,0.291,-5.337
0.257,0.060,0.292,-5.337
0.228,0.057,0.293,-5.337
0.231,0.054,0.295,-5.337
0.242,0.055,0.292,-5.337
0.297,0.053,0.291,-5.337
0.342,0.053,0.290,-5.337
0.348,0.056,0.289,-5.337
0.269,0.056,0.290,-5.337
0.233,0.056,0.293,-5.337
0.280,0.057,0.291,-5.337
0.250,0.060,0.291,-5.337
0.181,0.057,0.289,-5.337
0.121,0.058,0.289,-5.337
0.152,0.058,0.287,-5.337
0.268,0.057,0.292,-5.337
0.334,0.058,0.293,-5.337
0.248,0.059,0.292,-5.337
0.181,0.058,0.289,-5.337
0.179,0.056,0.289,-5.337
0.245,0.055,0.290,-5.337
0.292,0.053,0.288,-5.337
0.224,0.054,0.290,-5.337
0.139,0.059,0.290,-5.337
0.119,0.062,0.288,-5.337
0.162,0.060,0.287,-5.337
0.267,0.053,0.289,-5.337
0.292,0.056,0.286,-5.337
0.236,0.060,0.284,-5.337
0.231,0.058,0.285,-5.337
0.281,0.053,0.290,-5.337
0.275,0.055,0.297,-5.337
0.230,0.056,0.297,-5.337
0.174,0.056,0.294,-5.337
0.254,0.054,0.290,-5.337
0.382,0.053,0.286,-5.337
0.359,0.052,0.287,-5.337
0.307,0.052,0.289,-5.337
0.249,0.058,0.293,-5.337
0.229,0.055,0.294,-5.337
0.222,0.054,0.294,-5.337
0.155,0.054,0.291,-5.337
0.087,0.055,0.287,-5.337
0.151,0.056,0.284,-5.337
0.174,0.054,0.286,-5.337
0.220,0.046,0.292,-5.337
0.302,0.045,0.295,-5.337
0.347,0.045,0.291,-5.337
0.292,0.044,0.285,-5.337
0.201,0.048,0.287,-5.337
0.269,0.046,0.289,-5.337
0.343,0.046,0.293,-5.337
0.316,0.051,0.292,-5.337
0.262,0.052,0.291,-5.337
0.185,0.052,0.287,-5.337
0.079,0.052,0.285,-5.337
0.045,0.054,0.287,-5.337
0.126,0.055,0.291,-5.337
0.146,0.054,0.288,-5.337
0.073,0.053,0.286,-5.337
0.042,0.048,0.290,-5.337
0.137,0.047,0.293,-5.337
0.223,0.049,0.293,-5.337
0.119,0.053,0.295,-5.337
0.054,0.053,0.296,-5.337
0.092,0.049,0.295,-5.337
0.104,0.049,0.290,-5.337
0.132,0.050,0.288,-5.337
0.236,0.046,0.286,-5.337
0.261,0.046,0.284,-5.337
0.219,0.047,0.284,-5.337
0.227,0.047,0.284,-5.337
0.176,0.046,0.288,-5.337
0.153,0.043,0.288,-5.337
0.175,0.045,0.291,-5.337
0.234,0.044,0.287,-5.337
0.252,0.045,0.288,-5.337
0.178,0.050,0.292,-5.337
0.151,0.053,0.298,-5.337
0.177,0.048,0.298,-5.337
0.179,0.049,0.296,-5.337
0.120,0.048,0.291,-5.337
0.173,0.051,0.284,-5.337
0.225,0.048,0.281,-5.337
0.220,0.044,0.283,-5.337
0.266,0.042,0.285,-5.337
0.296,0.044,0.285,-5.337
0.200,0.049,0.287,-5.337
0.092,0.049,0.289,-5.337
0.144,0.044,0.290,-5.337
0.182,0.044,0.289,-5.337
0.167,0.045,0.289,-5.337
0.131,0.047,0.291,-5.337
0.210,0.044,0.293,-5.337
0.217,0.044,0.294,-5.337
0.121,0.049,0.294,-5.337
0.086,0.049,0.291,-5.337
0.147,0.046,0.291,-5.337
0.172,0.046,0.292,-5.337
0.153,0.044,0.292,-5.337
0.123,0.040,0.293,-5.337
0.133,0.039,0.293,-5.337
0.074,0.040,0.293,-5.337
0.099,0.040,0.292,-5.337
0.107,0.042,0.292,-5.337
0.103,0.042,0.293,-5.337
0.143,0.040,0.293,-5.337
0.180,0.044,0.291,-5.337
0.160,0.042,0.290,-5.337
0.178,0.042,0.291,-5.337
0.151,0.045,0.291,-5.337
0.030,0.047,0.291,-5.337
-0.053,0.047,0.291,-5.337
-0.017,0.044,0.289,-5.337
0.110,0.044,0.290,-5.337
0.176,0.044,0.293,-5.337
0.154,0.042,0.293,-5.337
0.087,0.045,0.290,-5.337
0.104,0.044,0.290,-5.337
0.185,0.047,0.290,-5.337
0.217,0.046,0.291,-5.337
0.180,0.042,0.290,-5.337
0.114,0.044,0.290,-5.337
0.104,0.047,0.292,-5.337
0.119,0.042,0.294,-5.337
0.122,0.044,0.294,-5.337
0.037,0.047,0.295,-5.337
0.048,0.048,0.296,-5.337
0.058,0.047,0.296,-5.337
0.056,0.045,0.297,-5.337
0.152,0.044,0.295,-5.337
0.244,0.044,0.291,-5.337
0.182,0.048,0.289,-5.337
0.153,0.044,0.289,-5.337
0.138,0.043,0.292,-5.337
0.111,0.043,0.294,-5.337
0.110,0.042,0.296,-5.337
0.149,0.041,0.295,-5.337
0.137,0.043,0.290,-5.337
0.087,0.044,0.288,-5.337
0.125,0.042,0.290,-5.337
0.198,0.043,0.293,-5.337
0.174,0.044,0.292,-5.337
0.098,0.047,0.291,-5.337
0.157,0.046,0.291,-5.337
0.184,0.043,0.290,-5.337
0.169,0.044,0.291,-5.337
0.149,0.046,0.295,-5.337
0.135,0.047,0.293,-5.337
0.082,0.046,0.287,-5.337
0.055,0.045,0.286,-5.337
0.126,0.044,0.289,-5.337
0.199,0.042,0.293,-5.337
0.185,0.045,0.295,-5.337
0.192,0.043,0.293,-5.337
0.144,0.043,0.288,-5.337
0.097,0.042,0.288,-5.337
0.062,0.046,0.290,-5.337
0.048,0.047,0.293,-5.337
0.016,0.043,0.290,-5.337
0.013,0.042,0.291,-5.337
0.047,0.046,0.295,-5.337
0.068,0.046,0.296,-5.337
0.093,0.044,0.291,-5.337
0.088,0.044,0.290,-5.337
0.095,0.041,0.288,-5.337
0.061,0.040,0.290,-5.337
0.091,0.040,0.290,-5.337
0.092,0.039,0.290,-5.337
0.028,0.040,0.286,-5.337
0.007,0.043,0.286,-5.337
0.038,0.043,0.290,-5.337
0.090,0.042,0.291,-5.337
0.141,0.042,0.287,-5.337
0.140,0.044,0.284,-5.337
0.135,0.042,0.282,-5.337
0.092,0.042,0.283,-5.337
0.115,0.041,0.286,-5.337
0.197,0.040,0.289,-5.337
0.146,0.046,0.291,-5.337
0.102,0.045,0.294,-5.337
0.130,0.043,0.296,-5.337
0.083,0.045,0.296,-5.337
0.026,0.051,0.292,-5.337
0.030,0.048,0.290,-5.337
0.140,0.044,0.291,-5.337
0.156,0.043,0.291,-5.337
0.125,0.041,0.292,-5.337
0.039,0.045,0.288,-5.337
-0.050,0.048,0.291,-5.337
0.003,0.047,0.294,-5.337
0.067,0.045,0.293,-5.337
0.095,0.042,0.290,-5.337
0.095,0.042,0.287,-5.337
0.104,0.043,0.288,-5.337
0.095,0.043,0.288,-5.337
0.109,0.044,0.283,-5.337
0.098,0.044,0.283,-5.337
0.050,0.043,0.287,-5.337
0.109,0.040,0.288,-5.337
0.128,0.040,0.288,-5.337
0.099,0.043,0.290,-5.337
-0.003,0.045,0.291,-5.337
-0.043,0.042,0.295,-5.337
0.059,0.039,0.293,-5.337
0.183,0.043,0.290,-5.337
0.179,0.043,0.288,-5.337
0.099,0.043,0.287,-5.337
0.075,0.041,0.290,-5.337
0.048,0.043,0.290,-5.337
0.008,0.048,0.293,-5.337
0.022,0.045,0.293,-5.337
0.047,0.041,0.290,-5.337
0.091,0.038,0.286,-5.337
0.101,0.042,0.286,-5.337
0.077,0.045,0.290,-5.337
0.099,0.045,0.292,-5.337
0.155,0.041,0.294,-5.337
0.061,0.045,0.291,-5.337
-0.004,0.047,0.287,-5.337
0.112,0.045,0.288,-5.337
0.204,0.041,0.293,-5.337
0.130,0.044,0.293,-5.337
0.069,0.045,0.289,-5.337
0.134,0.042,0.285,-5.337
0.077,0.041,0.284,-5.337
0.022,0.046,0.287,-5.337
0.070,0.047,0.291,-5.337
0.141,0.045,0.290,-5.337
0.080,0.044,0.291,-5.337
0.012,0.043,0.288,-5.337
0.098,0.042,0.289,-5.337
0.149,0.040,0.289,-5.337
0.171,0.042,0.291,-5.337
0.146,0.048,0.290,-5.337
0.132,0.046,0.288,-5.337
0.169,0.049,0.290,-5.337
0.163,0.052,0.290,-5.337
0.137,0.048,0.287,-5.337
0.103,0.049,0.283,-5.337
0.103,0.048,0.280,-5.337
0.132,0.050,0.284,-5.337
0.219,0.046,0.286,-5.337
0.224,0.047,0.290,-5.337
0.226,0.048,0.292,-5.337
0.187,0.046,0.292,-5.337
0.096,0.049,0.292,-5.337
0.028,0.047,0.291,-5.337
0.058,0.045,0.289,-5.337
0.107,0.046,0.286,-5.337
0.077,0.051,0.288,-5.337
0.091,0.048,0.291,-5.337
0.154,0.044,0.294,-5.337
0.239,0.039,0.292,-5.337
0.283,0.042,0.290,-5.337
0.216,0.043,0.288,-5.337
0.209,0.042,0.283,-5.337
0.202,0.043,0.279,-5.337
0.176,0.045,0.283,-5.337
0.182,0.047,0.286,-5.337
0.183,0.048,0.284,-5.337
0.108,0.046,0.282,-5.337
0.052,0.048,0.283,-5.337
0.150,0.048,0.286,-5.337
0.162,0.049,0.286,-5.337
0.102,0.047,0.288,-5.337
0.107,0.045,0.289,-5.337
0.134,0.047,0.291,-5.337
0.158,0.049,0.292,-5.337
0.119,0.051,0.293,-5.337
0.087,0.051,0.294,-5.337
0.110,0.052,0.295,-5.337
0.236,0.052,0.292,-5.337
0.262,0.052,0.290,-5.337
0.183,0.054,0.285,-5.337
0.104,0.052,0.281,-5.337
0.147,0.052,0.284,-5.337
0.189,0.051,0.292,-5.337
0.142,0.049,0.296,-5.337
0.099,0.054,0.293,-5.337
0.161,0.054,0.292,-5.337
0.186,0.050,0.290,-5.337
0.102,0.045,0.287,-5.337
0.100,0.052,0.286,-5.337
0.149,0.054,0.286,-5.337
0.161,0.052,0.287,-5.337
0.140,0.051,0.282,-5.337
0.206,0.050,0.282,-5.337
0.208,0.057,0.284,-5.337
0.161,0.056,0.286,-5.337
0.149,0.054,0.290,-5.337
0.145,0.052,0.288,-5.337
0.154,0.049,0.289,-5.337
0.219,0.050,0.291,-5.337
0.228,0.051,0.292,-5.337
0.128,0.051,0.290,-5.337
0.113,0.050,0.292,-5.337
0.218,0.050,0.293,-5.337
0.249,0.056,0.292,-5.337
0.230,0.056,0.288,-5.337
0.216,0.056,0.287,-5.337
0.270,0.052,0.289,-5.337
0.261,0.056,0.290,-5.337
0.182,0.059,0.289,-5.337
0.251,0.056,0.290,-5.337
0.272,0.058,0.288,-5.337
0.216,0.059,0.287,-5.337
0.187,0.053,0.287,-5.337
0.319,0.051,0.289,-5.337
0.319,0.056,0.291,-5.337
0.211,0.056,0.291,-5.337
0.190,0.054,0.290,-5.337
0.248,0.050,0.291,-5.337
0.304,0.049,0.291,-5.337
0.254,0.051,0.288,-5.337
0.219,0.050,0.287,-5.337
0.228,0.052,0.287,-5.337
0.169,0.054,0.285,-5.337
0.208,0.051,0.284,-5.337
0.266,0.052,0.290,-5.337
0.267,0.055,0.292,-5.337
0.146,0.061,0.289,-5.337
0.169,0.060,0.288,-5.337
0.259,0.057,0.289,-5.337
0.194,0.059,0.287,-5.337
0.152,0.063,0.285,-5.337
0.181,0.063,0.287,-5.337
0.181,0.061,0.292,-5.337
0.219,0.057,0.293,-5.337
0.235,0.057,0.290,-5.337
0.329,0.054,0.284,-5.337
0.383,0.054,0.281,-5.337
0.308,0.058,0.282,-5.337
0.227,0.062,0.281,-5.337
0.145,0.058,0.286,-5.337
0.192,0.054,0.291,-5.337
0.282,0.052,0.291,-5.337
0.317,0.055,0.290,-5.337
0.292,0.055,0.288,-5.337
0.305,0.053,0.285,-5.337
0.328,0.055,0.284,-5.337
0.276,0.057,0.282,-5.337
0.249,0.059,0.287,-5.337
0.296,0.055,0.288,-5.337
0.312,0.052,0.287,-5.337
0.252,0.056,0.290,-5.337
0.254,0.057,0.289,-5.337
0.278,0.057,0.283,-5.337
0.301,0.057,0.284,-5.337
0.302,0.056,0.287,-5.337
0.256,0.057,0.290,-5.337
0.188,0.060,0.289,-5.337
0.204,0.060,0.288,-5.337
0.238,0.058,0.289,-5.337
0.309,0.058,0.292,-5.337
0.354,0.059,0.292,-5.337
0.339,0.061,0.289,-5.337
0.323,0.063,0.289,-5.337
0.347,0.060,0.292,-5.337
0.303,0.058,0.293,-5.337
0.259,0.060,0.287,-5.337
0.223,0.062,0.286,-5.337
0.204,0.060,0.284,-5.337
0.207,0.058,0.287,-5.337
0.260,0.057,0.288,-5.337
0.324,0.061,0.287,-5.337
0.234,0.062,0.291,-5.337
0.140,0.063,0.294,-5.337
0.230,0.057,0.292,-5.337
0.299,0.060,0.288,-5.337
0.259,0.060,0.284,-5.337
0.269,0.061,0.286,-5.337
0.302,0.063,0.288,-5.337
0.298,0.066,0.290,-5.337
0.323,0.065,0.290,-5.337
0.340,0.063,0.292,-5.337
0.361,0.060,0.292,-5.337
0.313,0.061,0.287,-5.337
0.214,0.064,0.281,-5.337
0.317,0.062,0.277,-5.337
0.361,0.062,0.285,-5.337
0.304,0.061,0.291,-5.337
0.296,0.057,0.293,-5.337
0.326,0.059,0.292,-5.337
0.291,0.064,0.294,-5.337
0.294,0.062,0.292,-5.337
0.335,0.063,0.290,-5.337
0.384,0.063,0.289,-5.337
0.343,0.064,0.289,-5.337
0.274,0.064,0.288,-5.337
0.271,0.068,0.291,-5.337
0.248,0.067,0.298,-5.337
0.215,0.066,0.301,-5.337
0.237,0.066,0.294,-5.337
0.284,0.062,0.290,-5.337
0.277,0.063,0.288,-5.337
0.247,0.064,0.286,-5.337
0.338,0.062,0.287,-5.337
0.445,0.060,0.287,-5.337
0.421,0.061,0.288,-5.337
0.342,0.061,0.288,-5.337
0.300,0.065,0.288,-5.337
0.331,0.065,0.286,-5.337
0.339,0.064,0.287,-5.337
0.299,0.066,0.289,-5.337
0.292,0.070,0.289,-5.337
0.332,0.069,0.290,-5.337
0.320,0.067,0.290,-5.337
0.282,0.065,0.290,-5.337
0.260,0.070,0.289,-5.337
0.272,0.066,0.287,-5.337
0.312,0.064,0.290,-5.337
0.278,0.066,0.291,-5.337
0.250,0.069,0.290,-5.337
0.271,0.067,0.290,-5.337
0.309,0.067,0.287,-5.337
0.270,0.071,0.286,-5.337
0.259,0.068,0.288,-5.337
0.358,0.063,0.289,-5.337
0.437,0.064,0.291,-5.337
0.377,0.068,0.291,-5.337
0.346,0.067,0.288,-5.337
0.310,0.064,0.287,-5.337
0.357,0.061,0.285,-5.337
0.396,0.064,0.284,-5.337
0.354,0.067,0.290,-5.337
0.304,0.068,0.295,-5.337
0.318,0.065,0.294,-5.337
0.345,0.065,0.290,-5.337
0.333,0.064,0.289,-5.337
0.312,0.064,0.289,-5.337
0.338,0.063,0.286,-5.337
0.367,0.065,0.283,-5.337
0.469,0.063,0.285,-5.337
0.446,0.062,0.287,-5.337
0.316,0.066,0.288,-5.337
0.339,0.065,0.287,-5.337
0.451,0.064,0.285,-5.337
0.392,0.069,0.286,-5.337
0.358,0.071,0.286,-5.337
0.353,0.067,0.287,-5.337
0.293,0.067,0.292,-5.337
0.262,0.069,0.294,-5.337
0.293,0.065,0.295,-5.337
0.321,0.064,0.290,-5.337
0.322,0.062,0.291,-5.337
0.359,0.066,0.291,-5.337
0.375,0.068,0.294,-5.337
0.378,0.066,0.294,-5.337
0.354,0.068,0.293,-5.337
0.337,0.069,0.287,-5.337
0.360,0.073,0.286,-5.337
0.291,0.071,0.286,-5.337
0.292,0.069,0.285,-5.337
0.283,0.068,0.281,-5.337
0.342,0.068,0.285,-5.337
0.453,0.066,0.288,-5.337
0.385,0.067,0.287,-5.337
0.268,0.068,0.286,-5.337
0.273,0.071,0.290,-5.337
0.251,0.072,0.292,-5.337
0.199,0.068,0.288,-5.337
0.233,0.066,0.287,-5.337
0.300,0.064,0.289,-5.337
0.328,0.063,0.290,-5.337
0.233,0.066,0.293,-5.337
0.217,0.066,0.292,-5.337
0.260,0.063,0.290,-5.337
0.309,0.061,0.289,-5.337
0.271,0.061,0.288,-5.337
0.248,0.065,0.289,-5.337
0.235,0.062,0.286,-5.337
0.249,0.063,0.286,-5.337
0.217,0.062,0.288,-5.337
0.225,0.062,0.290,-5.337
0.253,0.062,0.290,-5.337
0.331,0.064,0.291,-5.337
0.330,0.066,0.290,-5.337
0.312,0.065,0.288,-5.337
0.341,0.061,0.287,-5.337
0.321,0.059,0.287,-5.337
0.268,0.056,0.289,-5.337
0.300,0.052,0.290,-5.337
0.396,0.051,0.290,-5.337
0.319,0.057,0.291,-5.337
0.230,0.057,0.289,-5.337
0.261,0.054,0.288,-5.337
0.248,0.054,0.289,-5.337
0.255,0.059,0.292,-5.337
0.304,0.056,0.292,-5.337
0.380,0.054,0.292,-5.337
0.390,0.057,0.292,-5.337
0.305,0.060,0.288,-5.337
0.222,0.062,0.286,-5.337
0.264,0.062,0.284,-5.337
0.199,0.065,0.285,-5.337
0.104,0.062,0.285,-5.337
0.119,0.057,0.284,-5.337
0.188,0.056,0.282,-5.337
0.217,0.057,0.284,-5.337
0.310,0.053,0.288,-5.337
0.368,0.053,0.289,-5.337
0.352,0.055,0.292,-5.337
0.231,0.059,0.295,-5.337
0.206,0.057,0.295,-5.337
0.308,0.057,0.294,-5.337
0.309,0.059,0.291,-5.337
0.270,0.058,0.289,-5.337
0.269,0.055,0.289,-5.337
0.238,0.059,0.290,-5.337
0.219,0.058,0.288,-5.337
0.265,0.055,0.286,-5.337
0.329,0.053,0.287,-5.337
0.348,0.053,0.286,-5.337
0.269,0.058,0.291,-5.337
0.303,0.055,0.293,-5.337
0.322,0.056,0.293,-5.337
0.279,0.057,0.291,-5.337
0.219,0.063,0.291,-5.337
0.160,0.064,0.287,-5.337
0.189,0.059,0.287,-5.337
0.216,0.060,0.288,-5.337
0.221,0.056,0.285,-5.337
0.268,0.054,0.286,-5.337
0.266,0.055,0.290,-5.337
0.264,0.052,0.291,-5.337
0.241,0.053,0.291,-5.337
0.256,0.053,0.292,-5.337
0.242,0.053,0.288,-5.337
0.220,0.052,0.284,-5.337
0.253,0.056,0.282,-5.337
0.243,0.055,0.284,-5.337
0.219,0.053,0.287,-5.337
0.189,0.052,0.288,-5.337
0.188,0.052,0.288,-5.337
0.242,0.051,0.289,-5.337
0.254,0.047,0.289,-5.337
0.245,0.046,0.292,-5.337
0.222,0.050,0.293,-5.337
0.198,0.053,0.293,-5.337
0.223,0.051,0.288,-5.337
0.255,0.051,0.283,-5.337
0.231,0.054,0.282,-5.337
0.228,0.055,0.284,-5.337
0.276,0.054,0.288,-5.337
0.222,0.056,0.287,-5.337
0.163,0.056,0.285,-5.337
0.113,0.059,0.286,-5.337
0.073,0.058,0.287,-5.337
0.094,0.056,0.287,-5.337
0.136,0.054,0.289,-5.337
0.139,0.051,0.289,-5.337
0.174,0.049,0.286,-5.337
0.172,0.050,0.284,-5.337
0.152,0.051,0.285,-5.337
0.176,0.051,0.285,-5.337
0.204,0.050,0.287,-5.337
0.235,0.052,0.291,-5.337
0.223,0.049,0.290,-5.337
0.179,0.045,0.288,-5.337
0.212,0.047,0.289,-5.337
0.251,0.048,0.283,-5.337
0.290,0.051,0.282,-5.337
0.288,0.053,0.289,-5.337
0.244,0.055,0.291,-5.337
0.148,0.052,0.287,-5.337
0.151,0.049,0.285,-5.337
0.251,0.046,0.285,-5.337
0.292,0.051,0.290,-5.337
0.119,0.053,0.291,-5.337
0.066,0.051,0.291,-5.337
0.038,0.050,0.292,-5.337
0.074,0.047,0.292,-5.337
0.133,0.046,0.291,-5.337
0.177,0.050,0.286,-5.337
0.202,0.052,0.284,-5.337
0.268,0.051,0.285,-5.337
0.244,0.048,0.285,-5.337
0.172,0.045,0.287,-5.337
0.161,0.044,0.289,-5.337
0.206,0.046,0.292,-5.337
0.197,0.046,0.291,-5.337
0.169,0.046,0.288,-5.337
0.142,0.047,0.285,-5.337
0.143,0.047,0.283,-5.337
0.170,0.048,0.285,-5.337
0.203,0.044,0.286,-5.337
0.186,0.041,0.285,-5.337
0.072,0.044,0.285,-5.337
0.041,0.048,0.286,-5.337
0.173,0.043,0.286,-5.337
0.269,0.041,0.287,-5.337
0.223,0.042,0.289,-5.337
0.246,0.043,0.289,-5.337
0.293,0.044,0.288,-5.337
0.259,0.044,0.286,-5.337
0.197,0.043,0.285,-5.337
0.199,0.042,0.287,-5.337
0.200,0.043,0.287,-5.337
0.128,0.049,0.284,-5.337
0.060,0.050,0.285,-5.337
0.085,0.047,0.285,-5.337
0.114,0.047,0.287,-5.337
0.084,0.047,0.280,-5.337
0.108,0.048,0.278,-5.337
0.169,0.048,0.280,-5.337
0.133,0.051,0.283,-5.337
0.036,0.048,0.286,-5.337
0.043,0.047,0.288,-5.337
0.072,0.049,0.290,-5.337
0.049,0.054,0.291,-5.337
-0.018,0.049,0.290,-5.337
0.064,0.046,0.287,-5.337
0.156,0.046,0.281,-5.337
0.105,0.050,0.280,-5.337
0.105,0.046,0.284,-5.337
0.168,0.042,0.286,-5.337
0.217,0.042,0.284,-5.337
0.189,0.044,0.283,-5.337
0.088,0.046,0.286,-5.337
-0.007,0.048,0.287,-5.337
0.038,0.045,0.289,-5.337
0.133,0.047,0.287,-5.337
0.084,0.049,0.287,-5.337
0.065,0.049,0.287,-5.337
0.063,0.046,0.288,-5.337
0.064,0.045,0.287,-5.337
0.018,0.045,0.287,-5.337
0.026,0.045,0.284,-5.337
0.066,0.044,0.288,-5.337
0.075,0.041,0.293,-5.337
0.052,0.048,0.294,-5.337
0.057,0.045,0.291,-5.337
0.096,0.042,0.286,-5.337
0.110,0.040,0.280,-5.337
0.130,0.041,0.277,-5.337
0.139,0.042,0.277,-5.337
0.163,0.039,0.284,-5.337
0.104,0.041,0.287,-5.337
0.094,0.039,0.285,-5.337
0.153,0.039,0.286,-5.337
0.171,0.039,0.287,-5.337
0.233,0.043,0.288,-5.337
0.192,0.047,0.287,-5.337
0.162,0.048,0.290,-5.337
0.100,0.050,0.290,-5.337
0.094,0.047,0.285,-5.337
0.169,0.046,0.283,-5.337
0.149,0.046,0.286,-5.337
0.135,0.046,0.286,-5.337
0.122,0.044,0.286,-5.337
0.079,0.047,0.285,-5.337
0.079,0.043,0.286,-5.337
0.128,0.041,0.286,-5.337
0.122,0.044,0.289,-5.337
0.090,0.044,0.290,-5.337
0.112,0.049,0.291,-5.337
0.125,0.046,0.293,-5.337
0.109,0.042,0.295,-5.337
0.104,0.042,0.290,-5.337
0.106,0.042,0.283,-5.337
0.099,0.046,0.284,-5.337
0.112,0.045,0.285,-5.337
0.117,0.042,0.286,-5.337
0.092,0.043,0.286,-5.337
0.098,0.043,0.285,-5.337
0.057,0.048,0.285,-5.337
0.044,0.046,0.287,-5.337
0.142,0.043,0.285,-5.337
0.135,0.044,0.287,-5.337
0.090,0.047,0.290,-5.337
0.058,0.046,0.287,-5.337
0.062,0.041,0.280,-5.337
0.107,0.042,0.282,-5.337
0.045,0.045,0.286,-5.337
0.080,0.046,0.290,-5.337
0.120,0.044,0.289,-5.337
0.165,0.041,0.283,-5.337
0.152,0.042,0.281,-5.337
0.103,0.046,0.285,-5.337
0.040,0.049,0.287,-5.337
0.081,0.044,0.285,-5.337
0.076,0.041,0.284,-5.337
0.033,0.042,0.287,-5.337
0.020,0.042,0.291,-5.337
0.043,0.044,0.292,-5.337
0.105,0.046,0.288,-5.337
0.093,0.048,0.284,-5.337
0.095,0.046,0.286,-5.337
0.122,0.042,0.286,-5.337
0.107,0.045,0.288,-5.337
0.101,0.047,0.287,-5.337
-0.007,0.052,0.287,-5.337
-0.002,0.048,0.284,-5.337
0.013,0.047,0.282,-5.337
0.006,0.043,0.280,-5.337
0.025,0.044,0.283,-5.337
0.003,0.049,0.287,-5.337
0.053,0.046,0.288,-5.337
0.053,0.044,0.286,-5.337
0.012,0.045,0.283,-5.337
-0.058,0.050,0.285,-5.337
-0.031,0.047,0.290,-5.337
0.098,0.042,0.291,-5.337
0.135,0.041,0.288,-5.337
0.112,0.044,0.283,-5.337
0.107,0.042,0.280,-5.337
0.072,0.041,0.284,-5.337
0.025,0.042,0.288,-5.337
0.009,0.043,0.288,-5.337
0.082,0.042,0.285,-5.337
0.119,0.043,0.287,-5.337
0.049,0.041,0.289,-5.337
0.086,0.039,0.289,-5.337
0.122,0.035,0.286,-5.337
0.138,0.037,0.288,-5.337
0.149,0.038,0.288,-5.337
0.170,0.040,0.289,-5.337
0.182,0.045,0.289,-5.337
0.135,0.045,0.284,-5.337
0.136,0.039,0.283,-5.337
0.136,0.039,0.283,-5.337
0.103,0.040,0.284,-5.337
0.127,0.040,0.284,-5.337
0.187,0.042,0.283,-5.337
0.183,0.043,0.282,-5.337
0.170,0.041,0.280,-5.337
0.170,0.041,0.282,-5.337
0.083,0.046,0.288,-5.337
0.087,0.044,0.286,-5.337
0.096,0.041,0.286,-5.337
0.087,0.041,0.284,-5.337
0.049,0.046,0.287,-5.337
0.059,0.045,0.290,-5.337
0.064,0.045,0.287,-5.337
0.109,0.045,0.284,-5.337
0.135,0.046,0.284,-5.337
0.085,0.045,0.282,-5.337
0.068,0.043,0.281,-5.337
0.078,0.046,0.284,-5.337
0.099,0.048,0.287,-5.337
0.103,0.047,0.288,-5.337
0.073,0.048,0.289,-5.337
0.124,0.044,0.290,-5.337
0.033,0.050,0.288,-5.337
0.009,0.047,0.285,-5.337
0.123,0.045,0.282,-5.337
0.176,0.047,0.285,-5.337
0.112,0.047,0.287,-5.337
0.089,0.049,0.288,-5.337
0.154,0.048,0.285,-5.337
0.260,0.043,0.286,-5.337
0.255,0.044,0.285,-5.337
0.209,0.045,0.285,-5.337
0.187,0.043,0.284,-5.337
0.146,0.043,0.286,-5.337
0.141,0.042,0.286,-5.337
0.158,0.039,0.285,-5.337
0.155,0.040,0.286,-5.337
0.185,0.038,0.289,-5.337
0.238,0.039,0.291,-5.337
0.191,0.041,0.289,-5.337
0.130,0.037,0.283,-5.337
0.107,0.043,0.281,-5.337
0.068,0.044,0.280,-5.337
0.105,0.046,0.286,-5.337
0.151,0.043,0.293,-5.337
0.142,0.043,0.292,-5.337
0.083,0.047,0.287,-5.337
0.092,0.046,0.284,-5.337
0.213,0.049,0.283,-5.337
0.313,0.049,0.281,-5.337
0.186,0.051,0.285,-5.337
0.044,0.052,0.291,-5.337
0.128,0.052,0.290,-5.337
0.246,0.052,0.283,-5.337
0.243,0.050,0.284,-5.337
0.228,0.050,0.285,-5.337
0.236,0.050,0.285,-5.337
0.245,0.050,0.284,-5.337
0.226,0.054,0.284,-5.337
0.189,0.053,0.283,-5.337
0.154,0.053,0.286,-5.337
0.191,0.051,0.289,-5.337
0.203,0.052,0.291,-5.337
0.161,0.052,0.287,-5.337
0.153,0.048,0.282,-5.337
0.143,0.048,0.280,-5.337
0.104,0.053,0.285,-5.337
0.089,0.053,0.286,-5.337
0.085,0.050,0.284,-5.337
0.172,0.049,0.281,-5.337
0.221,0.053,0.283,-5.337
0.200,0.052,0.284,-5.337
0.183,0.050,0.284,-5.337
0.156,0.050,0.286,-5.337
0.190,0.047,0.288,-5.337
0.139,0.051,0.286,-5.337
0.157,0.051,0.284,-5.337
0.215,0.052,0.284,-5.337
0.176,0.050,0.283,-5.337
0.207,0.049,0.285,-5.337
0.238,0.050,0.288,-5.337
0.230,0.050,0.289,-5.337
0.201,0.053,0.288,-5.337
0.198,0.055,0.288,-5.337
0.212,0.056,0.284,-5.337
0.275,0.052,0.283,-5.337
0.314,0.050,0.284,-5.337
0.281,0.053,0.288,-5.337
0.292,0.058,0.288,-5.337
0.219,0.059,0.287,-5.337
0.173,0.058,0.287,-5.337
0.151,0.058,0.283,-5.337
0.165,0.058,0.280,-5.337
0.219,0.056,0.283,-5.337
0.281,0.052,0.282,-5.337
0.253,0.052,0.284,-5.337
0.212,0.053,0.286,-5.337
0.235,0.053,0.288,-5.337
0.254,0.054,0.290,-5.337
0.235,0.056,0.288,-5.337
0.259,0.056,0.286,-5.337
0.262,0.055,0.283,-5.337
0.231,0.054,0.285,-5.337
0.214,0.058,0.286,-5.337
0.248,0.058,0.287,-5.337
0.348,0.055,0.289,-5.337
0.284,0.058,0.291,-5.337
0.259,0.058,0.291,-5.337
0.235,0.062,0.291,-5.337
0.159,0.058,0.288,-5.337
0.126,0.056,0.287,-5.337
0.186,0.054,0.286,-5.337
0.223,0.054,0.289,-5.337
0.208,0.055,0.292,-5.337
0.205,0.056,0.291,-5.337
0.186,0.056,0.286,-5.337
0.204,0.057,0.287,-5.337
0.250,0.057,0.287,-5.337
0.299,0.055,0.284,-5.337
0.239,0.056,0.283,-5.337
0.217,0.057,0.283,-5.337
0.247,0.056,0.284,-5.337
0.299,0.053,0.283,-5.337
0.259,0.058,0.287,-5.337
0.233,0.058,0.287,-5.337
0.223,0.059,0.284,-5.337
0.289,0.055,0.281,-5.337
0.299,0.059,0.284,-5.337
0.311,0.059,0.283,-5.337
0.295,0.059,0.280,-5.337
0.288,0.057,0.283,-5.337
0.307,0.057,0.291,-5.337
0.330,0.056,0.293,-5.337
0.308,0.060,0.291,-5.337
0.345,0.057,0.293,-5.337
0.340,0.056,0.296,-5.337
0.347,0.055,0.291,-5.337
0.302,0.055,0.285,-5.337
0.230,0.054,0.284,-5.337
0.315,0.054,0.285,-5.337
0.329,0.055,0.288,-5.337
0.274,0.059,0.288,-5.337
0.323,0.055,0.289,-5.337
0.301,0.055,0.293,-5.337
0.229,0.060,0.293,-5.337
0.215,0.059,0.289,-5.337
0.261,0.058,0.284,-5.337
0.306,0.057,0.281,-5.337
0.288,0.060,0.278,-5.337
0.283,0.063,0.276,-5.337
0.264,0.067,0.279,-5.337
0.298,0.065,0.283,-5.337
0.351,0.060,0.286,-5.337
0.373,0.060,0.286,-5.337
0.348,0.063,0.287,-5.337
0.284,0.065,0.288,-5.337
0.258,0.061,0.285,-5.337
0.331,0.059,0.284,-5.337
0.348,0.060,0.283,-5.337
0.319,0.061,0.281,-5.337
0.369,0.057,0.284,-5.337
0.388,0.059,0.291,-5.337
0.298,0.060,0.291,-5.337
0.231,0.062,0.289,-5.337
0.292,0.064,0.283,-5.337
0.302,0.064,0.284,-5.337
0.369,0.059,0.285,-5.337
0.372,0.061,0.287,-5.337
0.332,0.058,0.287,-5.337
0.296,0.063,0.286,-5.337
0.297,0.060,0.285,-5.337
0.315,0.059,0.286,-5.337
0.333,0.060,0.287,-5.337
0.270,0.064,0.290,-5.337
0.247,0.063,0.289,-5.337
0.249,0.063,0.288,-5.337
0.248,0.066,0.282,-5.337
0.335,0.062,0.282,-5.337
0.336,0.063,0.283,-5.337
0.305,0.063,0.287,-5.337
0.326,0.065,0.292,-5.337
0.243,0.070,0.295,-5.337
0.186,0.067,0.295,-5.337
0.219,0.064,0.292,-5.337
0.318,0.063,0.288,-5.337
0.335,0.067,0.285,-5.337
0.350,0.067,0.285,-5.337
0.410,0.066,0.285,-5.337
0.389,0.067,0.285,-5.337
0.364,0.068,0.285,-5.337
0.338,0.069,0.288,-5.337
0.322,0.066,0.289,-5.337
0.312,0.067,0.288,-5.337
0.277,0.069,0.286,-5.337
0.247,0.070,0.288,-5.337
0.291,0.066,0.288,-5.337
0.319,0.069,0.288,-5.337
0.277,0.069,0.284,-5.337
0.322,0.066,0.283,-5.337
0.368,0.064,0.289,-5.337
0.360,0.066,0.290,-5.337
0.245,0.069,0.286,-5.337
0.213,0.064,0.285,-5.337
0.355,0.062,0.288,-5.337
0.389,0.060,0.289,-5.337
0.351,0.062,0.287,-5.337
0.366,0.064,0.286,-5.337
0.338,0.064,0.286,-5.337
0.275,0.064,0.285,-5.337
0.304,0.063,0.288,-5.337
0.315,0.064,0.287,-5.337
0.199,0.067,0.288,-5.337
0.208,0.066,0.286,-5.337
0.300,0.063,0.283,-5.337
0.347,0.065,0.280,-5.337
0.312,0.067,0.285,-5.337
0.255,0.065,0.291,-5.337
0.292,0.066,0.291,-5.337
0.356,0.066,0.291,-5.337
0.368,0.067,0.288,-5.337
0.377,0.063,0.285,-5.337
0.426,0.064,0.283,-5.337
0.349,0.068,0.283,-5.337
0.304,0.069,0.284,-5.337
0.318,0.067,0.288,-5.337
0.334,0.065,0.285,-5.337
0.364,0.067,0.285,-5.337
0.340,0.068,0.286,-5.337
0.332,0.063,0.289,-5.337
0.286,0.066,0.290,-5.337
0.286,0.069,0.291,-5.337
0.315,0.068,0.290,-5.337
0.380,0.068,0.287,-5.337
0.334,0.069,0.285,-5.337
0.283,0.071,0.283,-5.337
0.303,0.067,0.281,-5.337
0.332,0.068,0.282,-5.337
0.290,0.067,0.285,-5.337
0.292,0.069,0.287,-5.337
0.263,0.069,0.288,-5.337
0.288,0.067,0.287,-5.337
0.345,0.067,0.285,-5.337
0.324,0.069,0.285,-5.337
0.256,0.069,0.286,-5.337
0.284,0.069,0.289,-5.337
0.395,0.065,0.291,-5.337
0.483,0.064,0.287,-5.337
0.398,0.064,0.286,-5.337
0.313,0.064,0.288,-5.337
0.311,0.060,0.289,-5.337
0.350,0.058,0.287,-5.337
0.381,0.060,0.286,-5.337
0.383,0.061,0.287,-5.337
0.339,0.063,0.288,-5.337
0.267,0.061,0.284,-5.337
0.251,0.060,0.286,-5.337
0.297,0.060,0.287,-5.337
0.341,0.061,0.285,-5.337
0.318,0.056,0.282,-5.337
0.299,0.056,0.281,-5.337
0.297,0.059,0.284,-5.337
0.256,0.064,0.285,-5.337
0.229,0.068,0.287,-5.337
0.262,0.067,0.288,-5.337
0.269,0.063,0.287,-5.337
0.251,0.063,0.284,-5.337
0.204,0.062,0.286,-5.337
0.253,0.057,0.288,-5.337
0.301,0.058,0.288,-5.337
0.259,0.061,0.286,-5.337
0.257,0.057,0.287,-5.337
0.346,0.053,0.290,-5.337
0.410,0.055,0.294,-5.337
0.437,0.056,0.291,-5.337
0.395,0.055,0.286,-5.337
0.342,0.054,0.282,-5.337
0.257,0.056,0.287,-5.337
0.224,0.057,0.290,-5.337
0.213,0.061,0.292,-5.337
0.218,0.059,0.290,-5.337
0.248,0.058,0.285,-5.337
0.297,0.058,0.284,-5.337
0.305,0.059,0.287,-5.337
0.345,0.058,0.287,-5.337
0.319,0.056,0.284,-5.337
0.263,0.060,0.284,-5.337
0.234,0.058,0.287,-5.337
0.255,0.057,0.290,-5.337
0.230,0.056,0.290,-5.337
0.252,0.058,0.291,-5.337
0.279,0.060,0.288,-5.337
0.227,0.058,0.285,-5.337
0.111,0.061,0.284,-5.337
0.147,0.061,0.285,-5.337
0.222,0.062,0.292,-5.337
0.231,0.057,0.296,-5.337
0.239,0.055,0.292,-5.337
0.197,0.058,0.290,-5.337
0.200,0.056,0.286,-5.337
0.245,0.053,0.287,-5.337
0.252,0.051,0.288,-5.337
0.245,0.055,0.290,-5.337
0.265,0.051,0.292,-5.337
0.300,0.051,0.292,-5.337
0.353,0.052,0.289,-5.337
0.303,0.055,0.286,-5.337
0.196,0.056,0.285,-5.337
0.199,0.056,0.286,-5.337
0.213,0.053,0.287,-5.337
0.282,0.055,0.289,-5.337
0.305,0.056,0.291,-5.337
0.273,0.054,0.288,-5.337
0.248,0.053,0.283,-5.337
0.272,0.050,0.285,-5.337
0.326,0.048,0.288,-5.337
0.284,0.050,0.287,-5.337
0.270,0.049,0.288,-5.337
0.249,0.052,0.290,-5.337
0.222,0.053,0.290,-5.337
0.222,0.051,0.288,-5.337
0.211,0.048,0.290,-5.337
0.165,0.049,0.287,-5.337
0.171,0.051,0.285,-5.337
0.191,0.052,0.287,-5.337
0.113,0.053,0.290,-5.337
0.111,0.050,0.288,-5.337
0.206,0.047,0.287,-5.337
0.238,0.048,0.289,-5.337
0.272,0.045,0.290,-5.337
0.263,0.046,0.290,-5.337
0.320,0.047,0.290,-5.337
0.259,0.051,0.287,-5.337
0.203,0.051,0.283,-5.337
0.221,0.050,0.284,-5.337
0.186,0.052,0.288,-5.337
0.236,0.051,0.291,-5.337
0.251,0.050,0.287,-5.337
0.228,0.052,0.286,-5.337
0.176,0.055,0.288,-5.337
0.149,0.055,0.289,-5.337
0.222,0.049,0.289,-5.337
0.250,0.048,0.287,-5.337
0.241,0.047,0.283,-5.337
0.195,0.049,0.285,-5.337
0.159,0.050,0.286,-5.337
0.129,0.049,0.288,-5.337
0.146,0.048,0.291,-5.337
0.148,0.049,0.290,-5.337
0.183,0.045,0.285,-5.337
0.233,0.042,0.284,-5.337
0.283,0.038,0.284,-5.337
0.318,0.044,0.284,-5.337
0.260,0.049,0.283,-5.337
0.203,0.048,0.287,-5.337
0.181,0.049,0.292,-5.337
0.150,0.046,0.291,-5.337
0.118,0.048,0.289,-5.337
0.143,0.049,0.288,-5.337
0.111,0.051,0.287,-5.337
0.071,0.050,0.285,-5.337
0.133,0.045,0.290,-5.337
0.177,0.044,0.292,-5.337
0.172,0.045,0.292,-5.337
0.151,0.043,0.287,-5.337
0.137,0.043,0.287,-5.337
0.140,0.044,0.286,-5.337
0.169,0.043,0.286,-5.337
0.214,0.042,0.284,-5.337
0.132,0.046,0.285,-5.337
0.054,0.044,0.290,-5.337
0.084,0.043,0.290,-5.337
0.113,0.043,0.289,-5.337
0.125,0.047,0.289,-5.337
0.139,0.050,0.285,-5.337
0.112,0.050,0.286,-5.337
0.058,0.048,0.285,-5.337
0.100,0.047,0.285,-5.337
0.090,0.046,0.288,-5.337
0.096,0.046,0.291,-5.337
0.168,0.045,0.291,-5.337
0.244,0.042,0.289,-5.337
0.209,0.044,0.291,-5.337
0.088,0.050,0.289,-5.337
0.043,0.051,0.287,-5.337
0.045,0.050,0.286,-5.337
0.049,0.047,0.287,-5.337
0.132,0.044,0.290,-5.337
0.184,0.042,0.287,-5.337
0.136,0.043,0.280,-5.337
0.149,0.047,0.280,-5.337
0.171,0.044,0.285,-5.337
0.208,0.042,0.286,-5.337
0.211,0.044,0.286,-5.337
0.160,0.047,0.288,-5.337
0.153,0.044,0.293,-5.337
0.156,0.044,0.292,-5.337
0.148,0.046,0.288,-5.337
0.168,0.044,0.286,-5.337
0.043,0.046,0.288,-5.337
0.050,0.045,0.289,-5.337
0.135,0.044,0.292,-5.337
0.170,0.045,0.292,-5.337
0.126,0.045,0.291,-5.337
0.079,0.046,0.288,-5.337
0.086,0.049,0.288,-5.337
0.101,0.049,0.289,-5.337
0.171,0.046,0.293,-5.337
0.180,0.044,0.296,-5.337
0.114,0.046,0.294,-5.337
0.097,0.048,0.290,-5.337
0.000,0.052,0.289,-5.337
-0.012,0.047,0.287,-5.337
0.135,0.042,0.285,-5.337
0.187,0.042,0.284,-5.337
0.166,0.044,0.287,-5.337
0.150,0.047,0.290,-5.337
0.069,0.048,0.292,-5.337
0.080,0.043,0.289,-5.337
0.096,0.044,0.286,-5.337
0.156,0.045,0.283,-5.337
0.208,0.044,0.287,-5.337
0.192,0.042,0.284,-5.337
0.092,0.045,0.286,-5.337
0.049,0.045,0.291,-5.337
0.071,0.045,0.293,-5.337
0.109,0.046,0.294,-5.337
0.116,0.045,0.292,-5.337
0.140,0.041,0.292,-5.337
0.145,0.040,0.292,-5.337
0.087,0.039,0.294,-5.337
0.111,0.041,0.289,-5.337
0.114,0.042,0.288,-5.337
0.150,0.042,0.288,-5.337
0.189,0.042,0.289,-5.337
0.196,0.042,0.288,-5.337
0.106,0.042,0.285,-5.337
0.054,0.041,0.284,-5.337
0.066,0.043,0.289,-5.337
0.025,0.043,0.294,-5.337
0.033,0.044,0.291,-5.337
0.049,0.046,0.287,-5.337
0.062,0.042,0.285,-5.337
0.170,0.040,0.282,-5.337
0.194,0.042,0.283,-5.337
0.168,0.045,0.288,-5.337
0.126,0.045,0.292,-5.337
0.138,0.042,0.294,-5.337
0.159,0.044,0.291,-5.337
0.085,0.047,0.289,-5.337
0.079,0.044,0.286,-5.337
0.100,0.045,0.287,-5.337
0.026,0.047,0.288,-5.337
-0.065,0.047,0.288,-5.337
-0.008,0.045,0.287,-5.337
0.048,0.042,0.292,-5.337
0.068,0.040,0.292,-5.337
0.049,0.040,0.290,-5.337
0.074,0.040,0.289,-5.337
0.099,0.042,0.287,-5.337
0.148,0.042,0.284,-5.337
0.158,0.046,0.286,-5.337
0.131,0.047,0.290,-5.337
0.117,0.046,0.296,-5.337
0.065,0.043,0.295,-5.337
0.016,0.042,0.289,-5.337
0.023,0.044,0.285,-5.337
0.030,0.041,0.287,-5.337
0.112,0.037,0.291,-5.337
0.145,0.039,0.291,-5.337
0.125,0.042,0.291,-5.337
0.224,0.038,0.291,-5.337
0.245,0.037,0.292,-5.337
0.151,0.039,0.285,-5.337
0.065,0.042,0.281,-5.337
0.112,0.038,0.284,-5.337
0.155,0.041,0.292,-5.337
0.136,0.044,0.294,-5.337
0.152,0.040,0.291,-5.337
0.126,0.039,0.288,-5.337
0.081,0.045,0.287,-5.337
-0.038,0.046,0.287,-5.337
-0.038,0.044,0.287,-5.337
0.055,0.040,0.287,-5.337
0.123,0.042,0.288,-5.337
0.153,0.043,0.287,-5.337
0.099,0.041,0.288,-5.337
0.070,0.040,0.289,-5.337
0.134,0.041,0.291,-5.337
0.083,0.041,0.291,-5.337
0.079,0.039,0.290,-5.337
0.091,0.040,0.289,-5.337
0.155,0.038,0.289,-5.337
0.208,0.036,0.288,-5.337
0.204,0.038,0.288,-5.337
0.143,0.038,0.290,-5.337
0.105,0.041,0.287,-5.337
0.069,0.045,0.288,-5.337
0.081,0.048,0.292,-5.337
0.053,0.049,0.295,-5.337
0.052,0.043,0.294,-5.337
0.083,0.047,0.292,-5.337
0.045,0.050,0.289,-5.337
0.025,0.049,0.284,-5.337
0.035,0.043,0.283,-5.337
0.042,0.042,0.285,-5.337
0.028,0.047,0.284,-5.337
0.057,0.045,0.286,-5.337
0.049,0.046,0.287,-5.337
0.078,0.045,0.286,-5.337
0.118,0.046,0.288,-5.337
0.096,0.049,0.291,-5.337
0.043,0.050,0.292,-5.337
0.046,0.051,0.291,-5.337
0.085,0.049,0.290,-5.337
0.159,0.048,0.287,-5.337
0.106,0.051,0.285,-5.337
0.091,0.047,0.282,-5.337
0.218,0.045,0.283,-5.337
0.276,0.044,0.287,-5.337
0.268,0.046,0.292,-5.337
0.223,0.046,0.292,-5.337
0.138,0.050,0.290,-5.337
0.093,0.050,0.286,-5.337
0.079,0.052,0.287,-5.337
0.092,0.052,0.288,-5.337
0.100,0.050,0.289,-5.337
0.113,0.051,0.291,-5.337
0.104,0.053,0.292,-5.337
0.094,0.052,0.292,-5.337
0.141,0.052,0.290,-5.337
0.129,0.050,0.289,-5.337
0.148,0.054,0.288,-5.337
0.113,0.055,0.287,-5.337
0.085,0.051,0.285,-5.337
0.182,0.050,0.284,-5.337
0.237,0.048,0.284,-5.337
0.270,0.046,0.290,-5.337
0.265,0.045,0.294,-5.337
0.172,0.047,0.293,-5.337
0.138,0.047,0.288,-5.337
0.184,0.049,0.289,-5.337
0.158,0.049,0.289,-5.337
0.259,0.048,0.284,-5.337
0.222,0.047,0.283,-5.337
0.089,0.051,0.284,-5.337
0.044,0.050,0.289,-5.337
0.007,0.048,0.292,-5.337
0.014,0.049,0.291,-5.337
0.101,0.049,0.291,-5.337
0.186,0.051,0.291,-5.337
0.204,0.055,0.292,-5.337
0.236,0.052,0.289,-5.337
0.241,0.051,0.290,-5.337
0.182,0.053,0.292,-5.337
0.184,0.050,0.293,-5.337
0.178,0.052,0.294,-5.337
0.153,0.051,0.292,-5.337
0.229,0.050,0.288,-5.337
0.265,0.053,0.287,-5.337
0.214,0.052,0.289,-5.337
0.152,0.053,0.289,-5.337
0.196,0.049,0.290,-5.337
0.283,0.051,0.287,-5.337
0.230,0.053,0.286,-5.337
0.151,0.053,0.287,-5.337
0.097,0.054,0.289,-5.337
0.175,0.051,0.291,-5.337
0.255,0.053,0.292,-5.337
0.224,0.052,0.290,-5.337
0.204,0.052,0.290,-5.337
0.174,0.051,0.288,-5.337
0.180,0.052,0.287,-5.337
0.125,0.053,0.287,-5.337
0.098,0.051,0.288,-5.337
0.130,0.048,0.289,-5.337
0.118,0.050,0.290,-5.337
0.083,0.053,0.291,-5.337
0.063,0.056,0.290,-5.337
0.089,0.054,0.292,-5.337
0.157,0.049,0.293,-5.337
0.280,0.049,0.292,-5.337
0.289,0.052,0.290,-5.337
0.253,0.054,0.290,-5.337
0.167,0.053,0.289,-5.337
0.199,0.054,0.292,-5.337
0.252,0.057,0.291,-5.337
0.213,0.062,0.285,-5.337
0.181,0.061,0.284,-5.337
0.208,0.056,0.287,-5.337
0.231,0.055,0.285,-5.337
0.234,0.056,0.282,-5.337
0.279,0.056,0.282,-5.337
0.250,0.061,0.286,-5.337
0.195,0.057,0.290,-5.337
0.252,0.053,0.297,-5.337
0.249,0.055,0.297,-5.337
0.228,0.060,0.293,-5.337
0.209,0.061,0.288,-5.337
0.243,0.062,0.285,-5.337
0.228,0.060,0.285,-5.337
0.204,0.061,0.285,-5.337
0.256,0.058,0.284,-5.337
0.264,0.057,0.284,-5.337
0.208,0.059,0.285,-5.337
0.274,0.060,0.288,-5.337
0.328,0.057,0.293,-5.337
0.277,0.054,0.292,-5.337
0.229,0.056,0.292,-5.337
0.256,0.057,0.291,-5.337
0.297,0.056,0.292,-5.337
0.288,0.056,0.288,-5.337
0.283,0.055,0.286,-5.337
0.232,0.057,0.286,-5.337
0.206,0.061,0.289,-5.337
0.219,0.061,0.289,-5.337
0.238,0.061,0.290,-5.337
0.207,0.062,0.288,-5.337
0.204,0.062,0.286,-5.337
0.269,0.061,0.286,-5.337
0.241,0.062,0.285,-5.337
0.255,0.062,0.288,-5.337
0.253,0.063,0.290,-5.337
0.180,0.065,0.293,-5.337
0.203,0.064,0.290,-5.337
0.269,0.066,0.290,-5.337
0.309,0.067,0.288,-5.337
0.281,0.066,0.284,-5.337
0.245,0.066,0.281,-5.337
0.182,0.066,0.283,-5.337
0.184,0.066,0.283,-5.337
0.277,0.066,0.285,-5.337
0.271,0.061,0.286,-5.337
0.215,0.063,0.291,-5.337
0.194,0.062,0.293,-5.337
0.266,0.061,0.289,-5.337
0.267,0.061,0.284,-5.337
0.297,0.058,0.283,-5.337
0.389,0.060,0.285,-5.337
0.415,0.062,0.292,-5.337
0.354,0.062,0.294,-5.337
0.303,0.061,0.291,-5.337
0.304,0.058,0.287,-5.337
0.332,0.061,0.287,-5.337
0.296,0.064,0.287,-5.337
0.289,0.063,0.288,-5.337
0.270,0.061,0.289,-5.337
0.233,0.065,0.289,-5.337
0.299,0.065,0.288,-5.337
0.344,0.061,0.285,-5.337
0.384,0.058,0.285,-5.337
0.300,0.058,0.284,-5.337
0.196,0.061,0.290,-5.337
0.207,0.063,0.293,-5.337
0.241,0.062,0.291,-5.337
0.275,0.060,0.288,-5.337
0.309,0.060,0.288,-5.337
0.365,0.059,0.289,-5.337
0.305,0.061,0.289,-5.337
0.286,0.062,0.287,-5.337
0.315,0.062,0.288,-5.337
0.264,0.064,0.290,-5.337
0.225,0.065,0.288,-5.337
0.224,0.067,0.285,-5.337
0.229,0.067,0.289,-5.337
0.241,0.061,0.290,-5.337
0.267,0.058,0.289,-5.337
0.314,0.058,0.287,-5.337
0.348,0.060,0.290,-5.337
0.374,0.058,0.292,-5.337
0.366,0.056,0.286,-5.337
0.425,0.055,0.282,-5.337
0.476,0.058,0.285,-5.337
0.449,0.062,0.289,-5.337
0.324,0.064,0.292,-5.337
0.308,0.061,0.291,-5.337
0.362,0.057,0.287,-5.337
0.317,0.060,0.286,-5.337
0.289,0.061,0.287,-5.337
0.387,0.056,0.285,-5.337
0.426,0.055,0.286,-5.337
0.401,0.058,0.287,-5.337
0.417,0.060,0.287,-5.337
0.438,0.061,0.286,-5.337
0.375,0.063,0.283,-5.337
0.302,0.064,0.282,-5.337
0.327,0.062,0.287,-5.337
0.405,0.058,0.291,-5.337
0.452,0.063,0.292,-5.337
0.335,0.068,0.291,-5.337
0.230,0.069,0.292,-5.337
0.295,0.062,0.290,-5.337
0.340,0.064,0.289,-5.337
0.311,0.068,0.285,-5.337
0.309,0.068,0.287,-5.337
0.285,0.068,0.290,-5.337
0.230,0.071,0.296,-5.337
0.293,0.069,0.296,-5.337
0.320,0.071,0.291,-5.337
0.295,0.070,0.287,-5.337
0.299,0.068,0.285,-5.337
0.294,0.066,0.285,-5.337
0.314,0.063,0.287,-5.337
0.417,0.061,0.288,-5.337
0.385,0.064,0.288,-5.337
0.361,0.061,0.289,-5.337
0.325,0.064,0.293,-5.337
0.309,0.066,0.293,-5.337
0.301,0.066,0.290,-5.337
0.245,0.066,0.287,-5.337
0.331,0.062,0.285,-5.337
0.416,0.059,0.287,-5.337
0.429,0.056,0.286,-5.337
0.447,0.060,0.286,-5.337
0.411,0.063,0.284,-5.337
0.275,0.066,0.288,-5.337
0.302,0.066,0.289,-5.337
0.334,0.068,0.286,-5.337
0.329,0.065,0.285,-5.337
0.323,0.064,0.291,-5.337
0.298,0.067,0.293,-5.337
0.279,0.071,0.288,-5.337
0.200,0.075,0.285,-5.337
0.224,0.074,0.288,-5.337
0.317,0.069,0.291,-5.337
0.380,0.065,0.292,-5.337
0.406,0.064,0.291,-5.337
0.374,0.066,0.288,-5.337
0.345,0.060,0.289,-5.337
0.344,0.059,0.289,-5.337
0.382,0.061,0.289,-5.337
0.410,0.063,0.287,-5.337
0.428,0.063,0.288,-5.337
0.331,0.063,0.289,-5.337
0.245,0.063,0.292,-5.337
0.249,0.065,0.290,-5.337
0.296,0.065,0.287,-5.337
0.389,0.061,0.288,-5.337
0.376,0.062,0.291,-5.337
0.274,0.065,0.288,-5.337
0.234,0.062,0.287,-5.337
0.311,0.060,0.290,-5.337
0.343,0.062,0.291,-5.337
0.310,0.067,0.289,-5.337
0.274,0.064,0.287,-5.337
0.320,0.059,0.289,-5.337
0.319,0.059,0.295,-5.337
0.327,0.061,0.295,-5.337
0.314,0.063,0.292,-5.337
0.316,0.061,0.288,-5.337
0.277,0.059,0.289,-5.337
0.263,0.054,0.289,-5.337
0.313,0.055,0.289,-5.337
0.311,0.061,0.288,-5.337
0.318,0.060,0.285,-5.337
0.318,0.060,0.285,-5.337
0.322,0.060,0.286,-5.337
0.345,0.063,0.290,-5.337
0.363,0.058,0.289,-5.337
0.378,0.058,0.289,-5.337
0.335,0.059,0.290,-5.337
0.330,0.058,0.290,-5.337
0.368,0.057,0.290,-5.337
0.373,0.056,0.292,-5.337
0.343,0.059,0.292,-5.337
0.314,0.058,0.289,-5.337
0.321,0.054,0.288,-5.337
0.323,0.054,0.289,-5.337
0.218,0.058,0.292,-5.337
0.188,0.061,0.295,-5.337
0.303,0.058,0.296,-5.337
0.374,0.056,0.294,-5.337
0.354,0.054,0.290,-5.337
0.365,0.053,0.289,-5.337
0.325,0.056,0.288,-5.337
0.312,0.056,0.287,-5.337
0.366,0.054,0.289,-5.337
0.329,0.055,0.288,-5.337
0.305,0.055,0.288,-5.337
0.303,0.054,0.290,-5.337
0.287,0.051,0.291,-5.337
0.273,0.055,0.289,-5.337
0.321,0.056,0.283,-5.337
0.344,0.053,0.282,-5.337
0.301,0.056,0.283,-5.337
0.223,0.061,0.284,-5.337
0.161,0.061,0.287,-5.337
0.284,0.053,0.290,-5.337
0.361,0.050,0.292,-5.337
0.282,0.053,0.292,-5.337
0.178,0.056,0.290,-5.337
0.247,0.051,0.293,-5.337
0.328,0.050,0.295,-5.337
0.255,0.055,0.294,-5.337
0.220,0.059,0.290,-5.337
0.239,0.054,0.290,-5.337
0.266,0.046,0.288,-5.337
0.319,0.046,0.288,-5.337
0.252,0.050,0.286,-5.337
0.273,0.050,0.283,-5.337
0.304,0.051,0.282,-5.337
0.264,0.054,0.290,-5.337
0.236,0.054,0.291,-5.337
0.239,0.051,0.290,-5.337
0.237,0.051,0.292,-5.337
0.206,0.052,0.291,-5.337
0.269,0.050,0.292,-5.337
0.330,0.052,0.295,-5.337
0.231,0.053,0.294,-5.337
0.207,0.052,0.293,-5.337
0.292,0.047,0.292,-5.337
0.263,0.049,0.295,-5.337
0.220,0.051,0.293,-5.337
0.170,0.050,0.289,-5.337
0.177,0.052,0.285,-5.337
0.151,0.055,0.286,-5.337
0.175,0.057,0.286,-5.337
0.205,0.057,0.286,-5.337
0.295,0.049,0.292,-5.337
0.372,0.050,0.297,-5.337
0.311,0.054,0.297,-5.337
0.236,0.053,0.292,-5.337
0.237,0.050,0.289,-5.337
0.267,0.047,0.287,-5.337
0.219,0.051,0.285,-5.337
0.217,0.054,0.283,-5.337
0.246,0.055,0.287,-5.337
0.242,0.050,0.291,-5.337
0.236,0.048,0.293,-5.337
0.175,0.052,0.295,-5.337
0.140,0.053,0.293,-5.337
0.167,0.053,0.287,-5.337
0.181,0.054,0.285,-5.337
0.142,0.057,0.288,-5.337
0.053,0.055,0.291,-5.337
0.112,0.054,0.293,-5.337
0.234,0.052,0.293,-5.337
0.275,0.051,0.286,-5.337
0.161,0.052,0.285,-5.337
0.098,0.047,0.292,-5.337
0.177,0.047,0.293,-5.337
0.267,0.046,0.290,-5.337
0.229,0.046,0.291,-5.337
0.147,0.046,0.296,-5.337
0.213,0.045,0.296,-5.337
0.275,0.045,0.296,-5.337
0.231,0.045,0.295,-5.337
0.216,0.045,0.292,-5.337
0.231,0.047,0.287,-5.337
0.183,0.049,0.290,-5.337
0.162,0.049,0.293,-5.337
0.159,0.048,0.291,-5.337
0.192,0.045,0.289,-5.337
0.207,0.044,0.287,-5.337
0.146,0.048,0.288,-5.337
0.082,0.048,0.292,-5.337
0.177,0.044,0.296,-5.337
0.206,0.042,0.294,-5.337
0.128,0.046,0.291,-5.337
0.029,0.050,0.293,-5.337
0.038,0.050,0.291,-5.337
0.190,0.045,0.293,-5.337
0.240,0.044,0.295,-5.337
0.132,0.047,0.293,-5.337
0.071,0.050,0.289,-5.337
0.101,0.047,0.285,-5.337
0.109,0.043,0.282,-5.337
0.128,0.043,0.282,-5.337
0.065,0.046,0.285,-5.337
0.087,0.047,0.287,-5.337
0.140,0.049,0.291,-5.337
0.125,0.049,0.292,-5.337
0.141,0.048,0.291,-5.337
0.118,0.046,0.285,-5.337
0.120,0.048,0.286,-5.337
0.158,0.049,0.289,-5.337
0.111,0.050,0.293,-5.337
0.079,0.050,0.291,-5.337
0.159,0.048,0.289,-5.337
0.240,0.046,0.289,-5.337
0.176,0.049,0.292,-5.337
0.103,0.047,0.295,-5.337
0.139,0.046,0.294,-5.337
0.230,0.046,0.292,-5.337
0.279,0.047,0.294,-5.337
0.222,0.048,0.292,-5.337
0.207,0.046,0.286,-5.337
0.153,0.045,0.285,-5.337
0.096,0.045,0.287,-5.337
0.065,0.050,0.290,-5.337
0.092,0.050,0.288,-5.337
0.105,0.045,0.290,-5.337
0.097,0.043,0.292,-5.337
0.106,0.045,0.293,-5.337
0.102,0.045,0.288,-5.337
0.120,0.044,0.285,-5.337
0.198,0.040,0.287,-5.337
0.282,0.044,0.292,-5.337
0.247,0.046,0.296,-5.337
0.188,0.045,0.295,-5.337
0.168,0.043,0.294,-5.337
0.148,0.043,0.297,-5.337
0.126,0.043,0.296,-5.337
0.173,0.040,0.290,-5.337
0.243,0.042,0.287,-5.337
0.225,0.043,0.283,-5.337
0.179,0.041,0.286,-5.337
0.090,0.042,0.286,-5.337
0.077,0.044,0.292,-5.337
0.141,0.045,0.296,-5.337
0.180,0.042,0.297,-5.337
0.133,0.043,0.294,-5.337
0.063,0.045,0.288,-5.337
0.054,0.044,0.284,-5.337
0.099,0.042,0.283,-5.337
0.168,0.041,0.287,-5.337
0.174,0.046,0.292,-5.337
0.137,0.044,0.292,-5.337
0.109,0.041,0.290,-5.337
0.138,0.040,0.287,-5.337
0.164,0.042,0.290,-5.337
0.115,0.040,0.289,-5.337
0.114,0.040,0.288,-5.337
0.130,0.042,0.288,-5.337
0.117,0.040,0.290,-5.337
0.218,0.037,0.293,-5.337
0.266,0.034,0.293,-5.337
0.213,0.038,0.291,-5.337
0.157,0.042,0.288,-5.337
0.139,0.039,0.289,-5.337
0.126,0.038,0.292,-5.337
0.179,0.040,0.295,-5.337
0.211,0.040,0.293,-5.337
0.193,0.040,0.292,-5.337
0.161,0.037,0.292,-5.337
0.143,0.038,0.290,-5.337
0.155,0.040,0.286,-5.337
0.121,0.045,0.288,-5.337
0.141,0.045,0.291,-5.337
0.081,0.045,0.295,-5.337
0.040,0.045,0.296,-5.337
0.010,0.043,0.290,-5.337
0.014,0.041,0.289,-5.337
0.087,0.037,0.291,-5.337
0.142,0.037,0.291,-5.337
0.123,0.042,0.290,-5.337
0.088,0.041,0.291,-5.337
0.121,0.040,0.293,-5.337
0.125,0.043,0.295,-5.337
0.091,0.044,0.294,-5.337
0.105,0.043,0.294,-5.337
0.146,0.043,0.292,-5.337
0.068,0.044,0.294,-5.337
0.103,0.039,0.291,-5.337
0.141,0.038,0.289,-5.337
0.122,0.036,0.284,-5.337
0.187,0.037,0.283,-5.337
0.187,0.038,0.285,-5.337
0.186,0.041,0.289,-5.337
0.189,0.041,0.292,-5.337
0.127,0.040,0.294,-5.337
0.044,0.040,0.295,-5.337
0.079,0.040,0.296,-5.337
0.182,0.039,0.298,-5.337
0.195,0.038,0.297,-5.337
0.076,0.043,0.293,-5.337
0.059,0.045,0.292,-5.337
0.139,0.042,0.293,-5.337
0.161,0.043,0.293,-5.337
0.076,0.045,0.292,-5.337
0.042,0.040,0.288,-5.337
0.026,0.039,0.286,-5.337
0.038,0.044,0.291,-5.337
0.085,0.045,0.293,-5.337
0.101,0.042,0.292,-5.337
0.127,0.036,0.294,-5.337
0.140,0.032,0.291,-5.337
0.075,0.036,0.288,-5.337
0.028,0.040,0.287,-5.337
0.045,0.042,0.289,-5.337
0.070,0.038,0.291,-5.337
0.061,0.039,0.292,-5.337
0.003,0.043,0.290,-5.337
0.046,0.041,0.289,-5.337
0.078,0.040,0.290,-5.337
0.059,0.043,0.294,-5.337
0.083,0.045,0.298,-5.337
0.148,0.044,0.299,-5.337
0.145,0.041,0.292,-5.337
0.129,0.037,0.291,-5.337
0.116,0.037,0.293,-5.337
0.115,0.036,0.295,-5.337
0.100,0.037,0.298,-5.337
0.172,0.037,0.297,-5.337
0.209,0.038,0.290,-5.337
0.232,0.038,0.286,-5.337
0.233,0.039,0.289,-5.337
0.142,0.046,0.292,-5.337
0.064,0.047,0.294,-5.337
0.055,0.046,0.290,-5.337
0.086,0.041,0.289,-5.337
0.117,0.041,0.288,-5.337
0.114,0.042,0.292,-5.337
0.099,0.041,0.296,-5.337
0.083,0.039,0.297,-5.337
0.075,0.039,0.297,-5.337
0.150,0.039,0.296,-5.337
0.222,0.037,0.292,-5.337
0.176,0.039,0.292,-5.337
0.169,0.040,0.292,-5.337
0.166,0.042,0.290,-5.337
0.137,0.042,0.291,-5.337
0.076,0.038,0.294,-5.337
0.102,0.035,0.296,-5.337
0.113,0.037,0.293,-5.337
0.117,0.040,0.291,-5.337
0.156,0.042,0.295,-5.337
0.163,0.042,0.297,-5.337
0.100,0.041,0.291,-5.337
0.093,0.040,0.291,-5.337
0.123,0.042,0.292,-5.337
0.160,0.044,0.293,-5.337
0.179,0.047,0.292,-5.337
0.145,0.050,0.291,-5.337
0.079,0.053,0.289,-5.337
0.059,0.056,0.293,-5.337
0.115,0.053,0.296,-5.337
0.146,0.049,0.298,-5.337
0.164,0.047,0.291,-5.337
0.166,0.048,0.284,-5.337
0.215,0.046,0.280,-5.337
0.193,0.045,0.280,-5.337
0.119,0.045,0.287,-5.337
0.069,0.049,0.289,-5.337
0.055,0.050,0.288,-5.337
0.127,0.048,0.292,-5.337
0.149,0.046,0.297,-5.337
0.112,0.045,0.295,-5.337
0.169,0.046,0.289,-5.337
0.153,0.046,0.288,-5.337
0.148,0.044,0.287,-5.337
0.208,0.043,0.288,-5.337
0.225,0.046,0.292,-5.337
0.164,0.046,0.294,-5.337
0.045,0.047,0.294,-5.337
0.063,0.045,0.292,-5.337
0.175,0.047,0.293,-5.337
0.201,0.048,0.292,-5.337
0.189,0.046,0.291,-5.337
0.153,0.048,0.288,-5.337
0.211,0.045,0.287,-5.337
0.272,0.044,0.289,-5.337
0.222,0.049,0.294,-5.337
0.140,0.051,0.296,-5.337
0.100,0.049,0.294,-5.337
0.077,0.051,0.292,-5.337
0.065,0.054,0.291,-5.337
0.057,0.054,0.291,-5.337
0.138,0.051,0.290,-5.337
0.187,0.050,0.288,-5.337
0.143,0.052,0.291,-5.337
0.172,0.049,0.293,-5.337
0.221,0.049,0.293,-5.337
0.164,0.054,0.293,-5.337
0.119,0.056,0.290,-5.337
0.130,0.056,0.289,-5.337
0.196,0.048,0.285,-5.337
0.251,0.048,0.290,-5.337
0.193,0.054,0.291,-5.337
0.149,0.055,0.290,-5.337
0.157,0.046,0.287,-5.337
0.222,0.043,0.288,-5.337
0.268,0.044,0.290,-5.337
0.317,0.045,0.291,-5.337
0.269,0.048,0.294,-5.337
0.252,0.047,0.295,-5.337
0.266,0.044,0.293,-5.337
0.282,0.048,0.292,-5.337
0.213,0.053,0.290,-5.337
0.158,0.052,0.290,-5.337
0.202,0.048,0.293,-5.337
0.243,0.047,0.296,-5.337
0.193,0.049,0.299,-5.337
0.210,0.049,0.298,-5.337
0.193,0.049,0.296,-5.337
0.152,0.052,0.291,-5.337
0.180,0.049,0.290,-5.337
0.215,0.048,0.290,-5.337
0.242,0.044,0.288,-5.337
0.310,0.039,0.287,-5.337
0.361,0.041,0.288,-5.337
0.381,0.042,0.289,-5.337
0.275,0.047,0.289,-5.337
0.191,0.052,0.290,-5.337
0.189,0.054,0.292,-5.337
0.150,0.053,0.292,-5.337
0.173,0.051,0.292,-5.337
0.195,0.050,0.291,-5.337
0.277,0.051,0.292,-5.337
0.330,0.050,0.292,-5.337
0.285,0.050,0.289,-5.337
0.228,0.050,0.288,-5.337
0.212,0.048,0.289,-5.337
0.279,0.046,0.292,-5.337
0.289,0.045,0.291,-5.337
0.205,0.049,0.290,-5.337
0.202,0.051,0.290,-5.337
0.268,0.049,0.293,-5.337
0.281,0.049,0.292,-5.337
0.346,0.049,0.291,-5.337
0.413,0.050,0.290,-5.337
0.381,0.052,0.287,-5.337
0.293,0.054,0.285,-5.337
0.261,0.054,0.289,-5.337
0.267,0.052,0.288,-5.337
0.281,0.053,0.289,-5.337
0.329,0.057,0.289,-5.337
0.354,0.059,0.291,-5.337
0.316,0.056,0.293,-5.337
0.197,0.056,0.298,-5.337
0.138,0.054,0.298,-5.337
0.159,0.059,0.294,-5.337
0.201,0.062,0.290,-5.337
0.178,0.060,0.290,-5.337
0.199,0.057,0.291,-5.337
0.190,0.053,0.290,-5.337
0.260,0.056,0.292,-5.337
0.288,0.060,0.293,-5.337
0.254,0.057,0.291,-5.337
0.208,0.055,0.286,-5.337
0.239,0.056,0.289,-5.337
0.230,0.058,0.290,-5.337
0.234,0.060,0.291,-5.337
0.319,0.057,0.290,-5.337
0.264,0.056,0.294,-5.337
0.215,0.058,0.293,-5.337
0.240,0.060,0.289,-5.337
0.256,0.059,0.287,-5.337
0.256,0.056,0.292,-5.337
0.286,0.056,0.292,-5.337
0.330,0.056,0.288,-5.337
0.347,0.060,0.286,-5.337
0.346,0.058,0.291,-5.337
0.310,0.057,0.295,-5.337
0.262,0.058,0.296,-5.337
0.300,0.056,0.292,-5.337
0.361,0.057,0.289,-5.337
0.325,0.060,0.288,-5.337
0.258,0.062,0.291,-5.337
0.211,0.066,0.292,-5.337
0.222,0.063,0.288,-5.337
0.303,0.060,0.284,-5.337
0.291,0.062,0.282,-5.337
0.254,0.062,0.287,-5.337
0.242,0.060,0.290,-5.337
0.309,0.060,0.292,-5.337
0.309,0.062,0.288,-5.337
0.219,0.061,0.288,-5.337
0.256,0.057,0.290,-5.337
0.319,0.058,0.289,-5.337
0.366,0.058,0.287,-5.337
0.365,0.060,0.289,-5.337
0.358,0.060,0.292,-5.337
0.367,0.059,0.293,-5.337
0.334,0.060,0.294,-5.337
0.337,0.060,0.295,-5.337
0.324,0.057,0.288,-5.337
0.266,0.059,0.285,-5.337
0.259,0.061,0.287,-5.337
0.260,0.061,0.290,-5.337
0.310,0.063,0.289,-5.337
0.297,0.063,0.291,-5.337
0.293,0.057,0.292,-5.337
0.360,0.056,0.292,-5.337
0.356,0.058,0.292,-5.337
0.382,0.059,0.285,-5.337
0.435,0.058,0.283,-5.337
0.449,0.060,0.283,-5.337
0.444,0.061,0.286,-5.337
0.321,0.065,0.290,-5.337
0.247,0.063,0.293,-5.337
0.280,0.057,0.290,-5.337
0.283,0.060,0.287,-5.337
0.277,0.065,0.290,-5.337
0.229,0.066,0.290,-5.337
0.178,0.065,0.284,-5.337
0.233,0.067,0.281,-5.337
0.310,0.066,0.282,-5.337
0.340,0.064,0.284,-5.337
0.336,0.061,0.289,-5.337
0.369,0.059,0.292,-5.337
0.403,0.059,0.293,-5.337
0.392,0.062,0.292,-5.337
0.360,0.063,0.291,-5.337
0.291,0.065,0.288,-5.337
0.305,0.064,0.291,-5.337
0.342,0.064,0.290,-5.337
0.337,0.064,0.291,-5.337
0.344,0.065,0.287,-5.337
0.356,0.069,0.284,-5.337
0.321,0.067,0.288,-5.337
0.312,0.066,0.287,-5.337
0.403,0.064,0.286,-5.337
0.348,0.065,0.285,-5.337
0.164,0.067,0.284,-5.337
0.151,0.065,0.284,-5.337
0.333,0.062,0.291,-5.337
0.362,0.061,0.292,-5.337
0.275,0.063,0.292,-5.337
0.242,0.063,0.292,-5.337
0.297,0.056,0.290,-5.337
0.279,0.057,0.291,-5.337
0.252,0.060,0.290,-5.337
0.313,0.063,0.287,-5.337
0.329,0.062,0.287,-5.337
0.287,0.059,0.289,-5.337
0.355,0.058,0.290,-5.337
0.403,0.060,0.290,-5.337
0.360,0.063,0.294,-5.337
0.278,0.063,0.293,-5.337
0.287,0.063,0.290,-5.337
0.324,0.061,0.290,-5.337
0.379,0.059,0.290,-5.337
0.398,0.059,0.290,-5.337
0.294,0.062,0.290,-5.337
0.330,0.063,0.290,-5.337
0.377,0.061,0.288,-5.337
0.310,0.060,0.286,-5.337
0.265,0.060,0.290,-5.337
0.330,0.056,0.291,-5.337
0.328,0.058,0.293,-5.337
0.356,0.055,0.295,-5.337
0.334,0.055,0.295,-5.337
0.292,0.055,0.291,-5.337
0.346,0.054,0.288,-5.337
0.388,0.054,0.283,-5.337
0.402,0.055,0.283,-5.337
0.440,0.057,0.291,-5.337
0.387,0.059,0.294,-5.337
0.323,0.060,0.292,-5.337
0.308,0.064,0.288,-5.337
0.324,0.066,0.288,-5.337
0.343,0.063,0.286,-5.337
0.323,0.062,0.290,-5.337
0.270,0.060,0.292,-5.337
0.260,0.058,0.291,-5.337
0.281,0.061,0.291,-5.337
0.252,0.063,0.294,-5.337
0.247,0.058,0.294,-5.337
0.310,0.056,0.293,-5.337
0.310,0.058,0.292,-5.337
0.204,0.062,0.294,-5.337
0.249,0.056,0.292,-5.337
0.340,0.056,0.289,-5.337
0.294,0.056,0.287,-5.337
0.275,0.059,0.288,-5.337
0.277,0.059,0.290,-5.337
0.261,0.060,0.291,-5.337
0.254,0.056,0.293,-5.337
0.253,0.054,0.295,-5.337
0.210,0.058,0.295,-5.337
0.189,0.058,0.287,-5.337
0.261,0.056,0.285,-5.337
0.305,0.055,0.288,-5.337
0.321,0.057,0.291,-5.337
0.333,0.056,0.292,-5.337
0.258,0.055,0.290,-5.337
0.260,0.055,0.290,-5.337
0.261,0.055,0.292,-5.337
0.272,0.050,0.290,-5.337
0.262,0.050,0.286,-5.337
0.260,0.051,0.287,-5.337
0.234,0.053,0.293,-5.337
0.243,0.053,0.294,-5.337
0.324,0.050,0.292,-5.337
0.437,0.049,0.289,-5.337
0.419,0.050,0.290,-5.337
0.300,0.052,0.292,-5.337
0.225,0.051,0.292,-5.337
0.274,0.052,0.294,-5.337
0.234,0.051,0.295,-5.337
0.291,0.047,0.297,-5.337
0.316,0.048,0.295,-5.337
0.225,0.050,0.294,-5.337
0.261,0.049,0.292,-5.337
0.337,0.048,0.289,-5.337
0.266,0.051,0.285,-5.337
0.229,0.054,0.283,-5.337
0.273,0.055,0.283,-5.337
0.275,0.055,0.289,-5.337
0.243,0.052,0.294,-5.337
0.243,0.053,0.292,-5.337
0.295,0.055,0.286,-5.337
0.311,0.057,0.284,-5.337
0.328,0.053,0.288,-5.337
0.274,0.052,0.295,-5.337
0.275,0.053,0.299,-5.337
0.337,0.051,0.298,-5.337
0.367,0.054,0.294,-5.337
0.334,0.051,0.289,-5.337
0.276,0.050,0.289,-5.337
0.235,0.051,0.291,-5.337
0.219,0.051,0.289,-5.337
0.235,0.048,0.288,-5.337
0.257,0.050,0.290,-5.337
0.288,0.051,0.290,-5.337
0.300,0.049,0.291,-5.337
0.294,0.052,0.291,-5.337
0.242,0.052,0.293,-5.337
0.200,0.051,0.293,-5.337
0.172,0.050,0.292,-5.337
0.224,0.045,0.292,-5.337
0.197,0.047,0.290,-5.337
0.141,0.049,0.292,-5.337
0.147,0.051,0.293,-5.337
0.194,0.045,0.293,-5.337
0.271,0.042,0.290,-5.337
0.226,0.044,0.287,-5.337
0.240,0.043,0.288,-5.337
0.296,0.044,0.286,-5.337
0.302,0.044,0.286,-5.337
0.325,0.043,0.288,-5.337
0.281,0.043,0.290,-5.337
0.262,0.041,0.294,-5.337
0.305,0.042,0.292,-5.337
0.295,0.042,0.293,-5.337
0.238,0.041,0.294,-5.337
0.238,0.040,0.291,-5.337
0.268,0.041,0.288,-5.337
0.238,0.040,0.285,-5.337
0.229,0.038,0.286,-5.337
0.241,0.036,0.290,-5.337
0.247,0.036,0.289,-5.337
0.257,0.038,0.291,-5.337
0.236,0.042,0.295,-5.337
0.214,0.045,0.297,-5.337
0.231,0.044,0.297,-5.337
0.211,0.044,0.295,-5.337
0.146,0.047,0.291,-5.337
0.159,0.049,0.287,-5.337
0.235,0.047,0.286,-5.337
0.293,0.045,0.287,-5.337
0.229,0.044,0.292,-5.337
0.223,0.041,0.294,-5.337
0.244,0.040,0.296,-5.337
0.199,0.040,0.294,-5.337
0.147,0.042,0.294,-5.337
0.139,0.043,0.294,-5.337
0.079,0.043,0.293,-5.337
0.060,0.045,0.286,-5.337
0.098,0.044,0.285,-5.337
0.145,0.040,0.287,-5.337
0.188,0.038,0.293,-5.337
0.186,0.039,0.295,-5.337
0.142,0.042,0.294,-5.337
0.109,0.042,0.295,-5.337
0.135,0.040,0.294,-5.337
0.228,0.038,0.292,-5.337
0.221,0.038,0.289,-5.337
0.180,0.041,0.286,-5.337
0.136,0.042,0.285,-5.337
0.191,0.042,0.284,-5.337
0.211,0.042,0.287,-5.337
0.206,0.042,0.291,-5.337
0.189,0.041,0.296,-5.337
0.178,0.040,0.298,-5.337
0.175,0.043,0.295,-5.337
0.139,0.048,0.289,-5.337
0.158,0.045,0.283,-5.337
0.173,0.044,0.284,-5.337
0.079,0.045,0.288,-5.337
0.066,0.045,0.294,-5.337
0.057,0.045,0.293,-5.337
0.073,0.044,0.293,-5.337
0.199,0.041,0.291,-5.337
0.271,0.040,0.290,-5.337
0.174,0.039,0.287,-5.337
0.037,0.040,0.288,-5.337
0.086,0.040,0.292,-5.337
0.230,0.039,0.294,-5.337
0.294,0.038,0.293,-5.337
0.275,0.041,0.289,-5.337
0.199,0.042,0.290,-5.337
0.120,0.043,0.288,-5.337
0.159,0.039,0.287,-5.337
0.235,0.038,0.288,-5.337
0.207,0.040,0.288,-5.337
0.125,0.045,0.290,-5.337
0.104,0.045,0.293,-5.337
0.196,0.040,0.292,-5.337
0.237,0.040,0.292,-5.337
0.109,0.042,0.294,-5.337
0.065,0.042,0.293,-5.337
0.030,0.045,0.289,-5.337
0.070,0.043,0.290,-5.337
0.102,0.041,0.293,-5.337
0.097,0.038,0.292,-5.337
0.128,0.042,0.290,-5.337
0.144,0.041,0.290,-5.337
0.141,0.041,0.290,-5.337
0.140,0.039,0.288,-5.337
0.147,0.042,0.285,-5.337
0.099,0.044,0.286,-5.337
0.103,0.040,0.291,-5.337
0.099,0.040,0.294,-5.337
0.060,0.042,0.292,-5.337
0.142,0.040,0.291,-5.337
0.185,0.042,0.292,-5.337
0.141,0.043,0.290,-5.337
0.143,0.039,0.289,-5.337
0.230,0.033,0.287,-5.337
0.177,0.038,0.289,-5.337
0.079,0.043,0.287,-5.337
0.067,0.042,0.288,-5.337
0.047,0.043,0.288,-5.337
0.024,0.042,0.290,-5.337
0.075,0.042,0.291,-5.337
0.140,0.041,0.289,-5.337
0.112,0.040,0.285,-5.337
0.070,0.042,0.286,-5.337
0.059,0.040,0.288,-5.337
0.045,0.042,0.290,-5.337
0.023,0.043,0.290,-5.337
0.014,0.043,0.294,-5.337
0.063,0.039,0.293,-5.337
0.084,0.039,0.290,-5.337
0.164,0.038,0.287,-5.337
0.158,0.037,0.288,-5.337
0.158,0.037,0.292,-5.337
0.055,0.039,0.293,-5.337
0.015,0.038,0.294,-5.337
0.105,0.039,0.292,-5.337
0.095,0.040,0.292,-5.337
0.112,0.038,0.292,-5.337
0.120,0.035,0.288,-5.337
0.075,0.040,0.284,-5.337
0.061,0.040,0.288,-5.337
0.071,0.039,0.292,-5.337
0.060,0.041,0.292,-5.337
0.109,0.039,0.288,-5.337
0.124,0.037,0.288,-5.337
0.104,0.039,0.288,-5.337
0.096,0.038,0.289,-5.337
0.141,0.036,0.287,-5.337
0.165,0.037,0.288,-5.337
0.195,0.038,0.288,-5.337
0.173,0.038,0.284,-5.337
0.132,0.036,0.283,-5.337
0.142,0.034,0.285,-5.337
0.128,0.031,0.288,-5.337
0.149,0.033,0.291,-5.337
0.109,0.038,0.290,-5.337
0.018,0.038,0.288,-5.337
-0.004,0.038,0.287,-5.337
-0.005,0.037,0.290,-5.337
0.020,0.034,0.292,-5.337
0.064,0.034,0.287,-5.337
0.099,0.034,0.288,-5.337
0.117,0.033,0.291,-5.337
0.088,0.034,0.293,-5.337
0.100,0.032,0.286,-5.337
0.079,0.037,0.281,-5.337
0.009,0.036,0.283,-5.337
0.023,0.034,0.290,-5.337
0.101,0.033,0.293,-5.337
0.117,0.031,0.291,-5.337
0.138,0.032,0.289,-5.337
0.126,0.038,0.289,-5.337
0.157,0.037,0.291,-5.337
0.209,0.036,0.294,-5.337
0.160,0.040,0.294,-5.337
-0.002,0.042,0.293,-5.337
0.023,0.036,0.290,-5.337
0.082,0.037,0.288,-5.337
0.069,0.037,0.289,-5.337
0.029,0.038,0.294,-5.337
0.020,0.038,0.295,-5.337
-0.015,0.036,0.291,-5.337
0.049,0.033,0.290,-5.337
0.162,0.035,0.288,-5.337
0.161,0.039,0.286,-5.337
0.091,0.038,0.286,-5.337
0.103,0.035,0.290,-5.337
0.138,0.034,0.289,-5.337
0.165,0.037,0.287,-5.337
0.187,0.038,0.287,-5.337
0.137,0.037,0.288,-5.337
0.084,0.033,0.293,-5.337
0.063,0.033,0.296,-5.337
0.095,0.032,0.295,-5.337
0.042,0.040,0.292,-5.337
0.004,0.041,0.291,-5.337
0.074,0.042,0.289,-5.337
0.077,0.040,0.286,-5.337
0.080,0.038,0.286,-5.337
0.047,0.041,0.289,-5.337
-0.024,0.040,0.293,-5.337
-0.011,0.042,0.297,-5.337
0.036,0.042,0.295,-5.337
0.034,0.039,0.289,-5.337
0.030,0.036,0.287,-5.337
0.097,0.037,0.288,-5.337
0.100,0.038,0.292,-5.337
0.124,0.036,0.292,-5.337
0.131,0.033,0.293,-5.337
0.091,0.035,0.293,-5.337
0.109,0.039,0.290,-5.337
0.191,0.040,0.290,-5.337
0.164,0.039,0.291,-5.337
0.037,0.040,0.292,-5.337
0.017,0.041,0.292,-5.337
0.082,0.039,0.293,-5.337
0.118,0.038,0.291,-5.337
0.111,0.035,0.291,-5.337
0.134,0.035,0.290,-5.337
0.123,0.036,0.289,-5.337
0.129,0.038,0.291,-5.337
0.107,0.040,0.290,-5.337
0.091,0.040,0.290,-5.337
0.208,0.039,0.295,-5.337
0.242,0.036,0.298,-5.337
0.169,0.036,0.299,-5.337
0.166,0.038,0.297,-5.337
0.093,0.046,0.290,-5.337
0.029,0.046,0.287,-5.337
0.071,0.044,0.286,-5.337
0.106,0.041,0.288,-5.337
0.123,0.041,0.289,-5.337
0.165,0.046,0.291,-5.337
0.117,0.047,0.294,-5.337
0.109,0.046,0.295,-5.337
0.125,0.041,0.292,-5.337
0.141,0.044,0.290,-5.337
0.129,0.043,0.286,-5.337
0.171,0.041,0.290,-5.337
0.218,0.041,0.295,-5.337
0.205,0.044,0.296,-5.337
0.252,0.039,0.296,-5.337
0.281,0.038,0.294,-5.337
0.184,0.040,0.290,-5.337
0.204,0.042,0.286,-5.337
0.244,0.040,0.287,-5.337
0.255,0.043,0.294,-5.337
0.198,0.043,0.297,-5.337
0.130,0.044,0.293,-5.337
0.137,0.043,0.290,-5.337
0.116,0.042,0.290,-5.337
0.130,0.044,0.292,-5.337
0.122,0.043,0.290,-5.337
0.076,0.048,0.289,-5.337
0.089,0.047,0.291,-5.337
0.146,0.043,0.293,-5.337
0.177,0.040,0.292,-5.337
0.184,0.042,0.291,-5.337
0.197,0.042,0.292,-5.337
0.142,0.048,0.294,-5.337
0.182,0.046,0.295,-5.337
0.237,0.048,0.293,-5.337
0.239,0.046,0.289,-5.337
0.151,0.052,0.285,-5.337
0.107,0.051,0.287,-5.337
0.162,0.044,0.292,-5.337
0.202,0.042,0.292,-5.337
0.164,0.046,0.290,-5.337
0.140,0.045,0.288,-5.337
0.186,0.043,0.288,-5.337
0.149,0.046,0.287,-5.337
0.089,0.047,0.285,-5.337
0.142,0.046,0.291,-5.337
0.159,0.051,0.293,-5.337
0.167,0.049,0.295,-5.337
0.148,0.047,0.293,-5.337
0.107,0.050,0.291,-5.337
0.100,0.053,0.292,-5.337
0.126,0.054,0.296,-5.337
0.210,0.049,0.296,-5.337
0.230,0.047,0.293,-5.337
0.223,0.048,0.291,-5.337
0.169,0.050,0.290,-5.337
0.180,0.047,0.289,-5.337
0.241,0.047,0.288,-5.337
0.342,0.046,0.289,-5.337
0.282,0.046,0.288,-5.337
0.226,0.048,0.286,-5.337
0.263,0.048,0.288,-5.337
0.273,0.049,0.290,-5.337
0.252,0.052,0.289,-5.337
0.179,0.050,0.287,-5.337
0.123,0.047,0.287,-5.337
0.108,0.052,0.289,-5.337
0.135,0.054,0.290,-5.337
0.194,0.051,0.293,-5.337
0.226,0.050,0.289,-5.337
0.240,0.051,0.290,-5.337
0.284,0.049,0.293,-5.337
0.331,0.051,0.292,-5.337
0.249,0.051,0.292,-5.337
0.192,0.050,0.292,-5.337
0.273,0.048,0.289,-5.337
0.338,0.049,0.287,-5.337
0.321,0.046,0.287,-5.337
0.280,0.048,0.289,-5.337
0.180,0.053,0.292,-5.337
0.187,0.054,0.292,-5.337
0.213,0.053,0.290,-5.337
0.284,0.051,0.292,-5.337
0.292,0.053,0.292,-5.337
0.260,0.055,0.291,-5.337
0.208,0.053,0.289,-5.337
0.209,0.054,0.288,-5.337
0.246,0.052,0.289,-5.337
0.330,0.049,0.288,-5.337
0.279,0.049,0.290,-5.337
0.248,0.050,0.290,-5.337
0.264,0.054,0.294,-5.337
0.281,0.054,0.293,-5.337
0.297,0.056,0.292,-5.337
0.278,0.057,0.297,-5.337
0.224,0.059,0.299,-5.337
0.197,0.057,0.292,-5.337
0.251,0.055,0.290,-5.337
0.246,0.055,0.289,-5.337
0.259,0.055,0.295,-5.337
0.217,0.057,0.297,-5.337
0.174,0.059,0.296,-5.337
0.182,0.056,0.291,-5.337
0.231,0.054,0.287,-5.337
0.280,0.056,0.288,-5.337
0.353,0.057,0.287,-5.337
0.373,0.054,0.286,-5.337
0.364,0.050,0.282,-5.337
0.395,0.049,0.284,-5.337
0.329,0.056,0.289,-5.337
0.209,0.059,0.295,-5.337
0.262,0.057,0.293,-5.337
0.288,0.058,0.291,-5.337
0.273,0.060,0.287,-5.337
0.181,0.063,0.287,-5.337
0.173,0.058,0.287,-5.337
0.226,0.059,0.290,-5.337
0.222,0.056,0.290,-5.337
0.231,0.056,0.292,-5.337
0.325,0.054,0.292,-5.337
0.334,0.057,0.291,-5.337
0.284,0.056,0.292,-5.337
0.295,0.058,0.293,-5.337
0.270,0.060,0.291,-5.337
0.287,0.060,0.294,-5.337
0.275,0.060,0.297,-5.337
0.243,0.058,0.294,-5.337
0.253,0.053,0.291,-5.337
0.330,0.050,0.290,-5.337
0.324,0.054,0.288,-5.337
0.255,0.059,0.290,-5.337
0.290,0.056,0.292,-5.337
0.339,0.056,0.290,-5.337
0.303,0.054,0.290,-5.337
0.238,0.053,0.288,-5.337
0.239,0.056,0.291,-5.337
0.186,0.059,0.286,-5.337
0.208,0.058,0.282,-5.337
0.295,0.056,0.286,-5.337
0.290,0.054,0.293,-5.337
0.312,0.052,0.296,-5.337
0.386,0.052,0.290,-5.337
0.428,0.055,0.291,-5.337
0.387,0.057,0.293,-5.337
0.340,0.058,0.297,-5.337
0.367,0.058,0.298,-5.337
0.371,0.057,0.295,-5.337
0.347,0.060,0.287,-5.337
0.309,0.060,0.282,-5.337
0.373,0.058,0.280,-5.337
0.389,0.058,0.282,-5.337
0.351,0.057,0.286,-5.337
0.393,0.057,0.293,-5.337
0.399,0.056,0.295,-5.337
0.334,0.058,0.296,-5.337
0.260,0.056,0.293,-5.337
0.242,0.061,0.295,-5.337
0.307,0.060,0.293,-5.337
0.267,0.061,0.289,-5.337
0.262,0.059,0.291,-5.337
0.321,0.058,0.292,-5.337
0.334,0.059,0.288,-5.337
0.370,0.056,0.285,-5.337
0.440,0.055,0.290,-5.337
0.482,0.055,0.297,-5.337
0.360,0.056,0.297,-5.337
0.328,0.058,0.292,-5.337
0.345,0.058,0.289,-5.337
0.418,0.058,0.288,-5.337
0.437,0.059,0.287,-5.337
0.388,0.062,0.289,-5.337
0.337,0.064,0.289,-5.337
0.193,0.067,0.292,-5.337
0.311,0.063,0.296,-5.337
0.436,0.060,0.290,-5.337
0.400,0.060,0.284,-5.337
0.356,0.060,0.282,-5.337
0.325,0.063,0.288,-5.337
0.318,0.061,0.286,-5.337
0.343,0.062,0.289,-5.337
0.362,0.060,0.293,-5.337
0.303,0.063,0.298,-5.337
0.293,0.062,0.300,-5.337
0.279,0.063,0.298,-5.337
0.306,0.061,0.291,-5.337
0.318,0.064,0.285,-5.337
0.350,0.060,0.284,-5.337
0.362,0.063,0.284,-5.337
0.345,0.063,0.285,-5.337
0.372,0.062,0.287,-5.337
0.406,0.059,0.289,-5.337
0.422,0.060,0.288,-5.337
0.344,0.061,0.289,-5.337
0.299,0.062,0.292,-5.337
0.310,0.060,0.293,-5.337
0.310,0.061,0.289,-5.337
0.316,0.061,0.288,-5.337
0.303,0.059,0.286,-5.337
0.337,0.060,0.289,-5.337
0.390,0.055,0.292,-5.337
0.349,0.056,0.292,-5.337
0.318,0.057,0.292,-5.337
0.281,0.060,0.290,-5.337
0.202,0.059,0.288,-5.337
0.154,0.057,0.287,-5.337
0.213,0.059,0.288,-5.337
0.261,0.063,0.292,-5.337
0.328,0.057,0.294,-5.337
0.422,0.054,0.292,-5.337
0.379,0.056,0.291,-5.337
0.311,0.059,0.293,-5.337
0.343,0.057,0.291,-5.337
0.408,0.057,0.292,-5.337
0.432,0.057,0.290,-5.337
0.391,0.059,0.286,-5.337
0.335,0.059,0.285,-5.337
0.324,0.056,0.286,-5.337
0.303,0.053,0.289,-5.337
0.246,0.054,0.290,-5.337
0.212,0.055,0.293,-5.337
0.266,0.054,0.293,-5.337
0.358,0.058,0.292,-5.337
0.402,0.058,0.289,-5.337
0.441,0.060,0.288,-5.337
0.385,0.061,0.286,-5.337
0.350,0.061,0.287,-5.337
0.359,0.062,0.288,-5.337
0.413,0.059,0.288,-5.337
0.390,0.058,0.290,-5.337
0.292,0.058,0.291,-5.337
0.214,0.054,0.294,-5.337
0.233,0.052,0.295,-5.337
0.306,0.054,0.292,-5.337
0.342,0.058,0.292,-5.337
0.317,0.056,0.295,-5.337
0.265,0.054,0.296,-5.337
0.229,0.053,0.292,-5.337
0.314,0.054,0.285,-5.337
0.330,0.056,0.288,-5.337
0.246,0.055,0.292,-5.337
0.223,0.057,0.294,-5.337
0.281,0.053,0.294,-5.337
0.334,0.056,0.295,-5.337
0.362,0.052,0.291,-5.337
0.344,0.051,0.293,-5.337
0.268,0.054,0.291,-5.337
0.235,0.056,0.290,-5.337
0.283,0.055,0.288,-5.337
0.324,0.053,0.289,-5.337
0.290,0.050,0.292,-5.337
0.184,0.054,0.294,-5.337
0.196,0.054,0.295,-5.337
0.286,0.052,0.292,-5.337
0.251,0.054,0.287,-5.337
0.247,0.052,0.287,-5.337
0.347,0.051,0.292,-5.337
0.289,0.054,0.293,-5.337
0.157,0.053,0.292,-5.337
0.186,0.051,0.292,-5.337
0.290,0.051,0.292,-5.337
0.269,0.054,0.290,-5.337
0.247,0.053,0.289,-5.337
0.312,0.048,0.290,-5.337
0.317,0.050,0.294,-5.337
0.224,0.049,0.298,-5.337
0.226,0.047,0.297,-5.337
0.244,0.047,0.291,-5.337
0.298,0.045,0.292,-5.337
0.269,0.048,0.295,-5.337
0.219,0.049,0.296,-5.337
0.217,0.042,0.293,-5.337
0.247,0.044,0.292,-5.337
0.193,0.048,0.293,-5.337
0.128,0.050,0.292,-5.337
0.111,0.048,0.292,-5.337
0.192,0.047,0.291,-5.337
0.296,0.041,0.292,-5.337
0.258,0.043,0.293,-5.337
0.267,0.045,0.291,-5.337
0.284,0.051,0.291,-5.337
0.259,0.052,0.294,-5.337
0.208,0.051,0.293,-5.337
0.185,0.052,0.290,-5.337
0.221,0.049,0.285,-5.337
0.233,0.050,0.287,-5.337
0.205,0.047,0.292,-5.337
0.154,0.046,0.299,-5.337
0.090,0.050,0.294,-5.337
0.097,0.050,0.292,-5.337
0.177,0.050,0.292,-5.337
0.209,0.050,0.295,-5.337
0.235,0.045,0.297,-5.337
0.325,0.042,0.297,-5.337
0.371,0.043,0.295,-5.337
0.276,0.047,0.293,-5.337
0.260,0.043,0.294,-5.337
0.314,0.044,0.294,-5.337
0.313,0.045,0.292,-5.337
0.209,0.047,0.293,-5.337
0.184,0.047,0.291,-5.337
0.194,0.044,0.289,-5.337
0.172,0.045,0.288,-5.337
0.152,0.045,0.288,-5.337
0.179,0.044,0.287,-5.337
0.253,0.042,0.288,-5.337
0.332,0.040,0.287,-5.337
0.345,0.039,0.286,-5.337
0.314,0.039,0.290,-5.337
0.185,0.042,0.292,-5.337
0.110,0.043,0.294,-5.337
0.234,0.045,0.294,-5.337
0.320,0.045,0.292,-5.337
0.236,0.048,0.290,-5.337
0.157,0.044,0.290,-5.337
0.226,0.042,0.292,-5.337
0.308,0.044,0.294,-5.337
0.267,0.045,0.293,-5.337
0.211,0.046,0.289,-5.337
0.139,0.045,0.288,-5.337
0.083,0.048,0.290,-5.337
0.161,0.045,0.291,-5.337
0.250,0.043,0.292,-5.337
0.199,0.044,0.291,-5.337
0.142,0.042,0.288,-5.337
0.191,0.042,0.287,-5.337
0.244,0.045,0.288,-5.337
0.181,0.047,0.290,-5.337
0.099,0.045,0.292,-5.337
0.119,0.043,0.295,-5.337
0.198,0.044,0.295,-5.337
0.228,0.046,0.295,-5.337
0.258,0.043,0.289,-5.337
0.251,0.044,0.286,-5.337
0.238,0.044,0.287,-5.337
0.224,0.040,0.291,-5.337
0.175,0.042,0.292,-5.337
0.106,0.047,0.290,-5.337
0.116,0.046,0.289,-5.337
0.150,0.044,0.291,-5.337
0.166,0.042,0.292,-5.337
0.216,0.044,0.294,-5.337
0.122,0.048,0.292,-5.337
0.097,0.049,0.292,-5.337
0.087,0.046,0.295,-5.337
0.173,0.042,0.298,-5.337
0.225,0.041,0.296,-5.337
0.191,0.042,0.291,-5.337
0.177,0.042,0.291,-5.337
0.223,0.043,0.289,-5.337
0.215,0.042,0.291,-5.337
0.167,0.041,0.291,-5.337
0.103,0.042,0.291,-5.337
0.123,0.041,0.294,-5.337
0.145,0.041,0.294,-5.337
0.135,0.039,0.292,-5.337
0.204,0.038,0.290,-5.337
0.193,0.041,0.292,-5.337
0.187,0.039,0.292,-5.337
0.163,0.044,0.293,-5.337
0.155,0.043,0.295,-5.337
0.165,0.040,0.294,-5.337
0.141,0.042,0.290,-5.337
0.076,0.043,0.288,-5.337
0.102,0.043,0.290,-5.337
0.134,0.040,0.294,-5.337
0.129,0.041,0.293,-5.337
0.090,0.041,0.292,-5.337
0.136,0.039,0.294,-5.337
0.207,0.040,0.296,-5.337
0.140,0.043,0.291,-5.337
0.084,0.043,0.290,-5.337
0.140,0.041,0.290,-5.337
0.266,0.040,0.291,-5.337
0.194,0.041,0.288,-5.337
0.130,0.038,0.290,-5.337
0.188,0.041,0.292,-5.337
0.149,0.045,0.293,-5.337
0.063,0.044,0.291,-5.337
0.135,0.042,0.292,-5.337
0.138,0.040,0.293,-5.337
0.115,0.043,0.291,-5.337
0.131,0.041,0.288,-5.337
0.124,0.044,0.288,-5.337
0.102,0.045,0.287,-5.337
0.083,0.046,0.292,-5.337
0.085,0.046,0.295,-5.337
0.079,0.043,0.296,-5.337
0.109,0.040,0.292,-5.337
0.193,0.037,0.288,-5.337
0.186,0.036,0.288,-5.337
0.075,0.035,0.292,-5.337
0.022,0.035,0.296,-5.337
0.124,0.033,0.292,-5.337
0.162,0.034,0.290,-5.337
0.117,0.039,0.290,-5.337
0.101,0.041,0.294,-5.337
0.156,0.036,0.294,-5.337
0.174,0.038,0.291,-5.337
0.204,0.040,0.291,-5.337
0.206,0.040,0.293,-5.337
0.147,0.041,0.289,-5.337
0.032,0.044,0.286,-5.337
0.046,0.040,0.285,-5.337
0.099,0.043,0.289,-5.337
0.118,0.041,0.290,-5.337
0.072,0.044,0.294,-5.337
0.098,0.043,0.296,-5.337
0.156,0.044,0.295,-5.337
0.137,0.046,0.295,-5.337
0.115,0.044,0.295,-5.337
0.063,0.043,0.294,-5.337
0.087,0.039,0.290,-5.337
0.170,0.036,0.287,-5.337
0.236,0.035,0.288,-5.337
0.225,0.034,0.292,-5.337
0.112,0.044,0.293,-5.337
0.014,0.043,0.291,-5.337
0.047,0.041,0.289,-5.337
0.108,0.039,0.289,-5.337
0.156,0.039,0.290,-5.337
0.119,0.041,0.290,-5.337
0.094,0.039,0.289,-5.337
0.157,0.039,0.288,-5.337
0.145,0.040,0.289,-5.337
0.143,0.041,0.293,-5.337
0.115,0.042,0.296,-5.337
0.050,0.044,0.294,-5.337
-0.022,0.048,0.292,-5.337
-0.019,0.047,0.290,-5.337
0.037,0.045,0.292,-5.337
0.072,0.044,0.293,-5.337
0.059,0.046,0.292,-5.337
0.007,0.047,0.287,-5.337
0.004,0.043,0.285,-5.337
0.114,0.038,0.285,-5.337
0.172,0.038,0.288,-5.337
0.185,0.039,0.292,-5.337
0.136,0.040,0.295,-5.337
0.106,0.042,0.295,-5.337
0.081,0.043,0.296,-5.337
0.054,0.039,0.294,-5.337
0.084,0.038,0.292,-5.337
0.097,0.042,0.293,-5.337
-0.051,0.047,0.292,-5.337
-0.059,0.045,0.291,-5.337
0.046,0.044,0.291,-5.337
0.088,0.046,0.291,-5.337
-0.016,0.048,0.291,-5.337
0.025,0.042,0.292,-5.337
0.102,0.044,0.292,-5.337
0.105,0.046,0.293,-5.337
0.146,0.043,0.294,-5.337
0.154,0.042,0.291,-5.337
0.105,0.043,0.288,-5.337
0.099,0.043,0.288,-5.337
0.105,0.043,0.292,-5.337
0.123,0.039,0.295,-5.337
0.106,0.040,0.294,-5.337
0.113,0.045,0.294,-5.337
0.131,0.046,0.288,-5.337
0.077,0.048,0.286,-5.337
0.036,0.047,0.285,-5.337
0.041,0.049,0.285,-5.337
0.138,0.049,0.286,-5.337
0.129,0.049,0.291,-5.337
0.027,0.047,0.291,-5.337
0.035,0.040,0.289,-5.337
0.151,0.036,0.288,-5.337
0.175,0.039,0.288,-5.337
0.149,0.039,0.290,-5.337
0.100,0.038,0.292,-5.337
0.051,0.042,0.293,-5.337
0.085,0.045,0.296,-5.337
0.062,0.047,0.297,-5.337
0.099,0.047,0.293,-5.337
0.176,0.045,0.289,-5.337
0.144,0.045,0.290,-5.337
0.089,0.047,0.289,-5.337
0.100,0.048,0.288,-5.337
0.074,0.048,0.289,-5.337
0.075,0.048,0.286,-5.337
0.076,0.048,0.289,-5.337
0.128,0.044,0.292,-5.337
0.159,0.044,0.292,-5.337
0.112,0.046,0.289,-5.337
0.036,0.047,0.290,-5.337
0.044,0.046,0.291,-5.337
0.084,0.047,0.293,-5.337
0.150,0.046,0.289,-5.337
0.194,0.046,0.287,-5.337
0.149,0.046,0.288,-5.337
0.174,0.044,0.289,-5.337
0.174,0.044,0.291,-5.337
0.132,0.050,0.292,-5.337
0.067,0.048,0.292,-5.337
0.075,0.047,0.294,-5.337
0.100,0.046,0.294,-5.337
0.142,0.045,0.292,-5.337
0.131,0.048,0.291,-5.337
0.127,0.047,0.290,-5.337
0.117,0.047,0.292,-5.337
0.138,0.050,0.292,-5.337
0.046,0.052,0.289,-5.337
0.045,0.054,0.285,-5.337
0.091,0.049,0.289,-5.337
0.076,0.050,0.290,-5.337
0.113,0.050,0.290,-5.337
0.133,0.051,0.289,-5.337
0.155,0.050,0.290,-5.337
0.194,0.047,0.291,-5.337
0.165,0.048,0.294,-5.337
0.186,0.050,0.292,-5.337
0.250,0.048,0.290,-5.337
0.280,0.049,0.288,-5.337
0.221,0.048,0.287,-5.337
0.165,0.047,0.288,-5.337
0.087,0.047,0.291,-5.337
0.091,0.047,0.294,-5.337
0.143,0.047,0.293,-5.337
0.139,0.047,0.294,-5.337
0.127,0.046,0.294,-5.337
0.089,0.048,0.293,-5.337
0.097,0.049,0.292,-5.337
0.156,0.050,0.293,-5.337
0.160,0.053,0.293,-5.337
0.212,0.052,0.295,-5.337
0.174,0.053,0.294,-5.337
0.192,0.051,0.296,-5.337
0.138,0.054,0.296,-5.337
0.046,0.058,0.293,-5.337
0.053,0.056,0.289,-5.337
0.156,0.054,0.287,-5.337
0.167,0.053,0.287,-5.337
0.117,0.053,0.288,-5.337
0.145,0.054,0.288,-5.337
0.205,0.053,0.288,-5.337
0.186,0.051,0.289,-5.337
0.198,0.047,0.292,-5.337
0.219,0.048,0.296,-5.337
0.164,0.050,0.297,-5.337
0.105,0.051,0.298,-5.337
0.105,0.052,0.299,-5.337
0.113,0.051,0.292,-5.337
0.160,0.054,0.289,-5.337
0.152,0.056,0.291,-5.337
0.129,0.060,0.290,-5.337
0.126,0.060,0.292,-5.337
0.154,0.054,0.293,-5.337
0.236,0.052,0.297,-5.337
0.255,0.055,0.296,-5.337
0.207,0.056,0.294,-5.337
0.216,0.057,0.291,-5.337
0.191,0.060,0.289,-5.337
0.139,0.060,0.288,-5.337
0.167,0.060,0.292,-5.337
0.253,0.058,0.295,-5.337
0.384,0.054,0.294,-5.337
0.408,0.054,0.292,-5.337
0.323,0.055,0.294,-5.337
0.210,0.058,0.295,-5.337
0.163,0.057,0.295,-5.337
0.255,0.053,0.291,-5.337
0.232,0.052,0.293,-5.337
0.199,0.048,0.294,-5.337
0.200,0.051,0.292,-5.337
0.209,0.051,0.288,-5.337
0.142,0.053,0.288,-5.337
0.105,0.054,0.290,-5.337
0.069,0.056,0.291,-5.337
0.114,0.059,0.291,-5.337
0.171,0.060,0.290,-5.337
0.171,0.057,0.290,-5.337
0.195,0.056,0.285,-5.337
0.229,0.055,0.286,-5.337
0.250,0.058,0.287,-5.337
0.206,0.061,0.292,-5.337
0.248,0.058,0.294,-5.337
0.249,0.061,0.292,-5.337
0.176,0.061,0.291,-5.337
0.192,0.063,0.292,-5.337
0.300,0.057,0.292,-5.337
0.325,0.058,0.292,-5.337
0.331,0.056,0.291,-5.337
0.354,0.054,0.289,-5.337
0.346,0.054,0.287,-5.337
0.348,0.053,0.290,-5.337
0.382,0.052,0.292,-5.337
0.286,0.059,0.294,-5.337
0.167,0.062,0.295,-5.337
0.167,0.059,0.295,-5.337
0.244,0.057,0.292,-5.337
0.289,0.057,0.288,-5.337
0.312,0.060,0.287,-5.337
0.284,0.058,0.289,-5.337
0.269,0.054,0.292,-5.337
0.249,0.057,0.291,-5.337
0.270,0.059,0.290,-5.337
0.227,0.062,0.290,-5.337
0.168,0.058,0.290,-5.337
0.273,0.051,0.287,-5.337
0.283,0.055,0.287,-5.337
0.200,0.058,0.286,-5.337
0.186,0.063,0.286,-5.337
0.239,0.056,0.287,-5.337
0.346,0.050,0.290,-5.337
0.329,0.049,0.291,-5.337
0.321,0.048,0.292,-5.337
0.303,0.055,0.291,-5.337
0.294,0.057,0.289,-5.337
0.223,0.057,0.288,-5.337
0.182,0.055,0.287,-5.337
0.252,0.054,0.288,-5.337
0.261,0.060,0.290,-5.337
0.263,0.058,0.290,-5.337
0.290,0.053,0.286,-5.337
0.244,0.052,0.292,-5.337
0.213,0.052,0.295,-5.337
0.231,0.052,0.296,-5.337
0.228,0.045,0.292,-5.337
0.282,0.046,0.290,-5.337
0.319,0.046,0.291,-5.337
0.334,0.051,0.290,-5.337
0.256,0.055,0.291,-5.337
0.258,0.056,0.292,-5.337
0.285,0.054,0.292,-5.337
0.246,0.056,0.292,-5.337
0.260,0.055,0.292,-5.337
0.318,0.056,0.288,-5.337
0.301,0.058,0.285,-5.337
0.281,0.062,0.288,-5.337
0.222,0.065,0.290,-5.337
0.187,0.063,0.290,-5.337
0.255,0.059,0.292,-5.337
0.384,0.058,0.294,-5.337
0.430,0.059,0.294,-5.337
0.379,0.058,0.290,-5.337
0.347,0.062,0.291,-5.337
0.332,0.063,0.289,-5.337
0.364,0.060,0.292,-5.337
0.335,0.060,0.291,-5.337
0.218,0.064,0.291,-5.337
0.215,0.062,0.291,-5.337
0.340,0.059,0.290,-5.337
0.383,0.060,0.290,-5.337
0.301,0.061,0.292,-5.337
0.317,0.058,0.290,-5.337
0.323,0.057,0.291,-5.337
0.298,0.056,0.291,-5.337
0.298,0.058,0.293,-5.337
0.305,0.062,0.295,-5.337
0.337,0.060,0.296,-5.337
0.319,0.057,0.292,-5.337
0.206,0.053,0.287,-5.337
0.202,0.054,0.290,-5.337
0.220,0.060,0.294,-5.337
0.245,0.062,0.294,-5.337
0.332,0.058,0.290,-5.337
0.339,0.060,0.289,-5.337
0.275,0.059,0.290,-5.337
0.316,0.061,0.294,-5.337
0.370,0.056,0.292,-5.337
0.360,0.057,0.290,-5.337
0.327,0.058,0.291,-5.337
0.335,0.061,0.293,-5.337
0.336,0.059,0.292,-5.337
0.381,0.055,0.292,-5.337
0.387,0.057,0.291,-5.337
0.332,0.061,0.291,-5.337
0.366,0.058,0.291,-5.337
0.316,0.058,0.290,-5.337
0.279,0.059,0.289,-5.337
0.350,0.065,0.292,-5.337
0.303,0.066,0.293,-5.337
0.316,0.060,0.292,-5.337
0.355,0.058,0.287,-5.337
0.360,0.062,0.290,-5.337
0.314,0.066,0.295,-5.337
0.316,0.064,0.296,-5.337
0.375,0.062,0.297,-5.337
0.357,0.061,0.296,-5.337
0.290,0.062,0.297,-5.337
0.291,0.059,0.292,-5.337
0.329,0.061,0.289,-5.337
0.371,0.059,0.290,-5.337
0.390,0.060,0.292,-5.337
0.359,0.059,0.289,-5.337
0.365,0.059,0.289,-5.337
0.337,0.062,0.290,-5.337
0.328,0.063,0.290,-5.337
0.325,0.060,0.292,-5.337
0.292,0.059,0.291,-5.337
0.305,0.055,0.287,-5.337
0.389,0.057,0.285,-5.337
0.429,0.057,0.288,-5.337
0.403,0.057,0.294,-5.337
0.365,0.060,0.293,-5.337
0.348,0.055,0.290,-5.337
0.323,0.058,0.287,-5.337
0.302,0.061,0.286,-5.337
0.280,0.065,0.290,-5.337
0.250,0.063,0.294,-5.337
0.257,0.060,0.295,-5.337
0.306,0.055,0.290,-5.337
0.269,0.059,0.292,-5.337
0.258,0.062,0.293,-5.337
0.234,0.061,0.293,-5.337
0.266,0.060,0.291,-5.337
0.294,0.060,0.289,-5.337
0.324,0.060,0.289,-5.337
0.339,0.059,0.292,-5.337
0.385,0.057,0.293,-5.337
0.429,0.059,0.291,-5.337
0.484,0.056,0.290,-5.337
0.467,0.059,0.289,-5.337
0.430,0.057,0.291,-5.337
0.357,0.057,0.293,-5.337
0.318,0.061,0.290,-5.337
0.320,0.064,0.292,-5.337
0.287,0.065,0.293,-5.337
0.294,0.065,0.290,-5.337
0.283,0.062,0.290,-5.337
0.301,0.061,0.292,-5.337
0.284,0.063,0.293,-5.337
0.261,0.062,0.287,-5.337
0.235,0.062,0.284,-5.337
0.291,0.058,0.285,-5.337
0.331,0.057,0.291,-5.337
0.311,0.056,0.296,-5.337
0.328,0.060,0.298,-5.337
0.292,0.061,0.298,-5.337
0.295,0.059,0.295,-5.337
0.283,0.058,0.290,-5.337
0.205,0.063,0.286,-5.337
0.195,0.060,0.285,-5.337
0.274,0.054,0.287,-5.337
0.341,0.054,0.292,-5.337
0.361,0.057,0.296,-5.337
0.343,0.060,0.295,-5.337
0.161,0.063,0.293,-5.337
0.097,0.058,0.290,-5.337
0.162,0.055,0.291,-5.337
0.266,0.053,0.292,-5.337
0.279,0.052,0.290,-5.337
0.336,0.052,0.288,-5.337
0.336,0.050,0.289,-5.337
0.310,0.047,0.288,-5.337
0.219,0.048,0.284,-5.337
0.217,0.050,0.284,-5.337
0.245,0.053,0.286,-5.337
0.256,0.050,0.291,-5.337
0.324,0.048,0.293,-5.337
0.260,0.053,0.291,-5.337
0.222,0.054,0.289,-5.337
0.244,0.055,0.291,-5.337
0.279,0.052,0.292,-5.337
0.326,0.049,0.291,-5.337
0.400,0.050,0.290,-5.337
0.493,0.047,0.292,-5.337
0.365,0.049,0.292,-5.337
0.161,0.053,0.289,-5.337
0.208,0.054,0.285,-5.337
0.359,0.052,0.285,-5.337
0.293,0.054,0.292,-5.337
0.234,0.052,0.296,-5.337
0.268,0.053,0.296,-5.337
0.311,0.053,0.290,-5.337
0.279,0.053,0.291,-5.337
0.282,0.053,0.289,-5.337
0.249,0.053,0.292,-5.337
0.262,0.050,0.291,-5.337
0.271,0.052,0.292,-5.337
0.242,0.052,0.293,-5.337
0.255,0.047,0.296,-5.337
0.337,0.042,0.296,-5.337
0.284,0.047,0.290,-5.337
0.266,0.051,0.286,-5.337
0.211,0.054,0.287,-5.337
0.171,0.049,0.288,-5.337
0.220,0.048,0.289,-5.337
0.182,0.047,0.287,-5.337
0.218,0.045,0.287,-5.337
0.336,0.041,0.288,-5.337
0.322,0.043,0.289,-5.337
0.251,0.045,0.290,-5.337
0.239,0.047,0.292,-5.337
0.252,0.046,0.298,-5.337
0.281,0.045,0.302,-5.337
0.263,0.049,0.301,-5.337
0.237,0.048,0.296,-5.337
0.285,0.045,0.290,-5.337
0.245,0.047,0.286,-5.337
0.162,0.046,0.287,-5.337
0.200,0.045,0.291,-5.337
0.225,0.045,0.292,-5.337
0.211,0.044,0.291,-5.337
0.200,0.045,0.292,-5.337
0.282,0.040,0.297,-5.337
0.331,0.042,0.300,-5.337
0.235,0.045,0.298,-5.337
0.205,0.047,0.297,-5.337
0.200,0.047,0.295,-5.337
0.146,0.049,0.292,-5.337
0.165,0.049,0.288,-5.337
0.242,0.052,0.286,-5.337
0.245,0.054,0.288,-5.337
0.230,0.052,0.293,-5.337
0.228,0.050,0.298,-5.337
0.187,0.049,0.302,-5.337
0.170,0.050,0.302,-5.337
0.189,0.048,0.296,-5.337
0.244,0.046,0.290,-5.337
0.241,0.045,0.289,-5.337
0.205,0.046,0.296,-5.337
0.201,0.047,0.300,-5.337
0.283,0.047,0.296,-5.337
0.280,0.047,0.293,-5.337
0.309,0.041,0.297,-5.337
0.335,0.041,0.293,-5.337
0.288,0.045,0.291,-5.337
0.189,0.045,0.290,-5.337
0.072,0.050,0.294,-5.337
0.120,0.047,0.296,-5.337
0.212,0.044,0.297,-5.337
0.234,0.041,0.296,-5.337
0.107,0.047,0.293,-5.337
0.169,0.048,0.295,-5.337
0.250,0.045,0.293,-5.337
0.270,0.038,0.290,-5.337
0.265,0.037,0.293,-5.337
0.323,0.034,0.297,-5.337
0.284,0.041,0.297,-5.337
0.084,0.047,0.297,-5.337
0.009,0.045,0.294,-5.337
0.093,0.041,0.292,-5.337
0.147,0.042,0.292,-5.337
0.090,0.045,0.294,-5.337
0.090,0.047,0.291,-5.337
0.015,0.047,0.291,-5.337
-0.008,0.046,0.290,-5.337
0.063,0.047,0.289,-5.337
0.141,0.045,0.290,-5.337
0.152,0.046,0.294,-5.337
0.135,0.045,0.296,-5.337
0.195,0.047,0.295,-5.337
0.204,0.045,0.291,-5.337
0.133,0.047,0.289,-5.337
0.049,0.047,0.290,-5.337
0.096,0.043,0.291,-5.337
0.164,0.040,0.289,-5.337
0.179,0.042,0.290,-5.337
0.194,0.045,0.291,-5.337
0.166,0.049,0.289,-5.337
0.130,0.045,0.290,-5.337
0.117,0.041,0.291,-5.337
0.101,0.040,0.293,-5.337
0.113,0.040,0.293,-5.337
0.117,0.042,0.295,-5.337
0.099,0.041,0.295,-5.337
0.150,0.036,0.295,-5.337
0.137,0.037,0.290,-5.337
0.183,0.037,0.288,-5.337
0.202,0.037,0.288,-5.337
0.159,0.037,0.288,-5.337
0.142,0.035,0.290,-5.337
0.214,0.038,0.294,-5.337
0.196,0.042,0.297,-5.337
0.142,0.041,0.295,-5.337
0.099,0.040,0.289,-5.337
0.151,0.039,0.288,-5.337
0.212,0.037,0.289,-5.337
0.143,0.039,0.290,-5.337
0.150,0.040,0.287,-5.337
0.190,0.041,0.287,-5.337
0.182,0.040,0.291,-5.337
0.150,0.037,0.295,-5.337
0.136,0.036,0.298,-5.337
0.070,0.038,0.296,-5.337
0.069,0.037,0.295,-5.337
0.104,0.037,0.292,-5.337
0.167,0.039,0.292,-5.337
0.204,0.037,0.290,-5.337
0.105,0.042,0.287,-5.337
0.012,0.041,0.286,-5.337
0.035,0.040,0.290,-5.337
0.092,0.036,0.294,-5.337
0.190,0.035,0.294,-5.337
0.209,0.034,0.292,-5.337
0.121,0.037,0.292,-5.337
0.054,0.037,0.293,-5.337
0.106,0.033,0.293,-5.337
0.186,0.034,0.289,-5.337
0.183,0.036,0.289,-5.337
0.119,0.038,0.290,-5.337
0.055,0.039,0.290,-5.337
0.036,0.039,0.292,-5.337
0.077,0.040,0.293,-5.337
0.173,0.043,0.296,-5.337
0.155,0.042,0.292,-5.337
0.094,0.040,0.292,-5.337
0.074,0.041,0.291,-5.337
0.132,0.041,0.293,-5.337
0.157,0.039,0.297,-5.337
0.174,0.041,0.298,-5.337
0.080,0.042,0.291,-5.337
0.018,0.037,0.284,-5.337
0.013,0.035,0.286,-5.337
-0.017,0.039,0.290,-5.337
0.028,0.040,0.289,-5.337
0.037,0.036,0.290,-5.337
0.059,0.034,0.295,-5.337
0.092,0.035,0.297,-5.337
0.142,0.037,0.297,-5.337
0.157,0.037,0.296,-5.337
0.129,0.039,0.298,-5.337
0.123,0.038,0.296,-5.337
0.144,0.037,0.295,-5.337
0.160,0.039,0.294,-5.337
0.154,0.041,0.292,-5.337
0.093,0.041,0.288,-5.337
0.038,0.038,0.291,-5.337
0.038,0.038,0.293,-5.337
0.082,0.040,0.293,-5.337
0.113,0.040,0.292,-5.337
0.146,0.039,0.295,-5.337
0.148,0.041,0.295,-5.337
0.145,0.039,0.296,-5.337
0.165,0.038,0.291,-5.337
0.129,0.038,0.290,-5.337
0.117,0.040,0.291,-5.337
0.095,0.040,0.291,-5.337
0.083,0.037,0.292,-5.337
0.072,0.038,0.293,-5.337
0.094,0.038,0.290,-5.337
0.121,0.038,0.290,-5.337
0.145,0.040,0.292,-5.337
0.167,0.044,0.292,-5.337
0.152,0.042,0.289,-5.337
0.147,0.042,0.293,-5.337
0.102,0.042,0.295,-5.337
0.069,0.042,0.294,-5.337
0.118,0.039,0.293,-5.337
0.155,0.038,0.292,-5.337
0.153,0.042,0.297,-5.337
0.111,0.045,0.299,-5.337
0.032,0.043,0.297,-5.337
0.021,0.043,0.292,-5.337
0.038,0.042,0.289,-5.337
0.182,0.037,0.286,-5.337
0.193,0.036,0.290,-5.337
0.050,0.040,0.292,-5.337
-0.033,0.040,0.292,-5.337
-0.028,0.037,0.291,-5.337
0.063,0.037,0.293,-5.337
0.023,0.037,0.293,-5.337
0.068,0.037,0.294,-5.337
0.100,0.040,0.291,-5.337
0.087,0.041,0.290,-5.337
0.121,0.038,0.289,-5.337
0.201,0.038,0.290,-5.337
0.186,0.039,0.290,-5.337
0.112,0.042,0.290,-5.337
0.128,0.041,0.293,-5.337
0.126,0.038,0.295,-5.337
0.116,0.041,0.297,-5.337
0.137,0.039,0.294,-5.337
0.162,0.040,0.291,-5.337
0.183,0.042,0.288,-5.337
0.148,0.041,0.289,-5.337
0.112,0.040,0.290,-5.337
0.072,0.044,0.294,-5.337
0.066,0.047,0.294,-5.337
0.082,0.044,0.294,-5.337
0.077,0.043,0.294,-5.337
0.079,0.045,0.294,-5.337
0.017,0.042,0.291,-5.337
0.050,0.043,0.292,-5.337
0.111,0.045,0.293,-5.337
0.096,0.045,0.296,-5.337
0.029,0.046,0.295,-5.337
-0.001,0.042,0.292,-5.337
0.036,0.044,0.290,-5.337
0.108,0.044,0.289,-5.337
0.178,0.044,0.289,-5.337
0.168,0.045,0.289,-5.337
0.113,0.044,0.290,-5.337
0.076,0.043,0.291,-5.337
0.060,0.043,0.293,-5.337
0.095,0.044,0.291,-5.337
0.116,0.045,0.289,-5.337
0.143,0.041,0.288,-5.337
0.189,0.041,0.288,-5.337
0.158,0.040,0.288,-5.337
0.155,0.042,0.290,-5.337
0.149,0.046,0.290,-5.337
0.189,0.047,0.292,-5.337
0.150,0.046,0.295,-5.337
0.050,0.048,0.299,-5.337
0.031,0.044,0.300,-5.337
0.122,0.042,0.296,-5.337
0.113,0.043,0.291,-5.337
0.087,0.044,0.292,-5.337
0.074,0.045,0.287,-5.337
0.134,0.042,0.286,-5.337
0.202,0.041,0.287,-5.337
0.160,0.042,0.291,-5.337
0.114,0.043,0.294,-5.337
0.084,0.048,0.294,-5.337
0.151,0.047,0.293,-5.337
0.211,0.047,0.293,-5.337
0.154,0.050,0.293,-5.337
0.117,0.051,0.290,-5.337
0.132,0.053,0.287,-5.337
0.145,0.053,0.288,-5.337
0.125,0.053,0.292,-5.337
0.176,0.047,0.291,-5.337
0.218,0.048,0.287,-5.337
0.181,0.048,0.286,-5.337
0.087,0.053,0.290,-5.337
0.065,0.054,0.291,-5.337
0.152,0.052,0.290,-5.337
0.226,0.051,0.291,-5.337
0.136,0.056,0.292,-5.337
0.044,0.055,0.290,-5.337
0.138,0.050,0.289,-5.337
0.181,0.049,0.293,-5.337
0.180,0.050,0.294,-5.337
0.224,0.049,0.291,-5.337
0.182,0.050,0.289,-5.337
0.203,0.047,0.292,-5.337
0.227,0.045,0.295,-5.337
0.150,0.050,0.299,-5.337
0.153,0.049,0.298,-5.337
0.156,0.053,0.293,-5.337
0.126,0.054,0.290,-5.337
0.138,0.052,0.292,-5.337
0.062,0.052,0.291,-5.337
0.078,0.048,0.286,-5.337
0.197,0.046,0.286,-5.337
0.243,0.049,0.290,-5.337
0.115,0.051,0.293,-5.337
0.068,0.051,0.291,-5.337
0.159,0.046,0.288,-5.337
0.213,0.046,0.288,-5.337
0.289,0.045,0.290,-5.337
0.291,0.045,0.292,-5.337
0.155,0.047,0.289,-5.337
0.170,0.048,0.287,-5.337
0.245,0.051,0.288,-5.337
0.212,0.050,0.292,-5.337
0.185,0.049,0.293,-5.337
0.229,0.052,0.291,-5.337
0.239,0.053,0.292,-5.337
0.221,0.054,0.293,-5.337
0.206,0.055,0.296,-5.337
0.128,0.056,0.296,-5.337
0.113,0.056,0.297,-5.337
0.128,0.057,0.298,-5.337
0.175,0.058,0.294,-5.337
0.271,0.055,0.289,-5.337
0.277,0.055,0.288,-5.337
0.200,0.055,0.289,-5.337
0.246,0.056,0.293,-5.337
0.286,0.057,0.297,-5.337
0.217,0.058,0.294,-5.337
0.195,0.055,0.290,-5.337
0.227,0.054,0.288,-5.337
0.257,0.052,0.291,-5.337
0.278,0.053,0.295,-5.337
0.234,0.053,0.297,-5.337
0.170,0.053,0.299,-5.337
0.142,0.055,0.296,-5.337
0.233,0.056,0.290,-5.337
0.306,0.057,0.289,-5.337
0.266,0.056,0.289,-5.337
0.159,0.055,0.293,-5.337
0.152,0.054,0.292,-5.337
0.163,0.058,0.290,-5.337
0.265,0.058,0.291,-5.337
0.330,0.057,0.295,-5.337
0.280,0.059,0.299,-5.337
0.226,0.060,0.298,-5.337
0.248,0.057,0.293,-5.337
0.247,0.061,0.293,-5.337
0.284,0.062,0.297,-5.337
0.293,0.060,0.299,-5.337
0.268,0.058,0.297,-5.337
0.239,0.057,0.295,-5.337
0.219,0.058,0.293,-5.337
0.248,0.057,0.293,-5.337
0.159,0.061,0.296,-5.337
0.123,0.060,0.296,-5.337
0.170,0.056,0.295,-5.337
0.226,0.056,0.291,-5.337
0.253,0.059,0.292,-5.337
0.263,0.061,0.293,-5.337
0.296,0.062,0.296,-5.337
0.313,0.061,0.294,-5.337
0.258,0.060,0.293,-5.337
0.170,0.061,0.293,-5.337
0.178,0.060,0.296,-5.337
0.299,0.057,0.296,-5.337
0.314,0.063,0.295,-5.337
0.201,0.066,0.294,-5.337
0.153,0.066,0.293,-5.337
0.177,0.065,0.292,-5.337
0.238,0.058,0.290,-5.337
0.339,0.057,0.291,-5.337
0.312,0.064,0.293,-5.337
0.225,0.062,0.292,-5.337
0.256,0.059,0.291,-5.337
0.235,0.063,0.293,-5.337
0.175,0.065,0.294,-5.337
0.311,0.063,0.292,-5.337
0.384,0.060,0.290,-5.337
0.299,0.059,0.291,-5.337
0.283,0.055,0.290,-5.337
0.364,0.054,0.291,-5.337
0.299,0.061,0.294,-5.337
0.259,0.061,0.296,-5.337
0.221,0.060,0.293,-5.337
0.236,0.058,0.290,-5.337
0.280,0.059,0.289,-5.337
0.368,0.057,0.291,-5.337
0.354,0.058,0.287,-5.337
0.283,0.060,0.283,-5.337
0.274,0.063,0.287,-5.337
0.310,0.064,0.296,-5.337
0.415,0.056,0.298,-5.337
0.416,0.055,0.296,-5.337
0.307,0.059,0.290,-5.337
0.216,0.059,0.291,-5.337
0.187,0.061,0.293,-5.337
0.222,0.061,0.288,-5.337
0.298,0.061,0.287,-5.337
0.328,0.058,0.288,-5.337
0.303,0.058,0.291,-5.337
0.252,0.060,0.293,-5.337
0.239,0.060,0.291,-5.337
0.270,0.062,0.289,-5.337
0.329,0.063,0.293,-5.337
0.366,0.064,0.297,-5.337
0.351,0.064,0.294,-5.337
0.254,0.064,0.291,-5.337
0.238,0.064,0.291,-5.337
0.373,0.058,0.292,-5.337
0.376,0.061,0.294,-5.337
0.350,0.059,0.293,-5.337
0.422,0.055,0.293,-5.337
0.362,0.059,0.294,-5.337
0.324,0.060,0.293,-5.337
0.297,0.058,0.292,-5.337
0.271,0.059,0.289,-5.337
0.255,0.060,0.289,-5.337
0.295,0.059,0.290,-5.337
0.364,0.056,0.294,-5.337
0.356,0.057,0.295,-5.337
0.385,0.058,0.294,-5.337
0.431,0.059,0.293,-5.337
0.391,0.055,0.292,-5.337
0.384,0.056,0.288,-5.337
0.350,0.061,0.287,-5.337
0.338,0.060,0.288,-5.337
0.328,0.059,0.291,-5.337
0.337,0.060,0.290,-5.337
0.285,0.063,0.292,-5.337
0.224,0.061,0.291,-5.337
0.190,0.062,0.291,-5.337
0.254,0.060,0.290,-5.337
0.275,0.061,0.293,-5.337
0.252,0.057,0.296,-5.337
0.349,0.054,0.296,-5.337
0.381,0.057,0.294,-5.337
0.373,0.061,0.292,-5.337
0.322,0.064,0.292,-5.337
0.366,0.061,0.294,-5.337
0.397,0.059,0.294,-5.337
0.330,0.059,0.293,-5.337
0.326,0.060,0.292,-5.337
0.353,0.062,0.295,-5.337
0.292,0.061,0.299,-5.337
0.289,0.059,0.296,-5.337
0.266,0.061,0.296,-5.337
0.298,0.059,0.296,-5.337
0.364,0.059,0.297,-5.337
0.371,0.060,0.295,-5.337
0.392,0.061,0.292,-5.337
0.427,0.058,0.292,-5.337
0.384,0.061,0.296,-5.337
0.323,0.063,0.297,-5.337
0.306,0.065,0.294,-5.337
0.415,0.060,0.288,-5.337
0.438,0.066,0.288,-5.337
0.323,0.068,0.289,-5.337
0.334,0.060,0.293,-5.337
0.365,0.058,0.298,-5.337
0.294,0.059,0.297,-5.337
0.246,0.064,0.295,-5.337
0.273,0.063,0.294,-5.337
0.345,0.061,0.293,-5.337
0.400,0.062,0.295,-5.337
0.390,0.062,0.295,-5.337
0.301,0.063,0.293,-5.337
0.256,0.063,0.293,-5.337
0.321,0.063,0.295,-5.337
0.397,0.060,0.293,-5.337
0.449,0.057,0.292,-5.337
0.350,0.064,0.294,-5.337
0.285,0.063,0.293,-5.337
0.315,0.058,0.292,-5.337
0.399,0.056,0.288,-5.337
0.403,0.059,0.292,-5.337
0.250,0.061,0.293,-5.337
0.197,0.062,0.292,-5.337
0.310,0.055,0.290,-5.337
0.443,0.052,0.293,-5.337
0.401,0.055,0.294,-5.337
0.300,0.059,0.289,-5.337
0.307,0.059,0.286,-5.337
0.330,0.060,0.290,-5.337
0.303,0.059,0.294,-5.337
0.256,0.062,0.294,-5.337
0.293,0.060,0.293,-5.337
0.283,0.063,0.292,-5.337
0.219,0.061,0.290,-5.337
0.245,0.054,0.291,-5.337
0.276,0.052,0.292,-5.337
0.305,0.057,0.291,-5.337
0.292,0.062,0.289,-5.337
0.286,0.060,0.288,-5.337
0.292,0.056,0.292,-5.337
0.285,0.053,0.294,-5.337
0.306,0.053,0.300,-5.337
0.316,0.054,0.298,-5.337
0.266,0.059,0.294,-5.337
0.248,0.059,0.294,-5.337
0.305,0.056,0.295,-5.337
0.363,0.054,0.294,-5.337
0.380,0.055,0.294,-5.337
0.380,0.059,0.293,-5.337
0.304,0.061,0.291,-5.337
0.269,0.055,0.287,-5.337
0.308,0.055,0.285,-5.337
0.313,0.057,0.289,-5.337
0.364,0.053,0.293,-5.337
0.358,0.053,0.294,-5.337
0.355,0.052,0.293,-5.337
0.329,0.054,0.293,-5.337
0.332,0.052,0.293,-5.337
0.281,0.052,0.289,-5.337
0.253,0.055,0.287,-5.337
0.311,0.055,0.292,-5.337
0.350,0.052,0.294,-5.337
0.292,0.057,0.297,-5.337
0.195,0.055,0.295,-5.337
0.230,0.053,0.293,-5.337
0.317,0.053,0.292,-5.337
0.314,0.053,0.291,-5.337
0.338,0.050,0.292,-5.337
0.354,0.051,0.290,-5.337
0.313,0.055,0.289,-5.337
0.321,0.056,0.293,-5.337
0.215,0.057,0.297,-5.337
0.153,0.060,0.294,-5.337
0.194,0.058,0.291,-5.337
0.250,0.054,0.290,-5.337
0.259,0.051,0.289,-5.337
0.279,0.049,0.285,-5.337
0.266,0.048,0.288,-5.337
0.236,0.053,0.292,-5.337
0.205,0.055,0.297,-5.337
0.187,0.057,0.298,-5.337
0.182,0.057,0.298,-5.337
0.206,0.058,0.292,-5.337
0.235,0.056,0.288,-5.337
0.238,0.057,0.288,-5.337
0.250,0.054,0.291,-5.337
0.289,0.055,0.293,-5.337
0.242,0.055,0.292,-5.337
0.250,0.052,0.292,-5.337
0.268,0.050,0.292,-5.337
0.286,0.052,0.293,-5.337
0.285,0.052,0.294,-5.337
0.292,0.050,0.294,-5.337
0.255,0.052,0.290,-5.337
0.194,0.051,0.288,-5.337
0.215,0.048,0.293,-5.337
0.192,0.048,0.294,-5.337
0.192,0.048,0.291,-5.337
0.308,0.045,0.290,-5.337
0.384,0.045,0.291,-5.337
0.359,0.049,0.294,-5.337
0.289,0.054,0.292,-5.337
0.280,0.053,0.291,-5.337
0.280,0.049,0.290,-5.337
0.252,0.048,0.292,-5.337
0.197,0.049,0.291,-5.337
0.135,0.053,0.290,-5.337
0.154,0.053,0.292,-5.337
0.212,0.050,0.297,-5.337
0.147,0.047,0.301,-5.337
0.123,0.046,0.299,-5.337
0.227,0.046,0.293,-5.337
0.225,0.049,0.291,-5.337
0.178,0.045,0.286,-5.337
0.207,0.041,0.287,-5.337
0.280,0.040,0.287,-5.337
0.287,0.044,0.287,-5.337
0.233,0.047,0.289,-5.337
0.214,0.043,0.293,-5.337
0.212,0.041,0.294,-5.337
0.311,0.042,0.296,-5.337
0.302,0.046,0.299,-5.337
0.160,0.048,0.294,-5.337
0.129,0.049,0.291,-5.337
0.159,0.049,0.294,-5.337
0.161,0.049,0.295,-5.337
0.142,0.043,0.293,-5.337
0.167,0.045,0.293,-5.337
0.189,0.046,0.291,-5.337
0.141,0.048,0.291,-5.337
0.154,0.045,0.290,-5.337
0.237,0.048,0.289,-5.337
0.229,0.049,0.292,-5.337
0.164,0.048,0.296,-5.337
0.167,0.044,0.297,-5.337
0.096,0.047,0.292,-5.337
0.034,0.049,0.292,-5.337
0.074,0.048,0.294,-5.337
0.123,0.050,0.295,-5.337
0.111,0.051,0.294,-5.337
0.105,0.051,0.294,-5.337
0.102,0.049,0.295,-5.337
0.115,0.047,0.298,-5.337
0.168,0.045,0.294,-5.337
0.176,0.042,0.294,-5.337
0.180,0.043,0.297,-5.337
0.256,0.039,0.301,-5.337
0.280,0.039,0.297,-5.337
0.212,0.040,0.292,-5.337
0.235,0.035,0.289,-5.337
0.281,0.035,0.292,-5.337
0.221,0.037,0.291,-5.337
0.141,0.041,0.292,-5.337
0.152,0.036,0.295,-5.337
0.173,0.031,0.294,-5.337
0.200,0.032,0.291,-5.337
0.195,0.039,0.292,-5.337
0.175,0.038,0.294,-5.337
0.085,0.040,0.299,-5.337
0.094,0.036,0.298,-5.337
0.100,0.037,0.297,-5.337
0.117,0.040,0.297,-5.337
0.181,0.038,0.293,-5.337
0.265,0.037,0.292,-5.337
0.275,0.036,0.292,-5.337
0.226,0.039,0.297,-5.337
0.086,0.043,0.299,-5.337
0.073,0.042,0.294,-5.337
0.174,0.040,0.291,-5.337
0.248,0.036,0.294,-5.337
0.203,0.037,0.295,-5.337
0.120,0.042,0.295,-5.337
0.130,0.041,0.293,-5.337
0.137,0.044,0.295,-5.337
0.181,0.043,0.296,-5.337
0.188,0.040,0.295,-5.337
0.210,0.039,0.293,-5.337
0.171,0.042,0.296,-5.337
0.139,0.040,0.301,-5.337
0.106,0.041,0.303,-5.337
0.112,0.041,0.300,-5.337
0.099,0.039,0.294,-5.337
0.097,0.036,0.290,-5.337
0.113,0.041,0.291,-5.337
0.146,0.039,0.291,-5.337
0.166,0.038,0.291,-5.337
0.028,0.038,0.293,-5.337
0.019,0.034,0.295,-5.337
0.108,0.033,0.299,-5.337
0.108,0.033,0.297,-5.337
0.077,0.034,0.294,-5.337
0.130,0.034,0.297,-5.337
0.178,0.032,0.299,-5.337
0.129,0.035,0.294,-5.337
0.074,0.035,0.290,-5.337
0.100,0.038,0.291,-5.337
0.082,0.039,0.292,-5.337
0.090,0.034,0.292,-5.337
0.135,0.037,0.289,-5.337
0.130,0.041,0.288,-5.337
0.085,0.043,0.288,-5.337
0.151,0.041,0.291,-5.337
0.177,0.039,0.295,-5.337
0.110,0.040,0.294,-5.337
0.051,0.042,0.295,-5.337
0.011,0.041,0.293,-5.337
0.110,0.037,0.292,-5.337
0.117,0.042,0.291,-5.337
0.088,0.045,0.289,-5.337
0.065,0.044,0.290,-5.337
0.016,0.043,0.290,-5.337
0.016,0.049,0.295,-5.337
0.059,0.046,0.294,-5.337
0.014,0.044,0.292,-5.337
0.023,0.040,0.286,-5.337
0.118,0.038,0.288,-5.337
0.143,0.042,0.291,-5.337
0.055,0.042,0.292,-5.337
0.064,0.039,0.295,-5.337
0.125,0.036,0.297,-5.337
0.188,0.032,0.296,-5.337
0.198,0.036,0.294,-5.337
0.170,0.038,0.291,-5.337
0.214,0.036,0.292,-5.337
0.144,0.039,0.289,-5.337
0.008,0.038,0.290,-5.337
-0.041,0.038,0.289,-5.337
-0.013,0.039,0.293,-5.337
0.022,0.038,0.297,-5.337
0.063,0.036,0.297,-5.337
0.070,0.033,0.297,-5.337
0.038,0.033,0.296,-5.337
0.094,0.033,0.296,-5.337
0.213,0.031,0.293,-5.337
0.272,0.030,0.289,-5.337
0.287,0.033,0.289,-5.337
0.190,0.038,0.291,-5.337
0.132,0.039,0.290,-5.337
0.087,0.042,0.291,-5.337
0.072,0.043,0.293,-5.337
0.136,0.041,0.295,-5.337
0.126,0.040,0.297,-5.337
0.052,0.047,0.296,-5.337
0.061,0.047,0.295,-5.337
0.095,0.043,0.295,-5.337
0.163,0.041,0.294,-5.337
0.110,0.042,0.290,-5.337
0.084,0.042,0.287,-5.337
0.151,0.037,0.288,-5.337
0.168,0.035,0.292,-5.337
0.130,0.039,0.295,-5.337
0.112,0.039,0.297,-5.337
0.109,0.041,0.295,-5.337
0.162,0.040,0.294,-5.337
0.187,0.035,0.294,-5.337
0.114,0.038,0.296,-5.337
0.057,0.044,0.293,-5.337
0.158,0.046,0.290,-5.337
0.205,0.043,0.288,-5.337
0.161,0.040,0.292,-5.337
0.103,0.040,0.294,-5.337
0.169,0.042,0.297,-5.337
0.208,0.043,0.296,-5.337
0.020,0.045,0.292,-5.337
-0.062,0.044,0.294,-5.337
0.042,0.036,0.298,-5.337
0.038,0.039,0.299,-5.337
-0.024,0.040,0.296,-5.337
0.029,0.038,0.290,-5.337
0.021,0.039,0.293,-5.337
0.046,0.034,0.297,-5.337
0.141,0.031,0.300,-5.337
0.148,0.029,0.297,-5.337
0.056,0.033,0.292,-5.337
-0.039,0.035,0.289,-5.337
0.010,0.033,0.290,-5.337
0.103,0.034,0.292,-5.337
0.125,0.035,0.293,-5.337
0.130,0.035,0.297,-5.337
0.135,0.034,0.295,-5.337
0.128,0.032,0.292,-5.337
0.055,0.032,0.289,-5.337
0.085,0.032,0.292,-5.337
0.033,0.037,0.294,-5.337
0.007,0.038,0.296,-5.337
0.100,0.033,0.295,-5.337
0.090,0.035,0.295,-5.337
0.017,0.035,0.298,-5.337
0.102,0.035,0.297,-5.337
0.224,0.034,0.292,-5.337
0.213,0.035,0.290,-5.337
0.159,0.036,0.291,-5.337
0.105,0.042,0.295,-5.337
0.149,0.039,0.297,-5.337
0.189,0.040,0.294,-5.337
0.152,0.037,0.292,-5.337
0.113,0.038,0.292,-5.337
0.057,0.041,0.292,-5.337
0.023,0.041,0.291,-5.337
0.067,0.040,0.293,-5.337
0.090,0.041,0.296,-5.337
0.082,0.042,0.298,-5.337
0.024,0.043,0.299,-5.337
0.027,0.037,0.299,-5.337
0.092,0.037,0.294,-5.337
0.179,0.038,0.291,-5.337
0.144,0.038,0.285,-5.337
0.099,0.041,0.286,-5.337
0.055,0.044,0.289,-5.337
0.057,0.043,0.294,-5.337
0.103,0.042,0.297,-5.337
0.161,0.043,0.299,-5.337
0.125,0.042,0.298,-5.337
0.174,0.043,0.299,-5.337
0.221,0.045,0.296,-5.337
0.135,0.048,0.293,-5.337
0.056,0.046,0.294,-5.337
0.032,0.043,0.294,-5.337
0.049,0.043,0.293,-5.337
0.134,0.046,0.290,-5.337
0.092,0.046,0.289,-5.337
0.064,0.042,0.288,-5.337
0.100,0.040,0.291,-5.337
0.134,0.043,0.293,-5.337
0.100,0.042,0.296,-5.337
0.160,0.042,0.295,-5.337
0.239,0.041,0.293,-5.337
0.228,0.041,0.289,-5.337
0.147,0.043,0.288,-5.337
0.157,0.041,0.290,-5.337
0.206,0.040,0.295,-5.337
0.160,0.041,0.298,-5.337
0.153,0.045,0.298,-5.337
0.064,0.044,0.293,-5.337
0.061,0.042,0.291,-5.337
0.098,0.043,0.292,-5.337
0.156,0.043,0.294,-5.337
0.206,0.042,0.296,-5.337
0.185,0.045,0.296,-5.337
0.121,0.044,0.294,-5.337
0.136,0.043,0.293,-5.337
0.231,0.040,0.290,-5.337
0.207,0.041,0.290,-5.337
0.189,0.043,0.291,-5.337
0.115,0.049,0.290,-5.337
0.064,0.049,0.294,-5.337
0.149,0.047,0.293,-5.337
0.225,0.049,0.290,-5.337
0.239,0.051,0.291,-5.337
0.134,0.052,0.293,-5.337
0.178,0.050,0.295,-5.337
0.244,0.053,0.295,-5.337
0.211,0.056,0.293,-5.337
0.211,0.051,0.289,-5.337
0.271,0.047,0.292,-5.337
0.278,0.047,0.294,-5.337
0.212,0.048,0.291,-5.337
0.171,0.047,0.290,-5.337
0.155,0.049,0.291,-5.337
0.191,0.049,0.294,-5.337
0.221,0.048,0.294,-5.337
0.171,0.049,0.292,-5.337
0.110,0.051,0.291,-5.337
0.167,0.049,0.292,-5.337
0.248,0.047,0.302,-5.337
0.280,0.048,0.301,-5.337
0.278,0.046,0.294,-5.337
0.200,0.051,0.292,-5.337
0.129,0.052,0.293,-5.337
0.117,0.052,0.296,-5.337
0.123,0.048,0.298,-5.337
0.168,0.047,0.295,-5.337
0.126,0.049,0.287,-5.337
0.154,0.046,0.284,-5.337
0.271,0.049,0.290,-5.337
0.235,0.055,0.294,-5.337
0.177,0.056,0.295,-5.337
0.171,0.055,0.292,-5.337
0.233,0.051,0.290,-5.337
0.250,0.052,0.291,-5.337
0.215,0.051,0.294,-5.337
0.267,0.053,0.296,-5.337
0.271,0.057,0.296,-5.337
0.248,0.056,0.291,-5.337
0.274,0.053,0.287,-5.337
0.324,0.053,0.290,-5.337
0.333,0.054,0.295,-5.337
0.309,0.056,0.296,-5.337
0.262,0.056,0.295,-5.337
0.229,0.054,0.290,-5.337
0.205,0.056,0.289,-5.337
0.201,0.058,0.289,-5.337
0.213,0.055,0.286,-5.337
0.241,0.056,0.287,-5.337
0.236,0.054,0.288,-5.337
0.231,0.054,0.290,-5.337
0.251,0.053,0.295,-5.337
0.267,0.054,0.300,-5.337
0.297,0.053,0.300,-5.337
0.303,0.056,0.293,-5.337
0.261,0.058,0.289,-5.337
0.198,0.057,0.291,-5.337
0.184,0.059,0.297,-5.337
0.216,0.059,0.296,-5.337
0.272,0.057,0.294,-5.337
0.301,0.059,0.289,-5.337
0.300,0.057,0.293,-5.337
0.257,0.059,0.294,-5.337
0.199,0.062,0.299,-5.337
0.187,0.057,0.297,-5.337
0.284,0.055,0.293,-5.337
0.311,0.056,0.292,-5.337
0.258,0.056,0.296,-5.337
0.246,0.058,0.296,-5.337
0.230,0.061,0.294,-5.337
0.236,0.059,0.292,-5.337
0.241,0.061,0.293,-5.337
0.206,0.059,0.296,-5.337
0.214,0.059,0.298,-5.337
0.278,0.060,0.296,-5.337
0.315,0.060,0.295,-5.337
0.262,0.060,0.295,-5.337
0.224,0.062,0.295,-5.337
0.346,0.061,0.295,-5.337
0.367,0.061,0.296,-5.337
0.307,0.062,0.297,-5.337
0.275,0.062,0.295,-5.337
0.280,0.060,0.294,-5.337
0.374,0.057,0.297,-5.337
0.381,0.057,0.299,-5.337
0.335,0.062,0.295,-5.337
0.328,0.062,0.293,-5.337
0.327,0.063,0.295,-5.337
0.299,0.063,0.296,-5.337
0.302,0.062,0.294,-5.337
0.332,0.062,0.295,-5.337
0.267,0.060,0.293,-5.337
0.309,0.062,0.292,-5.337
0.284,0.065,0.290,-5.337
0.237,0.064,0.292,-5.337
0.220,0.064,0.296,-5.337
0.205,0.068,0.298,-5.337
0.227,0.067,0.298,-5.337
0.241,0.063,0.298,-5.337
0.206,0.061,0.293,-5.337
0.186,0.062,0.291,-5.337
0.229,0.064,0.294,-5.337
0.251,0.065,0.298,-5.337
0.242,0.063,0.300,-5.337
0.280,0.059,0.301,-5.337
0.323,0.059,0.300,-5.337
0.328,0.063,0.298,-5.337
0.292,0.065,0.300,-5.337
0.274,0.062,0.297,-5.337
0.331,0.062,0.295,-5.337
0.378,0.060,0.293,-5.337
0.353,0.064,0.295,-5.337
0.330,0.063,0.300,-5.337
0.329,0.062,0.301,-5.337
0.280,0.062,0.295,-5.337
0.327,0.061,0.294,-5.337
0.316,0.061,0.293,-5.337
0.278,0.065,0.289,-5.337
0.268,0.065,0.287,-5.337
0.292,0.065,0.291,-5.337
0.276,0.069,0.297,-5.337
0.239,0.069,0.299,-5.337
0.196,0.071,0.293,-5.337
0.193,0.073,0.287,-5.337
0.278,0.070,0.289,-5.337
0.334,0.069,0.291,-5.337
0.285,0.067,0.295,-5.337
0.282,0.069,0.300,-5.337
0.294,0.067,0.301,-5.337
0.265,0.067,0.298,-5.337
0.233,0.069,0.294,-5.337
0.289,0.070,0.290,-5.337
0.293,0.073,0.289,-5.337
0.290,0.069,0.289,-5.337
0.371,0.067,0.294,-5.337
0.424,0.064,0.297,-5.337
0.429,0.065,0.300,-5.337
0.500,0.063,0.298,-5.337
0.436,0.067,0.296,-5.337
0.330,0.071,0.296,-5.337
0.315,0.073,0.295,-5.337
0.338,0.071,0.294,-5.337
0.300,0.068,0.295,-5.337
0.290,0.069,0.297,-5.337
0.345,0.069,0.297,-5.337
0.408,0.068,0.293,-5.337
0.417,0.068,0.293,-5.337
0.368,0.069,0.292,-5.337
0.312,0.068,0.294,-5.337
0.348,0.065,0.294,-5.337
0.357,0.064,0.291,-5.337
0.274,0.067,0.289,-5.337
0.323,0.066,0.289,-5.337
0.361,0.066,0.296,-5.337
0.334,0.066,0.298,-5.337
0.319,0.068,0.296,-5.337
0.300,0.068,0.292,-5.337
0.290,0.068,0.290,-5.337
0.195,0.070,0.289,-5.337
0.170,0.070,0.290,-5.337
0.304,0.066,0.293,-5.337
0.420,0.063,0.295,-5.337
0.330,0.067,0.293,-5.337
0.233,0.068,0.292,-5.337
0.320,0.070,0.293,-5.337
0.339,0.070,0.296,-5.337
0.389,0.068,0.299,-5.337
0.424,0.066,0.299,-5.337
0.346,0.064,0.296,-5.337
0.346,0.065,0.294,-5.337
0.319,0.066,0.294,-5.337
0.345,0.063,0.292,-5.337
0.345,0.064,0.294,-5.337
0.339,0.064,0.295,-5.337
0.357,0.066,0.298,-5.337
0.305,0.067,0.297,-5.337
0.268,0.068,0.294,-5.337
0.329,0.068,0.289,-5.337
0.326,0.071,0.290,-5.337
0.207,0.068,0.294,-5.337
0.243,0.069,0.297,-5.337
0.302,0.071,0.298,-5.337
0.329,0.067,0.298,-5.337
0.286,0.067,0.295,-5.337
0.167,0.068,0.291,-5.337
0.191,0.067,0.291,-5.337
0.329,0.066,0.295,-5.337
0.273,0.064,0.298,-5.337
0.229,0.064,0.297,-5.337
0.320,0.063,0.295,-5.337
0.369,0.065,0.296,-5.337
0.306,0.064,0.299,-5.337
0.336,0.060,0.301,-5.337
0.413,0.062,0.298,-5.337
0.364,0.065,0.292,-5.337
0.309,0.062,0.290,-5.337
0.244,0.059,0.291,-5.337
0.178,0.062,0.294,-5.337
0.191,0.061,0.294,-5.337
0.277,0.061,0.298,-5.337
0.348,0.060,0.295,-5.337
0.364,0.062,0.293,-5.337
0.293,0.063,0.297,-5.337
0.270,0.064,0.300,-5.337
0.314,0.065,0.297,-5.337
0.332,0.062,0.290,-5.337
0.286,0.063,0.289,-5.337
0.288,0.059,0.294,-5.337
0.385,0.059,0.295,-5.337
0.380,0.060,0.295,-5.337
0.311,0.064,0.294,-5.337
0.250,0.065,0.292,-5.337
0.181,0.060,0.291,-5.337
0.205,0.057,0.293,-5.337
0.240,0.057,0.295,-5.337
0.293,0.056,0.294,-5.337
0.265,0.057,0.293,-5.337
0.242,0.056,0.291,-5.337
0.222,0.056,0.291,-5.337
0.219,0.056,0.289,-5.337
0.195,0.059,0.293,-5.337
0.196,0.058,0.298,-5.337
0.245,0.055,0.299,-5.337
0.259,0.055,0.299,-5.337
0.288,0.054,0.300,-5.337
0.321,0.055,0.301,-5.337
0.383,0.054,0.298,-5.337
0.310,0.054,0.293,-5.337
0.272,0.054,0.293,-5.337
0.318,0.056,0.292,-5.337
0.373,0.057,0.293,-5.337
0.383,0.055,0.292,-5.337
0.318,0.060,0.290,-5.337
0.292,0.063,0.288,-5.337
0.346,0.057,0.292,-5.337
0.373,0.056,0.296,-5.337
0.250,0.061,0.296,-5.337
0.146,0.064,0.298,-5.337
0.174,0.060,0.298,-5.337
0.212,0.058,0.294,-5.337
0.240,0.059,0.289,-5.337
0.270,0.061,0.293,-5.337
0.207,0.065,0.297,-5.337
0.119,0.065,0.297,-5.337
0.243,0.056,0.295,-5.337
0.333,0.055,0.294,-5.337
0.270,0.054,0.295,-5.337
0.293,0.052,0.292,-5.337
0.422,0.052,0.292,-5.337
0.381,0.055,0.291,-5.337
0.221,0.056,0.292,-5.337
0.199,0.055,0.295,-5.337
0.223,0.057,0.294,-5.337
0.234,0.059,0.291,-5.337
0.271,0.057,0.294,-5.337
0.291,0.053,0.296,-5.337
0.228,0.055,0.291,-5.337
0.189,0.054,0.291,-5.337
0.233,0.055,0.295,-5.337
0.212,0.055,0.300,-5.337
0.075,0.057,0.300,-5.337
0.115,0.056,0.292,-5.337
0.225,0.053,0.292,-5.337
0.218,0.052,0.296,-5.337
0.185,0.054,0.297,-5.337
0.188,0.052,0.294,-5.337
0.256,0.052,0.294,-5.337
0.248,0.055,0.295,-5.337
0.247,0.057,0.296,-5.337
0.267,0.054,0.296,-5.337
0.257,0.051,0.293,-5.337
0.235,0.048,0.288,-5.337
0.246,0.048,0.289,-5.337
0.186,0.049,0.296,-5.337
0.130,0.049,0.300,-5.337
0.136,0.048,0.297,-5.337
0.135,0.050,0.293,-5.337
0.170,0.049,0.288,-5.337
0.194,0.050,0.283,-5.337
0.196,0.047,0.287,-5.337
0.176,0.049,0.294,-5.337
0.177,0.048,0.302,-5.337
0.198,0.048,0.303,-5.337
0.230,0.048,0.300,-5.337
0.248,0.049,0.295,-5.337
0.228,0.048,0.293,-5.337
0.206,0.048,0.290,-5.337
0.274,0.049,0.287,-5.337
0.220,0.054,0.289,-5.337
0.178,0.051,0.289,-5.337
0.171,0.046,0.291,-5.337
0.223,0.048,0.293,-5.337
0.230,0.047,0.295,-5.337
0.262,0.047,0.296,-5.337
0.198,0.047,0.293,-5.337
0.123,0.047,0.295,-5.337
0.081,0.047,0.299,-5.337
0.067,0.044,0.298,-5.337
0.124,0.043,0.296,-5.337
0.162,0.048,0.297,-5.337
0.041,0.052,0.295,-5.337
0.009,0.051,0.289,-5.337
0.104,0.046,0.289,-5.337
0.148,0.048,0.291,-5.337
0.186,0.048,0.290,-5.337
0.246,0.043,0.287,-5.337
0.205,0.045,0.289,-5.337
0.133,0.046,0.295,-5.337
0.132,0.047,0.300,-5.337
0.081,0.047,0.302,-5.337
0.072,0.047,0.296,-5.337
0.192,0.045,0.292,-5.337
0.252,0.048,0.295,-5.337
0.219,0.045,0.294,-5.337
0.159,0.042,0.293,-5.337
0.124,0.042,0.292,-5.337
0.180,0.046,0.290,-5.337
0.240,0.046,0.290,-5.337
0.221,0.046,0.294,-5.337
0.195,0.048,0.298,-5.337
0.138,0.051,0.298,-5.337
0.173,0.049,0.292,-5.337
0.173,0.048,0.287,-5.337
0.144,0.050,0.289,-5.337
0.190,0.047,0.293,-5.337
0.153,0.049,0.295,-5.337
0.085,0.048,0.294,-5.337
0.081,0.053,0.295,-5.337
0.162,0.052,0.294,-5.337
0.155,0.050,0.295,-5.337
0.130,0.047,0.294,-5.337
0.231,0.044,0.294,-5.337
0.264,0.045,0.293,-5.337
0.198,0.050,0.293,-5.337
0.139,0.045,0.295,-5.337
0.086,0.044,0.298,-5.337
0.136,0.045,0.299,-5.337
0.144,0.047,0.299,-5.337
0.101,0.047,0.295,-5.337
0.077,0.049,0.292,-5.337
0.167,0.044,0.290,-5.337
0.188,0.045,0.295,-5.337
0.134,0.047,0.297,-5.337
0.178,0.045,0.297,-5.337
0.258,0.042,0.296,-5.337
0.250,0.042,0.292,-5.337
0.151,0.048,0.296,-5.337
0.066,0.050,0.300,-5.337
0.086,0.048,0.300,-5.337
0.104,0.046,0.297,-5.337
0.089,0.045,0.297,-5.337
0.071,0.045,0.294,-5.337
0.020,0.048,0.293,-5.337
0.018,0.047,0.297,-5.337
0.100,0.048,0.298,-5.337
0.099,0.047,0.297,-5.337
0.154,0.044,0.299,-5.337
0.214,0.047,0.302,-5.337
0.198,0.051,0.303,-5.337
0.180,0.046,0.301,-5.337
0.150,0.044,0.296,-5.337
0.100,0.045,0.290,-5.337
0.115,0.046,0.292,-5.337
0.150,0.046,0.297,-5.337
0.222,0.042,0.297,-5.337
0.275,0.045,0.296,-5.337
0.228,0.043,0.296,-5.337
0.188,0.043,0.297,-5.337
0.146,0.044,0.296,-5.337
0.095,0.045,0.299,-5.337
0.114,0.046,0.301,-5.337
0.151,0.044,0.298,-5.337
0.140,0.043,0.296,-5.337
0.154,0.043,0.300,-5.337
0.149,0.044,0.302,-5.337
0.092,0.047,0.300,-5.337
0.035,0.051,0.298,-5.337
-0.020,0.049,0.296,-5.337
-0.002,0.043,0.297,-5.337
0.010,0.047,0.297,-5.337
0.015,0.048,0.294,-5.337
0.017,0.048,0.294,-5.337
0.071,0.044,0.291,-5.337
0.160,0.043,0.292,-5.337
0.137,0.045,0.293,-5.337
0.085,0.046,0.292,-5.337
0.093,0.043,0.290,-5.337
0.127,0.044,0.291,-5.337
0.126,0.044,0.295,-5.337
0.108,0.042,0.296,-5.337
0.120,0.039,0.295,-5.337
0.153,0.041,0.295,-5.337
0.150,0.045,0.294,-5.337
0.145,0.043,0.293,-5.337
0.121,0.040,0.294,-5.337
0.106,0.040,0.292,-5.337
0.175,0.037,0.293,-5.337
0.199,0.035,0.295,-5.337
0.120,0.039,0.297,-5.337
0.100,0.039,0.297,-5.337
0.168,0.038,0.297,-5.337
0.169,0.039,0.300,-5.337
0.154,0.041,0.301,-5.337
0.110,0.044,0.296,-5.337
0.132,0.040,0.293,-5.337
0.101,0.040,0.292,-5.337
0.090,0.043,0.292,-5.337
0.056,0.043,0.291,-5.337
0.051,0.042,0.292,-5.337
0.044,0.041,0.293,-5.337
0.105,0.042,0.291,-5.337
0.106,0.044,0.289,-5.337
0.087,0.045,0.290,-5.337
0.010,0.045,0.292,-5.337
0.076,0.044,0.292,-5.337
0.106,0.048,0.292,-5.337
0.083,0.049,0.293,-5.337
0.046,0.045,0.295,-5.337
0.107,0.043,0.293,-5.337
0.123,0.042,0.292,-5.337
0.063,0.045,0.296,-5.337
-0.005,0.043,0.298,-5.337
0.003,0.038,0.297,-5.337
0.054,0.036,0.296,-5.337
0.104,0.035,0.292,-5.337
0.100,0.040,0.288,-5.337
0.128,0.038,0.289,-5.337
0.122,0.040,0.293,-5.337
0.058,0.042,0.290,-5.337
0.019,0.044,0.291,-5.337
0.050,0.044,0.295,-5.337
0.087,0.043,0.296,-5.337
0.170,0.043,0.293,-5.337
0.231,0.038,0.296,-5.337
0.151,0.038,0.297,-5.337
0.055,0.039,0.295,-5.337
0.001,0.043,0.293,-5.337
0.013,0.044,0.292,-5.337
0.029,0.045,0.295,-5.337
0.032,0.042,0.296,-5.337
0.115,0.042,0.294,-5.337
0.101,0.046,0.293,-5.337
0.064,0.048,0.296,-5.337
0.080,0.046,0.297,-5.337
0.084,0.045,0.294,-5.337
0.045,0.046,0.292,-5.337
0.057,0.045,0.291,-5.337
0.154,0.042,0.292,-5.337
0.158,0.045,0.296,-5.337
0.100,0.047,0.298,-5.337
0.100,0.047,0.298,-5.337
0.191,0.042,0.295,-5.337
0.217,0.043,0.296,-5.337
0.182,0.045,0.295,-5.337
0.117,0.045,0.292,-5.337
0.139,0.046,0.292,-5.337
0.091,0.049,0.294,-5.337
0.023,0.051,0.296,-5.337
0.052,0.048,0.297,-5.337
0.149,0.048,0.299,-5.337
0.183,0.049,0.297,-5.337
0.165,0.048,0.294,-5.337
0.191,0.045,0.294,-5.337
0.153,0.043,0.297,-5.337
0.127,0.043,0.296,-5.337
0.169,0.046,0.294,-5.337
0.249,0.045,0.295,-5.337
0.253,0.046,0.298,-5.337
0.225,0.042,0.298,-5.337
0.205,0.044,0.300,-5.337
0.144,0.050,0.299,-5.337
0.090,0.052,0.296,-5.337
0.142,0.049,0.292,-5.337
0.237,0.048,0.290,-5.337
0.230,0.051,0.290,-5.337
0.162,0.054,0.292,-5.337
0.133,0.050,0.296,-5.337
0.073,0.049,0.295,-5.337
0.140,0.046,0.289,-5.337
0.199,0.050,0.286,-5.337
0.146,0.052,0.291,-5.337
0.139,0.051,0.297,-5.337
0.173,0.047,0.298,-5.337
0.139,0.048,0.294,-5.337
0.098,0.049,0.296,-5.337
0.057,0.051,0.296,-5.337
0.079,0.050,0.297,-5.337
0.133,0.043,0.294,-5.337
0.210,0.043,0.294,-5.337
0.210,0.044,0.295,-5.337
0.233,0.041,0.297,-5.337
0.278,0.041,0.297,-5.337
0.200,0.044,0.299,-5.337
0.134,0.045,0.298,-5.337
0.187,0.042,0.292,-5.337
0.178,0.043,0.290,-5.337
0.095,0.046,0.290,-5.337
0.158,0.044,0.288,-5.337
0.254,0.049,0.289,-5.337
0.186,0.052,0.292,-5.337
0.098,0.049,0.296,-5.337
0.143,0.044,0.298,-5.337
0.225,0.044,0.298,-5.337
0.217,0.051,0.296,-5.337
0.168,0.054,0.293,-5.337
0.076,0.057,0.293,-5.337
0.148,0.056,0.292,-5.337
0.179,0.058,0.290,-5.337
0.171,0.054,0.289,-5.337
0.210,0.053,0.292,-5.337
0.246,0.049,0.293,-5.337
0.223,0.047,0.294,-5.337
0.185,0.047,0.295,-5.337
0.179,0.048,0.296,-5.337
0.213,0.046,0.299,-5.337
0.229,0.048,0.299,-5.337
0.245,0.047,0.297,-5.337
0.198,0.049,0.294,-5.337
0.124,0.052,0.292,-5.337
0.127,0.058,0.294,-5.337
0.168,0.053,0.298,-5.337
0.180,0.053,0.300,-5.337
0.122,0.053,0.299,-5.337
0.154,0.051,0.295,-5.337
0.228,0.051,0.295,-5.337
0.199,0.052,0.296,-5.337
0.228,0.047,0.297,-5.337
0.322,0.044,0.292,-5.337
0.293,0.047,0.290,-5.337
0.236,0.049,0.289,-5.337
0.268,0.048,0.291,-5.337
0.274,0.048,0.292,-5.337
0.185,0.052,0.293,-5.337
0.156,0.051,0.292,-5.337
0.198,0.049,0.293,-5.337
0.218,0.047,0.295,-5.337
0.240,0.047,0.295,-5.337
0.242,0.052,0.295,-5.337
0.262,0.053,0.293,-5.337
0.200,0.053,0.288,-5.337
0.163,0.053,0.287,-5.337
0.200,0.051,0.289,-5.337
0.307,0.050,0.294,-5.337
0.358,0.054,0.297,-5.337
0.378,0.055,0.297,-5.337
0.349,0.052,0.296,-5.337
0.217,0.053,0.292,-5.337
0.201,0.053,0.297,-5.337
0.222,0.057,0.299,-5.337
0.202,0.061,0.297,-5.337
0.252,0.054,0.295,-5.337
0.340,0.053,0.291,-5.337
0.232,0.057,0.287,-5.337
0.178,0.058,0.289,-5.337
0.200,0.056,0.292,-5.337
0.211,0.057,0.294,-5.337
0.242,0.056,0.295,-5.337
0.238,0.054,0.290,-5.337
0.312,0.057,0.287,-5.337
0.324,0.060,0.291,-5.337
0.251,0.064,0.296,-5.337
0.202,0.063,0.297,-5.337
0.298,0.057,0.296,-5.337
0.318,0.056,0.292,-5.337
0.247,0.056,0.290,-5.337
0.204,0.057,0.290,-5.337
0.185,0.059,0.294,-5.337
0.225,0.055,0.295,-5.337
0.310,0.054,0.295,-5.337
0.393,0.055,0.292,-5.337
0.394,0.056,0.290,-5.337
0.365,0.056,0.289,-5.337
0.333,0.056,0.292,-5.337
0.334,0.057,0.293,-5.337
0.317,0.058,0.291,-5.337
0.253,0.060,0.289,-5.337
0.219,0.065,0.291,-5.337
0.236,0.062,0.295,-5.337
0.179,0.067,0.296,-5.337
0.164,0.068,0.291,-5.337
0.182,0.066,0.287,-5.337
0.215,0.064,0.290,-5.337
0.316,0.057,0.294,-5.337
0.344,0.062,0.297,-5.337
0.336,0.064,0.294,-5.337
0.370,0.061,0.292,-5.337
0.337,0.063,0.294,-5.337
0.279,0.067,0.300,-5.337
0.317,0.064,0.299,-5.337
0.449,0.062,0.296,-5.337
0.453,0.062,0.292,-5.337
0.347,0.062,0.289,-5.337
0.332,0.060,0.287,-5.337
