[Parameters]
Operating Mode, Non-Feedback
Subject  AA..ZZ, WT
Session  0..99, 41
No. Trials (1..9999), 500
Mouse Number, 1
Pressure Probe Serial Port, \00\00\00\04COM4
Save additional csv file, TRUE
Save using mouse number, FALSE
A/D Monitor Rate (Hz), 30000.000000
A/D Stimulate Rate (Hz), 30000.000000
A/D input range (+/- V), 5
No. Channels to acquire (N), 2
Pre-Stim Acq. time (ms), 100.000000
Post-Stim Acq. time (ms), 900.000000
Analysis window parameters.M-response Start (ms), 1.100000
Analysis window parameters.M-response Duration (ms), 5.500000
Analysis window parameters.H-response Duration (ms), 6.000000
Analysis window parameters.H-response Start (ms), 6.500000
Feedback window, H response
Proportional gain, 0.100000
Target value, 6.700000
Feedback Ch., 1
Stim Channel to Control (1-4), 4
Trial, 9
Wait for EMG Conditions, FALSE
Channel to monitor (0 - N-1), 1
EMG Hi Limit, 2.000000
EMG Lo Limit, 0.001000
Inter-Stim delay (sec), 10.000000
EMG Monitor Mode, Mean
Time to run Long Stim.(sec), 30
Save Long Stim Data?, OFF
BURST Save time (ms), 1000
BURST Save Interval (x above), 10
Long-Stim. Rep. Rate (Hz), 10.000000
Stim type cluster array.<size(s)>, 4
Stim type cluster array 0.Stimulus Output, Electrical
Stim type cluster array 1.Stimulus Output, OFF
Stim type cluster array 2.Stimulus Output, OFF
Stim type cluster array 3.Stimulus Output, Motor Length
Stim specs cluster array.<size(s)>, 4
Stim specs cluster array 0.Initial Stimulus ampl., 0.300000
Stim specs cluster array 0.Maximum Stimulus, 1.120000
Stim specs cluster array 0.#Pulses in train, 3
Stim specs cluster array 0.Peak Level time (ms), 1.000000
Stim specs cluster array 0.Total pulse period (ms), 150.000000
Stim specs cluster array 0.Start Delay (ms), 0.000000
Stim specs cluster array 0.Pulse Shape, Square
Stim specs cluster array 0.Ramp/Rel. time (ms), 0.100000
Stim specs cluster array 0.Peak Amplitude (V), 0.120000
Stim specs cluster array 1.Initial Stimulus ampl., 0.000000
Stim specs cluster array 1.Maximum Stimulus, 0.000000
Stim specs cluster array 1.#Pulses in train, 3
Stim specs cluster array 1.Peak Level time (ms), 29.000000
Stim specs cluster array 1.Total pulse period (ms), 200.000000
Stim specs cluster array 1.Start Delay (ms), 0.000000
Stim specs cluster array 1.Pulse Shape, Square
Stim specs cluster array 1.Ramp/Rel. time (ms), 0.000000
Stim specs cluster array 1.Peak Amplitude (V), 2.000000
Stim specs cluster array 2.Initial Stimulus ampl., 0.000000
Stim specs cluster array 2.Maximum Stimulus, 0.000000
Stim specs cluster array 2.#Pulses in train, 1
Stim specs cluster array 2.Peak Level time (ms), 25.000000
Stim specs cluster array 2.Total pulse period (ms), 200.000000
Stim specs cluster array 2.Start Delay (ms), 0.000000
Stim specs cluster array 2.Pulse Shape, Square
Stim specs cluster array 2.Ramp/Rel. time (ms), 20.000000
Stim specs cluster array 2.Peak Amplitude (V), 10.000000
Stim specs cluster array 3.Initial Stimulus ampl., 0.000000
Stim specs cluster array 3.Maximum Stimulus, 0.000000
Stim specs cluster array 3.#Pulses in train, 25
Stim specs cluster array 3.Peak Level time (ms), 0.100000
Stim specs cluster array 3.Total pulse period (ms), 4.000000
Stim specs cluster array 3.Start Delay (ms), -5.000000
Stim specs cluster array 3.Pulse Shape, Triangle
Stim specs cluster array 3.Ramp/Rel. time (ms), 3.000000
Stim specs cluster array 3.Peak Amplitude (V), 0.500000
Force cal. (mN/Volt), 100.000000
Force Range (mN), 100.000000
Length cal. (mm/Volt), 10.000000
Length Range (mm), 10.000000
Stim. 1, 0.300000
Stim. 2, 0.000000
Stim. 3, 0.000000
Stim. 4, 0.000000
Monitor acquire time (ms), 100.000000
EMG graph Ymax, 0.100000
Travel limit (mm), 20.000000
Use Pressure Probe, FALSE
Pressure goal (g), 100
Speed (mm/sec), 5.000000
Dwell time (ms), 100.000000
Pressure limit (g), 500.000000
Channel amplitude offset, 0.000000

[DATA]

0.379,0.057,0.292,-5.337
0.393,0.056,0.292,-5.337
0.345,0.057,0.293,-5.337
0.339,0.056,0.298,-5.337
0.343,0.053,0.300,-5.337
0.365,0.056,0.296,-5.337
0.301,0.059,0.289,-5.337
0.265,0.057,0.288,-5.337
0.351,0.055,0.288,-5.337
0.305,0.055,0.289,-5.337
0.349,0.055,0.290,-5.337
0.396,0.059,0.295,-5.337
0.391,0.060,0.298,-5.337
0.338,0.060,0.296,-5.337
0.314,0.057,0.292,-5.337
0.343,0.051,0.290,-5.337
0.316,0.057,0.290,-5.337
0.248,0.056,0.289,-5.337
0.263,0.054,0.290,-5.337
0.306,0.055,0.293,-5.337
0.286,0.054,0.292,-5.337
0.272,0.054,0.288,-5.337
0.227,0.061,0.291,-5.337
0.161,0.061,0.292,-5.337
0.262,0.058,0.288,-5.337
0.345,0.056,0.285,-5.337
0.361,0.053,0.286,-5.337
0.377,0.051,0.291,-5.337
0.353,0.053,0.296,-5.337
0.312,0.057,0.296,-5.337
0.300,0.062,0.298,-5.337
0.327,0.061,0.295,-5.337
0.344,0.060,0.292,-5.337
0.329,0.057,0.289,-5.337
0.334,0.058,0.287,-5.337
0.323,0.059,0.289,-5.337
0.299,0.061,0.296,-5.337
0.314,0.058,0.297,-5.337
0.333,0.057,0.294,-5.337
0.324,0.058,0.289,-5.337
0.311,0.061,0.287,-5.337
0.296,0.062,0.286,-5.337
0.315,0.060,0.286,-5.337
0.334,0.057,0.288,-5.337
0.357,0.058,0.292,-5.337
0.331,0.059,0.291,-5.337
0.252,0.058,0.292,-5.337
0.284,0.057,0.292,-5.337
0.333,0.057,0.291,-5.337
0.359,0.060,0.290,-5.337
0.332,0.060,0.289,-5.337
0.299,0.061,0.287,-5.337
0.284,0.059,0.289,-5.337
0.344,0.057,0.295,-5.337
0.355,0.056,0.293,-5.337
0.298,0.057,0.290,-5.337
0.305,0.057,0.292,-5.337
0.305,0.057,0.295,-5.337
0.324,0.056,0.289,-5.337
0.283,0.057,0.286,-5.337
0.260,0.058,0.286,-5.337
0.325,0.053,0.291,-5.337
0.345,0.050,0.292,-5.337
0.325,0.050,0.292,-5.337
0.354,0.049,0.292,-5.337
0.294,0.061,0.291,-5.337
0.254,0.058,0.288,-5.337
0.339,0.050,0.288,-5.337
0.369,0.049,0.287,-5.337
0.291,0.050,0.288,-5.337
0.256,0.051,0.290,-5.337
0.353,0.052,0.289,-5.337
0.361,0.055,0.291,-5.337
0.319,0.055,0.293,-5.337
0.261,0.056,0.294,-5.337
0.288,0.055,0.292,-5.337
0.331,0.055,0.292,-5.337
0.330,0.056,0.292,-5.337
0.320,0.055,0.292,-5.337
0.330,0.049,0.289,-5.337
0.363,0.046,0.292,-5.337
0.344,0.045,0.294,-5.337
0.273,0.046,0.296,-5.337
0.264,0.045,0.293,-5.337
0.330,0.043,0.291,-5.337
0.363,0.048,0.293,-5.337
0.336,0.045,0.292,-5.337
0.331,0.044,0.291,-5.337
0.287,0.044,0.291,-5.337
0.228,0.047,0.291,-5.337
0.211,0.046,0.290,-5.337
0.228,0.042,0.289,-5.337
0.308,0.041,0.290,-5.337
0.380,0.040,0.293,-5.337
0.355,0.042,0.293,-5.337
0.331,0.044,0.291,-5.337
0.254,0.047,0.291,-5.337
0.197,0.049,0.293,-5.337
0.246,0.048,0.294,-5.337
0.266,0.051,0.294,-5.337
0.198,0.054,0.293,-5.337
0.175,0.052,0.292,-5.337
0.213,0.051,0.291,-5.337
0.271,0.051,0.294,-5.337
0.267,0.049,0.296,-5.337
0.325,0.046,0.292,-5.337
0.382,0.046,0.290,-5.337
0.355,0.050,0.288,-5.337
0.302,0.049,0.286,-5.337
0.252,0.047,0.287,-5.337
0.255,0.046,0.290,-5.337
0.272,0.047,0.296,-5.337
0.231,0.047,0.299,-5.337
0.172,0.046,0.294,-5.337
0.193,0.045,0.293,-5.337
0.225,0.046,0.294,-5.337
0.249,0.049,0.298,-5.337
0.351,0.045,0.294,-5.337
0.407,0.046,0.291,-5.337
0.335,0.048,0.288,-5.337
0.210,0.046,0.292,-5.337
0.179,0.043,0.292,-5.337
0.194,0.045,0.289,-5.337
0.226,0.046,0.292,-5.337
0.207,0.048,0.296,-5.337
0.177,0.044,0.296,-5.337
0.190,0.043,0.291,-5.337
0.190,0.043,0.290,-5.337
0.210,0.042,0.287,-5.337
0.262,0.046,0.285,-5.337
0.232,0.046,0.289,-5.337
0.191,0.042,0.292,-5.337
0.151,0.040,0.294,-5.337
0.189,0.039,0.297,-5.337
0.166,0.044,0.295,-5.337
0.147,0.044,0.291,-5.337
0.204,0.038,0.287,-5.337
0.234,0.039,0.289,-5.337
0.227,0.041,0.292,-5.337
0.211,0.042,0.295,-5.337
0.190,0.038,0.295,-5.337
0.155,0.041,0.292,-5.337
0.211,0.045,0.287,-5.337
0.283,0.042,0.288,-5.337
0.259,0.041,0.290,-5.337
0.286,0.037,0.290,-5.337
0.307,0.039,0.286,-5.337
0.253,0.042,0.287,-5.337
0.245,0.042,0.290,-5.337
0.225,0.040,0.292,-5.337
0.178,0.039,0.291,-5.337
0.183,0.042,0.290,-5.337
0.287,0.044,0.291,-5.337
0.285,0.046,0.293,-5.337
0.178,0.047,0.294,-5.337
0.072,0.047,0.292,-5.337
0.097,0.044,0.290,-5.337
0.143,0.039,0.292,-5.337
0.169,0.041,0.292,-5.337
0.125,0.044,0.290,-5.337
0.093,0.043,0.293,-5.337
0.076,0.045,0.289,-5.337
0.097,0.045,0.290,-5.337
0.136,0.043,0.286,-5.337
0.128,0.042,0.287,-5.337
0.173,0.038,0.291,-5.337
0.274,0.037,0.292,-5.337
0.287,0.036,0.292,-5.337
0.194,0.041,0.292,-5.337
0.206,0.038,0.294,-5.337
0.272,0.038,0.290,-5.337
0.247,0.044,0.287,-5.337
0.154,0.044,0.288,-5.337
0.126,0.041,0.289,-5.337
0.182,0.041,0.289,-5.337
0.160,0.040,0.290,-5.337
0.165,0.036,0.292,-5.337
0.208,0.032,0.290,-5.337
0.225,0.034,0.292,-5.337
0.186,0.037,0.292,-5.337
0.176,0.038,0.293,-5.337
0.194,0.039,0.295,-5.337
0.199,0.037,0.295,-5.337
0.158,0.036,0.295,-5.337
0.081,0.039,0.295,-5.337
0.084,0.038,0.296,-5.337
0.234,0.035,0.293,-5.337
0.194,0.039,0.292,-5.337
0.052,0.040,0.286,-5.337
0.102,0.037,0.284,-5.337
0.222,0.035,0.283,-5.337
0.220,0.038,0.288,-5.337
0.155,0.040,0.291,-5.337
0.169,0.037,0.294,-5.337
0.182,0.037,0.293,-5.337
0.195,0.037,0.290,-5.337
0.140,0.038,0.289,-5.337
0.088,0.041,0.287,-5.337
0.044,0.038,0.291,-5.337
0.071,0.036,0.293,-5.337
0.086,0.038,0.290,-5.337
0.054,0.040,0.291,-5.337
0.066,0.038,0.292,-5.337
0.108,0.031,0.291,-5.337
0.208,0.028,0.292,-5.337
0.205,0.033,0.294,-5.337
0.227,0.035,0.298,-5.337
0.256,0.034,0.297,-5.337
0.229,0.035,0.293,-5.337
0.192,0.036,0.292,-5.337
0.148,0.037,0.292,-5.337
0.209,0.036,0.291,-5.337
0.209,0.032,0.291,-5.337
0.175,0.034,0.291,-5.337
0.112,0.039,0.292,-5.337
0.080,0.040,0.293,-5.337
0.089,0.040,0.292,-5.337
0.168,0.036,0.292,-5.337
0.166,0.038,0.293,-5.337
0.155,0.038,0.294,-5.337
0.148,0.039,0.294,-5.337
0.107,0.038,0.291,-5.337
0.113,0.041,0.290,-5.337
0.143,0.040,0.293,-5.337
0.194,0.035,0.295,-5.337
0.193,0.035,0.295,-5.337
0.149,0.037,0.292,-5.337
0.078,0.038,0.288,-5.337
0.093,0.036,0.288,-5.337
0.081,0.039,0.288,-5.337
0.082,0.037,0.286,-5.337
0.079,0.036,0.290,-5.337
0.114,0.040,0.291,-5.337
0.090,0.041,0.293,-5.337
0.073,0.040,0.294,-5.337
0.091,0.036,0.294,-5.337
0.084,0.037,0.293,-5.337
0.038,0.037,0.292,-5.337
0.053,0.033,0.291,-5.337
0.051,0.034,0.292,-5.337
0.120,0.031,0.291,-5.337
0.124,0.033,0.292,-5.337
0.105,0.034,0.290,-5.337
0.103,0.033,0.289,-5.337
0.106,0.033,0.289,-5.337
0.150,0.032,0.290,-5.337
0.119,0.034,0.294,-5.337
-0.014,0.037,0.291,-5.337
-0.043,0.040,0.289,-5.337
0.078,0.037,0.289,-5.337
0.083,0.037,0.292,-5.337
-0.015,0.037,0.291,-5.337
-0.004,0.034,0.291,-5.337
-0.011,0.036,0.294,-5.337
0.039,0.034,0.296,-5.337
0.115,0.034,0.292,-5.337
0.091,0.037,0.289,-5.337
0.156,0.030,0.290,-5.337
0.240,0.029,0.289,-5.337
0.176,0.029,0.290,-5.337
0.122,0.029,0.294,-5.337
0.134,0.029,0.295,-5.337
0.107,0.034,0.295,-5.337
0.105,0.034,0.292,-5.337
0.155,0.031,0.287,-5.337
0.116,0.030,0.286,-5.337
0.061,0.029,0.286,-5.337
0.124,0.028,0.289,-5.337
0.153,0.028,0.289,-5.337
0.178,0.031,0.292,-5.337
0.153,0.032,0.295,-5.337
0.086,0.031,0.294,-5.337
0.069,0.030,0.291,-5.337
0.048,0.034,0.290,-5.337
0.115,0.032,0.289,-5.337
0.200,0.033,0.289,-5.337
0.167,0.033,0.289,-5.337
0.097,0.032,0.289,-5.337
0.104,0.031,0.290,-5.337
0.088,0.036,0.290,-5.337
0.061,0.037,0.290,-5.337
0.101,0.038,0.287,-5.337
0.086,0.037,0.288,-5.337
0.083,0.040,0.296,-5.337
0.145,0.037,0.296,-5.337
0.130,0.036,0.295,-5.337
0.056,0.036,0.292,-5.337
0.013,0.038,0.292,-5.337
0.005,0.038,0.292,-5.337
-0.003,0.039,0.290,-5.337
-0.003,0.038,0.292,-5.337
0.066,0.036,0.296,-5.337
0.078,0.033,0.300,-5.337
0.072,0.035,0.299,-5.337
0.054,0.038,0.293,-5.337
0.092,0.039,0.285,-5.337
0.082,0.039,0.284,-5.337
0.061,0.038,0.284,-5.337
-0.003,0.038,0.288,-5.337
0.072,0.036,0.289,-5.337
0.137,0.035,0.292,-5.337
0.107,0.036,0.293,-5.337
0.075,0.037,0.294,-5.337
0.078,0.034,0.292,-5.337
0.169,0.031,0.291,-5.337
0.222,0.031,0.290,-5.337
0.205,0.033,0.286,-5.337
0.145,0.036,0.287,-5.337
0.110,0.037,0.287,-5.337
0.113,0.036,0.288,-5.337
0.095,0.035,0.292,-5.337
-0.001,0.038,0.296,-5.337
-0.011,0.038,0.292,-5.337
0.002,0.039,0.288,-5.337
0.025,0.043,0.290,-5.337
0.028,0.044,0.292,-5.337
0.052,0.046,0.290,-5.337
0.084,0.044,0.296,-5.337
0.058,0.041,0.298,-5.337
0.117,0.038,0.294,-5.337
0.169,0.036,0.287,-5.337
0.190,0.038,0.288,-5.337
0.136,0.042,0.292,-5.337
0.101,0.042,0.295,-5.337
0.162,0.042,0.295,-5.337
0.175,0.041,0.291,-5.337
0.225,0.041,0.291,-5.337
0.153,0.039,0.294,-5.337
0.083,0.040,0.292,-5.337
0.075,0.042,0.289,-5.337
0.104,0.041,0.289,-5.337
0.087,0.042,0.289,-5.337
0.083,0.042,0.288,-5.337
0.144,0.044,0.286,-5.337
0.157,0.044,0.287,-5.337
0.101,0.042,0.290,-5.337
0.080,0.041,0.290,-5.337
0.099,0.040,0.288,-5.337
0.144,0.036,0.292,-5.337
0.111,0.037,0.297,-5.337
0.116,0.041,0.295,-5.337
0.082,0.044,0.288,-5.337
0.113,0.043,0.288,-5.337
0.122,0.039,0.289,-5.337
0.160,0.040,0.293,-5.337
0.201,0.041,0.292,-5.337
0.179,0.044,0.290,-5.337
0.091,0.046,0.292,-5.337
0.063,0.046,0.295,-5.337
0.141,0.044,0.295,-5.337
0.199,0.045,0.293,-5.337
0.154,0.050,0.292,-5.337
0.120,0.047,0.296,-5.337
0.142,0.046,0.293,-5.337
0.072,0.052,0.290,-5.337
0.028,0.048,0.289,-5.337
0.032,0.045,0.289,-5.337
0.092,0.041,0.287,-5.337
0.153,0.044,0.289,-5.337
0.149,0.050,0.290,-5.337
0.125,0.046,0.286,-5.337
0.139,0.042,0.289,-5.337
0.175,0.044,0.290,-5.337
0.188,0.045,0.290,-5.337
0.183,0.047,0.287,-5.337
0.208,0.043,0.289,-5.337
0.240,0.041,0.291,-5.337
0.229,0.044,0.295,-5.337
0.181,0.044,0.296,-5.337
0.167,0.045,0.293,-5.337
0.187,0.047,0.293,-5.337
0.118,0.048,0.293,-5.337
0.116,0.048,0.293,-5.337
0.181,0.052,0.297,-5.337
0.212,0.054,0.294,-5.337
0.175,0.054,0.289,-5.337
0.210,0.051,0.289,-5.337
0.181,0.049,0.290,-5.337
0.103,0.050,0.293,-5.337
0.120,0.051,0.291,-5.337
0.167,0.052,0.294,-5.337
0.147,0.050,0.295,-5.337
0.109,0.053,0.293,-5.337
0.096,0.056,0.291,-5.337
0.111,0.057,0.291,-5.337
0.185,0.055,0.288,-5.337
0.241,0.049,0.285,-5.337
0.223,0.049,0.280,-5.337
0.167,0.049,0.283,-5.337
0.235,0.046,0.288,-5.337
0.308,0.047,0.291,-5.337
0.309,0.048,0.293,-5.337
0.218,0.050,0.295,-5.337
0.216,0.054,0.294,-5.337
0.263,0.053,0.292,-5.337
0.208,0.053,0.288,-5.337
0.115,0.051,0.287,-5.337
0.142,0.049,0.290,-5.337
0.234,0.051,0.292,-5.337
0.233,0.050,0.288,-5.337
0.229,0.046,0.285,-5.337
0.214,0.048,0.289,-5.337
0.194,0.049,0.293,-5.337
0.196,0.052,0.292,-5.337
0.195,0.052,0.285,-5.337
0.225,0.048,0.283,-5.337
0.232,0.051,0.280,-5.337
0.224,0.053,0.279,-5.337
0.205,0.052,0.280,-5.337
0.179,0.051,0.284,-5.337
0.195,0.051,0.288,-5.337
0.239,0.049,0.288,-5.337
0.201,0.049,0.289,-5.337
0.138,0.052,0.289,-5.337
0.127,0.054,0.288,-5.337
0.174,0.053,0.284,-5.337
0.277,0.048,0.285,-5.337
0.275,0.047,0.286,-5.337
0.295,0.049,0.286,-5.337
0.296,0.050,0.284,-5.337
0.313,0.047,0.282,-5.337
0.288,0.049,0.282,-5.337
0.232,0.049,0.285,-5.337
0.209,0.049,0.287,-5.337
0.189,0.047,0.290,-5.337
0.253,0.046,0.285,-5.337
0.289,0.045,0.283,-5.337
0.313,0.047,0.286,-5.337
0.227,0.051,0.292,-5.337
0.194,0.054,0.294,-5.337
0.198,0.056,0.292,-5.337
0.162,0.058,0.289,-5.337
0.193,0.056,0.287,-5.337
0.292,0.056,0.286,-5.337
0.374,0.055,0.284,-5.337
0.346,0.054,0.283,-5.337
0.252,0.054,0.284,-5.337
0.185,0.056,0.283,-5.337
0.229,0.057,0.283,-5.337
0.259,0.059,0.284,-5.337
0.285,0.059,0.286,-5.337
0.258,0.056,0.286,-5.337
0.306,0.054,0.284,-5.337
0.342,0.053,0.288,-5.337
0.358,0.053,0.291,-5.337
0.309,0.053,0.290,-5.337
0.326,0.051,0.284,-5.337
0.349,0.051,0.279,-5.337
0.304,0.054,0.281,-5.337
0.217,0.055,0.286,-5.337
0.311,0.052,0.284,-5.337
0.335,0.055,0.285,-5.337
0.308,0.055,0.286,-5.337
0.337,0.054,0.289,-5.337
0.289,0.054,0.289,-5.337
0.192,0.058,0.286,-5.337
0.182,0.057,0.283,-5.337
0.223,0.055,0.285,-5.337
0.247,0.052,0.289,-5.337
0.313,0.048,0.290,-5.337
0.277,0.050,0.289,-5.337
0.225,0.054,0.290,-5.337
0.351,0.051,0.289,-5.337
0.381,0.053,0.286,-5.337
0.328,0.053,0.284,-5.337
0.230,0.056,0.285,-5.337
0.231,0.054,0.284,-5.337
0.290,0.052,0.284,-5.337
0.328,0.051,0.285,-5.337
0.342,0.055,0.288,-5.337
0.299,0.058,0.291,-5.337
0.271,0.059,0.290,-5.337
0.336,0.057,0.288,-5.337
0.392,0.054,0.284,-5.337
0.357,0.055,0.286,-5.337
0.355,0.054,0.285,-5.337
0.421,0.054,0.283,-5.337
0.362,0.057,0.284,-5.337
0.253,0.060,0.286,-5.337
0.236,0.058,0.289,-5.337
0.276,0.054,0.288,-5.337
0.265,0.056,0.287,-5.337
0.209,0.058,0.286,-5.337
0.283,0.056,0.284,-5.337
0.343,0.054,0.284,-5.337
0.350,0.056,0.287,-5.337
0.338,0.059,0.290,-5.337
0.310,0.060,0.291,-5.337
0.269,0.061,0.288,-5.337
0.258,0.065,0.289,-5.337
0.271,0.068,0.290,-5.337
0.297,0.066,0.288,-5.337
0.342,0.061,0.283,-5.337
0.344,0.059,0.283,-5.337
0.317,0.062,0.285,-5.337
0.334,0.060,0.287,-5.337
0.408,0.057,0.285,-5.337
0.381,0.060,0.287,-5.337
0.320,0.063,0.286,-5.337
0.279,0.063,0.286,-5.337
0.289,0.063,0.285,-5.337
0.322,0.059,0.286,-5.337
0.347,0.061,0.289,-5.337
0.293,0.062,0.291,-5.337
0.230,0.064,0.291,-5.337
0.257,0.061,0.290,-5.337
0.387,0.063,0.286,-5.337
0.408,0.066,0.282,-5.337
0.333,0.067,0.281,-5.337
0.274,0.066,0.284,-5.337
0.255,0.066,0.286,-5.337
0.376,0.062,0.286,-5.337
0.463,0.057,0.283,-5.337
0.378,0.061,0.281,-5.337
0.281,0.063,0.286,-5.337
0.292,0.062,0.287,-5.337
0.346,0.063,0.288,-5.337
0.326,0.066,0.287,-5.337
0.298,0.066,0.287,-5.337
0.310,0.062,0.286,-5.337
0.348,0.061,0.286,-5.337
0.386,0.064,0.285,-5.337
0.288,0.067,0.285,-5.337
0.231,0.067,0.289,-5.337
0.218,0.065,0.290,-5.337
0.286,0.059,0.288,-5.337
0.364,0.062,0.285,-5.337
0.346,0.066,0.285,-5.337
0.407,0.063,0.284,-5.337
0.462,0.059,0.280,-5.337
0.366,0.062,0.280,-5.337
0.303,0.063,0.286,-5.337
0.292,0.063,0.287,-5.337
0.329,0.062,0.286,-5.337
0.382,0.063,0.281,-5.337
0.437,0.064,0.282,-5.337
0.466,0.059,0.285,-5.337
0.380,0.060,0.289,-5.337
0.357,0.059,0.287,-5.337
0.351,0.065,0.288,-5.337
0.286,0.064,0.287,-5.337
0.242,0.060,0.282,-5.337
0.342,0.054,0.276,-5.337
0.390,0.056,0.280,-5.337
0.282,0.056,0.286,-5.337
0.270,0.055,0.287,-5.337
0.356,0.054,0.286,-5.337
0.386,0.056,0.286,-5.337
0.342,0.059,0.288,-5.337
0.336,0.061,0.287,-5.337
0.354,0.060,0.285,-5.337
0.370,0.059,0.284,-5.337
0.322,0.057,0.283,-5.337
0.306,0.060,0.283,-5.337
0.362,0.057,0.285,-5.337
0.290,0.061,0.290,-5.337
0.262,0.058,0.292,-5.337
0.361,0.058,0.289,-5.337
0.335,0.061,0.284,-5.337
0.252,0.060,0.282,-5.337
0.228,0.060,0.282,-5.337
0.314,0.057,0.280,-5.337
0.387,0.057,0.285,-5.337
0.380,0.058,0.286,-5.337
0.351,0.057,0.284,-5.337
0.302,0.055,0.283,-5.337
0.327,0.054,0.284,-5.337
0.349,0.054,0.282,-5.337
0.344,0.053,0.282,-5.337
0.344,0.053,0.286,-5.337
0.304,0.054,0.288,-5.337
0.263,0.054,0.284,-5.337
0.245,0.055,0.283,-5.337
0.279,0.055,0.287,-5.337
0.327,0.055,0.292,-5.337
0.281,0.055,0.292,-5.337
0.255,0.053,0.287,-5.337
0.282,0.056,0.285,-5.337
0.292,0.053,0.280,-5.337
0.301,0.049,0.277,-5.337
0.303,0.048,0.278,-5.337
0.312,0.047,0.283,-5.337
0.318,0.047,0.286,-5.337
0.304,0.047,0.288,-5.337
0.294,0.050,0.288,-5.337
0.276,0.048,0.290,-5.337
0.279,0.050,0.286,-5.337
0.277,0.054,0.283,-5.337
0.281,0.051,0.284,-5.337
0.306,0.050,0.287,-5.337
0.316,0.049,0.286,-5.337
0.349,0.051,0.286,-5.337
0.388,0.047,0.284,-5.337
0.375,0.049,0.281,-5.337
0.371,0.051,0.281,-5.337
0.330,0.052,0.286,-5.337
0.268,0.053,0.286,-5.337
0.243,0.057,0.284,-5.337
0.191,0.058,0.282,-5.337
0.192,0.054,0.282,-5.337
0.303,0.048,0.288,-5.337
0.360,0.047,0.288,-5.337
0.255,0.052,0.288,-5.337
0.134,0.055,0.286,-5.337
0.117,0.053,0.286,-5.337
0.165,0.051,0.281,-5.337
0.199,0.048,0.279,-5.337
0.220,0.047,0.279,-5.337
0.227,0.044,0.281,-5.337
0.261,0.043,0.281,-5.337
0.279,0.047,0.281,-5.337
0.281,0.049,0.282,-5.337
0.317,0.046,0.285,-5.337
0.235,0.050,0.287,-5.337
0.134,0.055,0.292,-5.337
0.182,0.051,0.291,-5.337
0.197,0.046,0.286,-5.337
0.237,0.046,0.283,-5.337
0.254,0.049,0.284,-5.337
0.258,0.046,0.284,-5.337
0.278,0.044,0.284,-5.337
0.292,0.044,0.284,-5.337
0.329,0.046,0.284,-5.337
0.377,0.045,0.288,-5.337
0.292,0.044,0.292,-5.337
0.256,0.047,0.295,-5.337
0.223,0.050,0.292,-5.337
0.182,0.050,0.293,-5.337
0.207,0.049,0.288,-5.337
0.230,0.050,0.286,-5.337
0.204,0.052,0.287,-5.337
0.203,0.049,0.284,-5.337
0.179,0.049,0.283,-5.337
0.192,0.047,0.289,-5.337
0.242,0.046,0.291,-5.337
0.243,0.048,0.287,-5.337
0.189,0.049,0.287,-5.337
0.139,0.050,0.290,-5.337
0.238,0.046,0.292,-5.337
0.260,0.050,0.292,-5.337
0.253,0.050,0.289,-5.337
0.262,0.047,0.284,-5.337
0.271,0.047,0.282,-5.337
0.269,0.043,0.279,-5.337
0.218,0.043,0.283,-5.337
0.122,0.045,0.290,-5.337
0.200,0.046,0.297,-5.337
0.231,0.047,0.294,-5.337
0.196,0.045,0.293,-5.337
0.182,0.043,0.293,-5.337
0.239,0.042,0.292,-5.337
0.339,0.040,0.286,-5.337
0.302,0.040,0.286,-5.337
0.219,0.040,0.286,-5.337
0.215,0.045,0.290,-5.337
0.271,0.046,0.292,-5.337
0.209,0.050,0.292,-5.337
0.093,0.049,0.291,-5.337
0.050,0.046,0.290,-5.337
0.071,0.042,0.285,-5.337
0.152,0.042,0.284,-5.337
0.223,0.043,0.286,-5.337
0.245,0.046,0.289,-5.337
0.171,0.046,0.290,-5.337
0.157,0.046,0.292,-5.337
0.146,0.046,0.290,-5.337
0.162,0.044,0.285,-5.337
0.223,0.045,0.283,-5.337
0.233,0.045,0.283,-5.337
0.243,0.043,0.284,-5.337
0.301,0.039,0.287,-5.337
0.225,0.043,0.290,-5.337
0.138,0.043,0.286,-5.337
0.167,0.043,0.284,-5.337
0.133,0.044,0.283,-5.337
0.095,0.043,0.290,-5.337
0.128,0.042,0.292,-5.337
0.146,0.043,0.292,-5.337
0.154,0.043,0.287,-5.337
0.192,0.045,0.284,-5.337
0.210,0.042,0.284,-5.337
0.196,0.041,0.285,-5.337
0.203,0.039,0.286,-5.337
0.275,0.042,0.282,-5.337
0.267,0.045,0.281,-5.337
0.227,0.042,0.284,-5.337
0.169,0.042,0.284,-5.337
0.095,0.042,0.284,-5.337
0.124,0.039,0.287,-5.337
0.163,0.041,0.290,-5.337
0.159,0.040,0.290,-5.337
0.162,0.041,0.287,-5.337
0.191,0.040,0.284,-5.337
0.235,0.041,0.284,-5.337
0.249,0.045,0.287,-5.337
0.205,0.043,0.289,-5.337
0.187,0.042,0.287,-5.337
0.131,0.042,0.284,-5.337
0.097,0.045,0.285,-5.337
0.135,0.040,0.287,-5.337
0.213,0.037,0.288,-5.337
0.167,0.038,0.291,-5.337
0.161,0.038,0.294,-5.337
0.153,0.041,0.290,-5.337
0.139,0.040,0.287,-5.337
0.057,0.037,0.286,-5.337
0.102,0.039,0.282,-5.337
0.094,0.045,0.277,-5.337
0.117,0.046,0.282,-5.337
0.081,0.045,0.288,-5.337
0.086,0.040,0.289,-5.337
0.129,0.040,0.283,-5.337
0.097,0.044,0.280,-5.337
0.102,0.043,0.283,-5.337
0.139,0.037,0.284,-5.337
0.128,0.040,0.285,-5.337
0.023,0.044,0.282,-5.337
0.022,0.044,0.285,-5.337
0.117,0.039,0.287,-5.337
0.180,0.040,0.284,-5.337
0.153,0.041,0.282,-5.337
0.100,0.041,0.283,-5.337
0.133,0.036,0.287,-5.337
0.271,0.034,0.290,-5.337
0.223,0.040,0.289,-5.337
0.066,0.042,0.289,-5.337
0.094,0.037,0.288,-5.337
0.167,0.039,0.286,-5.337
0.171,0.038,0.283,-5.337
0.173,0.040,0.284,-5.337
0.167,0.041,0.283,-5.337
0.159,0.042,0.282,-5.337
0.142,0.039,0.284,-5.337
0.083,0.041,0.288,-5.337
0.033,0.046,0.287,-5.337
0.007,0.043,0.285,-5.337
0.053,0.038,0.289,-5.337
0.082,0.038,0.292,-5.337
0.129,0.040,0.298,-5.337
0.117,0.043,0.294,-5.337
0.055,0.046,0.287,-5.337
0.030,0.045,0.286,-5.337
0.114,0.042,0.288,-5.337
0.179,0.039,0.285,-5.337
0.112,0.040,0.282,-5.337
0.044,0.040,0.284,-5.337
0.153,0.037,0.290,-5.337
0.182,0.038,0.293,-5.337
0.176,0.036,0.292,-5.337
0.151,0.036,0.284,-5.337
0.169,0.038,0.280,-5.337
0.148,0.037,0.279,-5.337
0.122,0.036,0.283,-5.337
0.087,0.036,0.287,-5.337
0.079,0.039,0.286,-5.337
0.097,0.039,0.286,-5.337
0.120,0.038,0.290,-5.337
0.076,0.038,0.293,-5.337
0.097,0.037,0.292,-5.337
0.122,0.035,0.287,-5.337
0.116,0.034,0.284,-5.337
0.119,0.035,0.286,-5.337
0.026,0.037,0.287,-5.337
0.027,0.034,0.289,-5.337
0.139,0.030,0.289,-5.337
0.129,0.033,0.285,-5.337
0.024,0.036,0.283,-5.337
-0.021,0.036,0.282,-5.337
0.050,0.034,0.284,-5.337
0.094,0.035,0.290,-5.337
0.087,0.034,0.293,-5.337
0.072,0.037,0.291,-5.337
0.071,0.038,0.286,-5.337
0.051,0.037,0.286,-5.337
0.066,0.039,0.288,-5.337
0.069,0.036,0.289,-5.337
0.087,0.038,0.290,-5.337
0.150,0.039,0.288,-5.337
0.180,0.036,0.287,-5.337
0.139,0.036,0.288,-5.337
0.130,0.036,0.289,-5.337
0.144,0.039,0.289,-5.337
0.099,0.042,0.288,-5.337
-0.000,0.042,0.281,-5.337
0.024,0.039,0.277,-5.337
0.115,0.037,0.282,-5.337
0.149,0.037,0.290,-5.337
0.108,0.033,0.291,-5.337
0.117,0.029,0.292,-5.337
0.152,0.031,0.293,-5.337
0.042,0.035,0.294,-5.337
0.042,0.032,0.290,-5.337
0.150,0.030,0.283,-5.337
0.122,0.031,0.281,-5.337
0.070,0.033,0.285,-5.337
0.138,0.033,0.288,-5.337
0.180,0.030,0.287,-5.337
0.160,0.035,0.283,-5.337
0.103,0.037,0.281,-5.337
0.128,0.038,0.284,-5.337
0.138,0.034,0.287,-5.337
0.112,0.030,0.286,-5.337
0.130,0.031,0.285,-5.337
0.066,0.034,0.284,-5.337
-0.012,0.036,0.285,-5.337
0.071,0.033,0.287,-5.337
0.155,0.031,0.287,-5.337
0.170,0.036,0.288,-5.337
0.131,0.038,0.287,-5.337
0.129,0.039,0.283,-5.337
0.275,0.037,0.280,-5.337
0.262,0.039,0.287,-5.337
0.063,0.038,0.293,-5.337
0.027,0.036,0.293,-5.337
0.052,0.036,0.287,-5.337
0.068,0.040,0.285,-5.337
0.057,0.041,0.287,-5.337
0.077,0.040,0.288,-5.337
0.077,0.039,0.285,-5.337
0.076,0.038,0.285,-5.337
0.136,0.038,0.285,-5.337
0.091,0.043,0.285,-5.337
0.141,0.038,0.287,-5.337
0.122,0.038,0.286,-5.337
0.088,0.044,0.287,-5.337
0.049,0.045,0.286,-5.337
0.075,0.043,0.287,-5.337
0.018,0.045,0.288,-5.337
0.050,0.046,0.291,-5.337
0.091,0.047,0.288,-5.337
0.134,0.045,0.288,-5.337
0.163,0.039,0.285,-5.337
0.169,0.041,0.284,-5.337
0.096,0.044,0.288,-5.337
0.058,0.047,0.289,-5.337
0.111,0.044,0.284,-5.337
0.147,0.042,0.283,-5.337
0.136,0.041,0.285,-5.337
0.087,0.046,0.289,-5.337
0.052,0.045,0.286,-5.337
0.117,0.043,0.282,-5.337
0.142,0.044,0.284,-5.337
0.131,0.045,0.289,-5.337
0.106,0.045,0.291,-5.337
0.062,0.043,0.288,-5.337
0.150,0.039,0.287,-5.337
0.220,0.036,0.283,-5.337
0.321,0.035,0.285,-5.337
0.284,0.037,0.284,-5.337
0.199,0.038,0.284,-5.337
0.200,0.040,0.282,-5.337
0.255,0.039,0.285,-5.337
0.250,0.039,0.286,-5.337
0.180,0.045,0.287,-5.337
0.067,0.050,0.286,-5.337
0.080,0.048,0.285,-5.337
0.160,0.045,0.286,-5.337
0.179,0.045,0.289,-5.337
0.138,0.047,0.291,-5.337
0.117,0.049,0.295,-5.337
0.168,0.047,0.294,-5.337
0.169,0.045,0.291,-5.337
0.165,0.043,0.284,-5.337
0.087,0.045,0.284,-5.337
0.051,0.042,0.284,-5.337
0.146,0.043,0.282,-5.337
0.198,0.046,0.282,-5.337
0.235,0.044,0.282,-5.337
0.225,0.045,0.284,-5.337
0.188,0.046,0.283,-5.337
0.141,0.049,0.285,-5.337
0.149,0.047,0.284,-5.337
0.166,0.044,0.286,-5.337
0.217,0.043,0.282,-5.337
0.192,0.046,0.282,-5.337
0.190,0.047,0.282,-5.337
0.181,0.046,0.283,-5.337
0.167,0.044,0.284,-5.337
0.122,0.046,0.286,-5.337
0.080,0.049,0.287,-5.337
0.195,0.046,0.291,-5.337
0.278,0.040,0.292,-5.337
0.301,0.042,0.292,-5.337
0.319,0.043,0.291,-5.337
0.264,0.047,0.288,-5.337
0.110,0.050,0.284,-5.337
0.157,0.047,0.283,-5.337
0.207,0.051,0.284,-5.337
0.197,0.052,0.286,-5.337
0.227,0.052,0.286,-5.337
0.143,0.048,0.283,-5.337
0.054,0.051,0.285,-5.337
0.024,0.049,0.287,-5.337
0.172,0.049,0.288,-5.337
0.297,0.048,0.287,-5.337
0.272,0.048,0.287,-5.337
0.208,0.047,0.285,-5.337
0.222,0.046,0.284,-5.337
0.257,0.046,0.284,-5.337
0.209,0.047,0.290,-5.337
0.181,0.048,0.293,-5.337
0.172,0.048,0.292,-5.337
0.228,0.043,0.286,-5.337
0.280,0.044,0.284,-5.337
0.227,0.047,0.286,-5.337
0.250,0.048,0.289,-5.337
0.321,0.049,0.289,-5.337
0.352,0.050,0.287,-5.337
0.300,0.048,0.287,-5.337
0.237,0.046,0.288,-5.337
0.264,0.050,0.289,-5.337
0.295,0.052,0.289,-5.337
0.260,0.051,0.293,-5.337
0.189,0.054,0.289,-5.337
0.100,0.056,0.285,-5.337
0.163,0.054,0.282,-5.337
0.267,0.050,0.288,-5.337
0.285,0.048,0.292,-5.337
0.223,0.052,0.294,-5.337
0.218,0.052,0.288,-5.337
0.264,0.049,0.284,-5.337
0.323,0.046,0.285,-5.337
0.297,0.049,0.288,-5.337
0.238,0.051,0.287,-5.337
0.166,0.050,0.287,-5.337
0.252,0.048,0.288,-5.337
0.345,0.053,0.288,-5.337
0.244,0.058,0.286,-5.337
0.137,0.059,0.286,-5.337
0.160,0.057,0.285,-5.337
0.255,0.054,0.284,-5.337
0.288,0.053,0.287,-5.337
0.265,0.053,0.287,-5.337
0.256,0.054,0.290,-5.337
0.254,0.054,0.292,-5.337
0.254,0.053,0.291,-5.337
0.266,0.048,0.284,-5.337
0.303,0.051,0.282,-5.337
0.310,0.052,0.285,-5.337
0.377,0.050,0.289,-5.337
0.432,0.049,0.289,-5.337
0.444,0.050,0.286,-5.337
0.399,0.055,0.283,-5.337
0.367,0.056,0.286,-5.337
0.389,0.049,0.289,-5.337
0.367,0.052,0.290,-5.337
0.380,0.055,0.287,-5.337
0.329,0.054,0.286,-5.337
0.265,0.056,0.284,-5.337
0.194,0.057,0.287,-5.337
0.170,0.056,0.289,-5.337
0.204,0.056,0.287,-5.337
0.215,0.060,0.286,-5.337
0.227,0.062,0.286,-5.337
0.347,0.056,0.285,-5.337
0.367,0.054,0.284,-5.337
0.294,0.054,0.285,-5.337
0.257,0.055,0.285,-5.337
0.254,0.057,0.284,-5.337
0.328,0.056,0.281,-5.337
0.334,0.056,0.282,-5.337
0.322,0.059,0.280,-5.337
0.291,0.064,0.284,-5.337
0.234,0.065,0.286,-5.337
0.226,0.060,0.284,-5.337
0.282,0.059,0.285,-5.337
0.276,0.059,0.282,-5.337
0.316,0.056,0.282,-5.337
0.370,0.060,0.283,-5.337
0.278,0.063,0.284,-5.337
0.206,0.061,0.287,-5.337
0.210,0.057,0.286,-5.337
0.249,0.057,0.287,-5.337
0.241,0.059,0.286,-5.337
0.284,0.059,0.287,-5.337
0.359,0.056,0.286,-5.337
0.345,0.059,0.282,-5.337
0.307,0.065,0.284,-5.337
0.318,0.060,0.285,-5.337
0.411,0.059,0.285,-5.337
0.418,0.061,0.284,-5.337
0.319,0.067,0.288,-5.337
0.205,0.067,0.287,-5.337
0.256,0.060,0.285,-5.337
0.302,0.062,0.281,-5.337
0.275,0.066,0.280,-5.337
0.274,0.064,0.278,-5.337
0.327,0.065,0.281,-5.337
0.312,0.065,0.284,-5.337
0.312,0.063,0.287,-5.337
0.295,0.062,0.292,-5.337
0.255,0.063,0.289,-5.337
0.262,0.062,0.283,-5.337
0.299,0.063,0.284,-5.337
0.366,0.060,0.285,-5.337
0.361,0.058,0.284,-5.337
0.367,0.056,0.284,-5.337
0.415,0.061,0.287,-5.337
0.430,0.060,0.288,-5.337
0.372,0.058,0.288,-5.337
0.296,0.059,0.289,-5.337
0.268,0.062,0.285,-5.337
0.238,0.064,0.287,-5.337
0.226,0.060,0.287,-5.337
0.306,0.057,0.285,-5.337
0.300,0.059,0.281,-5.337
0.328,0.061,0.282,-5.337
0.299,0.060,0.283,-5.337
0.231,0.063,0.285,-5.337
0.336,0.059,0.288,-5.337
0.390,0.060,0.287,-5.337
0.385,0.058,0.284,-5.337
0.321,0.059,0.283,-5.337
0.244,0.059,0.280,-5.337
0.221,0.061,0.282,-5.337
0.226,0.063,0.283,-5.337
0.257,0.060,0.286,-5.337
0.330,0.057,0.284,-5.337
0.332,0.059,0.287,-5.337
0.296,0.058,0.290,-5.337
0.289,0.061,0.291,-5.337
0.258,0.061,0.289,-5.337
0.254,0.061,0.289,-5.337
0.275,0.062,0.288,-5.337
0.280,0.064,0.286,-5.337
0.290,0.059,0.286,-5.337
0.327,0.056,0.282,-5.337
0.309,0.058,0.283,-5.337
0.296,0.062,0.286,-5.337
0.302,0.060,0.288,-5.337
0.361,0.062,0.285,-5.337
0.364,0.063,0.285,-5.337
0.376,0.060,0.288,-5.337
0.357,0.064,0.289,-5.337
0.290,0.067,0.289,-5.337
0.318,0.064,0.289,-5.337
0.395,0.061,0.289,-5.337
0.417,0.063,0.289,-5.337
0.379,0.065,0.285,-5.337
0.355,0.069,0.286,-5.337
0.275,0.069,0.286,-5.337
0.331,0.065,0.284,-5.337
0.410,0.065,0.281,-5.337
0.372,0.065,0.284,-5.337
0.318,0.069,0.289,-5.337
0.246,0.070,0.286,-5.337
0.308,0.067,0.280,-5.337
0.320,0.065,0.280,-5.337
0.305,0.068,0.287,-5.337
0.267,0.067,0.284,-5.337
0.223,0.068,0.283,-5.337
0.239,0.066,0.283,-5.337
0.339,0.062,0.284,-5.337
0.440,0.060,0.286,-5.337
0.416,0.059,0.287,-5.337
0.315,0.060,0.288,-5.337
0.262,0.061,0.288,-5.337
0.267,0.061,0.287,-5.337
0.297,0.059,0.288,-5.337
0.294,0.062,0.287,-5.337
0.284,0.060,0.286,-5.337
0.275,0.058,0.283,-5.337
0.259,0.055,0.281,-5.337
0.340,0.052,0.281,-5.337
0.336,0.054,0.286,-5.337
0.292,0.058,0.287,-5.337
0.261,0.062,0.286,-5.337
0.291,0.060,0.287,-5.337
0.383,0.055,0.283,-5.337
0.446,0.054,0.281,-5.337
0.398,0.054,0.278,-5.337
0.316,0.057,0.281,-5.337
0.281,0.055,0.283,-5.337
0.261,0.054,0.285,-5.337
0.261,0.054,0.284,-5.337
0.259,0.055,0.282,-5.337
0.221,0.059,0.285,-5.337
0.233,0.057,0.290,-5.337
0.268,0.053,0.290,-5.337
0.316,0.050,0.286,-5.337
0.322,0.052,0.286,-5.337
0.247,0.055,0.285,-5.337
0.203,0.052,0.286,-5.337
0.262,0.051,0.290,-5.337
0.274,0.054,0.289,-5.337
0.283,0.054,0.289,-5.337
0.323,0.051,0.288,-5.337
0.347,0.049,0.283,-5.337
0.328,0.051,0.283,-5.337
0.271,0.054,0.286,-5.337
0.302,0.051,0.288,-5.337
0.328,0.051,0.284,-5.337
0.251,0.056,0.280,-5.337
0.232,0.055,0.281,-5.337
0.223,0.054,0.287,-5.337
0.287,0.049,0.290,-5.337
0.304,0.051,0.286,-5.337
0.325,0.053,0.284,-5.337
0.414,0.050,0.285,-5.337
0.401,0.048,0.284,-5.337
0.228,0.052,0.282,-5.337
0.263,0.047,0.283,-5.337
0.343,0.050,0.289,-5.337
0.260,0.051,0.290,-5.337
0.248,0.049,0.286,-5.337
0.322,0.050,0.284,-5.337
0.322,0.050,0.286,-5.337
0.296,0.049,0.289,-5.337
0.263,0.052,0.285,-5.337
0.149,0.052,0.283,-5.337
0.183,0.049,0.283,-5.337
0.262,0.045,0.284,-5.337
0.337,0.043,0.285,-5.337
0.337,0.046,0.286,-5.337
0.248,0.052,0.281,-5.337
0.167,0.052,0.281,-5.337
0.181,0.053,0.283,-5.337
0.201,0.055,0.284,-5.337
0.162,0.055,0.289,-5.337
0.140,0.049,0.293,-5.337
0.146,0.046,0.289,-5.337
0.271,0.046,0.283,-5.337
0.351,0.049,0.282,-5.337
0.259,0.052,0.283,-5.337
0.254,0.047,0.286,-5.337
0.323,0.047,0.289,-5.337
0.247,0.048,0.288,-5.337
0.134,0.052,0.288,-5.337
0.175,0.051,0.286,-5.337
0.310,0.048,0.284,-5.337
0.294,0.046,0.285,-5.337
0.226,0.045,0.285,-5.337
0.174,0.047,0.286,-5.337
0.232,0.043,0.284,-5.337
0.257,0.046,0.281,-5.337
0.219,0.048,0.280,-5.337
0.198,0.045,0.280,-5.337
0.254,0.042,0.278,-5.337
0.277,0.042,0.280,-5.337
0.294,0.043,0.284,-5.337
0.284,0.044,0.293,-5.337
0.283,0.044,0.295,-5.337
0.272,0.044,0.288,-5.337
0.313,0.040,0.284,-5.337
0.352,0.039,0.285,-5.337
0.350,0.040,0.285,-5.337
0.265,0.045,0.288,-5.337
0.190,0.050,0.291,-5.337
0.207,0.050,0.288,-5.337
0.226,0.049,0.284,-5.337
0.178,0.046,0.286,-5.337
0.175,0.046,0.288,-5.337
0.165,0.049,0.288,-5.337
0.113,0.048,0.288,-5.337
0.119,0.044,0.285,-5.337
0.183,0.043,0.284,-5.337
0.119,0.046,0.287,-5.337
0.015,0.045,0.291,-5.337
0.020,0.045,0.291,-5.337
0.057,0.045,0.289,-5.337
0.093,0.044,0.285,-5.337
0.224,0.039,0.283,-5.337
0.255,0.037,0.281,-5.337
0.246,0.037,0.283,-5.337
0.214,0.040,0.286,-5.337
0.122,0.038,0.285,-5.337
0.111,0.035,0.287,-5.337
0.173,0.036,0.290,-5.337
0.224,0.038,0.291,-5.337
0.214,0.035,0.289,-5.337
0.223,0.037,0.291,-5.337
0.258,0.039,0.289,-5.337
0.317,0.037,0.288,-5.337
0.245,0.039,0.289,-5.337
0.165,0.038,0.293,-5.337
0.130,0.041,0.291,-5.337
0.140,0.042,0.286,-5.337
0.170,0.039,0.284,-5.337
0.141,0.042,0.286,-5.337
0.200,0.041,0.287,-5.337
0.165,0.039,0.289,-5.337
0.149,0.037,0.286,-5.337
0.109,0.042,0.283,-5.337
0.123,0.044,0.283,-5.337
0.173,0.042,0.285,-5.337
0.203,0.036,0.291,-5.337
0.246,0.035,0.292,-5.337
0.171,0.039,0.292,-5.337
0.103,0.044,0.291,-5.337
0.109,0.050,0.290,-5.337
0.119,0.046,0.286,-5.337
0.086,0.045,0.282,-5.337
0.078,0.043,0.280,-5.337
0.129,0.046,0.285,-5.337
0.230,0.043,0.290,-5.337
0.193,0.039,0.293,-5.337
0.154,0.038,0.291,-5.337
0.116,0.040,0.286,-5.337
0.150,0.040,0.282,-5.337
0.208,0.036,0.283,-5.337
0.213,0.032,0.287,-5.337
0.147,0.034,0.290,-5.337
0.100,0.036,0.287,-5.337
0.089,0.039,0.285,-5.337
0.073,0.040,0.287,-5.337
0.093,0.040,0.294,-5.337
0.081,0.041,0.294,-5.337
0.088,0.041,0.290,-5.337
0.075,0.038,0.290,-5.337
0.096,0.038,0.291,-5.337
0.135,0.033,0.289,-5.337
0.183,0.034,0.282,-5.337
0.226,0.036,0.279,-5.337
0.207,0.036,0.283,-5.337
0.163,0.036,0.283,-5.337
0.149,0.035,0.284,-5.337
0.148,0.035,0.288,-5.337
0.122,0.035,0.289,-5.337
0.095,0.034,0.288,-5.337
0.113,0.038,0.287,-5.337
0.151,0.037,0.287,-5.337
0.153,0.035,0.283,-5.337
0.090,0.034,0.286,-5.337
0.050,0.036,0.286,-5.337
0.014,0.038,0.286,-5.337
0.071,0.034,0.285,-5.337
0.171,0.029,0.284,-5.337
0.211,0.028,0.281,-5.337
0.216,0.030,0.282,-5.337
0.193,0.032,0.283,-5.337
0.201,0.031,0.285,-5.337
0.123,0.032,0.290,-5.337
0.033,0.031,0.291,-5.337
0.061,0.031,0.288,-5.337
0.051,0.034,0.287,-5.337
0.070,0.034,0.288,-5.337
0.144,0.033,0.284,-5.337
0.164,0.032,0.279,-5.337
0.212,0.030,0.279,-5.337
0.175,0.032,0.282,-5.337
0.134,0.035,0.283,-5.337
0.104,0.033,0.284,-5.337
0.104,0.029,0.282,-5.337
0.076,0.030,0.284,-5.337
-0.009,0.034,0.285,-5.337
-0.005,0.031,0.285,-5.337
0.035,0.034,0.283,-5.337
0.014,0.035,0.286,-5.337
0.067,0.034,0.290,-5.337
0.053,0.035,0.289,-5.337
0.046,0.038,0.283,-5.337
0.048,0.036,0.278,-5.337
0.085,0.029,0.280,-5.337
0.136,0.029,0.287,-5.337
0.089,0.032,0.290,-5.337
0.060,0.035,0.289,-5.337
0.051,0.033,0.284,-5.337
0.114,0.030,0.283,-5.337
0.135,0.029,0.285,-5.337
0.142,0.033,0.287,-5.337
0.053,0.036,0.286,-5.337
0.045,0.034,0.285,-5.337
0.104,0.034,0.285,-5.337
0.137,0.036,0.286,-5.337
0.064,0.034,0.288,-5.337
-0.002,0.032,0.288,-5.337
0.107,0.031,0.287,-5.337
0.169,0.030,0.282,-5.337
0.138,0.030,0.282,-5.337
0.136,0.029,0.282,-5.337
0.116,0.028,0.286,-5.337
0.130,0.031,0.285,-5.337
0.187,0.031,0.286,-5.337
0.173,0.030,0.286,-5.337
0.120,0.032,0.285,-5.337
0.133,0.030,0.285,-5.337
0.200,0.033,0.286,-5.337
0.170,0.033,0.285,-5.337
0.094,0.039,0.287,-5.337
0.115,0.035,0.287,-5.337
0.199,0.035,0.287,-5.337
0.144,0.035,0.284,-5.337
0.051,0.038,0.284,-5.337
0.012,0.036,0.286,-5.337
0.021,0.041,0.287,-5.337
-0.019,0.045,0.289,-5.337
-0.034,0.044,0.289,-5.337
-0.004,0.044,0.289,-5.337
-0.033,0.041,0.286,-5.337
-0.067,0.039,0.282,-5.337
-0.007,0.038,0.285,-5.337
0.081,0.035,0.285,-5.337
0.118,0.036,0.283,-5.337
0.032,0.040,0.285,-5.337
0.028,0.036,0.285,-5.337
0.078,0.036,0.286,-5.337
0.094,0.036,0.287,-5.337
0.088,0.038,0.288,-5.337
0.052,0.040,0.286,-5.337
0.090,0.036,0.285,-5.337
0.150,0.031,0.286,-5.337
0.194,0.029,0.286,-5.337
0.104,0.036,0.287,-5.337
0.014,0.040,0.286,-5.337
0.007,0.037,0.286,-5.337
0.116,0.036,0.286,-5.337
0.179,0.040,0.284,-5.337
0.101,0.041,0.282,-5.337
0.022,0.041,0.286,-5.337
0.019,0.041,0.288,-5.337
-0.011,0.040,0.288,-5.337
-0.012,0.038,0.288,-5.337
0.066,0.036,0.288,-5.337
0.079,0.037,0.285,-5.337
0.032,0.039,0.286,-5.337
0.080,0.035,0.287,-5.337
0.068,0.038,0.290,-5.337
0.029,0.040,0.289,-5.337
0.116,0.041,0.289,-5.337
0.119,0.038,0.287,-5.337
0.108,0.037,0.284,-5.337
0.105,0.039,0.282,-5.337
0.114,0.038,0.282,-5.337
0.112,0.039,0.285,-5.337
0.101,0.041,0.287,-5.337
0.104,0.040,0.287,-5.337
0.096,0.041,0.287,-5.337
0.047,0.043,0.288,-5.337
0.043,0.042,0.289,-5.337
0.127,0.040,0.290,-5.337
0.168,0.042,0.287,-5.337
0.152,0.044,0.286,-5.337
0.151,0.042,0.285,-5.337
0.221,0.044,0.287,-5.337
0.200,0.043,0.287,-5.337
0.176,0.043,0.290,-5.337
0.136,0.042,0.286,-5.337
0.145,0.041,0.281,-5.337
0.183,0.039,0.276,-5.337
0.160,0.044,0.281,-5.337
0.141,0.043,0.284,-5.337
0.143,0.042,0.283,-5.337
0.090,0.043,0.283,-5.337
0.053,0.047,0.287,-5.337
0.036,0.047,0.288,-5.337
0.033,0.046,0.286,-5.337
0.085,0.043,0.285,-5.337
0.096,0.047,0.284,-5.337
0.133,0.047,0.285,-5.337
0.220,0.048,0.285,-5.337
0.180,0.049,0.289,-5.337
0.126,0.046,0.293,-5.337
0.159,0.044,0.295,-5.337
0.154,0.045,0.293,-5.337
0.133,0.041,0.290,-5.337
0.143,0.042,0.283,-5.337
0.112,0.043,0.280,-5.337
0.146,0.042,0.280,-5.337
0.235,0.042,0.285,-5.337
0.268,0.044,0.287,-5.337
0.187,0.044,0.284,-5.337
0.135,0.046,0.284,-5.337
0.106,0.045,0.286,-5.337
0.151,0.045,0.283,-5.337
0.194,0.046,0.284,-5.337
0.175,0.047,0.286,-5.337
0.251,0.045,0.285,-5.337
0.258,0.045,0.283,-5.337
0.109,0.047,0.283,-5.337
0.081,0.047,0.284,-5.337
0.113,0.050,0.283,-5.337
0.167,0.048,0.283,-5.337
0.260,0.043,0.286,-5.337
0.217,0.049,0.289,-5.337
0.120,0.051,0.287,-5.337
0.117,0.056,0.284,-5.337
0.114,0.053,0.283,-5.337
0.141,0.046,0.286,-5.337
0.188,0.046,0.283,-5.337
0.280,0.047,0.284,-5.337
0.258,0.046,0.288,-5.337
0.142,0.045,0.292,-5.337
0.140,0.044,0.287,-5.337
0.193,0.044,0.284,-5.337
0.185,0.048,0.285,-5.337
0.155,0.044,0.286,-5.337
0.197,0.039,0.283,-5.337
0.208,0.043,0.282,-5.337
0.147,0.049,0.283,-5.337
0.120,0.047,0.288,-5.337
0.097,0.050,0.284,-5.337
0.095,0.051,0.281,-5.337
0.139,0.049,0.281,-5.337
0.230,0.044,0.285,-5.337
0.227,0.046,0.288,-5.337
0.133,0.048,0.284,-5.337
0.119,0.046,0.284,-5.337
0.209,0.044,0.286,-5.337
0.331,0.044,0.288,-5.337
0.289,0.047,0.286,-5.337
0.211,0.051,0.287,-5.337
0.281,0.044,0.289,-5.337
0.328,0.042,0.290,-5.337
0.291,0.044,0.282,-5.337
0.248,0.051,0.280,-5.337
0.307,0.052,0.277,-5.337
0.319,0.053,0.278,-5.337
0.288,0.050,0.280,-5.337
0.219,0.053,0.281,-5.337
0.251,0.052,0.283,-5.337
0.270,0.054,0.285,-5.337
0.232,0.054,0.289,-5.337
0.223,0.051,0.290,-5.337
0.247,0.049,0.287,-5.337
0.292,0.045,0.282,-5.337
0.246,0.050,0.277,-5.337
0.244,0.052,0.280,-5.337
0.278,0.049,0.283,-5.337
0.238,0.049,0.288,-5.337
0.179,0.051,0.289,-5.337
0.187,0.053,0.287,-5.337
0.213,0.054,0.284,-5.337
0.183,0.054,0.281,-5.337
0.188,0.053,0.282,-5.337
0.272,0.050,0.284,-5.337
0.338,0.049,0.285,-5.337
0.304,0.052,0.282,-5.337
0.249,0.054,0.283,-5.337
0.224,0.052,0.282,-5.337
0.259,0.050,0.283,-5.337
0.278,0.050,0.286,-5.337
0.289,0.052,0.289,-5.337
0.267,0.051,0.289,-5.337
0.211,0.054,0.290,-5.337
0.211,0.052,0.290,-5.337
0.252,0.053,0.290,-5.337
0.224,0.051,0.288,-5.337
0.182,0.051,0.286,-5.337
0.147,0.051,0.285,-5.337
0.205,0.049,0.283,-5.337
0.256,0.048,0.287,-5.337
0.310,0.046,0.286,-5.337
0.381,0.046,0.286,-5.337
0.351,0.046,0.286,-5.337
0.310,0.046,0.288,-5.337
0.284,0.046,0.286,-5.337
0.262,0.047,0.288,-5.337
0.248,0.049,0.288,-5.337
0.207,0.058,0.291,-5.337
0.205,0.056,0.288,-5.337
0.239,0.053,0.282,-5.337
0.311,0.052,0.278,-5.337
0.280,0.054,0.280,-5.337
0.184,0.055,0.281,-5.337
0.210,0.054,0.287,-5.337
0.288,0.054,0.292,-5.337
0.347,0.054,0.291,-5.337
0.317,0.054,0.289,-5.337
0.350,0.055,0.289,-5.337
0.384,0.055,0.283,-5.337
0.349,0.059,0.281,-5.337
0.313,0.058,0.284,-5.337
0.300,0.061,0.286,-5.337
0.263,0.062,0.287,-5.337
0.307,0.060,0.287,-5.337
0.337,0.059,0.293,-5.337
0.262,0.058,0.295,-5.337
0.239,0.054,0.292,-5.337
0.261,0.054,0.286,-5.337
0.247,0.060,0.287,-5.337
0.225,0.059,0.285,-5.337
0.236,0.060,0.285,-5.337
0.319,0.056,0.285,-5.337
0.314,0.060,0.288,-5.337
0.242,0.059,0.285,-5.337
0.303,0.052,0.281,-5.337
0.390,0.052,0.280,-5.337
0.374,0.054,0.283,-5.337
0.392,0.053,0.290,-5.337
0.439,0.052,0.290,-5.337
0.392,0.054,0.286,-5.337
0.396,0.055,0.284,-5.337
0.381,0.056,0.283,-5.337
0.391,0.056,0.284,-5.337
0.361,0.060,0.284,-5.337
0.305,0.063,0.285,-5.337
0.241,0.061,0.285,-5.337
0.206,0.060,0.280,-5.337
0.209,0.059,0.281,-5.337
0.213,0.058,0.286,-5.337
0.287,0.057,0.292,-5.337
0.306,0.061,0.288,-5.337
0.297,0.062,0.285,-5.337
0.255,0.065,0.284,-5.337
0.230,0.062,0.286,-5.337
0.243,0.057,0.284,-5.337
0.326,0.054,0.281,-5.337
0.359,0.056,0.280,-5.337
0.332,0.057,0.283,-5.337
0.303,0.055,0.289,-5.337
0.268,0.056,0.291,-5.337
0.240,0.058,0.286,-5.337
0.337,0.061,0.284,-5.337
0.413,0.060,0.282,-5.337
0.410,0.062,0.280,-5.337
0.384,0.065,0.283,-5.337
0.393,0.064,0.285,-5.337
0.368,0.061,0.285,-5.337
0.305,0.059,0.282,-5.337
0.320,0.062,0.284,-5.337
0.300,0.063,0.285,-5.337
0.285,0.062,0.285,-5.337
0.252,0.066,0.285,-5.337
0.307,0.065,0.290,-5.337
0.395,0.061,0.292,-5.337
0.401,0.055,0.290,-5.337
0.418,0.054,0.287,-5.337
0.398,0.059,0.283,-5.337
0.338,0.059,0.281,-5.337
0.258,0.061,0.279,-5.337
0.255,0.062,0.281,-5.337
0.298,0.059,0.283,-5.337
0.293,0.054,0.282,-5.337
0.263,0.056,0.283,-5.337
0.270,0.058,0.280,-5.337
0.343,0.058,0.282,-5.337
0.416,0.058,0.284,-5.337
0.453,0.062,0.282,-5.337
0.372,0.062,0.281,-5.337
0.283,0.063,0.282,-5.337
0.276,0.061,0.288,-5.337
0.350,0.058,0.287,-5.337
0.420,0.060,0.287,-5.337
0.422,0.058,0.285,-5.337
0.359,0.060,0.285,-5.337
0.408,0.059,0.284,-5.337
0.375,0.059,0.287,-5.337
0.357,0.058,0.289,-5.337
0.355,0.061,0.293,-5.337
0.366,0.064,0.291,-5.337
0.339,0.064,0.286,-5.337
0.342,0.062,0.284,-5.337
0.376,0.063,0.285,-5.337
0.333,0.062,0.283,-5.337
0.324,0.065,0.280,-5.337
0.339,0.063,0.281,-5.337
0.385,0.059,0.285,-5.337
0.394,0.057,0.286,-5.337
0.352,0.061,0.288,-5.337
0.380,0.062,0.289,-5.337
0.326,0.063,0.286,-5.337
0.284,0.064,0.280,-5.337
0.291,0.064,0.278,-5.337
0.312,0.063,0.280,-5.337
0.292,0.062,0.282,-5.337
0.290,0.061,0.288,-5.337
0.379,0.058,0.289,-5.337
0.386,0.060,0.286,-5.337
0.343,0.061,0.281,-5.337
0.294,0.063,0.285,-5.337
0.245,0.064,0.287,-5.337
0.233,0.063,0.283,-5.337
0.246,0.059,0.281,-5.337
0.244,0.059,0.286,-5.337
0.224,0.057,0.289,-5.337
0.237,0.059,0.288,-5.337
0.254,0.061,0.285,-5.337
0.226,0.062,0.284,-5.337
0.222,0.059,0.287,-5.337
0.298,0.056,0.288,-5.337
0.336,0.058,0.288,-5.337
0.247,0.065,0.286,-5.337
0.153,0.065,0.284,-5.337
0.209,0.061,0.285,-5.337
0.313,0.059,0.284,-5.337
0.379,0.060,0.284,-5.337
0.378,0.062,0.288,-5.337
0.368,0.059,0.287,-5.337
0.362,0.058,0.286,-5.337
0.358,0.057,0.283,-5.337
0.433,0.057,0.284,-5.337
0.438,0.054,0.281,-5.337
0.302,0.054,0.282,-5.337
0.258,0.054,0.284,-5.337
0.283,0.057,0.286,-5.337
0.257,0.060,0.287,-5.337
0.212,0.058,0.287,-5.337
0.235,0.055,0.286,-5.337
0.312,0.054,0.287,-5.337
0.299,0.052,0.287,-5.337
0.329,0.053,0.284,-5.337
0.257,0.055,0.280,-5.337
0.194,0.059,0.284,-5.337
0.134,0.061,0.289,-5.337
0.160,0.058,0.287,-5.337
0.255,0.054,0.283,-5.337
0.242,0.057,0.281,-5.337
0.232,0.058,0.284,-5.337
0.266,0.057,0.282,-5.337
0.329,0.053,0.285,-5.337
0.332,0.054,0.288,-5.337
0.226,0.058,0.290,-5.337
0.207,0.062,0.285,-5.337
0.280,0.063,0.283,-5.337
0.273,0.059,0.282,-5.337
0.270,0.053,0.282,-5.337
0.387,0.048,0.281,-5.337
0.339,0.051,0.283,-5.337
0.214,0.052,0.283,-5.337
0.219,0.052,0.285,-5.337
0.223,0.051,0.288,-5.337
0.180,0.052,0.287,-5.337
0.212,0.053,0.283,-5.337
0.241,0.052,0.282,-5.337
0.265,0.050,0.282,-5.337
0.264,0.049,0.286,-5.337
0.280,0.048,0.288,-5.337
0.237,0.054,0.286,-5.337
0.245,0.050,0.286,-5.337
0.236,0.049,0.288,-5.337
0.206,0.048,0.290,-5.337
0.190,0.046,0.286,-5.337
0.240,0.049,0.284,-5.337
0.200,0.052,0.284,-5.337
0.192,0.052,0.288,-5.337
0.225,0.052,0.288,-5.337
0.230,0.053,0.289,-5.337
0.202,0.047,0.286,-5.337
0.226,0.047,0.282,-5.337
0.247,0.049,0.283,-5.337
0.236,0.047,0.284,-5.337
0.248,0.044,0.278,-5.337
0.281,0.042,0.278,-5.337
0.252,0.044,0.283,-5.337
0.160,0.049,0.288,-5.337
0.216,0.046,0.289,-5.337
0.309,0.042,0.286,-5.337
0.270,0.042,0.286,-5.337
0.247,0.044,0.287,-5.337
0.302,0.045,0.286,-5.337
0.319,0.045,0.281,-5.337
0.239,0.048,0.284,-5.337
0.167,0.052,0.288,-5.337
0.140,0.046,0.285,-5.337
0.108,0.044,0.280,-5.337
0.113,0.044,0.281,-5.337
0.245,0.045,0.281,-5.337
0.264,0.048,0.285,-5.337
0.269,0.042,0.286,-5.337
0.220,0.046,0.287,-5.337
0.128,0.049,0.287,-5.337
0.173,0.048,0.287,-5.337
0.177,0.044,0.287,-5.337
0.151,0.043,0.288,-5.337
0.196,0.045,0.285,-5.337
0.217,0.043,0.283,-5.337
0.182,0.041,0.284,-5.337
0.175,0.042,0.288,-5.337
0.140,0.045,0.289,-5.337
0.190,0.039,0.288,-5.337
0.258,0.039,0.284,-5.337
0.185,0.042,0.283,-5.337
0.200,0.041,0.283,-5.337
0.159,0.043,0.287,-5.337
0.133,0.042,0.288,-5.337
0.127,0.041,0.288,-5.337
0.193,0.038,0.288,-5.337
0.237,0.037,0.286,-5.337
0.204,0.038,0.282,-5.337
0.171,0.038,0.276,-5.337
0.246,0.040,0.279,-5.337
0.248,0.045,0.283,-5.337
0.102,0.047,0.287,-5.337
0.086,0.044,0.287,-5.337
0.171,0.042,0.286,-5.337
0.246,0.039,0.283,-5.337
0.184,0.042,0.280,-5.337
0.144,0.043,0.281,-5.337
0.068,0.048,0.287,-5.337
0.138,0.042,0.288,-5.337
0.242,0.041,0.290,-5.337
0.207,0.041,0.292,-5.337
0.162,0.040,0.290,-5.337
0.202,0.041,0.286,-5.337
0.187,0.041,0.286,-5.337
0.180,0.040,0.286,-5.337
0.236,0.041,0.287,-5.337
0.245,0.043,0.289,-5.337
0.208,0.040,0.288,-5.337
0.231,0.037,0.285,-5.337
0.208,0.037,0.281,-5.337
0.199,0.043,0.282,-5.337
0.118,0.048,0.281,-5.337
0.079,0.047,0.278,-5.337
0.070,0.041,0.280,-5.337
0.090,0.043,0.285,-5.337
0.115,0.043,0.285,-5.337
0.097,0.047,0.289,-5.337
0.021,0.046,0.293,-5.337
0.084,0.041,0.290,-5.337
0.173,0.034,0.283,-5.337
0.197,0.034,0.279,-5.337
0.155,0.038,0.282,-5.337
0.118,0.036,0.283,-5.337
0.104,0.033,0.286,-5.337
0.097,0.036,0.287,-5.337
0.067,0.039,0.290,-5.337
0.051,0.039,0.289,-5.337
0.080,0.034,0.288,-5.337
0.152,0.034,0.290,-5.337
0.105,0.035,0.291,-5.337
0.049,0.035,0.291,-5.337
0.123,0.035,0.290,-5.337
0.118,0.037,0.285,-5.337
0.118,0.037,0.284,-5.337
0.232,0.034,0.284,-5.337
0.190,0.036,0.284,-5.337
0.100,0.038,0.282,-5.337
0.151,0.037,0.282,-5.337
0.218,0.039,0.284,-5.337
0.178,0.039,0.290,-5.337
0.123,0.038,0.292,-5.337
0.090,0.038,0.289,-5.337
0.074,0.036,0.284,-5.337
0.044,0.036,0.282,-5.337
0.126,0.034,0.280,-5.337
0.173,0.034,0.282,-5.337
0.026,0.037,0.290,-5.337
-0.072,0.039,0.296,-5.337
-0.000,0.037,0.296,-5.337
0.087,0.033,0.289,-5.337
0.164,0.032,0.285,-5.337
0.142,0.038,0.280,-5.337
0.222,0.039,0.285,-5.337
0.242,0.038,0.292,-5.337
0.132,0.037,0.295,-5.337
0.194,0.034,0.290,-5.337
0.170,0.038,0.285,-5.337
0.099,0.040,0.286,-5.337
0.065,0.040,0.286,-5.337
0.051,0.036,0.283,-5.337
0.016,0.036,0.281,-5.337
0.056,0.033,0.283,-5.337
0.093,0.035,0.288,-5.337
0.140,0.037,0.290,-5.337
0.129,0.042,0.291,-5.337
0.128,0.041,0.289,-5.337
0.128,0.040,0.286,-5.337
0.118,0.038,0.280,-5.337
0.156,0.038,0.277,-5.337
0.107,0.039,0.281,-5.337
0.099,0.036,0.283,-5.337
0.078,0.040,0.285,-5.337
0.026,0.038,0.284,-5.337
0.046,0.036,0.288,-5.337
0.091,0.035,0.287,-5.337
0.127,0.036,0.285,-5.337
0.172,0.035,0.286,-5.337
0.139,0.032,0.288,-5.337
0.089,0.036,0.289,-5.337
0.116,0.039,0.288,-5.337
0.136,0.041,0.286,-5.337
0.126,0.040,0.284,-5.337
0.071,0.037,0.284,-5.337
0.097,0.034,0.285,-5.337
0.180,0.031,0.286,-5.337
0.174,0.034,0.286,-5.337
0.069,0.037,0.285,-5.337
0.043,0.034,0.283,-5.337
0.076,0.035,0.283,-5.337
0.071,0.037,0.286,-5.337
-0.030,0.040,0.287,-5.337
-0.048,0.040,0.285,-5.337
0.022,0.041,0.287,-5.337
0.061,0.042,0.285,-5.337
0.079,0.041,0.286,-5.337
0.079,0.040,0.286,-5.337
0.087,0.039,0.286,-5.337
0.129,0.039,0.287,-5.337
0.106,0.042,0.287,-5.337
0.088,0.042,0.285,-5.337
0.072,0.042,0.282,-5.337
0.158,0.038,0.278,-5.337
0.215,0.039,0.280,-5.337
0.150,0.041,0.280,-5.337
0.124,0.038,0.283,-5.337
0.147,0.033,0.285,-5.337
0.209,0.036,0.285,-5.337
0.125,0.041,0.286,-5.337
0.015,0.038,0.287,-5.337
0.011,0.038,0.284,-5.337
0.030,0.040,0.284,-5.337
-0.014,0.045,0.285,-5.337
-0.039,0.044,0.286,-5.337
0.025,0.042,0.290,-5.337
0.071,0.040,0.290,-5.337
0.048,0.043,0.286,-5.337
0.057,0.044,0.282,-5.337
0.072,0.042,0.286,-5.337
0.145,0.034,0.290,-5.337
0.208,0.033,0.291,-5.337
0.245,0.036,0.289,-5.337
0.257,0.041,0.286,-5.337
0.193,0.042,0.279,-5.337
0.111,0.044,0.274,-5.337
0.011,0.044,0.273,-5.337
0.093,0.041,0.275,-5.337
0.207,0.036,0.278,-5.337
0.134,0.038,0.283,-5.337
0.020,0.040,0.285,-5.337
-0.017,0.044,0.286,-5.337
0.018,0.042,0.283,-5.337
0.112,0.038,0.281,-5.337
0.107,0.040,0.284,-5.337
0.076,0.040,0.288,-5.337
0.094,0.038,0.288,-5.337
0.101,0.039,0.285,-5.337
0.097,0.042,0.286,-5.337
0.059,0.042,0.286,-5.337
0.080,0.040,0.287,-5.337
0.107,0.039,0.286,-5.337
0.161,0.037,0.286,-5.337
0.153,0.042,0.286,-5.337
0.104,0.045,0.286,-5.337
0.129,0.039,0.285,-5.337
0.131,0.038,0.286,-5.337
0.162,0.039,0.285,-5.337
0.154,0.038,0.288,-5.337
0.156,0.038,0.287,-5.337
0.118,0.042,0.285,-5.337
0.074,0.044,0.284,-5.337
0.086,0.043,0.286,-5.337
0.085,0.039,0.288,-5.337
0.044,0.041,0.283,-5.337
-0.006,0.040,0.276,-5.337
0.087,0.037,0.281,-5.337
0.193,0.038,0.289,-5.337
0.171,0.042,0.292,-5.337
0.061,0.043,0.289,-5.337
0.057,0.043,0.287,-5.337
0.131,0.042,0.285,-5.337
0.144,0.045,0.281,-5.337
0.099,0.044,0.280,-5.337
0.143,0.040,0.278,-5.337
0.179,0.042,0.283,-5.337
0.224,0.044,0.286,-5.337
0.177,0.045,0.288,-5.337
0.180,0.045,0.287,-5.337
0.242,0.044,0.286,-5.337
0.242,0.044,0.283,-5.337
0.191,0.045,0.283,-5.337
0.117,0.042,0.282,-5.337
0.108,0.043,0.284,-5.337
0.122,0.041,0.288,-5.337
0.120,0.041,0.289,-5.337
0.131,0.041,0.289,-5.337
0.104,0.046,0.288,-5.337
0.027,0.048,0.285,-5.337
0.040,0.048,0.286,-5.337
0.024,0.044,0.290,-5.337
0.067,0.043,0.286,-5.337
0.117,0.042,0.282,-5.337
0.118,0.042,0.282,-5.337
0.106,0.042,0.286,-5.337
0.151,0.040,0.283,-5.337
0.264,0.042,0.282,-5.337
0.289,0.043,0.283,-5.337
0.203,0.047,0.286,-5.337
0.138,0.047,0.290,-5.337
0.176,0.045,0.291,-5.337
0.160,0.043,0.287,-5.337
0.160,0.045,0.284,-5.337
0.156,0.041,0.284,-5.337
0.264,0.040,0.286,-5.337
0.219,0.040,0.289,-5.337
0.200,0.043,0.285,-5.337
0.147,0.044,0.280,-5.337
0.092,0.046,0.279,-5.337
0.102,0.045,0.280,-5.337
0.189,0.048,0.284,-5.337
0.195,0.050,0.286,-5.337
0.179,0.049,0.283,-5.337
0.154,0.050,0.280,-5.337
0.131,0.055,0.280,-5.337
0.110,0.054,0.280,-5.337
0.129,0.053,0.280,-5.337
0.142,0.051,0.283,-5.337
0.178,0.052,0.287,-5.337
0.230,0.052,0.289,-5.337
0.213,0.053,0.291,-5.337
0.245,0.050,0.290,-5.337
0.264,0.051,0.285,-5.337
0.248,0.055,0.282,-5.337
0.188,0.054,0.285,-5.337
0.183,0.055,0.291,-5.337
0.215,0.051,0.291,-5.337
0.186,0.053,0.284,-5.337
0.138,0.053,0.279,-5.337
0.176,0.049,0.280,-5.337
0.163,0.050,0.282,-5.337
0.134,0.054,0.285,-5.337
0.197,0.052,0.282,-5.337
0.294,0.049,0.280,-5.337
0.334,0.050,0.281,-5.337
0.312,0.054,0.285,-5.337
0.240,0.057,0.285,-5.337
0.183,0.053,0.283,-5.337
0.202,0.052,0.286,-5.337
0.266,0.052,0.286,-5.337
0.224,0.050,0.283,-5.337
0.076,0.050,0.281,-5.337
0.063,0.048,0.287,-5.337
0.261,0.046,0.290,-5.337
0.343,0.047,0.288,-5.337
0.305,0.047,0.283,-5.337
0.300,0.048,0.284,-5.337
0.271,0.048,0.288,-5.337
0.213,0.046,0.289,-5.337
0.170,0.048,0.285,-5.337
0.232,0.048,0.283,-5.337
0.295,0.049,0.284,-5.337
0.286,0.049,0.283,-5.337
0.244,0.049,0.285,-5.337
0.212,0.048,0.286,-5.337
0.174,0.047,0.281,-5.337
0.179,0.049,0.277,-5.337
0.201,0.048,0.278,-5.337
0.254,0.045,0.282,-5.337
0.297,0.045,0.284,-5.337
0.324,0.044,0.281,-5.337
0.295,0.049,0.284,-5.337
0.281,0.045,0.284,-5.337
0.266,0.045,0.284,-5.337
0.226,0.049,0.284,-5.337
0.154,0.053,0.284,-5.337
0.118,0.055,0.283,-5.337
0.155,0.054,0.285,-5.337
0.228,0.051,0.288,-5.337
0.308,0.049,0.288,-5.337
0.387,0.043,0.286,-5.337
0.396,0.044,0.286,-5.337
0.305,0.044,0.287,-5.337
0.259,0.046,0.284,-5.337
0.192,0.048,0.283,-5.337
0.135,0.049,0.282,-5.337
0.187,0.048,0.283,-5.337
0.253,0.047,0.286,-5.337
0.312,0.049,0.286,-5.337
0.296,0.049,0.286,-5.337
0.297,0.047,0.284,-5.337
0.311,0.050,0.283,-5.337
0.310,0.053,0.283,-5.337
0.265,0.058,0.288,-5.337
0.266,0.060,0.291,-5.337
0.268,0.054,0.285,-5.337
0.260,0.054,0.281,-5.337
0.259,0.055,0.283,-5.337
0.277,0.054,0.285,-5.337
0.324,0.054,0.284,-5.337
0.255,0.057,0.284,-5.337
0.225,0.054,0.282,-5.337
0.282,0.052,0.281,-5.337
0.380,0.047,0.282,-5.337
0.364,0.051,0.283,-5.337
0.265,0.052,0.287,-5.337
0.179,0.053,0.290,-5.337
0.217,0.050,0.287,-5.337
0.359,0.049,0.284,-5.337
0.401,0.052,0.285,-5.337
0.284,0.059,0.286,-5.337
0.234,0.059,0.283,-5.337
0.296,0.060,0.281,-5.337
0.233,0.062,0.280,-5.337
0.214,0.059,0.283,-5.337
0.269,0.056,0.287,-5.337
0.376,0.054,0.288,-5.337
0.427,0.056,0.289,-5.337
0.382,0.055,0.287,-5.337
0.310,0.057,0.286,-5.337
0.306,0.054,0.285,-5.337
0.325,0.054,0.288,-5.337
0.302,0.058,0.288,-5.337
0.274,0.060,0.285,-5.337
0.311,0.055,0.282,-5.337
0.300,0.055,0.281,-5.337
0.277,0.055,0.281,-5.337
0.290,0.052,0.280,-5.337
0.348,0.052,0.285,-5.337
0.362,0.051,0.290,-5.337
0.324,0.054,0.292,-5.337
0.293,0.054,0.290,-5.337
0.377,0.052,0.290,-5.337
0.348,0.055,0.287,-5.337
0.282,0.054,0.286,-5.337
0.261,0.049,0.284,-5.337
0.324,0.053,0.285,-5.337
0.353,0.054,0.288,-5.337
0.380,0.055,0.292,-5.337
0.394,0.051,0.294,-5.337
0.413,0.051,0.292,-5.337
0.334,0.050,0.284,-5.337
0.296,0.051,0.282,-5.337
0.251,0.054,0.280,-5.337
0.236,0.055,0.281,-5.337
0.213,0.056,0.284,-5.337
0.245,0.053,0.287,-5.337
0.272,0.054,0.286,-5.337
0.293,0.054,0.285,-5.337
0.269,0.056,0.284,-5.337
0.261,0.055,0.285,-5.337
0.267,0.056,0.285,-5.337
0.229,0.058,0.285,-5.337
0.260,0.058,0.285,-5.337
0.381,0.056,0.285,-5.337
0.403,0.056,0.286,-5.337
0.380,0.055,0.283,-5.337
0.375,0.054,0.283,-5.337
0.431,0.055,0.289,-5.337
0.471,0.053,0.294,-5.337
0.422,0.054,0.291,-5.337
0.291,0.061,0.288,-5.337
0.252,0.061,0.286,-5.337
0.367,0.057,0.286,-5.337
0.394,0.057,0.284,-5.337
0.266,0.058,0.283,-5.337
0.246,0.057,0.283,-5.337
0.264,0.059,0.286,-5.337
0.255,0.060,0.288,-5.337
0.218,0.059,0.288,-5.337
0.298,0.058,0.287,-5.337
0.325,0.057,0.283,-5.337
0.319,0.053,0.279,-5.337
0.333,0.055,0.279,-5.337
0.376,0.054,0.281,-5.337
0.389,0.054,0.283,-5.337
0.357,0.054,0.286,-5.337
0.330,0.057,0.288,-5.337
0.344,0.055,0.284,-5.337
0.424,0.054,0.280,-5.337
0.383,0.055,0.282,-5.337
0.311,0.054,0.285,-5.337
0.298,0.053,0.284,-5.337
0.309,0.054,0.281,-5.337
0.319,0.056,0.286,-5.337
0.331,0.055,0.289,-5.337
0.280,0.060,0.289,-5.337
0.269,0.062,0.282,-5.337
0.309,0.056,0.281,-5.337
0.378,0.054,0.283,-5.337
0.412,0.050,0.284,-5.337
0.356,0.053,0.282,-5.337
0.341,0.052,0.284,-5.337
0.315,0.051,0.286,-5.337
0.335,0.054,0.285,-5.337
0.316,0.056,0.282,-5.337
0.313,0.056,0.285,-5.337
0.386,0.049,0.286,-5.337
0.447,0.050,0.288,-5.337
0.391,0.053,0.287,-5.337
0.316,0.055,0.286,-5.337
0.341,0.054,0.283,-5.337
0.378,0.051,0.279,-5.337
0.383,0.050,0.281,-5.337
0.393,0.051,0.283,-5.337
0.321,0.054,0.287,-5.337
0.230,0.050,0.286,-5.337
0.256,0.052,0.284,-5.337
0.339,0.056,0.281,-5.337
0.298,0.057,0.282,-5.337
0.268,0.055,0.282,-5.337
0.322,0.050,0.282,-5.337
0.302,0.055,0.284,-5.337
0.257,0.056,0.285,-5.337
0.238,0.053,0.285,-5.337
0.260,0.051,0.285,-5.337
0.295,0.048,0.285,-5.337
0.299,0.048,0.284,-5.337
0.218,0.046,0.283,-5.337
0.179,0.045,0.282,-5.337
0.205,0.045,0.281,-5.337
0.294,0.048,0.281,-5.337
0.264,0.047,0.283,-5.337
0.279,0.046,0.286,-5.337
0.258,0.044,0.284,-5.337
0.240,0.044,0.285,-5.337
0.232,0.045,0.283,-5.337
0.235,0.047,0.281,-5.337
0.338,0.046,0.285,-5.337
0.305,0.048,0.286,-5.337
0.286,0.045,0.287,-5.337
0.304,0.044,0.286,-5.337
0.272,0.043,0.290,-5.337
0.225,0.044,0.290,-5.337
0.177,0.047,0.286,-5.337
0.188,0.049,0.283,-5.337
0.231,0.045,0.284,-5.337
0.300,0.046,0.285,-5.337
0.350,0.046,0.283,-5.337
0.311,0.048,0.278,-5.337
0.252,0.050,0.278,-5.337
0.252,0.049,0.282,-5.337
0.246,0.048,0.284,-5.337
0.244,0.045,0.286,-5.337
0.238,0.050,0.285,-5.337
0.260,0.050,0.283,-5.337
0.262,0.048,0.283,-5.337
0.206,0.046,0.287,-5.337
0.268,0.044,0.288,-5.337
0.297,0.046,0.287,-5.337
0.275,0.044,0.283,-5.337
0.283,0.044,0.281,-5.337
0.293,0.045,0.281,-5.337
0.251,0.048,0.284,-5.337
0.237,0.047,0.282,-5.337
0.281,0.045,0.284,-5.337
0.256,0.043,0.285,-5.337
0.231,0.043,0.286,-5.337
0.218,0.049,0.285,-5.337
0.233,0.049,0.285,-5.337
0.256,0.046,0.285,-5.337
0.259,0.043,0.284,-5.337
0.279,0.042,0.283,-5.337
0.248,0.044,0.287,-5.337
0.287,0.046,0.287,-5.337
0.277,0.046,0.285,-5.337
0.168,0.045,0.287,-5.337
0.136,0.043,0.288,-5.337
0.152,0.042,0.288,-5.337
0.193,0.044,0.284,-5.337
0.198,0.048,0.285,-5.337
0.298,0.045,0.288,-5.337
0.302,0.043,0.292,-5.337
0.226,0.044,0.289,-5.337
0.200,0.046,0.284,-5.337
0.255,0.046,0.282,-5.337
0.297,0.041,0.286,-5.337
0.231,0.039,0.287,-5.337
0.058,0.044,0.286,-5.337
0.068,0.044,0.288,-5.337
0.205,0.045,0.287,-5.337
0.269,0.040,0.284,-5.337
0.314,0.039,0.285,-5.337
0.263,0.039,0.282,-5.337
0.234,0.042,0.284,-5.337
0.261,0.045,0.289,-5.337
0.188,0.048,0.288,-5.337
0.101,0.049,0.285,-5.337
0.114,0.047,0.283,-5.337
0.189,0.044,0.280,-5.337
0.210,0.047,0.278,-5.337
0.288,0.044,0.283,-5.337
0.325,0.043,0.288,-5.337
0.263,0.044,0.284,-5.337
0.217,0.046,0.279,-5.337
0.331,0.044,0.282,-5.337
0.366,0.045,0.286,-5.337
0.214,0.049,0.289,-5.337
0.120,0.049,0.287,-5.337
0.103,0.048,0.285,-5.337
0.079,0.047,0.285,-5.337
0.142,0.046,0.286,-5.337
0.200,0.041,0.286,-5.337
0.239,0.039,0.284,-5.337
0.181,0.038,0.283,-5.337
0.158,0.039,0.281,-5.337
0.271,0.035,0.278,-5.337
0.293,0.036,0.282,-5.337
0.247,0.042,0.288,-5.337
0.158,0.042,0.286,-5.337
0.152,0.037,0.282,-5.337
0.218,0.038,0.286,-5.337
0.218,0.042,0.287,-5.337
0.144,0.040,0.284,-5.337
0.141,0.039,0.287,-5.337
0.134,0.038,0.285,-5.337
0.152,0.038,0.283,-5.337
0.153,0.037,0.283,-5.337
0.237,0.032,0.288,-5.337
0.203,0.034,0.287,-5.337
0.082,0.038,0.288,-5.337
0.127,0.039,0.284,-5.337
0.257,0.037,0.281,-5.337
0.250,0.038,0.281,-5.337
0.170,0.037,0.283,-5.337
0.145,0.038,0.281,-5.337
0.143,0.040,0.282,-5.337
0.168,0.039,0.286,-5.337
0.167,0.038,0.288,-5.337
0.182,0.036,0.287,-5.337
0.174,0.035,0.287,-5.337
0.169,0.035,0.288,-5.337
0.136,0.039,0.287,-5.337
0.097,0.042,0.282,-5.337
0.150,0.039,0.279,-5.337
0.241,0.034,0.280,-5.337
0.241,0.033,0.283,-5.337
0.202,0.037,0.283,-5.337
0.183,0.038,0.282,-5.337
0.161,0.037,0.287,-5.337
0.197,0.033,0.287,-5.337
0.270,0.031,0.285,-5.337
0.252,0.034,0.279,-5.337
0.183,0.035,0.281,-5.337
0.167,0.033,0.283,-5.337
0.217,0.033,0.282,-5.337
0.278,0.033,0.280,-5.337
0.262,0.039,0.284,-5.337
0.214,0.038,0.291,-5.337
0.166,0.034,0.292,-5.337
0.117,0.036,0.287,-5.337
0.138,0.042,0.282,-5.337
0.159,0.039,0.280,-5.337
0.114,0.037,0.282,-5.337
0.048,0.036,0.286,-5.337
0.089,0.037,0.287,-5.337
0.080,0.039,0.284,-5.337
0.058,0.037,0.282,-5.337
0.130,0.036,0.283,-5.337
0.157,0.037,0.283,-5.337
0.121,0.039,0.283,-5.337
0.108,0.039,0.280,-5.337
0.108,0.039,0.283,-5.337
0.079,0.038,0.285,-5.337
0.122,0.038,0.288,-5.337
0.111,0.042,0.284,-5.337
0.104,0.038,0.281,-5.337
0.143,0.038,0.282,-5.337
0.180,0.039,0.283,-5.337
0.166,0.042,0.285,-5.337
0.031,0.044,0.286,-5.337
0.041,0.044,0.285,-5.337
0.162,0.044,0.284,-5.337
0.185,0.045,0.282,-5.337
0.151,0.044,0.285,-5.337
0.098,0.042,0.286,-5.337
0.137,0.039,0.287,-5.337
0.167,0.041,0.288,-5.337
0.103,0.043,0.289,-5.337
0.076,0.043,0.292,-5.337
0.116,0.042,0.291,-5.337
0.058,0.041,0.287,-5.337
0.026,0.039,0.281,-5.337
0.084,0.036,0.281,-5.337
0.085,0.037,0.283,-5.337
0.049,0.041,0.285,-5.337
0.089,0.040,0.283,-5.337
0.174,0.035,0.280,-5.337
0.121,0.033,0.280,-5.337
0.116,0.036,0.282,-5.337
0.160,0.037,0.285,-5.337
0.192,0.040,0.289,-5.337
0.150,0.037,0.287,-5.337
0.178,0.032,0.288,-5.337
0.178,0.033,0.288,-5.337
0.139,0.034,0.288,-5.337
0.188,0.032,0.284,-5.337
0.182,0.037,0.280,-5.337
0.072,0.041,0.282,-5.337
0.060,0.038,0.288,-5.337
0.115,0.034,0.291,-5.337
0.125,0.034,0.288,-5.337
0.124,0.038,0.287,-5.337
0.109,0.036,0.287,-5.337
0.046,0.036,0.290,-5.337
0.058,0.037,0.288,-5.337
0.050,0.038,0.286,-5.337
0.042,0.039,0.283,-5.337
0.060,0.038,0.285,-5.337
0.040,0.036,0.284,-5.337
0.091,0.037,0.284,-5.337
0.074,0.033,0.285,-5.337
0.053,0.036,0.287,-5.337
0.079,0.037,0.289,-5.337
0.030,0.037,0.287,-5.337
0.034,0.035,0.282,-5.337
0.023,0.033,0.286,-5.337
-0.006,0.034,0.289,-5.337
0.075,0.034,0.284,-5.337
0.206,0.031,0.278,-5.337
0.221,0.030,0.282,-5.337
0.172,0.032,0.291,-5.337
0.200,0.034,0.290,-5.337
0.175,0.031,0.283,-5.337
0.163,0.035,0.279,-5.337
0.172,0.034,0.282,-5.337
0.181,0.032,0.284,-5.337
0.128,0.033,0.285,-5.337
0.053,0.035,0.289,-5.337
0.063,0.034,0.292,-5.337
0.078,0.034,0.293,-5.337
0.030,0.034,0.292,-5.337
0.122,0.029,0.289,-5.337
0.206,0.030,0.286,-5.337
0.120,0.034,0.283,-5.337
0.024,0.036,0.283,-5.337
0.005,0.035,0.283,-5.337
0.036,0.032,0.281,-5.337
0.114,0.030,0.281,-5.337
0.118,0.033,0.284,-5.337
0.101,0.035,0.285,-5.337
0.064,0.035,0.284,-5.337
-0.006,0.035,0.284,-5.337
0.002,0.036,0.286,-5.337
0.088,0.038,0.284,-5.337
0.188,0.038,0.282,-5.337
0.163,0.037,0.282,-5.337
0.084,0.042,0.282,-5.337
0.029,0.041,0.283,-5.337
0.128,0.040,0.281,-5.337
0.211,0.039,0.283,-5.337
0.152,0.036,0.284,-5.337
0.103,0.036,0.289,-5.337
0.114,0.036,0.288,-5.337
0.169,0.039,0.286,-5.337
0.137,0.036,0.282,-5.337
0.093,0.036,0.281,-5.337
0.106,0.035,0.279,-5.337
0.111,0.036,0.282,-5.337
0.082,0.037,0.288,-5.337
0.067,0.035,0.288,-5.337
0.084,0.030,0.283,-5.337
0.130,0.032,0.278,-5.337
0.116,0.037,0.278,-5.337
0.205,0.035,0.279,-5.337
0.199,0.036,0.278,-5.337
0.177,0.038,0.280,-5.337
0.191,0.037,0.287,-5.337
0.185,0.040,0.291,-5.337
0.165,0.038,0.286,-5.337
0.166,0.035,0.284,-5.337
0.112,0.038,0.285,-5.337
0.031,0.042,0.282,-5.337
0.065,0.042,0.282,-5.337
0.212,0.036,0.283,-5.337
0.191,0.040,0.285,-5.337
0.091,0.040,0.285,-5.337
0.128,0.036,0.287,-5.337
0.198,0.033,0.287,-5.337
0.149,0.039,0.281,-5.337
0.072,0.041,0.276,-5.337
0.100,0.042,0.276,-5.337
0.111,0.040,0.281,-5.337
0.130,0.041,0.285,-5.337
0.168,0.042,0.291,-5.337
0.157,0.042,0.290,-5.337
0.083,0.043,0.284,-5.337
0.104,0.041,0.283,-5.337
0.136,0.041,0.282,-5.337
0.169,0.041,0.283,-5.337
0.228,0.039,0.285,-5.337
0.137,0.042,0.281,-5.337
0.132,0.042,0.276,-5.337
0.153,0.042,0.278,-5.337
0.096,0.041,0.282,-5.337
0.019,0.037,0.284,-5.337
0.090,0.036,0.287,-5.337
0.142,0.040,0.287,-5.337
0.127,0.041,0.282,-5.337
0.150,0.038,0.278,-5.337
0.164,0.036,0.278,-5.337
0.131,0.040,0.281,-5.337
0.098,0.039,0.285,-5.337
0.176,0.038,0.288,-5.337
0.202,0.040,0.288,-5.337
0.197,0.041,0.287,-5.337
0.207,0.041,0.288,-5.337
0.190,0.037,0.286,-5.337
0.187,0.035,0.281,-5.337
0.236,0.036,0.280,-5.337
0.196,0.041,0.284,-5.337
0.131,0.042,0.283,-5.337
0.079,0.043,0.279,-5.337
0.078,0.046,0.282,-5.337
0.120,0.045,0.286,-5.337
0.161,0.041,0.288,-5.337
0.153,0.039,0.286,-5.337
0.162,0.042,0.287,-5.337
0.192,0.045,0.289,-5.337
0.217,0.040,0.292,-5.337
0.255,0.035,0.287,-5.337
0.245,0.037,0.282,-5.337
0.242,0.041,0.277,-5.337
0.224,0.047,0.276,-5.337
0.231,0.044,0.279,-5.337
0.242,0.045,0.283,-5.337
0.245,0.045,0.286,-5.337
0.286,0.048,0.287,-5.337
0.294,0.045,0.285,-5.337
0.275,0.046,0.287,-5.337
0.269,0.047,0.287,-5.337
0.233,0.049,0.283,-5.337
0.258,0.048,0.280,-5.337
0.276,0.048,0.279,-5.337
0.237,0.050,0.281,-5.337
0.241,0.049,0.285,-5.337
0.247,0.048,0.287,-5.337
0.239,0.049,0.286,-5.337
0.242,0.051,0.287,-5.337
0.359,0.048,0.284,-5.337
0.331,0.049,0.283,-5.337
0.268,0.049,0.280,-5.337
0.273,0.053,0.286,-5.337
0.245,0.053,0.289,-5.337
0.209,0.051,0.287,-5.337
0.176,0.050,0.281,-5.337
0.142,0.050,0.280,-5.337
0.163,0.049,0.281,-5.337
0.167,0.051,0.283,-5.337
0.120,0.051,0.287,-5.337
0.192,0.044,0.288,-5.337
0.290,0.044,0.281,-5.337
0.344,0.047,0.276,-5.337
0.352,0.048,0.277,-5.337
0.230,0.051,0.282,-5.337
0.131,0.049,0.282,-5.337
0.219,0.044,0.278,-5.337
0.258,0.047,0.279,-5.337
0.243,0.047,0.281,-5.337
0.245,0.044,0.287,-5.337
0.262,0.045,0.287,-5.337
0.255,0.045,0.284,-5.337
0.308,0.045,0.281,-5.337
0.282,0.050,0.283,-5.337
0.217,0.050,0.283,-5.337
0.254,0.052,0.288,-5.337
0.286,0.049,0.287,-5.337
0.298,0.052,0.282,-5.337
0.230,0.054,0.279,-5.337
0.202,0.050,0.279,-5.337
0.248,0.046,0.282,-5.337
0.268,0.045,0.285,-5.337
0.219,0.051,0.284,-5.337
0.190,0.054,0.281,-5.337
0.265,0.054,0.280,-5.337
0.300,0.055,0.282,-5.337
0.266,0.055,0.283,-5.337
0.206,0.054,0.283,-5.337
0.223,0.052,0.286,-5.337
0.339,0.049,0.285,-5.337
0.394,0.053,0.284,-5.337
0.283,0.051,0.284,-5.337
0.208,0.049,0.284,-5.337
0.299,0.047,0.282,-5.337
0.341,0.052,0.282,-5.337
0.300,0.055,0.280,-5.337
0.308,0.054,0.280,-5.337
0.309,0.055,0.280,-5.337
0.296,0.055,0.280,-5.337
0.223,0.050,0.281,-5.337
0.239,0.051,0.285,-5.337
0.314,0.052,0.290,-5.337
0.337,0.054,0.287,-5.337
0.281,0.054,0.281,-5.337
0.257,0.054,0.281,-5.337
0.296,0.054,0.284,-5.337
0.229,0.050,0.285,-5.337
0.264,0.049,0.286,-5.337
0.243,0.053,0.285,-5.337
0.244,0.048,0.282,-5.337
0.303,0.046,0.278,-5.337
0.292,0.045,0.273,-5.337
0.264,0.048,0.276,-5.337
0.313,0.048,0.282,-5.337
0.420,0.048,0.286,-5.337
0.357,0.051,0.285,-5.337
0.249,0.052,0.283,-5.337
0.283,0.052,0.286,-5.337
0.318,0.051,0.287,-5.337
0.280,0.056,0.285,-5.337
0.240,0.058,0.282,-5.337
0.222,0.056,0.281,-5.337
0.246,0.056,0.277,-5.337
0.290,0.056,0.277,-5.337
0.296,0.055,0.281,-5.337
0.334,0.056,0.288,-5.337
0.329,0.055,0.287,-5.337
0.377,0.053,0.282,-5.337
0.329,0.057,0.280,-5.337
0.176,0.063,0.281,-5.337
0.142,0.060,0.282,-5.337
0.278,0.061,0.278,-5.337
0.346,0.061,0.277,-5.337
0.371,0.064,0.283,-5.337
0.347,0.063,0.290,-5.337
0.359,0.058,0.287,-5.337
0.332,0.058,0.286,-5.337
0.359,0.057,0.280,-5.337
0.418,0.055,0.281,-5.337
0.458,0.056,0.281,-5.337
0.382,0.060,0.283,-5.337
0.242,0.064,0.281,-5.337
0.236,0.064,0.282,-5.337
0.306,0.063,0.283,-5.337
0.362,0.060,0.284,-5.337
0.353,0.060,0.283,-5.337
0.325,0.058,0.285,-5.337
0.365,0.056,0.288,-5.337
0.376,0.056,0.290,-5.337
0.319,0.060,0.289,-5.337
0.364,0.058,0.283,-5.337
0.328,0.059,0.279,-5.337
0.229,0.061,0.281,-5.337
0.289,0.057,0.281,-5.337
0.283,0.062,0.280,-5.337
0.266,0.061,0.282,-5.337
0.281,0.061,0.281,-5.337
0.306,0.061,0.281,-5.337
0.336,0.058,0.281,-5.337
0.371,0.055,0.283,-5.337
0.435,0.058,0.280,-5.337
0.437,0.060,0.280,-5.337
0.413,0.059,0.282,-5.337
0.392,0.060,0.285,-5.337
0.320,0.060,0.283,-5.337
0.275,0.063,0.282,-5.337
0.314,0.062,0.282,-5.337
0.334,0.062,0.284,-5.337
0.394,0.062,0.285,-5.337
0.409,0.059,0.280,-5.337
0.396,0.059,0.279,-5.337
0.324,0.062,0.282,-5.337
0.283,0.063,0.285,-5.337
0.330,0.059,0.285,-5.337
0.361,0.060,0.282,-5.337
0.379,0.064,0.283,-5.337
0.298,0.064,0.286,-5.337
0.305,0.061,0.286,-5.337
0.327,0.057,0.286,-5.337
0.282,0.059,0.287,-5.337
0.323,0.057,0.286,-5.337
0.395,0.055,0.282,-5.337
0.461,0.054,0.283,-5.337
0.365,0.055,0.280,-5.337
0.356,0.055,0.281,-5.337
0.378,0.055,0.286,-5.337
0.334,0.059,0.290,-5.337
0.395,0.057,0.287,-5.337
0.363,0.061,0.284,-5.337
0.292,0.060,0.282,-5.337
0.266,0.061,0.282,-5.337
0.256,0.065,0.281,-5.337
0.274,0.064,0.280,-5.337
0.245,0.066,0.280,-5.337
0.272,0.063,0.282,-5.337
0.361,0.065,0.283,-5.337
0.374,0.064,0.283,-5.337
0.324,0.065,0.283,-5.337
0.256,0.066,0.281,-5.337
0.284,0.062,0.285,-5.337
0.335,0.061,0.287,-5.337
0.328,0.058,0.287,-5.337
0.322,0.057,0.286,-5.337
0.308,0.057,0.283,-5.337
0.291,0.054,0.282,-5.337
0.291,0.055,0.285,-5.337
0.348,0.058,0.288,-5.337
0.303,0.060,0.286,-5.337
0.260,0.058,0.285,-5.337
0.288,0.060,0.288,-5.337
0.298,0.058,0.286,-5.337
0.285,0.061,0.284,-5.337
0.350,0.056,0.282,-5.337
0.396,0.055,0.281,-5.337
0.364,0.056,0.281,-5.337
0.303,0.054,0.282,-5.337
0.292,0.056,0.283,-5.337
0.320,0.054,0.286,-5.337
0.332,0.055,0.283,-5.337
0.267,0.054,0.278,-5.337
0.316,0.055,0.278,-5.337
0.359,0.055,0.278,-5.337
0.333,0.051,0.282,-5.337
0.343,0.050,0.286,-5.337
0.408,0.049,0.288,-5.337
0.438,0.049,0.288,-5.337
0.424,0.048,0.287,-5.337
0.292,0.051,0.285,-5.337
0.171,0.053,0.286,-5.337
0.151,0.046,0.287,-5.337
0.268,0.042,0.289,-5.337
0.321,0.044,0.285,-5.337
0.343,0.045,0.281,-5.337
0.345,0.044,0.279,-5.337
0.330,0.047,0.279,-5.337
0.330,0.047,0.280,-5.337
0.322,0.045,0.281,-5.337
0.342,0.046,0.283,-5.337
0.348,0.046,0.281,-5.337
0.288,0.046,0.279,-5.337
0.286,0.047,0.283,-5.337
0.275,0.048,0.286,-5.337
0.243,0.051,0.286,-5.337
0.226,0.051,0.285,-5.337
0.228,0.048,0.284,-5.337
0.281,0.045,0.281,-5.337
0.320,0.046,0.277,-5.337
0.287,0.045,0.278,-5.337
0.335,0.044,0.281,-5.337
0.334,0.047,0.284,-5.337
0.315,0.045,0.280,-5.337
0.259,0.048,0.280,-5.337
0.199,0.049,0.285,-5.337
0.242,0.051,0.289,-5.337
0.234,0.050,0.285,-5.337
0.172,0.050,0.285,-5.337
0.222,0.047,0.290,-5.337
0.283,0.046,0.288,-5.337
0.332,0.048,0.283,-5.337
0.380,0.050,0.282,-5.337
0.318,0.051,0.280,-5.337
0.236,0.047,0.281,-5.337
0.202,0.045,0.281,-5.337
0.270,0.046,0.282,-5.337
0.238,0.053,0.285,-5.337
0.148,0.054,0.288,-5.337
0.174,0.049,0.285,-5.337
0.206,0.048,0.279,-5.337
0.191,0.048,0.275,-5.337
0.154,0.048,0.277,-5.337
0.152,0.048,0.284,-5.337
0.253,0.044,0.284,-5.337
0.242,0.040,0.280,-5.337
0.209,0.041,0.279,-5.337
0.213,0.046,0.283,-5.337
0.230,0.047,0.284,-5.337
0.210,0.043,0.284,-5.337
0.222,0.039,0.282,-5.337
0.315,0.039,0.282,-5.337
0.337,0.042,0.282,-5.337
0.286,0.043,0.284,-5.337
0.202,0.047,0.284,-5.337
0.228,0.046,0.284,-5.337
0.186,0.044,0.285,-5.337
0.098,0.045,0.287,-5.337
0.082,0.043,0.285,-5.337
0.251,0.041,0.283,-5.337
0.359,0.041,0.283,-5.337
0.344,0.040,0.280,-5.337
0.276,0.040,0.281,-5.337
0.259,0.039,0.282,-5.337
0.284,0.042,0.282,-5.337
0.228,0.047,0.281,-5.337
0.217,0.049,0.285,-5.337
0.224,0.047,0.285,-5.337
0.290,0.044,0.287,-5.337
0.304,0.043,0.286,-5.337
0.296,0.043,0.286,-5.337
0.289,0.040,0.286,-5.337
0.249,0.042,0.281,-5.337
0.234,0.041,0.278,-5.337
0.202,0.044,0.280,-5.337
0.245,0.041,0.283,-5.337
0.252,0.039,0.284,-5.337
0.245,0.038,0.286,-5.337
0.222,0.041,0.287,-5.337
0.134,0.044,0.287,-5.337
0.092,0.043,0.287,-5.337
0.125,0.042,0.286,-5.337
0.157,0.046,0.287,-5.337
0.087,0.045,0.284,-5.337
0.103,0.043,0.281,-5.337
0.174,0.042,0.282,-5.337
0.141,0.042,0.280,-5.337
0.193,0.040,0.282,-5.337
0.325,0.039,0.283,-5.337
0.298,0.038,0.287,-5.337
0.221,0.041,0.288,-5.337
0.187,0.043,0.283,-5.337
0.246,0.041,0.280,-5.337
0.359,0.037,0.281,-5.337
0.310,0.040,0.280,-5.337
0.156,0.041,0.282,-5.337
0.117,0.043,0.284,-5.337
0.130,0.045,0.287,-5.337
0.134,0.046,0.289,-5.337
0.182,0.046,0.289,-5.337
0.199,0.042,0.288,-5.337
0.158,0.039,0.284,-5.337
0.142,0.038,0.279,-5.337
0.127,0.041,0.280,-5.337
0.153,0.040,0.286,-5.337
0.072,0.041,0.285,-5.337
0.016,0.042,0.282,-5.337
0.051,0.040,0.277,-5.337
0.166,0.040,0.280,-5.337
0.238,0.039,0.285,-5.337
0.155,0.042,0.288,-5.337
0.117,0.040,0.286,-5.337
0.231,0.034,0.282,-5.337
0.260,0.034,0.279,-5.337
0.275,0.036,0.281,-5.337
0.192,0.041,0.283,-5.337
0.113,0.041,0.287,-5.337
0.096,0.038,0.286,-5.337
0.070,0.039,0.287,-5.337
0.084,0.039,0.289,-5.337
0.182,0.036,0.290,-5.337
0.192,0.037,0.288,-5.337
0.134,0.037,0.288,-5.337
0.104,0.040,0.288,-5.337
0.085,0.040,0.288,-5.337
0.201,0.037,0.288,-5.337
0.233,0.036,0.284,-5.337
0.167,0.036,0.281,-5.337
0.147,0.037,0.277,-5.337
0.135,0.038,0.278,-5.337
0.118,0.040,0.282,-5.337
0.152,0.040,0.285,-5.337
0.256,0.037,0.284,-5.337
0.184,0.040,0.282,-5.337
0.098,0.037,0.277,-5.337
0.099,0.037,0.278,-5.337
0.142,0.036,0.280,-5.337
0.133,0.040,0.280,-5.337
0.129,0.038,0.282,-5.337
0.187,0.038,0.283,-5.337
0.192,0.037,0.286,-5.337
0.133,0.040,0.289,-5.337
0.059,0.038,0.287,-5.337
0.115,0.035,0.284,-5.337
0.147,0.036,0.283,-5.337
0.193,0.037,0.283,-5.337
0.147,0.037,0.285,-5.337
0.080,0.040,0.286,-5.337
0.050,0.035,0.285,-5.337
0.054,0.035,0.282,-5.337
0.124,0.036,0.283,-5.337
0.130,0.033,0.282,-5.337
0.131,0.030,0.281,-5.337
0.159,0.030,0.284,-5.337
0.151,0.034,0.287,-5.337
0.177,0.032,0.286,-5.337
0.299,0.028,0.286,-5.337
0.221,0.032,0.282,-5.337
0.045,0.037,0.284,-5.337
0.052,0.037,0.285,-5.337
0.070,0.036,0.284,-5.337
0.107,0.036,0.284,-5.337
0.104,0.040,0.285,-5.337
0.104,0.039,0.289,-5.337
0.105,0.039,0.288,-5.337
0.024,0.040,0.284,-5.337
0.022,0.041,0.284,-5.337
0.038,0.039,0.285,-5.337
0.101,0.037,0.285,-5.337
0.149,0.035,0.282,-5.337
0.139,0.037,0.279,-5.337
0.078,0.038,0.280,-5.337
0.096,0.037,0.282,-5.337
0.172,0.033,0.286,-5.337
0.192,0.033,0.287,-5.337
0.162,0.035,0.286,-5.337
0.069,0.033,0.286,-5.337
0.047,0.030,0.287,-5.337
0.063,0.030,0.284,-5.337
0.122,0.032,0.284,-5.337
0.118,0.033,0.285,-5.337
0.069,0.034,0.286,-5.337
0.076,0.029,0.283,-5.337
0.074,0.031,0.283,-5.337
0.094,0.033,0.284,-5.337
0.128,0.037,0.285,-5.337
0.079,0.035,0.284,-5.337
0.067,0.032,0.284,-5.337
0.110,0.030,0.282,-5.337
0.180,0.031,0.281,-5.337
0.174,0.035,0.281,-5.337
0.121,0.033,0.282,-5.337
0.102,0.034,0.283,-5.337
0.102,0.037,0.283,-5.337
0.097,0.040,0.282,-5.337
0.067,0.036,0.280,-5.337
0.080,0.034,0.278,-5.337
0.090,0.034,0.280,-5.337
0.075,0.036,0.287,-5.337
0.068,0.035,0.287,-5.337
0.072,0.031,0.285,-5.337
0.115,0.037,0.287,-5.337
0.087,0.039,0.288,-5.337
-0.012,0.037,0.288,-5.337
-0.094,0.040,0.288,-5.337
-0.102,0.037,0.287,-5.337
0.004,0.037,0.285,-5.337
0.110,0.034,0.283,-5.337
0.067,0.037,0.283,-5.337
0.011,0.038,0.281,-5.337
0.053,0.038,0.284,-5.337
0.099,0.037,0.288,-5.337
0.178,0.036,0.289,-5.337
0.132,0.037,0.288,-5.337
0.082,0.039,0.287,-5.337
0.032,0.041,0.285,-5.337
-0.026,0.039,0.284,-5.337
-0.034,0.037,0.283,-5.337
0.025,0.036,0.283,-5.337
0.072,0.037,0.284,-5.337
0.119,0.036,0.287,-5.337
0.108,0.034,0.288,-5.337
0.126,0.035,0.285,-5.337
0.164,0.034,0.283,-5.337
0.149,0.034,0.283,-5.337
0.100,0.036,0.280,-5.337
0.110,0.035,0.276,-5.337
0.131,0.038,0.278,-5.337
0.070,0.039,0.284,-5.337
0.030,0.040,0.289,-5.337
0.043,0.037,0.287,-5.337
0.086,0.035,0.285,-5.337
0.168,0.033,0.287,-5.337
0.212,0.032,0.289,-5.337
0.169,0.031,0.282,-5.337
0.104,0.031,0.279,-5.337
0.058,0.030,0.282,-5.337
0.076,0.031,0.285,-5.337
0.105,0.031,0.282,-5.337
0.094,0.034,0.283,-5.337
0.108,0.038,0.289,-5.337
0.148,0.037,0.285,-5.337
0.162,0.036,0.281,-5.337
0.098,0.036,0.282,-5.337
0.104,0.035,0.287,-5.337
0.120,0.036,0.284,-5.337
0.144,0.038,0.284,-5.337
0.128,0.035,0.283,-5.337
0.061,0.040,0.283,-5.337
0.035,0.038,0.286,-5.337
-0.015,0.039,0.289,-5.337
-0.027,0.036,0.289,-5.337
0.100,0.038,0.286,-5.337
0.152,0.040,0.283,-5.337
0.123,0.042,0.279,-5.337
0.149,0.041,0.279,-5.337
0.220,0.041,0.281,-5.337
0.197,0.046,0.285,-5.337
0.100,0.048,0.286,-5.337
0.091,0.046,0.283,-5.337
0.135,0.043,0.284,-5.337
0.101,0.040,0.286,-5.337
0.052,0.039,0.286,-5.337
0.135,0.037,0.288,-5.337
0.148,0.042,0.287,-5.337
0.129,0.040,0.284,-5.337
0.175,0.040,0.280,-5.337
0.220,0.040,0.281,-5.337
0.212,0.038,0.284,-5.337
0.123,0.044,0.287,-5.337
0.085,0.047,0.285,-5.337
0.121,0.047,0.281,-5.337
0.171,0.048,0.282,-5.337
0.145,0.049,0.284,-5.337
0.111,0.048,0.283,-5.337
0.072,0.046,0.282,-5.337
0.036,0.045,0.283,-5.337
0.050,0.048,0.283,-5.337
0.098,0.051,0.284,-5.337
0.126,0.050,0.283,-5.337
0.132,0.051,0.281,-5.337
0.132,0.048,0.280,-5.337
0.177,0.045,0.281,-5.337
0.185,0.050,0.286,-5.337
0.153,0.052,0.292,-5.337
0.235,0.046,0.292,-5.337
0.203,0.046,0.288,-5.337
0.093,0.048,0.281,-5.337
0.090,0.053,0.280,-5.337
0.170,0.053,0.280,-5.337
0.158,0.047,0.281,-5.337
0.146,0.048,0.281,-5.337
0.159,0.050,0.284,-5.337
0.136,0.048,0.285,-5.337
0.178,0.045,0.283,-5.337
0.230,0.045,0.281,-5.337
0.192,0.051,0.282,-5.337
0.127,0.051,0.285,-5.337
0.212,0.052,0.283,-5.337
0.229,0.054,0.283,-5.337
0.149,0.056,0.285,-5.337
0.155,0.053,0.283,-5.337
0.242,0.049,0.280,-5.337
0.253,0.052,0.281,-5.337
0.191,0.056,0.283,-5.337
0.161,0.060,0.281,-5.337
0.069,0.061,0.280,-5.337
0.069,0.061,0.280,-5.337
0.189,0.059,0.281,-5.337
0.221,0.058,0.285,-5.337
0.159,0.058,0.284,-5.337
0.149,0.055,0.281,-5.337
0.240,0.053,0.280,-5.337
0.250,0.056,0.282,-5.337
0.175,0.056,0.284,-5.337
0.153,0.057,0.284,-5.337
0.212,0.056,0.278,-5.337
0.250,0.054,0.278,-5.337
0.188,0.054,0.283,-5.337
0.142,0.058,0.288,-5.337
0.165,0.059,0.288,-5.337
0.178,0.054,0.284,-5.337
0.198,0.053,0.283,-5.337
0.192,0.051,0.284,-5.337
0.190,0.049,0.285,-5.337
0.224,0.053,0.283,-5.337
0.301,0.053,0.282,-5.337
0.304,0.052,0.282,-5.337
0.286,0.052,0.285,-5.337
0.272,0.054,0.287,-5.337
0.266,0.053,0.285,-5.337
0.264,0.053,0.281,-5.337
0.248,0.054,0.282,-5.337
0.254,0.056,0.284,-5.337
0.265,0.055,0.285,-5.337
0.272,0.053,0.280,-5.337
0.240,0.055,0.281,-5.337
0.245,0.056,0.280,-5.337
0.224,0.058,0.279,-5.337
0.260,0.056,0.280,-5.337
0.257,0.060,0.280,-5.337
0.220,0.060,0.284,-5.337
0.184,0.059,0.288,-5.337
0.183,0.058,0.287,-5.337
0.230,0.057,0.281,-5.337
0.324,0.058,0.278,-5.337
0.353,0.056,0.278,-5.337
0.290,0.056,0.281,-5.337
0.246,0.054,0.285,-5.337
0.343,0.052,0.287,-5.337
0.396,0.056,0.283,-5.337
0.300,0.057,0.280,-5.337
0.170,0.057,0.279,-5.337
0.150,0.054,0.286,-5.337
0.262,0.051,0.288,-5.337
0.269,0.055,0.285,-5.337
0.201,0.055,0.282,-5.337
0.201,0.054,0.281,-5.337
0.281,0.054,0.281,-5.337
0.276,0.054,0.282,-5.337
0.237,0.054,0.287,-5.337
0.293,0.053,0.288,-5.337
0.328,0.054,0.283,-5.337
0.330,0.056,0.280,-5.337
0.325,0.056,0.279,-5.337
0.284,0.058,0.280,-5.337
0.278,0.058,0.281,-5.337
0.247,0.060,0.282,-5.337
0.159,0.062,0.284,-5.337
0.159,0.057,0.281,-5.337
0.186,0.057,0.281,-5.337
0.211,0.058,0.283,-5.337
0.306,0.057,0.288,-5.337
0.323,0.055,0.286,-5.337
0.330,0.054,0.286,-5.337
0.331,0.057,0.286,-5.337
0.296,0.059,0.285,-5.337
0.281,0.059,0.282,-5.337
0.304,0.060,0.278,-5.337
0.312,0.058,0.277,-5.337
0.344,0.060,0.282,-5.337
0.319,0.058,0.285,-5.337
0.266,0.058,0.281,-5.337
0.231,0.057,0.277,-5.337
0.226,0.059,0.282,-5.337
0.211,0.064,0.286,-5.337
0.240,0.064,0.284,-5.337
0.270,0.061,0.280,-5.337
0.333,0.060,0.279,-5.337
0.317,0.062,0.283,-5.337
0.268,0.062,0.283,-5.337
0.307,0.061,0.282,-5.337
0.332,0.066,0.281,-5.337
0.316,0.066,0.283,-5.337
0.288,0.065,0.283,-5.337
0.232,0.064,0.285,-5.337
0.204,0.065,0.283,-5.337
0.260,0.066,0.283,-5.337
0.231,0.069,0.283,-5.337
0.281,0.068,0.282,-5.337
0.409,0.063,0.282,-5.337
0.407,0.064,0.283,-5.337
0.338,0.065,0.283,-5.337
0.309,0.066,0.280,-5.337
0.406,0.063,0.276,-5.337
0.437,0.063,0.276,-5.337
0.355,0.063,0.280,-5.337
0.311,0.067,0.284,-5.337
0.267,0.068,0.282,-5.337
0.289,0.065,0.282,-5.337
0.312,0.064,0.283,-5.337
0.290,0.065,0.283,-5.337
0.225,0.067,0.283,-5.337
0.250,0.065,0.283,-5.337
0.320,0.061,0.281,-5.337
0.358,0.060,0.281,-5.337
0.401,0.058,0.285,-5.337
0.411,0.062,0.284,-5.337
0.343,0.063,0.285,-5.337
0.287,0.061,0.284,-5.337
0.312,0.063,0.284,-5.337
0.343,0.061,0.279,-5.337
0.331,0.063,0.281,-5.337
0.308,0.062,0.280,-5.337
0.336,0.065,0.283,-5.337
0.323,0.067,0.285,-5.337
0.268,0.071,0.283,-5.337
0.249,0.071,0.280,-5.337
0.305,0.070,0.281,-5.337
0.291,0.071,0.283,-5.337
0.235,0.070,0.285,-5.337
0.282,0.069,0.284,-5.337
0.347,0.066,0.281,-5.337
0.362,0.063,0.279,-5.337
0.359,0.066,0.279,-5.337
0.304,0.071,0.282,-5.337
0.283,0.070,0.286,-5.337
0.299,0.068,0.287,-5.337
0.280,0.074,0.284,-5.337
0.262,0.073,0.282,-5.337
0.318,0.066,0.279,-5.337
0.353,0.063,0.280,-5.337
0.347,0.062,0.281,-5.337
0.376,0.066,0.283,-5.337
0.393,0.064,0.284,-5.337
0.373,0.063,0.283,-5.337
0.329,0.062,0.281,-5.337
0.343,0.063,0.286,-5.337
0.362,0.061,0.284,-5.337
0.350,0.065,0.281,-5.337
0.372,0.063,0.281,-5.337
0.364,0.063,0.283,-5.337
0.401,0.060,0.282,-5.337
0.447,0.062,0.278,-5.337
0.347,0.064,0.276,-5.337
0.260,0.063,0.278,-5.337
0.248,0.063,0.280,-5.337
0.329,0.062,0.285,-5.337
0.335,0.060,0.286,-5.337
0.327,0.061,0.283,-5.337
0.316,0.062,0.282,-5.337
0.349,0.061,0.284,-5.337
0.374,0.064,0.286,-5.337
0.321,0.064,0.282,-5.337
0.313,0.062,0.279,-5.337
0.331,0.062,0.278,-5.337
0.326,0.062,0.282,-5.337
0.321,0.060,0.281,-5.337
0.312,0.065,0.281,-5.337
0.363,0.061,0.282,-5.337
0.446,0.058,0.281,-5.337
0.399,0.059,0.283,-5.337
0.398,0.056,0.286,-5.337
0.452,0.057,0.284,-5.337
0.369,0.061,0.282,-5.337
0.263,0.066,0.280,-5.337
0.245,0.067,0.279,-5.337
0.315,0.064,0.280,-5.337
0.379,0.059,0.279,-5.337
0.349,0.060,0.281,-5.337
0.361,0.062,0.285,-5.337
0.421,0.063,0.288,-5.337
0.374,0.062,0.287,-5.337
0.346,0.060,0.284,-5.337
0.319,0.060,0.280,-5.337
0.306,0.060,0.280,-5.337
0.302,0.055,0.280,-5.337
0.339,0.056,0.282,-5.337
0.300,0.057,0.280,-5.337
0.321,0.055,0.281,-5.337
0.285,0.054,0.281,-5.337
0.309,0.057,0.282,-5.337
0.293,0.059,0.286,-5.337
0.311,0.056,0.287,-5.337
0.343,0.054,0.287,-5.337
0.327,0.056,0.283,-5.337
0.268,0.059,0.278,-5.337
0.230,0.057,0.281,-5.337
0.277,0.053,0.288,-5.337
0.334,0.055,0.288,-5.337
0.381,0.057,0.281,-5.337
0.351,0.062,0.275,-5.337
0.250,0.061,0.276,-5.337
0.266,0.062,0.280,-5.337
0.270,0.063,0.286,-5.337
0.273,0.063,0.289,-5.337
0.288,0.058,0.287,-5.337
0.302,0.054,0.283,-5.337
0.326,0.053,0.280,-5.337
0.250,0.055,0.280,-5.337
0.135,0.058,0.285,-5.337
0.161,0.055,0.283,-5.337
0.300,0.053,0.280,-5.337
0.259,0.053,0.282,-5.337
0.206,0.055,0.285,-5.337
0.198,0.052,0.286,-5.337
0.269,0.049,0.287,-5.337
0.305,0.051,0.288,-5.337
0.364,0.048,0.287,-5.337
0.354,0.047,0.283,-5.337
0.288,0.047,0.281,-5.337
0.247,0.051,0.281,-5.337
0.189,0.052,0.284,-5.337
0.233,0.050,0.282,-5.337
0.260,0.050,0.279,-5.337
0.303,0.047,0.281,-5.337
0.333,0.047,0.280,-5.337
0.318,0.050,0.279,-5.337
0.329,0.052,0.283,-5.337
0.291,0.051,0.289,-5.337
0.281,0.050,0.287,-5.337
0.262,0.052,0.286,-5.337
0.202,0.052,0.283,-5.337
0.238,0.049,0.281,-5.337
0.268,0.049,0.281,-5.337
0.228,0.052,0.284,-5.337
0.225,0.050,0.283,-5.337
0.284,0.045,0.280,-5.337
0.316,0.043,0.277,-5.337
0.391,0.042,0.279,-5.337
0.399,0.043,0.281,-5.337
0.299,0.046,0.281,-5.337
0.280,0.048,0.285,-5.337
0.313,0.043,0.287,-5.337
0.235,0.044,0.287,-5.337
0.217,0.046,0.282,-5.337
0.291,0.046,0.278,-5.337
0.296,0.047,0.283,-5.337
0.296,0.044,0.289,-5.337
0.264,0.043,0.289,-5.337
0.255,0.043,0.286,-5.337
0.313,0.040,0.280,-5.337
0.318,0.041,0.277,-5.337
0.244,0.045,0.278,-5.337
0.176,0.049,0.282,-5.337
0.275,0.047,0.281,-5.337
0.318,0.044,0.282,-5.337
0.290,0.044,0.281,-5.337
0.246,0.048,0.286,-5.337
0.207,0.049,0.287,-5.337
0.123,0.047,0.286,-5.337
0.165,0.041,0.284,-5.337
0.239,0.043,0.284,-5.337
0.225,0.047,0.283,-5.337
0.160,0.054,0.280,-5.337
0.177,0.051,0.279,-5.337
0.222,0.044,0.280,-5.337
0.204,0.044,0.281,-5.337
0.236,0.046,0.282,-5.337
0.311,0.051,0.283,-5.337
0.312,0.051,0.281,-5.337
0.304,0.048,0.284,-5.337
0.323,0.044,0.286,-5.337
0.299,0.044,0.284,-5.337
0.211,0.046,0.281,-5.337
0.128,0.048,0.280,-5.337
0.161,0.050,0.278,-5.337
0.171,0.050,0.279,-5.337
0.162,0.045,0.281,-5.337
0.169,0.044,0.282,-5.337
0.205,0.047,0.282,-5.337
0.129,0.048,0.284,-5.337
0.086,0.043,0.287,-5.337
0.193,0.038,0.286,-5.337
0.328,0.039,0.283,-5.337
0.312,0.043,0.280,-5.337
0.223,0.042,0.281,-5.337
0.211,0.042,0.281,-5.337
0.212,0.044,0.277,-5.337
0.188,0.043,0.277,-5.337
0.225,0.038,0.283,-5.337
0.283,0.036,0.284,-5.337
0.233,0.039,0.280,-5.337
0.103,0.040,0.278,-5.337
0.051,0.040,0.281,-5.337
0.113,0.040,0.285,-5.337
0.098,0.041,0.287,-5.337
0.112,0.040,0.288,-5.337
0.170,0.040,0.285,-5.337
0.187,0.040,0.280,-5.337
0.180,0.036,0.278,-5.337
0.242,0.035,0.275,-5.337
0.228,0.041,0.278,-5.337
0.178,0.041,0.282,-5.337
0.176,0.038,0.287,-5.337
0.152,0.039,0.287,-5.337
0.110,0.040,0.284,-5.337
0.089,0.040,0.281,-5.337
0.159,0.042,0.281,-5.337
0.232,0.040,0.282,-5.337
0.257,0.035,0.284,-5.337
0.281,0.036,0.281,-5.337
0.215,0.036,0.282,-5.337
0.161,0.034,0.282,-5.337
0.168,0.036,0.280,-5.337
0.141,0.039,0.282,-5.337
0.152,0.040,0.279,-5.337
0.148,0.036,0.278,-5.337
0.108,0.037,0.282,-5.337
0.118,0.041,0.285,-5.337
0.162,0.040,0.282,-5.337
0.149,0.042,0.280,-5.337
0.131,0.042,0.278,-5.337
0.178,0.042,0.282,-5.337
0.185,0.040,0.286,-5.337
0.120,0.040,0.289,-5.337
0.048,0.043,0.286,-5.337
0.056,0.039,0.281,-5.337
0.148,0.038,0.280,-5.337
0.204,0.041,0.278,-5.337
0.188,0.042,0.278,-5.337
0.118,0.043,0.279,-5.337
0.104,0.039,0.279,-5.337
0.124,0.040,0.281,-5.337
0.103,0.040,0.283,-5.337
0.121,0.039,0.281,-5.337
0.146,0.039,0.280,-5.337
0.099,0.042,0.285,-5.337
0.112,0.038,0.287,-5.337
0.121,0.038,0.282,-5.337
0.201,0.037,0.282,-5.337
0.236,0.037,0.282,-5.337
0.251,0.037,0.284,-5.337
0.191,0.038,0.283,-5.337
0.108,0.044,0.280,-5.337
0.086,0.040,0.280,-5.337
0.165,0.042,0.285,-5.337
0.208,0.039,0.289,-5.337
0.238,0.035,0.289,-5.337
0.207,0.036,0.284,-5.337
0.134,0.038,0.281,-5.337
0.112,0.038,0.281,-5.337
0.107,0.041,0.280,-5.337
0.115,0.040,0.281,-5.337
0.125,0.037,0.283,-5.337
0.086,0.039,0.283,-5.337
0.072,0.038,0.280,-5.337
0.060,0.039,0.279,-5.337
0.064,0.042,0.282,-5.337
0.058,0.038,0.284,-5.337
0.079,0.036,0.279,-5.337
0.103,0.038,0.280,-5.337
0.099,0.039,0.281,-5.337
0.114,0.037,0.284,-5.337
0.136,0.037,0.285,-5.337
0.156,0.040,0.284,-5.337
0.163,0.039,0.283,-5.337
0.120,0.040,0.288,-5.337
0.126,0.037,0.289,-5.337
0.185,0.038,0.287,-5.337
0.127,0.041,0.285,-5.337
0.132,0.039,0.283,-5.337
0.154,0.035,0.282,-5.337
0.084,0.040,0.280,-5.337
0.025,0.040,0.281,-5.337
0.013,0.039,0.283,-5.337
0.028,0.037,0.286,-5.337
0.038,0.036,0.287,-5.337
0.047,0.034,0.282,-5.337
0.032,0.035,0.281,-5.337
0.012,0.037,0.280,-5.337
0.003,0.034,0.283,-5.337
0.081,0.030,0.282,-5.337
0.171,0.031,0.277,-5.337
0.178,0.031,0.279,-5.337
0.094,0.030,0.279,-5.337
0.105,0.030,0.281,-5.337
0.115,0.032,0.279,-5.337
0.046,0.035,0.281,-5.337
0.019,0.035,0.282,-5.337
0.075,0.033,0.282,-5.337
0.110,0.034,0.286,-5.337
0.078,0.034,0.292,-5.337
0.102,0.030,0.292,-5.337
0.159,0.032,0.290,-5.337
0.207,0.034,0.285,-5.337
0.177,0.035,0.278,-5.337
0.199,0.030,0.274,-5.337
0.182,0.032,0.273,-5.337
0.120,0.034,0.276,-5.337
0.074,0.035,0.279,-5.337
0.061,0.037,0.282,-5.337
0.086,0.038,0.282,-5.337
0.113,0.035,0.281,-5.337
0.114,0.037,0.280,-5.337
0.071,0.039,0.280,-5.337
-0.011,0.042,0.282,-5.337
-0.068,0.040,0.283,-5.337
-0.041,0.037,0.284,-5.337
0.109,0.036,0.287,-5.337
0.190,0.035,0.285,-5.337
0.132,0.036,0.283,-5.337
0.075,0.035,0.282,-5.337
0.001,0.038,0.282,-5.337
-0.014,0.034,0.283,-5.337
0.041,0.034,0.285,-5.337
0.132,0.031,0.283,-5.337
0.086,0.035,0.282,-5.337
0.081,0.035,0.280,-5.337
0.138,0.034,0.281,-5.337
0.089,0.035,0.283,-5.337
0.079,0.034,0.278,-5.337
0.142,0.033,0.276,-5.337
0.135,0.035,0.283,-5.337
0.010,0.037,0.286,-5.337
0.013,0.037,0.284,-5.337
0.057,0.032,0.284,-5.337
0.202,0.032,0.284,-5.337
0.212,0.035,0.283,-5.337
0.143,0.035,0.281,-5.337
0.137,0.032,0.281,-5.337
0.059,0.031,0.280,-5.337
0.019,0.033,0.284,-5.337
0.050,0.031,0.285,-5.337
0.079,0.029,0.286,-5.337
0.133,0.031,0.283,-5.337
0.216,0.030,0.281,-5.337
0.236,0.029,0.279,-5.337
0.138,0.036,0.281,-5.337
0.097,0.036,0.282,-5.337
0.122,0.037,0.281,-5.337
0.123,0.035,0.283,-5.337
0.158,0.031,0.286,-5.337
0.183,0.030,0.287,-5.337
0.111,0.035,0.285,-5.337
0.066,0.036,0.279,-5.337
0.142,0.034,0.278,-5.337
0.188,0.032,0.280,-5.337
0.163,0.035,0.281,-5.337
0.140,0.036,0.285,-5.337
0.146,0.036,0.288,-5.337
0.164,0.037,0.284,-5.337
0.177,0.036,0.280,-5.337
0.150,0.040,0.282,-5.337
0.108,0.037,0.279,-5.337
0.143,0.038,0.279,-5.337
0.133,0.039,0.279,-5.337
0.105,0.039,0.284,-5.337
0.127,0.037,0.285,-5.337
0.167,0.039,0.283,-5.337
0.146,0.037,0.284,-5.337
0.068,0.040,0.284,-5.337
0.022,0.043,0.282,-5.337
0.040,0.043,0.282,-5.337
0.094,0.043,0.281,-5.337
0.176,0.040,0.283,-5.337
0.142,0.040,0.282,-5.337
0.106,0.042,0.281,-5.337
0.089,0.041,0.280,-5.337
0.069,0.039,0.279,-5.337
0.125,0.040,0.279,-5.337
0.215,0.041,0.281,-5.337
0.213,0.041,0.285,-5.337
0.114,0.043,0.285,-5.337
0.065,0.044,0.287,-5.337
0.148,0.043,0.286,-5.337
0.190,0.043,0.285,-5.337
0.149,0.046,0.281,-5.337
0.156,0.044,0.278,-5.337
0.190,0.043,0.277,-5.337
0.183,0.041,0.277,-5.337
0.190,0.040,0.278,-5.337
0.182,0.042,0.282,-5.337
0.185,0.044,0.283,-5.337
0.186,0.048,0.280,-5.337
0.187,0.045,0.279,-5.337
0.187,0.045,0.283,-5.337
0.176,0.043,0.287,-5.337
0.168,0.044,0.283,-5.337
0.153,0.046,0.277,-5.337
0.143,0.045,0.274,-5.337
0.159,0.048,0.277,-5.337
0.171,0.048,0.282,-5.337
0.145,0.050,0.290,-5.337
0.146,0.048,0.290,-5.337
0.153,0.048,0.287,-5.337
0.126,0.051,0.283,-5.337
0.150,0.050,0.284,-5.337
0.200,0.049,0.287,-5.337
0.200,0.049,0.286,-5.337
0.183,0.051,0.284,-5.337
0.157,0.051,0.283,-5.337
0.150,0.048,0.286,-5.337
0.120,0.048,0.287,-5.337
0.098,0.051,0.282,-5.337
0.140,0.054,0.279,-5.337
0.183,0.049,0.280,-5.337
0.190,0.049,0.285,-5.337
0.200,0.054,0.283,-5.337
0.230,0.052,0.281,-5.337
0.269,0.051,0.280,-5.337
0.221,0.052,0.280,-5.337
0.180,0.054,0.280,-5.337
0.193,0.055,0.281,-5.337
0.169,0.058,0.284,-5.337
0.184,0.060,0.283,-5.337
0.174,0.053,0.281,-5.337
0.192,0.054,0.281,-5.337
0.176,0.054,0.282,-5.337
0.187,0.053,0.280,-5.337
0.163,0.052,0.281,-5.337
0.210,0.047,0.283,-5.337
0.227,0.044,0.286,-5.337
0.232,0.049,0.283,-5.337
0.219,0.056,0.281,-5.337
0.196,0.057,0.280,-5.337
0.174,0.057,0.281,-5.337
0.119,0.055,0.282,-5.337
0.101,0.056,0.282,-5.337
0.188,0.053,0.278,-5.337
0.292,0.052,0.275,-5.337
0.356,0.052,0.274,-5.337
0.322,0.055,0.280,-5.337
0.243,0.058,0.284,-5.337
0.222,0.057,0.287,-5.337
0.257,0.058,0.285,-5.337
0.177,0.057,0.281,-5.337
0.157,0.055,0.277,-5.337
0.187,0.053,0.280,-5.337
0.277,0.049,0.285,-5.337
0.314,0.052,0.283,-5.337
0.252,0.054,0.281,-5.337
0.215,0.055,0.278,-5.337
0.214,0.056,0.280,-5.337
0.228,0.054,0.281,-5.337
0.260,0.055,0.280,-5.337
0.266,0.056,0.278,-5.337
0.234,0.056,0.278,-5.337
0.230,0.056,0.281,-5.337
0.223,0.057,0.282,-5.337
0.163,0.057,0.283,-5.337
0.123,0.055,0.285,-5.337
0.129,0.055,0.284,-5.337
0.215,0.056,0.282,-5.337
0.249,0.058,0.276,-5.337
0.213,0.056,0.276,-5.337
0.199,0.056,0.280,-5.337
0.253,0.058,0.281,-5.337
0.308,0.058,0.280,-5.337
0.310,0.056,0.281,-5.337
0.230,0.056,0.284,-5.337
0.173,0.058,0.282,-5.337
0.225,0.055,0.280,-5.337
0.310,0.052,0.281,-5.337
0.302,0.050,0.280,-5.337
0.345,0.055,0.279,-5.337
0.266,0.060,0.281,-5.337
0.208,0.054,0.280,-5.337
0.273,0.054,0.284,-5.337
0.339,0.058,0.286,-5.337
0.383,0.058,0.284,-5.337
0.412,0.054,0.281,-5.337
0.326,0.056,0.280,-5.337
0.291,0.056,0.281,-5.337
0.250,0.057,0.279,-5.337
0.300,0.054,0.279,-5.337
0.320,0.058,0.283,-5.337
0.329,0.057,0.282,-5.337
0.343,0.057,0.282,-5.337
0.318,0.058,0.281,-5.337
0.312,0.060,0.281,-5.337
0.283,0.060,0.279,-5.337
0.270,0.060,0.275,-5.337
0.218,0.060,0.276,-5.337
0.216,0.062,0.278,-5.337
0.260,0.064,0.281,-5.337
0.323,0.061,0.283,-5.337
0.299,0.058,0.290,-5.337
0.297,0.059,0.292,-5.337
0.267,0.062,0.289,-5.337
0.188,0.061,0.281,-5.337
0.278,0.059,0.272,-5.337
0.292,0.059,0.270,-5.337
0.267,0.059,0.275,-5.337
0.307,0.056,0.278,-5.337
0.380,0.055,0.280,-5.337
0.360,0.057,0.281,-5.337
0.246,0.060,0.283,-5.337
0.212,0.061,0.283,-5.337
0.226,0.061,0.283,-5.337
0.292,0.057,0.283,-5.337
0.390,0.058,0.285,-5.337
0.401,0.057,0.286,-5.337
0.390,0.056,0.286,-5.337
0.438,0.056,0.280,-5.337
0.420,0.060,0.276,-5.337
0.409,0.060,0.281,-5.337
0.340,0.061,0.285,-5.337
0.327,0.057,0.286,-5.337
0.364,0.057,0.284,-5.337
0.317,0.060,0.283,-5.337
0.266,0.061,0.282,-5.337
0.204,0.062,0.281,-5.337
0.260,0.061,0.279,-5.337
0.291,0.060,0.279,-5.337
0.367,0.057,0.282,-5.337
0.432,0.058,0.284,-5.337
0.325,0.061,0.283,-5.337
0.277,0.064,0.281,-5.337
0.307,0.060,0.279,-5.337
0.327,0.060,0.280,-5.337
0.339,0.057,0.281,-5.337
0.345,0.060,0.281,-5.337
0.341,0.062,0.281,-5.337
0.242,0.062,0.284,-5.337
0.239,0.064,0.289,-5.337
0.247,0.065,0.286,-5.337
0.248,0.064,0.284,-5.337
0.326,0.060,0.280,-5.337
0.355,0.058,0.275,-5.337
0.382,0.061,0.274,-5.337
0.400,0.063,0.279,-5.337
0.370,0.062,0.285,-5.337
0.396,0.060,0.285,-5.337
0.369,0.062,0.284,-5.337
0.287,0.061,0.286,-5.337
0.222,0.059,0.287,-5.337
0.262,0.057,0.284,-5.337
0.350,0.058,0.282,-5.337
0.340,0.060,0.283,-5.337
0.336,0.058,0.284,-5.337
0.256,0.063,0.283,-5.337
0.245,0.063,0.277,-5.337
0.281,0.064,0.275,-5.337
0.315,0.067,0.279,-5.337
0.302,0.066,0.282,-5.337
0.373,0.061,0.283,-5.337
0.425,0.062,0.284,-5.337
0.428,0.066,0.286,-5.337
0.318,0.068,0.283,-5.337
0.239,0.068,0.279,-5.337
0.241,0.066,0.275,-5.337
0.279,0.068,0.278,-5.337
0.292,0.069,0.282,-5.337
0.295,0.066,0.284,-5.337
0.288,0.064,0.282,-5.337
0.289,0.069,0.281,-5.337
0.270,0.068,0.282,-5.337
0.277,0.066,0.284,-5.337
0.312,0.062,0.283,-5.337
0.394,0.061,0.282,-5.337
0.452,0.060,0.282,-5.337
0.414,0.061,0.287,-5.337
0.321,0.061,0.284,-5.337
0.325,0.060,0.281,-5.337
0.336,0.058,0.281,-5.337
0.317,0.059,0.279,-5.337
0.317,0.058,0.277,-5.337
0.323,0.057,0.280,-5.337
0.341,0.058,0.284,-5.337
0.340,0.059,0.283,-5.337
0.383,0.057,0.282,-5.337
0.466,0.058,0.283,-5.337
0.463,0.058,0.286,-5.337
0.335,0.060,0.283,-5.337
0.294,0.060,0.280,-5.337
0.290,0.060,0.281,-5.337
0.300,0.058,0.283,-5.337
0.297,0.060,0.280,-5.337
0.340,0.063,0.279,-5.337
0.401,0.062,0.279,-5.337
0.382,0.061,0.280,-5.337
0.322,0.061,0.284,-5.337
0.301,0.061,0.284,-5.337
0.310,0.059,0.282,-5.337
0.423,0.060,0.282,-5.337
0.404,0.059,0.283,-5.337
0.368,0.056,0.284,-5.337
0.427,0.055,0.282,-5.337
0.415,0.059,0.284,-5.337
0.384,0.061,0.283,-5.337
0.383,0.059,0.282,-5.337
0.364,0.060,0.285,-5.337
0.337,0.059,0.284,-5.337
0.301,0.056,0.284,-5.337
0.221,0.057,0.281,-5.337
0.238,0.058,0.284,-5.337
0.316,0.058,0.285,-5.337
0.328,0.059,0.285,-5.337
0.261,0.060,0.281,-5.337
0.235,0.064,0.283,-5.337
0.299,0.060,0.283,-5.337
0.344,0.056,0.280,-5.337
0.317,0.055,0.278,-5.337
0.292,0.056,0.278,-5.337
0.358,0.050,0.281,-5.337
0.337,0.050,0.285,-5.337
0.312,0.052,0.285,-5.337
0.322,0.053,0.284,-5.337
0.393,0.049,0.286,-5.337
0.457,0.050,0.289,-5.337
0.390,0.051,0.285,-5.337
0.354,0.053,0.281,-5.337
0.322,0.052,0.281,-5.337
0.326,0.051,0.283,-5.337
0.297,0.053,0.288,-5.337
0.304,0.049,0.288,-5.337
0.229,0.054,0.284,-5.337
0.186,0.053,0.280,-5.337
0.187,0.053,0.283,-5.337
0.205,0.054,0.285,-5.337
0.197,0.054,0.284,-5.337
0.214,0.049,0.282,-5.337
0.267,0.047,0.283,-5.337
0.299,0.047,0.284,-5.337
0.280,0.045,0.282,-5.337
0.320,0.042,0.278,-5.337
0.236,0.044,0.279,-5.337
0.159,0.044,0.283,-5.337
0.209,0.046,0.285,-5.337
0.327,0.045,0.284,-5.337
0.348,0.047,0.284,-5.337
0.264,0.048,0.285,-5.337
0.275,0.049,0.287,-5.337
0.289,0.047,0.288,-5.337
0.309,0.043,0.288,-5.337
0.294,0.044,0.284,-5.337
0.215,0.045,0.280,-5.337
0.186,0.046,0.281,-5.337
0.188,0.044,0.283,-5.337
0.231,0.041,0.286,-5.337
0.265,0.043,0.282,-5.337
0.230,0.042,0.282,-5.337
0.254,0.042,0.283,-5.337
0.280,0.040,0.284,-5.337
0.322,0.037,0.282,-5.337
0.334,0.038,0.281,-5.337
0.223,0.043,0.283,-5.337
0.202,0.042,0.281,-5.337
0.284,0.041,0.280,-5.337
0.353,0.041,0.283,-5.337
0.359,0.041,0.287,-5.337
0.282,0.044,0.287,-5.337
0.220,0.040,0.284,-5.337
0.229,0.036,0.282,-5.337
0.319,0.035,0.284,-5.337
0.255,0.039,0.282,-5.337
0.185,0.037,0.282,-5.337
0.214,0.035,0.283,-5.337
0.350,0.033,0.285,-5.337
0.364,0.036,0.281,-5.337
0.221,0.037,0.284,-5.337
0.213,0.038,0.282,-5.337
0.282,0.040,0.281,-5.337
0.242,0.040,0.282,-5.337
0.293,0.040,0.285,-5.337
0.339,0.038,0.285,-5.337
0.253,0.041,0.284,-5.337
0.154,0.044,0.282,-5.337
0.081,0.043,0.280,-5.337
0.126,0.038,0.277,-5.337
0.235,0.040,0.282,-5.337
0.239,0.042,0.289,-5.337
0.204,0.042,0.289,-5.337
0.206,0.042,0.286,-5.337
0.200,0.043,0.286,-5.337
0.148,0.050,0.284,-5.337
0.087,0.051,0.284,-5.337
0.110,0.047,0.287,-5.337
0.192,0.042,0.287,-5.337
0.235,0.043,0.286,-5.337
0.242,0.042,0.282,-5.337
0.287,0.042,0.282,-5.337
0.216,0.042,0.281,-5.337
0.157,0.044,0.278,-5.337
0.180,0.044,0.276,-5.337
0.248,0.038,0.282,-5.337
0.290,0.035,0.285,-5.337
0.144,0.042,0.282,-5.337
0.052,0.043,0.280,-5.337
0.090,0.045,0.281,-5.337
0.120,0.039,0.279,-5.337
0.130,0.041,0.281,-5.337
0.160,0.040,0.284,-5.337
0.152,0.041,0.287,-5.337
0.103,0.044,0.287,-5.337
0.124,0.041,0.284,-5.337
0.212,0.038,0.286,-5.337
0.234,0.042,0.290,-5.337
0.262,0.042,0.289,-5.337
0.244,0.041,0.286,-5.337
0.234,0.042,0.283,-5.337
0.229,0.045,0.281,-5.337
0.198,0.046,0.280,-5.337
0.183,0.042,0.281,-5.337
0.131,0.038,0.286,-5.337
0.141,0.040,0.284,-5.337
0.229,0.038,0.282,-5.337
0.228,0.039,0.284,-5.337
0.141,0.039,0.288,-5.337
0.156,0.038,0.287,-5.337
0.168,0.042,0.283,-5.337
0.161,0.043,0.280,-5.337
0.148,0.043,0.285,-5.337
0.153,0.041,0.287,-5.337
0.094,0.043,0.280,-5.337
0.080,0.041,0.277,-5.337
0.167,0.040,0.280,-5.337
0.186,0.045,0.279,-5.337
0.194,0.043,0.280,-5.337
0.120,0.038,0.284,-5.337
0.098,0.035,0.288,-5.337
0.155,0.033,0.285,-5.337
0.159,0.037,0.283,-5.337
0.156,0.034,0.286,-5.337
0.181,0.033,0.287,-5.337
0.202,0.032,0.285,-5.337
0.188,0.033,0.282,-5.337
0.151,0.034,0.285,-5.337
0.117,0.033,0.285,-5.337
0.053,0.034,0.281,-5.337
0.079,0.031,0.280,-5.337
0.117,0.032,0.283,-5.337
0.147,0.032,0.280,-5.337
0.179,0.030,0.281,-5.337
0.148,0.030,0.280,-5.337
0.202,0.029,0.280,-5.337
0.259,0.029,0.281,-5.337
0.219,0.029,0.285,-5.337
0.120,0.030,0.285,-5.337
0.080,0.033,0.284,-5.337
0.097,0.030,0.282,-5.337
0.113,0.032,0.281,-5.337
0.085,0.031,0.277,-5.337
0.039,0.031,0.280,-5.337
0.041,0.031,0.286,-5.337
0.134,0.033,0.287,-5.337
0.241,0.029,0.286,-5.337
0.212,0.029,0.285,-5.337
0.194,0.030,0.283,-5.337
0.215,0.031,0.279,-5.337
0.161,0.032,0.280,-5.337
0.126,0.032,0.279,-5.337
0.065,0.036,0.282,-5.337
0.096,0.038,0.283,-5.337
0.139,0.039,0.284,-5.337
0.161,0.038,0.281,-5.337
0.159,0.040,0.278,-5.337
0.151,0.038,0.279,-5.337
0.169,0.039,0.286,-5.337
0.166,0.036,0.292,-5.337
0.158,0.035,0.292,-5.337
0.233,0.034,0.285,-5.337
0.187,0.039,0.284,-5.337
0.094,0.042,0.283,-5.337
0.051,0.040,0.280,-5.337
0.081,0.036,0.277,-5.337
0.112,0.039,0.280,-5.337
0.137,0.037,0.285,-5.337
0.162,0.037,0.286,-5.337
0.159,0.035,0.286,-5.337
0.184,0.034,0.286,-5.337
0.147,0.032,0.287,-5.337
0.118,0.032,0.288,-5.337
0.085,0.034,0.288,-5.337
0.039,0.034,0.284,-5.337
0.048,0.034,0.284,-5.337
0.106,0.032,0.285,-5.337
0.113,0.034,0.284,-5.337
0.080,0.032,0.285,-5.337
0.103,0.035,0.284,-5.337
0.152,0.035,0.283,-5.337
0.067,0.032,0.282,-5.337
0.020,0.033,0.280,-5.337
0.048,0.034,0.282,-5.337
0.106,0.033,0.283,-5.337
0.125,0.032,0.283,-5.337
0.124,0.031,0.282,-5.337
0.178,0.029,0.283,-5.337
0.072,0.034,0.287,-5.337
0.001,0.033,0.284,-5.337
0.034,0.033,0.284,-5.337
-0.021,0.035,0.286,-5.337
0.013,0.034,0.289,-5.337
0.057,0.032,0.286,-5.337
0.110,0.028,0.286,-5.337
0.150,0.031,0.285,-5.337
0.032,0.037,0.284,-5.337
0.045,0.037,0.281,-5.337
0.102,0.034,0.282,-5.337
0.135,0.030,0.282,-5.337
0.085,0.033,0.283,-5.337
0.125,0.032,0.286,-5.337
0.182,0.031,0.288,-5.337
0.191,0.028,0.286,-5.337
0.153,0.030,0.286,-5.337
0.056,0.030,0.285,-5.337
0.004,0.029,0.286,-5.337
0.008,0.032,0.285,-5.337
0.054,0.033,0.284,-5.337
0.080,0.034,0.282,-5.337
0.125,0.030,0.281,-5.337
0.146,0.028,0.282,-5.337
0.138,0.032,0.282,-5.337
0.087,0.035,0.284,-5.337
0.021,0.035,0.284,-5.337
0.025,0.034,0.287,-5.337
0.049,0.034,0.286,-5.337
0.049,0.035,0.285,-5.337
0.125,0.030,0.283,-5.337
0.165,0.030,0.286,-5.337
0.093,0.028,0.283,-5.337
0.062,0.030,0.284,-5.337
0.019,0.034,0.284,-5.337
0.028,0.036,0.281,-5.337
0.046,0.031,0.278,-5.337
0.023,0.026,0.281,-5.337
0.014,0.028,0.283,-5.337
0.052,0.029,0.284,-5.337
0.082,0.028,0.284,-5.337
0.150,0.028,0.284,-5.337
0.148,0.027,0.283,-5.337
0.139,0.029,0.283,-5.337
0.159,0.027,0.283,-5.337
0.200,0.024,0.282,-5.337
0.208,0.028,0.280,-5.337
0.098,0.033,0.286,-5.337
0.051,0.029,0.290,-5.337
0.113,0.026,0.292,-5.337
0.159,0.028,0.291,-5.337
0.027,0.033,0.283,-5.337
-0.032,0.033,0.285,-5.337
0.118,0.029,0.283,-5.337
0.130,0.031,0.280,-5.337
0.068,0.031,0.279,-5.337
0.096,0.031,0.282,-5.337
0.099,0.034,0.285,-5.337
0.049,0.036,0.283,-5.337
0.060,0.037,0.280,-5.337
0.078,0.036,0.281,-5.337
0.084,0.036,0.284,-5.337
0.091,0.038,0.288,-5.337
0.130,0.033,0.289,-5.337
0.123,0.037,0.283,-5.337
0.029,0.041,0.279,-5.337
0.049,0.042,0.283,-5.337
0.135,0.039,0.286,-5.337
0.147,0.036,0.289,-5.337
0.203,0.034,0.290,-5.337
0.259,0.033,0.285,-5.337
0.257,0.033,0.284,-5.337
0.157,0.036,0.286,-5.337
0.071,0.041,0.288,-5.337
0.013,0.042,0.286,-5.337
0.006,0.041,0.285,-5.337
-0.021,0.040,0.280,-5.337
-0.038,0.041,0.283,-5.337
0.031,0.041,0.284,-5.337
0.185,0.039,0.283,-5.337
0.152,0.039,0.280,-5.337
0.109,0.040,0.284,-5.337
0.152,0.039,0.287,-5.337
0.115,0.042,0.288,-5.337
0.208,0.037,0.288,-5.337
0.220,0.042,0.287,-5.337
0.101,0.043,0.286,-5.337
0.127,0.039,0.281,-5.337
0.181,0.040,0.279,-5.337
0.104,0.038,0.280,-5.337
0.078,0.037,0.283,-5.337
0.107,0.039,0.284,-5.337
0.139,0.041,0.289,-5.337
0.177,0.036,0.288,-5.337
0.195,0.035,0.286,-5.337
0.164,0.038,0.281,-5.337
0.177,0.038,0.281,-5.337
0.244,0.036,0.283,-5.337
0.218,0.036,0.284,-5.337
0.173,0.035,0.284,-5.337
0.251,0.034,0.283,-5.337
0.236,0.037,0.282,-5.337
0.187,0.042,0.283,-5.337
0.242,0.039,0.285,-5.337
0.244,0.039,0.288,-5.337
0.216,0.037,0.288,-5.337
0.232,0.039,0.291,-5.337
0.179,0.043,0.288,-5.337
0.185,0.042,0.286,-5.337
0.217,0.041,0.286,-5.337
0.180,0.042,0.285,-5.337
0.125,0.044,0.285,-5.337
0.141,0.045,0.286,-5.337
0.122,0.044,0.286,-5.337
0.102,0.047,0.285,-5.337
0.185,0.045,0.284,-5.337
0.256,0.045,0.282,-5.337
0.226,0.047,0.281,-5.337
0.179,0.047,0.285,-5.337
0.143,0.047,0.288,-5.337
0.079,0.049,0.288,-5.337
0.146,0.046,0.285,-5.337
0.166,0.045,0.283,-5.337
0.112,0.045,0.282,-5.337
0.169,0.044,0.281,-5.337
0.223,0.045,0.283,-5.337
0.188,0.047,0.286,-5.337
0.159,0.046,0.285,-5.337
0.162,0.046,0.280,-5.337
0.209,0.047,0.280,-5.337
0.307,0.048,0.281,-5.337
0.281,0.049,0.282,-5.337
0.221,0.046,0.283,-5.337
0.192,0.046,0.286,-5.337
0.249,0.047,0.286,-5.337
0.298,0.047,0.284,-5.337
0.229,0.054,0.284,-5.337
0.176,0.055,0.282,-5.337
0.170,0.054,0.282,-5.337
0.255,0.050,0.280,-5.337
0.322,0.049,0.284,-5.337
0.394,0.051,0.286,-5.337
0.364,0.053,0.286,-5.337
0.301,0.051,0.283,-5.337
0.270,0.051,0.285,-5.337
0.206,0.053,0.289,-5.337
0.205,0.057,0.288,-5.337
0.247,0.055,0.282,-5.337
0.291,0.054,0.281,-5.337
0.247,0.057,0.283,-5.337
0.154,0.059,0.286,-5.337
0.139,0.058,0.286,-5.337
0.224,0.055,0.285,-5.337
0.279,0.058,0.282,-5.337
0.226,0.061,0.283,-5.337
0.146,0.058,0.284,-5.337
0.160,0.056,0.285,-5.337
0.228,0.058,0.286,-5.337
0.255,0.057,0.282,-5.337
0.270,0.054,0.279,-5.337
0.225,0.053,0.279,-5.337
0.193,0.054,0.280,-5.337
0.263,0.052,0.281,-5.337
0.296,0.051,0.283,-5.337
0.238,0.054,0.283,-5.337
0.198,0.051,0.282,-5.337
0.180,0.050,0.280,-5.337
0.234,0.052,0.283,-5.337
0.266,0.054,0.284,-5.337
0.189,0.056,0.284,-5.337
0.083,0.058,0.284,-5.337
0.125,0.054,0.285,-5.337
0.207,0.051,0.284,-5.337
0.221,0.052,0.283,-5.337
0.246,0.054,0.282,-5.337
0.291,0.052,0.281,-5.337
0.315,0.051,0.282,-5.337
0.300,0.054,0.287,-5.337
0.296,0.053,0.291,-5.337
0.346,0.053,0.293,-5.337
0.305,0.053,0.291,-5.337
0.240,0.054,0.289,-5.337
0.257,0.053,0.287,-5.337
0.329,0.050,0.281,-5.337
0.332,0.052,0.283,-5.337
0.340,0.049,0.279,-5.337
0.361,0.050,0.278,-5.337
0.346,0.049,0.279,-5.337
0.347,0.050,0.282,-5.337
0.284,0.054,0.284,-5.337
0.253,0.055,0.284,-5.337
0.245,0.054,0.282,-5.337
0.262,0.053,0.280,-5.337
0.266,0.052,0.282,-5.337
0.198,0.054,0.287,-5.337
0.259,0.051,0.287,-5.337
0.310,0.052,0.282,-5.337
0.269,0.054,0.280,-5.337
0.220,0.054,0.281,-5.337
0.264,0.055,0.283,-5.337
0.329,0.053,0.283,-5.337
0.330,0.054,0.283,-5.337
0.314,0.055,0.281,-5.337
0.293,0.052,0.282,-5.337
0.272,0.052,0.282,-5.337
0.338,0.049,0.286,-5.337
0.353,0.046,0.283,-5.337
0.337,0.049,0.283,-5.337
0.369,0.049,0.281,-5.337
0.380,0.054,0.283,-5.337
0.361,0.054,0.283,-5.337
0.346,0.054,0.284,-5.337
0.265,0.057,0.284,-5.337
0.273,0.057,0.284,-5.337
0.325,0.053,0.286,-5.337
0.294,0.056,0.283,-5.337
0.356,0.056,0.278,-5.337
0.390,0.058,0.275,-5.337
0.333,0.057,0.276,-5.337
0.303,0.055,0.276,-5.337
0.232,0.059,0.277,-5.337
0.258,0.061,0.282,-5.337
0.264,0.059,0.286,-5.337
0.241,0.060,0.286,-5.337
0.339,0.058,0.286,-5.337
0.393,0.057,0.283,-5.337
0.345,0.059,0.282,-5.337
0.299,0.059,0.280,-5.337
0.280,0.064,0.280,-5.337
0.238,0.065,0.278,-5.337
0.276,0.064,0.281,-5.337
0.305,0.062,0.284,-5.337
0.292,0.064,0.287,-5.337
0.310,0.065,0.289,-5.337
0.303,0.068,0.286,-5.337
0.353,0.064,0.282,-5.337
0.361,0.062,0.278,-5.337
0.348,0.064,0.280,-5.337
0.382,0.063,0.278,-5.337
0.371,0.060,0.272,-5.337
0.333,0.062,0.274,-5.337
0.284,0.062,0.282,-5.337
0.324,0.061,0.285,-5.337
0.356,0.058,0.284,-5.337
0.304,0.057,0.282,-5.337
0.240,0.059,0.281,-5.337
0.283,0.057,0.284,-5.337
0.325,0.059,0.285,-5.337
0.329,0.062,0.282,-5.337
0.334,0.060,0.283,-5.337
0.354,0.059,0.279,-5.337
0.333,0.060,0.280,-5.337
0.332,0.060,0.280,-5.337
0.349,0.059,0.284,-5.337
0.330,0.060,0.284,-5.337
0.323,0.062,0.281,-5.337
0.331,0.062,0.281,-5.337
0.327,0.060,0.281,-5.337
0.424,0.054,0.279,-5.337
0.374,0.057,0.278,-5.337
0.313,0.061,0.281,-5.337
0.272,0.062,0.285,-5.337
0.282,0.061,0.288,-5.337
0.402,0.058,0.283,-5.337
0.438,0.057,0.280,-5.337
0.377,0.061,0.281,-5.337
0.296,0.062,0.284,-5.337
0.240,0.061,0.286,-5.337
0.223,0.064,0.285,-5.337
0.233,0.062,0.280,-5.337
0.260,0.062,0.277,-5.337
0.278,0.064,0.279,-5.337
0.284,0.063,0.283,-5.337
0.263,0.064,0.282,-5.337
0.317,0.062,0.283,-5.337
0.331,0.060,0.283,-5.337
0.297,0.063,0.285,-5.337
0.258,0.065,0.286,-5.337
0.285,0.065,0.285,-5.337
0.313,0.066,0.283,-5.337
0.314,0.064,0.280,-5.337
0.349,0.062,0.277,-5.337
0.380,0.061,0.279,-5.337
0.341,0.060,0.282,-5.337
0.325,0.061,0.284,-5.337
0.269,0.062,0.284,-5.337
0.253,0.065,0.285,-5.337
0.281,0.062,0.286,-5.337
0.327,0.058,0.285,-5.337
0.301,0.059,0.281,-5.337
0.273,0.063,0.282,-5.337
0.314,0.060,0.286,-5.337
0.399,0.057,0.287,-5.337
0.378,0.058,0.287,-5.337
0.261,0.061,0.283,-5.337
0.219,0.060,0.280,-5.337
0.332,0.055,0.277,-5.337
0.289,0.056,0.274,-5.337
0.212,0.056,0.273,-5.337
0.287,0.055,0.273,-5.337
0.348,0.054,0.281,-5.337
0.298,0.055,0.288,-5.337
0.269,0.054,0.287,-5.337
0.311,0.058,0.284,-5.337
0.300,0.058,0.285,-5.337
0.289,0.058,0.285,-5.337
0.343,0.055,0.283,-5.337
0.401,0.057,0.283,-5.337
0.292,0.061,0.286,-5.337
0.252,0.055,0.290,-5.337
0.324,0.052,0.291,-5.337
0.403,0.052,0.291,-5.337
0.429,0.057,0.287,-5.337
0.373,0.058,0.280,-5.337
0.303,0.059,0.277,-5.337
0.267,0.058,0.278,-5.337
0.351,0.055,0.282,-5.337
0.338,0.055,0.283,-5.337
0.296,0.051,0.284,-5.337
0.357,0.048,0.282,-5.337
0.339,0.052,0.283,-5.337
0.299,0.051,0.286,-5.337
0.340,0.049,0.283,-5.337
0.341,0.051,0.281,-5.337
0.294,0.048,0.283,-5.337
0.228,0.046,0.284,-5.337
0.200,0.046,0.281,-5.337
0.281,0.043,0.277,-5.337
0.249,0.045,0.280,-5.337
0.221,0.047,0.282,-5.337
0.266,0.043,0.284,-5.337
0.280,0.045,0.287,-5.337
0.233,0.048,0.289,-5.337
0.248,0.048,0.286,-5.337
0.166,0.053,0.283,-5.337
0.173,0.054,0.283,-5.337
0.284,0.053,0.283,-5.337
0.328,0.054,0.287,-5.337
0.356,0.054,0.287,-5.337
0.322,0.055,0.286,-5.337
0.263,0.052,0.283,-5.337
0.221,0.053,0.285,-5.337
0.252,0.056,0.286,-5.337
0.259,0.055,0.288,-5.337
0.313,0.051,0.281,-5.337
0.324,0.048,0.278,-5.337
0.262,0.049,0.281,-5.337
0.303,0.045,0.280,-5.337
0.242,0.043,0.281,-5.337
0.207,0.050,0.289,-5.337
0.209,0.048,0.294,-5.337
0.268,0.044,0.292,-5.337
0.370,0.045,0.284,-5.337
0.360,0.049,0.280,-5.337
0.326,0.047,0.280,-5.337
0.322,0.048,0.282,-5.337
0.359,0.046,0.282,-5.337
0.384,0.043,0.284,-5.337
0.311,0.042,0.287,-5.337
0.244,0.042,0.286,-5.337
0.227,0.046,0.284,-5.337
0.210,0.045,0.282,-5.337
0.186,0.040,0.282,-5.337
0.220,0.036,0.278,-5.337
0.309,0.034,0.276,-5.337
0.297,0.040,0.281,-5.337
0.278,0.042,0.286,-5.337
0.301,0.040,0.286,-5.337
0.208,0.043,0.284,-5.337
0.117,0.043,0.286,-5.337
0.169,0.043,0.285,-5.337
0.194,0.039,0.284,-5.337
0.183,0.039,0.283,-5.337
0.172,0.041,0.284,-5.337
0.187,0.039,0.284,-5.337
0.132,0.040,0.286,-5.337
0.122,0.042,0.284,-5.337
0.236,0.042,0.280,-5.337
0.299,0.041,0.278,-5.337
0.248,0.040,0.281,-5.337
0.269,0.041,0.281,-5.337
0.231,0.043,0.286,-5.337
0.165,0.042,0.292,-5.337
0.269,0.038,0.292,-5.337
0.326,0.040,0.288,-5.337
0.219,0.045,0.287,-5.337
0.177,0.045,0.282,-5.337
0.217,0.042,0.281,-5.337
0.224,0.041,0.278,-5.337
0.259,0.042,0.276,-5.337
0.212,0.047,0.277,-5.337
0.156,0.049,0.283,-5.337
0.244,0.045,0.286,-5.337
0.238,0.045,0.284,-5.337
0.159,0.043,0.280,-5.337
0.152,0.044,0.283,-5.337
0.233,0.044,0.283,-5.337
0.227,0.042,0.280,-5.337
0.163,0.040,0.281,-5.337
0.130,0.041,0.281,-5.337
0.130,0.043,0.283,-5.337
0.172,0.042,0.282,-5.337
0.178,0.041,0.285,-5.337
0.196,0.040,0.283,-5.337
0.181,0.040,0.280,-5.337
0.122,0.042,0.280,-5.337
0.117,0.042,0.284,-5.337
0.103,0.041,0.285,-5.337
0.097,0.040,0.286,-5.337
0.066,0.039,0.286,-5.337
0.019,0.046,0.284,-5.337
0.055,0.043,0.281,-5.337
0.167,0.042,0.281,-5.337
0.181,0.042,0.282,-5.337
0.190,0.044,0.281,-5.337
0.168,0.047,0.281,-5.337
0.094,0.046,0.283,-5.337
0.068,0.044,0.283,-5.337
0.102,0.042,0.281,-5.337
0.212,0.039,0.282,-5.337
0.269,0.038,0.280,-5.337
0.233,0.041,0.281,-5.337
0.167,0.042,0.281,-5.337
0.094,0.044,0.282,-5.337
0.036,0.041,0.284,-5.337
0.106,0.036,0.287,-5.337
0.158,0.038,0.286,-5.337
0.164,0.037,0.287,-5.337
0.176,0.034,0.284,-5.337
0.252,0.031,0.281,-5.337
0.243,0.033,0.280,-5.337
0.144,0.036,0.283,-5.337
0.119,0.037,0.281,-5.337
0.182,0.037,0.280,-5.337
0.179,0.035,0.280,-5.337
0.146,0.035,0.283,-5.337
0.113,0.037,0.285,-5.337
0.089,0.036,0.284,-5.337
0.089,0.037,0.283,-5.337
0.072,0.036,0.284,-5.337
0.079,0.039,0.284,-5.337
0.076,0.040,0.284,-5.337
0.119,0.035,0.285,-5.337
0.151,0.034,0.284,-5.337
0.186,0.032,0.286,-5.337
0.223,0.032,0.284,-5.337
0.199,0.033,0.281,-5.337
0.154,0.032,0.280,-5.337
0.175,0.032,0.283,-5.337
0.209,0.032,0.282,-5.337
0.117,0.038,0.280,-5.337
0.010,0.040,0.280,-5.337
0.046,0.037,0.283,-5.337
0.109,0.037,0.280,-5.337
0.087,0.039,0.281,-5.337
0.093,0.038,0.282,-5.337
0.152,0.037,0.287,-5.337
0.173,0.036,0.291,-5.337
0.066,0.040,0.287,-5.337
0.047,0.040,0.283,-5.337
0.137,0.040,0.281,-5.337
0.150,0.040,0.282,-5.337
0.106,0.039,0.282,-5.337
0.107,0.040,0.281,-5.337
0.139,0.041,0.282,-5.337
0.166,0.038,0.283,-5.337
0.191,0.039,0.280,-5.337
0.176,0.039,0.280,-5.337
0.096,0.041,0.279,-5.337
0.037,0.042,0.279,-5.337
0.065,0.041,0.282,-5.337
0.116,0.043,0.286,-5.337
0.146,0.041,0.288,-5.337
0.102,0.042,0.290,-5.337
0.059,0.042,0.286,-5.337
0.096,0.039,0.284,-5.337
0.216,0.041,0.282,-5.337
0.215,0.044,0.282,-5.337
0.169,0.040,0.280,-5.337
0.094,0.040,0.280,-5.337
0.020,0.037,0.281,-5.337
0.093,0.037,0.283,-5.337
0.219,0.035,0.284,-5.337
0.157,0.033,0.284,-5.337
0.089,0.033,0.283,-5.337
0.040,0.036,0.284,-5.337
0.051,0.034,0.284,-5.337
0.054,0.033,0.285,-5.337
-0.000,0.036,0.283,-5.337
-0.015,0.035,0.280,-5.337
0.093,0.033,0.279,-5.337
0.147,0.034,0.282,-5.337
0.125,0.035,0.286,-5.337
0.092,0.038,0.286,-5.337
0.042,0.037,0.285,-5.337
0.048,0.040,0.279,-5.337
0.106,0.041,0.278,-5.337
0.092,0.041,0.279,-5.337
0.080,0.039,0.279,-5.337
0.081,0.038,0.278,-5.337
0.007,0.042,0.278,-5.337
-0.011,0.042,0.282,-5.337
0.068,0.044,0.283,-5.337
0.066,0.041,0.282,-5.337
0.087,0.037,0.283,-5.337
0.157,0.035,0.283,-5.337
0.134,0.036,0.281,-5.337
0.143,0.038,0.280,-5.337
0.155,0.040,0.282,-5.337
0.163,0.035,0.285,-5.337
0.112,0.039,0.284,-5.337
0.123,0.037,0.287,-5.337
0.137,0.038,0.283,-5.337
0.110,0.038,0.280,-5.337
0.127,0.037,0.276,-5.337
0.146,0.039,0.278,-5.337
0.162,0.039,0.283,-5.337
0.123,0.040,0.286,-5.337
0.038,0.039,0.285,-5.337
0.070,0.040,0.282,-5.337
0.182,0.039,0.281,-5.337
0.113,0.040,0.283,-5.337
0.165,0.035,0.281,-5.337
0.153,0.041,0.280,-5.337
0.113,0.043,0.283,-5.337
0.120,0.038,0.284,-5.337
0.064,0.036,0.283,-5.337
0.090,0.033,0.280,-5.337
0.109,0.037,0.277,-5.337
0.095,0.037,0.278,-5.337
0.081,0.035,0.284,-5.337
0.067,0.035,0.283,-5.337
0.072,0.035,0.282,-5.337
0.047,0.034,0.284,-5.337
0.106,0.029,0.285,-5.337
0.189,0.030,0.284,-5.337
0.153,0.032,0.284,-5.337
0.089,0.032,0.281,-5.337
0.041,0.033,0.281,-5.337
0.042,0.033,0.283,-5.337
0.040,0.036,0.287,-5.337
0.007,0.037,0.284,-5.337
0.013,0.039,0.283,-5.337
0.095,0.031,0.282,-5.337
0.141,0.031,0.280,-5.337
0.119,0.031,0.280,-5.337
0.105,0.034,0.284,-5.337
0.147,0.032,0.287,-5.337
0.095,0.034,0.283,-5.337
0.024,0.037,0.277,-5.337
0.044,0.033,0.278,-5.337
0.086,0.034,0.279,-5.337
0.117,0.037,0.281,-5.337
0.102,0.039,0.281,-5.337
0.141,0.040,0.282,-5.337
0.163,0.035,0.286,-5.337
0.144,0.035,0.286,-5.337
0.116,0.038,0.283,-5.337
0.135,0.037,0.284,-5.337
0.184,0.035,0.286,-5.337
0.241,0.036,0.285,-5.337
0.222,0.039,0.283,-5.337
0.150,0.039,0.281,-5.337
0.098,0.037,0.288,-5.337
0.032,0.038,0.287,-5.337
0.070,0.038,0.281,-5.337
0.079,0.040,0.275,-5.337
0.063,0.039,0.276,-5.337
0.095,0.033,0.277,-5.337
0.168,0.032,0.277,-5.337
0.148,0.036,0.282,-5.337
0.117,0.037,0.286,-5.337
0.174,0.034,0.286,-5.337
0.204,0.035,0.284,-5.337
0.132,0.035,0.281,-5.337
0.074,0.042,0.284,-5.337
0.121,0.039,0.290,-5.337
0.221,0.037,0.292,-5.337
0.201,0.039,0.287,-5.337
0.150,0.038,0.283,-5.337
0.118,0.042,0.282,-5.337
0.123,0.040,0.282,-5.337
0.166,0.038,0.281,-5.337
0.176,0.037,0.281,-5.337
0.162,0.039,0.282,-5.337
0.137,0.043,0.280,-5.337
0.061,0.047,0.280,-5.337
0.074,0.044,0.281,-5.337
0.153,0.045,0.282,-5.337
0.154,0.047,0.285,-5.337
0.087,0.045,0.284,-5.337
0.098,0.042,0.280,-5.337
0.127,0.043,0.278,-5.337
0.064,0.044,0.280,-5.337
0.009,0.044,0.282,-5.337
0.068,0.040,0.283,-5.337
0.169,0.042,0.284,-5.337
0.203,0.046,0.283,-5.337
0.173,0.045,0.279,-5.337
0.127,0.045,0.278,-5.337
0.126,0.040,0.282,-5.337
0.100,0.043,0.285,-5.337
0.165,0.042,0.285,-5.337
0.152,0.041,0.288,-5.337
0.120,0.041,0.291,-5.337
0.217,0.039,0.291,-5.337
0.210,0.043,0.288,-5.337
0.171,0.041,0.285,-5.337
0.198,0.040,0.278,-5.337
0.191,0.042,0.276,-5.337
0.110,0.042,0.280,-5.337
0.120,0.042,0.284,-5.337
0.161,0.040,0.283,-5.337
0.149,0.044,0.284,-5.337
0.179,0.043,0.287,-5.337
0.239,0.043,0.289,-5.337
0.220,0.043,0.284,-5.337
0.204,0.041,0.282,-5.337
0.170,0.046,0.282,-5.337
0.111,0.050,0.285,-5.337
0.103,0.050,0.286,-5.337
0.145,0.047,0.284,-5.337
0.209,0.046,0.283,-5.337
0.209,0.046,0.284,-5.337
0.258,0.045,0.288,-5.337
0.202,0.048,0.289,-5.337
0.155,0.049,0.285,-5.337
0.183,0.049,0.278,-5.337
0.201,0.050,0.279,-5.337
0.156,0.048,0.279,-5.337
0.151,0.045,0.280,-5.337
0.197,0.043,0.281,-5.337
0.268,0.048,0.283,-5.337
0.241,0.052,0.284,-5.337
0.273,0.050,0.285,-5.337
0.247,0.050,0.285,-5.337
0.233,0.049,0.287,-5.337
0.224,0.049,0.290,-5.337
0.247,0.048,0.287,-5.337
0.270,0.050,0.284,-5.337
0.237,0.053,0.286,-5.337
0.206,0.050,0.292,-5.337
0.126,0.051,0.289,-5.337
0.102,0.052,0.282,-5.337
0.242,0.048,0.278,-5.337
0.321,0.047,0.281,-5.337
0.290,0.048,0.284,-5.337
0.217,0.046,0.286,-5.337
0.234,0.046,0.282,-5.337
0.223,0.047,0.281,-5.337
0.211,0.049,0.279,-5.337
0.141,0.048,0.279,-5.337
0.100,0.049,0.278,-5.337
0.113,0.050,0.283,-5.337
0.197,0.046,0.287,-5.337
0.221,0.049,0.288,-5.337
0.271,0.049,0.282,-5.337
0.234,0.051,0.279,-5.337
0.122,0.048,0.280,-5.337
0.189,0.049,0.282,-5.337
0.254,0.052,0.281,-5.337
0.298,0.055,0.280,-5.337
0.292,0.053,0.280,-5.337
0.299,0.048,0.281,-5.337
0.360,0.048,0.282,-5.337
0.378,0.050,0.279,-5.337
0.252,0.054,0.283,-5.337
0.157,0.052,0.285,-5.337
0.150,0.053,0.286,-5.337
0.198,0.051,0.282,-5.337
0.248,0.052,0.283,-5.337
0.267,0.050,0.283,-5.337
0.267,0.049,0.284,-5.337
0.231,0.048,0.284,-5.337
0.227,0.050,0.287,-5.337
0.285,0.048,0.284,-5.337
0.266,0.049,0.283,-5.337
0.210,0.044,0.282,-5.337
0.256,0.042,0.282,-5.337
0.274,0.043,0.281,-5.337
0.281,0.047,0.283,-5.337
0.331,0.049,0.286,-5.337
0.328,0.050,0.285,-5.337
0.331,0.048,0.281,-5.337
0.300,0.051,0.277,-5.337
0.278,0.050,0.278,-5.337
0.280,0.049,0.279,-5.337
0.327,0.047,0.282,-5.337
0.400,0.043,0.282,-5.337
0.401,0.046,0.281,-5.337
0.387,0.047,0.279,-5.337
0.363,0.050,0.285,-5.337
0.315,0.051,0.285,-5.337
0.255,0.052,0.286,-5.337
0.241,0.055,0.285,-5.337
0.268,0.054,0.282,-5.337
0.306,0.050,0.280,-5.337
0.318,0.052,0.282,-5.337
0.321,0.052,0.283,-5.337
0.303,0.051,0.283,-5.337
0.295,0.050,0.286,-5.337
0.274,0.050,0.286,-5.337
0.297,0.052,0.284,-5.337
0.366,0.050,0.283,-5.337
0.312,0.053,0.281,-5.337
0.318,0.051,0.279,-5.337
0.442,0.044,0.280,-5.337
1.408,0.018,0.285,-5.337
2.747,-0.002,0.285,-5.337
3.436,-0.003,0.281,-5.337
3.491,0.002,0.280,-5.337
3.370,0.005,0.282,-5.337
3.261,0.005,0.280,-5.337
3.177,0.006,0.278,-5.337
3.134,0.007,0.282,-5.337
3.044,0.006,0.287,-5.337
2.909,0.010,0.287,-5.337
2.766,0.011,0.282,-5.337
2.630,0.014,0.280,-5.337
2.591,0.011,0.280,-5.337
2.540,0.014,0.281,-5.337
2.436,0.018,0.282,-5.337
2.300,0.021,0.283,-5.337
2.137,0.022,0.283,-5.337
2.055,0.024,0.284,-5.337
2.006,0.025,0.285,-5.337
1.957,0.029,0.288,-5.337
1.872,0.030,0.285,-5.337
1.684,0.028,0.283,-5.337
1.656,0.025,0.281,-5.337
1.711,0.029,0.279,-5.337
1.651,0.031,0.280,-5.337
1.513,0.031,0.280,-5.337
1.440,0.032,0.280,-5.337
1.434,0.033,0.279,-5.337
1.487,0.033,0.282,-5.337
1.428,0.036,0.285,-5.337
0.285,0.065,0.288,-5.337
-1.189,0.088,0.287,-5.337
-1.766,0.088,0.284,-5.337
-1.717,0.076,0.282,-5.337
-1.690,0.069,0.283,-5.337
-1.676,0.054,0.280,-5.337
-1.630,0.038,0.282,-5.337
-1.527,0.028,0.283,-5.337
-1.435,0.028,0.282,-5.337
-1.281,0.027,0.284,-5.337
-1.081,0.028,0.283,-5.337
-0.906,0.026,0.280,-5.337
-0.790,0.022,0.279,-5.337
-0.697,-0.006,0.282,-5.337
-0.626,-0.064,0.281,-5.337
-0.641,-0.139,0.278,-5.337
-0.608,-0.225,0.277,-5.337
-0.482,-0.321,0.281,-5.337
-0.377,-0.411,0.286,-5.337
-0.319,-0.484,0.289,-5.337
-0.269,-0.540,0.286,-5.337
-0.268,-0.583,0.285,-5.337
-0.299,-0.609,0.281,-5.337
-0.308,-0.618,0.281,-5.337
-0.339,-0.614,0.280,-5.337
-0.246,-0.603,0.278,-5.337
-0.176,-0.590,0.280,-5.337
-0.231,-0.581,0.285,-5.337
-0.275,-0.567,0.283,-5.337
-0.389,-0.537,0.281,-5.337
-0.438,-0.495,0.280,-5.337
-0.353,-0.438,0.281,-5.337
-0.274,-0.364,0.280,-5.337
-0.314,-0.275,0.281,-5.337
-0.365,-0.173,0.279,-5.337
-0.357,-0.060,0.277,-5.337
-0.266,0.052,0.275,-5.337
-0.248,0.156,0.276,-5.337
-0.304,0.250,0.281,-5.337
-0.254,0.334,0.285,-5.337
-0.210,0.408,0.283,-5.337
-0.207,0.462,0.279,-5.337
-0.222,0.497,0.280,-5.337
-0.270,0.518,0.284,-5.337
-0.286,0.523,0.288,-5.337
-0.275,0.513,0.284,-5.337
-0.299,0.498,0.282,-5.337
-0.246,0.482,0.279,-5.337
-0.165,0.472,0.280,-5.337
-0.174,0.466,0.283,-5.337
-0.190,0.465,0.286,-5.337
-0.174,0.468,0.286,-5.337
-0.187,0.475,0.282,-5.337
-0.151,0.476,0.280,-5.337
-0.086,0.480,0.282,-5.337
-0.153,0.483,0.283,-5.337
-0.177,0.476,0.282,-5.337
-0.074,0.463,0.280,-5.337
0.016,0.447,0.279,-5.337
0.045,0.425,0.283,-5.337
0.040,0.404,0.281,-5.337
0.020,0.382,0.279,-5.337
0.033,0.358,0.282,-5.337
0.105,0.333,0.285,-5.337
0.127,0.311,0.280,-5.337
0.109,0.289,0.277,-5.337
0.068,0.268,0.279,-5.337
0.072,0.249,0.284,-5.337
0.042,0.233,0.284,-5.337
0.050,0.217,0.285,-5.337
0.034,0.199,0.286,-5.337
-0.005,0.186,0.287,-5.337
0.020,0.173,0.290,-5.337
0.040,0.163,0.291,-5.337
0.048,0.153,0.285,-5.337
0.026,0.142,0.281,-5.337
0.099,0.134,0.281,-5.337
0.161,0.126,0.280,-5.337
0.139,0.117,0.275,-5.337
0.150,0.110,0.274,-5.337
0.127,0.106,0.278,-5.337
0.144,0.103,0.283,-5.337
0.183,0.096,0.285,-5.337
0.198,0.090,0.286,-5.337
0.183,0.082,0.285,-5.337
0.124,0.076,0.282,-5.337
0.105,0.072,0.283,-5.337
0.131,0.069,0.285,-5.337
0.243,0.064,0.287,-5.337
0.260,0.060,0.283,-5.337
0.161,0.060,0.280,-5.337
0.117,0.055,0.278,-5.337
0.153,0.058,0.280,-5.337
0.137,0.055,0.284,-5.337
0.072,0.054,0.284,-5.337
0.112,0.053,0.282,-5.337
0.144,0.052,0.284,-5.337
0.184,0.047,0.283,-5.337
0.202,0.045,0.283,-5.337
0.146,0.048,0.282,-5.337
0.135,0.049,0.282,-5.337
0.136,0.047,0.283,-5.337
0.100,0.045,0.285,-5.337
0.104,0.042,0.283,-5.337
0.151,0.042,0.284,-5.337
0.191,0.042,0.284,-5.337
0.160,0.043,0.281,-5.337
0.165,0.041,0.279,-5.337
0.174,0.041,0.275,-5.337
0.175,0.041,0.278,-5.337
0.169,0.038,0.283,-5.337
0.157,0.038,0.290,-5.337
0.110,0.039,0.286,-5.337
0.092,0.042,0.283,-5.337
0.195,0.040,0.283,-5.337
0.307,0.036,0.286,-5.337
0.254,0.031,0.281,-5.337
0.123,0.034,0.281,-5.337
0.102,0.034,0.280,-5.337
0.168,0.037,0.280,-5.337
0.177,0.035,0.282,-5.337
0.212,0.035,0.283,-5.337
0.237,0.037,0.285,-5.337
0.224,0.035,0.284,-5.337
0.209,0.036,0.281,-5.337
0.198,0.037,0.280,-5.337
0.169,0.035,0.280,-5.337
0.154,0.035,0.278,-5.337
0.101,0.036,0.279,-5.337
0.131,0.038,0.280,-5.337
0.123,0.035,0.281,-5.337
0.074,0.034,0.281,-5.337
0.100,0.037,0.283,-5.337
0.119,0.040,0.283,-5.337
0.182,0.037,0.283,-5.337
0.113,0.036,0.280,-5.337
0.071,0.036,0.284,-5.337
