[Parameters]
Operating Mode, Non-Feedback
Subject  AA..ZZ, WT
Session  0..99, 41
No. Trials (1..9999), 500
Mouse Number, 1
Pressure Probe Serial Port, \00\00\00\04COM4
Save additional csv file, TRUE
Save using mouse number, FALSE
A/D Monitor Rate (Hz), 30000.000000
A/D Stimulate Rate (Hz), 30000.000000
A/D input range (+/- V), 5
No. Channels to acquire (N), 2
Pre-Stim Acq. time (ms), 100.000000
Post-Stim Acq. time (ms), 900.000000
Analysis window parameters.M-response Start (ms), 1.100000
Analysis window parameters.M-response Duration (ms), 5.500000
Analysis window parameters.H-response Duration (ms), 6.000000
Analysis window parameters.H-response Start (ms), 6.500000
Feedback window, H response
Proportional gain, 0.100000
Target value, 6.700000
Feedback Ch., 1
Stim Channel to Control (1-4), 4
Trial, 9
Wait for EMG Conditions, FALSE
Channel to monitor (0 - N-1), 1
EMG Hi Limit, 2.000000
EMG Lo Limit, 0.001000
Inter-Stim delay (sec), 10.000000
EMG Monitor Mode, Mean
Time to run Long Stim.(sec), 30
Save Long Stim Data?, OFF
BURST Save time (ms), 1000
BURST Save Interval (x above), 10
Long-Stim. Rep. Rate (Hz), 10.000000
Stim type cluster array.<size(s)>, 4
Stim type cluster array 0.Stimulus Output, Electrical
Stim type cluster array 1.Stimulus Output, OFF
Stim type cluster array 2.Stimulus Output, OFF
Stim type cluster array 3.Stimulus Output, Motor Length
Stim specs cluster array.<size(s)>, 4
Stim specs cluster array 0.Initial Stimulus ampl., 0.300000
Stim specs cluster array 0.Maximum Stimulus, 1.120000
Stim specs cluster array 0.#Pulses in train, 3
Stim specs cluster array 0.Peak Level time (ms), 1.000000
Stim specs cluster array 0.Total pulse period (ms), 150.000000
Stim specs cluster array 0.Start Delay (ms), 0.000000
Stim specs cluster array 0.Pulse Shape, Square
Stim specs cluster array 0.Ramp/Rel. time (ms), 0.100000
Stim specs cluster array 0.Peak Amplitude (V), 0.120000
Stim specs cluster array 1.Initial Stimulus ampl., 0.000000
Stim specs cluster array 1.Maximum Stimulus, 0.000000
Stim specs cluster array 1.#Pulses in train, 3
Stim specs cluster array 1.Peak Level time (ms), 29.000000
Stim specs cluster array 1.Total pulse period (ms), 200.000000
Stim specs cluster array 1.Start Delay (ms), 0.000000
Stim specs cluster array 1.Pulse Shape, Square
Stim specs cluster array 1.Ramp/Rel. time (ms), 0.000000
Stim specs cluster array 1.Peak Amplitude (V), 2.000000
Stim specs cluster array 2.Initial Stimulus ampl., 0.000000
Stim specs cluster array 2.Maximum Stimulus, 0.000000
Stim specs cluster array 2.#Pulses in train, 1
Stim specs cluster array 2.Peak Level time (ms), 25.000000
Stim specs cluster array 2.Total pulse period (ms), 200.000000
Stim specs cluster array 2.Start Delay (ms), 0.000000
Stim specs cluster array 2.Pulse Shape, Square
Stim specs cluster array 2.Ramp/Rel. time (ms), 20.000000
Stim specs cluster array 2.Peak Amplitude (V), 10.000000
Stim specs cluster array 3.Initial Stimulus ampl., 0.000000
Stim specs cluster array 3.Maximum Stimulus, 0.000000
Stim specs cluster array 3.#Pulses in train, 25
Stim specs cluster array 3.Peak Level time (ms), 0.100000
Stim specs cluster array 3.Total pulse period (ms), 4.000000
Stim specs cluster array 3.Start Delay (ms), -5.000000
Stim specs cluster array 3.Pulse Shape, Triangle
Stim specs cluster array 3.Ramp/Rel. time (ms), 3.000000
Stim specs cluster array 3.Peak Amplitude (V), 0.500000
Force cal. (mN/Volt), 100.000000
Force Range (mN), 100.000000
Length cal. (mm/Volt), 10.000000
Length Range (mm), 10.000000
Stim. 1, 0.300000
Stim. 2, 0.000000
Stim. 3, 0.000000
Stim. 4, 0.000000
Monitor acquire time (ms), 100.000000
EMG graph Ymax, 0.100000
Travel limit (mm), 20.000000
Use Pressure Probe, FALSE
Pressure goal (g), 100
Speed (mm/sec), 5.000000
Dwell time (ms), 100.000000
Pressure limit (g), 500.000000
Channel amplitude offset, 0.000000

[DATA]

0.290,0.047,0.278,-5.337
0.190,0.050,0.279,-5.337
0.121,0.052,0.285,-5.337
0.168,0.049,0.283,-5.337
0.314,0.046,0.282,-5.337
0.341,0.047,0.282,-5.337
0.402,0.044,0.282,-5.337
0.449,0.044,0.280,-5.337
0.376,0.044,0.279,-5.337
0.274,0.044,0.281,-5.337
0.290,0.043,0.283,-5.337
0.323,0.040,0.285,-5.337
0.327,0.043,0.286,-5.337
0.307,0.046,0.287,-5.337
0.303,0.045,0.286,-5.337
0.317,0.045,0.283,-5.337
0.206,0.047,0.283,-5.337
0.204,0.046,0.286,-5.337
0.278,0.046,0.287,-5.337
0.286,0.047,0.285,-5.337
0.237,0.049,0.278,-5.337
0.224,0.047,0.277,-5.337
0.199,0.046,0.280,-5.337
0.173,0.048,0.284,-5.337
0.219,0.048,0.284,-5.337
0.237,0.051,0.284,-5.337
0.176,0.051,0.285,-5.337
0.198,0.044,0.286,-5.337
0.210,0.047,0.286,-5.337
0.223,0.048,0.287,-5.337
0.264,0.045,0.283,-5.337
0.317,0.042,0.280,-5.337
0.285,0.044,0.280,-5.337
0.185,0.051,0.280,-5.337
0.135,0.048,0.282,-5.337
0.141,0.042,0.285,-5.337
0.205,0.040,0.288,-5.337
0.265,0.042,0.288,-5.337
0.285,0.043,0.289,-5.337
0.218,0.043,0.285,-5.337
0.135,0.040,0.283,-5.337
0.166,0.038,0.280,-5.337
0.208,0.039,0.278,-5.337
0.242,0.043,0.277,-5.337
0.301,0.043,0.284,-5.337
0.308,0.041,0.286,-5.337
0.244,0.042,0.285,-5.337
0.171,0.045,0.284,-5.337
0.175,0.049,0.284,-5.337
0.174,0.046,0.280,-5.337
0.182,0.043,0.277,-5.337
0.264,0.039,0.276,-5.337
0.270,0.044,0.278,-5.337
0.217,0.046,0.282,-5.337
0.262,0.041,0.282,-5.337
0.313,0.042,0.281,-5.337
0.258,0.042,0.280,-5.337
0.162,0.042,0.281,-5.337
0.148,0.040,0.279,-5.337
0.105,0.042,0.282,-5.337
0.167,0.042,0.287,-5.337
0.212,0.041,0.290,-5.337
0.172,0.040,0.284,-5.337
0.193,0.042,0.282,-5.337
0.262,0.042,0.285,-5.337
0.236,0.045,0.287,-5.337
0.174,0.045,0.286,-5.337
0.187,0.041,0.282,-5.337
0.269,0.040,0.282,-5.337
0.318,0.042,0.282,-5.337
0.227,0.043,0.283,-5.337
0.183,0.043,0.287,-5.337
0.152,0.044,0.288,-5.337
0.140,0.040,0.285,-5.337
0.145,0.036,0.281,-5.337
0.127,0.037,0.281,-5.337
0.117,0.039,0.282,-5.337
0.178,0.041,0.279,-5.337
0.208,0.038,0.278,-5.337
0.165,0.034,0.282,-5.337
0.148,0.034,0.285,-5.337
0.150,0.036,0.281,-5.337
0.076,0.039,0.280,-5.337
0.096,0.036,0.278,-5.337
0.112,0.038,0.280,-5.337
0.138,0.040,0.284,-5.337
0.119,0.041,0.285,-5.337
0.088,0.039,0.286,-5.337
0.066,0.042,0.288,-5.337
0.073,0.037,0.287,-5.337
0.140,0.038,0.285,-5.337
0.142,0.037,0.280,-5.337
0.107,0.036,0.279,-5.337
0.152,0.037,0.281,-5.337
0.119,0.036,0.282,-5.337
0.139,0.033,0.281,-5.337
0.204,0.032,0.283,-5.337
0.171,0.034,0.284,-5.337
0.127,0.038,0.282,-5.337
0.084,0.037,0.285,-5.337
0.148,0.034,0.286,-5.337
0.205,0.035,0.283,-5.337
0.229,0.036,0.279,-5.337
0.171,0.041,0.280,-5.337
0.156,0.037,0.279,-5.337
0.136,0.035,0.281,-5.337
0.066,0.035,0.286,-5.337
0.103,0.039,0.288,-5.337
0.166,0.038,0.286,-5.337
0.176,0.038,0.288,-5.337
0.157,0.037,0.291,-5.337
0.274,0.035,0.289,-5.337
0.240,0.037,0.281,-5.337
0.150,0.041,0.277,-5.337
0.109,0.041,0.279,-5.337
0.072,0.042,0.285,-5.337
0.027,0.043,0.282,-5.337
0.032,0.044,0.278,-5.337
0.076,0.043,0.280,-5.337
0.117,0.041,0.283,-5.337
0.120,0.039,0.287,-5.337
0.087,0.039,0.286,-5.337
0.086,0.042,0.287,-5.337
0.031,0.042,0.284,-5.337
-0.004,0.041,0.284,-5.337
-0.006,0.038,0.282,-5.337
0.099,0.034,0.279,-5.337
0.138,0.033,0.277,-5.337
0.033,0.037,0.278,-5.337
0.037,0.037,0.282,-5.337
0.160,0.035,0.288,-5.337
0.207,0.038,0.290,-5.337
0.155,0.042,0.285,-5.337
0.147,0.041,0.282,-5.337
0.163,0.039,0.281,-5.337
0.118,0.038,0.283,-5.337
0.122,0.036,0.281,-5.337
0.082,0.041,0.279,-5.337
0.001,0.043,0.279,-5.337
0.102,0.039,0.281,-5.337
0.179,0.039,0.280,-5.337
0.074,0.039,0.282,-5.337
0.002,0.034,0.282,-5.337
0.071,0.037,0.283,-5.337
0.101,0.035,0.283,-5.337
0.189,0.037,0.285,-5.337
0.201,0.035,0.282,-5.337
0.104,0.041,0.279,-5.337
0.065,0.040,0.279,-5.337
0.142,0.037,0.281,-5.337
0.162,0.035,0.282,-5.337
0.047,0.042,0.283,-5.337
-0.021,0.041,0.284,-5.337
-0.006,0.037,0.284,-5.337
-0.030,0.033,0.285,-5.337
-0.042,0.037,0.284,-5.337
0.026,0.039,0.284,-5.337
0.086,0.039,0.282,-5.337
0.086,0.039,0.282,-5.337
0.194,0.035,0.282,-5.337
0.249,0.038,0.282,-5.337
0.072,0.042,0.281,-5.337
0.008,0.039,0.283,-5.337
0.014,0.039,0.282,-5.337
0.108,0.033,0.280,-5.337
0.124,0.038,0.278,-5.337
0.051,0.039,0.278,-5.337
0.028,0.035,0.278,-5.337
0.044,0.035,0.279,-5.337
0.092,0.033,0.280,-5.337
0.025,0.032,0.281,-5.337
0.018,0.032,0.284,-5.337
0.081,0.031,0.286,-5.337
0.151,0.032,0.286,-5.337
0.129,0.035,0.285,-5.337
0.083,0.035,0.284,-5.337
0.087,0.035,0.286,-5.337
0.129,0.033,0.289,-5.337
0.068,0.036,0.282,-5.337
0.035,0.035,0.277,-5.337
0.045,0.037,0.278,-5.337
0.005,0.041,0.284,-5.337
-0.008,0.039,0.284,-5.337
0.041,0.036,0.284,-5.337
0.107,0.036,0.281,-5.337
0.096,0.037,0.282,-5.337
0.090,0.035,0.280,-5.337
0.048,0.036,0.275,-5.337
0.040,0.036,0.276,-5.337
0.158,0.032,0.280,-5.337
0.139,0.031,0.282,-5.337
0.057,0.033,0.285,-5.337
0.033,0.033,0.285,-5.337
0.036,0.037,0.283,-5.337
0.060,0.037,0.283,-5.337
0.099,0.037,0.281,-5.337
0.109,0.038,0.280,-5.337
0.072,0.041,0.277,-5.337
0.019,0.041,0.278,-5.337
0.030,0.037,0.282,-5.337
0.011,0.036,0.288,-5.337
0.010,0.036,0.289,-5.337
0.006,0.039,0.285,-5.337
0.106,0.032,0.280,-5.337
0.177,0.036,0.283,-5.337
0.129,0.039,0.281,-5.337
0.107,0.040,0.281,-5.337
0.024,0.042,0.283,-5.337
-0.025,0.038,0.283,-5.337
0.008,0.035,0.281,-5.337
0.087,0.034,0.280,-5.337
0.103,0.031,0.282,-5.337
0.043,0.033,0.284,-5.337
0.048,0.031,0.283,-5.337
0.087,0.031,0.283,-5.337
0.114,0.033,0.284,-5.337
0.151,0.034,0.285,-5.337
0.026,0.032,0.286,-5.337
-0.021,0.030,0.286,-5.337
0.044,0.035,0.287,-5.337
0.154,0.035,0.286,-5.337
0.192,0.030,0.285,-5.337
0.097,0.033,0.279,-5.337
0.059,0.031,0.279,-5.337
0.050,0.032,0.278,-5.337
0.020,0.035,0.278,-5.337
-0.008,0.037,0.280,-5.337
0.029,0.037,0.283,-5.337
0.030,0.039,0.285,-5.337
0.003,0.040,0.283,-5.337
-0.007,0.038,0.282,-5.337
0.073,0.036,0.283,-5.337
0.095,0.039,0.281,-5.337
0.043,0.041,0.280,-5.337
0.036,0.042,0.281,-5.337
0.014,0.044,0.284,-5.337
0.013,0.045,0.284,-5.337
0.071,0.044,0.284,-5.337
0.085,0.043,0.285,-5.337
0.097,0.045,0.282,-5.337
0.076,0.045,0.277,-5.337
0.108,0.042,0.278,-5.337
0.114,0.042,0.282,-5.337
-0.027,0.048,0.285,-5.337
-0.010,0.046,0.286,-5.337
0.094,0.044,0.281,-5.337
0.148,0.042,0.281,-5.337
0.066,0.042,0.280,-5.337
-0.036,0.050,0.283,-5.337
-0.048,0.047,0.283,-5.337
0.078,0.043,0.283,-5.337
0.142,0.039,0.286,-5.337
0.170,0.040,0.286,-5.337
0.209,0.041,0.286,-5.337
0.172,0.038,0.282,-5.337
0.144,0.040,0.278,-5.337
0.110,0.045,0.279,-5.337
0.122,0.047,0.284,-5.337
0.162,0.044,0.287,-5.337
0.213,0.039,0.286,-5.337
0.145,0.042,0.283,-5.337
0.061,0.046,0.281,-5.337
0.042,0.045,0.283,-5.337
0.162,0.044,0.284,-5.337
0.254,0.044,0.280,-5.337
0.238,0.043,0.280,-5.337
0.155,0.045,0.279,-5.337
0.088,0.046,0.282,-5.337
0.071,0.047,0.283,-5.337
0.085,0.046,0.281,-5.337
0.144,0.043,0.279,-5.337
0.180,0.042,0.283,-5.337
0.207,0.041,0.286,-5.337
0.163,0.044,0.284,-5.337
0.086,0.051,0.283,-5.337
0.009,0.053,0.282,-5.337
0.096,0.051,0.279,-5.337
0.195,0.045,0.278,-5.337
0.254,0.042,0.283,-5.337
0.202,0.047,0.284,-5.337
0.145,0.045,0.284,-5.337
0.143,0.048,0.285,-5.337
0.143,0.049,0.288,-5.337
0.176,0.045,0.289,-5.337
0.247,0.044,0.287,-5.337
0.247,0.047,0.280,-5.337
0.175,0.052,0.274,-5.337
0.180,0.048,0.274,-5.337
0.233,0.047,0.278,-5.337
0.168,0.050,0.283,-5.337
0.189,0.045,0.285,-5.337
0.194,0.045,0.286,-5.337
0.096,0.050,0.289,-5.337
0.085,0.049,0.288,-5.337
0.108,0.045,0.288,-5.337
0.129,0.043,0.282,-5.337
0.197,0.047,0.279,-5.337
0.242,0.049,0.280,-5.337
0.223,0.046,0.280,-5.337
0.174,0.046,0.285,-5.337
0.118,0.043,0.288,-5.337
0.191,0.045,0.288,-5.337
0.285,0.045,0.283,-5.337
0.291,0.048,0.281,-5.337
0.226,0.051,0.282,-5.337
0.170,0.051,0.287,-5.337
0.189,0.047,0.286,-5.337
0.190,0.050,0.284,-5.337
0.175,0.051,0.283,-5.337
0.198,0.050,0.282,-5.337
0.198,0.047,0.283,-5.337
0.181,0.049,0.285,-5.337
0.190,0.049,0.284,-5.337
0.248,0.047,0.279,-5.337
0.291,0.045,0.279,-5.337
0.316,0.049,0.277,-5.337
0.245,0.050,0.276,-5.337
0.185,0.050,0.276,-5.337
0.154,0.049,0.276,-5.337
0.244,0.048,0.277,-5.337
0.224,0.049,0.281,-5.337
0.167,0.048,0.283,-5.337
0.108,0.050,0.283,-5.337
0.141,0.050,0.281,-5.337
0.228,0.050,0.282,-5.337
0.281,0.052,0.280,-5.337
0.236,0.054,0.280,-5.337
0.253,0.051,0.284,-5.337
0.331,0.050,0.287,-5.337
0.261,0.049,0.286,-5.337
0.153,0.050,0.286,-5.337
0.206,0.049,0.288,-5.337
0.283,0.049,0.283,-5.337
0.281,0.048,0.279,-5.337
0.284,0.047,0.277,-5.337
0.345,0.050,0.276,-5.337
0.360,0.055,0.279,-5.337
0.319,0.056,0.282,-5.337
0.305,0.057,0.280,-5.337
0.304,0.058,0.280,-5.337
0.226,0.058,0.281,-5.337
0.164,0.057,0.285,-5.337
0.200,0.057,0.283,-5.337
0.241,0.054,0.283,-5.337
0.271,0.052,0.280,-5.337
0.242,0.052,0.282,-5.337
0.186,0.053,0.282,-5.337
0.165,0.057,0.278,-5.337
0.202,0.055,0.277,-5.337
0.308,0.055,0.280,-5.337
0.230,0.054,0.281,-5.337
0.173,0.053,0.284,-5.337
0.232,0.053,0.286,-5.337
0.210,0.053,0.286,-5.337
0.168,0.053,0.281,-5.337
0.205,0.054,0.279,-5.337
0.177,0.053,0.279,-5.337
0.165,0.054,0.281,-5.337
0.251,0.051,0.285,-5.337
0.322,0.052,0.284,-5.337
0.372,0.050,0.282,-5.337
0.308,0.054,0.282,-5.337
0.306,0.056,0.284,-5.337
0.357,0.054,0.287,-5.337
0.355,0.054,0.291,-5.337
0.353,0.053,0.287,-5.337
0.285,0.053,0.283,-5.337
0.303,0.051,0.277,-5.337
0.408,0.052,0.275,-5.337
0.365,0.057,0.277,-5.337
0.255,0.058,0.283,-5.337
0.212,0.056,0.287,-5.337
0.214,0.056,0.287,-5.337
0.192,0.056,0.286,-5.337
0.228,0.055,0.282,-5.337
0.274,0.054,0.283,-5.337
0.305,0.056,0.283,-5.337
0.318,0.057,0.282,-5.337
0.289,0.056,0.279,-5.337
0.277,0.053,0.277,-5.337
0.292,0.056,0.278,-5.337
0.308,0.056,0.281,-5.337
0.330,0.058,0.280,-5.337
0.279,0.058,0.281,-5.337
0.239,0.058,0.282,-5.337
0.216,0.060,0.284,-5.337
0.227,0.059,0.284,-5.337
0.231,0.058,0.282,-5.337
0.230,0.061,0.281,-5.337
0.248,0.062,0.283,-5.337
0.249,0.059,0.288,-5.337
0.260,0.058,0.291,-5.337
0.302,0.059,0.289,-5.337
0.318,0.060,0.281,-5.337
0.305,0.057,0.279,-5.337
0.352,0.059,0.281,-5.337
0.424,0.058,0.284,-5.337
0.373,0.061,0.281,-5.337
0.308,0.062,0.277,-5.337
0.311,0.060,0.277,-5.337
0.375,0.061,0.281,-5.337
0.394,0.059,0.279,-5.337
0.325,0.060,0.281,-5.337
0.311,0.060,0.284,-5.337
0.351,0.060,0.288,-5.337
0.363,0.058,0.284,-5.337
0.322,0.060,0.279,-5.337
0.279,0.057,0.276,-5.337
0.347,0.055,0.279,-5.337
0.382,0.059,0.280,-5.337
0.362,0.057,0.276,-5.337
0.405,0.055,0.273,-5.337
0.504,0.056,0.275,-5.337
0.404,0.061,0.280,-5.337
0.274,0.064,0.285,-5.337
0.311,0.061,0.283,-5.337
0.322,0.060,0.277,-5.337
0.321,0.061,0.275,-5.337
0.367,0.063,0.282,-5.337
0.333,0.065,0.283,-5.337
0.260,0.062,0.278,-5.337
0.182,0.063,0.277,-5.337
0.171,0.061,0.277,-5.337
0.219,0.060,0.276,-5.337
0.356,0.058,0.270,-5.337
0.402,0.058,0.272,-5.337
0.401,0.058,0.277,-5.337
0.374,0.060,0.282,-5.337
0.348,0.056,0.283,-5.337
0.381,0.054,0.281,-5.337
0.376,0.053,0.279,-5.337
0.391,0.055,0.277,-5.337
0.377,0.052,0.272,-5.337
0.349,0.054,0.273,-5.337
0.237,0.056,0.275,-5.337
0.214,0.058,0.282,-5.337
0.323,0.054,0.283,-5.337
0.404,0.055,0.282,-5.337
0.399,0.058,0.275,-5.337
0.358,0.056,0.274,-5.337
0.352,0.056,0.276,-5.337
0.345,0.059,0.278,-5.337
0.287,0.062,0.282,-5.337
0.295,0.060,0.282,-5.337
0.392,0.055,0.282,-5.337
0.394,0.053,0.280,-5.337
0.351,0.052,0.281,-5.337
0.312,0.057,0.278,-5.337
0.307,0.057,0.277,-5.337
0.366,0.053,0.276,-5.337
0.371,0.058,0.277,-5.337
0.364,0.059,0.278,-5.337
0.362,0.058,0.279,-5.337
0.436,0.056,0.275,-5.337
0.405,0.055,0.275,-5.337
0.380,0.056,0.276,-5.337
0.330,0.058,0.277,-5.337
0.338,0.056,0.275,-5.337
0.353,0.055,0.272,-5.337
0.363,0.057,0.277,-5.337
0.356,0.057,0.278,-5.337
0.373,0.054,0.279,-5.337
0.307,0.054,0.278,-5.337
0.309,0.056,0.276,-5.337
0.341,0.054,0.273,-5.337
0.274,0.056,0.279,-5.337
0.307,0.054,0.284,-5.337
0.305,0.052,0.282,-5.337
0.332,0.049,0.280,-5.337
0.417,0.047,0.278,-5.337
0.420,0.046,0.278,-5.337
0.399,0.046,0.280,-5.337
0.453,0.045,0.278,-5.337
0.444,0.052,0.278,-5.337
0.417,0.053,0.278,-5.337
0.413,0.051,0.281,-5.337
0.448,0.051,0.281,-5.337
0.402,0.056,0.282,-5.337
0.279,0.055,0.280,-5.337
0.210,0.056,0.277,-5.337
0.335,0.051,0.274,-5.337
0.442,0.048,0.274,-5.337
0.404,0.049,0.280,-5.337
0.340,0.051,0.279,-5.337
0.286,0.052,0.277,-5.337
0.299,0.048,0.275,-5.337
0.350,0.045,0.279,-5.337
0.345,0.046,0.280,-5.337
0.342,0.044,0.277,-5.337
0.313,0.044,0.273,-5.337
0.231,0.044,0.273,-5.337
0.206,0.044,0.275,-5.337
0.242,0.044,0.276,-5.337
0.240,0.044,0.277,-5.337
0.234,0.046,0.277,-5.337
0.233,0.045,0.280,-5.337
0.234,0.042,0.284,-5.337
0.350,0.039,0.283,-5.337
0.407,0.039,0.279,-5.337
0.311,0.045,0.280,-5.337
0.255,0.046,0.281,-5.337
0.274,0.042,0.281,-5.337
0.306,0.038,0.279,-5.337
0.329,0.038,0.281,-5.337
0.335,0.041,0.277,-5.337
0.304,0.046,0.275,-5.337
0.265,0.045,0.275,-5.337
0.189,0.048,0.278,-5.337
0.205,0.047,0.280,-5.337
0.261,0.045,0.282,-5.337
0.257,0.047,0.279,-5.337
0.216,0.047,0.278,-5.337
0.192,0.043,0.279,-5.337
0.231,0.039,0.279,-5.337
0.266,0.040,0.279,-5.337
0.294,0.042,0.277,-5.337
0.331,0.043,0.277,-5.337
0.363,0.044,0.279,-5.337
0.356,0.043,0.280,-5.337
0.356,0.038,0.277,-5.337
0.364,0.040,0.276,-5.337
0.282,0.046,0.278,-5.337
0.231,0.046,0.281,-5.337
0.271,0.045,0.278,-5.337
0.311,0.044,0.277,-5.337
0.257,0.045,0.276,-5.337
0.183,0.047,0.276,-5.337
0.177,0.044,0.279,-5.337
0.204,0.042,0.282,-5.337
0.241,0.040,0.279,-5.337
0.262,0.041,0.276,-5.337
0.206,0.042,0.278,-5.337
0.181,0.041,0.280,-5.337
0.188,0.042,0.278,-5.337
0.163,0.042,0.278,-5.337
0.152,0.038,0.277,-5.337
0.192,0.038,0.278,-5.337
0.272,0.033,0.278,-5.337
0.248,0.038,0.276,-5.337
0.149,0.042,0.279,-5.337
0.101,0.043,0.282,-5.337
0.093,0.046,0.280,-5.337
0.141,0.043,0.280,-5.337
0.231,0.041,0.284,-5.337
0.320,0.039,0.286,-5.337
0.332,0.038,0.284,-5.337
0.286,0.043,0.279,-5.337
0.220,0.043,0.278,-5.337
0.245,0.040,0.278,-5.337
0.219,0.042,0.278,-5.337
0.220,0.042,0.278,-5.337
0.265,0.044,0.280,-5.337
0.215,0.044,0.281,-5.337
0.191,0.040,0.283,-5.337
0.213,0.039,0.284,-5.337
0.267,0.041,0.280,-5.337
0.262,0.040,0.279,-5.337
0.235,0.040,0.278,-5.337
0.250,0.038,0.275,-5.337
0.298,0.036,0.274,-5.337
0.299,0.037,0.277,-5.337
0.261,0.038,0.281,-5.337
0.214,0.037,0.283,-5.337
0.198,0.036,0.277,-5.337
0.270,0.035,0.278,-5.337
0.219,0.038,0.279,-5.337
0.191,0.035,0.280,-5.337
0.179,0.033,0.280,-5.337
0.178,0.037,0.283,-5.337
0.159,0.038,0.286,-5.337
0.151,0.038,0.285,-5.337
0.200,0.033,0.277,-5.337
0.279,0.031,0.275,-5.337
0.276,0.032,0.275,-5.337
0.204,0.032,0.277,-5.337
0.140,0.035,0.279,-5.337
0.143,0.035,0.280,-5.337
0.149,0.034,0.279,-5.337
0.170,0.037,0.278,-5.337
0.167,0.038,0.275,-5.337
0.147,0.037,0.276,-5.337
0.146,0.033,0.278,-5.337
0.213,0.034,0.279,-5.337
0.238,0.035,0.280,-5.337
0.163,0.039,0.277,-5.337
0.119,0.037,0.279,-5.337
0.131,0.034,0.281,-5.337
0.052,0.036,0.281,-5.337
0.025,0.037,0.277,-5.337
0.099,0.040,0.275,-5.337
0.118,0.039,0.275,-5.337
0.133,0.039,0.276,-5.337
0.166,0.038,0.278,-5.337
0.169,0.035,0.280,-5.337
0.183,0.038,0.280,-5.337
0.102,0.043,0.282,-5.337
0.050,0.042,0.283,-5.337
0.058,0.036,0.281,-5.337
0.105,0.034,0.280,-5.337
0.124,0.037,0.277,-5.337
0.095,0.038,0.274,-5.337
0.132,0.039,0.276,-5.337
0.099,0.040,0.279,-5.337
0.123,0.037,0.279,-5.337
0.111,0.037,0.283,-5.337
0.140,0.034,0.283,-5.337
0.119,0.034,0.281,-5.337
0.092,0.037,0.278,-5.337
0.105,0.041,0.275,-5.337
0.074,0.039,0.271,-5.337
0.099,0.036,0.273,-5.337
0.152,0.031,0.277,-5.337
0.173,0.033,0.280,-5.337
0.170,0.030,0.276,-5.337
0.138,0.034,0.277,-5.337
0.158,0.035,0.278,-5.337
0.142,0.037,0.280,-5.337
0.085,0.039,0.281,-5.337
0.095,0.035,0.277,-5.337
0.177,0.035,0.281,-5.337
0.238,0.036,0.285,-5.337
0.215,0.038,0.285,-5.337
0.239,0.037,0.281,-5.337
0.215,0.034,0.282,-5.337
0.104,0.035,0.280,-5.337
0.041,0.035,0.280,-5.337
0.114,0.031,0.280,-5.337
0.152,0.032,0.279,-5.337
0.160,0.031,0.275,-5.337
0.177,0.031,0.275,-5.337
0.209,0.031,0.276,-5.337
0.210,0.032,0.279,-5.337
0.126,0.033,0.280,-5.337
0.078,0.037,0.280,-5.337
0.141,0.036,0.281,-5.337
0.109,0.035,0.279,-5.337
0.059,0.034,0.275,-5.337
-0.022,0.036,0.277,-5.337
-0.027,0.037,0.279,-5.337
0.036,0.036,0.281,-5.337
0.049,0.035,0.283,-5.337
0.066,0.034,0.281,-5.337
0.058,0.035,0.280,-5.337
0.099,0.033,0.281,-5.337
0.084,0.032,0.280,-5.337
0.110,0.031,0.277,-5.337
0.148,0.035,0.277,-5.337
0.154,0.036,0.277,-5.337
0.160,0.035,0.284,-5.337
0.159,0.034,0.286,-5.337
0.107,0.033,0.281,-5.337
0.161,0.031,0.275,-5.337
0.187,0.030,0.275,-5.337
0.147,0.033,0.280,-5.337
0.067,0.036,0.283,-5.337
0.052,0.035,0.281,-5.337
0.071,0.034,0.275,-5.337
0.096,0.034,0.272,-5.337
0.138,0.035,0.276,-5.337
0.160,0.039,0.277,-5.337
0.114,0.039,0.280,-5.337
0.067,0.037,0.286,-5.337
0.042,0.034,0.286,-5.337
0.035,0.033,0.279,-5.337
0.021,0.034,0.275,-5.337
0.104,0.033,0.278,-5.337
0.113,0.034,0.280,-5.337
0.071,0.034,0.280,-5.337
0.081,0.033,0.276,-5.337
0.106,0.035,0.278,-5.337
0.075,0.036,0.281,-5.337
0.033,0.033,0.284,-5.337
-0.015,0.029,0.284,-5.337
-0.045,0.034,0.282,-5.337
-0.042,0.034,0.281,-5.337
0.037,0.034,0.281,-5.337
0.073,0.029,0.278,-5.337
0.113,0.027,0.276,-5.337
0.111,0.031,0.272,-5.337
0.127,0.031,0.273,-5.337
0.188,0.029,0.274,-5.337
0.162,0.028,0.273,-5.337
0.067,0.031,0.277,-5.337
0.095,0.031,0.277,-5.337
0.119,0.032,0.277,-5.337
0.045,0.031,0.273,-5.337
0.038,0.030,0.274,-5.337
0.104,0.031,0.276,-5.337
0.128,0.033,0.281,-5.337
0.077,0.038,0.285,-5.337
-0.007,0.040,0.284,-5.337
-0.008,0.038,0.279,-5.337
0.042,0.036,0.279,-5.337
0.053,0.033,0.281,-5.337
0.046,0.034,0.281,-5.337
0.069,0.032,0.280,-5.337
-0.002,0.035,0.278,-5.337
-0.071,0.035,0.273,-5.337
-0.023,0.033,0.267,-5.337
0.003,0.031,0.266,-5.337
0.001,0.032,0.274,-5.337
0.065,0.035,0.281,-5.337
0.117,0.036,0.279,-5.337
0.104,0.034,0.275,-5.337
0.062,0.037,0.271,-5.337
0.078,0.039,0.271,-5.337
0.127,0.035,0.274,-5.337
0.127,0.034,0.282,-5.337
0.142,0.036,0.286,-5.337
0.133,0.038,0.287,-5.337
0.073,0.032,0.282,-5.337
0.041,0.034,0.279,-5.337
0.069,0.036,0.280,-5.337
0.107,0.035,0.281,-5.337
0.079,0.035,0.281,-5.337
0.067,0.038,0.276,-5.337
0.060,0.040,0.271,-5.337
0.088,0.041,0.269,-5.337
0.119,0.039,0.274,-5.337
0.076,0.037,0.274,-5.337
0.083,0.037,0.276,-5.337
0.101,0.039,0.280,-5.337
0.152,0.037,0.278,-5.337
0.149,0.037,0.275,-5.337
0.085,0.037,0.278,-5.337
0.044,0.038,0.278,-5.337
0.087,0.040,0.278,-5.337
0.062,0.041,0.275,-5.337
0.053,0.038,0.277,-5.337
0.092,0.035,0.278,-5.337
0.090,0.039,0.277,-5.337
0.084,0.037,0.275,-5.337
0.110,0.037,0.275,-5.337
0.094,0.037,0.278,-5.337
0.093,0.036,0.282,-5.337
0.095,0.035,0.283,-5.337
0.024,0.036,0.281,-5.337
0.034,0.034,0.279,-5.337
0.150,0.033,0.282,-5.337
0.141,0.033,0.283,-5.337
0.001,0.041,0.282,-5.337
-0.039,0.037,0.283,-5.337
0.036,0.037,0.282,-5.337
0.042,0.036,0.280,-5.337
0.035,0.037,0.276,-5.337
0.081,0.037,0.274,-5.337
0.099,0.039,0.272,-5.337
0.054,0.045,0.277,-5.337
0.109,0.041,0.279,-5.337
0.178,0.039,0.281,-5.337
0.187,0.036,0.281,-5.337
0.136,0.038,0.279,-5.337
0.099,0.043,0.275,-5.337
0.100,0.044,0.277,-5.337
0.142,0.040,0.282,-5.337
0.088,0.043,0.283,-5.337
0.062,0.044,0.282,-5.337
0.115,0.048,0.281,-5.337
0.124,0.045,0.278,-5.337
0.081,0.045,0.278,-5.337
0.023,0.046,0.277,-5.337
0.088,0.046,0.274,-5.337
0.169,0.045,0.277,-5.337
0.176,0.044,0.278,-5.337
0.169,0.044,0.275,-5.337
0.130,0.046,0.276,-5.337
0.112,0.045,0.283,-5.337
0.084,0.046,0.284,-5.337
0.077,0.048,0.281,-5.337
0.150,0.049,0.281,-5.337
0.173,0.046,0.282,-5.337
0.179,0.047,0.280,-5.337
0.157,0.049,0.278,-5.337
0.141,0.051,0.276,-5.337
0.137,0.049,0.280,-5.337
0.210,0.044,0.280,-5.337
0.197,0.047,0.280,-5.337
0.121,0.045,0.279,-5.337
0.122,0.045,0.283,-5.337
0.207,0.045,0.283,-5.337
0.213,0.044,0.281,-5.337
0.170,0.043,0.278,-5.337
0.120,0.044,0.280,-5.337
0.138,0.048,0.280,-5.337
0.160,0.048,0.278,-5.337
0.180,0.046,0.279,-5.337
0.170,0.046,0.275,-5.337
0.136,0.048,0.271,-5.337
0.147,0.047,0.271,-5.337
0.204,0.046,0.280,-5.337
0.242,0.046,0.282,-5.337
0.231,0.046,0.282,-5.337
0.197,0.044,0.279,-5.337
0.169,0.048,0.279,-5.337
0.166,0.049,0.278,-5.337
0.166,0.048,0.281,-5.337
0.183,0.045,0.282,-5.337
0.217,0.045,0.282,-5.337
0.303,0.047,0.281,-5.337
0.248,0.049,0.280,-5.337
0.173,0.049,0.279,-5.337
0.181,0.054,0.282,-5.337
0.208,0.054,0.281,-5.337
0.178,0.054,0.277,-5.337
0.106,0.052,0.280,-5.337
0.051,0.052,0.283,-5.337
0.088,0.051,0.284,-5.337
0.122,0.051,0.280,-5.337
0.134,0.052,0.280,-5.337
0.175,0.050,0.280,-5.337
0.129,0.050,0.281,-5.337
0.151,0.049,0.281,-5.337
0.183,0.050,0.281,-5.337
0.261,0.048,0.282,-5.337
0.244,0.051,0.282,-5.337
0.205,0.052,0.278,-5.337
0.167,0.051,0.279,-5.337
0.236,0.051,0.281,-5.337
0.295,0.049,0.279,-5.337
0.266,0.052,0.275,-5.337
0.186,0.053,0.273,-5.337
0.092,0.054,0.279,-5.337
0.118,0.052,0.283,-5.337
0.247,0.047,0.282,-5.337
0.302,0.049,0.280,-5.337
0.294,0.051,0.280,-5.337
0.304,0.051,0.280,-5.337
0.303,0.056,0.280,-5.337
0.312,0.057,0.280,-5.337
0.295,0.060,0.284,-5.337
0.212,0.061,0.284,-5.337
0.221,0.056,0.283,-5.337
0.220,0.054,0.278,-5.337
0.149,0.057,0.277,-5.337
0.148,0.058,0.272,-5.337
0.214,0.060,0.275,-5.337
0.326,0.054,0.279,-5.337
0.308,0.053,0.278,-5.337
0.255,0.053,0.277,-5.337
0.293,0.051,0.278,-5.337
0.321,0.053,0.279,-5.337
0.239,0.055,0.280,-5.337
0.211,0.053,0.282,-5.337
0.256,0.049,0.284,-5.337
0.281,0.048,0.282,-5.337
0.280,0.048,0.276,-5.337
0.276,0.051,0.274,-5.337
0.236,0.053,0.273,-5.337
0.209,0.055,0.278,-5.337
0.249,0.052,0.282,-5.337
0.309,0.053,0.281,-5.337
0.297,0.057,0.275,-5.337
0.268,0.056,0.277,-5.337
0.213,0.053,0.284,-5.337
0.234,0.054,0.288,-5.337
0.237,0.053,0.281,-5.337
0.165,0.054,0.276,-5.337
0.136,0.055,0.274,-5.337
0.168,0.056,0.278,-5.337
0.241,0.057,0.280,-5.337
0.241,0.056,0.278,-5.337
0.283,0.055,0.278,-5.337
0.292,0.055,0.278,-5.337
0.234,0.054,0.279,-5.337
0.236,0.051,0.276,-5.337
0.304,0.051,0.277,-5.337
0.238,0.055,0.277,-5.337
0.214,0.055,0.278,-5.337
0.290,0.052,0.275,-5.337
0.292,0.053,0.279,-5.337
0.235,0.053,0.281,-5.337
0.291,0.052,0.282,-5.337
0.257,0.050,0.283,-5.337
0.254,0.049,0.280,-5.337
0.349,0.046,0.278,-5.337
0.331,0.046,0.280,-5.337
0.365,0.046,0.282,-5.337
0.329,0.052,0.281,-5.337
0.221,0.054,0.279,-5.337
0.137,0.053,0.278,-5.337
0.232,0.052,0.277,-5.337
0.343,0.050,0.277,-5.337
0.386,0.049,0.276,-5.337
0.308,0.053,0.277,-5.337
0.314,0.053,0.278,-5.337
0.343,0.053,0.279,-5.337
0.349,0.052,0.283,-5.337
0.266,0.060,0.283,-5.337
0.229,0.061,0.282,-5.337
0.277,0.054,0.280,-5.337
0.281,0.055,0.279,-5.337
0.336,0.055,0.277,-5.337
0.439,0.055,0.277,-5.337
0.397,0.056,0.278,-5.337
0.292,0.056,0.281,-5.337
0.312,0.052,0.280,-5.337
0.319,0.053,0.280,-5.337
0.320,0.055,0.279,-5.337
0.339,0.054,0.279,-5.337
0.332,0.050,0.279,-5.337
0.257,0.054,0.279,-5.337
0.222,0.058,0.277,-5.337
0.270,0.059,0.273,-5.337
0.277,0.057,0.274,-5.337
0.299,0.054,0.277,-5.337
0.297,0.056,0.280,-5.337
0.301,0.058,0.282,-5.337
0.320,0.057,0.282,-5.337
0.203,0.057,0.280,-5.337
0.147,0.057,0.279,-5.337
0.197,0.062,0.275,-5.337
0.254,0.064,0.277,-5.337
0.341,0.061,0.283,-5.337
0.352,0.062,0.288,-5.337
0.371,0.061,0.287,-5.337
0.407,0.062,0.284,-5.337
0.339,0.061,0.279,-5.337
0.335,0.058,0.278,-5.337
0.441,0.052,0.278,-5.337
0.475,0.051,0.275,-5.337
0.371,0.056,0.276,-5.337
0.297,0.058,0.282,-5.337
0.280,0.059,0.283,-5.337
0.348,0.058,0.283,-5.337
0.384,0.053,0.283,-5.337
0.294,0.054,0.280,-5.337
0.266,0.055,0.278,-5.337
0.299,0.055,0.279,-5.337
0.295,0.054,0.280,-5.337
0.330,0.051,0.277,-5.337
0.351,0.050,0.280,-5.337
0.323,0.054,0.282,-5.337
0.315,0.057,0.283,-5.337
0.312,0.055,0.279,-5.337
0.330,0.051,0.278,-5.337
0.333,0.053,0.278,-5.337
0.324,0.056,0.279,-5.337
0.339,0.053,0.281,-5.337
0.369,0.052,0.280,-5.337
0.339,0.054,0.278,-5.337
0.292,0.055,0.279,-5.337
0.341,0.051,0.283,-5.337
0.374,0.054,0.285,-5.337
0.434,0.048,0.284,-5.337
0.434,0.051,0.280,-5.337
0.364,0.054,0.274,-5.337
0.358,0.055,0.275,-5.337
0.433,0.052,0.280,-5.337
0.467,0.053,0.281,-5.337
0.410,0.054,0.280,-5.337
0.327,0.056,0.280,-5.337
0.280,0.055,0.281,-5.337
0.271,0.054,0.275,-5.337
0.300,0.056,0.274,-5.337
0.283,0.057,0.275,-5.337
0.297,0.054,0.280,-5.337
0.313,0.053,0.282,-5.337
0.259,0.058,0.283,-5.337
0.220,0.058,0.283,-5.337
0.275,0.055,0.283,-5.337
0.365,0.052,0.276,-5.337
0.419,0.053,0.272,-5.337
0.446,0.053,0.272,-5.337
0.454,0.052,0.275,-5.337
0.395,0.051,0.280,-5.337
0.372,0.051,0.281,-5.337
0.367,0.048,0.281,-5.337
0.352,0.047,0.280,-5.337
0.264,0.049,0.279,-5.337
0.255,0.049,0.276,-5.337
0.268,0.054,0.279,-5.337
0.223,0.052,0.280,-5.337
0.278,0.051,0.281,-5.337
0.319,0.052,0.278,-5.337
0.355,0.054,0.277,-5.337
0.330,0.053,0.278,-5.337
0.321,0.053,0.276,-5.337
0.264,0.053,0.275,-5.337
0.220,0.054,0.273,-5.337
0.307,0.049,0.276,-5.337
0.378,0.046,0.279,-5.337
0.365,0.046,0.279,-5.337
0.290,0.050,0.278,-5.337
0.265,0.049,0.277,-5.337
0.365,0.048,0.277,-5.337
0.338,0.046,0.276,-5.337
0.293,0.046,0.277,-5.337
0.302,0.050,0.281,-5.337
0.298,0.048,0.278,-5.337
0.363,0.048,0.275,-5.337
0.419,0.046,0.271,-5.337
0.379,0.049,0.272,-5.337
0.298,0.049,0.275,-5.337
0.314,0.046,0.279,-5.337
0.323,0.046,0.283,-5.337
0.352,0.047,0.283,-5.337
0.306,0.052,0.280,-5.337
0.172,0.054,0.278,-5.337
0.125,0.050,0.276,-5.337
0.258,0.047,0.278,-5.337
0.317,0.048,0.281,-5.337
0.222,0.052,0.282,-5.337
0.180,0.051,0.281,-5.337
0.212,0.048,0.281,-5.337
0.285,0.047,0.279,-5.337
0.221,0.051,0.277,-5.337
0.120,0.052,0.279,-5.337
0.142,0.048,0.279,-5.337
0.174,0.044,0.282,-5.337
0.137,0.045,0.282,-5.337
0.195,0.046,0.281,-5.337
0.202,0.047,0.278,-5.337
0.160,0.049,0.277,-5.337
0.257,0.044,0.278,-5.337
0.287,0.045,0.279,-5.337
0.246,0.044,0.277,-5.337
0.255,0.040,0.275,-5.337
0.295,0.040,0.275,-5.337
0.288,0.044,0.279,-5.337
0.237,0.046,0.282,-5.337
0.196,0.049,0.283,-5.337
0.210,0.047,0.279,-5.337
0.282,0.044,0.276,-5.337
0.294,0.043,0.279,-5.337
0.288,0.044,0.279,-5.337
0.292,0.045,0.281,-5.337
0.257,0.043,0.283,-5.337
0.273,0.042,0.281,-5.337
0.294,0.043,0.279,-5.337
0.320,0.041,0.279,-5.337
0.247,0.041,0.277,-5.337
0.231,0.042,0.275,-5.337
0.294,0.044,0.279,-5.337
0.236,0.045,0.280,-5.337
0.176,0.044,0.280,-5.337
0.260,0.042,0.279,-5.337
0.282,0.041,0.280,-5.337
0.202,0.043,0.280,-5.337
0.202,0.044,0.278,-5.337
0.154,0.043,0.281,-5.337
0.132,0.043,0.281,-5.337
0.237,0.041,0.281,-5.337
0.306,0.040,0.281,-5.337
0.254,0.042,0.280,-5.337
0.186,0.044,0.281,-5.337
0.150,0.044,0.280,-5.337
0.263,0.037,0.279,-5.337
0.351,0.037,0.280,-5.337
0.299,0.037,0.283,-5.337
0.187,0.040,0.282,-5.337
0.142,0.042,0.280,-5.337
0.195,0.039,0.279,-5.337
0.247,0.040,0.280,-5.337
0.236,0.037,0.280,-5.337
0.254,0.035,0.279,-5.337
0.254,0.033,0.278,-5.337
0.194,0.039,0.278,-5.337
0.108,0.043,0.278,-5.337
0.145,0.039,0.279,-5.337
0.274,0.035,0.278,-5.337
0.301,0.036,0.279,-5.337
0.244,0.039,0.278,-5.337
0.204,0.042,0.279,-5.337
0.221,0.042,0.280,-5.337
0.293,0.038,0.281,-5.337
0.287,0.038,0.280,-5.337
0.194,0.037,0.279,-5.337
0.220,0.035,0.280,-5.337
0.248,0.033,0.283,-5.337
0.215,0.034,0.283,-5.337
0.125,0.040,0.282,-5.337
0.125,0.039,0.280,-5.337
0.263,0.033,0.277,-5.337
0.306,0.033,0.279,-5.337
0.185,0.039,0.281,-5.337
0.107,0.041,0.284,-5.337
0.198,0.035,0.285,-5.337
0.221,0.032,0.282,-5.337
0.152,0.031,0.277,-5.337
0.087,0.034,0.274,-5.337
0.118,0.032,0.274,-5.337
0.122,0.034,0.278,-5.337
0.195,0.035,0.284,-5.337
0.182,0.036,0.280,-5.337
0.135,0.035,0.276,-5.337
0.135,0.039,0.279,-5.337
0.068,0.043,0.280,-5.337
0.048,0.040,0.279,-5.337
0.058,0.038,0.282,-5.337
0.063,0.037,0.280,-5.337
0.085,0.037,0.282,-5.337
0.128,0.038,0.283,-5.337
0.128,0.037,0.284,-5.337
0.025,0.035,0.284,-5.337
0.021,0.034,0.285,-5.337
0.077,0.034,0.282,-5.337
0.093,0.039,0.276,-5.337
0.097,0.041,0.279,-5.337
0.087,0.046,0.284,-5.337
0.032,0.046,0.284,-5.337
0.075,0.041,0.282,-5.337
0.147,0.036,0.277,-5.337
0.168,0.038,0.275,-5.337
0.151,0.039,0.276,-5.337
0.161,0.038,0.282,-5.337
0.199,0.039,0.286,-5.337
0.173,0.039,0.284,-5.337
0.145,0.041,0.278,-5.337
0.145,0.040,0.275,-5.337
0.163,0.040,0.279,-5.337
0.188,0.036,0.280,-5.337
0.176,0.038,0.281,-5.337
0.136,0.037,0.280,-5.337
0.147,0.036,0.279,-5.337
0.115,0.038,0.280,-5.337
-0.002,0.039,0.280,-5.337
-0.011,0.036,0.283,-5.337
0.014,0.037,0.285,-5.337
0.041,0.034,0.283,-5.337
0.119,0.032,0.279,-5.337
0.087,0.035,0.278,-5.337
0.079,0.033,0.280,-5.337
0.099,0.030,0.280,-5.337
0.148,0.025,0.280,-5.337
0.161,0.025,0.277,-5.337
0.173,0.028,0.276,-5.337
0.211,0.026,0.278,-5.337
0.182,0.028,0.277,-5.337
0.136,0.030,0.278,-5.337
0.103,0.033,0.277,-5.337
0.118,0.030,0.278,-5.337
0.177,0.030,0.280,-5.337
0.128,0.035,0.281,-5.337
0.082,0.032,0.282,-5.337
0.132,0.031,0.281,-5.337
0.111,0.033,0.280,-5.337
0.129,0.038,0.280,-5.337
0.114,0.039,0.281,-5.337
0.095,0.034,0.283,-5.337
0.177,0.032,0.279,-5.337
0.185,0.031,0.277,-5.337
0.161,0.031,0.280,-5.337
0.110,0.030,0.281,-5.337
0.095,0.031,0.278,-5.337
0.101,0.037,0.275,-5.337
0.125,0.038,0.278,-5.337
0.123,0.035,0.281,-5.337
0.070,0.031,0.280,-5.337
-0.017,0.035,0.274,-5.337
0.030,0.035,0.274,-5.337
0.077,0.034,0.276,-5.337
0.050,0.035,0.283,-5.337
0.017,0.036,0.285,-5.337
0.015,0.034,0.286,-5.337
0.134,0.031,0.284,-5.337
0.114,0.036,0.283,-5.337
0.083,0.037,0.280,-5.337
0.079,0.036,0.281,-5.337
0.125,0.033,0.279,-5.337
0.085,0.033,0.276,-5.337
0.046,0.033,0.276,-5.337
0.046,0.035,0.277,-5.337
0.004,0.037,0.281,-5.337
-0.006,0.035,0.285,-5.337
0.026,0.034,0.284,-5.337
-0.001,0.035,0.282,-5.337
-0.039,0.032,0.280,-5.337
-0.004,0.034,0.281,-5.337
0.029,0.035,0.283,-5.337
0.089,0.031,0.281,-5.337
0.065,0.030,0.280,-5.337
0.063,0.027,0.276,-5.337
0.102,0.029,0.276,-5.337
0.135,0.029,0.279,-5.337
0.071,0.030,0.282,-5.337
0.029,0.032,0.282,-5.337
0.061,0.035,0.284,-5.337
0.067,0.034,0.286,-5.337
0.063,0.034,0.283,-5.337
0.042,0.031,0.280,-5.337
0.080,0.028,0.281,-5.337
0.125,0.027,0.281,-5.337
0.108,0.028,0.283,-5.337
0.023,0.027,0.283,-5.337
0.004,0.030,0.284,-5.337
-0.026,0.032,0.281,-5.337
-0.042,0.029,0.279,-5.337
0.030,0.029,0.281,-5.337
0.158,0.028,0.279,-5.337
0.153,0.028,0.280,-5.337
0.163,0.029,0.278,-5.337
0.151,0.032,0.279,-5.337
0.081,0.033,0.277,-5.337
0.064,0.037,0.280,-5.337
0.036,0.036,0.279,-5.337
0.076,0.034,0.280,-5.337
0.081,0.032,0.284,-5.337
0.053,0.036,0.283,-5.337
0.036,0.036,0.280,-5.337
0.044,0.035,0.282,-5.337
0.019,0.035,0.282,-5.337
0.024,0.038,0.281,-5.337
0.073,0.037,0.277,-5.337
0.073,0.036,0.278,-5.337
0.006,0.037,0.283,-5.337
-0.059,0.037,0.285,-5.337
-0.046,0.037,0.283,-5.337
0.009,0.037,0.281,-5.337
0.027,0.038,0.282,-5.337
0.037,0.037,0.282,-5.337
0.037,0.032,0.286,-5.337
0.077,0.034,0.284,-5.337
0.054,0.035,0.282,-5.337
-0.008,0.037,0.280,-5.337
0.029,0.038,0.280,-5.337
0.098,0.036,0.281,-5.337
0.029,0.039,0.287,-5.337
0.040,0.035,0.287,-5.337
0.090,0.035,0.279,-5.337
0.132,0.035,0.273,-5.337
0.087,0.036,0.274,-5.337
0.099,0.034,0.275,-5.337
0.153,0.032,0.276,-5.337
0.133,0.033,0.280,-5.337
0.129,0.035,0.286,-5.337
0.128,0.036,0.286,-5.337
0.172,0.036,0.281,-5.337
0.164,0.035,0.280,-5.337
0.182,0.035,0.279,-5.337
0.226,0.032,0.278,-5.337
0.258,0.031,0.277,-5.337
0.191,0.034,0.281,-5.337
0.098,0.036,0.281,-5.337
0.031,0.042,0.278,-5.337
0.085,0.040,0.277,-5.337
0.084,0.044,0.278,-5.337
-0.008,0.045,0.279,-5.337
0.037,0.042,0.282,-5.337
0.098,0.037,0.283,-5.337
0.104,0.036,0.280,-5.337
0.107,0.035,0.280,-5.337
0.172,0.036,0.283,-5.337
0.182,0.040,0.284,-5.337
0.137,0.038,0.281,-5.337
0.074,0.040,0.279,-5.337
0.069,0.040,0.279,-5.337
0.077,0.039,0.281,-5.337
0.028,0.040,0.280,-5.337
0.055,0.038,0.279,-5.337
0.135,0.042,0.277,-5.337
0.132,0.041,0.278,-5.337
0.111,0.039,0.277,-5.337
0.055,0.040,0.277,-5.337
0.080,0.040,0.278,-5.337
0.173,0.041,0.280,-5.337
0.168,0.040,0.277,-5.337
0.077,0.042,0.277,-5.337
0.038,0.046,0.277,-5.337
0.067,0.042,0.279,-5.337
0.059,0.043,0.279,-5.337
0.049,0.044,0.277,-5.337
0.002,0.046,0.277,-5.337
-0.021,0.045,0.281,-5.337
0.041,0.041,0.281,-5.337
0.072,0.042,0.278,-5.337
0.119,0.042,0.280,-5.337
0.165,0.040,0.282,-5.337
0.170,0.037,0.281,-5.337
0.146,0.040,0.278,-5.337
0.221,0.044,0.279,-5.337
0.233,0.042,0.279,-5.337
0.206,0.043,0.280,-5.337
0.173,0.042,0.277,-5.337
0.161,0.043,0.276,-5.337
0.091,0.047,0.281,-5.337
0.087,0.045,0.285,-5.337
0.208,0.042,0.285,-5.337
0.226,0.046,0.279,-5.337
0.186,0.044,0.275,-5.337
0.224,0.044,0.275,-5.337
0.289,0.042,0.276,-5.337
0.335,0.045,0.278,-5.337
0.264,0.044,0.279,-5.337
0.191,0.045,0.281,-5.337
0.116,0.046,0.282,-5.337
0.107,0.042,0.279,-5.337
0.234,0.039,0.278,-5.337
0.305,0.036,0.279,-5.337
0.239,0.038,0.281,-5.337
0.096,0.043,0.281,-5.337
0.050,0.044,0.281,-5.337
0.130,0.040,0.285,-5.337
0.247,0.036,0.289,-5.337
0.311,0.041,0.287,-5.337
0.199,0.046,0.284,-5.337
0.110,0.047,0.279,-5.337
0.129,0.046,0.275,-5.337
0.176,0.041,0.276,-5.337
0.198,0.042,0.279,-5.337
0.193,0.043,0.279,-5.337
0.203,0.045,0.278,-5.337
0.214,0.045,0.275,-5.337
0.230,0.044,0.280,-5.337
0.249,0.044,0.284,-5.337
0.188,0.047,0.287,-5.337
0.129,0.051,0.284,-5.337
0.216,0.047,0.278,-5.337
0.319,0.045,0.276,-5.337
0.288,0.050,0.278,-5.337
0.189,0.050,0.284,-5.337
0.135,0.050,0.285,-5.337
0.118,0.049,0.282,-5.337
0.152,0.049,0.277,-5.337
0.171,0.048,0.277,-5.337
0.234,0.047,0.278,-5.337
0.193,0.051,0.279,-5.337
0.238,0.044,0.277,-5.337
0.297,0.044,0.278,-5.337
0.258,0.049,0.277,-5.337
0.178,0.049,0.278,-5.337
0.252,0.044,0.281,-5.337
0.277,0.046,0.282,-5.337
0.296,0.046,0.280,-5.337
0.348,0.044,0.281,-5.337
0.364,0.043,0.280,-5.337
0.310,0.043,0.280,-5.337
0.304,0.042,0.280,-5.337
0.319,0.042,0.280,-5.337
0.286,0.048,0.278,-5.337
0.243,0.051,0.276,-5.337
0.267,0.051,0.280,-5.337
0.228,0.052,0.285,-5.337
0.175,0.055,0.287,-5.337
0.198,0.053,0.283,-5.337
0.191,0.054,0.279,-5.337
0.153,0.052,0.274,-5.337
0.193,0.053,0.275,-5.337
0.164,0.056,0.280,-5.337
0.135,0.053,0.284,-5.337
0.116,0.052,0.283,-5.337
0.113,0.052,0.280,-5.337
0.166,0.050,0.276,-5.337
0.214,0.048,0.277,-5.337
0.193,0.050,0.277,-5.337
0.230,0.050,0.276,-5.337
0.229,0.047,0.279,-5.337
0.174,0.046,0.282,-5.337
0.147,0.049,0.284,-5.337
0.221,0.051,0.284,-5.337
0.325,0.047,0.284,-5.337
0.342,0.048,0.283,-5.337
0.359,0.046,0.280,-5.337
0.352,0.045,0.282,-5.337
0.354,0.047,0.285,-5.337
0.362,0.045,0.283,-5.337
0.318,0.048,0.281,-5.337
0.250,0.050,0.280,-5.337
0.255,0.050,0.279,-5.337
0.284,0.049,0.280,-5.337
0.301,0.043,0.281,-5.337
0.303,0.048,0.280,-5.337
0.276,0.053,0.279,-5.337
0.277,0.055,0.279,-5.337
0.311,0.053,0.278,-5.337
0.364,0.052,0.280,-5.337
0.301,0.054,0.284,-5.337
0.292,0.051,0.284,-5.337
0.354,0.050,0.282,-5.337
0.366,0.051,0.280,-5.337
0.246,0.055,0.279,-5.337
0.226,0.055,0.280,-5.337
0.330,0.051,0.278,-5.337
0.352,0.050,0.280,-5.337
0.266,0.051,0.283,-5.337
0.214,0.054,0.285,-5.337
0.258,0.053,0.284,-5.337
0.276,0.050,0.284,-5.337
0.297,0.049,0.280,-5.337
0.358,0.049,0.279,-5.337
0.366,0.052,0.281,-5.337
0.306,0.052,0.282,-5.337
0.280,0.052,0.280,-5.337
0.337,0.053,0.278,-5.337
0.350,0.055,0.279,-5.337
0.282,0.055,0.283,-5.337
0.253,0.051,0.281,-5.337
0.306,0.051,0.280,-5.337
0.337,0.051,0.279,-5.337
0.350,0.053,0.277,-5.337
0.292,0.055,0.277,-5.337
0.340,0.053,0.280,-5.337
0.372,0.052,0.281,-5.337
0.293,0.055,0.277,-5.337
0.252,0.054,0.273,-5.337
0.292,0.054,0.273,-5.337
0.359,0.053,0.279,-5.337
0.357,0.052,0.284,-5.337
0.292,0.054,0.285,-5.337
0.294,0.053,0.282,-5.337
0.397,0.053,0.280,-5.337
0.331,0.054,0.276,-5.337
0.291,0.056,0.274,-5.337
0.360,0.053,0.273,-5.337
0.424,0.055,0.276,-5.337
0.376,0.056,0.280,-5.337
0.346,0.056,0.278,-5.337
0.337,0.058,0.277,-5.337
0.301,0.056,0.280,-5.337
0.301,0.053,0.279,-5.337
0.242,0.052,0.274,-5.337
0.294,0.052,0.275,-5.337
0.361,0.051,0.281,-5.337
0.341,0.053,0.286,-5.337
0.316,0.054,0.285,-5.337
0.337,0.053,0.281,-5.337
0.340,0.053,0.273,-5.337
0.302,0.053,0.271,-5.337
0.269,0.050,0.277,-5.337
0.248,0.051,0.280,-5.337
0.234,0.052,0.278,-5.337
0.321,0.053,0.273,-5.337
0.384,0.051,0.272,-5.337
0.432,0.052,0.276,-5.337
0.433,0.053,0.280,-5.337
0.364,0.055,0.283,-5.337
0.297,0.056,0.279,-5.337
0.311,0.056,0.278,-5.337
0.316,0.057,0.281,-5.337
0.268,0.060,0.284,-5.337
0.270,0.057,0.281,-5.337
0.250,0.053,0.280,-5.337
0.321,0.052,0.282,-5.337
0.344,0.056,0.280,-5.337
0.330,0.055,0.279,-5.337
0.367,0.052,0.282,-5.337
0.380,0.051,0.281,-5.337
0.425,0.051,0.276,-5.337
0.490,0.054,0.275,-5.337
0.486,0.054,0.276,-5.337
0.397,0.057,0.277,-5.337
0.351,0.053,0.277,-5.337
0.311,0.056,0.280,-5.337
0.313,0.060,0.280,-5.337
0.347,0.056,0.283,-5.337
0.308,0.052,0.281,-5.337
0.289,0.050,0.278,-5.337
0.358,0.050,0.280,-5.337
0.451,0.048,0.284,-5.337
0.460,0.047,0.282,-5.337
0.437,0.048,0.277,-5.337
0.347,0.054,0.274,-5.337
0.259,0.058,0.279,-5.337
0.280,0.051,0.284,-5.337
0.325,0.050,0.283,-5.337
0.258,0.053,0.284,-5.337
0.216,0.057,0.284,-5.337
0.276,0.054,0.283,-5.337
0.323,0.052,0.279,-5.337
0.281,0.054,0.276,-5.337
0.249,0.054,0.277,-5.337
0.324,0.051,0.277,-5.337
0.374,0.049,0.276,-5.337
0.283,0.054,0.280,-5.337
0.278,0.051,0.281,-5.337
0.353,0.051,0.282,-5.337
0.373,0.053,0.281,-5.337
0.422,0.051,0.279,-5.337
0.402,0.053,0.278,-5.337
0.348,0.051,0.276,-5.337
0.354,0.048,0.279,-5.337
0.396,0.048,0.280,-5.337
0.442,0.046,0.280,-5.337
0.434,0.045,0.276,-5.337
0.384,0.044,0.276,-5.337
0.407,0.045,0.276,-5.337
0.373,0.050,0.277,-5.337
0.304,0.049,0.281,-5.337
0.295,0.051,0.281,-5.337
0.300,0.052,0.278,-5.337
0.257,0.050,0.281,-5.337
0.331,0.047,0.284,-5.337
0.355,0.052,0.284,-5.337
0.321,0.051,0.281,-5.337
0.345,0.047,0.282,-5.337
0.332,0.046,0.281,-5.337
0.325,0.048,0.278,-5.337
0.323,0.052,0.279,-5.337
0.335,0.052,0.278,-5.337
0.345,0.046,0.276,-5.337
0.394,0.043,0.275,-5.337
0.429,0.042,0.278,-5.337
0.405,0.044,0.278,-5.337
0.362,0.045,0.278,-5.337
0.304,0.045,0.279,-5.337
0.213,0.046,0.280,-5.337
0.235,0.040,0.278,-5.337
0.314,0.038,0.279,-5.337
0.174,0.041,0.279,-5.337
0.170,0.043,0.279,-5.337
0.330,0.039,0.274,-5.337
0.358,0.040,0.273,-5.337
0.203,0.043,0.279,-5.337
0.155,0.042,0.283,-5.337
0.153,0.039,0.285,-5.337
0.158,0.040,0.282,-5.337
0.161,0.041,0.278,-5.337
0.180,0.043,0.272,-5.337
0.200,0.043,0.276,-5.337
0.257,0.044,0.282,-5.337
0.253,0.045,0.283,-5.337
0.274,0.044,0.279,-5.337
0.334,0.041,0.278,-5.337
0.354,0.044,0.280,-5.337
0.323,0.044,0.281,-5.337
0.323,0.045,0.276,-5.337
0.283,0.042,0.274,-5.337
0.234,0.044,0.276,-5.337
0.255,0.043,0.281,-5.337
0.246,0.044,0.282,-5.337
0.207,0.047,0.283,-5.337
0.165,0.046,0.279,-5.337
0.184,0.047,0.278,-5.337
0.234,0.047,0.278,-5.337
0.238,0.048,0.279,-5.337
0.211,0.046,0.279,-5.337
0.257,0.043,0.275,-5.337
0.306,0.042,0.273,-5.337
0.213,0.043,0.276,-5.337
0.173,0.044,0.280,-5.337
0.234,0.042,0.280,-5.337
0.277,0.041,0.280,-5.337
0.279,0.041,0.278,-5.337
0.257,0.041,0.276,-5.337
0.267,0.040,0.275,-5.337
0.241,0.040,0.280,-5.337
0.188,0.039,0.280,-5.337
0.222,0.043,0.281,-5.337
0.317,0.036,0.282,-5.337
0.348,0.035,0.282,-5.337
0.329,0.037,0.281,-5.337
0.308,0.036,0.277,-5.337
0.276,0.038,0.275,-5.337
0.230,0.041,0.277,-5.337
0.193,0.042,0.279,-5.337
0.187,0.036,0.282,-5.337
0.240,0.037,0.281,-5.337
0.260,0.040,0.280,-5.337
0.181,0.042,0.277,-5.337
0.162,0.043,0.276,-5.337
0.248,0.039,0.278,-5.337
0.265,0.039,0.280,-5.337
0.183,0.036,0.278,-5.337
0.142,0.038,0.275,-5.337
0.125,0.042,0.278,-5.337
0.177,0.039,0.281,-5.337
0.229,0.038,0.286,-5.337
0.182,0.037,0.286,-5.337
0.168,0.037,0.284,-5.337
0.171,0.038,0.279,-5.337
0.210,0.038,0.274,-5.337
0.192,0.040,0.272,-5.337
0.146,0.041,0.274,-5.337
0.142,0.039,0.278,-5.337
0.104,0.038,0.284,-5.337
0.086,0.038,0.285,-5.337
0.131,0.037,0.282,-5.337
0.157,0.037,0.282,-5.337
0.186,0.037,0.279,-5.337
0.197,0.037,0.273,-5.337
0.163,0.039,0.272,-5.337
0.160,0.040,0.280,-5.337
0.180,0.036,0.284,-5.337
0.145,0.034,0.283,-5.337
0.125,0.035,0.279,-5.337
0.130,0.040,0.278,-5.337
0.205,0.040,0.278,-5.337
0.190,0.036,0.282,-5.337
0.100,0.038,0.282,-5.337
0.070,0.038,0.280,-5.337
0.099,0.038,0.279,-5.337
0.115,0.038,0.277,-5.337
0.177,0.037,0.278,-5.337
0.274,0.038,0.282,-5.337
0.210,0.038,0.279,-5.337
0.117,0.039,0.277,-5.337
0.157,0.037,0.277,-5.337
0.243,0.037,0.279,-5.337
0.203,0.040,0.277,-5.337
0.142,0.041,0.278,-5.337
0.112,0.040,0.281,-5.337
0.110,0.040,0.285,-5.337
0.102,0.041,0.284,-5.337
0.059,0.041,0.282,-5.337
0.012,0.041,0.279,-5.337
0.031,0.038,0.278,-5.337
0.087,0.035,0.281,-5.337
0.088,0.035,0.282,-5.337
0.087,0.035,0.281,-5.337
0.163,0.033,0.276,-5.337
0.152,0.038,0.277,-5.337
0.183,0.036,0.278,-5.337
0.202,0.032,0.280,-5.337
0.249,0.027,0.282,-5.337
0.214,0.030,0.281,-5.337
0.165,0.033,0.277,-5.337
0.132,0.036,0.279,-5.337
0.103,0.038,0.283,-5.337
0.154,0.035,0.286,-5.337
0.199,0.032,0.283,-5.337
0.226,0.032,0.281,-5.337
0.201,0.031,0.279,-5.337
0.212,0.032,0.277,-5.337
0.083,0.035,0.278,-5.337
-0.030,0.033,0.280,-5.337
0.044,0.026,0.283,-5.337
0.216,0.024,0.286,-5.337
0.173,0.030,0.286,-5.337
0.079,0.029,0.282,-5.337
0.086,0.031,0.283,-5.337
0.075,0.030,0.279,-5.337
0.037,0.029,0.275,-5.337
0.039,0.029,0.277,-5.337
0.045,0.033,0.282,-5.337
0.038,0.035,0.282,-5.337
0.012,0.035,0.280,-5.337
0.007,0.036,0.279,-5.337
0.001,0.031,0.280,-5.337
0.041,0.031,0.284,-5.337
0.118,0.032,0.285,-5.337
0.131,0.031,0.287,-5.337
0.056,0.033,0.287,-5.337
0.057,0.032,0.285,-5.337
0.121,0.031,0.279,-5.337
0.176,0.033,0.277,-5.337
0.210,0.036,0.277,-5.337
0.135,0.038,0.280,-5.337
0.090,0.033,0.279,-5.337
0.059,0.033,0.278,-5.337
0.082,0.031,0.274,-5.337
0.076,0.034,0.276,-5.337
0.089,0.035,0.284,-5.337
0.156,0.035,0.287,-5.337
0.141,0.035,0.285,-5.337
0.159,0.029,0.283,-5.337
0.161,0.029,0.283,-5.337
0.161,0.029,0.284,-5.337
0.152,0.033,0.285,-5.337
0.166,0.036,0.284,-5.337
0.163,0.034,0.282,-5.337
0.203,0.032,0.281,-5.337
0.203,0.031,0.282,-5.337
0.171,0.032,0.281,-5.337
0.100,0.035,0.281,-5.337
0.044,0.033,0.277,-5.337
0.017,0.031,0.277,-5.337
-0.016,0.035,0.277,-5.337
0.034,0.034,0.278,-5.337
0.041,0.034,0.277,-5.337
0.086,0.034,0.280,-5.337
0.089,0.029,0.282,-5.337
0.083,0.029,0.281,-5.337
0.098,0.029,0.282,-5.337
0.127,0.029,0.283,-5.337
0.153,0.030,0.283,-5.337
0.144,0.032,0.283,-5.337
0.123,0.030,0.282,-5.337
0.150,0.027,0.280,-5.337
0.151,0.027,0.279,-5.337
0.099,0.031,0.274,-5.337
0.081,0.033,0.276,-5.337
0.083,0.032,0.277,-5.337
0.077,0.033,0.280,-5.337
0.086,0.035,0.279,-5.337
0.086,0.032,0.279,-5.337
0.018,0.033,0.277,-5.337
0.054,0.030,0.278,-5.337
0.099,0.032,0.279,-5.337
0.092,0.034,0.279,-5.337
0.091,0.032,0.278,-5.337
0.086,0.034,0.279,-5.337
0.042,0.036,0.281,-5.337
-0.016,0.041,0.282,-5.337
0.059,0.037,0.281,-5.337
0.117,0.038,0.282,-5.337
0.092,0.034,0.280,-5.337
0.082,0.032,0.281,-5.337
0.078,0.035,0.281,-5.337
0.098,0.036,0.277,-5.337
0.086,0.040,0.276,-5.337
0.079,0.037,0.276,-5.337
0.130,0.039,0.282,-5.337
0.059,0.037,0.282,-5.337
0.073,0.035,0.281,-5.337
0.103,0.031,0.281,-5.337
0.152,0.028,0.282,-5.337
0.157,0.028,0.281,-5.337
0.019,0.032,0.283,-5.337
0.004,0.032,0.282,-5.337
0.045,0.031,0.281,-5.337
-0.006,0.031,0.280,-5.337
-0.031,0.034,0.281,-5.337
0.040,0.030,0.275,-5.337
0.071,0.031,0.274,-5.337
0.056,0.030,0.278,-5.337
0.003,0.030,0.280,-5.337
-0.046,0.035,0.278,-5.337
0.040,0.034,0.280,-5.337
0.097,0.030,0.283,-5.337
0.020,0.031,0.280,-5.337
-0.039,0.034,0.273,-5.337
0.002,0.036,0.274,-5.337
0.102,0.032,0.281,-5.337
0.131,0.032,0.286,-5.337
0.071,0.031,0.288,-5.337
0.073,0.031,0.288,-5.337
0.104,0.029,0.287,-5.337
0.099,0.032,0.281,-5.337
0.054,0.037,0.279,-5.337
0.037,0.038,0.276,-5.337
0.043,0.036,0.272,-5.337
0.079,0.030,0.272,-5.337
0.098,0.032,0.273,-5.337
0.046,0.035,0.277,-5.337
0.016,0.036,0.281,-5.337
0.073,0.038,0.284,-5.337
0.116,0.037,0.284,-5.337
0.145,0.037,0.282,-5.337
0.091,0.037,0.280,-5.337
0.052,0.034,0.279,-5.337
0.055,0.031,0.282,-5.337
0.042,0.034,0.284,-5.337
0.017,0.039,0.282,-5.337
0.030,0.037,0.280,-5.337
0.103,0.033,0.280,-5.337
0.107,0.036,0.282,-5.337
0.044,0.040,0.280,-5.337
0.018,0.041,0.279,-5.337
0.094,0.038,0.278,-5.337
0.104,0.039,0.278,-5.337
0.055,0.040,0.276,-5.337
0.027,0.042,0.278,-5.337
0.004,0.046,0.283,-5.337
0.012,0.045,0.283,-5.337
0.156,0.040,0.280,-5.337
0.216,0.040,0.278,-5.337
0.189,0.043,0.278,-5.337
0.126,0.045,0.280,-5.337
0.059,0.045,0.282,-5.337
0.114,0.041,0.281,-5.337
0.203,0.039,0.280,-5.337
0.142,0.042,0.280,-5.337
0.137,0.044,0.280,-5.337
0.124,0.042,0.279,-5.337
0.159,0.038,0.282,-5.337
0.143,0.040,0.284,-5.337
0.148,0.039,0.286,-5.337
0.171,0.038,0.286,-5.337
0.170,0.035,0.282,-5.337
0.165,0.036,0.275,-5.337
0.144,0.038,0.274,-5.337
0.155,0.038,0.277,-5.337
0.132,0.041,0.281,-5.337
0.050,0.042,0.283,-5.337
0.125,0.041,0.284,-5.337
0.192,0.039,0.282,-5.337
0.206,0.042,0.281,-5.337
0.187,0.042,0.279,-5.337
0.208,0.042,0.278,-5.337
0.193,0.043,0.276,-5.337
0.242,0.044,0.276,-5.337
0.240,0.046,0.277,-5.337
0.074,0.046,0.276,-5.337
0.020,0.043,0.278,-5.337
0.034,0.041,0.276,-5.337
0.109,0.036,0.274,-5.337
0.159,0.039,0.276,-5.337
0.112,0.039,0.280,-5.337
0.142,0.040,0.281,-5.337
0.191,0.039,0.283,-5.337
0.149,0.039,0.280,-5.337
0.104,0.037,0.277,-5.337
0.162,0.036,0.277,-5.337
0.152,0.048,0.281,-5.337
0.133,0.047,0.281,-5.337
0.128,0.044,0.280,-5.337
0.153,0.040,0.279,-5.337
0.195,0.043,0.280,-5.337
0.159,0.048,0.279,-5.337
0.129,0.046,0.277,-5.337
0.157,0.041,0.274,-5.337
0.228,0.041,0.274,-5.337
0.241,0.042,0.277,-5.337
0.253,0.038,0.279,-5.337
0.246,0.039,0.282,-5.337
0.193,0.041,0.276,-5.337
0.182,0.043,0.275,-5.337
0.178,0.043,0.279,-5.337
0.180,0.044,0.283,-5.337
0.122,0.042,0.279,-5.337
0.091,0.045,0.275,-5.337
0.149,0.041,0.273,-5.337
0.192,0.046,0.280,-5.337
0.180,0.048,0.283,-5.337
0.161,0.048,0.280,-5.337
0.162,0.046,0.277,-5.337
0.174,0.050,0.276,-5.337
0.201,0.048,0.275,-5.337
0.187,0.048,0.278,-5.337
0.186,0.045,0.281,-5.337
0.246,0.044,0.281,-5.337
0.247,0.043,0.280,-5.337
0.282,0.043,0.278,-5.337
0.321,0.046,0.276,-5.337
0.292,0.049,0.274,-5.337
0.277,0.049,0.274,-5.337
0.290,0.049,0.278,-5.337
0.287,0.049,0.283,-5.337
0.186,0.051,0.283,-5.337
0.117,0.051,0.279,-5.337
0.162,0.052,0.277,-5.337
0.180,0.055,0.279,-5.337
0.184,0.054,0.281,-5.337
0.226,0.054,0.281,-5.337
0.188,0.055,0.280,-5.337
0.212,0.053,0.278,-5.337
0.273,0.052,0.282,-5.337
0.178,0.051,0.278,-5.337
0.186,0.050,0.274,-5.337
0.217,0.052,0.276,-5.337
0.150,0.056,0.280,-5.337
0.141,0.054,0.283,-5.337
0.188,0.050,0.283,-5.337
0.205,0.053,0.279,-5.337
0.174,0.051,0.278,-5.337
0.212,0.053,0.274,-5.337
0.257,0.054,0.276,-5.337
0.218,0.056,0.276,-5.337
0.172,0.054,0.281,-5.337
0.188,0.049,0.284,-5.337
0.205,0.054,0.277,-5.337
0.202,0.052,0.276,-5.337
0.232,0.052,0.280,-5.337
0.314,0.048,0.282,-5.337
0.423,0.044,0.282,-5.337
0.400,0.045,0.278,-5.337
0.350,0.048,0.274,-5.337
0.274,0.052,0.279,-5.337
0.177,0.051,0.284,-5.337
0.159,0.052,0.285,-5.337
0.155,0.054,0.280,-5.337
0.190,0.052,0.276,-5.337
0.237,0.051,0.277,-5.337
0.280,0.052,0.280,-5.337
0.304,0.053,0.283,-5.337
0.317,0.051,0.281,-5.337
0.328,0.052,0.276,-5.337
0.307,0.051,0.275,-5.337
0.305,0.048,0.279,-5.337
0.339,0.049,0.282,-5.337
0.353,0.053,0.282,-5.337
0.280,0.052,0.284,-5.337
0.206,0.057,0.282,-5.337
0.237,0.062,0.280,-5.337
0.257,0.060,0.280,-5.337
0.230,0.058,0.280,-5.337
0.217,0.058,0.280,-5.337
0.265,0.059,0.281,-5.337
0.308,0.055,0.282,-5.337
0.300,0.053,0.279,-5.337
0.336,0.052,0.278,-5.337
0.358,0.054,0.283,-5.337
0.329,0.055,0.284,-5.337
0.292,0.055,0.281,-5.337
0.305,0.055,0.278,-5.337
0.370,0.052,0.273,-5.337
0.428,0.050,0.275,-5.337
0.355,0.058,0.278,-5.337
0.276,0.057,0.283,-5.337
0.321,0.054,0.283,-5.337
0.321,0.055,0.282,-5.337
0.300,0.057,0.281,-5.337
0.253,0.056,0.280,-5.337
0.231,0.054,0.277,-5.337
0.275,0.057,0.278,-5.337
0.311,0.055,0.281,-5.337
0.330,0.053,0.284,-5.337
0.283,0.055,0.285,-5.337
0.256,0.059,0.287,-5.337
0.267,0.058,0.284,-5.337
0.235,0.059,0.279,-5.337
0.210,0.054,0.274,-5.337
0.261,0.051,0.275,-5.337
0.259,0.055,0.279,-5.337
0.297,0.056,0.281,-5.337
0.352,0.053,0.282,-5.337
0.407,0.048,0.280,-5.337
0.433,0.049,0.283,-5.337
0.351,0.055,0.282,-5.337
0.307,0.054,0.279,-5.337
0.339,0.051,0.277,-5.337
0.348,0.053,0.278,-5.337
0.322,0.053,0.276,-5.337
0.286,0.051,0.275,-5.337
0.369,0.050,0.278,-5.337
0.451,0.052,0.281,-5.337
0.346,0.057,0.282,-5.337
0.313,0.055,0.283,-5.337
0.332,0.056,0.283,-5.337
0.332,0.050,0.282,-5.337
0.342,0.049,0.280,-5.337
0.379,0.051,0.278,-5.337
0.406,0.053,0.280,-5.337
0.387,0.052,0.280,-5.337
0.361,0.056,0.280,-5.337
0.378,0.056,0.279,-5.337
0.372,0.055,0.283,-5.337
0.410,0.055,0.285,-5.337
0.349,0.057,0.285,-5.337
0.299,0.056,0.282,-5.337
0.287,0.059,0.283,-5.337
0.307,0.059,0.280,-5.337
0.310,0.058,0.280,-5.337
0.268,0.055,0.277,-5.337
0.317,0.057,0.278,-5.337
0.330,0.057,0.282,-5.337
0.270,0.057,0.283,-5.337
0.242,0.058,0.280,-5.337
0.266,0.057,0.279,-5.337
0.289,0.056,0.278,-5.337
0.338,0.057,0.276,-5.337
0.299,0.056,0.276,-5.337
0.268,0.057,0.278,-5.337
0.287,0.055,0.283,-5.337
0.408,0.053,0.284,-5.337
0.350,0.052,0.282,-5.337
0.322,0.054,0.278,-5.337
0.359,0.055,0.280,-5.337
0.332,0.054,0.279,-5.337
0.340,0.054,0.278,-5.337
0.381,0.057,0.276,-5.337
0.370,0.059,0.278,-5.337
0.311,0.059,0.281,-5.337
0.296,0.060,0.280,-5.337
0.321,0.054,0.277,-5.337
0.327,0.057,0.277,-5.337
0.321,0.057,0.277,-5.337
0.370,0.055,0.278,-5.337
0.352,0.053,0.278,-5.337
0.333,0.053,0.276,-5.337
0.307,0.058,0.279,-5.337
0.265,0.060,0.283,-5.337
0.254,0.059,0.283,-5.337
0.373,0.055,0.278,-5.337
0.346,0.054,0.276,-5.337
0.273,0.053,0.275,-5.337
0.339,0.054,0.275,-5.337
0.322,0.056,0.278,-5.337
0.322,0.056,0.279,-5.337
0.431,0.054,0.279,-5.337
0.456,0.054,0.280,-5.337
0.461,0.056,0.280,-5.337
0.477,0.057,0.282,-5.337
0.404,0.056,0.284,-5.337
0.346,0.053,0.283,-5.337
0.328,0.051,0.279,-5.337
0.370,0.054,0.280,-5.337
0.328,0.057,0.282,-5.337
0.312,0.054,0.282,-5.337
0.342,0.055,0.282,-5.337
0.342,0.056,0.281,-5.337
0.268,0.058,0.279,-5.337
0.279,0.057,0.278,-5.337
0.292,0.056,0.279,-5.337
0.251,0.058,0.279,-5.337
0.291,0.052,0.279,-5.337
0.333,0.049,0.280,-5.337
0.369,0.048,0.280,-5.337
0.385,0.051,0.279,-5.337
0.328,0.052,0.275,-5.337
0.323,0.051,0.272,-5.337
0.334,0.051,0.274,-5.337
0.317,0.047,0.276,-5.337
0.295,0.052,0.279,-5.337
0.243,0.056,0.280,-5.337
0.241,0.053,0.280,-5.337
0.290,0.047,0.280,-5.337
0.325,0.048,0.281,-5.337
0.257,0.049,0.283,-5.337
0.198,0.047,0.284,-5.337
0.232,0.045,0.280,-5.337
0.274,0.046,0.278,-5.337
0.298,0.047,0.279,-5.337
0.353,0.042,0.280,-5.337
0.309,0.041,0.282,-5.337
0.355,0.042,0.283,-5.337
0.373,0.044,0.287,-5.337
0.239,0.050,0.284,-5.337
0.186,0.049,0.281,-5.337
0.301,0.045,0.279,-5.337
0.372,0.045,0.275,-5.337
0.295,0.049,0.274,-5.337
0.196,0.051,0.280,-5.337
0.171,0.048,0.281,-5.337
0.204,0.046,0.281,-5.337
0.141,0.047,0.280,-5.337
0.219,0.047,0.280,-5.337
0.281,0.048,0.281,-5.337
0.236,0.050,0.277,-5.337
0.190,0.048,0.275,-5.337
0.210,0.051,0.276,-5.337
0.220,0.053,0.282,-5.337
0.271,0.048,0.286,-5.337
0.285,0.045,0.287,-5.337
0.253,0.045,0.284,-5.337
0.251,0.045,0.282,-5.337
0.260,0.046,0.279,-5.337
0.267,0.045,0.274,-5.337
0.267,0.044,0.276,-5.337
0.296,0.048,0.283,-5.337
0.287,0.049,0.286,-5.337
0.270,0.048,0.284,-5.337
0.234,0.044,0.278,-5.337
0.243,0.046,0.278,-5.337
0.258,0.045,0.280,-5.337
0.226,0.043,0.283,-5.337
0.220,0.039,0.285,-5.337
0.260,0.041,0.285,-5.337
0.251,0.044,0.279,-5.337
0.183,0.042,0.279,-5.337
0.223,0.040,0.281,-5.337
0.287,0.038,0.278,-5.337
0.305,0.038,0.277,-5.337
0.326,0.040,0.280,-5.337
0.376,0.038,0.281,-5.337
0.291,0.040,0.284,-5.337
0.170,0.042,0.285,-5.337
0.164,0.039,0.284,-5.337
0.165,0.040,0.285,-5.337
0.221,0.039,0.281,-5.337
0.221,0.039,0.276,-5.337
0.168,0.042,0.272,-5.337
0.135,0.043,0.273,-5.337
0.166,0.040,0.274,-5.337
0.181,0.044,0.275,-5.337
0.191,0.041,0.279,-5.337
0.242,0.038,0.282,-5.337
0.256,0.039,0.284,-5.337
0.231,0.041,0.283,-5.337
0.254,0.040,0.279,-5.337
0.262,0.042,0.278,-5.337
0.285,0.042,0.277,-5.337
0.295,0.045,0.280,-5.337
0.197,0.046,0.281,-5.337
0.090,0.043,0.280,-5.337
0.154,0.038,0.281,-5.337
0.224,0.039,0.277,-5.337
0.247,0.039,0.279,-5.337
0.194,0.041,0.281,-5.337
0.182,0.037,0.284,-5.337
0.231,0.035,0.279,-5.337
0.306,0.037,0.271,-5.337
0.318,0.035,0.271,-5.337
0.273,0.039,0.277,-5.337
0.245,0.038,0.278,-5.337
0.215,0.042,0.278,-5.337
0.146,0.044,0.279,-5.337
0.135,0.042,0.282,-5.337
0.154,0.042,0.281,-5.337
0.168,0.041,0.281,-5.337
0.190,0.038,0.278,-5.337
0.122,0.038,0.279,-5.337
0.146,0.042,0.283,-5.337
0.174,0.038,0.284,-5.337
0.159,0.035,0.282,-5.337
0.117,0.037,0.278,-5.337
0.125,0.040,0.280,-5.337
0.139,0.039,0.279,-5.337
0.128,0.039,0.277,-5.337
0.120,0.037,0.275,-5.337
0.110,0.036,0.278,-5.337
0.104,0.037,0.283,-5.337
0.131,0.041,0.283,-5.337
0.167,0.040,0.279,-5.337
0.160,0.041,0.277,-5.337
0.058,0.040,0.279,-5.337
0.059,0.036,0.281,-5.337
0.096,0.038,0.278,-5.337
0.193,0.037,0.277,-5.337
0.241,0.034,0.280,-5.337
0.190,0.039,0.282,-5.337
0.042,0.040,0.278,-5.337
0.093,0.039,0.277,-5.337
0.120,0.037,0.282,-5.337
0.110,0.034,0.281,-5.337
0.120,0.034,0.282,-5.337
0.160,0.034,0.285,-5.337
0.094,0.040,0.288,-5.337
0.078,0.036,0.285,-5.337
0.211,0.032,0.285,-5.337
0.224,0.036,0.281,-5.337
0.121,0.038,0.276,-5.337
0.016,0.037,0.273,-5.337
0.064,0.037,0.275,-5.337
0.145,0.036,0.281,-5.337
0.160,0.036,0.285,-5.337
0.161,0.035,0.285,-5.337
0.141,0.033,0.280,-5.337
0.203,0.036,0.274,-5.337
0.250,0.038,0.274,-5.337
0.205,0.040,0.277,-5.337
0.130,0.037,0.277,-5.337
0.105,0.040,0.278,-5.337
0.152,0.040,0.281,-5.337
0.196,0.037,0.282,-5.337
0.147,0.038,0.284,-5.337
0.080,0.038,0.282,-5.337
0.132,0.038,0.276,-5.337
0.134,0.040,0.279,-5.337
0.079,0.037,0.282,-5.337
0.119,0.034,0.286,-5.337
0.175,0.029,0.283,-5.337
0.092,0.032,0.282,-5.337
0.011,0.033,0.280,-5.337
0.018,0.034,0.280,-5.337
0.117,0.031,0.282,-5.337
0.169,0.031,0.282,-5.337
0.078,0.034,0.280,-5.337
0.061,0.035,0.284,-5.337
0.110,0.033,0.284,-5.337
0.132,0.033,0.282,-5.337
0.106,0.031,0.281,-5.337
0.136,0.032,0.282,-5.337
0.194,0.034,0.279,-5.337
0.170,0.034,0.275,-5.337
0.121,0.034,0.274,-5.337
0.104,0.031,0.275,-5.337
0.112,0.031,0.281,-5.337
0.134,0.033,0.285,-5.337
0.162,0.032,0.288,-5.337
0.192,0.031,0.281,-5.337
0.240,0.030,0.276,-5.337
0.232,0.029,0.281,-5.337
0.156,0.032,0.287,-5.337
0.107,0.030,0.285,-5.337
0.072,0.033,0.279,-5.337
0.138,0.027,0.279,-5.337
0.110,0.029,0.283,-5.337
0.042,0.033,0.284,-5.337
0.026,0.036,0.281,-5.337
0.028,0.034,0.279,-5.337
0.102,0.032,0.282,-5.337
0.142,0.032,0.284,-5.337
0.163,0.033,0.283,-5.337
0.126,0.036,0.284,-5.337
0.083,0.037,0.282,-5.337
0.082,0.035,0.281,-5.337
0.091,0.030,0.280,-5.337
0.087,0.034,0.281,-5.337
0.038,0.039,0.279,-5.337
0.036,0.037,0.278,-5.337
0.004,0.035,0.280,-5.337
0.013,0.032,0.285,-5.337
0.011,0.032,0.283,-5.337
0.030,0.033,0.279,-5.337
-0.024,0.031,0.279,-5.337
-0.010,0.030,0.282,-5.337
0.096,0.026,0.285,-5.337
0.115,0.031,0.282,-5.337
0.087,0.030,0.280,-5.337
0.060,0.027,0.280,-5.337
0.073,0.029,0.286,-5.337
0.188,0.025,0.289,-5.337
0.237,0.027,0.290,-5.337
0.207,0.028,0.285,-5.337
0.089,0.027,0.282,-5.337
0.079,0.025,0.281,-5.337
0.076,0.025,0.280,-5.337
0.056,0.029,0.278,-5.337
0.093,0.029,0.278,-5.337
0.081,0.025,0.281,-5.337
0.111,0.027,0.281,-5.337
0.170,0.029,0.281,-5.337
0.097,0.032,0.281,-5.337
0.043,0.030,0.282,-5.337
0.052,0.030,0.286,-5.337
0.030,0.031,0.286,-5.337
-0.020,0.033,0.285,-5.337
-0.058,0.033,0.286,-5.337
-0.033,0.033,0.287,-5.337
0.005,0.031,0.284,-5.337
0.041,0.029,0.283,-5.337
0.066,0.030,0.285,-5.337
0.092,0.033,0.282,-5.337
0.071,0.033,0.277,-5.337
0.009,0.034,0.276,-5.337
-0.021,0.035,0.281,-5.337
0.029,0.033,0.286,-5.337
0.104,0.029,0.285,-5.337
0.163,0.029,0.282,-5.337
0.106,0.031,0.280,-5.337
0.029,0.032,0.279,-5.337
0.023,0.031,0.280,-5.337
0.004,0.033,0.279,-5.337
0.011,0.034,0.281,-5.337
0.000,0.034,0.283,-5.337
-0.001,0.034,0.283,-5.337
-0.006,0.033,0.279,-5.337
0.060,0.031,0.275,-5.337
0.084,0.031,0.275,-5.337
0.115,0.029,0.280,-5.337
-0.006,0.031,0.282,-5.337
-0.093,0.030,0.280,-5.337
-0.039,0.031,0.280,-5.337
0.060,0.029,0.281,-5.337
0.072,0.029,0.285,-5.337
0.045,0.032,0.285,-5.337
0.041,0.034,0.280,-5.337
0.107,0.032,0.275,-5.337
0.146,0.033,0.278,-5.337
0.134,0.034,0.279,-5.337
0.169,0.036,0.278,-5.337
0.118,0.035,0.276,-5.337
0.060,0.034,0.278,-5.337
0.085,0.034,0.278,-5.337
0.088,0.040,0.278,-5.337
0.051,0.037,0.279,-5.337
0.076,0.034,0.283,-5.337
0.139,0.033,0.287,-5.337
0.105,0.038,0.285,-5.337
0.038,0.038,0.283,-5.337
0.001,0.039,0.281,-5.337
0.007,0.038,0.277,-5.337
0.099,0.032,0.276,-5.337
0.118,0.027,0.277,-5.337
0.092,0.031,0.276,-5.337
0.079,0.032,0.277,-5.337
0.104,0.029,0.280,-5.337
0.200,0.029,0.284,-5.337
0.135,0.032,0.283,-5.337
0.053,0.033,0.282,-5.337
0.070,0.033,0.277,-5.337
0.068,0.035,0.278,-5.337
0.115,0.037,0.277,-5.337
0.139,0.039,0.277,-5.337
0.089,0.038,0.280,-5.337
0.110,0.036,0.282,-5.337
0.161,0.036,0.280,-5.337
0.196,0.037,0.280,-5.337
0.187,0.041,0.281,-5.337
0.126,0.043,0.282,-5.337
0.081,0.041,0.284,-5.337
0.100,0.041,0.282,-5.337
0.027,0.043,0.276,-5.337
0.049,0.041,0.276,-5.337
0.118,0.043,0.278,-5.337
0.090,0.041,0.279,-5.337
0.046,0.041,0.281,-5.337
0.121,0.042,0.282,-5.337
0.105,0.042,0.284,-5.337
0.036,0.042,0.280,-5.337
0.133,0.038,0.280,-5.337
0.206,0.038,0.283,-5.337
0.101,0.044,0.282,-5.337
0.061,0.043,0.277,-5.337
0.087,0.043,0.278,-5.337
0.072,0.042,0.278,-5.337
0.058,0.040,0.279,-5.337
0.192,0.037,0.278,-5.337
0.257,0.041,0.282,-5.337
0.143,0.042,0.284,-5.337
0.061,0.042,0.285,-5.337
0.098,0.042,0.282,-5.337
0.151,0.044,0.279,-5.337
0.153,0.043,0.278,-5.337
0.220,0.035,0.278,-5.337
0.243,0.036,0.280,-5.337
0.209,0.038,0.283,-5.337
0.229,0.036,0.287,-5.337
0.236,0.036,0.286,-5.337
0.194,0.040,0.284,-5.337
0.156,0.041,0.283,-5.337
0.154,0.044,0.280,-5.337
0.086,0.047,0.275,-5.337
0.126,0.046,0.274,-5.337
0.166,0.047,0.275,-5.337
0.091,0.052,0.278,-5.337
0.069,0.048,0.277,-5.337
0.126,0.041,0.277,-5.337
0.199,0.036,0.281,-5.337
0.223,0.043,0.283,-5.337
0.262,0.042,0.281,-5.337
0.287,0.041,0.282,-5.337
0.259,0.045,0.283,-5.337
0.199,0.049,0.282,-5.337
0.105,0.052,0.282,-5.337
0.108,0.051,0.279,-5.337
0.163,0.049,0.280,-5.337
0.214,0.049,0.280,-5.337
0.172,0.049,0.279,-5.337
0.209,0.044,0.281,-5.337
0.296,0.041,0.283,-5.337
0.225,0.044,0.281,-5.337
0.203,0.048,0.280,-5.337
0.262,0.049,0.281,-5.337
0.286,0.045,0.284,-5.337
0.281,0.045,0.283,-5.337
0.216,0.049,0.280,-5.337
0.176,0.048,0.274,-5.337
0.192,0.045,0.270,-5.337
0.182,0.047,0.275,-5.337
0.153,0.046,0.276,-5.337
0.123,0.046,0.277,-5.337
0.083,0.047,0.280,-5.337
0.104,0.049,0.278,-5.337
0.128,0.049,0.275,-5.337
0.134,0.051,0.277,-5.337
0.191,0.053,0.282,-5.337
0.178,0.053,0.286,-5.337
0.246,0.052,0.285,-5.337
0.356,0.050,0.285,-5.337
0.339,0.050,0.282,-5.337
0.200,0.056,0.280,-5.337
0.166,0.053,0.277,-5.337
0.275,0.050,0.278,-5.337
0.320,0.049,0.280,-5.337
0.264,0.053,0.278,-5.337
0.231,0.052,0.275,-5.337
0.192,0.052,0.277,-5.337
0.139,0.055,0.280,-5.337
0.099,0.054,0.281,-5.337
0.124,0.051,0.279,-5.337
0.202,0.050,0.281,-5.337
0.266,0.051,0.281,-5.337
0.269,0.053,0.282,-5.337
0.191,0.054,0.278,-5.337
0.232,0.050,0.274,-5.337
0.289,0.047,0.271,-5.337
0.252,0.047,0.272,-5.337
0.255,0.047,0.277,-5.337
0.333,0.051,0.279,-5.337
0.308,0.055,0.282,-5.337
0.208,0.052,0.283,-5.337
0.164,0.054,0.279,-5.337
0.187,0.052,0.277,-5.337
0.279,0.051,0.276,-5.337
0.346,0.049,0.277,-5.337
0.403,0.053,0.279,-5.337
0.346,0.056,0.283,-5.337
0.260,0.053,0.284,-5.337
0.273,0.050,0.282,-5.337
0.289,0.053,0.281,-5.337
0.307,0.054,0.277,-5.337
0.327,0.055,0.275,-5.337
0.367,0.054,0.279,-5.337
0.328,0.055,0.282,-5.337
0.243,0.057,0.280,-5.337
0.154,0.058,0.282,-5.337
0.201,0.059,0.286,-5.337
0.343,0.052,0.284,-5.337
0.409,0.050,0.277,-5.337
0.345,0.054,0.275,-5.337
0.281,0.056,0.278,-5.337
0.317,0.052,0.280,-5.337
0.321,0.052,0.281,-5.337
0.304,0.054,0.277,-5.337
0.380,0.055,0.278,-5.337
0.400,0.057,0.284,-5.337
0.290,0.062,0.282,-5.337
0.241,0.061,0.280,-5.337
0.243,0.062,0.280,-5.337
0.283,0.060,0.279,-5.337
0.329,0.057,0.277,-5.337
0.365,0.053,0.274,-5.337
0.323,0.054,0.275,-5.337
0.203,0.060,0.281,-5.337
0.167,0.061,0.284,-5.337
0.211,0.056,0.285,-5.337
0.291,0.054,0.280,-5.337
0.289,0.053,0.278,-5.337
0.255,0.053,0.278,-5.337
0.288,0.050,0.280,-5.337
0.329,0.052,0.280,-5.337
0.303,0.059,0.280,-5.337
0.239,0.061,0.280,-5.337
0.203,0.063,0.279,-5.337
0.217,0.062,0.276,-5.337
0.238,0.061,0.280,-5.337
0.329,0.057,0.286,-5.337
0.409,0.054,0.290,-5.337
0.413,0.051,0.287,-5.337
0.343,0.055,0.286,-5.337
0.299,0.053,0.285,-5.337
0.270,0.053,0.282,-5.337
0.307,0.054,0.281,-5.337
0.386,0.053,0.281,-5.337
0.418,0.055,0.280,-5.337
0.341,0.059,0.280,-5.337
0.302,0.058,0.280,-5.337
0.318,0.056,0.278,-5.337
0.317,0.057,0.275,-5.337
0.350,0.060,0.274,-5.337
0.339,0.060,0.277,-5.337
0.297,0.059,0.281,-5.337
0.289,0.059,0.281,-5.337
0.312,0.057,0.280,-5.337
0.370,0.059,0.283,-5.337
0.374,0.058,0.284,-5.337
0.358,0.061,0.282,-5.337
0.390,0.059,0.275,-5.337
0.491,0.054,0.273,-5.337
0.529,0.055,0.278,-5.337
0.450,0.056,0.285,-5.337
0.379,0.057,0.289,-5.337
0.296,0.060,0.288,-5.337
0.292,0.061,0.284,-5.337
0.332,0.060,0.280,-5.337
0.272,0.059,0.281,-5.337
0.232,0.061,0.283,-5.337
0.224,0.062,0.285,-5.337
0.275,0.059,0.289,-5.337
0.365,0.054,0.289,-5.337
0.389,0.056,0.282,-5.337
0.351,0.058,0.279,-5.337
0.341,0.058,0.275,-5.337
0.309,0.062,0.278,-5.337
0.301,0.060,0.281,-5.337
0.339,0.058,0.283,-5.337
0.332,0.056,0.283,-5.337
0.377,0.056,0.283,-5.337
0.406,0.056,0.280,-5.337
0.343,0.058,0.276,-5.337
0.305,0.057,0.277,-5.337
0.356,0.056,0.280,-5.337
0.349,0.057,0.282,-5.337
0.288,0.059,0.282,-5.337
0.213,0.059,0.283,-5.337
0.201,0.057,0.283,-5.337
0.200,0.058,0.284,-5.337
0.259,0.057,0.284,-5.337
0.325,0.056,0.281,-5.337
0.303,0.061,0.280,-5.337
0.300,0.060,0.284,-5.337
0.317,0.058,0.283,-5.337
0.329,0.057,0.282,-5.337
0.396,0.053,0.280,-5.337
0.376,0.055,0.281,-5.337
0.327,0.055,0.281,-5.337
0.265,0.058,0.282,-5.337
0.286,0.056,0.283,-5.337
0.314,0.057,0.286,-5.337
0.266,0.060,0.288,-5.337
0.212,0.061,0.285,-5.337
0.266,0.059,0.280,-5.337
0.303,0.060,0.281,-5.337
0.283,0.056,0.285,-5.337
0.355,0.055,0.286,-5.337
0.441,0.056,0.285,-5.337
0.385,0.059,0.279,-5.337
0.235,0.061,0.276,-5.337
0.275,0.053,0.279,-5.337
0.327,0.054,0.282,-5.337
0.386,0.059,0.278,-5.337
0.455,0.058,0.276,-5.337
0.456,0.056,0.279,-5.337
0.361,0.058,0.283,-5.337
0.317,0.060,0.283,-5.337
0.321,0.061,0.285,-5.337
0.320,0.055,0.285,-5.337
0.356,0.052,0.281,-5.337
0.380,0.052,0.277,-5.337
0.351,0.056,0.276,-5.337
0.302,0.055,0.280,-5.337
0.323,0.053,0.280,-5.337
0.348,0.054,0.279,-5.337
0.388,0.052,0.278,-5.337
0.385,0.049,0.277,-5.337
0.359,0.050,0.278,-5.337
0.305,0.052,0.282,-5.337
0.275,0.056,0.285,-5.337
0.344,0.052,0.285,-5.337
0.378,0.053,0.280,-5.337
0.296,0.059,0.277,-5.337
0.248,0.058,0.273,-5.337
0.280,0.058,0.276,-5.337
0.253,0.056,0.279,-5.337
0.223,0.055,0.280,-5.337
0.296,0.047,0.280,-5.337
0.438,0.043,0.280,-5.337
0.418,0.049,0.278,-5.337
0.347,0.053,0.277,-5.337
0.300,0.053,0.277,-5.337
0.294,0.051,0.278,-5.337
0.211,0.051,0.281,-5.337
0.232,0.049,0.280,-5.337
0.305,0.048,0.278,-5.337
0.353,0.047,0.279,-5.337
0.395,0.045,0.281,-5.337
0.373,0.045,0.283,-5.337
0.351,0.048,0.285,-5.337
0.319,0.049,0.282,-5.337
0.347,0.045,0.279,-5.337
0.335,0.043,0.279,-5.337
0.325,0.041,0.283,-5.337
0.373,0.042,0.282,-5.337
0.369,0.047,0.281,-5.337
0.267,0.047,0.278,-5.337
0.214,0.046,0.282,-5.337
0.197,0.046,0.282,-5.337
0.207,0.045,0.278,-5.337
0.255,0.046,0.278,-5.337
0.249,0.048,0.283,-5.337
0.203,0.045,0.284,-5.337
0.174,0.047,0.279,-5.337
0.175,0.047,0.275,-5.337
0.219,0.049,0.278,-5.337
0.305,0.046,0.282,-5.337
0.300,0.045,0.282,-5.337
0.269,0.044,0.278,-5.337
0.345,0.042,0.275,-5.337
0.446,0.037,0.275,-5.337
0.346,0.040,0.275,-5.337
0.283,0.043,0.278,-5.337
0.234,0.047,0.281,-5.337
0.219,0.045,0.285,-5.337
0.209,0.045,0.284,-5.337
0.185,0.047,0.280,-5.337
0.191,0.048,0.279,-5.337
0.191,0.050,0.281,-5.337
0.200,0.047,0.282,-5.337
0.205,0.045,0.281,-5.337
0.228,0.045,0.281,-5.337
0.272,0.041,0.281,-5.337
0.284,0.038,0.283,-5.337
0.258,0.041,0.283,-5.337
0.226,0.043,0.279,-5.337
0.220,0.044,0.281,-5.337
0.197,0.043,0.284,-5.337
0.166,0.040,0.281,-5.337
0.149,0.040,0.276,-5.337
0.106,0.040,0.275,-5.337
0.114,0.042,0.278,-5.337
0.215,0.039,0.280,-5.337
0.355,0.038,0.284,-5.337
0.290,0.042,0.281,-5.337
0.214,0.043,0.280,-5.337
0.224,0.042,0.281,-5.337
0.188,0.046,0.283,-5.337
0.236,0.045,0.283,-5.337
0.348,0.040,0.280,-5.337
0.293,0.040,0.279,-5.337
0.179,0.045,0.281,-5.337
0.158,0.045,0.285,-5.337
0.220,0.040,0.289,-5.337
0.287,0.040,0.284,-5.337
0.274,0.043,0.279,-5.337
0.143,0.045,0.279,-5.337
0.195,0.041,0.278,-5.337
0.297,0.037,0.277,-5.337
0.240,0.042,0.279,-5.337
0.170,0.044,0.283,-5.337
0.153,0.045,0.284,-5.337
0.175,0.043,0.282,-5.337
0.255,0.043,0.278,-5.337
0.162,0.049,0.281,-5.337
0.044,0.048,0.282,-5.337
0.132,0.044,0.282,-5.337
0.248,0.041,0.283,-5.337
0.250,0.038,0.282,-5.337
0.160,0.038,0.282,-5.337
0.141,0.041,0.284,-5.337
0.155,0.041,0.284,-5.337
0.192,0.040,0.281,-5.337
0.180,0.039,0.276,-5.337
0.191,0.036,0.275,-5.337
0.283,0.033,0.274,-5.337
0.249,0.035,0.278,-5.337
0.132,0.038,0.286,-5.337
0.053,0.040,0.287,-5.337
0.085,0.038,0.285,-5.337
0.166,0.036,0.282,-5.337
0.170,0.037,0.280,-5.337
0.125,0.035,0.277,-5.337
0.197,0.037,0.279,-5.337
0.185,0.039,0.278,-5.337
0.144,0.039,0.280,-5.337
0.179,0.035,0.281,-5.337
0.196,0.036,0.280,-5.337
0.220,0.038,0.280,-5.337
0.138,0.037,0.280,-5.337
0.073,0.034,0.282,-5.337
0.159,0.036,0.284,-5.337
0.177,0.036,0.281,-5.337
0.143,0.035,0.280,-5.337
0.081,0.035,0.282,-5.337
0.086,0.032,0.282,-5.337
0.154,0.031,0.281,-5.337
0.198,0.033,0.278,-5.337
0.142,0.036,0.278,-5.337
0.072,0.040,0.278,-5.337
0.104,0.036,0.283,-5.337
0.131,0.037,0.280,-5.337
0.095,0.040,0.279,-5.337
0.024,0.039,0.278,-5.337
0.046,0.040,0.280,-5.337
0.131,0.036,0.282,-5.337
0.128,0.040,0.280,-5.337
0.083,0.042,0.273,-5.337
0.124,0.043,0.269,-5.337
0.114,0.045,0.275,-5.337
0.124,0.039,0.280,-5.337
0.123,0.038,0.284,-5.337
0.080,0.041,0.284,-5.337
0.052,0.037,0.280,-5.337
0.039,0.040,0.278,-5.337
0.076,0.041,0.282,-5.337
0.130,0.039,0.285,-5.337
0.149,0.036,0.283,-5.337
0.145,0.037,0.282,-5.337
0.155,0.039,0.279,-5.337
0.181,0.034,0.276,-5.337
0.175,0.035,0.279,-5.337
0.188,0.038,0.279,-5.337
0.184,0.039,0.281,-5.337
0.103,0.041,0.280,-5.337
0.089,0.038,0.275,-5.337
0.115,0.036,0.275,-5.337
0.085,0.037,0.281,-5.337
0.104,0.035,0.285,-5.337
0.061,0.036,0.283,-5.337
0.017,0.038,0.277,-5.337
0.114,0.037,0.274,-5.337
0.187,0.034,0.275,-5.337
0.097,0.039,0.278,-5.337
0.027,0.039,0.276,-5.337
0.172,0.037,0.275,-5.337
0.214,0.038,0.279,-5.337
0.079,0.043,0.280,-5.337
0.021,0.041,0.282,-5.337
0.126,0.039,0.283,-5.337
0.102,0.043,0.285,-5.337
0.121,0.041,0.282,-5.337
0.178,0.041,0.279,-5.337
0.141,0.041,0.279,-5.337
0.059,0.038,0.284,-5.337
0.060,0.036,0.286,-5.337
0.020,0.040,0.287,-5.337
0.016,0.042,0.284,-5.337
0.096,0.040,0.281,-5.337
0.115,0.039,0.279,-5.337
0.070,0.041,0.282,-5.337
0.030,0.039,0.284,-5.337
0.082,0.036,0.287,-5.337
0.064,0.039,0.287,-5.337
0.014,0.042,0.284,-5.337
-0.010,0.040,0.281,-5.337
0.066,0.037,0.280,-5.337
0.167,0.034,0.279,-5.337
0.183,0.036,0.282,-5.337
0.150,0.037,0.284,-5.337
0.100,0.038,0.281,-5.337
0.028,0.038,0.279,-5.337
0.060,0.034,0.276,-5.337
0.108,0.035,0.276,-5.337
0.084,0.039,0.281,-5.337
0.080,0.037,0.284,-5.337
0.131,0.032,0.283,-5.337
0.120,0.036,0.280,-5.337
0.074,0.037,0.275,-5.337
0.037,0.037,0.277,-5.337
0.055,0.035,0.281,-5.337
0.046,0.035,0.286,-5.337
0.074,0.034,0.287,-5.337
0.059,0.034,0.279,-5.337
0.006,0.036,0.277,-5.337
-0.006,0.035,0.282,-5.337
0.081,0.032,0.286,-5.337
0.150,0.031,0.284,-5.337
0.070,0.031,0.279,-5.337
-0.071,0.035,0.278,-5.337
0.015,0.033,0.280,-5.337
0.089,0.034,0.282,-5.337
0.064,0.036,0.287,-5.337
0.054,0.037,0.288,-5.337
0.119,0.033,0.286,-5.337
0.160,0.033,0.283,-5.337
0.036,0.035,0.286,-5.337
-0.038,0.035,0.285,-5.337
0.018,0.035,0.284,-5.337
0.046,0.036,0.279,-5.337
0.006,0.037,0.277,-5.337
0.106,0.036,0.281,-5.337
0.170,0.034,0.282,-5.337
0.171,0.028,0.279,-5.337
0.141,0.033,0.281,-5.337
0.016,0.034,0.284,-5.337
0.086,0.032,0.281,-5.337
0.129,0.031,0.279,-5.337
0.116,0.033,0.282,-5.337
0.052,0.033,0.285,-5.337
0.058,0.034,0.284,-5.337
0.063,0.038,0.286,-5.337
0.020,0.038,0.282,-5.337
0.013,0.036,0.282,-5.337
0.030,0.036,0.282,-5.337
0.109,0.035,0.285,-5.337
0.096,0.036,0.284,-5.337
0.057,0.038,0.286,-5.337
0.030,0.037,0.284,-5.337
-0.008,0.039,0.282,-5.337
0.013,0.037,0.284,-5.337
0.046,0.035,0.281,-5.337
0.056,0.032,0.279,-5.337
0.098,0.035,0.283,-5.337
0.064,0.033,0.286,-5.337
0.067,0.032,0.285,-5.337
0.135,0.030,0.283,-5.337
0.155,0.033,0.283,-5.337
0.058,0.037,0.284,-5.337
0.006,0.037,0.283,-5.337
0.035,0.036,0.284,-5.337
0.077,0.034,0.280,-5.337
0.093,0.035,0.280,-5.337
0.142,0.033,0.279,-5.337
0.175,0.034,0.280,-5.337
0.067,0.035,0.281,-5.337
0.058,0.033,0.282,-5.337
0.111,0.037,0.282,-5.337
0.116,0.039,0.280,-5.337
0.112,0.037,0.283,-5.337
0.061,0.038,0.285,-5.337
0.118,0.036,0.285,-5.337
0.118,0.040,0.280,-5.337
0.122,0.039,0.277,-5.337
0.140,0.036,0.278,-5.337
0.162,0.036,0.282,-5.337
0.137,0.040,0.280,-5.337
0.112,0.043,0.280,-5.337
0.091,0.042,0.280,-5.337
0.084,0.044,0.282,-5.337
0.100,0.045,0.283,-5.337
0.139,0.039,0.286,-5.337
0.088,0.039,0.285,-5.337
0.058,0.041,0.283,-5.337
0.053,0.042,0.281,-5.337
0.066,0.043,0.281,-5.337
0.077,0.041,0.279,-5.337
0.104,0.044,0.279,-5.337
0.156,0.043,0.280,-5.337
0.188,0.040,0.282,-5.337
0.096,0.042,0.281,-5.337
0.035,0.045,0.283,-5.337
0.080,0.044,0.287,-5.337
0.148,0.039,0.285,-5.337
0.176,0.041,0.280,-5.337
0.119,0.043,0.279,-5.337
0.051,0.044,0.280,-5.337
0.033,0.042,0.281,-5.337
0.063,0.042,0.280,-5.337
0.122,0.040,0.280,-5.337
0.121,0.039,0.280,-5.337
0.145,0.039,0.280,-5.337
0.180,0.036,0.283,-5.337
0.144,0.037,0.284,-5.337
0.124,0.038,0.286,-5.337
0.079,0.037,0.284,-5.337
0.101,0.037,0.279,-5.337
0.119,0.035,0.275,-5.337
0.175,0.039,0.278,-5.337
0.137,0.039,0.282,-5.337
0.125,0.040,0.285,-5.337
0.183,0.038,0.285,-5.337
0.251,0.036,0.281,-5.337
0.219,0.037,0.280,-5.337
0.143,0.041,0.282,-5.337
0.100,0.038,0.280,-5.337
0.210,0.038,0.279,-5.337
0.248,0.038,0.281,-5.337
0.235,0.041,0.285,-5.337
0.177,0.045,0.284,-5.337
0.149,0.044,0.281,-5.337
0.141,0.042,0.277,-5.337
0.176,0.042,0.280,-5.337
0.249,0.040,0.285,-5.337
0.169,0.042,0.286,-5.337
0.094,0.042,0.287,-5.337
0.139,0.036,0.285,-5.337
0.217,0.036,0.282,-5.337
0.223,0.038,0.277,-5.337
0.230,0.041,0.275,-5.337
0.212,0.039,0.275,-5.337
0.192,0.040,0.278,-5.337
0.164,0.042,0.284,-5.337
0.137,0.042,0.286,-5.337
0.073,0.043,0.283,-5.337
0.125,0.042,0.279,-5.337
0.227,0.038,0.278,-5.337
0.262,0.042,0.279,-5.337
0.216,0.042,0.280,-5.337
0.177,0.044,0.279,-5.337
0.199,0.046,0.283,-5.337
0.276,0.045,0.286,-5.337
0.258,0.046,0.288,-5.337
0.211,0.048,0.284,-5.337
0.259,0.045,0.282,-5.337
0.253,0.046,0.282,-5.337
0.183,0.054,0.280,-5.337
0.202,0.054,0.279,-5.337
0.251,0.052,0.278,-5.337
0.270,0.052,0.279,-5.337
0.217,0.052,0.283,-5.337
0.177,0.049,0.282,-5.337
0.149,0.050,0.282,-5.337
0.141,0.049,0.284,-5.337
0.181,0.045,0.286,-5.337
0.257,0.048,0.284,-5.337
0.287,0.053,0.284,-5.337
0.224,0.050,0.285,-5.337
0.233,0.051,0.286,-5.337
0.239,0.052,0.285,-5.337
0.255,0.050,0.283,-5.337
0.304,0.048,0.282,-5.337
0.285,0.048,0.281,-5.337
0.289,0.053,0.277,-5.337
0.271,0.055,0.275,-5.337
0.195,0.055,0.281,-5.337
0.177,0.056,0.285,-5.337
0.233,0.055,0.290,-5.337
0.207,0.053,0.289,-5.337
0.187,0.051,0.285,-5.337
0.285,0.048,0.280,-5.337
0.341,0.051,0.282,-5.337
0.286,0.055,0.282,-5.337
0.173,0.056,0.282,-5.337
0.088,0.054,0.282,-5.337
0.131,0.055,0.283,-5.337
0.186,0.055,0.281,-5.337
0.221,0.057,0.282,-5.337
0.211,0.056,0.281,-5.337
0.250,0.054,0.282,-5.337
0.245,0.052,0.283,-5.337
0.198,0.055,0.285,-5.337
0.266,0.055,0.284,-5.337
0.285,0.056,0.278,-5.337
0.264,0.054,0.277,-5.337
0.271,0.051,0.276,-5.337
0.315,0.052,0.282,-5.337
0.357,0.054,0.286,-5.337
0.306,0.054,0.288,-5.337
0.254,0.053,0.287,-5.337
0.285,0.053,0.285,-5.337
0.315,0.050,0.283,-5.337
0.358,0.052,0.282,-5.337
0.395,0.052,0.283,-5.337
0.364,0.054,0.283,-5.337
0.271,0.056,0.283,-5.337
0.186,0.053,0.284,-5.337
0.270,0.050,0.282,-5.337
0.333,0.049,0.281,-5.337
0.234,0.053,0.286,-5.337
0.225,0.051,0.291,-5.337
0.300,0.052,0.290,-5.337
0.300,0.055,0.285,-5.337
0.354,0.054,0.280,-5.337
0.291,0.055,0.276,-5.337
0.189,0.054,0.279,-5.337
0.184,0.054,0.279,-5.337
0.274,0.061,0.279,-5.337
0.335,0.059,0.282,-5.337
0.281,0.057,0.282,-5.337
0.231,0.056,0.280,-5.337
0.332,0.056,0.280,-5.337
0.350,0.058,0.281,-5.337
0.319,0.057,0.283,-5.337
0.320,0.056,0.284,-5.337
0.292,0.060,0.280,-5.337
0.290,0.059,0.274,-5.337
0.373,0.055,0.276,-5.337
0.417,0.053,0.282,-5.337
0.407,0.052,0.284,-5.337
0.372,0.052,0.283,-5.337
0.350,0.054,0.278,-5.337
0.244,0.053,0.278,-5.337
0.166,0.052,0.280,-5.337
0.206,0.053,0.280,-5.337
0.230,0.053,0.279,-5.337
0.229,0.056,0.282,-5.337
0.248,0.056,0.283,-5.337
0.260,0.056,0.282,-5.337
0.302,0.056,0.284,-5.337
0.366,0.056,0.284,-5.337
0.329,0.057,0.284,-5.337
0.339,0.057,0.286,-5.337
0.421,0.055,0.285,-5.337
0.436,0.053,0.285,-5.337
0.342,0.054,0.282,-5.337
0.272,0.058,0.277,-5.337
0.218,0.058,0.279,-5.337
0.236,0.059,0.280,-5.337
0.307,0.058,0.282,-5.337
0.385,0.054,0.285,-5.337
0.380,0.053,0.288,-5.337
0.354,0.054,0.284,-5.337
0.317,0.059,0.286,-5.337
0.302,0.060,0.286,-5.337
0.266,0.062,0.286,-5.337
0.242,0.060,0.280,-5.337
0.319,0.059,0.276,-5.337
0.367,0.060,0.277,-5.337
0.371,0.057,0.279,-5.337
0.361,0.056,0.278,-5.337
0.309,0.061,0.280,-5.337
0.287,0.061,0.283,-5.337
0.301,0.063,0.283,-5.337
0.294,0.060,0.283,-5.337
0.342,0.056,0.284,-5.337
0.349,0.055,0.285,-5.337
0.331,0.056,0.290,-5.337
0.279,0.057,0.287,-5.337
0.299,0.058,0.284,-5.337
0.283,0.059,0.282,-5.337
0.308,0.059,0.285,-5.337
0.319,0.061,0.290,-5.337
0.339,0.062,0.287,-5.337
0.330,0.065,0.279,-5.337
0.325,0.066,0.274,-5.337
0.365,0.065,0.280,-5.337
0.362,0.066,0.282,-5.337
0.363,0.068,0.284,-5.337
0.363,0.067,0.283,-5.337
0.400,0.062,0.281,-5.337
0.451,0.061,0.276,-5.337
0.408,0.063,0.276,-5.337
0.327,0.062,0.283,-5.337
0.255,0.069,0.287,-5.337
0.296,0.067,0.282,-5.337
0.347,0.065,0.281,-5.337
0.287,0.062,0.282,-5.337
0.286,0.065,0.283,-5.337
0.313,0.063,0.285,-5.337
0.341,0.064,0.288,-5.337
0.358,0.062,0.288,-5.337
0.447,0.058,0.286,-5.337
0.424,0.060,0.282,-5.337
0.313,0.060,0.280,-5.337
0.322,0.058,0.282,-5.337
0.347,0.056,0.284,-5.337
0.419,0.052,0.285,-5.337
0.492,0.052,0.286,-5.337
0.413,0.054,0.284,-5.337
0.326,0.059,0.280,-5.337
0.331,0.058,0.282,-5.337
0.410,0.056,0.285,-5.337
0.435,0.057,0.283,-5.337
0.390,0.053,0.281,-5.337
0.350,0.056,0.280,-5.337
0.318,0.059,0.280,-5.337
0.368,0.057,0.283,-5.337
0.408,0.057,0.285,-5.337
0.320,0.058,0.289,-5.337
0.268,0.061,0.290,-5.337
0.260,0.058,0.285,-5.337
0.307,0.052,0.281,-5.337
0.369,0.053,0.281,-5.337
0.481,0.049,0.284,-5.337
0.506,0.050,0.284,-5.337
0.410,0.053,0.284,-5.337
0.260,0.057,0.286,-5.337
0.200,0.060,0.290,-5.337
0.287,0.058,0.287,-5.337
0.348,0.060,0.282,-5.337
0.326,0.057,0.282,-5.337
0.282,0.057,0.286,-5.337
0.288,0.055,0.288,-5.337
0.318,0.056,0.288,-5.337
0.303,0.056,0.287,-5.337
0.264,0.057,0.287,-5.337
0.312,0.055,0.286,-5.337
0.328,0.055,0.285,-5.337
0.338,0.056,0.280,-5.337
0.332,0.058,0.279,-5.337
0.390,0.057,0.282,-5.337
0.434,0.053,0.284,-5.337
0.410,0.050,0.285,-5.337
0.337,0.053,0.285,-5.337
0.285,0.056,0.287,-5.337
0.294,0.058,0.283,-5.337
0.253,0.057,0.280,-5.337
0.279,0.053,0.281,-5.337
0.345,0.053,0.281,-5.337
0.345,0.050,0.280,-5.337
0.317,0.051,0.284,-5.337
0.306,0.051,0.287,-5.337
0.299,0.051,0.288,-5.337
0.355,0.049,0.283,-5.337
0.317,0.052,0.280,-5.337
0.281,0.052,0.280,-5.337
0.287,0.052,0.283,-5.337
0.250,0.052,0.284,-5.337
0.232,0.053,0.283,-5.337
0.305,0.052,0.284,-5.337
0.326,0.049,0.279,-5.337
0.305,0.049,0.280,-5.337
0.280,0.051,0.282,-5.337
0.303,0.048,0.285,-5.337
0.289,0.049,0.284,-5.337
0.273,0.049,0.282,-5.337
0.339,0.049,0.284,-5.337
0.392,0.049,0.286,-5.337
0.360,0.048,0.287,-5.337
0.274,0.053,0.288,-5.337
0.273,0.053,0.288,-5.337
0.278,0.054,0.287,-5.337
0.234,0.049,0.283,-5.337
0.214,0.048,0.279,-5.337
0.202,0.048,0.279,-5.337
0.210,0.050,0.282,-5.337
0.256,0.049,0.284,-5.337
0.266,0.042,0.285,-5.337
0.213,0.042,0.287,-5.337
0.169,0.042,0.285,-5.337
0.175,0.043,0.286,-5.337
0.129,0.047,0.285,-5.337
0.179,0.047,0.288,-5.337
0.269,0.044,0.287,-5.337
0.331,0.040,0.283,-5.337
0.302,0.042,0.281,-5.337
0.190,0.043,0.284,-5.337
0.184,0.044,0.284,-5.337
0.257,0.043,0.280,-5.337
0.288,0.040,0.279,-5.337
0.319,0.041,0.281,-5.337
0.277,0.042,0.282,-5.337
0.171,0.048,0.283,-5.337
0.281,0.043,0.285,-5.337
0.387,0.042,0.286,-5.337
0.354,0.042,0.285,-5.337
0.277,0.046,0.287,-5.337
0.270,0.046,0.286,-5.337
0.329,0.044,0.284,-5.337
0.302,0.047,0.284,-5.337
0.232,0.052,0.283,-5.337
0.187,0.048,0.286,-5.337
0.198,0.041,0.286,-5.337
0.259,0.040,0.280,-5.337
0.266,0.043,0.279,-5.337
0.217,0.044,0.281,-5.337
0.154,0.048,0.283,-5.337
0.155,0.047,0.285,-5.337
0.203,0.042,0.283,-5.337
0.246,0.042,0.283,-5.337
0.210,0.041,0.281,-5.337
0.149,0.043,0.282,-5.337
0.149,0.043,0.281,-5.337
0.212,0.044,0.281,-5.337
0.198,0.044,0.282,-5.337
0.148,0.042,0.284,-5.337
0.191,0.040,0.283,-5.337
0.231,0.040,0.280,-5.337
0.264,0.036,0.283,-5.337
0.283,0.038,0.286,-5.337
0.229,0.042,0.285,-5.337
0.202,0.042,0.283,-5.337
0.192,0.040,0.285,-5.337
0.216,0.040,0.288,-5.337
0.190,0.041,0.288,-5.337
0.193,0.039,0.288,-5.337
0.213,0.039,0.286,-5.337
0.185,0.034,0.281,-5.337
0.186,0.032,0.282,-5.337
0.138,0.033,0.285,-5.337
0.092,0.034,0.284,-5.337
0.083,0.038,0.281,-5.337
0.081,0.038,0.280,-5.337
0.146,0.034,0.282,-5.337
0.133,0.034,0.285,-5.337
0.094,0.033,0.284,-5.337
0.191,0.034,0.286,-5.337
0.156,0.037,0.284,-5.337
0.141,0.034,0.281,-5.337
0.133,0.036,0.280,-5.337
0.136,0.033,0.282,-5.337
0.110,0.035,0.283,-5.337
0.103,0.035,0.283,-5.337
0.093,0.033,0.284,-5.337
0.073,0.028,0.283,-5.337
0.155,0.028,0.283,-5.337
0.203,0.035,0.280,-5.337
0.241,0.038,0.280,-5.337
0.200,0.038,0.284,-5.337
0.181,0.038,0.289,-5.337
0.206,0.036,0.286,-5.337
0.170,0.040,0.283,-5.337
0.125,0.040,0.282,-5.337
0.118,0.037,0.283,-5.337
0.162,0.038,0.286,-5.337
0.150,0.040,0.285,-5.337
0.093,0.038,0.283,-5.337
0.117,0.037,0.280,-5.337
0.038,0.038,0.279,-5.337
-0.032,0.039,0.284,-5.337
0.059,0.037,0.286,-5.337
0.101,0.034,0.288,-5.337
0.113,0.035,0.285,-5.337
0.094,0.041,0.283,-5.337
0.079,0.041,0.285,-5.337
0.048,0.042,0.285,-5.337
0.079,0.040,0.285,-5.337
0.162,0.039,0.284,-5.337
0.217,0.042,0.284,-5.337
0.186,0.042,0.284,-5.337
0.161,0.041,0.284,-5.337
0.170,0.037,0.281,-5.337
0.192,0.036,0.281,-5.337
0.194,0.034,0.281,-5.337
0.146,0.036,0.282,-5.337
0.082,0.040,0.285,-5.337
0.050,0.043,0.288,-5.337
0.094,0.040,0.286,-5.337
0.159,0.037,0.288,-5.337
0.198,0.035,0.286,-5.337
0.185,0.037,0.286,-5.337
0.088,0.039,0.286,-5.337
0.041,0.037,0.284,-5.337
0.104,0.032,0.283,-5.337
0.161,0.034,0.284,-5.337
0.162,0.035,0.285,-5.337
0.139,0.036,0.282,-5.337
0.129,0.035,0.280,-5.337
0.152,0.035,0.278,-5.337
0.123,0.037,0.278,-5.337
0.038,0.036,0.278,-5.337
-0.012,0.036,0.278,-5.337
0.031,0.033,0.279,-5.337
0.059,0.034,0.285,-5.337
0.108,0.034,0.290,-5.337
0.128,0.032,0.288,-5.337
0.119,0.035,0.284,-5.337
0.102,0.035,0.283,-5.337
0.111,0.032,0.284,-5.337
0.111,0.034,0.286,-5.337
0.033,0.035,0.284,-5.337
0.081,0.032,0.278,-5.337
0.158,0.031,0.278,-5.337
0.116,0.031,0.281,-5.337
0.017,0.036,0.285,-5.337
0.049,0.036,0.286,-5.337
0.076,0.031,0.288,-5.337
0.058,0.029,0.283,-5.337
0.058,0.031,0.281,-5.337
0.132,0.030,0.279,-5.337
0.170,0.032,0.282,-5.337
0.098,0.033,0.285,-5.337
-0.021,0.036,0.287,-5.337
0.004,0.035,0.288,-5.337
0.035,0.038,0.288,-5.337
0.042,0.041,0.285,-5.337
0.077,0.035,0.280,-5.337
0.054,0.034,0.277,-5.337
0.037,0.035,0.280,-5.337
0.079,0.036,0.284,-5.337
0.160,0.033,0.287,-5.337
0.124,0.038,0.287,-5.337
0.066,0.037,0.286,-5.337
0.135,0.035,0.282,-5.337
0.121,0.038,0.277,-5.337
0.071,0.039,0.280,-5.337
0.037,0.037,0.282,-5.337
0.004,0.037,0.282,-5.337
-0.015,0.035,0.279,-5.337
0.029,0.033,0.280,-5.337
0.063,0.033,0.283,-5.337
0.061,0.035,0.282,-5.337
0.051,0.035,0.279,-5.337
0.077,0.036,0.280,-5.337
0.105,0.031,0.285,-5.337
0.073,0.032,0.289,-5.337
0.046,0.034,0.286,-5.337
0.088,0.036,0.281,-5.337
0.078,0.037,0.280,-5.337
0.099,0.035,0.283,-5.337
0.162,0.033,0.286,-5.337
0.189,0.034,0.285,-5.337
0.114,0.039,0.282,-5.337
0.099,0.039,0.280,-5.337
0.066,0.037,0.284,-5.337
0.053,0.035,0.287,-5.337
0.075,0.035,0.284,-5.337
0.076,0.039,0.281,-5.337
0.084,0.039,0.280,-5.337
0.045,0.039,0.284,-5.337
0.099,0.038,0.285,-5.337
0.117,0.040,0.285,-5.337
0.092,0.040,0.285,-5.337
0.113,0.037,0.281,-5.337
0.078,0.037,0.282,-5.337
0.027,0.038,0.286,-5.337
-0.015,0.039,0.287,-5.337
-0.005,0.037,0.283,-5.337
-0.014,0.035,0.280,-5.337
0.014,0.032,0.282,-5.337
0.104,0.035,0.283,-5.337
0.121,0.038,0.282,-5.337
0.112,0.037,0.283,-5.337
0.118,0.033,0.288,-5.337
0.114,0.029,0.289,-5.337
0.109,0.034,0.285,-5.337
0.096,0.037,0.284,-5.337
0.068,0.035,0.286,-5.337
0.064,0.036,0.285,-5.337
-0.013,0.039,0.283,-5.337
-0.072,0.038,0.281,-5.337
-0.010,0.038,0.283,-5.337
0.036,0.037,0.283,-5.337
0.024,0.040,0.284,-5.337
0.000,0.036,0.290,-5.337
0.028,0.034,0.292,-5.337
0.056,0.036,0.290,-5.337
0.053,0.036,0.287,-5.337
0.073,0.033,0.282,-5.337
-0.009,0.039,0.279,-5.337
-0.012,0.039,0.278,-5.337
0.067,0.041,0.283,-5.337
0.141,0.041,0.288,-5.337
0.166,0.041,0.288,-5.337
0.096,0.038,0.289,-5.337
0.039,0.038,0.287,-5.337
0.085,0.038,0.282,-5.337
0.129,0.035,0.280,-5.337
0.124,0.033,0.283,-5.337
0.093,0.033,0.286,-5.337
0.066,0.034,0.291,-5.337
0.085,0.037,0.290,-5.337
0.051,0.034,0.288,-5.337
0.059,0.035,0.285,-5.337
0.079,0.037,0.284,-5.337
0.052,0.037,0.285,-5.337
0.036,0.038,0.282,-5.337
0.035,0.039,0.281,-5.337
0.105,0.039,0.283,-5.337
0.148,0.034,0.284,-5.337
0.127,0.034,0.286,-5.337
0.081,0.040,0.287,-5.337
0.029,0.040,0.287,-5.337
-0.019,0.040,0.288,-5.337
-0.007,0.041,0.287,-5.337
0.021,0.043,0.284,-5.337
0.140,0.037,0.284,-5.337
0.148,0.038,0.288,-5.337
0.179,0.036,0.286,-5.337
0.139,0.041,0.285,-5.337
0.034,0.045,0.283,-5.337
0.034,0.042,0.285,-5.337
0.053,0.040,0.285,-5.337
0.027,0.041,0.286,-5.337
0.101,0.039,0.285,-5.337
0.182,0.042,0.285,-5.337
0.159,0.042,0.285,-5.337
0.110,0.043,0.287,-5.337
0.189,0.041,0.287,-5.337
0.229,0.042,0.287,-5.337
0.177,0.041,0.286,-5.337
0.158,0.041,0.285,-5.337
0.147,0.043,0.284,-5.337
0.211,0.042,0.285,-5.337
0.204,0.041,0.285,-5.337
0.117,0.041,0.282,-5.337
0.040,0.045,0.278,-5.337
0.048,0.044,0.280,-5.337
0.126,0.043,0.284,-5.337
0.179,0.045,0.282,-5.337
0.124,0.046,0.283,-5.337
0.078,0.043,0.287,-5.337
0.153,0.041,0.287,-5.337
0.171,0.042,0.287,-5.337
0.091,0.044,0.289,-5.337
0.147,0.040,0.286,-5.337
0.226,0.042,0.282,-5.337
0.196,0.046,0.278,-5.337
0.132,0.045,0.278,-5.337
0.122,0.041,0.280,-5.337
0.149,0.042,0.286,-5.337
0.217,0.041,0.287,-5.337
0.216,0.046,0.287,-5.337
0.217,0.048,0.287,-5.337
0.146,0.051,0.285,-5.337
0.092,0.049,0.281,-5.337
0.077,0.048,0.278,-5.337
0.103,0.045,0.281,-5.337
0.123,0.047,0.280,-5.337
0.091,0.050,0.281,-5.337
0.146,0.045,0.282,-5.337
0.199,0.045,0.282,-5.337
0.207,0.042,0.284,-5.337
0.242,0.043,0.291,-5.337
0.154,0.044,0.289,-5.337
0.108,0.046,0.285,-5.337
0.092,0.046,0.285,-5.337
0.141,0.046,0.285,-5.337
0.107,0.048,0.285,-5.337
0.090,0.048,0.285,-5.337
0.136,0.047,0.282,-5.337
0.194,0.043,0.281,-5.337
0.219,0.044,0.284,-5.337
0.206,0.048,0.284,-5.337
0.160,0.050,0.284,-5.337
0.167,0.047,0.284,-5.337
0.180,0.046,0.283,-5.337
0.207,0.047,0.282,-5.337
0.184,0.049,0.283,-5.337
0.176,0.048,0.282,-5.337
0.231,0.046,0.284,-5.337
0.283,0.041,0.285,-5.337
0.309,0.039,0.287,-5.337
0.283,0.041,0.282,-5.337
0.241,0.045,0.280,-5.337
0.206,0.045,0.280,-5.337
0.176,0.046,0.282,-5.337
0.197,0.046,0.284,-5.337
0.161,0.047,0.284,-5.337
0.174,0.044,0.280,-5.337
0.187,0.046,0.279,-5.337
0.125,0.049,0.280,-5.337
0.141,0.049,0.280,-5.337
0.203,0.048,0.281,-5.337
0.273,0.047,0.285,-5.337
0.280,0.046,0.286,-5.337
0.254,0.046,0.285,-5.337
0.245,0.052,0.284,-5.337
0.174,0.052,0.283,-5.337
0.192,0.049,0.287,-5.337
0.271,0.047,0.286,-5.337
0.340,0.046,0.283,-5.337
0.347,0.046,0.282,-5.337
0.271,0.050,0.285,-5.337
0.242,0.049,0.286,-5.337
0.221,0.048,0.285,-5.337
0.217,0.047,0.280,-5.337
0.264,0.048,0.280,-5.337
0.233,0.051,0.281,-5.337
0.176,0.048,0.278,-5.337
0.223,0.044,0.275,-5.337
0.345,0.043,0.278,-5.337
0.316,0.044,0.281,-5.337
0.286,0.045,0.282,-5.337
0.261,0.044,0.282,-5.337
0.225,0.046,0.282,-5.337
0.230,0.047,0.285,-5.337
0.275,0.043,0.285,-5.337
0.286,0.045,0.287,-5.337
0.242,0.050,0.285,-5.337
0.227,0.050,0.283,-5.337
0.235,0.050,0.282,-5.337
0.189,0.049,0.286,-5.337
0.216,0.053,0.287,-5.337
0.305,0.053,0.288,-5.337
0.238,0.051,0.289,-5.337
0.220,0.049,0.287,-5.337
0.266,0.047,0.281,-5.337
0.294,0.049,0.279,-5.337
0.342,0.048,0.278,-5.337
0.291,0.050,0.283,-5.337
0.245,0.054,0.289,-5.337
0.293,0.053,0.288,-5.337
0.336,0.051,0.282,-5.337
0.366,0.050,0.282,-5.337
0.314,0.052,0.286,-5.337
0.304,0.054,0.285,-5.337
0.304,0.053,0.283,-5.337
0.342,0.056,0.282,-5.337
0.416,0.054,0.286,-5.337
0.402,0.053,0.284,-5.337
0.315,0.053,0.280,-5.337
0.293,0.056,0.279,-5.337
0.256,0.061,0.285,-5.337
0.252,0.057,0.287,-5.337
0.284,0.054,0.286,-5.337
0.346,0.052,0.286,-5.337
0.354,0.059,0.283,-5.337
0.341,0.058,0.282,-5.337
0.225,0.057,0.284,-5.337
0.200,0.055,0.287,-5.337
0.249,0.055,0.287,-5.337
0.228,0.059,0.289,-5.337
0.216,0.055,0.285,-5.337
0.305,0.055,0.283,-5.337
0.325,0.059,0.280,-5.337
0.301,0.058,0.282,-5.337
0.320,0.058,0.282,-5.337
0.313,0.060,0.283,-5.337
0.234,0.061,0.280,-5.337
0.186,0.060,0.284,-5.337
0.267,0.057,0.287,-5.337
0.303,0.055,0.286,-5.337
0.220,0.058,0.285,-5.337
0.204,0.058,0.284,-5.337
0.261,0.054,0.283,-5.337
0.277,0.056,0.284,-5.337
0.321,0.059,0.285,-5.337
0.333,0.058,0.282,-5.337
0.256,0.059,0.280,-5.337
0.312,0.056,0.279,-5.337
0.415,0.053,0.279,-5.337
0.397,0.057,0.280,-5.337
0.329,0.058,0.282,-5.337
0.297,0.057,0.282,-5.337
0.313,0.059,0.285,-5.337
0.307,0.057,0.286,-5.337
0.326,0.053,0.287,-5.337
0.345,0.055,0.279,-5.337
0.384,0.058,0.277,-5.337
0.442,0.060,0.279,-5.337
0.415,0.064,0.285,-5.337
0.288,0.063,0.285,-5.337
0.321,0.058,0.284,-5.337
0.342,0.057,0.282,-5.337
0.350,0.055,0.284,-5.337
0.368,0.055,0.286,-5.337
0.342,0.058,0.288,-5.337
0.329,0.059,0.288,-5.337
0.315,0.061,0.286,-5.337
0.251,0.064,0.285,-5.337
0.265,0.062,0.286,-5.337
0.344,0.056,0.285,-5.337
0.429,0.057,0.283,-5.337
0.450,0.058,0.281,-5.337
0.390,0.063,0.282,-5.337
0.301,0.065,0.283,-5.337
0.307,0.064,0.277,-5.337
0.356,0.064,0.276,-5.337
0.368,0.061,0.276,-5.337
0.336,0.063,0.281,-5.337
0.334,0.063,0.285,-5.337
0.335,0.063,0.284,-5.337
0.270,0.060,0.280,-5.337
0.258,0.060,0.282,-5.337
0.252,0.061,0.284,-5.337
0.289,0.060,0.286,-5.337
0.339,0.054,0.286,-5.337
0.382,0.056,0.284,-5.337
0.360,0.059,0.285,-5.337
0.335,0.055,0.283,-5.337
0.310,0.056,0.280,-5.337
0.316,0.058,0.278,-5.337
0.397,0.056,0.280,-5.337
0.443,0.055,0.282,-5.337
0.372,0.056,0.283,-5.337
0.351,0.055,0.285,-5.337
0.404,0.054,0.288,-5.337
0.371,0.056,0.289,-5.337
0.331,0.059,0.288,-5.337
0.370,0.056,0.281,-5.337
0.381,0.060,0.281,-5.337
0.326,0.061,0.284,-5.337
0.198,0.064,0.285,-5.337
0.207,0.062,0.281,-5.337
0.343,0.059,0.278,-5.337
0.383,0.060,0.281,-5.337
0.335,0.059,0.283,-5.337
0.364,0.057,0.282,-5.337
0.371,0.059,0.280,-5.337
0.326,0.059,0.282,-5.337
0.331,0.055,0.283,-5.337
0.349,0.057,0.284,-5.337
0.313,0.054,0.285,-5.337
0.371,0.053,0.286,-5.337
0.351,0.055,0.286,-5.337
0.261,0.059,0.286,-5.337
0.264,0.060,0.289,-5.337
0.346,0.056,0.289,-5.337
0.366,0.054,0.286,-5.337
0.314,0.057,0.283,-5.337
0.250,0.055,0.280,-5.337
0.250,0.056,0.279,-5.337
0.311,0.054,0.283,-5.337
0.272,0.054,0.289,-5.337
0.202,0.053,0.286,-5.337
0.252,0.054,0.282,-5.337
0.313,0.056,0.280,-5.337
0.301,0.057,0.283,-5.337
0.309,0.053,0.282,-5.337
0.316,0.055,0.280,-5.337
0.351,0.053,0.282,-5.337
0.299,0.054,0.288,-5.337
0.272,0.052,0.289,-5.337
0.227,0.054,0.287,-5.337
0.166,0.057,0.285,-5.337
0.170,0.059,0.287,-5.337
0.247,0.052,0.288,-5.337
0.298,0.050,0.285,-5.337
0.309,0.050,0.288,-5.337
0.326,0.049,0.287,-5.337
0.337,0.048,0.285,-5.337
0.340,0.051,0.281,-5.337
0.319,0.053,0.283,-5.337
0.276,0.053,0.285,-5.337
0.258,0.053,0.286,-5.337
0.305,0.050,0.285,-5.337
0.243,0.053,0.282,-5.337
0.268,0.054,0.286,-5.337
0.340,0.050,0.289,-5.337
0.416,0.047,0.291,-5.337
0.385,0.051,0.291,-5.337
0.322,0.052,0.288,-5.337
0.238,0.050,0.287,-5.337
0.266,0.044,0.286,-5.337
0.269,0.046,0.287,-5.337
0.270,0.045,0.287,-5.337
0.304,0.043,0.283,-5.337
0.286,0.042,0.284,-5.337
0.203,0.046,0.284,-5.337
0.183,0.045,0.286,-5.337
0.270,0.042,0.281,-5.337
0.357,0.044,0.279,-5.337
0.367,0.046,0.281,-5.337
0.302,0.047,0.285,-5.337
0.327,0.044,0.286,-5.337
0.361,0.045,0.284,-5.337
0.348,0.046,0.283,-5.337
0.257,0.047,0.282,-5.337
0.158,0.045,0.282,-5.337
0.198,0.044,0.286,-5.337
0.286,0.047,0.287,-5.337
0.260,0.048,0.287,-5.337
0.228,0.045,0.286,-5.337
0.280,0.045,0.287,-5.337
0.353,0.045,0.288,-5.337
0.326,0.042,0.285,-5.337
0.281,0.042,0.286,-5.337
0.239,0.044,0.285,-5.337
0.123,0.050,0.287,-5.337
0.113,0.049,0.288,-5.337
0.200,0.046,0.288,-5.337
0.238,0.044,0.290,-5.337
0.253,0.040,0.294,-5.337
0.250,0.041,0.292,-5.337
0.277,0.045,0.286,-5.337
0.306,0.040,0.283,-5.337
0.253,0.042,0.284,-5.337
0.195,0.041,0.284,-5.337
0.139,0.044,0.285,-5.337
0.134,0.041,0.283,-5.337
0.195,0.042,0.284,-5.337
0.161,0.043,0.279,-5.337
0.189,0.041,0.277,-5.337
0.275,0.040,0.281,-5.337
0.325,0.041,0.283,-5.337
0.323,0.038,0.288,-5.337
0.257,0.040,0.285,-5.337
0.190,0.044,0.282,-5.337
0.192,0.046,0.284,-5.337
0.192,0.047,0.291,-5.337
0.224,0.044,0.288,-5.337
0.232,0.044,0.284,-5.337
0.245,0.041,0.281,-5.337
0.234,0.042,0.282,-5.337
0.206,0.044,0.287,-5.337
0.242,0.041,0.292,-5.337
0.298,0.039,0.288,-5.337
0.232,0.042,0.287,-5.337
0.183,0.043,0.291,-5.337
0.191,0.041,0.291,-5.337
0.182,0.040,0.288,-5.337
0.123,0.041,0.285,-5.337
0.153,0.039,0.284,-5.337
0.140,0.041,0.285,-5.337
0.118,0.044,0.286,-5.337
0.163,0.044,0.283,-5.337
0.157,0.043,0.282,-5.337
0.195,0.043,0.280,-5.337
0.149,0.045,0.281,-5.337
0.026,0.042,0.282,-5.337
0.060,0.041,0.283,-5.337
0.130,0.041,0.283,-5.337
0.200,0.042,0.286,-5.337
0.267,0.037,0.286,-5.337
0.260,0.038,0.288,-5.337
0.210,0.041,0.288,-5.337
0.185,0.042,0.290,-5.337
0.147,0.039,0.289,-5.337
0.145,0.038,0.290,-5.337
0.178,0.038,0.288,-5.337
0.203,0.037,0.284,-5.337
0.151,0.039,0.282,-5.337
0.094,0.041,0.281,-5.337
0.176,0.037,0.280,-5.337
0.267,0.035,0.280,-5.337
0.230,0.035,0.281,-5.337
0.168,0.036,0.281,-5.337
0.097,0.037,0.287,-5.337
0.074,0.035,0.291,-5.337
0.082,0.036,0.289,-5.337
0.100,0.036,0.285,-5.337
0.111,0.033,0.284,-5.337
0.180,0.031,0.281,-5.337
0.206,0.036,0.281,-5.337
0.216,0.032,0.287,-5.337
0.162,0.034,0.290,-5.337
0.134,0.033,0.288,-5.337
0.165,0.035,0.287,-5.337
0.172,0.038,0.285,-5.337
0.176,0.039,0.285,-5.337
0.199,0.036,0.287,-5.337
0.133,0.035,0.282,-5.337
0.153,0.032,0.274,-5.337
0.184,0.035,0.272,-5.337
0.157,0.040,0.277,-5.337
0.079,0.041,0.282,-5.337
0.052,0.040,0.285,-5.337
0.110,0.034,0.286,-5.337
0.180,0.033,0.286,-5.337
0.115,0.034,0.285,-5.337
0.042,0.035,0.289,-5.337
0.100,0.032,0.288,-5.337
0.105,0.032,0.284,-5.337
0.102,0.033,0.280,-5.337
0.158,0.034,0.281,-5.337
0.195,0.031,0.286,-5.337
0.186,0.031,0.288,-5.337
0.230,0.025,0.288,-5.337
0.254,0.028,0.290,-5.337
0.200,0.031,0.289,-5.337
0.206,0.029,0.285,-5.337
0.231,0.028,0.282,-5.337
0.212,0.031,0.282,-5.337
0.177,0.030,0.283,-5.337
0.168,0.027,0.284,-5.337
0.158,0.028,0.289,-5.337
0.101,0.031,0.292,-5.337
0.047,0.032,0.293,-5.337
0.033,0.032,0.288,-5.337
0.055,0.032,0.288,-5.337
0.074,0.033,0.286,-5.337
0.126,0.034,0.281,-5.337
0.150,0.035,0.276,-5.337
0.058,0.037,0.278,-5.337
0.047,0.034,0.281,-5.337
0.120,0.036,0.282,-5.337
0.067,0.036,0.281,-5.337
-0.000,0.039,0.282,-5.337
0.032,0.037,0.283,-5.337
0.055,0.034,0.287,-5.337
0.019,0.038,0.289,-5.337
0.053,0.037,0.288,-5.337
0.071,0.039,0.285,-5.337
0.111,0.040,0.287,-5.337
0.013,0.039,0.287,-5.337
-0.022,0.038,0.288,-5.337
0.085,0.038,0.289,-5.337
0.192,0.038,0.285,-5.337
0.104,0.035,0.285,-5.337
0.013,0.037,0.285,-5.337
0.005,0.037,0.286,-5.337
0.099,0.036,0.285,-5.337
0.100,0.036,0.287,-5.337
0.085,0.038,0.288,-5.337
0.140,0.036,0.286,-5.337
0.154,0.034,0.281,-5.337
0.063,0.038,0.280,-5.337
0.038,0.038,0.283,-5.337
0.140,0.032,0.284,-5.337
0.173,0.031,0.283,-5.337
0.103,0.034,0.286,-5.337
0.046,0.034,0.289,-5.337
0.106,0.028,0.290,-5.337
0.116,0.030,0.288,-5.337
0.104,0.031,0.286,-5.337
0.107,0.030,0.286,-5.337
0.139,0.027,0.284,-5.337
0.136,0.028,0.285,-5.337
0.093,0.032,0.285,-5.337
0.067,0.036,0.284,-5.337
0.067,0.034,0.281,-5.337
0.075,0.032,0.286,-5.337
0.087,0.030,0.286,-5.337
0.034,0.033,0.283,-5.337
0.039,0.030,0.282,-5.337
0.089,0.029,0.282,-5.337
0.062,0.030,0.285,-5.337
0.052,0.028,0.287,-5.337
0.153,0.024,0.286,-5.337
0.141,0.031,0.287,-5.337
0.143,0.035,0.285,-5.337
0.136,0.036,0.288,-5.337
0.055,0.031,0.290,-5.337
-0.044,0.031,0.288,-5.337
-0.016,0.032,0.286,-5.337
0.031,0.034,0.287,-5.337
0.100,0.032,0.286,-5.337
0.104,0.031,0.282,-5.337
0.040,0.032,0.284,-5.337
0.056,0.037,0.288,-5.337
0.107,0.036,0.289,-5.337
0.032,0.031,0.285,-5.337
0.019,0.034,0.281,-5.337
0.066,0.036,0.281,-5.337
0.039,0.034,0.284,-5.337
0.057,0.029,0.284,-5.337
0.068,0.031,0.280,-5.337
0.008,0.034,0.276,-5.337
-0.023,0.034,0.278,-5.337
0.042,0.031,0.286,-5.337
0.138,0.030,0.292,-5.337
0.153,0.029,0.294,-5.337
0.107,0.029,0.289,-5.337
0.052,0.031,0.281,-5.337
-0.021,0.031,0.278,-5.337
-0.067,0.032,0.283,-5.337
0.013,0.029,0.284,-5.337
0.140,0.026,0.284,-5.337
0.182,0.029,0.281,-5.337
0.155,0.031,0.282,-5.337
0.106,0.032,0.285,-5.337
0.107,0.031,0.287,-5.337
0.051,0.035,0.287,-5.337
0.024,0.034,0.285,-5.337
0.024,0.032,0.280,-5.337
0.031,0.035,0.283,-5.337
0.019,0.031,0.288,-5.337
0.025,0.032,0.291,-5.337
0.063,0.030,0.287,-5.337
0.101,0.030,0.279,-5.337
0.097,0.032,0.277,-5.337
0.079,0.032,0.283,-5.337
0.080,0.032,0.289,-5.337
0.141,0.031,0.290,-5.337
0.092,0.032,0.285,-5.337
0.056,0.035,0.279,-5.337
0.030,0.037,0.284,-5.337
0.057,0.036,0.288,-5.337
0.084,0.035,0.289,-5.337
0.035,0.039,0.286,-5.337
-0.003,0.037,0.283,-5.337
0.008,0.037,0.284,-5.337
0.033,0.036,0.288,-5.337
0.044,0.034,0.289,-5.337
-0.021,0.037,0.290,-5.337
-0.049,0.037,0.290,-5.337
0.030,0.035,0.292,-5.337
0.115,0.036,0.291,-5.337
0.101,0.038,0.291,-5.337
0.056,0.040,0.284,-5.337
0.036,0.041,0.278,-5.337
0.064,0.038,0.277,-5.337
0.151,0.039,0.281,-5.337
0.225,0.038,0.285,-5.337
0.229,0.039,0.285,-5.337
0.131,0.039,0.285,-5.337
0.055,0.040,0.287,-5.337
0.047,0.038,0.285,-5.337
0.113,0.037,0.284,-5.337
0.138,0.039,0.286,-5.337
0.095,0.039,0.283,-5.337
0.113,0.037,0.282,-5.337
0.097,0.042,0.282,-5.337
0.087,0.042,0.287,-5.337
0.049,0.043,0.289,-5.337
0.063,0.042,0.287,-5.337
0.126,0.040,0.283,-5.337
0.173,0.038,0.281,-5.337
0.174,0.039,0.284,-5.337
0.124,0.039,0.290,-5.337
0.116,0.038,0.292,-5.337
0.139,0.041,0.291,-5.337
0.099,0.041,0.287,-5.337
0.044,0.045,0.288,-5.337
-0.035,0.047,0.289,-5.337
0.007,0.044,0.284,-5.337
0.112,0.043,0.281,-5.337
0.114,0.044,0.284,-5.337
0.137,0.042,0.291,-5.337
0.170,0.040,0.290,-5.337
0.208,0.042,0.289,-5.337
0.220,0.044,0.286,-5.337
0.158,0.046,0.287,-5.337
0.113,0.045,0.284,-5.337
0.106,0.042,0.285,-5.337
0.091,0.043,0.290,-5.337
0.114,0.043,0.292,-5.337
0.118,0.040,0.289,-5.337
0.095,0.041,0.285,-5.337
0.144,0.043,0.286,-5.337
0.193,0.045,0.290,-5.337
0.229,0.047,0.290,-5.337
0.206,0.044,0.287,-5.337
0.261,0.044,0.284,-5.337
0.240,0.045,0.284,-5.337
0.226,0.047,0.285,-5.337
0.189,0.048,0.289,-5.337
0.086,0.045,0.291,-5.337
0.064,0.042,0.287,-5.337
0.067,0.044,0.284,-5.337
0.119,0.046,0.283,-5.337
0.206,0.046,0.287,-5.337
0.132,0.046,0.288,-5.337
0.077,0.050,0.290,-5.337
0.116,0.049,0.288,-5.337
0.193,0.047,0.289,-5.337
0.219,0.044,0.292,-5.337
0.242,0.044,0.289,-5.337
0.264,0.046,0.283,-5.337
0.218,0.047,0.284,-5.337
0.207,0.045,0.287,-5.337
0.262,0.044,0.286,-5.337
0.218,0.044,0.285,-5.337
0.223,0.041,0.285,-5.337
0.270,0.045,0.287,-5.337
0.158,0.052,0.284,-5.337
0.183,0.047,0.281,-5.337
0.251,0.046,0.281,-5.337
0.195,0.047,0.282,-5.337
0.183,0.050,0.282,-5.337
0.172,0.052,0.284,-5.337
0.157,0.052,0.286,-5.337
0.111,0.057,0.287,-5.337
0.125,0.057,0.284,-5.337
0.157,0.054,0.281,-5.337
0.211,0.050,0.282,-5.337
0.179,0.053,0.285,-5.337
0.202,0.049,0.287,-5.337
0.159,0.051,0.291,-5.337
0.050,0.052,0.290,-5.337
0.201,0.052,0.290,-5.337
0.251,0.050,0.287,-5.337
0.186,0.052,0.282,-5.337
0.178,0.054,0.284,-5.337
0.224,0.054,0.286,-5.337
0.236,0.056,0.288,-5.337
0.234,0.053,0.287,-5.337
0.221,0.051,0.286,-5.337
0.245,0.051,0.285,-5.337
0.296,0.056,0.291,-5.337
0.303,0.056,0.289,-5.337
0.214,0.056,0.288,-5.337
0.154,0.055,0.283,-5.337
0.179,0.056,0.283,-5.337
0.294,0.055,0.286,-5.337
0.356,0.054,0.286,-5.337
0.289,0.055,0.282,-5.337
0.155,0.060,0.280,-5.337
0.181,0.060,0.284,-5.337
0.293,0.060,0.288,-5.337
0.284,0.061,0.287,-5.337
0.197,0.058,0.286,-5.337
0.197,0.055,0.283,-5.337
0.249,0.052,0.280,-5.337
0.292,0.053,0.284,-5.337
0.225,0.057,0.291,-5.337
0.199,0.058,0.288,-5.337
0.256,0.058,0.284,-5.337
0.265,0.056,0.284,-5.337
0.294,0.052,0.283,-5.337
0.308,0.051,0.285,-5.337
0.350,0.053,0.287,-5.337
0.337,0.054,0.290,-5.337
0.254,0.054,0.289,-5.337
0.308,0.052,0.287,-5.337
0.363,0.054,0.286,-5.337
0.246,0.056,0.289,-5.337
0.237,0.054,0.290,-5.337
0.313,0.049,0.285,-5.337
0.359,0.053,0.281,-5.337
0.366,0.056,0.280,-5.337
0.356,0.056,0.283,-5.337
0.273,0.055,0.288,-5.337
0.249,0.058,0.285,-5.337
0.223,0.059,0.281,-5.337
0.245,0.056,0.281,-5.337
0.262,0.055,0.285,-5.337
0.188,0.058,0.285,-5.337
0.161,0.056,0.284,-5.337
0.254,0.057,0.284,-5.337
0.283,0.059,0.283,-5.337
0.277,0.061,0.285,-5.337
0.331,0.059,0.282,-5.337
0.371,0.059,0.284,-5.337
0.321,0.062,0.286,-5.337
0.270,0.063,0.286,-5.337
0.270,0.062,0.286,-5.337
0.296,0.062,0.287,-5.337
0.302,0.061,0.285,-5.337
0.305,0.059,0.287,-5.337
0.333,0.056,0.284,-5.337
0.386,0.057,0.282,-5.337
0.424,0.059,0.282,-5.337
0.372,0.059,0.285,-5.337
0.340,0.060,0.285,-5.337
0.374,0.061,0.287,-5.337
0.302,0.062,0.287,-5.337
0.288,0.059,0.286,-5.337
0.282,0.060,0.286,-5.337
0.292,0.059,0.284,-5.337
0.302,0.058,0.281,-5.337
0.288,0.057,0.280,-5.337
0.312,0.055,0.284,-5.337
0.348,0.057,0.286,-5.337
0.302,0.060,0.285,-5.337
0.266,0.061,0.282,-5.337
0.291,0.061,0.284,-5.337
0.306,0.058,0.287,-5.337
0.321,0.054,0.288,-5.337
0.349,0.053,0.287,-5.337
0.306,0.057,0.285,-5.337
0.342,0.057,0.286,-5.337
0.365,0.059,0.287,-5.337
0.316,0.059,0.284,-5.337
0.288,0.059,0.284,-5.337
0.252,0.063,0.286,-5.337
0.302,0.060,0.287,-5.337
0.327,0.057,0.284,-5.337
0.389,0.058,0.280,-5.337
0.379,0.060,0.280,-5.337
0.279,0.062,0.281,-5.337
0.222,0.061,0.284,-5.337
0.272,0.061,0.284,-5.337
0.235,0.062,0.287,-5.337
0.217,0.063,0.290,-5.337
0.273,0.060,0.289,-5.337
0.329,0.058,0.285,-5.337
0.336,0.062,0.284,-5.337
0.332,0.063,0.286,-5.337
0.322,0.061,0.290,-5.337
0.384,0.060,0.292,-5.337
0.440,0.060,0.290,-5.337
0.396,0.061,0.285,-5.337
0.277,0.063,0.282,-5.337
0.208,0.067,0.282,-5.337
0.289,0.065,0.287,-5.337
0.316,0.064,0.289,-5.337
0.324,0.060,0.288,-5.337
0.300,0.061,0.286,-5.337
0.316,0.058,0.282,-5.337
0.380,0.061,0.284,-5.337
0.365,0.060,0.284,-5.337
0.333,0.057,0.283,-5.337
0.260,0.058,0.280,-5.337
0.375,0.056,0.280,-5.337
0.483,0.056,0.285,-5.337
0.452,0.059,0.289,-5.337
0.341,0.060,0.289,-5.337
0.380,0.060,0.289,-5.337
0.425,0.060,0.288,-5.337
0.442,0.058,0.289,-5.337
0.416,0.057,0.288,-5.337
0.394,0.062,0.285,-5.337
0.360,0.063,0.283,-5.337
0.382,0.059,0.283,-5.337
0.418,0.056,0.284,-5.337
0.413,0.058,0.285,-5.337
0.361,0.060,0.286,-5.337
0.362,0.060,0.284,-5.337
0.359,0.058,0.285,-5.337
0.322,0.058,0.282,-5.337
0.326,0.058,0.282,-5.337
0.318,0.059,0.285,-5.337
0.267,0.060,0.288,-5.337
0.326,0.056,0.288,-5.337
0.341,0.058,0.286,-5.337
0.272,0.061,0.285,-5.337
0.321,0.057,0.282,-5.337
0.335,0.058,0.281,-5.337
0.307,0.061,0.284,-5.337
0.274,0.060,0.288,-5.337
0.268,0.062,0.288,-5.337
0.243,0.061,0.283,-5.337
0.300,0.058,0.283,-5.337
0.343,0.055,0.287,-5.337
0.329,0.053,0.286,-5.337
0.346,0.054,0.283,-5.337
0.357,0.054,0.280,-5.337
0.363,0.054,0.281,-5.337
0.371,0.053,0.283,-5.337
0.321,0.056,0.287,-5.337
0.236,0.057,0.286,-5.337
0.287,0.054,0.289,-5.337
0.401,0.055,0.291,-5.337
0.417,0.054,0.289,-5.337
0.381,0.050,0.285,-5.337
0.320,0.053,0.283,-5.337
0.289,0.053,0.287,-5.337
0.266,0.054,0.289,-5.337
0.240,0.053,0.285,-5.337
0.263,0.055,0.284,-5.337
0.272,0.052,0.282,-5.337
0.325,0.047,0.281,-5.337
0.316,0.044,0.281,-5.337
0.266,0.049,0.280,-5.337
0.227,0.049,0.281,-5.337
0.185,0.051,0.284,-5.337
0.187,0.053,0.285,-5.337
0.263,0.048,0.285,-5.337
0.239,0.052,0.285,-5.337
0.147,0.052,0.284,-5.337
0.179,0.042,0.284,-5.337
0.303,0.043,0.284,-5.337
0.299,0.045,0.284,-5.337
0.308,0.047,0.285,-5.337
0.318,0.048,0.288,-5.337
0.281,0.050,0.286,-5.337
0.245,0.051,0.284,-5.337
0.285,0.049,0.285,-5.337
0.317,0.049,0.284,-5.337
0.358,0.046,0.284,-5.337
0.408,0.047,0.284,-5.337
0.390,0.047,0.282,-5.337
0.283,0.049,0.281,-5.337
0.240,0.048,0.284,-5.337
0.223,0.051,0.288,-5.337
0.197,0.050,0.284,-5.337
0.233,0.046,0.278,-5.337
0.248,0.047,0.282,-5.337
0.209,0.047,0.284,-5.337
0.192,0.044,0.285,-5.337
0.223,0.042,0.285,-5.337
0.299,0.042,0.286,-5.337
0.373,0.044,0.285,-5.337
0.368,0.047,0.284,-5.337
0.261,0.047,0.282,-5.337
0.282,0.049,0.281,-5.337
0.292,0.049,0.283,-5.337
0.275,0.047,0.290,-5.337
0.246,0.046,0.290,-5.337
0.254,0.046,0.283,-5.337
0.308,0.039,0.283,-5.337
0.354,0.038,0.285,-5.337
0.292,0.043,0.286,-5.337
0.276,0.047,0.289,-5.337
0.309,0.048,0.289,-5.337
0.276,0.044,0.288,-5.337
0.225,0.045,0.289,-5.337
0.158,0.046,0.290,-5.337
0.201,0.042,0.293,-5.337
0.244,0.041,0.292,-5.337
0.280,0.038,0.288,-5.337
0.271,0.035,0.284,-5.337
0.260,0.039,0.282,-5.337
0.283,0.038,0.283,-5.337
0.206,0.042,0.288,-5.337
0.150,0.042,0.288,-5.337
0.217,0.039,0.282,-5.337
0.241,0.036,0.281,-5.337
0.179,0.040,0.286,-5.337
0.150,0.042,0.290,-5.337
0.183,0.044,0.292,-5.337
0.211,0.041,0.291,-5.337
0.221,0.038,0.286,-5.337
0.255,0.039,0.284,-5.337
0.254,0.038,0.284,-5.337
0.217,0.037,0.285,-5.337
0.171,0.037,0.287,-5.337
0.110,0.038,0.291,-5.337
0.139,0.040,0.292,-5.337
0.233,0.041,0.289,-5.337
0.234,0.045,0.284,-5.337
0.144,0.047,0.286,-5.337
0.134,0.044,0.286,-5.337
0.238,0.043,0.287,-5.337
0.287,0.045,0.290,-5.337
0.194,0.045,0.292,-5.337
0.092,0.050,0.289,-5.337
0.111,0.047,0.288,-5.337
0.163,0.043,0.288,-5.337
0.153,0.047,0.287,-5.337
0.147,0.045,0.287,-5.337
0.186,0.041,0.292,-5.337
0.248,0.041,0.294,-5.337
0.247,0.039,0.292,-5.337
0.204,0.043,0.286,-5.337
0.181,0.048,0.284,-5.337
0.179,0.048,0.286,-5.337
0.153,0.045,0.287,-5.337
0.138,0.040,0.285,-5.337
0.176,0.041,0.287,-5.337
0.126,0.044,0.289,-5.337
0.117,0.039,0.282,-5.337
0.122,0.039,0.278,-5.337
0.160,0.035,0.280,-5.337
0.175,0.037,0.283,-5.337
0.168,0.035,0.286,-5.337
0.100,0.040,0.289,-5.337
0.105,0.040,0.290,-5.337
0.213,0.038,0.287,-5.337
0.243,0.032,0.286,-5.337
0.192,0.031,0.288,-5.337
0.152,0.035,0.286,-5.337
0.162,0.041,0.286,-5.337
0.177,0.042,0.291,-5.337
0.131,0.042,0.292,-5.337
0.136,0.037,0.284,-5.337
0.107,0.037,0.282,-5.337
0.049,0.040,0.287,-5.337
0.036,0.043,0.292,-5.337
0.127,0.041,0.292,-5.337
0.114,0.041,0.288,-5.337
0.078,0.035,0.284,-5.337
0.165,0.029,0.280,-5.337
0.200,0.032,0.281,-5.337
0.217,0.034,0.284,-5.337
0.223,0.031,0.285,-5.337
0.208,0.032,0.284,-5.337
0.107,0.039,0.284,-5.337
0.075,0.042,0.284,-5.337
0.089,0.038,0.279,-5.337
0.110,0.037,0.276,-5.337
0.126,0.035,0.284,-5.337
0.116,0.037,0.290,-5.337
0.142,0.035,0.289,-5.337
0.146,0.036,0.290,-5.337
0.135,0.039,0.291,-5.337
0.053,0.042,0.290,-5.337
0.029,0.038,0.288,-5.337
0.033,0.039,0.287,-5.337
0.074,0.036,0.283,-5.337
0.156,0.035,0.285,-5.337
0.184,0.034,0.288,-5.337
0.127,0.034,0.285,-5.337
0.091,0.036,0.281,-5.337
0.201,0.033,0.280,-5.337
0.217,0.032,0.282,-5.337
0.128,0.034,0.288,-5.337
0.088,0.033,0.290,-5.337
0.108,0.034,0.286,-5.337
0.134,0.037,0.285,-5.337
0.104,0.039,0.284,-5.337
0.065,0.040,0.285,-5.337
0.065,0.034,0.287,-5.337
0.102,0.035,0.286,-5.337
0.093,0.037,0.283,-5.337
0.034,0.037,0.285,-5.337
0.059,0.035,0.287,-5.337
0.135,0.031,0.288,-5.337
0.204,0.031,0.289,-5.337
0.095,0.034,0.288,-5.337
0.031,0.034,0.286,-5.337
0.064,0.037,0.284,-5.337
0.180,0.034,0.282,-5.337
0.194,0.034,0.283,-5.337
0.060,0.038,0.284,-5.337
-0.004,0.040,0.287,-5.337
0.016,0.038,0.286,-5.337
0.143,0.033,0.287,-5.337
0.143,0.036,0.287,-5.337
0.102,0.036,0.285,-5.337
0.105,0.037,0.283,-5.337
0.087,0.037,0.283,-5.337
0.040,0.034,0.288,-5.337
0.024,0.030,0.292,-5.337
-0.001,0.029,0.288,-5.337
-0.008,0.029,0.286,-5.337
0.032,0.032,0.282,-5.337
0.018,0.033,0.281,-5.337
-0.034,0.035,0.283,-5.337
-0.087,0.035,0.285,-5.337
-0.027,0.033,0.288,-5.337
0.033,0.034,0.287,-5.337
0.037,0.035,0.287,-5.337
0.099,0.035,0.289,-5.337
0.076,0.032,0.290,-5.337
0.012,0.032,0.284,-5.337
0.060,0.031,0.282,-5.337
0.045,0.032,0.282,-5.337
0.075,0.031,0.280,-5.337
0.125,0.034,0.281,-5.337
0.110,0.037,0.284,-5.337
0.144,0.034,0.286,-5.337
0.179,0.033,0.286,-5.337
0.171,0.034,0.285,-5.337
0.034,0.039,0.284,-5.337
-0.011,0.037,0.285,-5.337
0.001,0.032,0.290,-5.337
0.062,0.031,0.290,-5.337
0.053,0.038,0.287,-5.337
-0.040,0.040,0.288,-5.337
-0.002,0.034,0.288,-5.337
0.016,0.034,0.290,-5.337
0.046,0.034,0.288,-5.337
0.090,0.033,0.288,-5.337
0.089,0.038,0.283,-5.337
0.044,0.034,0.282,-5.337
0.113,0.029,0.283,-5.337
0.182,0.032,0.285,-5.337
0.188,0.032,0.288,-5.337
0.173,0.035,0.289,-5.337
0.134,0.033,0.284,-5.337
0.102,0.030,0.282,-5.337
0.096,0.027,0.285,-5.337
0.028,0.034,0.290,-5.337
-0.004,0.037,0.282,-5.337
0.021,0.036,0.278,-5.337
0.002,0.035,0.282,-5.337
-0.034,0.038,0.285,-5.337
-0.041,0.038,0.285,-5.337
-0.005,0.034,0.281,-5.337
0.011,0.035,0.281,-5.337
-0.017,0.036,0.288,-5.337
0.055,0.033,0.292,-5.337
0.096,0.033,0.291,-5.337
0.087,0.034,0.288,-5.337
0.080,0.032,0.283,-5.337
0.063,0.035,0.283,-5.337
-0.005,0.037,0.283,-5.337
-0.021,0.037,0.282,-5.337
0.035,0.033,0.285,-5.337
0.164,0.031,0.292,-5.337
0.198,0.029,0.295,-5.337
0.142,0.028,0.294,-5.337
0.105,0.030,0.291,-5.337
0.066,0.029,0.287,-5.337
0.007,0.030,0.286,-5.337
-0.028,0.035,0.285,-5.337
-0.018,0.035,0.285,-5.337
0.036,0.030,0.286,-5.337
0.029,0.030,0.286,-5.337
0.069,0.030,0.280,-5.337
0.135,0.030,0.280,-5.337
0.133,0.032,0.282,-5.337
0.006,0.031,0.283,-5.337
0.030,0.029,0.281,-5.337
0.069,0.034,0.285,-5.337
0.047,0.031,0.288,-5.337
0.141,0.029,0.290,-5.337
0.189,0.028,0.289,-5.337
0.155,0.032,0.285,-5.337
0.096,0.033,0.282,-5.337
-0.022,0.036,0.283,-5.337
-0.115,0.037,0.287,-5.337
-0.097,0.035,0.289,-5.337
0.033,0.037,0.289,-5.337
0.036,0.039,0.288,-5.337
0.015,0.038,0.288,-5.337
0.024,0.037,0.285,-5.337
0.117,0.038,0.286,-5.337
0.112,0.038,0.286,-5.337
0.126,0.035,0.284,-5.337
0.104,0.034,0.284,-5.337
0.085,0.032,0.290,-5.337
0.163,0.031,0.295,-5.337
0.145,0.036,0.294,-5.337
0.071,0.036,0.287,-5.337
0.053,0.039,0.286,-5.337
0.039,0.041,0.287,-5.337
0.004,0.046,0.288,-5.337
0.077,0.042,0.285,-5.337
0.162,0.040,0.280,-5.337
0.177,0.038,0.279,-5.337
0.123,0.040,0.283,-5.337
0.049,0.043,0.288,-5.337
0.003,0.046,0.287,-5.337
0.059,0.044,0.283,-5.337
0.139,0.042,0.281,-5.337
0.116,0.043,0.282,-5.337
0.127,0.039,0.284,-5.337
0.183,0.042,0.284,-5.337
0.167,0.048,0.282,-5.337
0.053,0.049,0.283,-5.337
0.086,0.045,0.284,-5.337
0.152,0.040,0.288,-5.337
0.129,0.041,0.285,-5.337
0.064,0.042,0.284,-5.337
0.091,0.043,0.284,-5.337
0.126,0.043,0.287,-5.337
0.099,0.041,0.289,-5.337
0.093,0.041,0.286,-5.337
0.088,0.046,0.282,-5.337
0.083,0.045,0.282,-5.337
0.081,0.044,0.284,-5.337
0.104,0.042,0.285,-5.337
0.148,0.043,0.281,-5.337
0.130,0.044,0.284,-5.337
0.105,0.040,0.288,-5.337
0.123,0.035,0.290,-5.337
0.188,0.035,0.289,-5.337
0.237,0.035,0.284,-5.337
0.233,0.038,0.283,-5.337
0.111,0.038,0.284,-5.337
0.097,0.038,0.287,-5.337
0.106,0.041,0.284,-5.337
0.124,0.043,0.283,-5.337
0.193,0.047,0.284,-5.337
0.176,0.044,0.287,-5.337
0.134,0.042,0.286,-5.337
0.094,0.044,0.286,-5.337
0.039,0.043,0.282,-5.337
0.124,0.042,0.284,-5.337
0.150,0.038,0.285,-5.337
0.087,0.038,0.289,-5.337
0.018,0.040,0.290,-5.337
0.048,0.040,0.291,-5.337
0.116,0.037,0.287,-5.337
0.240,0.035,0.287,-5.337
0.238,0.037,0.291,-5.337
0.163,0.041,0.289,-5.337
0.109,0.043,0.286,-5.337
0.127,0.039,0.286,-5.337
0.163,0.041,0.291,-5.337
0.137,0.040,0.289,-5.337
0.145,0.042,0.281,-5.337
0.172,0.042,0.281,-5.337
0.162,0.045,0.286,-5.337
0.244,0.046,0.287,-5.337
0.251,0.045,0.286,-5.337
0.237,0.044,0.286,-5.337
0.202,0.046,0.286,-5.337
0.186,0.044,0.284,-5.337
0.169,0.044,0.283,-5.337
0.177,0.044,0.283,-5.337
0.176,0.042,0.284,-5.337
0.209,0.044,0.285,-5.337
0.187,0.046,0.285,-5.337
0.140,0.044,0.287,-5.337
0.132,0.046,0.290,-5.337
0.160,0.048,0.292,-5.337
0.151,0.046,0.289,-5.337
0.114,0.045,0.284,-5.337
0.144,0.047,0.283,-5.337
0.087,0.050,0.289,-5.337
0.046,0.045,0.292,-5.337
0.164,0.043,0.293,-5.337
0.261,0.045,0.290,-5.337
0.268,0.044,0.292,-5.337
0.308,0.043,0.293,-5.337
0.267,0.044,0.292,-5.337
0.230,0.045,0.289,-5.337
0.220,0.047,0.288,-5.337
0.202,0.045,0.286,-5.337
0.244,0.045,0.287,-5.337
0.228,0.043,0.288,-5.337
0.167,0.045,0.289,-5.337
0.289,0.044,0.290,-5.337
0.308,0.048,0.291,-5.337
0.201,0.047,0.289,-5.337
0.189,0.048,0.287,-5.337
0.264,0.049,0.283,-5.337
0.274,0.049,0.280,-5.337
0.260,0.051,0.281,-5.337
0.215,0.051,0.283,-5.337
0.210,0.050,0.287,-5.337
0.287,0.047,0.289,-5.337
0.335,0.047,0.291,-5.337
0.260,0.051,0.287,-5.337
0.165,0.049,0.284,-5.337
0.214,0.045,0.281,-5.337
0.282,0.046,0.283,-5.337
0.300,0.047,0.287,-5.337
0.315,0.049,0.289,-5.337
0.227,0.052,0.288,-5.337
0.157,0.055,0.287,-5.337
0.179,0.057,0.284,-5.337
0.248,0.053,0.285,-5.337
0.319,0.049,0.284,-5.337
0.304,0.051,0.281,-5.337
0.246,0.052,0.282,-5.337
0.257,0.051,0.285,-5.337
0.284,0.049,0.287,-5.337
0.336,0.053,0.288,-5.337
0.233,0.059,0.291,-5.337
0.182,0.060,0.290,-5.337
0.272,0.055,0.290,-5.337
0.337,0.054,0.287,-5.337
0.327,0.056,0.286,-5.337
0.296,0.055,0.283,-5.337
0.236,0.055,0.281,-5.337
0.258,0.051,0.283,-5.337
0.278,0.050,0.286,-5.337
0.271,0.052,0.288,-5.337
0.279,0.054,0.284,-5.337
0.328,0.050,0.282,-5.337
0.360,0.050,0.285,-5.337
0.374,0.050,0.286,-5.337
0.341,0.054,0.285,-5.337
0.287,0.054,0.281,-5.337
0.334,0.052,0.280,-5.337
0.433,0.049,0.285,-5.337
0.371,0.051,0.290,-5.337
0.244,0.056,0.290,-5.337
0.209,0.056,0.288,-5.337
0.242,0.053,0.286,-5.337
0.284,0.055,0.286,-5.337
0.314,0.056,0.287,-5.337
0.312,0.056,0.286,-5.337
0.373,0.052,0.285,-5.337
0.407,0.053,0.287,-5.337
0.342,0.056,0.293,-5.337
0.260,0.055,0.293,-5.337
0.282,0.051,0.284,-5.337
0.409,0.048,0.281,-5.337
0.429,0.053,0.284,-5.337
0.336,0.053,0.287,-5.337
0.262,0.055,0.290,-5.337
0.305,0.053,0.286,-5.337
0.320,0.054,0.286,-5.337
0.327,0.053,0.286,-5.337
0.314,0.053,0.282,-5.337
0.321,0.051,0.279,-5.337
0.342,0.054,0.283,-5.337
0.276,0.055,0.287,-5.337
0.221,0.056,0.287,-5.337
0.285,0.055,0.287,-5.337
0.333,0.055,0.285,-5.337
0.304,0.056,0.283,-5.337
0.308,0.054,0.280,-5.337
0.366,0.052,0.282,-5.337
0.355,0.054,0.285,-5.337
0.311,0.057,0.285,-5.337
0.305,0.056,0.289,-5.337
0.260,0.059,0.291,-5.337
0.259,0.062,0.290,-5.337
0.380,0.058,0.289,-5.337
0.417,0.052,0.289,-5.337
0.380,0.053,0.286,-5.337
0.326,0.055,0.282,-5.337
0.318,0.061,0.284,-5.337
0.336,0.054,0.288,-5.337
0.345,0.050,0.288,-5.337
0.396,0.049,0.287,-5.337
0.403,0.052,0.281,-5.337
0.414,0.051,0.278,-5.337
0.441,0.055,0.280,-5.337
0.337,0.055,0.281,-5.337
0.317,0.054,0.279,-5.337
0.370,0.057,0.283,-5.337
0.382,0.057,0.288,-5.337
0.350,0.054,0.292,-5.337
0.323,0.055,0.289,-5.337
0.288,0.057,0.283,-5.337
0.261,0.058,0.284,-5.337
0.301,0.056,0.285,-5.337
0.336,0.054,0.282,-5.337
0.300,0.054,0.284,-5.337
0.255,0.054,0.285,-5.337
0.289,0.057,0.286,-5.337
0.336,0.052,0.287,-5.337
0.369,0.056,0.287,-5.337
0.317,0.059,0.283,-5.337
0.321,0.059,0.281,-5.337
0.344,0.060,0.286,-5.337
0.311,0.057,0.289,-5.337
0.291,0.055,0.289,-5.337
0.337,0.055,0.289,-5.337
0.347,0.059,0.289,-5.337
0.386,0.060,0.288,-5.337
0.436,0.054,0.286,-5.337
0.435,0.052,0.281,-5.337
0.385,0.057,0.279,-5.337
0.303,0.059,0.279,-5.337
0.210,0.062,0.283,-5.337
0.249,0.060,0.287,-5.337
0.330,0.059,0.289,-5.337
0.329,0.059,0.285,-5.337
0.328,0.059,0.283,-5.337
0.366,0.056,0.280,-5.337
0.391,0.053,0.281,-5.337
0.370,0.057,0.281,-5.337
0.286,0.060,0.285,-5.337
0.263,0.058,0.287,-5.337
0.331,0.059,0.287,-5.337
0.330,0.058,0.288,-5.337
0.318,0.060,0.288,-5.337
0.277,0.057,0.288,-5.337
0.312,0.054,0.285,-5.337
0.290,0.054,0.283,-5.337
0.312,0.056,0.281,-5.337
0.320,0.060,0.280,-5.337
0.327,0.057,0.283,-5.337
0.330,0.055,0.286,-5.337
0.360,0.051,0.289,-5.337
0.411,0.051,0.293,-5.337
0.369,0.053,0.290,-5.337
0.282,0.054,0.283,-5.337
0.265,0.053,0.282,-5.337
0.309,0.054,0.286,-5.337
0.318,0.055,0.286,-5.337
0.345,0.052,0.283,-5.337
0.410,0.053,0.284,-5.337
0.411,0.055,0.286,-5.337
0.328,0.060,0.286,-5.337
0.259,0.062,0.283,-5.337
0.264,0.062,0.284,-5.337
0.319,0.058,0.285,-5.337
0.358,0.057,0.286,-5.337
0.365,0.054,0.286,-5.337
0.321,0.054,0.282,-5.337
0.307,0.053,0.284,-5.337
0.353,0.053,0.290,-5.337
0.374,0.052,0.291,-5.337
0.417,0.053,0.290,-5.337
0.407,0.047,0.288,-5.337
0.397,0.046,0.286,-5.337
0.411,0.050,0.284,-5.337
0.390,0.052,0.284,-5.337
0.320,0.052,0.286,-5.337
0.306,0.053,0.287,-5.337
0.327,0.050,0.288,-5.337
0.284,0.050,0.286,-5.337
0.230,0.051,0.286,-5.337
0.212,0.050,0.285,-5.337
0.235,0.050,0.287,-5.337
0.266,0.048,0.284,-5.337
0.198,0.050,0.284,-5.337
0.142,0.054,0.286,-5.337
0.236,0.052,0.291,-5.337
0.298,0.052,0.289,-5.337
0.270,0.054,0.285,-5.337
0.191,0.054,0.286,-5.337
0.197,0.051,0.284,-5.337
0.337,0.046,0.280,-5.337
0.390,0.049,0.280,-5.337
0.309,0.052,0.283,-5.337
0.315,0.049,0.287,-5.337
0.300,0.048,0.288,-5.337
0.285,0.048,0.286,-5.337
0.237,0.054,0.284,-5.337
0.188,0.053,0.281,-5.337
0.196,0.052,0.286,-5.337
0.213,0.051,0.286,-5.337
0.243,0.051,0.281,-5.337
0.322,0.050,0.276,-5.337
0.275,0.050,0.280,-5.337
0.245,0.046,0.284,-5.337
0.253,0.048,0.289,-5.337
0.230,0.050,0.294,-5.337
0.230,0.050,0.295,-5.337
0.290,0.045,0.292,-5.337
0.313,0.044,0.291,-5.337
0.297,0.040,0.288,-5.337
0.246,0.045,0.288,-5.337
0.215,0.046,0.288,-5.337
0.173,0.048,0.285,-5.337
0.203,0.047,0.278,-5.337
0.307,0.046,0.279,-5.337
0.245,0.050,0.282,-5.337
0.162,0.050,0.285,-5.337
0.188,0.045,0.287,-5.337
0.263,0.042,0.287,-5.337
0.273,0.043,0.288,-5.337
0.283,0.041,0.287,-5.337
0.274,0.039,0.284,-5.337
0.203,0.039,0.282,-5.337
0.214,0.040,0.283,-5.337
0.199,0.042,0.282,-5.337
0.211,0.040,0.285,-5.337
0.205,0.038,0.284,-5.337
0.130,0.038,0.287,-5.337
0.108,0.040,0.285,-5.337
0.163,0.041,0.286,-5.337
0.155,0.040,0.288,-5.337
0.213,0.039,0.289,-5.337
0.224,0.041,0.287,-5.337
0.131,0.043,0.283,-5.337
0.180,0.044,0.284,-5.337
0.311,0.042,0.285,-5.337
0.291,0.039,0.286,-5.337
0.219,0.040,0.285,-5.337
0.164,0.041,0.286,-5.337
0.101,0.045,0.288,-5.337
0.157,0.044,0.287,-5.337
0.243,0.042,0.286,-5.337
0.219,0.043,0.290,-5.337
0.137,0.044,0.290,-5.337
0.144,0.044,0.290,-5.337
0.205,0.040,0.286,-5.337
0.234,0.037,0.287,-5.337
0.293,0.038,0.287,-5.337
0.315,0.039,0.287,-5.337
0.251,0.037,0.292,-5.337
0.164,0.040,0.289,-5.337
0.181,0.043,0.285,-5.337
0.258,0.042,0.284,-5.337
0.210,0.044,0.284,-5.337
0.226,0.042,0.282,-5.337
0.228,0.042,0.280,-5.337
0.144,0.044,0.283,-5.337
0.127,0.044,0.288,-5.337
0.172,0.043,0.289,-5.337
0.221,0.038,0.289,-5.337
0.309,0.038,0.289,-5.337
0.284,0.038,0.288,-5.337
0.167,0.036,0.286,-5.337
0.163,0.035,0.287,-5.337
0.212,0.035,0.285,-5.337
0.212,0.035,0.285,-5.337
0.144,0.038,0.289,-5.337
0.106,0.039,0.292,-5.337
0.090,0.038,0.292,-5.337
0.121,0.039,0.291,-5.337
0.208,0.035,0.291,-5.337
0.240,0.034,0.292,-5.337
0.146,0.037,0.289,-5.337
0.043,0.037,0.287,-5.337
0.086,0.036,0.289,-5.337
0.218,0.036,0.290,-5.337
0.191,0.038,0.290,-5.337
0.141,0.042,0.290,-5.337
0.122,0.041,0.288,-5.337
0.087,0.045,0.288,-5.337
0.079,0.044,0.292,-5.337
0.057,0.038,0.291,-5.337
0.130,0.035,0.288,-5.337
0.191,0.036,0.284,-5.337
0.233,0.040,0.284,-5.337
0.214,0.040,0.285,-5.337
0.144,0.042,0.286,-5.337
0.075,0.041,0.287,-5.337
0.058,0.039,0.287,-5.337
0.173,0.038,0.286,-5.337
0.212,0.039,0.287,-5.337
0.120,0.036,0.285,-5.337
0.090,0.036,0.284,-5.337
0.081,0.037,0.285,-5.337
0.089,0.039,0.287,-5.337
0.072,0.038,0.290,-5.337
0.070,0.038,0.290,-5.337
0.115,0.038,0.287,-5.337
0.137,0.036,0.284,-5.337
0.078,0.041,0.285,-5.337
0.026,0.043,0.287,-5.337
0.085,0.036,0.289,-5.337
0.103,0.035,0.283,-5.337
0.095,0.030,0.282,-5.337
0.144,0.032,0.284,-5.337
0.102,0.035,0.289,-5.337
0.071,0.034,0.289,-5.337
0.051,0.035,0.290,-5.337
0.033,0.032,0.290,-5.337
0.142,0.032,0.291,-5.337
0.185,0.032,0.290,-5.337
0.159,0.034,0.289,-5.337
0.157,0.033,0.286,-5.337
0.211,0.029,0.287,-5.337
0.237,0.031,0.285,-5.337
0.195,0.033,0.283,-5.337
0.208,0.035,0.279,-5.337
0.184,0.037,0.281,-5.337
0.076,0.039,0.287,-5.337
0.039,0.039,0.289,-5.337
0.055,0.037,0.289,-5.337
0.113,0.032,0.288,-5.337
0.177,0.034,0.286,-5.337
0.128,0.042,0.285,-5.337
0.092,0.042,0.286,-5.337
0.135,0.039,0.284,-5.337
