[Parameters]
Operating Mode, Non-Feedback
Subject  AA..ZZ, WT
Session  0..99, 41
No. Trials (1..9999), 500
Mouse Number, 1
Pressure Probe Serial Port, \00\00\00\04COM4
Save additional csv file, TRUE
Save using mouse number, FALSE
A/D Monitor Rate (Hz), 30000.000000
A/D Stimulate Rate (Hz), 30000.000000
A/D input range (+/- V), 5
No. Channels to acquire (N), 2
Pre-Stim Acq. time (ms), 100.000000
Post-Stim Acq. time (ms), 900.000000
Analysis window parameters.M-response Start (ms), 1.100000
Analysis window parameters.M-response Duration (ms), 5.500000
Analysis window parameters.H-response Duration (ms), 6.000000
Analysis window parameters.H-response Start (ms), 6.500000
Feedback window, H response
Proportional gain, 0.100000
Target value, 6.700000
Feedback Ch., 1
Stim Channel to Control (1-4), 4
Trial, 9
Wait for EMG Conditions, FALSE
Channel to monitor (0 - N-1), 1
EMG Hi Limit, 2.000000
EMG Lo Limit, 0.001000
Inter-Stim delay (sec), 10.000000
EMG Monitor Mode, Mean
Time to run Long Stim.(sec), 30
Save Long Stim Data?, OFF
BURST Save time (ms), 1000
BURST Save Interval (x above), 10
Long-Stim. Rep. Rate (Hz), 10.000000
Stim type cluster array.<size(s)>, 4
Stim type cluster array 0.Stimulus Output, Electrical
Stim type cluster array 1.Stimulus Output, OFF
Stim type cluster array 2.Stimulus Output, OFF
Stim type cluster array 3.Stimulus Output, Motor Length
Stim specs cluster array.<size(s)>, 4
Stim specs cluster array 0.Initial Stimulus ampl., 0.300000
Stim specs cluster array 0.Maximum Stimulus, 1.120000
Stim specs cluster array 0.#Pulses in train, 3
Stim specs cluster array 0.Peak Level time (ms), 1.000000
Stim specs cluster array 0.Total pulse period (ms), 150.000000
Stim specs cluster array 0.Start Delay (ms), 0.000000
Stim specs cluster array 0.Pulse Shape, Square
Stim specs cluster array 0.Ramp/Rel. time (ms), 0.100000
Stim specs cluster array 0.Peak Amplitude (V), 0.120000
Stim specs cluster array 1.Initial Stimulus ampl., 0.000000
Stim specs cluster array 1.Maximum Stimulus, 0.000000
Stim specs cluster array 1.#Pulses in train, 3
Stim specs cluster array 1.Peak Level time (ms), 29.000000
Stim specs cluster array 1.Total pulse period (ms), 200.000000
Stim specs cluster array 1.Start Delay (ms), 0.000000
Stim specs cluster array 1.Pulse Shape, Square
Stim specs cluster array 1.Ramp/Rel. time (ms), 0.000000
Stim specs cluster array 1.Peak Amplitude (V), 2.000000
Stim specs cluster array 2.Initial Stimulus ampl., 0.000000
Stim specs cluster array 2.Maximum Stimulus, 0.000000
Stim specs cluster array 2.#Pulses in train, 1
Stim specs cluster array 2.Peak Level time (ms), 25.000000
Stim specs cluster array 2.Total pulse period (ms), 200.000000
Stim specs cluster array 2.Start Delay (ms), 0.000000
Stim specs cluster array 2.Pulse Shape, Square
Stim specs cluster array 2.Ramp/Rel. time (ms), 20.000000
Stim specs cluster array 2.Peak Amplitude (V), 10.000000
Stim specs cluster array 3.Initial Stimulus ampl., 0.000000
Stim specs cluster array 3.Maximum Stimulus, 0.000000
Stim specs cluster array 3.#Pulses in train, 25
Stim specs cluster array 3.Peak Level time (ms), 0.100000
Stim specs cluster array 3.Total pulse period (ms), 4.000000
Stim specs cluster array 3.Start Delay (ms), -5.000000
Stim specs cluster array 3.Pulse Shape, Triangle
Stim specs cluster array 3.Ramp/Rel. time (ms), 3.000000
Stim specs cluster array 3.Peak Amplitude (V), 0.500000
Force cal. (mN/Volt), 100.000000
Force Range (mN), 100.000000
Length cal. (mm/Volt), 10.000000
Length Range (mm), 10.000000
Stim. 1, 0.300000
Stim. 2, 0.000000
Stim. 3, 0.000000
Stim. 4, 0.000000
Monitor acquire time (ms), 100.000000
EMG graph Ymax, 0.100000
Travel limit (mm), 20.000000
Use Pressure Probe, FALSE
Pressure goal (g), 100
Speed (mm/sec), 5.000000
Dwell time (ms), 100.000000
Pressure limit (g), 500.000000
Channel amplitude offset, 0.000000

[DATA]

0.311,0.012,0.323,-5.337
0.442,0.010,0.324,-5.337
1.451,0.008,0.326,-5.337
2.751,0.002,0.324,-5.337
3.391,0.004,0.325,-5.337
3.389,0.003,0.325,-5.337
3.350,0.001,0.324,-5.337
3.465,-0.002,0.322,-5.337
3.469,-0.000,0.320,-5.337
3.359,0.000,0.319,-5.337
3.188,0.001,0.321,-5.337
3.063,-0.001,0.322,-5.337
2.907,-0.002,0.322,-5.337
2.703,-0.001,0.320,-5.337
2.615,0.000,0.319,-5.337
2.545,-0.002,0.320,-5.337
2.457,-0.000,0.322,-5.337
2.372,-0.001,0.318,-5.337
2.206,-0.003,0.312,-5.337
2.096,-0.002,0.313,-5.337
2.084,0.002,0.314,-5.337
2.038,0.001,0.319,-5.337
1.977,0.001,0.321,-5.337
1.853,0.004,0.322,-5.337
1.852,0.006,0.318,-5.337
1.825,0.004,0.315,-5.337
1.711,-0.000,0.314,-5.337
1.656,0.004,0.315,-5.337
1.632,0.006,0.316,-5.337
1.503,0.006,0.315,-5.337
1.377,0.008,0.316,-5.337
1.468,0.013,0.317,-5.337
1.501,0.013,0.316,-5.337
1.517,0.012,0.313,-5.337
1.510,0.013,0.311,-5.337
1.477,0.016,0.311,-5.337
1.489,0.010,0.315,-5.337
1.480,0.001,0.317,-5.337
1.385,-0.009,0.315,-5.337
1.349,-0.021,0.311,-5.337
1.320,-0.037,0.309,-5.337
1.319,-0.053,0.307,-5.337
1.331,-0.069,0.310,-5.337
1.363,-0.086,0.309,-5.337
1.365,-0.106,0.309,-5.337
1.418,-0.131,0.310,-5.337
1.439,-0.159,0.310,-5.337
1.422,-0.193,0.315,-5.337
1.439,-0.230,0.314,-5.337
1.400,-0.274,0.309,-5.337
1.356,-0.320,0.309,-5.337
1.310,-0.365,0.307,-5.337
1.279,-0.402,0.303,-5.337
1.271,-0.423,0.301,-5.337
1.244,-0.423,0.303,-5.337
1.204,-0.398,0.307,-5.337
1.170,-0.361,0.307,-5.337
1.090,-0.329,0.306,-5.337
0.996,-0.292,0.305,-5.337
1.001,-0.238,0.304,-5.337
0.967,-0.165,0.303,-5.337
0.983,-0.079,0.306,-5.337
1.035,0.010,0.305,-5.337
1.004,0.090,0.306,-5.337
0.947,0.153,0.304,-5.337
0.890,0.203,0.304,-5.337
0.824,0.249,0.303,-5.337
0.796,0.288,0.302,-5.337
0.780,0.317,0.304,-5.337
0.818,0.336,0.306,-5.337
0.749,0.343,0.304,-5.337
0.680,0.341,0.299,-5.337
0.667,0.327,0.298,-5.337
0.622,0.300,0.301,-5.337
0.614,0.266,0.300,-5.337
0.639,0.227,0.301,-5.337
0.666,0.182,0.302,-5.337
0.683,0.139,0.302,-5.337
0.590,0.099,0.299,-5.337
0.579,0.068,0.296,-5.337
0.587,0.045,0.299,-5.337
0.571,0.028,0.300,-5.337
0.583,0.022,0.301,-5.337
0.587,0.022,0.299,-5.337
0.528,0.031,0.297,-5.337
0.455,0.044,0.295,-5.337
0.492,0.061,0.295,-5.337
0.449,0.080,0.295,-5.337
0.471,0.101,0.297,-5.337
0.548,0.118,0.299,-5.337
0.580,0.134,0.298,-5.337
0.608,0.146,0.294,-5.337
0.561,0.150,0.291,-5.337
0.578,0.155,0.295,-5.337
0.536,0.162,0.300,-5.337
0.521,0.160,0.298,-5.337
0.572,0.157,0.296,-5.337
0.565,0.150,0.294,-5.337
0.630,0.143,0.296,-5.337
0.620,0.139,0.294,-5.337
0.554,0.129,0.286,-5.337
0.520,0.119,0.287,-5.337
0.543,0.108,0.290,-5.337
0.534,0.098,0.295,-5.337
0.501,0.089,0.297,-5.337
0.436,0.083,0.298,-5.337
0.429,0.077,0.296,-5.337
0.458,0.071,0.294,-5.337
0.527,0.067,0.292,-5.337
0.533,0.061,0.289,-5.337
0.485,0.057,0.287,-5.337
0.496,0.052,0.292,-5.337
0.537,0.050,0.300,-5.337
0.504,0.048,0.299,-5.337
0.510,0.045,0.295,-5.337
0.514,0.044,0.292,-5.337
0.456,0.041,0.291,-5.337
0.438,0.037,0.290,-5.337
0.446,0.039,0.289,-5.337
0.420,0.040,0.288,-5.337
0.425,0.041,0.293,-5.337
0.467,0.035,0.293,-5.337
0.408,0.030,0.293,-5.337
0.440,0.030,0.287,-5.337
0.409,0.034,0.287,-5.337
0.378,0.036,0.289,-5.337
0.440,0.032,0.290,-5.337
0.421,0.028,0.288,-5.337
0.376,0.026,0.285,-5.337
0.375,0.026,0.287,-5.337
0.392,0.029,0.294,-5.337
0.435,0.032,0.296,-5.337
0.535,0.032,0.292,-5.337
0.536,0.033,0.284,-5.337
0.451,0.032,0.281,-5.337
0.362,0.028,0.282,-5.337
0.415,0.029,0.284,-5.337
0.514,0.029,0.285,-5.337
0.476,0.029,0.283,-5.337
0.429,0.031,0.285,-5.337
0.440,0.024,0.288,-5.337
0.433,0.026,0.290,-5.337
0.339,0.027,0.287,-5.337
0.332,0.025,0.286,-5.337
0.400,0.022,0.282,-5.337
0.418,0.022,0.280,-5.337
0.362,0.021,0.279,-5.337
0.333,0.021,0.281,-5.337
0.358,0.021,0.283,-5.337
0.285,0.023,0.284,-5.337
0.252,0.021,0.282,-5.337
0.285,0.021,0.282,-5.337
0.338,0.025,0.285,-5.337
0.323,0.026,0.287,-5.337
0.303,0.025,0.284,-5.337
0.276,0.019,0.280,-5.337
0.319,0.019,0.277,-5.337
0.368,0.023,0.278,-5.337
0.382,0.022,0.283,-5.337
0.367,0.019,0.285,-5.337
0.341,0.021,0.287,-5.337
0.402,0.020,0.285,-5.337
0.393,0.021,0.286,-5.337
0.296,0.025,0.283,-5.337
0.292,0.023,0.279,-5.337
0.297,0.023,0.279,-5.337
0.275,0.023,0.280,-5.337
0.283,0.023,0.280,-5.337
0.289,0.027,0.279,-5.337
0.203,0.025,0.282,-5.337
0.189,0.023,0.283,-5.337
0.166,0.022,0.281,-5.337
0.135,0.023,0.281,-5.337
0.176,0.024,0.285,-5.337
0.232,0.028,0.286,-5.337
0.204,0.029,0.285,-5.337
0.146,0.026,0.283,-5.337
0.137,0.025,0.281,-5.337
0.185,0.027,0.280,-5.337
0.230,0.026,0.281,-5.337
0.257,0.022,0.281,-5.337
0.277,0.022,0.282,-5.337
0.249,0.025,0.282,-5.337
0.184,0.025,0.280,-5.337
0.144,0.024,0.278,-5.337
0.180,0.023,0.278,-5.337
0.218,0.024,0.282,-5.337
0.217,0.025,0.284,-5.337
0.213,0.024,0.283,-5.337
0.179,0.021,0.282,-5.337
0.153,0.022,0.281,-5.337
0.211,0.024,0.282,-5.337
0.214,0.017,0.282,-5.337
0.202,0.020,0.281,-5.337
0.124,0.022,0.276,-5.337
0.074,0.020,0.275,-5.337
0.147,0.020,0.279,-5.337
0.156,0.020,0.281,-5.337
0.149,0.021,0.281,-5.337
0.100,0.021,0.280,-5.337
0.141,0.018,0.277,-5.337
0.173,0.021,0.276,-5.337
0.108,0.023,0.279,-5.337
0.101,0.020,0.278,-5.337
0.063,0.020,0.279,-5.337
0.124,0.019,0.284,-5.337
0.142,0.019,0.286,-5.337
0.086,0.014,0.283,-5.337
0.006,0.013,0.282,-5.337
0.056,0.016,0.281,-5.337
0.127,0.019,0.282,-5.337
0.122,0.019,0.280,-5.337
0.157,0.014,0.282,-5.337
0.129,0.016,0.284,-5.337
0.081,0.020,0.281,-5.337
0.017,0.023,0.279,-5.337
0.005,0.020,0.276,-5.337
0.076,0.017,0.275,-5.337
0.020,0.018,0.273,-5.337
-0.002,0.020,0.273,-5.337
0.033,0.024,0.274,-5.337
0.055,0.026,0.275,-5.337
0.082,0.021,0.276,-5.337
0.119,0.021,0.282,-5.337
0.156,0.021,0.280,-5.337
0.162,0.023,0.278,-5.337
0.102,0.027,0.278,-5.337
0.075,0.027,0.280,-5.337
0.074,0.023,0.277,-5.337
0.089,0.021,0.272,-5.337
0.155,0.024,0.273,-5.337
0.059,0.028,0.277,-5.337
-0.005,0.029,0.280,-5.337
0.035,0.029,0.276,-5.337
0.096,0.028,0.277,-5.337
0.118,0.027,0.279,-5.337
0.129,0.023,0.275,-5.337
0.066,0.023,0.273,-5.337
0.010,0.022,0.274,-5.337
0.058,0.021,0.272,-5.337
0.055,0.023,0.276,-5.337
0.037,0.024,0.275,-5.337
0.054,0.024,0.273,-5.337
-0.018,0.022,0.270,-5.337
-0.095,0.025,0.272,-5.337
-0.096,0.023,0.276,-5.337
-0.019,0.023,0.275,-5.337
-0.022,0.020,0.270,-5.337
-0.044,0.020,0.271,-5.337
-0.014,0.018,0.269,-5.337
-0.041,0.023,0.272,-5.337
-0.050,0.023,0.276,-5.337
-0.027,0.019,0.278,-5.337
-0.019,0.018,0.274,-5.337
-0.045,0.020,0.268,-5.337
-0.081,0.021,0.268,-5.337
-0.050,0.020,0.270,-5.337
-0.035,0.020,0.272,-5.337
0.022,0.020,0.274,-5.337
-0.008,0.021,0.272,-5.337
-0.088,0.016,0.270,-5.337
-0.088,0.017,0.269,-5.337
-0.039,0.020,0.268,-5.337
-0.063,0.018,0.269,-5.337
0.015,0.017,0.273,-5.337
-0.032,0.018,0.274,-5.337
-0.048,0.017,0.269,-5.337
-0.092,0.019,0.266,-5.337
-0.077,0.018,0.269,-5.337
-0.018,0.016,0.273,-5.337
-0.021,0.015,0.272,-5.337
-0.041,0.015,0.269,-5.337
-0.020,0.017,0.266,-5.337
-0.017,0.018,0.263,-5.337
-0.151,0.020,0.263,-5.337
-0.061,0.016,0.264,-5.337
0.054,0.017,0.270,-5.337
0.044,0.016,0.274,-5.337
0.014,0.012,0.274,-5.337
0.017,0.016,0.268,-5.337
0.013,0.015,0.267,-5.337
-0.025,0.013,0.267,-5.337
0.051,0.014,0.268,-5.337
0.105,0.014,0.267,-5.337
0.018,0.016,0.266,-5.337
-0.083,0.014,0.264,-5.337
-0.125,0.013,0.264,-5.337
-0.141,0.012,0.262,-5.337
-0.091,0.014,0.264,-5.337
0.013,0.012,0.265,-5.337
0.044,0.014,0.266,-5.337
0.060,0.016,0.270,-5.337
-0.018,0.017,0.273,-5.337
-0.087,0.018,0.273,-5.337
-0.066,0.016,0.270,-5.337
-0.090,0.015,0.267,-5.337
-0.050,0.016,0.264,-5.337
-0.070,0.016,0.263,-5.337
-0.164,0.017,0.262,-5.337
-0.178,0.017,0.264,-5.337
-0.183,0.015,0.264,-5.337
-0.204,0.018,0.262,-5.337
-0.272,0.019,0.263,-5.337
-0.230,0.019,0.266,-5.337
-0.167,0.020,0.267,-5.337
-0.195,0.018,0.264,-5.337
-0.178,0.019,0.264,-5.337
-0.149,0.019,0.266,-5.337
-0.160,0.016,0.269,-5.337
-0.054,0.014,0.271,-5.337
-0.004,0.018,0.269,-5.337
-0.093,0.020,0.264,-5.337
-0.108,0.021,0.262,-5.337
-0.029,0.023,0.266,-5.337
-0.059,0.029,0.270,-5.337
-0.053,0.024,0.268,-5.337
-0.055,0.024,0.264,-5.337
-0.037,0.023,0.259,-5.337
0.003,0.026,0.262,-5.337
-0.011,0.026,0.265,-5.337
-0.092,0.023,0.267,-5.337
-0.137,0.025,0.263,-5.337
-0.134,0.028,0.261,-5.337
-0.113,0.028,0.262,-5.337
-0.133,0.029,0.263,-5.337
-0.160,0.026,0.261,-5.337
-0.188,0.028,0.261,-5.337
-0.127,0.027,0.262,-5.337
-0.080,0.029,0.268,-5.337
-0.077,0.029,0.267,-5.337
-0.097,0.030,0.262,-5.337
-0.091,0.030,0.260,-5.337
-0.101,0.029,0.263,-5.337
-0.101,0.026,0.262,-5.337
-0.155,0.027,0.261,-5.337
-0.145,0.024,0.262,-5.337
-0.148,0.025,0.265,-5.337
-0.146,0.027,0.267,-5.337
-0.126,0.027,0.264,-5.337
-0.178,0.026,0.263,-5.337
-0.151,0.024,0.267,-5.337
-0.135,0.023,0.270,-5.337
-0.188,0.029,0.266,-5.337
-0.144,0.029,0.261,-5.337
-0.067,0.029,0.253,-5.337
-0.056,0.028,0.254,-5.337
-0.118,0.028,0.254,-5.337
-0.071,0.027,0.255,-5.337
-0.069,0.026,0.258,-5.337
-0.172,0.025,0.261,-5.337
-0.195,0.027,0.263,-5.337
-0.108,0.029,0.264,-5.337
-0.103,0.030,0.262,-5.337
-0.149,0.030,0.259,-5.337
-0.137,0.033,0.257,-5.337
-0.108,0.034,0.260,-5.337
-0.055,0.030,0.259,-5.337
0.018,0.027,0.258,-5.337
-0.052,0.028,0.261,-5.337
-0.074,0.032,0.262,-5.337
-0.058,0.032,0.265,-5.337
-0.093,0.030,0.263,-5.337
-0.073,0.033,0.264,-5.337
-0.103,0.032,0.267,-5.337
-0.172,0.033,0.267,-5.337
-0.180,0.034,0.263,-5.337
-0.161,0.035,0.261,-5.337
-0.120,0.036,0.260,-5.337
-0.113,0.038,0.262,-5.337
-0.167,0.036,0.261,-5.337
-0.202,0.038,0.262,-5.337
-0.147,0.038,0.260,-5.337
-0.128,0.039,0.260,-5.337
-0.210,0.036,0.260,-5.337
-0.223,0.037,0.262,-5.337
-0.155,0.037,0.264,-5.337
-0.161,0.040,0.265,-5.337
-0.154,0.039,0.265,-5.337
-0.190,0.042,0.257,-5.337
-0.173,0.041,0.255,-5.337
-0.077,0.041,0.258,-5.337
-0.050,0.040,0.258,-5.337
-0.071,0.045,0.254,-5.337
-0.141,0.049,0.258,-5.337
-0.233,0.053,0.263,-5.337
-0.232,0.060,0.268,-5.337
-0.146,0.064,0.267,-5.337
-0.078,0.074,0.264,-5.337
-0.080,0.078,0.261,-5.337
-0.120,0.080,0.265,-5.337
-0.129,0.078,0.264,-5.337
-0.118,0.077,0.261,-5.337
-0.084,0.072,0.260,-5.337
-0.036,0.067,0.260,-5.337
-0.079,0.061,0.258,-5.337
-0.089,0.047,0.255,-5.337
-0.078,0.037,0.260,-5.337
-0.083,0.028,0.264,-5.337
-0.064,0.017,0.264,-5.337
-0.050,0.009,0.262,-5.337
-0.036,0.004,0.263,-5.337
-0.021,-0.001,0.265,-5.337
-0.024,-0.004,0.268,-5.337
-0.167,-0.005,0.268,-5.337
-0.158,-0.004,0.263,-5.337
-0.080,-0.005,0.257,-5.337
-0.033,-0.002,0.261,-5.337
-0.067,0.001,0.262,-5.337
-0.082,0.005,0.261,-5.337
-0.069,0.006,0.260,-5.337
-0.049,0.010,0.260,-5.337
0.045,0.012,0.260,-5.337
0.077,0.014,0.258,-5.337
0.002,0.018,0.259,-5.337
-0.071,0.020,0.260,-5.337
-0.026,0.022,0.258,-5.337
0.016,0.027,0.260,-5.337
-0.046,0.029,0.264,-5.337
-0.110,0.034,0.264,-5.337
-0.090,0.032,0.264,-5.337
-0.072,0.033,0.258,-5.337
-0.011,0.034,0.256,-5.337
0.029,0.034,0.256,-5.337
0.017,0.032,0.256,-5.337
-0.009,0.032,0.261,-5.337
-0.093,0.034,0.267,-5.337
-0.115,0.035,0.269,-5.337
-0.012,0.039,0.266,-5.337
0.070,0.038,0.261,-5.337
0.075,0.039,0.260,-5.337
-0.024,0.038,0.261,-5.337
0.024,0.041,0.262,-5.337
0.116,0.042,0.264,-5.337
0.080,0.042,0.267,-5.337
0.061,0.043,0.266,-5.337
0.044,0.042,0.260,-5.337
-0.003,0.043,0.261,-5.337
-0.008,0.043,0.264,-5.337
-0.008,0.045,0.268,-5.337
-0.036,0.047,0.267,-5.337
0.047,0.047,0.265,-5.337
0.114,0.046,0.262,-5.337
0.023,0.048,0.262,-5.337
-0.024,0.049,0.261,-5.337
0.056,0.049,0.264,-5.337
0.007,0.047,0.264,-5.337
-0.059,0.049,0.264,-5.337
-0.009,0.047,0.260,-5.337
0.110,0.049,0.261,-5.337
0.076,0.051,0.264,-5.337
0.053,0.048,0.266,-5.337
0.116,0.047,0.267,-5.337
0.022,0.049,0.267,-5.337
-0.107,0.052,0.262,-5.337
-0.013,0.051,0.258,-5.337
0.141,0.053,0.260,-5.337
0.133,0.055,0.263,-5.337
-0.002,0.055,0.268,-5.337
0.002,0.057,0.268,-5.337
0.072,0.056,0.267,-5.337
0.104,0.057,0.271,-5.337
0.079,0.058,0.272,-5.337
0.018,0.056,0.269,-5.337
0.057,0.056,0.267,-5.337
0.094,0.058,0.264,-5.337
0.029,0.060,0.264,-5.337
0.016,0.059,0.267,-5.337
0.076,0.055,0.268,-5.337
0.085,0.056,0.267,-5.337
0.041,0.053,0.266,-5.337
0.025,0.053,0.265,-5.337
0.030,0.056,0.267,-5.337
0.068,0.058,0.270,-5.337
0.164,0.061,0.272,-5.337
0.118,0.061,0.273,-5.337
0.142,0.058,0.270,-5.337
0.162,0.059,0.268,-5.337
0.117,0.063,0.270,-5.337
0.083,0.067,0.272,-5.337
0.091,0.062,0.268,-5.337
0.117,0.060,0.270,-5.337
0.069,0.059,0.271,-5.337
0.034,0.058,0.273,-5.337
0.025,0.059,0.271,-5.337
0.089,0.060,0.269,-5.337
0.170,0.058,0.266,-5.337
0.197,0.060,0.264,-5.337
0.218,0.058,0.268,-5.337
0.236,0.059,0.271,-5.337
0.206,0.055,0.273,-5.337
0.186,0.050,0.274,-5.337
0.113,0.054,0.275,-5.337
0.041,0.060,0.274,-5.337
0.113,0.059,0.272,-5.337
0.211,0.057,0.272,-5.337
0.164,0.057,0.273,-5.337
0.083,0.059,0.273,-5.337
0.084,0.059,0.273,-5.337
0.098,0.057,0.270,-5.337
0.183,0.054,0.271,-5.337
0.186,0.056,0.271,-5.337
0.123,0.057,0.274,-5.337
0.136,0.057,0.275,-5.337
0.251,0.053,0.274,-5.337
0.273,0.056,0.271,-5.337
0.177,0.057,0.273,-5.337
0.215,0.060,0.276,-5.337
0.155,0.064,0.274,-5.337
0.165,0.060,0.268,-5.337
0.221,0.057,0.267,-5.337
0.283,0.058,0.269,-5.337
0.318,0.058,0.275,-5.337
0.200,0.059,0.281,-5.337
0.144,0.058,0.283,-5.337
0.181,0.060,0.280,-5.337
0.192,0.063,0.275,-5.337
0.184,0.063,0.271,-5.337
0.197,0.062,0.268,-5.337
0.199,0.062,0.269,-5.337
0.163,0.063,0.271,-5.337
0.148,0.065,0.274,-5.337
0.189,0.064,0.273,-5.337
0.233,0.062,0.275,-5.337
0.099,0.062,0.276,-5.337
0.030,0.063,0.277,-5.337
0.068,0.062,0.275,-5.337
0.136,0.060,0.273,-5.337
0.180,0.059,0.271,-5.337
0.183,0.060,0.269,-5.337
0.173,0.060,0.270,-5.337
0.185,0.062,0.276,-5.337
0.150,0.065,0.278,-5.337
0.120,0.067,0.279,-5.337
0.234,0.064,0.278,-5.337
0.217,0.062,0.278,-5.337
0.205,0.063,0.280,-5.337
0.202,0.063,0.278,-5.337
0.213,0.063,0.277,-5.337
0.196,0.068,0.276,-5.337
0.173,0.070,0.278,-5.337
0.148,0.072,0.279,-5.337
0.210,0.080,0.279,-5.337
0.272,0.085,0.275,-5.337
0.242,0.090,0.272,-5.337
0.151,0.087,0.273,-5.337
0.180,0.087,0.277,-5.337
0.206,0.087,0.279,-5.337
0.235,0.088,0.276,-5.337
0.178,0.083,0.278,-5.337
0.188,0.077,0.282,-5.337
0.199,0.071,0.281,-5.337
0.152,0.061,0.279,-5.337
0.183,0.051,0.280,-5.337
0.144,0.044,0.280,-5.337
0.185,0.035,0.277,-5.337
0.305,0.025,0.273,-5.337
0.329,0.021,0.275,-5.337
0.272,0.022,0.278,-5.337
0.299,0.019,0.281,-5.337
0.322,0.018,0.283,-5.337
0.301,0.019,0.283,-5.337
0.311,0.022,0.279,-5.337
0.346,0.026,0.280,-5.337
0.305,0.025,0.278,-5.337
0.184,0.031,0.277,-5.337
0.137,0.033,0.277,-5.337
0.206,0.037,0.279,-5.337
0.227,0.041,0.280,-5.337
0.208,0.045,0.281,-5.337
0.298,0.048,0.277,-5.337
0.295,0.049,0.275,-5.337
0.159,0.055,0.277,-5.337
0.150,0.054,0.282,-5.337
0.212,0.055,0.282,-5.337
0.207,0.054,0.279,-5.337
0.272,0.056,0.279,-5.337
0.240,0.058,0.279,-5.337
0.298,0.053,0.281,-5.337
0.283,0.055,0.285,-5.337
0.207,0.060,0.288,-5.337
0.234,0.058,0.283,-5.337
0.251,0.061,0.283,-5.337
0.273,0.060,0.284,-5.337
0.321,0.060,0.285,-5.337
0.360,0.058,0.284,-5.337
0.377,0.056,0.282,-5.337
0.348,0.060,0.280,-5.337
0.326,0.064,0.281,-5.337
0.285,0.064,0.283,-5.337
0.321,0.062,0.286,-5.337
0.333,0.060,0.283,-5.337
0.369,0.060,0.277,-5.337
0.374,0.059,0.275,-5.337
0.324,0.059,0.279,-5.337
0.358,0.058,0.282,-5.337
0.431,0.058,0.284,-5.337
0.340,0.056,0.291,-5.337
0.299,0.057,0.293,-5.337
0.393,0.059,0.291,-5.337
0.378,0.063,0.286,-5.337
0.253,0.065,0.284,-5.337
0.229,0.063,0.284,-5.337
0.260,0.068,0.286,-5.337
0.265,0.068,0.281,-5.337
0.232,0.068,0.278,-5.337
0.233,0.068,0.281,-5.337
0.276,0.070,0.284,-5.337
0.320,0.071,0.284,-5.337
0.299,0.069,0.281,-5.337
0.309,0.067,0.282,-5.337
0.270,0.072,0.285,-5.337
0.205,0.071,0.288,-5.337
0.259,0.071,0.288,-5.337
0.343,0.070,0.284,-5.337
0.294,0.072,0.281,-5.337
0.283,0.071,0.280,-5.337
0.273,0.071,0.283,-5.337
0.267,0.074,0.290,-5.337
0.271,0.072,0.287,-5.337
0.277,0.072,0.284,-5.337
0.352,0.067,0.284,-5.337
0.377,0.070,0.290,-5.337
0.297,0.072,0.290,-5.337
0.224,0.075,0.290,-5.337
0.202,0.077,0.288,-5.337
0.172,0.074,0.288,-5.337
0.101,0.070,0.287,-5.337
0.125,0.073,0.287,-5.337
0.219,0.074,0.288,-5.337
0.315,0.072,0.289,-5.337
0.298,0.072,0.288,-5.337
0.212,0.074,0.289,-5.337
0.199,0.070,0.289,-5.337
0.235,0.067,0.288,-5.337
0.295,0.065,0.285,-5.337
0.217,0.068,0.286,-5.337
0.140,0.070,0.286,-5.337
0.229,0.068,0.286,-5.337
0.316,0.066,0.288,-5.337
0.255,0.069,0.289,-5.337
0.270,0.072,0.292,-5.337
0.310,0.071,0.290,-5.337
0.244,0.069,0.289,-5.337
0.202,0.067,0.288,-5.337
0.279,0.070,0.291,-5.337
0.252,0.069,0.290,-5.337
0.112,0.065,0.289,-5.337
0.118,0.060,0.287,-5.337
0.257,0.060,0.287,-5.337
0.310,0.060,0.289,-5.337
0.238,0.060,0.290,-5.337
0.305,0.058,0.289,-5.337
0.417,0.056,0.287,-5.337
0.358,0.059,0.287,-5.337
0.216,0.062,0.290,-5.337
0.174,0.058,0.293,-5.337
0.157,0.058,0.290,-5.337
0.167,0.059,0.291,-5.337
0.185,0.061,0.292,-5.337
0.212,0.061,0.297,-5.337
0.257,0.058,0.293,-5.337
0.239,0.060,0.290,-5.337
0.148,0.061,0.290,-5.337
0.186,0.062,0.291,-5.337
0.245,0.061,0.292,-5.337
0.287,0.062,0.292,-5.337
0.210,0.063,0.289,-5.337
0.145,0.063,0.289,-5.337
0.192,0.060,0.289,-5.337
0.299,0.062,0.292,-5.337
0.343,0.062,0.293,-5.337
0.277,0.065,0.289,-5.337
0.205,0.064,0.288,-5.337
0.156,0.064,0.290,-5.337
0.060,0.061,0.289,-5.337
0.114,0.061,0.289,-5.337
0.204,0.060,0.292,-5.337
0.185,0.059,0.294,-5.337
0.127,0.057,0.295,-5.337
0.153,0.059,0.297,-5.337
0.235,0.063,0.298,-5.337
0.259,0.065,0.296,-5.337
0.257,0.062,0.297,-5.337
0.218,0.057,0.295,-5.337
0.262,0.055,0.291,-5.337
0.277,0.057,0.288,-5.337
0.230,0.059,0.288,-5.337
0.200,0.062,0.287,-5.337
0.214,0.066,0.288,-5.337
0.125,0.064,0.292,-5.337
0.070,0.061,0.296,-5.337
0.125,0.061,0.296,-5.337
0.210,0.059,0.290,-5.337
0.211,0.059,0.285,-5.337
0.124,0.057,0.285,-5.337
0.076,0.058,0.293,-5.337
0.063,0.060,0.295,-5.337
0.109,0.062,0.295,-5.337
0.116,0.062,0.294,-5.337
0.116,0.063,0.293,-5.337
0.182,0.064,0.290,-5.337
0.199,0.065,0.290,-5.337
0.181,0.061,0.291,-5.337
0.151,0.059,0.292,-5.337
0.190,0.058,0.293,-5.337
0.243,0.063,0.298,-5.337
0.235,0.063,0.299,-5.337
0.180,0.070,0.293,-5.337
0.136,0.075,0.290,-5.337
0.092,0.082,0.293,-5.337
0.054,0.088,0.296,-5.337
0.131,0.086,0.296,-5.337
0.098,0.088,0.294,-5.337
0.135,0.086,0.293,-5.337
0.217,0.079,0.291,-5.337
0.202,0.080,0.290,-5.337
0.085,0.076,0.290,-5.337
0.067,0.070,0.290,-5.337
0.102,0.062,0.291,-5.337
0.100,0.050,0.291,-5.337
0.068,0.039,0.294,-5.337
0.023,0.031,0.296,-5.337
0.082,0.022,0.292,-5.337
0.100,0.017,0.291,-5.337
0.099,0.015,0.292,-5.337
0.114,0.013,0.297,-5.337
0.022,0.012,0.298,-5.337
0.030,0.013,0.296,-5.337
0.203,0.016,0.291,-5.337
0.298,0.017,0.286,-5.337
0.284,0.019,0.288,-5.337
0.173,0.021,0.293,-5.337
0.018,0.025,0.294,-5.337
-0.009,0.030,0.293,-5.337
0.006,0.035,0.293,-5.337
0.029,0.035,0.293,-5.337
0.005,0.036,0.292,-5.337
-0.066,0.039,0.295,-5.337
-0.084,0.041,0.291,-5.337
0.003,0.041,0.290,-5.337
0.030,0.038,0.295,-5.337
-0.039,0.042,0.299,-5.337
-0.064,0.045,0.296,-5.337
0.020,0.047,0.292,-5.337
0.117,0.045,0.292,-5.337
0.130,0.044,0.294,-5.337
0.038,0.045,0.296,-5.337
0.055,0.047,0.299,-5.337
0.075,0.049,0.297,-5.337
0.108,0.047,0.295,-5.337
0.106,0.048,0.296,-5.337
0.130,0.049,0.297,-5.337
0.184,0.050,0.293,-5.337
0.134,0.052,0.290,-5.337
0.098,0.051,0.290,-5.337
0.043,0.052,0.290,-5.337
0.045,0.053,0.292,-5.337
0.026,0.053,0.292,-5.337
-0.008,0.052,0.291,-5.337
0.049,0.054,0.294,-5.337
0.141,0.054,0.300,-5.337
0.089,0.052,0.302,-5.337
-0.010,0.053,0.299,-5.337
-0.003,0.052,0.298,-5.337
0.083,0.053,0.297,-5.337
0.082,0.055,0.291,-5.337
0.043,0.053,0.288,-5.337
0.075,0.047,0.288,-5.337
0.074,0.047,0.290,-5.337
0.033,0.051,0.294,-5.337
0.132,0.052,0.293,-5.337
0.196,0.052,0.292,-5.337
0.109,0.050,0.292,-5.337
0.089,0.051,0.293,-5.337
0.019,0.050,0.296,-5.337
-0.010,0.049,0.293,-5.337
-0.042,0.053,0.292,-5.337
0.024,0.052,0.290,-5.337
0.085,0.055,0.293,-5.337
0.017,0.054,0.299,-5.337
-0.020,0.052,0.297,-5.337
0.073,0.052,0.295,-5.337
0.135,0.054,0.296,-5.337
0.124,0.055,0.298,-5.337
0.102,0.055,0.297,-5.337
0.077,0.054,0.295,-5.337
-0.005,0.054,0.290,-5.337
0.021,0.055,0.288,-5.337
0.072,0.052,0.293,-5.337
0.121,0.052,0.297,-5.337
0.092,0.053,0.297,-5.337
-0.021,0.056,0.296,-5.337
-0.031,0.057,0.293,-5.337
0.007,0.058,0.292,-5.337
0.049,0.054,0.289,-5.337
0.059,0.054,0.286,-5.337
0.062,0.055,0.289,-5.337
0.076,0.054,0.291,-5.337
0.061,0.055,0.289,-5.337
-0.025,0.050,0.286,-5.337
-0.014,0.052,0.292,-5.337
0.038,0.053,0.296,-5.337
0.092,0.053,0.297,-5.337
0.056,0.052,0.293,-5.337
0.040,0.053,0.289,-5.337
-0.019,0.057,0.289,-5.337
-0.009,0.055,0.291,-5.337
0.035,0.054,0.295,-5.337
-0.073,0.058,0.296,-5.337
-0.051,0.058,0.295,-5.337
0.062,0.056,0.293,-5.337
0.011,0.053,0.291,-5.337
0.026,0.050,0.293,-5.337
0.045,0.051,0.292,-5.337
0.012,0.051,0.293,-5.337
0.031,0.051,0.292,-5.337
0.059,0.051,0.290,-5.337
0.051,0.051,0.288,-5.337
0.005,0.052,0.283,-5.337
-0.039,0.055,0.287,-5.337
-0.013,0.055,0.290,-5.337
-0.010,0.050,0.294,-5.337
0.016,0.048,0.292,-5.337
-0.015,0.051,0.292,-5.337
-0.072,0.051,0.291,-5.337
-0.005,0.048,0.291,-5.337
0.063,0.050,0.291,-5.337
-0.008,0.054,0.293,-5.337
-0.065,0.054,0.293,-5.337
-0.104,0.054,0.294,-5.337
-0.141,0.054,0.294,-5.337
-0.108,0.050,0.294,-5.337
-0.028,0.050,0.295,-5.337
-0.054,0.051,0.292,-5.337
-0.139,0.051,0.292,-5.337
-0.099,0.050,0.289,-5.337
0.005,0.049,0.287,-5.337
-0.057,0.049,0.289,-5.337
-0.118,0.050,0.295,-5.337
-0.128,0.049,0.292,-5.337
-0.151,0.049,0.287,-5.337
-0.171,0.047,0.283,-5.337
-0.121,0.047,0.284,-5.337
-0.055,0.047,0.289,-5.337
0.038,0.046,0.295,-5.337
0.047,0.048,0.295,-5.337
-0.054,0.048,0.290,-5.337
-0.038,0.047,0.290,-5.337
-0.049,0.047,0.290,-5.337
-0.062,0.047,0.292,-5.337
-0.055,0.046,0.292,-5.337
-0.058,0.044,0.290,-5.337
-0.031,0.045,0.286,-5.337
0.001,0.046,0.289,-5.337
-0.066,0.050,0.293,-5.337
-0.020,0.048,0.294,-5.337
0.077,0.048,0.291,-5.337
0.052,0.053,0.288,-5.337
0.065,0.052,0.281,-5.337
0.116,0.052,0.282,-5.337
0.060,0.052,0.285,-5.337
-0.043,0.059,0.290,-5.337
-0.028,0.062,0.290,-5.337
-0.061,0.060,0.293,-5.337
-0.106,0.056,0.295,-5.337
-0.085,0.054,0.292,-5.337
-0.075,0.053,0.289,-5.337
-0.021,0.053,0.289,-5.337
-0.042,0.051,0.290,-5.337
-0.096,0.051,0.288,-5.337
-0.107,0.053,0.285,-5.337
-0.072,0.057,0.291,-5.337
-0.019,0.061,0.293,-5.337
0.017,0.059,0.291,-5.337
-0.046,0.063,0.287,-5.337
-0.046,0.068,0.285,-5.337
-0.031,0.069,0.287,-5.337
0.040,0.066,0.287,-5.337
0.070,0.065,0.290,-5.337
-0.020,0.065,0.289,-5.337
-0.058,0.068,0.290,-5.337
0.040,0.067,0.289,-5.337
-0.010,0.067,0.289,-5.337
-0.036,0.066,0.289,-5.337
0.071,0.073,0.286,-5.337
0.043,0.080,0.286,-5.337
-0.026,0.085,0.288,-5.337
-0.041,0.087,0.288,-5.337
-0.021,0.088,0.287,-5.337
0.012,0.086,0.286,-5.337
-0.034,0.083,0.285,-5.337
-0.020,0.078,0.286,-5.337
0.003,0.076,0.284,-5.337
0.012,0.073,0.285,-5.337
-0.088,0.066,0.287,-5.337
-0.169,0.054,0.290,-5.337
-0.152,0.039,0.290,-5.337
-0.048,0.026,0.287,-5.337
0.039,0.019,0.284,-5.337
0.035,0.009,0.284,-5.337
0.006,0.001,0.283,-5.337
-0.074,-0.004,0.284,-5.337
-0.097,-0.007,0.284,-5.337
-0.127,-0.009,0.289,-5.337
-0.076,-0.009,0.286,-5.337
-0.062,-0.006,0.284,-5.337
-0.082,-0.005,0.285,-5.337
-0.048,-0.003,0.284,-5.337
0.045,-0.004,0.286,-5.337
0.036,0.001,0.288,-5.337
-0.028,0.009,0.285,-5.337
-0.070,0.012,0.281,-5.337
-0.023,0.017,0.284,-5.337
0.005,0.020,0.291,-5.337
-0.002,0.026,0.292,-5.337
-0.006,0.031,0.286,-5.337
0.006,0.035,0.286,-5.337
0.034,0.037,0.284,-5.337
0.058,0.038,0.280,-5.337
0.031,0.042,0.279,-5.337
0.038,0.046,0.285,-5.337
0.014,0.045,0.287,-5.337
-0.003,0.045,0.287,-5.337
0.076,0.044,0.286,-5.337
0.079,0.047,0.288,-5.337
0.067,0.047,0.287,-5.337
0.076,0.048,0.287,-5.337
0.076,0.050,0.287,-5.337
0.039,0.054,0.285,-5.337
0.030,0.053,0.284,-5.337
0.015,0.053,0.283,-5.337
-0.014,0.054,0.282,-5.337
0.009,0.055,0.284,-5.337
0.053,0.053,0.286,-5.337
0.056,0.052,0.285,-5.337
0.034,0.054,0.283,-5.337
0.007,0.056,0.280,-5.337
0.003,0.054,0.280,-5.337
0.016,0.053,0.280,-5.337
0.045,0.054,0.284,-5.337
0.104,0.052,0.284,-5.337
0.135,0.053,0.283,-5.337
0.109,0.053,0.279,-5.337
0.055,0.056,0.283,-5.337
0.074,0.054,0.286,-5.337
0.152,0.055,0.287,-5.337
0.149,0.056,0.285,-5.337
0.072,0.054,0.282,-5.337
0.057,0.053,0.282,-5.337
0.067,0.053,0.280,-5.337
0.003,0.054,0.279,-5.337
-0.032,0.055,0.278,-5.337
0.005,0.055,0.279,-5.337
0.053,0.053,0.279,-5.337
0.093,0.051,0.283,-5.337
0.126,0.052,0.288,-5.337
0.109,0.055,0.290,-5.337
0.030,0.051,0.287,-5.337
0.019,0.051,0.281,-5.337
0.074,0.052,0.279,-5.337
0.141,0.051,0.282,-5.337
0.124,0.049,0.283,-5.337
0.062,0.049,0.281,-5.337
0.073,0.051,0.276,-5.337
0.119,0.057,0.277,-5.337
0.093,0.058,0.278,-5.337
0.038,0.061,0.281,-5.337
0.016,0.064,0.283,-5.337
0.051,0.066,0.283,-5.337
0.090,0.066,0.282,-5.337
0.152,0.069,0.280,-5.337
0.211,0.068,0.280,-5.337
0.221,0.067,0.277,-5.337
0.182,0.070,0.275,-5.337
0.242,0.070,0.277,-5.337
0.250,0.070,0.280,-5.337
0.147,0.071,0.281,-5.337
0.062,0.071,0.280,-5.337
0.109,0.068,0.275,-5.337
0.209,0.067,0.275,-5.337
0.342,0.067,0.278,-5.337
0.284,0.071,0.278,-5.337
0.148,0.074,0.277,-5.337
0.069,0.073,0.278,-5.337
0.121,0.070,0.281,-5.337
0.174,0.068,0.280,-5.337
0.142,0.069,0.282,-5.337
0.180,0.069,0.282,-5.337
0.167,0.068,0.284,-5.337
0.201,0.069,0.283,-5.337
0.205,0.070,0.280,-5.337
0.156,0.068,0.275,-5.337
0.175,0.071,0.273,-5.337
0.159,0.072,0.275,-5.337
0.161,0.071,0.277,-5.337
0.202,0.068,0.279,-5.337
0.200,0.068,0.279,-5.337
0.171,0.072,0.277,-5.337
0.180,0.069,0.276,-5.337
0.178,0.071,0.276,-5.337
0.184,0.069,0.276,-5.337
0.151,0.069,0.277,-5.337
0.108,0.071,0.278,-5.337
0.085,0.072,0.277,-5.337
0.168,0.068,0.275,-5.337
0.212,0.067,0.276,-5.337
0.216,0.071,0.280,-5.337
0.181,0.068,0.282,-5.337
0.207,0.067,0.286,-5.337
0.253,0.066,0.282,-5.337
0.184,0.065,0.278,-5.337
0.092,0.066,0.276,-5.337
0.154,0.065,0.276,-5.337
0.280,0.064,0.278,-5.337
0.263,0.067,0.275,-5.337
0.157,0.069,0.277,-5.337
0.125,0.069,0.275,-5.337
0.148,0.065,0.273,-5.337
0.128,0.064,0.272,-5.337
0.175,0.067,0.275,-5.337
0.197,0.070,0.272,-5.337
0.265,0.071,0.272,-5.337
0.293,0.072,0.277,-5.337
0.282,0.072,0.284,-5.337
0.320,0.067,0.284,-5.337
0.336,0.070,0.283,-5.337
0.228,0.072,0.282,-5.337
0.215,0.071,0.279,-5.337
0.262,0.069,0.278,-5.337
0.319,0.071,0.278,-5.337
0.279,0.070,0.279,-5.337
0.189,0.072,0.279,-5.337
0.120,0.070,0.277,-5.337
0.116,0.067,0.273,-5.337
0.152,0.067,0.272,-5.337
0.153,0.066,0.276,-5.337
0.183,0.067,0.278,-5.337
0.221,0.068,0.277,-5.337
0.209,0.067,0.277,-5.337
0.216,0.065,0.272,-5.337
0.230,0.066,0.275,-5.337
0.232,0.064,0.277,-5.337
0.211,0.064,0.275,-5.337
0.168,0.063,0.275,-5.337
0.185,0.067,0.276,-5.337
0.146,0.066,0.277,-5.337
0.170,0.063,0.276,-5.337
0.230,0.060,0.271,-5.337
0.260,0.062,0.270,-5.337
0.120,0.065,0.274,-5.337
0.142,0.064,0.278,-5.337
0.200,0.063,0.275,-5.337
0.289,0.061,0.273,-5.337
0.335,0.061,0.270,-5.337
0.314,0.060,0.270,-5.337
0.296,0.059,0.272,-5.337
0.244,0.059,0.274,-5.337
0.260,0.061,0.275,-5.337
0.205,0.062,0.275,-5.337
0.089,0.063,0.274,-5.337
0.114,0.059,0.273,-5.337
0.251,0.059,0.273,-5.337
0.186,0.066,0.273,-5.337
0.080,0.068,0.276,-5.337
0.145,0.062,0.275,-5.337
0.288,0.061,0.270,-5.337
0.391,0.058,0.272,-5.337
0.388,0.061,0.271,-5.337
0.297,0.064,0.268,-5.337
0.276,0.067,0.270,-5.337
0.244,0.069,0.271,-5.337
0.244,0.069,0.271,-5.337
0.276,0.068,0.270,-5.337
0.279,0.068,0.272,-5.337
0.230,0.071,0.274,-5.337
0.169,0.078,0.275,-5.337
0.122,0.084,0.273,-5.337
0.096,0.089,0.269,-5.337
0.227,0.095,0.270,-5.337
0.277,0.103,0.270,-5.337
0.301,0.104,0.266,-5.337
0.250,0.104,0.266,-5.337
0.257,0.104,0.273,-5.337
0.297,0.100,0.277,-5.337
0.247,0.096,0.277,-5.337
0.205,0.091,0.271,-5.337
0.204,0.089,0.267,-5.337
0.251,0.076,0.264,-5.337
0.194,0.063,0.265,-5.337
0.193,0.048,0.269,-5.337
0.205,0.037,0.270,-5.337
0.252,0.027,0.269,-5.337
0.284,0.018,0.270,-5.337
0.244,0.015,0.275,-5.337
0.226,0.011,0.273,-5.337
0.231,0.008,0.271,-5.337
0.252,0.002,0.272,-5.337
0.258,0.001,0.270,-5.337
0.231,0.007,0.270,-5.337
0.289,0.011,0.269,-5.337
0.367,0.012,0.269,-5.337
0.428,0.011,0.271,-5.337
0.341,0.015,0.274,-5.337
0.235,0.022,0.276,-5.337
0.211,0.026,0.270,-5.337
0.227,0.029,0.267,-5.337
0.222,0.031,0.268,-5.337
0.282,0.030,0.267,-5.337
0.261,0.035,0.263,-5.337
0.165,0.040,0.263,-5.337
0.130,0.036,0.268,-5.337
0.167,0.033,0.272,-5.337
0.242,0.040,0.276,-5.337
0.242,0.044,0.273,-5.337
0.245,0.043,0.272,-5.337
0.301,0.043,0.268,-5.337
0.368,0.042,0.265,-5.337
0.355,0.042,0.264,-5.337
0.302,0.045,0.266,-5.337
0.243,0.052,0.266,-5.337
0.174,0.054,0.269,-5.337
0.171,0.052,0.268,-5.337
0.234,0.054,0.268,-5.337
0.254,0.052,0.265,-5.337
0.261,0.056,0.264,-5.337
0.317,0.055,0.266,-5.337
0.321,0.054,0.270,-5.337
0.225,0.051,0.266,-5.337
0.236,0.051,0.263,-5.337
0.278,0.053,0.265,-5.337
0.276,0.053,0.270,-5.337
0.272,0.052,0.274,-5.337
0.223,0.051,0.270,-5.337
0.251,0.052,0.268,-5.337
0.346,0.053,0.270,-5.337
0.358,0.055,0.274,-5.337
0.351,0.057,0.271,-5.337
0.342,0.060,0.265,-5.337
0.238,0.059,0.262,-5.337
0.182,0.061,0.263,-5.337
0.189,0.060,0.262,-5.337
0.130,0.062,0.261,-5.337
0.146,0.063,0.265,-5.337
0.214,0.067,0.271,-5.337
0.288,0.062,0.267,-5.337
0.330,0.061,0.263,-5.337
0.287,0.061,0.265,-5.337
0.252,0.057,0.267,-5.337
0.259,0.054,0.265,-5.337
0.219,0.059,0.263,-5.337
0.163,0.062,0.266,-5.337
0.102,0.063,0.267,-5.337
0.103,0.061,0.266,-5.337
0.138,0.058,0.267,-5.337
0.183,0.052,0.266,-5.337
0.301,0.049,0.265,-5.337
0.350,0.054,0.269,-5.337
0.241,0.058,0.267,-5.337
0.175,0.056,0.265,-5.337
0.148,0.054,0.261,-5.337
0.193,0.055,0.266,-5.337
0.205,0.055,0.269,-5.337
0.186,0.054,0.266,-5.337
0.203,0.053,0.259,-5.337
0.217,0.054,0.259,-5.337
0.234,0.056,0.263,-5.337
0.312,0.054,0.265,-5.337
0.274,0.056,0.265,-5.337
0.214,0.057,0.264,-5.337
0.283,0.054,0.264,-5.337
0.264,0.054,0.263,-5.337
0.149,0.052,0.261,-5.337
0.073,0.053,0.263,-5.337
0.092,0.053,0.265,-5.337
0.162,0.054,0.262,-5.337
0.228,0.051,0.260,-5.337
0.294,0.051,0.262,-5.337
0.355,0.051,0.266,-5.337
0.315,0.052,0.264,-5.337
0.179,0.052,0.266,-5.337
0.123,0.051,0.268,-5.337
0.104,0.052,0.270,-5.337
0.186,0.052,0.268,-5.337
0.164,0.051,0.266,-5.337
0.160,0.052,0.265,-5.337
0.266,0.052,0.267,-5.337
0.248,0.051,0.268,-5.337
0.250,0.049,0.267,-5.337
0.234,0.049,0.266,-5.337
0.202,0.050,0.266,-5.337
0.176,0.051,0.265,-5.337
0.157,0.050,0.268,-5.337
0.187,0.047,0.270,-5.337
0.153,0.046,0.267,-5.337
0.067,0.048,0.263,-5.337
0.071,0.048,0.261,-5.337
0.095,0.046,0.264,-5.337
0.081,0.046,0.264,-5.337
0.106,0.048,0.264,-5.337
0.146,0.048,0.263,-5.337
0.198,0.048,0.265,-5.337
0.198,0.046,0.263,-5.337
0.191,0.047,0.258,-5.337
0.167,0.043,0.262,-5.337
0.106,0.043,0.261,-5.337
0.157,0.042,0.255,-5.337
0.261,0.044,0.256,-5.337
0.249,0.046,0.265,-5.337
0.259,0.046,0.273,-5.337
0.267,0.047,0.271,-5.337
0.212,0.047,0.265,-5.337
0.244,0.046,0.263,-5.337
0.313,0.044,0.263,-5.337
0.262,0.042,0.263,-5.337
0.141,0.047,0.267,-5.337
0.137,0.049,0.268,-5.337
0.232,0.048,0.263,-5.337
0.217,0.045,0.258,-5.337
0.186,0.041,0.256,-5.337
0.242,0.039,0.260,-5.337
0.212,0.042,0.263,-5.337
0.212,0.039,0.270,-5.337
0.195,0.035,0.269,-5.337
0.119,0.036,0.266,-5.337
0.065,0.039,0.263,-5.337
0.073,0.039,0.263,-5.337
0.205,0.039,0.261,-5.337
0.283,0.039,0.262,-5.337
0.258,0.037,0.265,-5.337
0.197,0.037,0.269,-5.337
0.210,0.037,0.267,-5.337
0.277,0.039,0.265,-5.337
0.266,0.038,0.262,-5.337
0.280,0.037,0.263,-5.337
0.287,0.036,0.268,-5.337
0.244,0.034,0.268,-5.337
0.258,0.035,0.264,-5.337
0.257,0.039,0.261,-5.337
0.156,0.043,0.261,-5.337
0.088,0.041,0.264,-5.337
0.145,0.041,0.263,-5.337
0.295,0.036,0.263,-5.337
0.358,0.039,0.262,-5.337
0.238,0.042,0.260,-5.337
0.196,0.041,0.262,-5.337
0.171,0.041,0.264,-5.337
0.191,0.038,0.264,-5.337
0.178,0.038,0.261,-5.337
0.162,0.038,0.258,-5.337
0.227,0.035,0.257,-5.337
0.315,0.037,0.258,-5.337
0.215,0.039,0.261,-5.337
0.154,0.037,0.262,-5.337
0.150,0.036,0.263,-5.337
0.229,0.035,0.267,-5.337
0.240,0.037,0.265,-5.337
0.275,0.038,0.258,-5.337
0.214,0.040,0.258,-5.337
0.139,0.042,0.259,-5.337
0.106,0.044,0.261,-5.337
0.176,0.047,0.262,-5.337
0.234,0.048,0.264,-5.337
0.185,0.048,0.264,-5.337
0.069,0.046,0.261,-5.337
0.083,0.041,0.262,-5.337
0.182,0.042,0.264,-5.337
0.216,0.046,0.264,-5.337
0.179,0.046,0.265,-5.337
0.218,0.041,0.265,-5.337
0.207,0.042,0.261,-5.337
0.227,0.040,0.260,-5.337
0.174,0.040,0.263,-5.337
0.124,0.038,0.265,-5.337
0.162,0.038,0.265,-5.337
0.124,0.038,0.265,-5.337
0.103,0.040,0.262,-5.337
0.153,0.038,0.263,-5.337
0.209,0.038,0.263,-5.337
0.212,0.042,0.265,-5.337
0.162,0.042,0.265,-5.337
0.083,0.045,0.264,-5.337
-0.075,0.045,0.263,-5.337
-0.014,0.044,0.263,-5.337
0.038,0.046,0.268,-5.337
0.061,0.053,0.268,-5.337
0.094,0.056,0.265,-5.337
0.169,0.064,0.263,-5.337
0.175,0.073,0.261,-5.337
0.108,0.082,0.260,-5.337
0.157,0.083,0.260,-5.337
0.173,0.084,0.258,-5.337
0.142,0.080,0.257,-5.337
0.142,0.074,0.258,-5.337
0.110,0.070,0.262,-5.337
0.086,0.064,0.263,-5.337
0.115,0.055,0.265,-5.337
0.130,0.045,0.267,-5.337
0.211,0.034,0.267,-5.337
0.242,0.017,0.262,-5.337
0.144,0.003,0.260,-5.337
0.137,-0.006,0.260,-5.337
0.199,-0.011,0.262,-5.337
0.145,-0.019,0.265,-5.337
0.137,-0.029,0.265,-5.337
0.131,-0.036,0.267,-5.337
0.080,-0.034,0.267,-5.337
0.113,-0.033,0.265,-5.337
0.160,-0.033,0.265,-5.337
0.141,-0.027,0.264,-5.337
0.120,-0.025,0.261,-5.337
0.125,-0.022,0.261,-5.337
0.117,-0.018,0.261,-5.337
0.124,-0.016,0.260,-5.337
0.070,-0.016,0.260,-5.337
0.068,-0.012,0.262,-5.337
0.073,-0.005,0.263,-5.337
0.134,-0.003,0.266,-5.337
0.085,-0.001,0.262,-5.337
0.005,-0.000,0.260,-5.337
0.076,0.002,0.261,-5.337
0.104,0.008,0.263,-5.337
0.101,0.010,0.265,-5.337
0.073,0.012,0.267,-5.337
0.058,0.013,0.260,-5.337
0.075,0.017,0.256,-5.337
0.029,0.018,0.257,-5.337
0.020,0.020,0.260,-5.337
-0.002,0.022,0.263,-5.337
0.011,0.022,0.267,-5.337
0.023,0.024,0.265,-5.337
0.029,0.026,0.261,-5.337
0.014,0.028,0.260,-5.337
-0.016,0.028,0.259,-5.337
-0.005,0.023,0.258,-5.337
0.056,0.023,0.256,-5.337
0.012,0.024,0.259,-5.337
0.021,0.021,0.261,-5.337
0.053,0.022,0.263,-5.337
0.015,0.022,0.265,-5.337
0.026,0.021,0.265,-5.337
0.121,0.020,0.260,-5.337
0.123,0.024,0.263,-5.337
0.042,0.026,0.266,-5.337
0.014,0.026,0.267,-5.337
0.045,0.024,0.265,-5.337
0.065,0.022,0.264,-5.337
-0.066,0.022,0.264,-5.337
-0.083,0.020,0.263,-5.337
0.038,0.018,0.264,-5.337
0.062,0.020,0.265,-5.337
0.043,0.021,0.265,-5.337
0.030,0.026,0.262,-5.337
-0.008,0.025,0.259,-5.337
-0.032,0.024,0.259,-5.337
-0.032,0.023,0.262,-5.337
0.010,0.024,0.264,-5.337
-0.042,0.032,0.267,-5.337
-0.122,0.032,0.267,-5.337
-0.009,0.029,0.265,-5.337
0.123,0.027,0.264,-5.337
0.111,0.031,0.263,-5.337
0.119,0.029,0.262,-5.337
0.057,0.029,0.257,-5.337
0.008,0.029,0.255,-5.337
-0.045,0.031,0.258,-5.337
-0.007,0.029,0.265,-5.337
0.082,0.028,0.268,-5.337
0.047,0.026,0.267,-5.337
0.045,0.028,0.269,-5.337
0.070,0.034,0.267,-5.337
0.088,0.038,0.264,-5.337
0.052,0.036,0.262,-5.337
-0.000,0.036,0.261,-5.337
0.022,0.035,0.263,-5.337
0.084,0.033,0.262,-5.337
0.071,0.035,0.262,-5.337
0.055,0.033,0.259,-5.337
0.033,0.031,0.258,-5.337
-0.008,0.033,0.259,-5.337
-0.071,0.036,0.261,-5.337
-0.107,0.037,0.263,-5.337
0.006,0.035,0.261,-5.337
0.147,0.033,0.257,-5.337
0.129,0.033,0.255,-5.337
0.072,0.035,0.257,-5.337
0.073,0.036,0.259,-5.337
0.079,0.035,0.260,-5.337
-0.000,0.039,0.258,-5.337
0.009,0.036,0.259,-5.337
0.092,0.033,0.264,-5.337
0.071,0.034,0.269,-5.337
0.007,0.036,0.269,-5.337
-0.036,0.036,0.266,-5.337
-0.036,0.032,0.263,-5.337
-0.002,0.031,0.264,-5.337
0.017,0.030,0.263,-5.337
0.052,0.028,0.260,-5.337
0.057,0.030,0.257,-5.337
0.128,0.031,0.260,-5.337
0.128,0.032,0.264,-5.337
0.070,0.034,0.267,-5.337
0.071,0.030,0.268,-5.337
0.042,0.033,0.268,-5.337
0.026,0.033,0.266,-5.337
0.054,0.033,0.267,-5.337
0.077,0.032,0.266,-5.337
0.083,0.032,0.262,-5.337
0.122,0.036,0.260,-5.337
0.129,0.032,0.262,-5.337
0.055,0.031,0.266,-5.337
0.051,0.032,0.264,-5.337
0.104,0.032,0.259,-5.337
0.074,0.036,0.259,-5.337
-0.026,0.038,0.265,-5.337
0.005,0.038,0.267,-5.337
0.052,0.037,0.266,-5.337
0.101,0.036,0.264,-5.337
0.135,0.035,0.265,-5.337
0.180,0.040,0.264,-5.337
0.229,0.040,0.264,-5.337
0.148,0.037,0.255,-5.337
0.112,0.034,0.252,-5.337
0.120,0.036,0.254,-5.337
0.093,0.042,0.259,-5.337
-0.002,0.042,0.262,-5.337
0.046,0.039,0.264,-5.337
0.097,0.040,0.262,-5.337
0.085,0.042,0.258,-5.337
0.102,0.043,0.258,-5.337
0.159,0.043,0.261,-5.337
0.188,0.039,0.262,-5.337
0.182,0.040,0.262,-5.337
0.166,0.041,0.262,-5.337
0.151,0.043,0.261,-5.337
0.125,0.042,0.261,-5.337
0.118,0.039,0.263,-5.337
0.088,0.042,0.265,-5.337
0.133,0.041,0.262,-5.337
0.101,0.041,0.262,-5.337
0.025,0.041,0.260,-5.337
0.076,0.041,0.261,-5.337
0.160,0.041,0.261,-5.337
0.163,0.042,0.260,-5.337
0.104,0.041,0.259,-5.337
0.205,0.039,0.257,-5.337
0.220,0.036,0.256,-5.337
0.187,0.039,0.260,-5.337
0.195,0.041,0.264,-5.337
0.138,0.043,0.264,-5.337
0.103,0.046,0.261,-5.337
0.181,0.042,0.264,-5.337
0.218,0.039,0.266,-5.337
0.150,0.042,0.267,-5.337
0.130,0.042,0.265,-5.337
0.130,0.042,0.259,-5.337
0.151,0.044,0.260,-5.337
0.079,0.045,0.263,-5.337
0.038,0.047,0.269,-5.337
0.097,0.045,0.267,-5.337
0.133,0.043,0.263,-5.337
0.167,0.041,0.263,-5.337
0.162,0.044,0.265,-5.337
0.094,0.043,0.268,-5.337
0.148,0.045,0.267,-5.337
0.227,0.038,0.262,-5.337
0.206,0.039,0.260,-5.337
0.206,0.039,0.261,-5.337
0.236,0.040,0.263,-5.337
0.225,0.041,0.263,-5.337
0.243,0.042,0.264,-5.337
0.275,0.042,0.265,-5.337
0.212,0.046,0.265,-5.337
0.165,0.047,0.261,-5.337
0.242,0.048,0.259,-5.337
0.193,0.048,0.261,-5.337
0.149,0.049,0.262,-5.337
0.223,0.048,0.260,-5.337
0.237,0.049,0.262,-5.337
0.188,0.056,0.265,-5.337
0.199,0.056,0.267,-5.337
0.226,0.054,0.266,-5.337
0.174,0.052,0.264,-5.337
0.182,0.048,0.263,-5.337
0.186,0.047,0.263,-5.337
0.233,0.048,0.264,-5.337
0.296,0.049,0.263,-5.337
0.219,0.053,0.264,-5.337
0.156,0.051,0.264,-5.337
0.226,0.050,0.260,-5.337
0.297,0.046,0.259,-5.337
0.338,0.045,0.259,-5.337
0.287,0.048,0.265,-5.337
0.246,0.051,0.265,-5.337
0.247,0.049,0.262,-5.337
0.218,0.048,0.259,-5.337
0.274,0.048,0.260,-5.337
0.239,0.051,0.264,-5.337
0.140,0.053,0.267,-5.337
0.165,0.054,0.264,-5.337
0.268,0.052,0.263,-5.337
0.348,0.050,0.260,-5.337
0.263,0.054,0.259,-5.337
0.309,0.050,0.258,-5.337
0.309,0.050,0.262,-5.337
0.250,0.050,0.267,-5.337
0.260,0.052,0.263,-5.337
0.253,0.050,0.259,-5.337
0.222,0.053,0.263,-5.337
0.203,0.053,0.264,-5.337
0.303,0.048,0.264,-5.337
0.363,0.049,0.262,-5.337
0.247,0.050,0.261,-5.337
0.158,0.052,0.259,-5.337
0.178,0.054,0.255,-5.337
0.285,0.052,0.258,-5.337
0.364,0.054,0.266,-5.337
0.277,0.058,0.266,-5.337
0.237,0.060,0.265,-5.337
0.237,0.067,0.267,-5.337
0.239,0.077,0.267,-5.337
0.280,0.088,0.269,-5.337
0.277,0.094,0.267,-5.337
0.292,0.100,0.264,-5.337
0.263,0.103,0.266,-5.337
0.224,0.101,0.265,-5.337
0.293,0.098,0.266,-5.337
0.312,0.093,0.267,-5.337
0.233,0.089,0.267,-5.337
0.306,0.082,0.263,-5.337
0.382,0.074,0.259,-5.337
0.329,0.063,0.258,-5.337
0.307,0.046,0.258,-5.337
0.350,0.031,0.261,-5.337
0.324,0.019,0.263,-5.337
0.256,0.010,0.260,-5.337
0.276,0.000,0.261,-5.337
0.302,-0.009,0.260,-5.337
0.329,-0.012,0.261,-5.337
0.277,-0.012,0.261,-5.337
0.297,-0.011,0.264,-5.337
0.309,-0.010,0.264,-5.337
0.302,-0.008,0.261,-5.337
0.247,-0.004,0.259,-5.337
0.234,-0.002,0.264,-5.337
0.367,-0.003,0.269,-5.337
0.388,0.002,0.267,-5.337
0.295,0.010,0.260,-5.337
0.257,0.016,0.257,-5.337
0.219,0.019,0.258,-5.337
0.171,0.018,0.262,-5.337
0.145,0.021,0.263,-5.337
0.235,0.024,0.258,-5.337
0.350,0.026,0.258,-5.337
0.370,0.025,0.263,-5.337
0.363,0.025,0.270,-5.337
0.323,0.030,0.269,-5.337
0.321,0.032,0.267,-5.337
0.395,0.033,0.263,-5.337
0.323,0.035,0.261,-5.337
0.277,0.035,0.258,-5.337
0.287,0.037,0.259,-5.337
0.309,0.040,0.261,-5.337
0.370,0.042,0.265,-5.337
0.471,0.037,0.261,-5.337
0.423,0.038,0.259,-5.337
0.342,0.038,0.260,-5.337
0.380,0.042,0.266,-5.337
0.413,0.042,0.266,-5.337
0.401,0.039,0.264,-5.337
0.429,0.040,0.262,-5.337
0.392,0.043,0.262,-5.337
0.330,0.044,0.263,-5.337
0.295,0.047,0.262,-5.337
0.354,0.049,0.263,-5.337
0.334,0.051,0.265,-5.337
0.389,0.044,0.267,-5.337
0.453,0.044,0.265,-5.337
0.462,0.044,0.265,-5.337
0.474,0.044,0.263,-5.337
0.483,0.046,0.261,-5.337
0.413,0.047,0.259,-5.337
0.340,0.048,0.261,-5.337
0.364,0.045,0.262,-5.337
0.380,0.050,0.263,-5.337
0.334,0.047,0.262,-5.337
0.442,0.044,0.260,-5.337
0.502,0.043,0.256,-5.337
0.387,0.049,0.257,-5.337
0.307,0.052,0.261,-5.337
0.356,0.050,0.264,-5.337
0.389,0.048,0.266,-5.337
0.390,0.047,0.265,-5.337
0.368,0.049,0.263,-5.337
0.370,0.052,0.261,-5.337
0.364,0.052,0.257,-5.337
0.390,0.050,0.255,-5.337
0.376,0.053,0.259,-5.337
0.364,0.051,0.264,-5.337
0.355,0.049,0.266,-5.337
0.417,0.051,0.263,-5.337
0.446,0.052,0.264,-5.337
0.380,0.051,0.262,-5.337
0.314,0.052,0.261,-5.337
0.287,0.053,0.256,-5.337
0.452,0.054,0.259,-5.337
0.544,0.054,0.265,-5.337
0.440,0.053,0.270,-5.337
0.342,0.052,0.267,-5.337
0.348,0.050,0.262,-5.337
0.348,0.050,0.261,-5.337
0.353,0.049,0.263,-5.337
0.346,0.051,0.262,-5.337
0.399,0.052,0.261,-5.337
0.431,0.052,0.260,-5.337
0.363,0.057,0.257,-5.337
0.357,0.056,0.257,-5.337
0.372,0.054,0.259,-5.337
0.351,0.050,0.264,-5.337
0.389,0.052,0.263,-5.337
0.429,0.055,0.261,-5.337
0.430,0.052,0.256,-5.337
0.424,0.052,0.255,-5.337
0.405,0.050,0.259,-5.337
0.481,0.050,0.264,-5.337
0.506,0.050,0.263,-5.337
0.529,0.050,0.261,-5.337
0.521,0.051,0.260,-5.337
0.473,0.049,0.258,-5.337
0.452,0.050,0.259,-5.337
0.457,0.048,0.260,-5.337
0.460,0.050,0.257,-5.337
0.420,0.052,0.260,-5.337
0.300,0.054,0.267,-5.337
0.179,0.058,0.267,-5.337
0.248,0.057,0.263,-5.337
0.408,0.053,0.260,-5.337
0.326,0.056,0.263,-5.337
0.295,0.055,0.265,-5.337
0.368,0.054,0.264,-5.337
0.360,0.052,0.262,-5.337
0.328,0.054,0.262,-5.337
0.344,0.052,0.261,-5.337
0.373,0.055,0.261,-5.337
0.336,0.053,0.259,-5.337
0.333,0.052,0.258,-5.337
0.355,0.055,0.258,-5.337
0.344,0.057,0.260,-5.337
0.283,0.053,0.260,-5.337
0.330,0.048,0.258,-5.337
0.432,0.044,0.260,-5.337
0.410,0.046,0.263,-5.337
0.377,0.048,0.264,-5.337
0.348,0.048,0.261,-5.337
0.345,0.043,0.258,-5.337
0.341,0.042,0.261,-5.337
0.269,0.043,0.263,-5.337
0.277,0.047,0.262,-5.337
0.370,0.047,0.262,-5.337
0.358,0.046,0.261,-5.337
0.321,0.048,0.260,-5.337
0.329,0.045,0.263,-5.337
0.431,0.044,0.265,-5.337
0.515,0.042,0.264,-5.337
0.471,0.043,0.261,-5.337
0.396,0.046,0.258,-5.337
0.365,0.047,0.263,-5.337
0.376,0.048,0.266,-5.337
0.497,0.049,0.264,-5.337
0.476,0.048,0.262,-5.337
0.307,0.050,0.260,-5.337
0.247,0.049,0.259,-5.337
0.321,0.045,0.257,-5.337
0.372,0.044,0.259,-5.337
0.337,0.048,0.260,-5.337
0.295,0.049,0.260,-5.337
0.317,0.049,0.257,-5.337
0.316,0.046,0.260,-5.337
0.305,0.049,0.261,-5.337
0.270,0.048,0.261,-5.337
0.269,0.048,0.259,-5.337
0.259,0.051,0.260,-5.337
0.264,0.047,0.259,-5.337
0.278,0.048,0.259,-5.337
0.317,0.047,0.258,-5.337
0.361,0.047,0.257,-5.337
0.301,0.045,0.255,-5.337
0.232,0.046,0.257,-5.337
0.236,0.046,0.262,-5.337
0.267,0.046,0.263,-5.337
0.273,0.046,0.259,-5.337
0.223,0.047,0.256,-5.337
0.229,0.047,0.259,-5.337
0.276,0.051,0.261,-5.337
0.264,0.051,0.263,-5.337
0.250,0.047,0.264,-5.337
0.304,0.043,0.265,-5.337
0.287,0.043,0.265,-5.337
0.262,0.044,0.264,-5.337
0.305,0.043,0.260,-5.337
0.312,0.044,0.258,-5.337
0.298,0.042,0.256,-5.337
0.230,0.045,0.256,-5.337
0.196,0.043,0.256,-5.337
0.288,0.041,0.256,-5.337
0.350,0.043,0.259,-5.337
0.338,0.043,0.262,-5.337
0.331,0.043,0.266,-5.337
0.293,0.041,0.267,-5.337
0.258,0.042,0.262,-5.337
0.211,0.044,0.256,-5.337
0.135,0.047,0.252,-5.337
0.142,0.046,0.251,-5.337
0.150,0.046,0.253,-5.337
0.147,0.046,0.258,-5.337
0.144,0.043,0.261,-5.337
0.129,0.044,0.262,-5.337
0.131,0.045,0.262,-5.337
0.168,0.045,0.263,-5.337
0.202,0.047,0.264,-5.337
0.190,0.048,0.263,-5.337
0.140,0.047,0.265,-5.337
0.063,0.048,0.264,-5.337
0.179,0.047,0.260,-5.337
0.216,0.047,0.258,-5.337
0.097,0.048,0.260,-5.337
0.051,0.049,0.261,-5.337
0.246,0.046,0.262,-5.337
0.342,0.044,0.266,-5.337
0.332,0.042,0.266,-5.337
0.212,0.043,0.265,-5.337
0.166,0.042,0.261,-5.337
0.172,0.044,0.262,-5.337
0.119,0.047,0.263,-5.337
0.066,0.046,0.262,-5.337
0.005,0.044,0.257,-5.337
0.048,0.044,0.259,-5.337
0.106,0.044,0.258,-5.337
0.153,0.045,0.259,-5.337
0.161,0.043,0.261,-5.337
0.126,0.044,0.262,-5.337
0.126,0.042,0.258,-5.337
0.167,0.043,0.257,-5.337
0.235,0.043,0.261,-5.337
0.240,0.046,0.264,-5.337
0.187,0.044,0.263,-5.337
0.120,0.042,0.259,-5.337
0.155,0.040,0.259,-5.337
0.128,0.040,0.262,-5.337
0.043,0.040,0.263,-5.337
0.027,0.042,0.262,-5.337
0.124,0.042,0.261,-5.337
0.155,0.042,0.258,-5.337
0.153,0.042,0.257,-5.337
0.154,0.042,0.260,-5.337
0.183,0.042,0.266,-5.337
0.156,0.041,0.266,-5.337
0.114,0.043,0.264,-5.337
0.156,0.045,0.261,-5.337
0.198,0.046,0.261,-5.337
0.238,0.044,0.258,-5.337
0.228,0.043,0.257,-5.337
0.167,0.045,0.259,-5.337
0.120,0.044,0.264,-5.337
0.220,0.039,0.270,-5.337
0.339,0.038,0.269,-5.337
0.346,0.039,0.265,-5.337
0.307,0.041,0.259,-5.337
0.276,0.043,0.257,-5.337
0.190,0.044,0.260,-5.337
0.169,0.044,0.262,-5.337
0.157,0.041,0.260,-5.337
0.176,0.045,0.260,-5.337
0.192,0.045,0.258,-5.337
0.161,0.046,0.260,-5.337
0.153,0.044,0.261,-5.337
0.095,0.043,0.264,-5.337
0.070,0.044,0.267,-5.337
0.082,0.047,0.267,-5.337
0.007,0.046,0.262,-5.337
-0.089,0.048,0.258,-5.337
-0.015,0.043,0.259,-5.337
0.166,0.040,0.266,-5.337
0.197,0.037,0.265,-5.337
0.206,0.037,0.259,-5.337
0.181,0.042,0.255,-5.337
0.129,0.041,0.258,-5.337
0.110,0.042,0.261,-5.337
0.086,0.042,0.261,-5.337
0.082,0.041,0.261,-5.337
0.067,0.045,0.260,-5.337
-0.004,0.044,0.260,-5.337
0.078,0.043,0.258,-5.337
0.135,0.041,0.256,-5.337
0.077,0.041,0.259,-5.337
0.076,0.043,0.265,-5.337
0.162,0.039,0.263,-5.337
0.234,0.038,0.259,-5.337
0.254,0.038,0.258,-5.337
0.228,0.040,0.261,-5.337
0.141,0.040,0.257,-5.337
0.175,0.038,0.256,-5.337
0.171,0.038,0.257,-5.337
0.152,0.039,0.260,-5.337
0.206,0.038,0.263,-5.337
0.215,0.042,0.267,-5.337
0.080,0.046,0.267,-5.337
0.040,0.045,0.263,-5.337
0.088,0.044,0.257,-5.337
0.126,0.042,0.256,-5.337
0.121,0.039,0.260,-5.337
0.156,0.039,0.264,-5.337
0.181,0.040,0.266,-5.337
0.138,0.041,0.265,-5.337
0.074,0.043,0.267,-5.337
0.051,0.042,0.266,-5.337
0.012,0.044,0.263,-5.337
0.088,0.041,0.256,-5.337
0.250,0.042,0.255,-5.337
0.318,0.044,0.256,-5.337
0.197,0.046,0.263,-5.337
0.094,0.045,0.266,-5.337
0.109,0.045,0.266,-5.337
0.112,0.050,0.265,-5.337
0.135,0.057,0.263,-5.337
0.117,0.059,0.260,-5.337
0.094,0.059,0.260,-5.337
0.123,0.064,0.260,-5.337
0.138,0.068,0.258,-5.337
0.110,0.065,0.256,-5.337
0.142,0.063,0.256,-5.337
0.154,0.064,0.259,-5.337
0.183,0.062,0.262,-5.337
0.165,0.059,0.264,-5.337
0.032,0.045,0.267,-5.337
0.015,0.028,0.267,-5.337
0.085,0.020,0.264,-5.337
0.190,0.011,0.263,-5.337
0.222,0.003,0.256,-5.337
0.109,-0.000,0.255,-5.337
0.083,-0.006,0.255,-5.337
0.169,-0.010,0.259,-5.337
0.125,-0.013,0.263,-5.337
0.078,-0.013,0.268,-5.337
0.081,-0.015,0.269,-5.337
0.087,-0.012,0.264,-5.337
0.079,-0.011,0.261,-5.337
0.118,-0.005,0.259,-5.337
0.073,-0.002,0.259,-5.337
0.040,0.001,0.261,-5.337
0.099,0.002,0.261,-5.337
0.083,0.007,0.264,-5.337
0.169,0.007,0.264,-5.337
0.231,0.010,0.259,-5.337
0.239,0.015,0.259,-5.337
0.175,0.018,0.260,-5.337
0.141,0.016,0.262,-5.337
0.183,0.017,0.263,-5.337
0.218,0.017,0.265,-5.337
0.209,0.024,0.260,-5.337
0.240,0.023,0.259,-5.337
0.237,0.022,0.262,-5.337
0.144,0.026,0.264,-5.337
0.038,0.027,0.262,-5.337
0.077,0.024,0.258,-5.337
0.191,0.024,0.259,-5.337
0.200,0.025,0.263,-5.337
0.178,0.024,0.263,-5.337
0.136,0.027,0.262,-5.337
0.126,0.026,0.262,-5.337
0.148,0.023,0.262,-5.337
0.189,0.025,0.262,-5.337
0.135,0.029,0.259,-5.337
0.095,0.029,0.261,-5.337
0.104,0.027,0.263,-5.337
0.102,0.028,0.262,-5.337
0.101,0.030,0.260,-5.337
0.090,0.029,0.260,-5.337
0.089,0.028,0.260,-5.337
0.116,0.025,0.261,-5.337
0.104,0.026,0.262,-5.337
0.092,0.027,0.263,-5.337
0.110,0.027,0.263,-5.337
0.115,0.028,0.262,-5.337
0.159,0.026,0.259,-5.337
0.178,0.030,0.257,-5.337
0.208,0.029,0.253,-5.337
0.122,0.031,0.258,-5.337
0.060,0.034,0.263,-5.337
0.074,0.036,0.265,-5.337
0.171,0.037,0.263,-5.337
0.134,0.036,0.260,-5.337
0.066,0.035,0.259,-5.337
0.029,0.036,0.259,-5.337
0.031,0.032,0.262,-5.337
0.096,0.030,0.261,-5.337
0.131,0.032,0.263,-5.337
0.140,0.036,0.265,-5.337
0.087,0.037,0.262,-5.337
0.018,0.034,0.258,-5.337
0.036,0.035,0.259,-5.337
0.081,0.037,0.260,-5.337
0.082,0.039,0.259,-5.337
0.130,0.037,0.259,-5.337
0.177,0.035,0.260,-5.337
0.213,0.037,0.263,-5.337
0.201,0.038,0.264,-5.337
0.132,0.039,0.262,-5.337
0.132,0.040,0.260,-5.337
0.208,0.039,0.257,-5.337
0.205,0.042,0.256,-5.337
0.192,0.041,0.262,-5.337
0.200,0.038,0.264,-5.337
0.072,0.040,0.261,-5.337
0.086,0.041,0.258,-5.337
0.149,0.040,0.261,-5.337
0.104,0.042,0.261,-5.337
0.152,0.041,0.261,-5.337
0.277,0.037,0.260,-5.337
0.227,0.038,0.260,-5.337
0.147,0.040,0.260,-5.337
0.092,0.039,0.262,-5.337
0.080,0.037,0.261,-5.337
0.051,0.038,0.258,-5.337
0.060,0.041,0.263,-5.337
0.129,0.040,0.265,-5.337
0.207,0.038,0.259,-5.337
0.147,0.040,0.261,-5.337
0.061,0.044,0.262,-5.337
0.151,0.042,0.263,-5.337
0.227,0.038,0.260,-5.337
0.188,0.043,0.256,-5.337
0.163,0.046,0.258,-5.337
0.173,0.045,0.261,-5.337
0.233,0.042,0.267,-5.337
0.214,0.040,0.267,-5.337
0.144,0.044,0.263,-5.337
0.154,0.048,0.261,-5.337
0.172,0.046,0.262,-5.337
0.181,0.044,0.259,-5.337
0.154,0.043,0.256,-5.337
0.162,0.044,0.256,-5.337
0.135,0.043,0.259,-5.337
0.100,0.044,0.259,-5.337
0.155,0.040,0.257,-5.337
0.237,0.037,0.253,-5.337
0.165,0.042,0.256,-5.337
0.156,0.041,0.263,-5.337
0.185,0.043,0.264,-5.337
0.201,0.046,0.261,-5.337
0.231,0.046,0.259,-5.337
0.256,0.046,0.261,-5.337
0.208,0.046,0.263,-5.337
0.125,0.046,0.262,-5.337
0.192,0.045,0.262,-5.337
0.210,0.044,0.264,-5.337
0.162,0.045,0.263,-5.337
0.185,0.043,0.260,-5.337
0.203,0.043,0.256,-5.337
0.243,0.045,0.258,-5.337
0.245,0.047,0.261,-5.337
0.265,0.048,0.261,-5.337
0.308,0.049,0.257,-5.337
0.275,0.050,0.254,-5.337
0.213,0.050,0.256,-5.337
0.186,0.051,0.261,-5.337
0.285,0.049,0.265,-5.337
0.325,0.048,0.265,-5.337
0.248,0.053,0.261,-5.337
0.147,0.052,0.257,-5.337
0.119,0.054,0.258,-5.337
0.141,0.057,0.259,-5.337
0.100,0.059,0.259,-5.337
0.053,0.056,0.260,-5.337
0.113,0.055,0.257,-5.337
0.100,0.058,0.254,-5.337
0.073,0.057,0.256,-5.337
0.027,0.054,0.259,-5.337
0.043,0.049,0.261,-5.337
0.183,0.053,0.259,-5.337
0.261,0.054,0.259,-5.337
0.256,0.053,0.261,-5.337
0.318,0.050,0.265,-5.337
0.226,0.051,0.266,-5.337
0.205,0.051,0.263,-5.337
0.264,0.050,0.258,-5.337
0.311,0.054,0.252,-5.337
0.256,0.051,0.254,-5.337
0.254,0.043,0.259,-5.337
0.264,0.044,0.263,-5.337
0.172,0.047,0.263,-5.337
0.125,0.050,0.260,-5.337
0.044,0.056,0.260,-5.337
0.064,0.058,0.259,-5.337
0.175,0.053,0.258,-5.337
0.286,0.052,0.261,-5.337
0.288,0.056,0.263,-5.337
0.347,0.054,0.263,-5.337
0.351,0.052,0.260,-5.337
0.291,0.056,0.263,-5.337
0.352,0.057,0.263,-5.337
0.325,0.060,0.262,-5.337
0.226,0.057,0.260,-5.337
0.263,0.059,0.258,-5.337
0.314,0.058,0.257,-5.337
0.352,0.058,0.255,-5.337
0.265,0.057,0.258,-5.337
0.281,0.055,0.264,-5.337
0.295,0.057,0.263,-5.337
0.248,0.060,0.261,-5.337
0.226,0.064,0.264,-5.337
0.256,0.058,0.263,-5.337
0.276,0.055,0.259,-5.337
0.292,0.057,0.255,-5.337
0.277,0.056,0.258,-5.337
0.328,0.053,0.260,-5.337
0.302,0.054,0.265,-5.337
0.188,0.056,0.263,-5.337
0.144,0.055,0.263,-5.337
0.270,0.049,0.260,-5.337
0.330,0.053,0.259,-5.337
0.311,0.055,0.257,-5.337
0.291,0.053,0.259,-5.337
0.263,0.054,0.260,-5.337
0.316,0.057,0.261,-5.337
0.332,0.062,0.260,-5.337
0.239,0.062,0.263,-5.337
0.260,0.060,0.261,-5.337
0.324,0.058,0.258,-5.337
0.331,0.056,0.257,-5.337
0.289,0.058,0.259,-5.337
0.320,0.060,0.260,-5.337
0.349,0.061,0.260,-5.337
0.278,0.066,0.263,-5.337
0.277,0.065,0.262,-5.337
0.295,0.062,0.261,-5.337
0.311,0.063,0.263,-5.337
0.428,0.067,0.264,-5.337
0.423,0.069,0.262,-5.337
0.367,0.067,0.260,-5.337
0.378,0.063,0.259,-5.337
0.321,0.067,0.260,-5.337
0.285,0.064,0.263,-5.337
0.263,0.063,0.263,-5.337
0.273,0.061,0.260,-5.337
0.264,0.064,0.260,-5.337
0.224,0.064,0.260,-5.337
0.192,0.063,0.262,-5.337
0.161,0.065,0.262,-5.337
0.104,0.067,0.260,-5.337
0.192,0.065,0.258,-5.337
0.361,0.061,0.258,-5.337
0.316,0.062,0.258,-5.337
0.194,0.066,0.256,-5.337
0.279,0.065,0.258,-5.337
0.385,0.064,0.260,-5.337
0.333,0.064,0.264,-5.337
0.262,0.062,0.262,-5.337
0.281,0.062,0.260,-5.337
0.381,0.058,0.259,-5.337
0.406,0.061,0.262,-5.337
0.336,0.063,0.262,-5.337
0.302,0.063,0.260,-5.337
0.302,0.061,0.257,-5.337
0.364,0.063,0.260,-5.337
0.346,0.064,0.262,-5.337
0.300,0.066,0.263,-5.337
0.327,0.068,0.259,-5.337
0.334,0.067,0.258,-5.337
0.365,0.065,0.262,-5.337
0.378,0.065,0.265,-5.337
0.377,0.067,0.264,-5.337
0.421,0.066,0.260,-5.337
0.349,0.066,0.261,-5.337
0.317,0.065,0.261,-5.337
0.438,0.060,0.261,-5.337
0.445,0.062,0.260,-5.337
0.443,0.063,0.259,-5.337
0.436,0.062,0.260,-5.337
0.409,0.058,0.260,-5.337
0.460,0.059,0.258,-5.337
0.418,0.064,0.257,-5.337
0.374,0.060,0.259,-5.337
0.387,0.058,0.259,-5.337
0.355,0.062,0.258,-5.337
0.323,0.064,0.257,-5.337
0.250,0.065,0.258,-5.337
0.239,0.065,0.260,-5.337
0.351,0.065,0.262,-5.337
0.348,0.066,0.261,-5.337
0.267,0.069,0.260,-5.337
0.242,0.067,0.260,-5.337
0.280,0.067,0.261,-5.337
0.400,0.064,0.261,-5.337
0.435,0.068,0.261,-5.337
0.417,0.067,0.258,-5.337
0.440,0.067,0.261,-5.337
0.433,0.069,0.263,-5.337
0.380,0.066,0.260,-5.337
0.373,0.066,0.260,-5.337
0.395,0.069,0.264,-5.337
0.448,0.069,0.263,-5.337
0.403,0.074,0.261,-5.337
0.359,0.071,0.260,-5.337
0.357,0.070,0.258,-5.337
0.378,0.069,0.261,-5.337
0.325,0.067,0.267,-5.337
0.294,0.070,0.269,-5.337
0.301,0.072,0.266,-5.337
0.371,0.069,0.263,-5.337
0.419,0.068,0.264,-5.337
0.400,0.071,0.264,-5.337
0.383,0.071,0.263,-5.337
0.334,0.069,0.261,-5.337
0.300,0.067,0.256,-5.337
0.335,0.066,0.251,-5.337
0.326,0.067,0.253,-5.337
0.304,0.067,0.260,-5.337
0.327,0.066,0.261,-5.337
0.391,0.065,0.261,-5.337
0.390,0.062,0.259,-5.337
0.342,0.065,0.259,-5.337
0.357,0.060,0.261,-5.337
0.497,0.058,0.262,-5.337
0.459,0.062,0.261,-5.337
0.320,0.065,0.260,-5.337
0.395,0.062,0.257,-5.337
0.399,0.060,0.255,-5.337
0.356,0.057,0.255,-5.337
0.371,0.060,0.260,-5.337
0.366,0.063,0.266,-5.337
0.385,0.063,0.266,-5.337
0.414,0.062,0.263,-5.337
0.371,0.066,0.258,-5.337
0.393,0.061,0.255,-5.337
0.395,0.057,0.257,-5.337
0.391,0.058,0.257,-5.337
0.387,0.058,0.255,-5.337
0.373,0.059,0.257,-5.337
0.384,0.061,0.260,-5.337
0.409,0.061,0.258,-5.337
0.417,0.059,0.258,-5.337
0.399,0.059,0.260,-5.337
0.331,0.058,0.258,-5.337
0.327,0.062,0.257,-5.337
0.363,0.061,0.262,-5.337
0.361,0.058,0.265,-5.337
0.372,0.059,0.262,-5.337
0.373,0.058,0.257,-5.337
0.344,0.061,0.257,-5.337
0.322,0.061,0.259,-5.337
0.310,0.059,0.262,-5.337
0.287,0.060,0.260,-5.337
0.333,0.059,0.260,-5.337
0.432,0.057,0.260,-5.337
0.474,0.058,0.260,-5.337
0.387,0.060,0.258,-5.337
0.303,0.064,0.262,-5.337
0.299,0.063,0.259,-5.337
0.280,0.065,0.259,-5.337
0.273,0.063,0.259,-5.337
0.283,0.062,0.258,-5.337
0.355,0.057,0.260,-5.337
0.466,0.053,0.262,-5.337
0.408,0.055,0.260,-5.337
0.316,0.057,0.259,-5.337
0.326,0.057,0.260,-5.337
0.343,0.056,0.262,-5.337
0.295,0.056,0.265,-5.337
0.319,0.056,0.267,-5.337
0.334,0.055,0.265,-5.337
0.306,0.054,0.256,-5.337
0.306,0.054,0.254,-5.337
0.283,0.053,0.259,-5.337
0.229,0.054,0.262,-5.337
0.232,0.054,0.258,-5.337
0.261,0.058,0.259,-5.337
0.288,0.058,0.259,-5.337
0.250,0.056,0.261,-5.337
0.272,0.053,0.260,-5.337
0.371,0.054,0.260,-5.337
0.337,0.057,0.260,-5.337
0.256,0.057,0.262,-5.337
0.252,0.054,0.263,-5.337
0.276,0.051,0.260,-5.337
0.311,0.055,0.256,-5.337
0.229,0.055,0.256,-5.337
0.232,0.053,0.258,-5.337
0.244,0.053,0.260,-5.337
0.298,0.052,0.261,-5.337
0.350,0.051,0.260,-5.337
0.280,0.053,0.259,-5.337
0.202,0.051,0.260,-5.337
0.216,0.052,0.264,-5.337
0.238,0.050,0.263,-5.337
0.153,0.054,0.263,-5.337
0.145,0.053,0.259,-5.337
0.196,0.053,0.258,-5.337
0.249,0.055,0.257,-5.337
0.231,0.050,0.259,-5.337
0.264,0.044,0.260,-5.337
0.303,0.045,0.262,-5.337
0.244,0.047,0.261,-5.337
0.157,0.049,0.258,-5.337
0.184,0.045,0.260,-5.337
0.256,0.043,0.259,-5.337
0.245,0.048,0.255,-5.337
0.277,0.048,0.255,-5.337
0.311,0.049,0.257,-5.337
0.242,0.050,0.257,-5.337
0.289,0.047,0.258,-5.337
0.360,0.048,0.258,-5.337
0.300,0.048,0.262,-5.337
0.251,0.047,0.263,-5.337
0.275,0.046,0.264,-5.337
0.296,0.044,0.263,-5.337
0.218,0.045,0.267,-5.337
0.227,0.046,0.267,-5.337
0.265,0.049,0.262,-5.337
0.265,0.049,0.259,-5.337
0.206,0.051,0.262,-5.337
0.158,0.051,0.263,-5.337
0.210,0.050,0.262,-5.337
0.179,0.054,0.258,-5.337
0.126,0.055,0.256,-5.337
0.117,0.052,0.255,-5.337
0.202,0.048,0.257,-5.337
0.368,0.045,0.259,-5.337
0.354,0.050,0.257,-5.337
0.267,0.048,0.257,-5.337
0.234,0.049,0.260,-5.337
0.101,0.048,0.263,-5.337
0.096,0.046,0.261,-5.337
0.164,0.042,0.261,-5.337
0.140,0.043,0.258,-5.337
0.148,0.047,0.257,-5.337
0.188,0.047,0.256,-5.337
0.213,0.046,0.260,-5.337
0.202,0.044,0.260,-5.337
0.227,0.042,0.257,-5.337
0.163,0.043,0.258,-5.337
0.075,0.044,0.258,-5.337
0.098,0.044,0.260,-5.337
0.191,0.044,0.260,-5.337
0.213,0.039,0.263,-5.337
0.210,0.041,0.263,-5.337
0.208,0.041,0.260,-5.337
0.178,0.042,0.260,-5.337
0.089,0.046,0.260,-5.337
0.084,0.043,0.258,-5.337
0.155,0.043,0.257,-5.337
0.113,0.044,0.259,-5.337
0.040,0.044,0.259,-5.337
0.084,0.044,0.259,-5.337
0.151,0.044,0.259,-5.337
0.168,0.046,0.257,-5.337
0.153,0.047,0.256,-5.337
0.122,0.048,0.256,-5.337
0.109,0.048,0.258,-5.337
0.160,0.050,0.257,-5.337
0.180,0.049,0.256,-5.337
0.087,0.049,0.258,-5.337
0.022,0.050,0.258,-5.337
0.092,0.046,0.257,-5.337
0.164,0.050,0.261,-5.337
0.205,0.045,0.262,-5.337
0.171,0.043,0.262,-5.337
0.133,0.042,0.259,-5.337
0.193,0.043,0.257,-5.337
0.266,0.042,0.255,-5.337
0.128,0.046,0.257,-5.337
0.066,0.044,0.260,-5.337
0.133,0.042,0.263,-5.337
0.163,0.042,0.263,-5.337
0.144,0.042,0.258,-5.337
0.153,0.043,0.255,-5.337
0.190,0.044,0.255,-5.337
0.148,0.046,0.261,-5.337
0.062,0.047,0.268,-5.337
0.058,0.045,0.268,-5.337
0.069,0.039,0.263,-5.337
0.097,0.040,0.260,-5.337
0.188,0.038,0.264,-5.337
0.221,0.037,0.264,-5.337
0.071,0.041,0.257,-5.337
-0.021,0.040,0.255,-5.337
-0.006,0.039,0.260,-5.337
0.032,0.038,0.266,-5.337
0.086,0.038,0.265,-5.337
0.037,0.043,0.260,-5.337
0.024,0.041,0.255,-5.337
0.036,0.040,0.255,-5.337
0.058,0.038,0.256,-5.337
0.080,0.037,0.255,-5.337
-0.008,0.045,0.261,-5.337
0.004,0.042,0.259,-5.337
0.074,0.039,0.257,-5.337
0.128,0.037,0.256,-5.337
0.196,0.038,0.256,-5.337
0.249,0.037,0.257,-5.337
0.210,0.037,0.259,-5.337
0.106,0.036,0.257,-5.337
0.007,0.035,0.257,-5.337
0.098,0.032,0.261,-5.337
0.174,0.034,0.262,-5.337
0.126,0.037,0.260,-5.337
0.082,0.033,0.260,-5.337
0.149,0.025,0.260,-5.337
0.211,0.033,0.264,-5.337
0.159,0.035,0.269,-5.337
0.117,0.035,0.268,-5.337
0.060,0.033,0.263,-5.337
0.128,0.032,0.259,-5.337
0.119,0.037,0.260,-5.337
0.046,0.038,0.263,-5.337
-0.004,0.040,0.266,-5.337
-0.033,0.041,0.262,-5.337
0.018,0.034,0.257,-5.337
0.145,0.030,0.253,-5.337
0.183,0.029,0.255,-5.337
0.150,0.030,0.260,-5.337
0.130,0.036,0.261,-5.337
0.106,0.033,0.262,-5.337
0.068,0.033,0.262,-5.337
0.060,0.035,0.259,-5.337
0.075,0.040,0.259,-5.337
0.049,0.037,0.261,-5.337
0.075,0.034,0.262,-5.337
0.058,0.035,0.262,-5.337
0.114,0.035,0.262,-5.337
0.136,0.037,0.261,-5.337
0.092,0.039,0.260,-5.337
0.103,0.036,0.263,-5.337
0.083,0.035,0.262,-5.337
0.061,0.034,0.265,-5.337
0.069,0.036,0.265,-5.337
0.015,0.040,0.266,-5.337
0.060,0.040,0.261,-5.337
0.095,0.039,0.260,-5.337
0.102,0.040,0.261,-5.337
0.102,0.037,0.260,-5.337
0.144,0.034,0.260,-5.337
0.193,0.034,0.262,-5.337
0.257,0.032,0.262,-5.337
0.253,0.035,0.259,-5.337
0.148,0.037,0.255,-5.337
0.083,0.034,0.257,-5.337
0.117,0.036,0.261,-5.337
0.123,0.038,0.265,-5.337
0.072,0.038,0.266,-5.337
0.134,0.039,0.262,-5.337
0.166,0.037,0.259,-5.337
0.092,0.036,0.260,-5.337
0.051,0.038,0.265,-5.337
0.038,0.038,0.264,-5.337
-0.004,0.040,0.265,-5.337
-0.005,0.042,0.263,-5.337
0.038,0.045,0.261,-5.337
-0.022,0.045,0.259,-5.337
-0.103,0.045,0.261,-5.337
-0.062,0.038,0.262,-5.337
-0.024,0.039,0.260,-5.337
-0.022,0.037,0.258,-5.337
0.021,0.039,0.260,-5.337
0.013,0.041,0.262,-5.337
0.072,0.040,0.262,-5.337
0.099,0.038,0.262,-5.337
0.058,0.039,0.262,-5.337
0.011,0.039,0.262,-5.337
-0.021,0.041,0.262,-5.337
-0.029,0.040,0.262,-5.337
-0.027,0.039,0.263,-5.337
-0.013,0.037,0.266,-5.337
0.005,0.036,0.265,-5.337
0.125,0.032,0.262,-5.337
0.211,0.032,0.260,-5.337
0.193,0.039,0.257,-5.337
0.091,0.041,0.257,-5.337
0.008,0.039,0.260,-5.337
0.025,0.035,0.262,-5.337
0.016,0.040,0.259,-5.337
-0.016,0.048,0.258,-5.337
-0.073,0.048,0.259,-5.337
-0.021,0.044,0.257,-5.337
0.054,0.043,0.257,-5.337
0.107,0.044,0.260,-5.337
0.041,0.047,0.261,-5.337
-0.029,0.045,0.259,-5.337
0.021,0.044,0.259,-5.337
0.101,0.043,0.259,-5.337
0.131,0.043,0.261,-5.337
0.056,0.044,0.259,-5.337
-0.074,0.045,0.257,-5.337
-0.140,0.046,0.260,-5.337
-0.075,0.046,0.261,-5.337
0.007,0.043,0.264,-5.337
0.080,0.043,0.266,-5.337
0.089,0.044,0.270,-5.337
0.055,0.044,0.269,-5.337
0.092,0.043,0.262,-5.337
0.175,0.042,0.255,-5.337
0.168,0.043,0.256,-5.337
0.119,0.038,0.258,-5.337
0.113,0.039,0.261,-5.337
0.122,0.039,0.263,-5.337
0.150,0.041,0.263,-5.337
0.150,0.038,0.259,-5.337
0.180,0.036,0.255,-5.337
0.184,0.038,0.256,-5.337
0.197,0.040,0.260,-5.337
0.097,0.043,0.261,-5.337
-0.081,0.043,0.259,-5.337
-0.088,0.042,0.261,-5.337
0.077,0.040,0.267,-5.337
0.153,0.038,0.270,-5.337
0.101,0.039,0.266,-5.337
0.138,0.038,0.261,-5.337
0.159,0.041,0.257,-5.337
0.085,0.043,0.255,-5.337
0.067,0.042,0.257,-5.337
0.059,0.045,0.262,-5.337
0.037,0.044,0.265,-5.337
0.039,0.049,0.263,-5.337
0.027,0.049,0.262,-5.337
-0.023,0.043,0.261,-5.337
0.027,0.042,0.259,-5.337
0.143,0.041,0.258,-5.337
0.103,0.045,0.261,-5.337
0.104,0.045,0.264,-5.337
0.196,0.045,0.264,-5.337
0.261,0.041,0.265,-5.337
0.249,0.037,0.263,-5.337
0.207,0.040,0.258,-5.337
0.195,0.040,0.258,-5.337
0.154,0.037,0.260,-5.337
0.111,0.042,0.262,-5.337
0.094,0.045,0.263,-5.337
0.119,0.048,0.261,-5.337
0.130,0.044,0.260,-5.337
0.097,0.043,0.262,-5.337
0.064,0.045,0.259,-5.337
0.149,0.044,0.260,-5.337
0.243,0.043,0.263,-5.337
0.198,0.042,0.262,-5.337
0.172,0.041,0.262,-5.337
0.166,0.042,0.262,-5.337
0.198,0.040,0.261,-5.337
0.262,0.045,0.261,-5.337
0.230,0.046,0.263,-5.337
0.210,0.042,0.261,-5.337
0.155,0.045,0.258,-5.337
0.225,0.047,0.259,-5.337
0.249,0.048,0.265,-5.337
0.165,0.048,0.267,-5.337
0.180,0.047,0.264,-5.337
0.225,0.046,0.255,-5.337
0.261,0.044,0.255,-5.337
0.278,0.046,0.259,-5.337
0.242,0.048,0.264,-5.337
0.130,0.046,0.263,-5.337
0.165,0.046,0.262,-5.337
0.189,0.047,0.262,-5.337
0.173,0.048,0.262,-5.337
0.148,0.045,0.263,-5.337
0.145,0.045,0.262,-5.337
0.123,0.043,0.259,-5.337
0.108,0.047,0.259,-5.337
0.126,0.048,0.260,-5.337
0.205,0.047,0.261,-5.337
0.270,0.047,0.262,-5.337
0.290,0.046,0.261,-5.337
0.192,0.047,0.263,-5.337
0.155,0.046,0.263,-5.337
0.169,0.048,0.262,-5.337
0.167,0.051,0.262,-5.337
0.178,0.050,0.260,-5.337
0.211,0.048,0.256,-5.337
0.272,0.046,0.256,-5.337
0.305,0.050,0.257,-5.337
0.165,0.056,0.260,-5.337
0.116,0.051,0.261,-5.337
0.202,0.051,0.262,-5.337
0.269,0.052,0.263,-5.337
0.205,0.054,0.264,-5.337
0.133,0.052,0.263,-5.337
0.160,0.053,0.265,-5.337
0.233,0.053,0.264,-5.337
0.205,0.053,0.259,-5.337
0.165,0.055,0.257,-5.337
0.190,0.054,0.258,-5.337
0.306,0.055,0.259,-5.337
0.230,0.056,0.257,-5.337
0.106,0.057,0.258,-5.337
0.195,0.055,0.262,-5.337
0.359,0.052,0.262,-5.337
0.310,0.052,0.259,-5.337
0.256,0.051,0.260,-5.337
0.222,0.052,0.260,-5.337
0.280,0.053,0.259,-5.337
0.231,0.053,0.255,-5.337
0.138,0.057,0.257,-5.337
0.181,0.057,0.260,-5.337
0.324,0.053,0.264,-5.337
0.326,0.054,0.262,-5.337
0.204,0.054,0.260,-5.337
0.219,0.055,0.258,-5.337
0.198,0.054,0.259,-5.337
0.247,0.053,0.259,-5.337
0.380,0.049,0.261,-5.337
0.438,0.051,0.260,-5.337
0.378,0.052,0.259,-5.337
0.278,0.054,0.258,-5.337
0.231,0.053,0.257,-5.337
0.225,0.055,0.259,-5.337
0.185,0.057,0.258,-5.337
0.184,0.056,0.261,-5.337
0.250,0.056,0.262,-5.337
0.297,0.058,0.262,-5.337
0.272,0.057,0.260,-5.337
0.261,0.057,0.263,-5.337
0.374,0.053,0.263,-5.337
0.352,0.058,0.257,-5.337
0.304,0.062,0.255,-5.337
0.316,0.063,0.255,-5.337
0.299,0.061,0.258,-5.337
0.291,0.062,0.260,-5.337
0.344,0.061,0.257,-5.337
0.354,0.058,0.256,-5.337
0.334,0.058,0.260,-5.337
0.330,0.060,0.265,-5.337
0.267,0.059,0.263,-5.337
0.211,0.056,0.257,-5.337
0.222,0.056,0.255,-5.337
0.201,0.059,0.256,-5.337
0.185,0.057,0.261,-5.337
0.239,0.055,0.258,-5.337
0.275,0.058,0.260,-5.337
0.210,0.060,0.262,-5.337
0.220,0.059,0.265,-5.337
0.282,0.060,0.262,-5.337
0.330,0.056,0.258,-5.337
0.344,0.055,0.258,-5.337
0.338,0.060,0.258,-5.337
0.274,0.064,0.259,-5.337
0.242,0.064,0.260,-5.337
0.292,0.059,0.257,-5.337
0.316,0.058,0.255,-5.337
0.327,0.059,0.257,-5.337
0.324,0.059,0.263,-5.337
0.268,0.063,0.264,-5.337
0.199,0.064,0.264,-5.337
0.250,0.065,0.263,-5.337
0.341,0.061,0.261,-5.337
0.433,0.062,0.265,-5.337
0.433,0.061,0.261,-5.337
0.364,0.060,0.255,-5.337
0.277,0.062,0.253,-5.337
0.311,0.064,0.259,-5.337
0.356,0.067,0.264,-5.337
0.301,0.069,0.262,-5.337
0.253,0.064,0.258,-5.337
0.312,0.060,0.255,-5.337
0.433,0.061,0.256,-5.337
0.473,0.062,0.260,-5.337
0.313,0.063,0.261,-5.337
0.266,0.063,0.265,-5.337
0.367,0.058,0.265,-5.337
0.447,0.055,0.265,-5.337
0.447,0.056,0.264,-5.337
0.345,0.060,0.262,-5.337
0.312,0.061,0.259,-5.337
0.353,0.059,0.259,-5.337
0.388,0.060,0.263,-5.337
0.354,0.058,0.261,-5.337
0.417,0.057,0.260,-5.337
0.494,0.059,0.260,-5.337
0.425,0.066,0.260,-5.337
0.383,0.064,0.259,-5.337
0.325,0.062,0.260,-5.337
0.308,0.063,0.263,-5.337
0.312,0.063,0.264,-5.337
0.232,0.065,0.261,-5.337
0.228,0.062,0.257,-5.337
0.357,0.059,0.255,-5.337
0.400,0.058,0.256,-5.337
0.325,0.061,0.260,-5.337
0.255,0.062,0.262,-5.337
0.307,0.058,0.262,-5.337
0.341,0.058,0.262,-5.337
0.285,0.060,0.262,-5.337
0.274,0.060,0.261,-5.337
0.358,0.061,0.263,-5.337
0.390,0.066,0.262,-5.337
0.321,0.069,0.263,-5.337
0.317,0.068,0.264,-5.337
0.367,0.065,0.265,-5.337
0.453,0.062,0.264,-5.337
0.394,0.063,0.266,-5.337
0.249,0.069,0.264,-5.337
0.278,0.070,0.263,-5.337
0.346,0.063,0.262,-5.337
0.437,0.065,0.260,-5.337
0.429,0.065,0.262,-5.337
0.383,0.068,0.266,-5.337
0.329,0.066,0.263,-5.337
0.334,0.066,0.260,-5.337
0.317,0.065,0.260,-5.337
0.318,0.067,0.265,-5.337
0.367,0.066,0.265,-5.337
0.354,0.064,0.262,-5.337
0.304,0.068,0.260,-5.337
0.261,0.068,0.255,-5.337
0.298,0.068,0.258,-5.337
0.332,0.062,0.259,-5.337
0.350,0.060,0.260,-5.337
0.367,0.061,0.260,-5.337
0.367,0.065,0.262,-5.337
0.351,0.067,0.260,-5.337
0.369,0.066,0.260,-5.337
0.398,0.064,0.264,-5.337
0.443,0.064,0.263,-5.337
0.443,0.061,0.262,-5.337
0.429,0.061,0.260,-5.337
0.393,0.059,0.255,-5.337
0.342,0.062,0.255,-5.337
0.265,0.065,0.261,-5.337
0.355,0.066,0.264,-5.337
0.504,0.065,0.261,-5.337
0.522,0.062,0.260,-5.337
0.397,0.064,0.259,-5.337
0.257,0.065,0.260,-5.337
0.270,0.062,0.264,-5.337
0.356,0.063,0.265,-5.337
0.353,0.064,0.264,-5.337
0.326,0.065,0.258,-5.337
0.284,0.061,0.257,-5.337
0.346,0.061,0.257,-5.337
0.340,0.064,0.258,-5.337
0.353,0.065,0.257,-5.337
0.318,0.065,0.256,-5.337
0.244,0.062,0.255,-5.337
0.205,0.065,0.255,-5.337
0.244,0.064,0.260,-5.337
0.241,0.067,0.264,-5.337
0.283,0.065,0.263,-5.337
0.247,0.064,0.262,-5.337
0.289,0.060,0.261,-5.337
0.369,0.058,0.261,-5.337
0.409,0.056,0.260,-5.337
0.374,0.059,0.259,-5.337
0.380,0.061,0.261,-5.337
0.416,0.064,0.261,-5.337
0.343,0.062,0.264,-5.337
0.223,0.061,0.261,-5.337
0.266,0.061,0.258,-5.337
0.318,0.064,0.257,-5.337
0.278,0.065,0.261,-5.337
0.290,0.062,0.269,-5.337
0.395,0.061,0.272,-5.337
0.473,0.062,0.265,-5.337
0.411,0.063,0.258,-5.337
0.405,0.058,0.253,-5.337
0.390,0.058,0.252,-5.337
0.277,0.058,0.254,-5.337
0.253,0.059,0.259,-5.337
0.355,0.055,0.263,-5.337
0.378,0.054,0.261,-5.337
0.310,0.054,0.257,-5.337
0.236,0.057,0.257,-5.337
0.242,0.057,0.262,-5.337
0.315,0.055,0.261,-5.337
0.263,0.057,0.257,-5.337
0.235,0.058,0.255,-5.337
0.254,0.054,0.255,-5.337
0.224,0.055,0.256,-5.337
0.234,0.056,0.260,-5.337
0.266,0.056,0.260,-5.337
0.299,0.055,0.260,-5.337
0.351,0.051,0.259,-5.337
0.312,0.054,0.259,-5.337
0.287,0.056,0.258,-5.337
0.291,0.054,0.261,-5.337
0.331,0.050,0.263,-5.337
0.327,0.052,0.261,-5.337
0.267,0.057,0.259,-5.337
0.207,0.060,0.262,-5.337
0.246,0.058,0.264,-5.337
0.269,0.053,0.265,-5.337
0.246,0.053,0.264,-5.337
0.299,0.053,0.261,-5.337
0.301,0.056,0.258,-5.337
0.293,0.057,0.256,-5.337
0.250,0.058,0.260,-5.337
0.217,0.055,0.265,-5.337
0.233,0.052,0.270,-5.337
0.250,0.053,0.269,-5.337
0.322,0.051,0.262,-5.337
0.307,0.048,0.255,-5.337
0.271,0.048,0.255,-5.337
0.330,0.043,0.259,-5.337
0.368,0.045,0.261,-5.337
0.349,0.042,0.260,-5.337
0.341,0.043,0.259,-5.337
0.276,0.047,0.257,-5.337
0.235,0.049,0.260,-5.337
0.224,0.049,0.264,-5.337
0.155,0.050,0.263,-5.337
0.228,0.049,0.263,-5.337
0.222,0.049,0.265,-5.337
0.129,0.050,0.264,-5.337
0.067,0.053,0.257,-5.337
0.140,0.049,0.257,-5.337
0.220,0.048,0.262,-5.337
0.178,0.049,0.267,-5.337
0.134,0.047,0.265,-5.337
0.186,0.045,0.263,-5.337
0.266,0.043,0.258,-5.337
0.267,0.050,0.255,-5.337
0.190,0.050,0.256,-5.337
0.092,0.051,0.260,-5.337
0.120,0.049,0.263,-5.337
0.162,0.051,0.260,-5.337
0.161,0.052,0.257,-5.337
0.258,0.046,0.256,-5.337
0.377,0.046,0.258,-5.337
0.347,0.049,0.262,-5.337
0.228,0.053,0.266,-5.337
0.148,0.055,0.266,-5.337
0.172,0.052,0.261,-5.337
0.305,0.047,0.257,-5.337
0.336,0.049,0.262,-5.337
0.274,0.048,0.264,-5.337
0.236,0.050,0.265,-5.337
0.247,0.046,0.262,-5.337
0.241,0.045,0.259,-5.337
0.183,0.046,0.260,-5.337
0.180,0.044,0.262,-5.337
0.193,0.048,0.260,-5.337
0.137,0.049,0.257,-5.337
0.082,0.045,0.253,-5.337
0.107,0.045,0.255,-5.337
0.195,0.047,0.260,-5.337
0.213,0.046,0.263,-5.337
0.107,0.048,0.266,-5.337
-0.040,0.051,0.265,-5.337
-0.014,0.046,0.259,-5.337
0.107,0.048,0.255,-5.337
0.141,0.046,0.256,-5.337
0.220,0.047,0.258,-5.337
0.170,0.049,0.258,-5.337
0.122,0.048,0.259,-5.337
0.154,0.048,0.261,-5.337
0.098,0.053,0.259,-5.337
0.087,0.052,0.264,-5.337
0.115,0.053,0.267,-5.337
0.155,0.053,0.267,-5.337
0.172,0.054,0.261,-5.337
0.190,0.052,0.263,-5.337
0.185,0.050,0.268,-5.337
0.119,0.056,0.268,-5.337
0.099,0.052,0.264,-5.337
0.031,0.052,0.261,-5.337
0.093,0.048,0.259,-5.337
0.161,0.051,0.255,-5.337
0.044,0.051,0.254,-5.337
0.004,0.046,0.254,-5.337
0.053,0.044,0.252,-5.337
0.101,0.044,0.256,-5.337
0.200,0.044,0.262,-5.337
0.242,0.047,0.266,-5.337
0.170,0.047,0.265,-5.337
0.102,0.045,0.262,-5.337
0.110,0.043,0.260,-5.337
0.094,0.046,0.256,-5.337
0.112,0.044,0.260,-5.337
0.066,0.047,0.259,-5.337
0.040,0.048,0.259,-5.337
0.101,0.044,0.261,-5.337
0.076,0.045,0.259,-5.337
-0.004,0.045,0.256,-5.337
0.007,0.043,0.255,-5.337
0.132,0.040,0.254,-5.337
0.182,0.040,0.256,-5.337
0.110,0.042,0.257,-5.337
0.144,0.043,0.256,-5.337
0.217,0.039,0.254,-5.337
0.124,0.043,0.257,-5.337
0.080,0.045,0.259,-5.337
0.175,0.042,0.258,-5.337
0.129,0.043,0.260,-5.337
0.019,0.045,0.259,-5.337
-0.010,0.048,0.254,-5.337
0.083,0.048,0.254,-5.337
0.139,0.046,0.263,-5.337
0.124,0.049,0.267,-5.337
0.039,0.049,0.263,-5.337
0.061,0.048,0.256,-5.337
0.131,0.048,0.257,-5.337
0.090,0.048,0.259,-5.337
0.024,0.048,0.259,-5.337
0.052,0.046,0.258,-5.337
0.057,0.047,0.261,-5.337
0.053,0.047,0.264,-5.337
-0.037,0.049,0.264,-5.337
-0.080,0.050,0.257,-5.337
-0.046,0.051,0.255,-5.337
0.029,0.046,0.257,-5.337
0.077,0.043,0.261,-5.337
0.175,0.041,0.262,-5.337
0.169,0.045,0.258,-5.337
0.005,0.046,0.258,-5.337
-0.068,0.049,0.260,-5.337
-0.013,0.045,0.262,-5.337
0.102,0.045,0.263,-5.337
0.118,0.043,0.263,-5.337
0.075,0.045,0.263,-5.337
0.062,0.049,0.260,-5.337
0.078,0.050,0.253,-5.337
0.099,0.048,0.251,-5.337
0.050,0.050,0.253,-5.337
-0.025,0.053,0.260,-5.337
-0.024,0.052,0.261,-5.337
0.004,0.051,0.259,-5.337
-0.033,0.050,0.259,-5.337
-0.003,0.048,0.258,-5.337
0.113,0.048,0.260,-5.337
0.013,0.054,0.264,-5.337
-0.062,0.054,0.262,-5.337
-0.032,0.050,0.260,-5.337
-0.003,0.051,0.259,-5.337
-0.001,0.050,0.261,-5.337
0.097,0.046,0.264,-5.337
0.109,0.045,0.262,-5.337
0.103,0.043,0.263,-5.337
0.078,0.041,0.263,-5.337
-0.007,0.041,0.264,-5.337
0.004,0.042,0.258,-5.337
-0.032,0.046,0.260,-5.337
-0.004,0.041,0.261,-5.337
0.103,0.042,0.261,-5.337
0.134,0.041,0.259,-5.337
0.100,0.042,0.259,-5.337
0.041,0.041,0.258,-5.337
0.029,0.043,0.258,-5.337
0.096,0.040,0.258,-5.337
0.167,0.039,0.261,-5.337
0.099,0.038,0.265,-5.337
0.010,0.041,0.265,-5.337
0.073,0.041,0.262,-5.337
0.157,0.040,0.261,-5.337
0.091,0.041,0.265,-5.337
0.005,0.042,0.266,-5.337
-0.016,0.047,0.265,-5.337
-0.007,0.047,0.262,-5.337
0.055,0.042,0.263,-5.337
0.109,0.043,0.261,-5.337
0.040,0.045,0.262,-5.337
-0.038,0.047,0.258,-5.337
0.072,0.043,0.252,-5.337
0.156,0.039,0.254,-5.337
0.005,0.042,0.259,-5.337
-0.052,0.042,0.260,-5.337
0.094,0.041,0.262,-5.337
0.162,0.037,0.264,-5.337
0.154,0.036,0.267,-5.337
0.131,0.039,0.266,-5.337
0.064,0.042,0.263,-5.337
0.024,0.044,0.263,-5.337
0.007,0.046,0.264,-5.337
0.017,0.042,0.263,-5.337
0.023,0.040,0.260,-5.337
-0.043,0.044,0.259,-5.337
-0.129,0.045,0.261,-5.337
-0.134,0.043,0.266,-5.337
-0.108,0.041,0.271,-5.337
-0.038,0.044,0.270,-5.337
-0.046,0.043,0.265,-5.337
-0.035,0.043,0.261,-5.337
-0.025,0.043,0.256,-5.337
0.052,0.041,0.254,-5.337
0.121,0.039,0.254,-5.337
-0.001,0.041,0.261,-5.337
-0.080,0.040,0.264,-5.337
-0.020,0.039,0.263,-5.337
0.095,0.040,0.259,-5.337
0.055,0.041,0.255,-5.337
-0.023,0.043,0.258,-5.337
-0.066,0.047,0.263,-5.337
-0.097,0.047,0.260,-5.337
-0.102,0.047,0.257,-5.337
-0.038,0.046,0.256,-5.337
-0.079,0.047,0.257,-5.337
-0.097,0.045,0.260,-5.337
-0.023,0.045,0.266,-5.337
-0.039,0.052,0.269,-5.337
-0.041,0.052,0.267,-5.337
-0.030,0.049,0.266,-5.337
-0.075,0.046,0.262,-5.337
-0.067,0.046,0.258,-5.337
0.006,0.045,0.256,-5.337
0.022,0.043,0.256,-5.337
0.043,0.042,0.256,-5.337
0.057,0.044,0.260,-5.337
0.078,0.046,0.264,-5.337
0.038,0.048,0.264,-5.337
0.091,0.042,0.262,-5.337
0.189,0.042,0.259,-5.337
0.188,0.044,0.258,-5.337
0.079,0.047,0.257,-5.337
-0.069,0.050,0.260,-5.337
-0.145,0.050,0.262,-5.337
-0.108,0.048,0.260,-5.337
-0.087,0.045,0.257,-5.337
-0.016,0.042,0.257,-5.337
0.121,0.043,0.259,-5.337
0.153,0.042,0.262,-5.337
0.111,0.043,0.261,-5.337
0.074,0.046,0.259,-5.337
0.043,0.052,0.257,-5.337
0.027,0.050,0.259,-5.337
0.087,0.049,0.260,-5.337
0.117,0.048,0.259,-5.337
0.085,0.046,0.257,-5.337
0.027,0.049,0.255,-5.337
0.036,0.049,0.255,-5.337
0.084,0.048,0.257,-5.337
0.186,0.046,0.258,-5.337
0.188,0.045,0.258,-5.337
0.176,0.047,0.256,-5.337
0.242,0.043,0.256,-5.337
0.230,0.044,0.260,-5.337
0.121,0.046,0.261,-5.337
0.123,0.047,0.266,-5.337
0.151,0.044,0.265,-5.337
0.176,0.044,0.263,-5.337
0.186,0.046,0.262,-5.337
0.103,0.046,0.260,-5.337
0.025,0.051,0.256,-5.337
0.009,0.054,0.258,-5.337
-0.017,0.051,0.255,-5.337
-0.049,0.050,0.255,-5.337
0.032,0.049,0.255,-5.337
0.098,0.051,0.256,-5.337
0.092,0.048,0.257,-5.337
0.107,0.050,0.260,-5.337
0.076,0.052,0.262,-5.337
0.003,0.052,0.264,-5.337
0.033,0.049,0.264,-5.337
0.151,0.048,0.261,-5.337
0.223,0.049,0.259,-5.337
0.199,0.050,0.261,-5.337
0.179,0.049,0.262,-5.337
0.198,0.054,0.257,-5.337
0.157,0.054,0.256,-5.337
0.056,0.057,0.257,-5.337
0.045,0.058,0.257,-5.337
0.099,0.057,0.258,-5.337
0.154,0.055,0.261,-5.337
0.101,0.056,0.258,-5.337
0.090,0.062,0.259,-5.337
0.171,0.059,0.259,-5.337
0.234,0.058,0.259,-5.337
0.222,0.056,0.261,-5.337
0.207,0.058,0.265,-5.337
0.190,0.062,0.262,-5.337
0.096,0.061,0.263,-5.337
0.113,0.059,0.262,-5.337
0.219,0.057,0.259,-5.337
0.207,0.059,0.259,-5.337
0.167,0.062,0.259,-5.337
0.150,0.061,0.258,-5.337
0.145,0.058,0.256,-5.337
0.189,0.057,0.256,-5.337
0.218,0.057,0.259,-5.337
0.259,0.057,0.261,-5.337
0.267,0.062,0.259,-5.337
0.155,0.064,0.262,-5.337
0.070,0.063,0.265,-5.337
0.096,0.061,0.264,-5.337
0.106,0.063,0.261,-5.337
0.137,0.063,0.258,-5.337
0.145,0.059,0.260,-5.337
0.207,0.060,0.266,-5.337
0.224,0.061,0.265,-5.337
0.214,0.062,0.259,-5.337
0.231,0.060,0.257,-5.337
0.232,0.060,0.258,-5.337
0.279,0.059,0.261,-5.337
0.329,0.057,0.259,-5.337
0.295,0.058,0.258,-5.337
0.297,0.059,0.257,-5.337
0.327,0.059,0.259,-5.337
0.337,0.054,0.261,-5.337
0.277,0.058,0.261,-5.337
0.191,0.061,0.260,-5.337
0.162,0.063,0.262,-5.337
0.137,0.064,0.258,-5.337
0.164,0.065,0.257,-5.337
0.161,0.066,0.259,-5.337
0.166,0.070,0.262,-5.337
0.211,0.069,0.262,-5.337
0.300,0.066,0.260,-5.337
0.270,0.064,0.261,-5.337
0.184,0.065,0.261,-5.337
0.187,0.065,0.258,-5.337
0.290,0.061,0.258,-5.337
0.335,0.061,0.259,-5.337
0.274,0.062,0.260,-5.337
0.228,0.064,0.264,-5.337
0.224,0.064,0.262,-5.337
0.265,0.063,0.257,-5.337
0.244,0.065,0.258,-5.337
0.149,0.065,0.262,-5.337
0.158,0.065,0.260,-5.337
0.244,0.065,0.255,-5.337
0.284,0.062,0.252,-5.337
0.272,0.063,0.254,-5.337
0.183,0.068,0.256,-5.337
0.225,0.067,0.261,-5.337
0.312,0.063,0.262,-5.337
0.286,0.063,0.261,-5.337
0.203,0.063,0.260,-5.337
0.231,0.061,0.259,-5.337
0.312,0.057,0.257,-5.337
0.429,0.058,0.256,-5.337
0.418,0.060,0.256,-5.337
0.313,0.064,0.256,-5.337
0.254,0.063,0.259,-5.337
0.308,0.061,0.261,-5.337
0.349,0.061,0.261,-5.337
0.326,0.061,0.260,-5.337
0.235,0.061,0.262,-5.337
0.219,0.062,0.264,-5.337
0.276,0.063,0.263,-5.337
0.239,0.064,0.258,-5.337
0.278,0.063,0.257,-5.337
0.354,0.066,0.259,-5.337
0.304,0.069,0.262,-5.337
0.249,0.066,0.261,-5.337
0.301,0.066,0.259,-5.337
0.302,0.067,0.257,-5.337
0.350,0.065,0.257,-5.337
0.391,0.063,0.258,-5.337
0.320,0.066,0.258,-5.337
0.220,0.066,0.260,-5.337
0.215,0.061,0.264,-5.337
0.256,0.060,0.263,-5.337
0.291,0.062,0.259,-5.337
0.316,0.066,0.260,-5.337
0.418,0.061,0.257,-5.337
0.422,0.057,0.256,-5.337
0.317,0.064,0.255,-5.337
0.326,0.062,0.258,-5.337
0.332,0.060,0.257,-5.337
0.369,0.059,0.259,-5.337
0.345,0.057,0.258,-5.337
0.294,0.060,0.254,-5.337
0.317,0.059,0.254,-5.337
0.280,0.061,0.258,-5.337
0.311,0.061,0.260,-5.337
0.321,0.064,0.260,-5.337
0.280,0.064,0.256,-5.337
0.270,0.063,0.255,-5.337
0.297,0.059,0.257,-5.337
0.378,0.057,0.254,-5.337
0.354,0.059,0.254,-5.337
0.286,0.060,0.256,-5.337
0.285,0.061,0.262,-5.337
0.308,0.061,0.267,-5.337
0.381,0.061,0.264,-5.337
0.382,0.060,0.256,-5.337
0.407,0.059,0.254,-5.337
0.410,0.062,0.254,-5.337
0.358,0.060,0.258,-5.337
0.429,0.060,0.260,-5.337
0.490,0.060,0.259,-5.337
0.483,0.061,0.259,-5.337
0.479,0.059,0.259,-5.337
0.374,0.062,0.260,-5.337
0.268,0.068,0.262,-5.337
0.258,0.068,0.259,-5.337
0.200,0.064,0.256,-5.337
0.146,0.063,0.260,-5.337
0.114,0.065,0.260,-5.337
0.178,0.068,0.259,-5.337
0.204,0.067,0.259,-5.337
0.226,0.062,0.255,-5.337
0.284,0.058,0.254,-5.337
0.306,0.059,0.255,-5.337
0.363,0.061,0.257,-5.337
0.388,0.065,0.262,-5.337
0.427,0.062,0.266,-5.337
0.442,0.064,0.264,-5.337
0.394,0.065,0.259,-5.337
0.323,0.065,0.257,-5.337
0.313,0.066,0.258,-5.337
0.318,0.067,0.260,-5.337
0.267,0.070,0.260,-5.337
0.275,0.068,0.261,-5.337
0.347,0.064,0.258,-5.337
0.311,0.068,0.257,-5.337
0.226,0.067,0.259,-5.337
0.267,0.064,0.260,-5.337
0.360,0.063,0.258,-5.337
0.419,0.063,0.255,-5.337
0.401,0.064,0.253,-5.337
0.298,0.064,0.255,-5.337
0.328,0.059,0.257,-5.337
0.298,0.063,0.259,-5.337
0.317,0.064,0.260,-5.337
0.360,0.064,0.261,-5.337
0.406,0.060,0.264,-5.337
0.396,0.059,0.262,-5.337
0.402,0.058,0.261,-5.337
0.437,0.060,0.259,-5.337
0.440,0.064,0.260,-5.337
0.430,0.060,0.263,-5.337
0.480,0.059,0.264,-5.337
0.438,0.056,0.261,-5.337
0.399,0.059,0.257,-5.337
0.425,0.060,0.256,-5.337
0.363,0.062,0.258,-5.337
0.418,0.056,0.258,-5.337
0.434,0.061,0.256,-5.337
0.362,0.064,0.255,-5.337
0.384,0.060,0.255,-5.337
0.425,0.059,0.255,-5.337
0.430,0.057,0.255,-5.337
0.364,0.059,0.260,-5.337
0.371,0.061,0.262,-5.337
0.320,0.062,0.264,-5.337
0.281,0.062,0.265,-5.337
0.288,0.061,0.265,-5.337
0.315,0.060,0.261,-5.337
0.305,0.063,0.260,-5.337
0.332,0.063,0.260,-5.337
0.399,0.065,0.259,-5.337
0.397,0.064,0.258,-5.337
0.323,0.067,0.261,-5.337
0.374,0.065,0.262,-5.337
0.418,0.063,0.262,-5.337
0.345,0.065,0.258,-5.337
0.247,0.065,0.255,-5.337
0.238,0.065,0.256,-5.337
0.287,0.063,0.255,-5.337
0.321,0.060,0.258,-5.337
0.284,0.063,0.263,-5.337
0.261,0.062,0.266,-5.337
0.269,0.061,0.264,-5.337
0.326,0.058,0.261,-5.337
0.316,0.060,0.257,-5.337
0.332,0.059,0.259,-5.337
0.320,0.063,0.261,-5.337
0.387,0.064,0.261,-5.337
0.383,0.062,0.259,-5.337
0.416,0.060,0.265,-5.337
0.379,0.058,0.267,-5.337
0.279,0.060,0.268,-5.337
0.242,0.058,0.266,-5.337
0.229,0.059,0.258,-5.337
0.242,0.055,0.254,-5.337
0.260,0.053,0.258,-5.337
0.266,0.052,0.261,-5.337
0.310,0.054,0.264,-5.337
0.377,0.054,0.263,-5.337
0.325,0.052,0.258,-5.337
0.257,0.052,0.257,-5.337
0.358,0.053,0.257,-5.337
0.419,0.050,0.255,-5.337
0.386,0.048,0.255,-5.337
0.293,0.051,0.254,-5.337
0.258,0.056,0.255,-5.337
0.158,0.054,0.260,-5.337
0.161,0.051,0.261,-5.337
0.225,0.051,0.265,-5.337
0.356,0.049,0.262,-5.337
0.392,0.049,0.262,-5.337
0.318,0.051,0.260,-5.337
0.288,0.054,0.258,-5.337
0.335,0.050,0.254,-5.337
0.331,0.050,0.257,-5.337
0.204,0.051,0.264,-5.337
0.159,0.049,0.264,-5.337
0.210,0.049,0.259,-5.337
0.185,0.048,0.254,-5.337
0.138,0.046,0.251,-5.337
0.190,0.044,0.254,-5.337
0.330,0.045,0.259,-5.337
0.302,0.049,0.261,-5.337
0.280,0.048,0.260,-5.337
0.320,0.048,0.255,-5.337
0.239,0.051,0.256,-5.337
0.279,0.048,0.256,-5.337
0.312,0.049,0.257,-5.337
0.298,0.049,0.255,-5.337
0.327,0.049,0.254,-5.337
0.304,0.046,0.252,-5.337
0.267,0.051,0.256,-5.337
0.225,0.047,0.260,-5.337
0.242,0.046,0.262,-5.337
0.160,0.050,0.258,-5.337
0.150,0.051,0.256,-5.337
0.216,0.050,0.260,-5.337
0.219,0.049,0.263,-5.337
0.230,0.049,0.259,-5.337
0.207,0.053,0.257,-5.337
0.209,0.050,0.261,-5.337
0.226,0.051,0.264,-5.337
0.119,0.051,0.261,-5.337
0.131,0.050,0.256,-5.337
0.143,0.054,0.258,-5.337
0.183,0.054,0.258,-5.337
0.303,0.050,0.259,-5.337
0.313,0.045,0.257,-5.337
0.294,0.049,0.258,-5.337
0.286,0.051,0.259,-5.337
0.217,0.052,0.259,-5.337
0.216,0.052,0.258,-5.337
0.253,0.052,0.261,-5.337
0.239,0.056,0.263,-5.337
0.222,0.056,0.265,-5.337
0.284,0.052,0.263,-5.337
0.258,0.053,0.262,-5.337
0.178,0.053,0.260,-5.337
0.183,0.056,0.258,-5.337
0.249,0.054,0.259,-5.337
0.198,0.053,0.258,-5.337
0.133,0.054,0.258,-5.337
0.162,0.052,0.258,-5.337
0.218,0.050,0.260,-5.337
0.223,0.049,0.260,-5.337
0.208,0.051,0.258,-5.337
0.227,0.052,0.257,-5.337
0.188,0.058,0.259,-5.337
0.187,0.055,0.259,-5.337
0.201,0.053,0.261,-5.337
0.203,0.054,0.261,-5.337
0.225,0.054,0.263,-5.337
0.189,0.052,0.264,-5.337
0.155,0.051,0.264,-5.337
0.167,0.050,0.259,-5.337
0.182,0.051,0.256,-5.337
0.157,0.048,0.257,-5.337
0.113,0.048,0.258,-5.337
0.039,0.051,0.258,-5.337
0.074,0.048,0.258,-5.337
0.181,0.047,0.260,-5.337
0.227,0.046,0.260,-5.337
0.200,0.051,0.259,-5.337
0.216,0.047,0.261,-5.337
0.185,0.049,0.260,-5.337
0.164,0.049,0.260,-5.337
0.127,0.048,0.261,-5.337
0.137,0.048,0.259,-5.337
0.088,0.048,0.257,-5.337
0.044,0.048,0.254,-5.337
0.111,0.047,0.253,-5.337
0.147,0.048,0.255,-5.337
0.106,0.047,0.258,-5.337
0.067,0.048,0.260,-5.337
0.133,0.047,0.258,-5.337
0.187,0.044,0.260,-5.337
0.154,0.046,0.263,-5.337
0.190,0.046,0.259,-5.337
0.184,0.048,0.256,-5.337
0.145,0.050,0.256,-5.337
0.177,0.047,0.257,-5.337
0.189,0.045,0.255,-5.337
0.136,0.044,0.255,-5.337
0.165,0.045,0.258,-5.337
0.134,0.043,0.263,-5.337
0.137,0.042,0.264,-5.337
0.149,0.046,0.259,-5.337
0.185,0.046,0.258,-5.337
0.180,0.043,0.263,-5.337
0.211,0.041,0.265,-5.337
0.229,0.041,0.262,-5.337
0.202,0.043,0.261,-5.337
0.228,0.039,0.262,-5.337
0.216,0.040,0.263,-5.337
0.128,0.044,0.261,-5.337
0.117,0.043,0.257,-5.337
0.147,0.044,0.256,-5.337
0.101,0.040,0.260,-5.337
0.036,0.042,0.260,-5.337
-0.031,0.046,0.258,-5.337
0.085,0.044,0.257,-5.337
0.171,0.046,0.260,-5.337
0.132,0.043,0.262,-5.337
0.138,0.044,0.261,-5.337
0.131,0.045,0.261,-5.337
0.167,0.042,0.260,-5.337
0.158,0.046,0.261,-5.337
0.133,0.048,0.256,-5.337
0.125,0.048,0.255,-5.337
0.160,0.044,0.253,-5.337
0.172,0.042,0.259,-5.337
0.137,0.044,0.265,-5.337
0.109,0.043,0.265,-5.337
0.095,0.039,0.261,-5.337
0.051,0.041,0.257,-5.337
0.019,0.043,0.254,-5.337
0.041,0.043,0.258,-5.337
0.065,0.043,0.263,-5.337
0.092,0.043,0.263,-5.337
0.062,0.047,0.258,-5.337
0.123,0.046,0.254,-5.337
0.105,0.045,0.253,-5.337
0.122,0.042,0.254,-5.337
0.142,0.043,0.258,-5.337
0.163,0.044,0.262,-5.337
0.165,0.046,0.264,-5.337
0.097,0.047,0.262,-5.337
0.018,0.044,0.261,-5.337
0.030,0.044,0.258,-5.337
0.111,0.043,0.256,-5.337
0.077,0.046,0.255,-5.337
0.053,0.046,0.255,-5.337
-0.002,0.044,0.259,-5.337
0.046,0.043,0.262,-5.337
0.135,0.043,0.259,-5.337
0.109,0.045,0.257,-5.337
0.012,0.045,0.258,-5.337
0.023,0.044,0.260,-5.337
0.060,0.044,0.260,-5.337
0.113,0.041,0.260,-5.337
0.151,0.040,0.259,-5.337
0.116,0.037,0.257,-5.337
0.147,0.038,0.256,-5.337
0.200,0.039,0.256,-5.337
0.120,0.044,0.258,-5.337
-0.038,0.043,0.262,-5.337
-0.026,0.040,0.264,-5.337
0.103,0.036,0.261,-5.337
0.051,0.043,0.262,-5.337
0.041,0.039,0.261,-5.337
0.152,0.037,0.262,-5.337
0.145,0.037,0.261,-5.337
0.051,0.042,0.263,-5.337
0.072,0.037,0.262,-5.337
0.066,0.039,0.262,-5.337
-0.017,0.042,0.262,-5.337
-0.080,0.042,0.261,-5.337
-0.023,0.041,0.260,-5.337
0.005,0.041,0.258,-5.337
-0.016,0.041,0.258,-5.337
-0.004,0.042,0.259,-5.337
-0.024,0.041,0.260,-5.337
-0.042,0.044,0.259,-5.337
-0.043,0.045,0.260,-5.337
0.013,0.041,0.260,-5.337
0.122,0.035,0.259,-5.337
0.178,0.039,0.255,-5.337
0.163,0.041,0.254,-5.337
0.122,0.041,0.252,-5.337
0.060,0.042,0.255,-5.337
0.092,0.040,0.259,-5.337
0.106,0.039,0.263,-5.337
0.083,0.039,0.262,-5.337
0.048,0.039,0.262,-5.337
0.109,0.037,0.260,-5.337
0.203,0.035,0.258,-5.337
0.186,0.036,0.261,-5.337
-0.016,0.036,0.263,-5.337
-0.095,0.036,0.259,-5.337
0.032,0.033,0.256,-5.337
0.112,0.034,0.256,-5.337
0.140,0.034,0.261,-5.337
0.153,0.033,0.264,-5.337
0.104,0.035,0.261,-5.337
0.023,0.036,0.259,-5.337
-0.013,0.037,0.257,-5.337
-0.005,0.040,0.262,-5.337
0.038,0.035,0.262,-5.337
0.081,0.038,0.263,-5.337
0.045,0.038,0.261,-5.337
0.013,0.039,0.261,-5.337
0.039,0.036,0.262,-5.337
0.090,0.034,0.258,-5.337
0.093,0.036,0.258,-5.337
0.064,0.040,0.257,-5.337
0.142,0.036,0.258,-5.337
0.217,0.037,0.262,-5.337
0.136,0.037,0.262,-5.337
0.039,0.042,0.261,-5.337
0.017,0.041,0.261,-5.337
0.021,0.038,0.259,-5.337
0.024,0.035,0.258,-5.337
0.060,0.037,0.261,-5.337
0.054,0.038,0.263,-5.337
0.025,0.036,0.261,-5.337
0.069,0.035,0.261,-5.337
0.094,0.037,0.259,-5.337
0.122,0.037,0.260,-5.337
0.117,0.037,0.262,-5.337
0.085,0.036,0.265,-5.337
0.056,0.035,0.265,-5.337
0.089,0.038,0.263,-5.337
0.060,0.041,0.262,-5.337
0.011,0.040,0.264,-5.337
0.004,0.037,0.265,-5.337
0.112,0.035,0.266,-5.337
0.212,0.035,0.263,-5.337
0.198,0.036,0.261,-5.337
0.207,0.036,0.258,-5.337
0.257,0.039,0.258,-5.337
0.239,0.039,0.262,-5.337
0.247,0.037,0.263,-5.337
0.201,0.040,0.263,-5.337
0.106,0.042,0.259,-5.337
0.089,0.043,0.260,-5.337
0.128,0.039,0.262,-5.337
0.119,0.038,0.262,-5.337
0.093,0.040,0.260,-5.337
0.101,0.041,0.258,-5.337
0.073,0.046,0.256,-5.337
0.030,0.049,0.257,-5.337
0.057,0.047,0.262,-5.337
0.135,0.044,0.268,-5.337
0.103,0.043,0.268,-5.337
0.064,0.047,0.268,-5.337
0.043,0.046,0.268,-5.337
0.084,0.045,0.267,-5.337
0.078,0.043,0.263,-5.337
0.042,0.043,0.262,-5.337
0.065,0.050,0.260,-5.337
0.064,0.050,0.261,-5.337
0.074,0.048,0.262,-5.337
0.088,0.044,0.261,-5.337
0.142,0.042,0.262,-5.337
0.147,0.039,0.262,-5.337
0.148,0.042,0.259,-5.337
0.127,0.043,0.259,-5.337
0.101,0.044,0.261,-5.337
0.203,0.044,0.260,-5.337
0.197,0.052,0.260,-5.337
0.114,0.048,0.262,-5.337
0.077,0.045,0.263,-5.337
0.136,0.044,0.261,-5.337
0.161,0.046,0.261,-5.337
0.176,0.045,0.264,-5.337
0.222,0.042,0.266,-5.337
0.343,0.039,0.266,-5.337
0.297,0.043,0.265,-5.337
0.191,0.047,0.264,-5.337
0.103,0.050,0.260,-5.337
0.055,0.051,0.256,-5.337
0.167,0.050,0.259,-5.337
0.235,0.047,0.260,-5.337
0.248,0.045,0.259,-5.337
0.192,0.048,0.258,-5.337
0.130,0.051,0.259,-5.337
0.122,0.052,0.261,-5.337
0.147,0.048,0.260,-5.337
0.215,0.044,0.263,-5.337
0.262,0.044,0.264,-5.337
0.198,0.047,0.261,-5.337
0.060,0.046,0.257,-5.337
0.030,0.049,0.256,-5.337
0.123,0.046,0.256,-5.337
0.166,0.047,0.258,-5.337
0.126,0.050,0.260,-5.337
0.109,0.049,0.259,-5.337
0.118,0.044,0.261,-5.337
0.186,0.046,0.265,-5.337
0.248,0.048,0.263,-5.337
0.295,0.048,0.260,-5.337
0.269,0.048,0.255,-5.337
0.179,0.049,0.257,-5.337
0.130,0.051,0.261,-5.337
0.195,0.048,0.260,-5.337
0.222,0.050,0.258,-5.337
0.211,0.050,0.259,-5.337
0.226,0.049,0.260,-5.337
0.222,0.048,0.261,-5.337
0.216,0.045,0.261,-5.337
0.156,0.041,0.260,-5.337
0.128,0.042,0.262,-5.337
0.270,0.043,0.261,-5.337
0.289,0.049,0.261,-5.337
0.248,0.047,0.262,-5.337
0.200,0.046,0.264,-5.337
0.236,0.047,0.261,-5.337
0.214,0.052,0.257,-5.337
0.206,0.049,0.258,-5.337
0.127,0.052,0.259,-5.337
0.091,0.052,0.259,-5.337
0.171,0.048,0.257,-5.337
0.223,0.048,0.253,-5.337
0.247,0.050,0.256,-5.337
0.209,0.052,0.260,-5.337
0.198,0.051,0.261,-5.337
0.168,0.051,0.261,-5.337
0.255,0.046,0.260,-5.337
0.314,0.047,0.264,-5.337
0.263,0.052,0.264,-5.337
0.229,0.053,0.262,-5.337
0.201,0.052,0.261,-5.337
0.176,0.051,0.261,-5.337
0.133,0.051,0.262,-5.337
0.127,0.052,0.263,-5.337
0.207,0.050,0.264,-5.337
0.217,0.053,0.261,-5.337
0.245,0.054,0.260,-5.337
0.282,0.052,0.260,-5.337
0.217,0.052,0.262,-5.337
0.244,0.050,0.261,-5.337
0.308,0.050,0.256,-5.337
0.343,0.051,0.257,-5.337
0.276,0.055,0.261,-5.337
0.204,0.055,0.264,-5.337
0.256,0.055,0.264,-5.337
0.317,0.055,0.262,-5.337
0.278,0.057,0.262,-5.337
0.322,0.055,0.264,-5.337
0.418,0.052,0.264,-5.337
0.378,0.057,0.261,-5.337
0.251,0.061,0.260,-5.337
0.226,0.061,0.260,-5.337
0.236,0.061,0.259,-5.337
0.275,0.057,0.259,-5.337
0.298,0.055,0.260,-5.337
0.300,0.054,0.261,-5.337
0.330,0.060,0.262,-5.337
0.285,0.063,0.263,-5.337
0.172,0.063,0.262,-5.337
0.144,0.059,0.261,-5.337
0.236,0.057,0.260,-5.337
0.309,0.056,0.260,-5.337
0.273,0.060,0.260,-5.337
0.245,0.059,0.263,-5.337
0.197,0.058,0.263,-5.337
0.308,0.054,0.264,-5.337
0.371,0.056,0.258,-5.337
0.331,0.059,0.259,-5.337
0.316,0.056,0.263,-5.337
0.399,0.053,0.265,-5.337
0.467,0.054,0.260,-5.337
0.351,0.057,0.256,-5.337
0.255,0.059,0.260,-5.337
0.260,0.060,0.264,-5.337
0.257,0.063,0.263,-5.337
0.220,0.063,0.260,-5.337
0.245,0.062,0.261,-5.337
0.347,0.062,0.262,-5.337
0.443,0.059,0.261,-5.337
0.405,0.064,0.258,-5.337
0.292,0.068,0.257,-5.337
0.314,0.064,0.260,-5.337
0.341,0.064,0.260,-5.337
0.294,0.065,0.259,-5.337
0.264,0.067,0.264,-5.337
0.365,0.066,0.266,-5.337
0.393,0.063,0.268,-5.337
0.362,0.065,0.263,-5.337
0.253,0.067,0.259,-5.337
0.202,0.063,0.260,-5.337
0.243,0.061,0.261,-5.337
0.232,0.062,0.260,-5.337
0.206,0.060,0.258,-5.337
0.342,0.057,0.256,-5.337
0.376,0.058,0.258,-5.337
0.343,0.062,0.260,-5.337
0.307,0.065,0.256,-5.337
0.221,0.066,0.254,-5.337
0.224,0.065,0.260,-5.337
0.280,0.062,0.264,-5.337
0.304,0.061,0.264,-5.337
0.310,0.059,0.262,-5.337
0.352,0.061,0.261,-5.337
0.409,0.062,0.264,-5.337
0.353,0.064,0.266,-5.337
0.371,0.065,0.268,-5.337
0.352,0.067,0.264,-5.337
0.365,0.065,0.262,-5.337
0.367,0.063,0.256,-5.337
0.357,0.065,0.255,-5.337
0.388,0.061,0.255,-5.337
0.383,0.062,0.258,-5.337
0.386,0.063,0.261,-5.337
0.308,0.065,0.260,-5.337
0.319,0.065,0.261,-5.337
0.380,0.064,0.262,-5.337
0.353,0.066,0.263,-5.337
0.280,0.067,0.261,-5.337
0.322,0.064,0.261,-5.337
0.416,0.064,0.266,-5.337
0.393,0.065,0.264,-5.337
0.350,0.065,0.260,-5.337
0.391,0.062,0.259,-5.337
0.422,0.062,0.261,-5.337
0.377,0.062,0.263,-5.337
0.251,0.064,0.263,-5.337
0.202,0.066,0.263,-5.337
0.299,0.064,0.261,-5.337
0.331,0.066,0.258,-5.337
0.267,0.065,0.256,-5.337
0.337,0.063,0.256,-5.337
0.326,0.063,0.258,-5.337
0.287,0.067,0.259,-5.337
0.294,0.066,0.265,-5.337
0.387,0.060,0.265,-5.337
0.438,0.061,0.260,-5.337
0.396,0.065,0.255,-5.337
0.396,0.063,0.255,-5.337
0.369,0.062,0.258,-5.337
0.378,0.059,0.258,-5.337
0.425,0.061,0.259,-5.337
0.413,0.064,0.263,-5.337
0.356,0.065,0.265,-5.337
0.317,0.065,0.266,-5.337
0.387,0.062,0.265,-5.337
0.481,0.060,0.263,-5.337
0.446,0.062,0.259,-5.337
0.404,0.063,0.262,-5.337
0.398,0.060,0.261,-5.337
0.402,0.065,0.262,-5.337
0.326,0.069,0.264,-5.337
0.228,0.067,0.261,-5.337
0.190,0.066,0.257,-5.337
0.259,0.065,0.253,-5.337
0.335,0.068,0.257,-5.337
0.297,0.066,0.260,-5.337
0.350,0.062,0.257,-5.337
0.438,0.062,0.258,-5.337
0.446,0.066,0.260,-5.337
0.431,0.066,0.260,-5.337
0.368,0.062,0.260,-5.337
0.397,0.060,0.264,-5.337
0.401,0.062,0.267,-5.337
0.315,0.064,0.267,-5.337
0.348,0.060,0.267,-5.337
0.361,0.060,0.264,-5.337
0.346,0.064,0.261,-5.337
0.319,0.064,0.259,-5.337
0.292,0.060,0.261,-5.337
0.334,0.055,0.259,-5.337
0.383,0.053,0.258,-5.337
0.364,0.058,0.259,-5.337
0.261,0.059,0.255,-5.337
0.310,0.054,0.255,-5.337
0.357,0.054,0.256,-5.337
0.314,0.059,0.259,-5.337
0.312,0.060,0.263,-5.337
0.382,0.059,0.263,-5.337
0.387,0.058,0.263,-5.337
0.336,0.059,0.262,-5.337
0.367,0.060,0.263,-5.337
0.418,0.054,0.265,-5.337
0.407,0.056,0.264,-5.337
0.291,0.061,0.264,-5.337
0.233,0.060,0.260,-5.337
0.255,0.062,0.262,-5.337
0.242,0.063,0.264,-5.337
0.280,0.056,0.261,-5.337
0.313,0.053,0.261,-5.337
0.277,0.056,0.264,-5.337
0.221,0.054,0.265,-5.337
0.254,0.052,0.264,-5.337
0.287,0.054,0.261,-5.337
0.342,0.055,0.259,-5.337
0.439,0.051,0.262,-5.337
0.411,0.051,0.263,-5.337
0.283,0.052,0.263,-5.337
0.292,0.053,0.264,-5.337
0.242,0.051,0.265,-5.337
0.270,0.045,0.264,-5.337
0.344,0.043,0.263,-5.337
0.416,0.042,0.259,-5.337
0.385,0.043,0.264,-5.337
0.327,0.043,0.265,-5.337
0.228,0.046,0.265,-5.337
0.145,0.042,0.262,-5.337
0.153,0.042,0.264,-5.337
0.226,0.043,0.261,-5.337
0.266,0.042,0.262,-5.337
0.302,0.040,0.263,-5.337
0.308,0.038,0.260,-5.337
0.319,0.041,0.260,-5.337
0.275,0.043,0.262,-5.337
0.254,0.042,0.267,-5.337
0.251,0.044,0.268,-5.337
0.264,0.044,0.264,-5.337
0.313,0.043,0.266,-5.337
0.293,0.046,0.265,-5.337
0.267,0.050,0.260,-5.337
0.186,0.055,0.258,-5.337
0.184,0.052,0.260,-5.337
0.269,0.050,0.264,-5.337
0.392,0.047,0.262,-5.337
0.367,0.045,0.262,-5.337
0.354,0.046,0.264,-5.337
0.343,0.046,0.266,-5.337
0.279,0.046,0.263,-5.337
0.114,0.049,0.260,-5.337
0.042,0.048,0.262,-5.337
0.124,0.045,0.266,-5.337
0.278,0.042,0.267,-5.337
0.346,0.043,0.267,-5.337
0.369,0.041,0.267,-5.337
0.362,0.041,0.264,-5.337
0.298,0.044,0.260,-5.337
0.205,0.045,0.258,-5.337
0.241,0.048,0.259,-5.337
0.315,0.045,0.264,-5.337
0.220,0.048,0.266,-5.337
0.173,0.044,0.264,-5.337
0.250,0.040,0.265,-5.337
0.268,0.043,0.257,-5.337
0.251,0.045,0.255,-5.337
0.216,0.047,0.259,-5.337
0.157,0.046,0.263,-5.337
0.230,0.048,0.262,-5.337
0.186,0.051,0.264,-5.337
0.104,0.050,0.269,-5.337
0.130,0.050,0.270,-5.337
0.150,0.045,0.265,-5.337
0.158,0.042,0.262,-5.337
0.231,0.041,0.261,-5.337
0.236,0.041,0.261,-5.337
0.171,0.041,0.264,-5.337
0.197,0.041,0.268,-5.337
0.292,0.037,0.269,-5.337
0.290,0.039,0.263,-5.337
0.140,0.042,0.255,-5.337
0.087,0.043,0.253,-5.337
0.223,0.039,0.257,-5.337
0.367,0.034,0.261,-5.337
0.330,0.035,0.265,-5.337
0.265,0.035,0.263,-5.337
0.215,0.035,0.259,-5.337
0.173,0.035,0.258,-5.337
0.179,0.035,0.262,-5.337
0.204,0.035,0.261,-5.337
0.181,0.039,0.259,-5.337
0.179,0.039,0.258,-5.337
0.162,0.041,0.260,-5.337
0.106,0.042,0.264,-5.337
0.124,0.042,0.267,-5.337
0.164,0.036,0.264,-5.337
0.191,0.034,0.260,-5.337
0.216,0.035,0.261,-5.337
0.190,0.035,0.262,-5.337
0.188,0.034,0.264,-5.337
0.220,0.033,0.263,-5.337
0.258,0.033,0.258,-5.337
0.271,0.034,0.259,-5.337
0.232,0.037,0.263,-5.337
0.141,0.035,0.264,-5.337
0.095,0.036,0.262,-5.337
0.149,0.033,0.260,-5.337
0.175,0.031,0.259,-5.337
0.122,0.036,0.259,-5.337
0.139,0.037,0.261,-5.337
0.199,0.037,0.261,-5.337
0.186,0.041,0.261,-5.337
0.149,0.040,0.258,-5.337
0.180,0.038,0.256,-5.337
0.180,0.034,0.260,-5.337
0.147,0.037,0.263,-5.337
0.181,0.039,0.260,-5.337
0.179,0.037,0.258,-5.337
0.110,0.040,0.258,-5.337
-0.013,0.042,0.257,-5.337
0.006,0.042,0.256,-5.337
0.113,0.039,0.259,-5.337
0.230,0.035,0.265,-5.337
0.274,0.033,0.267,-5.337
0.196,0.031,0.265,-5.337
0.134,0.031,0.262,-5.337
0.115,0.033,0.264,-5.337
0.117,0.033,0.264,-5.337
0.088,0.031,0.265,-5.337
0.138,0.027,0.260,-5.337
0.178,0.032,0.253,-5.337
0.119,0.037,0.254,-5.337
0.083,0.039,0.259,-5.337
0.197,0.039,0.264,-5.337
0.189,0.038,0.265,-5.337
0.120,0.039,0.266,-5.337
0.128,0.037,0.265,-5.337
0.117,0.040,0.262,-5.337
0.088,0.039,0.264,-5.337
0.066,0.040,0.265,-5.337
-0.003,0.037,0.266,-5.337
0.057,0.034,0.265,-5.337
0.112,0.034,0.263,-5.337
0.041,0.039,0.267,-5.337
0.025,0.038,0.265,-5.337
0.082,0.033,0.264,-5.337
0.114,0.029,0.256,-5.337
0.045,0.033,0.255,-5.337
0.073,0.032,0.261,-5.337
0.117,0.030,0.265,-5.337
0.162,0.026,0.263,-5.337
0.164,0.031,0.264,-5.337
0.174,0.026,0.263,-5.337
0.219,0.025,0.261,-5.337
0.174,0.029,0.263,-5.337
0.109,0.033,0.266,-5.337
0.066,0.030,0.266,-5.337
0.075,0.029,0.263,-5.337
0.066,0.030,0.261,-5.337
0.067,0.033,0.262,-5.337
0.129,0.037,0.263,-5.337
0.043,0.041,0.266,-5.337
0.011,0.033,0.266,-5.337
0.052,0.029,0.263,-5.337
0.050,0.031,0.263,-5.337
0.014,0.035,0.261,-5.337
0.049,0.033,0.261,-5.337
0.075,0.030,0.262,-5.337
0.043,0.034,0.264,-5.337
0.047,0.035,0.265,-5.337
0.069,0.034,0.266,-5.337
0.075,0.032,0.266,-5.337
0.081,0.032,0.264,-5.337
0.021,0.034,0.259,-5.337
0.020,0.037,0.258,-5.337
0.069,0.034,0.261,-5.337
0.138,0.032,0.264,-5.337
0.151,0.033,0.261,-5.337
0.120,0.034,0.262,-5.337
0.073,0.035,0.267,-5.337
0.117,0.033,0.268,-5.337
0.129,0.032,0.265,-5.337
0.089,0.031,0.262,-5.337
0.121,0.029,0.261,-5.337
0.139,0.032,0.257,-5.337
0.119,0.031,0.258,-5.337
0.093,0.030,0.259,-5.337
0.080,0.031,0.261,-5.337
0.055,0.032,0.261,-5.337
0.070,0.034,0.265,-5.337
0.157,0.030,0.266,-5.337
0.123,0.033,0.265,-5.337
0.052,0.037,0.263,-5.337
0.031,0.037,0.265,-5.337
0.001,0.033,0.266,-5.337
-0.027,0.030,0.266,-5.337
-0.081,0.030,0.261,-5.337
-0.007,0.033,0.259,-5.337
0.105,0.032,0.256,-5.337
0.192,0.031,0.260,-5.337
0.164,0.029,0.263,-5.337
0.095,0.033,0.264,-5.337
0.100,0.035,0.262,-5.337
0.057,0.034,0.259,-5.337
-0.006,0.036,0.258,-5.337
0.003,0.035,0.258,-5.337
0.020,0.033,0.266,-5.337
0.089,0.029,0.272,-5.337
0.146,0.030,0.272,-5.337
0.159,0.028,0.269,-5.337
0.152,0.028,0.266,-5.337
0.168,0.028,0.260,-5.337
0.162,0.029,0.258,-5.337
0.062,0.032,0.259,-5.337
0.032,0.035,0.258,-5.337
0.059,0.031,0.258,-5.337
0.079,0.029,0.259,-5.337
0.052,0.029,0.262,-5.337
0.031,0.029,0.263,-5.337
0.046,0.032,0.264,-5.337
0.020,0.029,0.264,-5.337
0.084,0.026,0.265,-5.337
0.126,0.027,0.266,-5.337
0.050,0.032,0.263,-5.337
0.034,0.033,0.258,-5.337
-0.044,0.035,0.256,-5.337
-0.083,0.033,0.257,-5.337
0.022,0.028,0.261,-5.337
0.115,0.027,0.262,-5.337
0.104,0.030,0.259,-5.337
0.086,0.033,0.259,-5.337
-0.043,0.032,0.262,-5.337
-0.025,0.030,0.263,-5.337
0.066,0.031,0.263,-5.337
0.096,0.030,0.263,-5.337
0.048,0.031,0.263,-5.337
0.047,0.030,0.264,-5.337
0.170,0.030,0.262,-5.337
0.209,0.033,0.257,-5.337
0.156,0.032,0.256,-5.337
0.145,0.032,0.260,-5.337
0.116,0.033,0.263,-5.337
0.123,0.033,0.264,-5.337
0.088,0.034,0.262,-5.337
0.023,0.033,0.264,-5.337
-0.005,0.030,0.267,-5.337
0.030,0.032,0.265,-5.337
0.110,0.031,0.258,-5.337
0.168,0.031,0.260,-5.337
0.087,0.030,0.260,-5.337
0.048,0.035,0.264,-5.337
0.060,0.035,0.263,-5.337
0.036,0.034,0.263,-5.337
0.113,0.030,0.263,-5.337
0.112,0.036,0.267,-5.337
0.114,0.035,0.268,-5.337
0.077,0.034,0.265,-5.337
0.051,0.036,0.262,-5.337
0.075,0.037,0.262,-5.337
0.031,0.038,0.262,-5.337
0.074,0.036,0.262,-5.337
0.073,0.040,0.261,-5.337
0.000,0.043,0.261,-5.337
-0.029,0.038,0.264,-5.337
0.119,0.038,0.267,-5.337
0.161,0.039,0.267,-5.337
0.088,0.039,0.264,-5.337
0.070,0.038,0.262,-5.337
0.157,0.036,0.259,-5.337
0.203,0.038,0.261,-5.337
0.152,0.036,0.261,-5.337
0.117,0.038,0.261,-5.337
0.148,0.036,0.260,-5.337
0.221,0.037,0.262,-5.337
0.153,0.037,0.265,-5.337
0.099,0.039,0.267,-5.337
0.075,0.038,0.267,-5.337
0.088,0.036,0.267,-5.337
0.077,0.036,0.263,-5.337
0.035,0.041,0.258,-5.337
0.086,0.038,0.256,-5.337
0.127,0.040,0.263,-5.337
0.130,0.041,0.265,-5.337
0.168,0.042,0.262,-5.337
0.107,0.041,0.261,-5.337
0.108,0.041,0.264,-5.337
0.237,0.038,0.271,-5.337
0.321,0.037,0.267,-5.337
0.276,0.040,0.260,-5.337
0.224,0.040,0.260,-5.337
0.221,0.043,0.266,-5.337
0.261,0.042,0.272,-5.337
0.304,0.040,0.270,-5.337
0.272,0.040,0.264,-5.337
0.204,0.044,0.258,-5.337
0.156,0.044,0.258,-5.337
0.172,0.043,0.265,-5.337
0.213,0.038,0.268,-5.337
0.199,0.042,0.266,-5.337
0.133,0.044,0.263,-5.337
0.134,0.042,0.261,-5.337
0.122,0.042,0.262,-5.337
0.170,0.042,0.260,-5.337
0.216,0.044,0.262,-5.337
0.250,0.042,0.265,-5.337
0.200,0.040,0.267,-5.337
0.160,0.042,0.267,-5.337
0.095,0.044,0.266,-5.337
0.055,0.043,0.264,-5.337
0.087,0.042,0.263,-5.337
0.168,0.044,0.261,-5.337
0.163,0.043,0.261,-5.337
0.182,0.041,0.264,-5.337
0.217,0.041,0.266,-5.337
0.180,0.044,0.267,-5.337
0.127,0.047,0.269,-5.337
0.161,0.046,0.268,-5.337
0.227,0.046,0.269,-5.337
0.281,0.042,0.266,-5.337
0.285,0.044,0.265,-5.337
0.190,0.047,0.263,-5.337
0.113,0.046,0.260,-5.337
0.170,0.043,0.261,-5.337
0.244,0.041,0.266,-5.337
0.304,0.043,0.269,-5.337
0.264,0.045,0.266,-5.337
0.209,0.045,0.263,-5.337
0.236,0.045,0.263,-5.337
0.207,0.046,0.264,-5.337
0.124,0.048,0.265,-5.337
0.086,0.049,0.267,-5.337
0.090,0.047,0.265,-5.337
0.166,0.048,0.264,-5.337
0.160,0.051,0.265,-5.337
0.151,0.050,0.265,-5.337
0.172,0.046,0.265,-5.337
0.265,0.042,0.264,-5.337
0.325,0.043,0.261,-5.337
0.301,0.048,0.262,-5.337
0.333,0.044,0.262,-5.337
0.342,0.045,0.263,-5.337
0.309,0.046,0.267,-5.337
0.195,0.049,0.268,-5.337
0.075,0.051,0.265,-5.337
0.123,0.050,0.263,-5.337
0.251,0.047,0.263,-5.337
0.289,0.047,0.263,-5.337
0.330,0.049,0.264,-5.337
0.350,0.049,0.263,-5.337
0.339,0.047,0.263,-5.337
0.322,0.047,0.260,-5.337
0.276,0.048,0.261,-5.337
0.356,0.046,0.261,-5.337
0.326,0.049,0.258,-5.337
0.273,0.046,0.259,-5.337
0.253,0.045,0.262,-5.337
0.216,0.047,0.261,-5.337
0.254,0.052,0.263,-5.337
0.340,0.049,0.265,-5.337
0.280,0.050,0.268,-5.337
0.165,0.052,0.265,-5.337
0.173,0.051,0.264,-5.337
0.249,0.046,0.263,-5.337
0.233,0.046,0.265,-5.337
0.286,0.043,0.264,-5.337
0.281,0.045,0.264,-5.337
0.280,0.044,0.263,-5.337
0.330,0.045,0.262,-5.337
0.370,0.045,0.264,-5.337
0.364,0.046,0.263,-5.337
0.335,0.048,0.260,-5.337
0.224,0.044,0.255,-5.337
0.217,0.047,0.257,-5.337
0.257,0.047,0.259,-5.337
0.281,0.044,0.260,-5.337
0.253,0.045,0.263,-5.337
0.248,0.045,0.265,-5.337
0.332,0.047,0.262,-5.337
0.385,0.049,0.259,-5.337
0.359,0.046,0.262,-5.337
0.280,0.048,0.267,-5.337
0.244,0.048,0.267,-5.337
0.267,0.049,0.266,-5.337
0.261,0.049,0.264,-5.337
0.264,0.049,0.258,-5.337
0.280,0.054,0.258,-5.337
0.206,0.057,0.259,-5.337
0.263,0.054,0.263,-5.337
0.367,0.049,0.266,-5.337
0.297,0.048,0.267,-5.337
0.283,0.048,0.263,-5.337
0.358,0.048,0.262,-5.337
0.364,0.048,0.260,-5.337
0.323,0.049,0.260,-5.337
0.305,0.044,0.264,-5.337
0.334,0.049,0.267,-5.337
0.290,0.054,0.263,-5.337
0.220,0.058,0.263,-5.337
0.273,0.055,0.265,-5.337
0.271,0.054,0.267,-5.337
0.282,0.055,0.263,-5.337
0.321,0.055,0.262,-5.337
0.348,0.055,0.264,-5.337
0.416,0.049,0.265,-5.337
0.416,0.048,0.265,-5.337
0.403,0.051,0.260,-5.337
0.403,0.053,0.262,-5.337
0.412,0.052,0.262,-5.337
0.394,0.053,0.264,-5.337
0.329,0.052,0.266,-5.337
0.323,0.052,0.265,-5.337
0.328,0.052,0.260,-5.337
0.344,0.050,0.261,-5.337
0.311,0.049,0.263,-5.337
0.316,0.051,0.264,-5.337
0.360,0.049,0.265,-5.337
0.380,0.049,0.265,-5.337
0.401,0.052,0.262,-5.337
0.369,0.053,0.260,-5.337
0.304,0.058,0.257,-5.337
0.287,0.058,0.259,-5.337
0.311,0.057,0.267,-5.337
0.264,0.061,0.273,-5.337
0.260,0.062,0.275,-5.337
0.321,0.057,0.269,-5.337
0.321,0.056,0.265,-5.337
0.260,0.055,0.263,-5.337
0.302,0.054,0.265,-5.337
0.366,0.056,0.263,-5.337
0.379,0.057,0.263,-5.337
0.364,0.058,0.263,-5.337
0.343,0.055,0.264,-5.337
0.411,0.052,0.264,-5.337
0.452,0.050,0.262,-5.337
0.530,0.047,0.261,-5.337
0.603,0.049,0.266,-5.337
0.512,0.053,0.266,-5.337
0.386,0.053,0.264,-5.337
0.316,0.054,0.264,-5.337
0.375,0.052,0.266,-5.337
0.375,0.054,0.268,-5.337
0.402,0.053,0.265,-5.337
0.383,0.054,0.263,-5.337
0.300,0.055,0.262,-5.337
0.202,0.055,0.263,-5.337
0.258,0.053,0.263,-5.337
0.354,0.054,0.264,-5.337
0.404,0.055,0.266,-5.337
0.320,0.057,0.267,-5.337
0.275,0.055,0.265,-5.337
0.380,0.055,0.267,-5.337
0.479,0.054,0.270,-5.337
0.492,0.051,0.268,-5.337
0.519,0.049,0.263,-5.337
0.482,0.055,0.261,-5.337
0.454,0.052,0.262,-5.337
0.384,0.054,0.263,-5.337
0.311,0.059,0.263,-5.337
0.289,0.058,0.265,-5.337
0.390,0.055,0.263,-5.337
0.362,0.060,0.262,-5.337
0.260,0.060,0.262,-5.337
0.274,0.056,0.260,-5.337
0.335,0.053,0.261,-5.337
0.382,0.053,0.263,-5.337
0.388,0.053,0.266,-5.337
0.416,0.052,0.265,-5.337
0.438,0.053,0.262,-5.337
0.466,0.051,0.261,-5.337
0.458,0.052,0.265,-5.337
0.513,0.050,0.265,-5.337
0.530,0.052,0.262,-5.337
0.480,0.052,0.261,-5.337
0.450,0.055,0.263,-5.337
0.412,0.055,0.265,-5.337
0.397,0.059,0.267,-5.337
0.445,0.056,0.267,-5.337
0.454,0.055,0.267,-5.337
0.365,0.058,0.265,-5.337
0.375,0.055,0.267,-5.337
0.405,0.054,0.267,-5.337
0.338,0.056,0.265,-5.337
0.329,0.056,0.261,-5.337
0.398,0.058,0.260,-5.337
0.364,0.063,0.262,-5.337
0.286,0.061,0.263,-5.337
0.217,0.059,0.266,-5.337
0.254,0.060,0.266,-5.337
0.258,0.062,0.265,-5.337
0.269,0.061,0.265,-5.337
0.389,0.056,0.265,-5.337
0.434,0.059,0.263,-5.337
0.315,0.062,0.263,-5.337
0.206,0.058,0.263,-5.337
0.190,0.056,0.260,-5.337
0.260,0.050,0.258,-5.337
0.417,0.051,0.261,-5.337
0.486,0.049,0.266,-5.337
0.505,0.045,0.267,-5.337
0.473,0.046,0.264,-5.337
0.432,0.050,0.262,-5.337
0.380,0.055,0.259,-5.337
0.382,0.054,0.259,-5.337
0.389,0.054,0.261,-5.337
0.300,0.052,0.259,-5.337
0.261,0.053,0.264,-5.337
0.243,0.052,0.269,-5.337
0.274,0.049,0.270,-5.337
0.331,0.050,0.264,-5.337
0.350,0.052,0.258,-5.337
0.258,0.055,0.258,-5.337
0.208,0.059,0.263,-5.337
0.244,0.056,0.265,-5.337
0.308,0.054,0.266,-5.337
0.362,0.053,0.268,-5.337
0.352,0.054,0.267,-5.337
0.278,0.053,0.265,-5.337
0.255,0.052,0.265,-5.337
0.262,0.049,0.266,-5.337
0.340,0.047,0.266,-5.337
0.416,0.047,0.265,-5.337
0.341,0.049,0.262,-5.337
0.257,0.051,0.263,-5.337
0.224,0.048,0.261,-5.337
0.287,0.045,0.261,-5.337
0.346,0.042,0.265,-5.337
0.320,0.047,0.268,-5.337
0.253,0.049,0.267,-5.337
0.316,0.046,0.265,-5.337
0.417,0.042,0.262,-5.337
0.393,0.049,0.261,-5.337
0.294,0.052,0.263,-5.337
0.213,0.048,0.263,-5.337
0.186,0.046,0.265,-5.337
0.311,0.046,0.267,-5.337
0.358,0.046,0.267,-5.337
0.327,0.047,0.267,-5.337
0.284,0.044,0.265,-5.337
0.235,0.042,0.264,-5.337
0.278,0.043,0.264,-5.337
0.299,0.045,0.263,-5.337
0.308,0.045,0.265,-5.337
0.322,0.043,0.268,-5.337
0.401,0.042,0.267,-5.337
0.475,0.041,0.262,-5.337
0.399,0.042,0.262,-5.337
0.240,0.047,0.264,-5.337
0.109,0.048,0.264,-5.337
0.102,0.046,0.268,-5.337
0.272,0.043,0.270,-5.337
0.312,0.040,0.266,-5.337
0.194,0.044,0.261,-5.337
0.166,0.045,0.260,-5.337
0.254,0.045,0.264,-5.337
0.259,0.044,0.268,-5.337
0.335,0.039,0.269,-5.337
0.485,0.040,0.265,-5.337
0.424,0.041,0.265,-5.337
0.320,0.042,0.266,-5.337
0.273,0.038,0.262,-5.337
0.259,0.038,0.258,-5.337
0.256,0.038,0.259,-5.337
0.303,0.036,0.265,-5.337
0.275,0.040,0.270,-5.337
0.156,0.040,0.271,-5.337
0.148,0.040,0.268,-5.337
0.229,0.042,0.269,-5.337
0.261,0.041,0.268,-5.337
0.230,0.038,0.269,-5.337
0.236,0.038,0.268,-5.337
0.216,0.043,0.270,-5.337
0.229,0.044,0.273,-5.337
0.209,0.045,0.273,-5.337
0.209,0.042,0.267,-5.337
0.252,0.037,0.264,-5.337
0.323,0.036,0.262,-5.337
0.334,0.041,0.263,-5.337
0.336,0.042,0.266,-5.337
0.350,0.041,0.267,-5.337
0.306,0.041,0.268,-5.337
0.237,0.042,0.269,-5.337
0.233,0.039,0.270,-5.337
0.254,0.037,0.267,-5.337
0.301,0.035,0.265,-5.337
0.281,0.039,0.264,-5.337
0.206,0.040,0.262,-5.337
0.155,0.040,0.261,-5.337
0.182,0.041,0.261,-5.337
0.198,0.044,0.261,-5.337
0.196,0.043,0.265,-5.337
0.169,0.037,0.267,-5.337
0.210,0.036,0.268,-5.337
0.214,0.037,0.268,-5.337
0.118,0.041,0.275,-5.337
0.102,0.037,0.276,-5.337
0.143,0.037,0.270,-5.337
0.159,0.036,0.263,-5.337
0.142,0.037,0.264,-5.337
0.139,0.037,0.265,-5.337
0.130,0.038,0.265,-5.337
0.069,0.039,0.263,-5.337
0.117,0.038,0.263,-5.337
0.162,0.038,0.266,-5.337
0.114,0.036,0.268,-5.337
0.159,0.032,0.269,-5.337
0.214,0.033,0.263,-5.337
0.199,0.037,0.264,-5.337
0.180,0.039,0.264,-5.337
0.098,0.038,0.266,-5.337
0.087,0.034,0.267,-5.337
0.107,0.037,0.269,-5.337
0.124,0.036,0.266,-5.337
0.147,0.040,0.264,-5.337
0.167,0.037,0.261,-5.337
0.183,0.035,0.259,-5.337
0.134,0.033,0.263,-5.337
0.161,0.029,0.267,-5.337
0.199,0.030,0.268,-5.337
0.171,0.033,0.266,-5.337
0.197,0.034,0.264,-5.337
0.191,0.035,0.264,-5.337
0.185,0.034,0.264,-5.337
0.215,0.035,0.259,-5.337
0.189,0.038,0.256,-5.337
0.079,0.037,0.260,-5.337
0.143,0.037,0.269,-5.337
0.193,0.038,0.269,-5.337
0.183,0.040,0.266,-5.337
0.227,0.039,0.264,-5.337
0.245,0.038,0.267,-5.337
0.183,0.039,0.268,-5.337
0.138,0.040,0.263,-5.337
0.102,0.042,0.259,-5.337
0.127,0.040,0.258,-5.337
0.131,0.036,0.261,-5.337
0.097,0.036,0.265,-5.337
0.012,0.036,0.266,-5.337
-0.023,0.038,0.265,-5.337
-0.081,0.040,0.266,-5.337
-0.047,0.037,0.266,-5.337
-0.018,0.037,0.264,-5.337
-0.040,0.039,0.260,-5.337
-0.036,0.039,0.262,-5.337
0.096,0.036,0.265,-5.337
0.159,0.035,0.266,-5.337
0.139,0.036,0.263,-5.337
0.105,0.036,0.262,-5.337
0.116,0.037,0.260,-5.337
0.091,0.039,0.261,-5.337
0.134,0.037,0.262,-5.337
0.123,0.035,0.264,-5.337
0.089,0.034,0.266,-5.337
0.162,0.038,0.268,-5.337
0.167,0.040,0.267,-5.337
0.122,0.035,0.264,-5.337
0.109,0.034,0.264,-5.337
0.116,0.035,0.263,-5.337
0.096,0.038,0.262,-5.337
0.079,0.037,0.262,-5.337
0.071,0.034,0.267,-5.337
0.074,0.034,0.270,-5.337
0.178,0.032,0.269,-5.337
0.221,0.033,0.265,-5.337
0.176,0.032,0.262,-5.337
0.089,0.033,0.258,-5.337
0.092,0.031,0.258,-5.337
0.173,0.033,0.259,-5.337
0.154,0.034,0.262,-5.337
0.169,0.034,0.267,-5.337
0.074,0.040,0.269,-5.337
-0.008,0.041,0.268,-5.337
0.037,0.040,0.268,-5.337
0.080,0.033,0.267,-5.337
0.064,0.036,0.266,-5.337
0.036,0.036,0.264,-5.337
0.056,0.036,0.266,-5.337
0.034,0.038,0.269,-5.337
0.045,0.038,0.273,-5.337
0.076,0.036,0.271,-5.337
0.105,0.038,0.265,-5.337
0.075,0.039,0.262,-5.337
-0.000,0.043,0.265,-5.337
-0.035,0.037,0.269,-5.337
0.022,0.034,0.270,-5.337
0.063,0.033,0.267,-5.337
0.035,0.034,0.263,-5.337
0.029,0.036,0.260,-5.337
0.098,0.038,0.263,-5.337
0.134,0.039,0.265,-5.337
0.075,0.038,0.267,-5.337
0.014,0.038,0.270,-5.337
0.075,0.036,0.268,-5.337
0.099,0.037,0.270,-5.337
0.102,0.035,0.268,-5.337
0.089,0.032,0.267,-5.337
0.128,0.030,0.268,-5.337
0.173,0.031,0.269,-5.337
0.203,0.031,0.269,-5.337
0.164,0.034,0.270,-5.337
0.034,0.040,0.270,-5.337
-0.002,0.041,0.266,-5.337
0.006,0.041,0.260,-5.337
-0.021,0.041,0.256,-5.337
-0.043,0.041,0.261,-5.337
0.022,0.040,0.266,-5.337
0.072,0.039,0.267,-5.337
0.085,0.040,0.263,-5.337
0.070,0.044,0.262,-5.337
0.090,0.041,0.264,-5.337
0.129,0.039,0.267,-5.337
0.092,0.037,0.268,-5.337
0.031,0.036,0.265,-5.337
0.061,0.035,0.263,-5.337
0.068,0.035,0.261,-5.337
0.111,0.037,0.260,-5.337
0.160,0.036,0.264,-5.337
0.109,0.035,0.267,-5.337
0.005,0.038,0.271,-5.337
0.020,0.036,0.267,-5.337
0.048,0.035,0.263,-5.337
0.068,0.038,0.262,-5.337
-0.029,0.043,0.264,-5.337
-0.029,0.044,0.266,-5.337
0.055,0.042,0.264,-5.337
0.082,0.041,0.264,-5.337
0.030,0.041,0.263,-5.337
-0.019,0.042,0.263,-5.337
0.034,0.041,0.264,-5.337
-0.013,0.040,0.267,-5.337
-0.088,0.045,0.266,-5.337
-0.108,0.047,0.265,-5.337
-0.012,0.041,0.263,-5.337
0.039,0.042,0.263,-5.337
0.016,0.038,0.262,-5.337
-0.048,0.040,0.261,-5.337
-0.043,0.041,0.263,-5.337
-0.022,0.041,0.265,-5.337
0.028,0.042,0.265,-5.337
0.142,0.041,0.268,-5.337
0.153,0.041,0.269,-5.337
0.086,0.039,0.266,-5.337
0.021,0.038,0.266,-5.337
0.138,0.035,0.266,-5.337
0.119,0.035,0.264,-5.337
0.077,0.038,0.263,-5.337
0.049,0.038,0.264,-5.337
0.052,0.038,0.263,-5.337
0.052,0.041,0.267,-5.337
0.074,0.041,0.268,-5.337
0.077,0.045,0.267,-5.337
0.078,0.043,0.262,-5.337
0.100,0.039,0.261,-5.337
0.027,0.037,0.262,-5.337
0.071,0.037,0.267,-5.337
0.141,0.040,0.266,-5.337
0.102,0.037,0.266,-5.337
0.088,0.034,0.265,-5.337
0.064,0.041,0.262,-5.337
0.092,0.043,0.260,-5.337
0.151,0.041,0.264,-5.337
0.107,0.039,0.268,-5.337
0.137,0.038,0.266,-5.337
0.072,0.042,0.263,-5.337
0.062,0.044,0.262,-5.337
0.043,0.048,0.267,-5.337
0.030,0.048,0.268,-5.337
0.119,0.047,0.265,-5.337
0.123,0.046,0.263,-5.337
0.135,0.047,0.263,-5.337
0.089,0.050,0.263,-5.337
0.067,0.050,0.262,-5.337
0.128,0.048,0.256,-5.337
0.102,0.053,0.258,-5.337
0.047,0.051,0.267,-5.337
0.028,0.046,0.270,-5.337
0.092,0.044,0.267,-5.337
0.098,0.045,0.269,-5.337
0.101,0.044,0.268,-5.337
0.107,0.046,0.268,-5.337
0.161,0.045,0.268,-5.337
0.240,0.043,0.271,-5.337
0.204,0.043,0.268,-5.337
0.209,0.040,0.264,-5.337
0.179,0.042,0.262,-5.337
0.102,0.040,0.264,-5.337
0.107,0.040,0.266,-5.337
0.170,0.039,0.265,-5.337
0.189,0.037,0.266,-5.337
0.131,0.040,0.266,-5.337
0.082,0.043,0.264,-5.337
0.046,0.050,0.260,-5.337
0.075,0.053,0.263,-5.337
0.085,0.050,0.268,-5.337
0.029,0.048,0.272,-5.337
-0.023,0.046,0.268,-5.337
-0.007,0.053,0.264,-5.337
0.041,0.051,0.266,-5.337
0.039,0.050,0.266,-5.337
0.053,0.049,0.264,-5.337
0.095,0.051,0.262,-5.337
0.088,0.056,0.261,-5.337
0.051,0.059,0.265,-5.337
0.044,0.056,0.269,-5.337
0.072,0.056,0.268,-5.337
0.158,0.051,0.269,-5.337
0.167,0.052,0.267,-5.337
0.142,0.050,0.266,-5.337
0.176,0.053,0.265,-5.337
0.111,0.056,0.267,-5.337
0.103,0.054,0.267,-5.337
0.138,0.051,0.267,-5.337
0.180,0.050,0.264,-5.337
0.180,0.050,0.261,-5.337
0.223,0.050,0.261,-5.337
0.251,0.045,0.267,-5.337
0.279,0.048,0.271,-5.337
0.261,0.050,0.270,-5.337
0.242,0.052,0.266,-5.337
0.224,0.047,0.263,-5.337
0.255,0.045,0.263,-5.337
0.282,0.046,0.261,-5.337
0.275,0.049,0.260,-5.337
0.281,0.049,0.260,-5.337
0.253,0.049,0.262,-5.337
0.215,0.053,0.266,-5.337
0.184,0.057,0.272,-5.337
0.150,0.055,0.274,-5.337
0.221,0.054,0.276,-5.337
0.260,0.052,0.273,-5.337
0.208,0.051,0.270,-5.337
0.202,0.051,0.266,-5.337
0.260,0.054,0.262,-5.337
0.160,0.054,0.261,-5.337
0.099,0.053,0.263,-5.337
0.153,0.054,0.264,-5.337
0.192,0.054,0.265,-5.337
0.247,0.055,0.266,-5.337
0.226,0.055,0.268,-5.337
0.207,0.054,0.268,-5.337
0.219,0.053,0.268,-5.337
0.204,0.054,0.265,-5.337
0.221,0.057,0.263,-5.337
0.200,0.059,0.266,-5.337
0.080,0.063,0.271,-5.337
0.018,0.060,0.271,-5.337
0.153,0.055,0.267,-5.337
0.323,0.054,0.267,-5.337
0.364,0.055,0.265,-5.337
0.293,0.060,0.267,-5.337
0.156,0.060,0.267,-5.337
0.201,0.059,0.266,-5.337
0.325,0.061,0.264,-5.337
0.321,0.063,0.267,-5.337
0.262,0.063,0.270,-5.337
0.161,0.063,0.267,-5.337
0.251,0.057,0.262,-5.337
0.359,0.058,0.263,-5.337
0.274,0.059,0.262,-5.337
0.192,0.061,0.266,-5.337
0.184,0.059,0.269,-5.337
0.187,0.056,0.270,-5.337
0.154,0.056,0.270,-5.337
0.149,0.055,0.267,-5.337
0.253,0.052,0.268,-5.337
0.269,0.059,0.271,-5.337
0.172,0.061,0.269,-5.337
0.201,0.056,0.265,-5.337
0.265,0.053,0.263,-5.337
0.343,0.051,0.262,-5.337
0.411,0.050,0.268,-5.337
0.412,0.052,0.269,-5.337
0.391,0.055,0.267,-5.337
0.285,0.056,0.265,-5.337
0.258,0.055,0.269,-5.337
0.268,0.056,0.269,-5.337
0.335,0.059,0.267,-5.337
0.310,0.060,0.265,-5.337
0.232,0.057,0.266,-5.337
0.218,0.056,0.264,-5.337
0.242,0.059,0.263,-5.337
0.213,0.060,0.264,-5.337
0.157,0.058,0.267,-5.337
0.199,0.058,0.269,-5.337
0.200,0.056,0.268,-5.337
0.214,0.056,0.268,-5.337
0.234,0.056,0.267,-5.337
0.239,0.056,0.267,-5.337
0.258,0.053,0.263,-5.337
0.338,0.053,0.263,-5.337
0.323,0.054,0.264,-5.337
0.289,0.055,0.265,-5.337
0.282,0.055,0.267,-5.337
0.302,0.057,0.267,-5.337
0.323,0.053,0.264,-5.337
0.306,0.058,0.264,-5.337
0.268,0.057,0.262,-5.337
0.283,0.056,0.262,-5.337
0.388,0.056,0.265,-5.337
0.394,0.059,0.267,-5.337
0.273,0.061,0.265,-5.337
0.282,0.059,0.263,-5.337
0.306,0.065,0.265,-5.337
0.296,0.066,0.264,-5.337
0.328,0.061,0.265,-5.337
0.383,0.059,0.269,-5.337
0.351,0.063,0.272,-5.337
0.330,0.064,0.267,-5.337
0.335,0.062,0.259,-5.337
0.323,0.059,0.256,-5.337
0.259,0.063,0.259,-5.337
0.255,0.061,0.259,-5.337
0.278,0.058,0.261,-5.337
0.248,0.058,0.264,-5.337
0.222,0.063,0.268,-5.337
0.217,0.056,0.270,-5.337
0.263,0.052,0.268,-5.337
0.269,0.051,0.267,-5.337
0.318,0.050,0.270,-5.337
0.364,0.052,0.270,-5.337
0.438,0.052,0.266,-5.337
0.474,0.056,0.262,-5.337
0.406,0.054,0.264,-5.337
0.422,0.052,0.268,-5.337
0.464,0.055,0.268,-5.337
0.443,0.055,0.265,-5.337
0.442,0.056,0.261,-5.337
0.472,0.057,0.263,-5.337
0.444,0.055,0.262,-5.337
0.420,0.055,0.263,-5.337
0.405,0.057,0.266,-5.337
0.374,0.057,0.269,-5.337
0.369,0.055,0.267,-5.337
0.350,0.058,0.267,-5.337
0.317,0.060,0.268,-5.337
0.298,0.059,0.268,-5.337
0.278,0.057,0.265,-5.337
0.334,0.059,0.262,-5.337
0.358,0.057,0.259,-5.337
0.367,0.055,0.262,-5.337
0.412,0.057,0.264,-5.337
0.340,0.062,0.264,-5.337
0.281,0.064,0.263,-5.337
0.269,0.064,0.260,-5.337
0.250,0.064,0.262,-5.337
0.294,0.064,0.267,-5.337
0.345,0.061,0.267,-5.337
0.408,0.060,0.264,-5.337
0.431,0.060,0.266,-5.337
0.396,0.065,0.268,-5.337
0.226,0.071,0.268,-5.337
0.184,0.070,0.267,-5.337
0.232,0.070,0.268,-5.337
0.337,0.064,0.268,-5.337
0.418,0.061,0.269,-5.337
0.448,0.058,0.265,-5.337
0.402,0.059,0.259,-5.337
0.359,0.062,0.262,-5.337
0.393,0.063,0.267,-5.337
0.346,0.065,0.270,-5.337
0.276,0.065,0.271,-5.337
0.308,0.065,0.270,-5.337
0.321,0.066,0.264,-5.337
0.399,0.064,0.262,-5.337
0.374,0.063,0.265,-5.337
0.363,0.061,0.266,-5.337
0.397,0.060,0.265,-5.337
0.377,0.060,0.262,-5.337
0.323,0.060,0.261,-5.337
0.224,0.062,0.264,-5.337
0.232,0.062,0.267,-5.337
0.344,0.063,0.270,-5.337
0.405,0.062,0.270,-5.337
0.347,0.063,0.269,-5.337
0.352,0.061,0.267,-5.337
0.474,0.060,0.267,-5.337
0.470,0.060,0.264,-5.337
0.392,0.059,0.264,-5.337
0.390,0.060,0.268,-5.337
0.405,0.061,0.271,-5.337
0.391,0.059,0.269,-5.337
0.468,0.061,0.265,-5.337
