[Parameters]
Operating Mode, Non-Feedback
Subject  AA..ZZ, WT
Session  0..99, 41
No. Trials (1..9999), 500
Mouse Number, 1
Pressure Probe Serial Port, \00\00\00\04COM4
Save additional csv file, TRUE
Save using mouse number, FALSE
A/D Monitor Rate (Hz), 30000.000000
A/D Stimulate Rate (Hz), 30000.000000
A/D input range (+/- V), 5
No. Channels to acquire (N), 2
Pre-Stim Acq. time (ms), 100.000000
Post-Stim Acq. time (ms), 900.000000
Analysis window parameters.M-response Start (ms), 1.100000
Analysis window parameters.M-response Duration (ms), 5.500000
Analysis window parameters.H-response Duration (ms), 6.000000
Analysis window parameters.H-response Start (ms), 6.500000
Feedback window, H response
Proportional gain, 0.100000
Target value, 6.700000
Feedback Ch., 1
Stim Channel to Control (1-4), 4
Trial, 9
Wait for EMG Conditions, FALSE
Channel to monitor (0 - N-1), 1
EMG Hi Limit, 2.000000
EMG Lo Limit, 0.001000
Inter-Stim delay (sec), 10.000000
EMG Monitor Mode, Mean
Time to run Long Stim.(sec), 30
Save Long Stim Data?, OFF
BURST Save time (ms), 1000
BURST Save Interval (x above), 10
Long-Stim. Rep. Rate (Hz), 10.000000
Stim type cluster array.<size(s)>, 4
Stim type cluster array 0.Stimulus Output, Electrical
Stim type cluster array 1.Stimulus Output, OFF
Stim type cluster array 2.Stimulus Output, OFF
Stim type cluster array 3.Stimulus Output, Motor Length
Stim specs cluster array.<size(s)>, 4
Stim specs cluster array 0.Initial Stimulus ampl., 0.300000
Stim specs cluster array 0.Maximum Stimulus, 1.120000
Stim specs cluster array 0.#Pulses in train, 3
Stim specs cluster array 0.Peak Level time (ms), 1.000000
Stim specs cluster array 0.Total pulse period (ms), 150.000000
Stim specs cluster array 0.Start Delay (ms), 0.000000
Stim specs cluster array 0.Pulse Shape, Square
Stim specs cluster array 0.Ramp/Rel. time (ms), 0.100000
Stim specs cluster array 0.Peak Amplitude (V), 0.120000
Stim specs cluster array 1.Initial Stimulus ampl., 0.000000
Stim specs cluster array 1.Maximum Stimulus, 0.000000
Stim specs cluster array 1.#Pulses in train, 3
Stim specs cluster array 1.Peak Level time (ms), 29.000000
Stim specs cluster array 1.Total pulse period (ms), 200.000000
Stim specs cluster array 1.Start Delay (ms), 0.000000
Stim specs cluster array 1.Pulse Shape, Square
Stim specs cluster array 1.Ramp/Rel. time (ms), 0.000000
Stim specs cluster array 1.Peak Amplitude (V), 2.000000
Stim specs cluster array 2.Initial Stimulus ampl., 0.000000
Stim specs cluster array 2.Maximum Stimulus, 0.000000
Stim specs cluster array 2.#Pulses in train, 1
Stim specs cluster array 2.Peak Level time (ms), 25.000000
Stim specs cluster array 2.Total pulse period (ms), 200.000000
Stim specs cluster array 2.Start Delay (ms), 0.000000
Stim specs cluster array 2.Pulse Shape, Square
Stim specs cluster array 2.Ramp/Rel. time (ms), 20.000000
Stim specs cluster array 2.Peak Amplitude (V), 10.000000
Stim specs cluster array 3.Initial Stimulus ampl., 0.000000
Stim specs cluster array 3.Maximum Stimulus, 0.000000
Stim specs cluster array 3.#Pulses in train, 25
Stim specs cluster array 3.Peak Level time (ms), 0.100000
Stim specs cluster array 3.Total pulse period (ms), 4.000000
Stim specs cluster array 3.Start Delay (ms), -5.000000
Stim specs cluster array 3.Pulse Shape, Triangle
Stim specs cluster array 3.Ramp/Rel. time (ms), 3.000000
Stim specs cluster array 3.Peak Amplitude (V), 0.500000
Force cal. (mN/Volt), 100.000000
Force Range (mN), 100.000000
Length cal. (mm/Volt), 10.000000
Length Range (mm), 10.000000
Stim. 1, 0.300000
Stim. 2, 0.000000
Stim. 3, 0.000000
Stim. 4, 0.000000
Monitor acquire time (ms), 100.000000
EMG graph Ymax, 0.100000
Travel limit (mm), 20.000000
Use Pressure Probe, FALSE
Pressure goal (g), 100
Speed (mm/sec), 5.000000
Dwell time (ms), 100.000000
Pressure limit (g), 500.000000
Channel amplitude offset, 0.000000

[DATA]

0.083,0.038,0.293,-5.337
0.221,0.032,0.292,-5.337
1.274,0.004,0.291,-5.337
2.627,-0.022,0.290,-5.337
3.189,-0.023,0.288,-5.337
3.180,-0.019,0.289,-5.337
3.158,-0.016,0.289,-5.337
3.061,-0.016,0.291,-5.337
3.068,-0.017,0.289,-5.337
3.044,-0.016,0.286,-5.337
2.928,-0.016,0.290,-5.337
2.763,-0.010,0.296,-5.337
2.645,-0.005,0.297,-5.337
2.551,-0.004,0.295,-5.337
2.420,-0.001,0.296,-5.337
2.274,-0.002,0.297,-5.337
2.161,-0.006,0.295,-5.337
2.074,-0.001,0.291,-5.337
2.020,-0.001,0.287,-5.337
2.018,-0.000,0.286,-5.337
1.896,0.001,0.285,-5.337
1.776,0.005,0.288,-5.337
1.675,0.007,0.292,-5.337
1.528,0.008,0.292,-5.337
1.426,0.008,0.291,-5.337
1.475,0.009,0.289,-5.337
1.539,0.007,0.292,-5.337
1.458,0.005,0.290,-5.337
1.361,0.007,0.292,-5.337
1.332,0.009,0.294,-5.337
1.356,0.008,0.295,-5.337
1.321,0.008,0.294,-5.337
1.228,0.015,0.294,-5.337
1.211,0.009,0.291,-5.337
1.286,0.004,0.291,-5.337
1.293,-0.005,0.288,-5.337
1.309,-0.015,0.288,-5.337
1.283,-0.027,0.288,-5.337
1.199,-0.034,0.289,-5.337
1.190,-0.042,0.291,-5.337
1.237,-0.043,0.290,-5.337
1.246,-0.042,0.291,-5.337
1.291,-0.037,0.293,-5.337
1.286,-0.034,0.292,-5.337
1.216,-0.044,0.287,-5.337
1.238,-0.079,0.285,-5.337
1.262,-0.144,0.288,-5.337
1.293,-0.230,0.292,-5.337
1.346,-0.328,0.295,-5.337
1.246,-0.429,0.295,-5.337
1.130,-0.524,0.288,-5.337
1.058,-0.597,0.287,-5.337
0.996,-0.657,0.290,-5.337
0.959,-0.703,0.295,-5.337
0.942,-0.730,0.295,-5.337
0.934,-0.732,0.292,-5.337
0.897,-0.717,0.289,-5.337
0.898,-0.694,0.289,-5.337
0.802,-0.677,0.294,-5.337
0.715,-0.668,0.295,-5.337
0.622,-0.658,0.293,-5.337
0.551,-0.630,0.293,-5.337
0.508,-0.587,0.290,-5.337
0.518,-0.521,0.289,-5.337
0.485,-0.433,0.289,-5.337
0.451,-0.333,0.289,-5.337
0.383,-0.224,0.289,-5.337
0.313,-0.112,0.287,-5.337
0.412,-0.002,0.291,-5.337
0.434,0.109,0.290,-5.337
0.469,0.212,0.289,-5.337
0.451,0.304,0.288,-5.337
0.367,0.376,0.288,-5.337
0.341,0.437,0.289,-5.337
0.316,0.487,0.291,-5.337
0.263,0.518,0.295,-5.337
0.228,0.540,0.294,-5.337
0.143,0.555,0.293,-5.337
0.117,0.550,0.290,-5.337
0.170,0.535,0.289,-5.337
0.174,0.526,0.287,-5.337
0.189,0.519,0.289,-5.337
0.163,0.516,0.294,-5.337
0.165,0.510,0.298,-5.337
0.205,0.508,0.296,-5.337
0.309,0.506,0.294,-5.337
0.338,0.499,0.290,-5.337
0.348,0.496,0.287,-5.337
0.312,0.488,0.284,-5.337
0.363,0.473,0.288,-5.337
0.371,0.458,0.292,-5.337
0.330,0.444,0.296,-5.337
0.278,0.421,0.293,-5.337
0.237,0.397,0.291,-5.337
0.237,0.372,0.289,-5.337
0.252,0.348,0.289,-5.337
0.266,0.320,0.291,-5.337
0.302,0.292,0.290,-5.337
0.338,0.267,0.292,-5.337
0.284,0.247,0.291,-5.337
0.340,0.222,0.291,-5.337
0.368,0.198,0.290,-5.337
0.306,0.183,0.290,-5.337
0.250,0.169,0.295,-5.337
0.274,0.153,0.298,-5.337
0.269,0.138,0.296,-5.337
0.337,0.125,0.292,-5.337
0.309,0.118,0.286,-5.337
0.241,0.110,0.286,-5.337
0.205,0.104,0.286,-5.337
0.178,0.097,0.292,-5.337
0.245,0.086,0.292,-5.337
0.280,0.081,0.293,-5.337
0.226,0.077,0.289,-5.337
0.197,0.075,0.286,-5.337
0.234,0.070,0.286,-5.337
0.268,0.067,0.290,-5.337
0.289,0.057,0.292,-5.337
0.314,0.052,0.290,-5.337
0.389,0.054,0.288,-5.337
0.378,0.053,0.289,-5.337
0.324,0.048,0.292,-5.337
0.341,0.045,0.293,-5.337
0.343,0.045,0.292,-5.337
0.217,0.049,0.290,-5.337
0.174,0.044,0.287,-5.337
0.260,0.042,0.290,-5.337
0.320,0.039,0.289,-5.337
0.278,0.040,0.286,-5.337
0.242,0.039,0.285,-5.337
0.258,0.035,0.284,-5.337
0.244,0.034,0.286,-5.337
0.230,0.036,0.288,-5.337
0.211,0.036,0.288,-5.337
0.176,0.037,0.291,-5.337
0.156,0.035,0.294,-5.337
0.192,0.032,0.292,-5.337
0.206,0.035,0.285,-5.337
0.176,0.033,0.283,-5.337
0.144,0.033,0.287,-5.337
0.170,0.032,0.288,-5.337
0.177,0.034,0.288,-5.337
0.102,0.037,0.286,-5.337
0.107,0.036,0.288,-5.337
0.176,0.033,0.289,-5.337
0.167,0.034,0.288,-5.337
0.132,0.035,0.288,-5.337
0.109,0.033,0.291,-5.337
0.162,0.034,0.293,-5.337
0.206,0.035,0.292,-5.337
0.219,0.035,0.291,-5.337
0.219,0.035,0.288,-5.337
0.195,0.036,0.290,-5.337
0.149,0.033,0.287,-5.337
0.103,0.038,0.284,-5.337
0.112,0.037,0.284,-5.337
0.202,0.036,0.285,-5.337
0.258,0.036,0.287,-5.337
0.234,0.040,0.288,-5.337
0.238,0.040,0.289,-5.337
0.203,0.043,0.288,-5.337
0.089,0.042,0.283,-5.337
0.129,0.042,0.286,-5.337
0.192,0.039,0.288,-5.337
0.168,0.039,0.285,-5.337
0.221,0.034,0.282,-5.337
0.231,0.037,0.281,-5.337
0.185,0.036,0.287,-5.337
0.260,0.036,0.291,-5.337
0.327,0.037,0.291,-5.337
0.261,0.039,0.289,-5.337
0.204,0.041,0.289,-5.337
0.248,0.036,0.292,-5.337
0.261,0.038,0.295,-5.337
0.238,0.039,0.291,-5.337
0.105,0.043,0.286,-5.337
0.055,0.044,0.284,-5.337
0.135,0.044,0.286,-5.337
0.168,0.044,0.289,-5.337
0.282,0.044,0.288,-5.337
0.265,0.046,0.286,-5.337
0.175,0.048,0.286,-5.337
0.156,0.044,0.288,-5.337
0.130,0.045,0.286,-5.337
0.152,0.046,0.284,-5.337
0.189,0.049,0.287,-5.337
0.089,0.052,0.290,-5.337
0.055,0.048,0.288,-5.337
0.112,0.045,0.289,-5.337
0.221,0.044,0.285,-5.337
0.246,0.042,0.284,-5.337
0.242,0.044,0.283,-5.337
0.211,0.044,0.283,-5.337
0.219,0.044,0.283,-5.337
0.239,0.045,0.285,-5.337
0.268,0.041,0.286,-5.337
0.239,0.047,0.287,-5.337
0.230,0.049,0.287,-5.337
0.192,0.051,0.286,-5.337
0.121,0.051,0.284,-5.337
0.135,0.052,0.284,-5.337
0.136,0.051,0.284,-5.337
0.139,0.054,0.284,-5.337
0.219,0.051,0.284,-5.337
0.269,0.049,0.285,-5.337
0.244,0.054,0.284,-5.337
0.226,0.052,0.281,-5.337
0.209,0.051,0.280,-5.337
0.249,0.052,0.283,-5.337
0.268,0.051,0.287,-5.337
0.198,0.053,0.287,-5.337
0.173,0.052,0.284,-5.337
0.180,0.052,0.281,-5.337
0.267,0.049,0.278,-5.337
0.339,0.049,0.277,-5.337
0.304,0.050,0.280,-5.337
0.275,0.051,0.282,-5.337
0.230,0.055,0.285,-5.337
0.256,0.053,0.283,-5.337
0.184,0.054,0.279,-5.337
0.100,0.054,0.278,-5.337
0.077,0.054,0.281,-5.337
0.119,0.052,0.285,-5.337
0.177,0.052,0.287,-5.337
0.125,0.054,0.288,-5.337
0.039,0.056,0.289,-5.337
0.102,0.053,0.287,-5.337
0.163,0.051,0.283,-5.337
0.177,0.054,0.280,-5.337
0.148,0.058,0.279,-5.337
0.124,0.054,0.278,-5.337
0.120,0.052,0.279,-5.337
0.135,0.052,0.280,-5.337
0.206,0.051,0.282,-5.337
0.294,0.051,0.283,-5.337
0.284,0.049,0.279,-5.337
0.201,0.052,0.279,-5.337
0.144,0.049,0.278,-5.337
0.194,0.051,0.280,-5.337
0.244,0.051,0.280,-5.337
0.258,0.051,0.282,-5.337
0.302,0.051,0.280,-5.337
0.266,0.054,0.276,-5.337
0.158,0.056,0.276,-5.337
0.130,0.058,0.281,-5.337
0.089,0.060,0.284,-5.337
0.077,0.058,0.280,-5.337
0.098,0.059,0.274,-5.337
0.144,0.061,0.278,-5.337
0.212,0.061,0.279,-5.337
0.234,0.059,0.277,-5.337
0.291,0.054,0.277,-5.337
0.292,0.054,0.272,-5.337
0.241,0.055,0.275,-5.337
0.216,0.057,0.279,-5.337
0.221,0.059,0.280,-5.337
0.147,0.058,0.276,-5.337
0.160,0.056,0.278,-5.337
0.266,0.055,0.280,-5.337
0.251,0.058,0.282,-5.337
0.098,0.062,0.281,-5.337
0.091,0.058,0.280,-5.337
0.120,0.059,0.279,-5.337
0.106,0.061,0.279,-5.337
0.042,0.062,0.277,-5.337
0.063,0.060,0.278,-5.337
0.129,0.058,0.280,-5.337
0.160,0.061,0.281,-5.337
0.157,0.062,0.281,-5.337
0.256,0.058,0.282,-5.337
0.294,0.056,0.278,-5.337
0.264,0.058,0.270,-5.337
0.156,0.059,0.272,-5.337
0.079,0.060,0.275,-5.337
0.204,0.057,0.277,-5.337
0.253,0.052,0.278,-5.337
0.205,0.059,0.280,-5.337
0.144,0.063,0.278,-5.337
0.162,0.061,0.277,-5.337
0.164,0.062,0.273,-5.337
0.224,0.060,0.271,-5.337
0.207,0.058,0.276,-5.337
0.155,0.060,0.279,-5.337
0.196,0.057,0.280,-5.337
0.182,0.061,0.277,-5.337
0.123,0.062,0.277,-5.337
0.181,0.055,0.280,-5.337
0.276,0.056,0.281,-5.337
0.268,0.060,0.283,-5.337
0.193,0.062,0.280,-5.337
0.224,0.060,0.279,-5.337
0.312,0.060,0.276,-5.337
0.347,0.059,0.274,-5.337
0.302,0.060,0.273,-5.337
0.215,0.061,0.273,-5.337
0.122,0.061,0.275,-5.337
0.140,0.057,0.274,-5.337
0.150,0.059,0.273,-5.337
0.127,0.063,0.271,-5.337
0.147,0.061,0.273,-5.337
0.086,0.062,0.277,-5.337
0.033,0.059,0.280,-5.337
0.067,0.059,0.278,-5.337
0.206,0.057,0.277,-5.337
0.209,0.058,0.277,-5.337
0.167,0.059,0.276,-5.337
0.185,0.057,0.275,-5.337
0.219,0.055,0.277,-5.337
0.199,0.056,0.275,-5.337
0.141,0.055,0.277,-5.337
0.162,0.055,0.277,-5.337
0.202,0.056,0.276,-5.337
0.178,0.054,0.274,-5.337
0.157,0.051,0.273,-5.337
0.171,0.052,0.275,-5.337
0.183,0.050,0.274,-5.337
0.207,0.051,0.278,-5.337
0.213,0.052,0.277,-5.337
0.193,0.052,0.276,-5.337
0.189,0.055,0.277,-5.337
0.117,0.058,0.280,-5.337
0.133,0.055,0.280,-5.337
0.128,0.054,0.276,-5.337
0.176,0.055,0.274,-5.337
0.277,0.057,0.274,-5.337
0.216,0.055,0.275,-5.337
0.135,0.055,0.278,-5.337
0.224,0.051,0.279,-5.337
0.287,0.055,0.277,-5.337
0.183,0.056,0.273,-5.337
0.101,0.051,0.277,-5.337
0.172,0.051,0.278,-5.337
0.190,0.053,0.274,-5.337
0.158,0.054,0.272,-5.337
0.119,0.051,0.271,-5.337
0.138,0.051,0.269,-5.337
0.127,0.052,0.271,-5.337
0.131,0.053,0.275,-5.337
0.094,0.055,0.274,-5.337
0.046,0.056,0.271,-5.337
0.099,0.056,0.269,-5.337
0.101,0.056,0.270,-5.337
-0.019,0.060,0.275,-5.337
-0.004,0.058,0.280,-5.337
0.134,0.053,0.276,-5.337
0.146,0.058,0.270,-5.337
0.117,0.053,0.269,-5.337
0.078,0.054,0.272,-5.337
0.073,0.056,0.274,-5.337
0.043,0.053,0.274,-5.337
0.052,0.052,0.272,-5.337
0.096,0.056,0.276,-5.337
0.130,0.055,0.276,-5.337
0.112,0.052,0.276,-5.337
0.033,0.054,0.277,-5.337
0.087,0.052,0.273,-5.337
0.113,0.049,0.269,-5.337
0.142,0.051,0.269,-5.337
0.189,0.048,0.273,-5.337
0.172,0.053,0.276,-5.337
0.180,0.053,0.272,-5.337
0.239,0.052,0.268,-5.337
0.154,0.053,0.270,-5.337
0.052,0.054,0.269,-5.337
0.024,0.055,0.268,-5.337
0.072,0.053,0.269,-5.337
0.126,0.053,0.269,-5.337
0.196,0.050,0.271,-5.337
0.198,0.050,0.277,-5.337
0.126,0.049,0.275,-5.337
0.089,0.051,0.270,-5.337
0.004,0.051,0.267,-5.337
0.014,0.048,0.268,-5.337
0.042,0.050,0.268,-5.337
0.047,0.048,0.269,-5.337
0.104,0.050,0.271,-5.337
0.084,0.051,0.272,-5.337
0.081,0.047,0.272,-5.337
0.092,0.048,0.271,-5.337
0.030,0.050,0.268,-5.337
-0.031,0.049,0.267,-5.337
0.054,0.049,0.273,-5.337
0.080,0.051,0.278,-5.337
0.029,0.052,0.277,-5.337
0.074,0.049,0.269,-5.337
0.122,0.049,0.258,-5.337
0.163,0.050,0.257,-5.337
0.101,0.053,0.262,-5.337
0.099,0.054,0.269,-5.337
0.098,0.052,0.276,-5.337
0.078,0.050,0.276,-5.337
0.107,0.046,0.273,-5.337
0.193,0.046,0.266,-5.337
0.175,0.051,0.262,-5.337
0.079,0.053,0.263,-5.337
0.056,0.051,0.265,-5.337
0.090,0.046,0.263,-5.337
0.023,0.048,0.261,-5.337
-0.008,0.046,0.264,-5.337
0.034,0.044,0.269,-5.337
0.113,0.044,0.271,-5.337
0.064,0.047,0.267,-5.337
0.049,0.047,0.264,-5.337
0.088,0.045,0.267,-5.337
0.049,0.050,0.271,-5.337
0.013,0.050,0.269,-5.337
0.073,0.047,0.266,-5.337
0.143,0.048,0.265,-5.337
0.054,0.052,0.267,-5.337
-0.020,0.053,0.270,-5.337
-0.031,0.050,0.268,-5.337
-0.021,0.045,0.269,-5.337
-0.010,0.043,0.268,-5.337
-0.003,0.046,0.267,-5.337
0.035,0.046,0.266,-5.337
0.033,0.047,0.266,-5.337
0.000,0.050,0.264,-5.337
0.022,0.048,0.263,-5.337
0.061,0.043,0.264,-5.337
0.000,0.046,0.262,-5.337
-0.053,0.048,0.253,-5.337
0.056,0.045,0.256,-5.337
0.124,0.047,0.260,-5.337
0.059,0.050,0.263,-5.337
-0.011,0.049,0.265,-5.337
-0.041,0.049,0.270,-5.337
-0.001,0.044,0.269,-5.337
0.061,0.042,0.269,-5.337
0.071,0.042,0.268,-5.337
0.074,0.045,0.265,-5.337
0.048,0.047,0.262,-5.337
0.057,0.044,0.261,-5.337
-0.004,0.048,0.258,-5.337
-0.083,0.050,0.260,-5.337
0.024,0.047,0.263,-5.337
0.074,0.043,0.265,-5.337
0.084,0.042,0.266,-5.337
0.054,0.043,0.266,-5.337
0.034,0.046,0.267,-5.337
0.107,0.046,0.267,-5.337
0.097,0.046,0.268,-5.337
0.053,0.045,0.264,-5.337
0.076,0.044,0.262,-5.337
0.144,0.045,0.263,-5.337
0.167,0.045,0.265,-5.337
0.113,0.044,0.262,-5.337
0.076,0.048,0.262,-5.337
0.006,0.050,0.262,-5.337
-0.009,0.051,0.263,-5.337
0.032,0.047,0.265,-5.337
-0.009,0.047,0.267,-5.337
0.025,0.044,0.265,-5.337
0.072,0.043,0.266,-5.337
0.038,0.044,0.267,-5.337
-0.016,0.044,0.264,-5.337
-0.040,0.042,0.262,-5.337
-0.006,0.045,0.261,-5.337
0.001,0.047,0.263,-5.337
0.064,0.045,0.263,-5.337
0.063,0.047,0.265,-5.337
0.037,0.046,0.267,-5.337
0.029,0.044,0.271,-5.337
-0.030,0.046,0.268,-5.337
-0.106,0.048,0.265,-5.337
-0.097,0.047,0.264,-5.337
-0.033,0.049,0.264,-5.337
-0.004,0.045,0.259,-5.337
-0.003,0.049,0.260,-5.337
-0.083,0.048,0.261,-5.337
-0.054,0.049,0.264,-5.337
-0.042,0.051,0.264,-5.337
-0.009,0.049,0.259,-5.337
0.022,0.046,0.264,-5.337
0.091,0.043,0.270,-5.337
0.128,0.045,0.271,-5.337
0.110,0.044,0.268,-5.337
0.073,0.040,0.264,-5.337
0.047,0.042,0.263,-5.337
0.049,0.045,0.264,-5.337
0.048,0.044,0.265,-5.337
0.104,0.043,0.266,-5.337
0.107,0.041,0.264,-5.337
0.071,0.037,0.261,-5.337
-0.048,0.042,0.261,-5.337
-0.059,0.046,0.264,-5.337
-0.088,0.042,0.263,-5.337
-0.043,0.040,0.264,-5.337
-0.012,0.042,0.264,-5.337
0.033,0.043,0.266,-5.337
0.047,0.042,0.264,-5.337
0.052,0.044,0.264,-5.337
-0.018,0.047,0.260,-5.337
-0.128,0.047,0.260,-5.337
-0.147,0.043,0.265,-5.337
-0.073,0.043,0.266,-5.337
-0.021,0.044,0.261,-5.337
-0.024,0.044,0.258,-5.337
-0.030,0.043,0.259,-5.337
-0.021,0.047,0.261,-5.337
-0.096,0.048,0.262,-5.337
-0.031,0.042,0.262,-5.337
0.072,0.042,0.262,-5.337
0.083,0.042,0.263,-5.337
-0.043,0.043,0.266,-5.337
-0.032,0.040,0.264,-5.337
0.044,0.040,0.261,-5.337
0.041,0.039,0.257,-5.337
-0.102,0.042,0.260,-5.337
-0.063,0.036,0.265,-5.337
0.103,0.031,0.267,-5.337
0.206,0.038,0.263,-5.337
0.183,0.041,0.259,-5.337
0.127,0.035,0.255,-5.337
0.031,0.039,0.256,-5.337
0.058,0.036,0.258,-5.337
0.077,0.038,0.261,-5.337
0.068,0.035,0.262,-5.337
0.117,0.036,0.261,-5.337
0.069,0.041,0.261,-5.337
0.008,0.039,0.265,-5.337
0.044,0.040,0.264,-5.337
-0.007,0.043,0.264,-5.337
-0.054,0.046,0.265,-5.337
-0.088,0.046,0.263,-5.337
-0.094,0.047,0.264,-5.337
0.017,0.043,0.262,-5.337
0.118,0.042,0.262,-5.337
0.079,0.045,0.263,-5.337
-0.014,0.045,0.265,-5.337
-0.022,0.042,0.265,-5.337
0.030,0.042,0.264,-5.337
0.108,0.043,0.259,-5.337
0.075,0.045,0.258,-5.337
0.036,0.042,0.257,-5.337
0.031,0.043,0.259,-5.337
0.015,0.043,0.261,-5.337
-0.034,0.046,0.261,-5.337
-0.097,0.047,0.261,-5.337
-0.065,0.043,0.261,-5.337
-0.033,0.042,0.260,-5.337
-0.012,0.041,0.258,-5.337
-0.001,0.038,0.258,-5.337
0.096,0.034,0.258,-5.337
0.104,0.038,0.259,-5.337
0.031,0.040,0.261,-5.337
-0.007,0.042,0.265,-5.337
0.019,0.042,0.266,-5.337
0.055,0.039,0.264,-5.337
0.067,0.036,0.257,-5.337
0.027,0.042,0.256,-5.337
-0.014,0.044,0.259,-5.337
0.031,0.047,0.265,-5.337
-0.014,0.045,0.263,-5.337
-0.048,0.043,0.260,-5.337
-0.040,0.042,0.257,-5.337
-0.034,0.045,0.259,-5.337
-0.095,0.043,0.263,-5.337
-0.096,0.044,0.266,-5.337
-0.087,0.045,0.264,-5.337
-0.080,0.045,0.260,-5.337
-0.033,0.044,0.263,-5.337
-0.015,0.046,0.265,-5.337
-0.027,0.049,0.263,-5.337
-0.030,0.049,0.259,-5.337
0.023,0.051,0.258,-5.337
0.037,0.051,0.263,-5.337
-0.024,0.048,0.270,-5.337
-0.056,0.047,0.268,-5.337
-0.017,0.047,0.264,-5.337
-0.010,0.047,0.257,-5.337
0.021,0.047,0.259,-5.337
0.130,0.046,0.260,-5.337
0.173,0.046,0.263,-5.337
0.136,0.045,0.264,-5.337
0.069,0.051,0.261,-5.337
-0.064,0.051,0.256,-5.337
-0.142,0.053,0.259,-5.337
-0.073,0.053,0.261,-5.337
-0.032,0.052,0.264,-5.337
0.014,0.051,0.265,-5.337
0.106,0.051,0.263,-5.337
0.163,0.047,0.261,-5.337
0.146,0.051,0.260,-5.337
0.098,0.052,0.259,-5.337
0.016,0.053,0.258,-5.337
0.018,0.049,0.261,-5.337
0.111,0.049,0.266,-5.337
0.091,0.052,0.266,-5.337
0.053,0.048,0.263,-5.337
0.097,0.046,0.263,-5.337
0.027,0.050,0.263,-5.337
0.004,0.051,0.265,-5.337
0.041,0.051,0.265,-5.337
0.070,0.054,0.266,-5.337
0.114,0.052,0.265,-5.337
0.128,0.051,0.263,-5.337
0.084,0.054,0.259,-5.337
0.073,0.054,0.258,-5.337
0.035,0.054,0.258,-5.337
0.049,0.052,0.263,-5.337
0.094,0.049,0.268,-5.337
0.042,0.052,0.269,-5.337
0.026,0.049,0.265,-5.337
0.126,0.047,0.262,-5.337
0.153,0.051,0.261,-5.337
0.128,0.052,0.261,-5.337
0.090,0.050,0.266,-5.337
0.041,0.052,0.267,-5.337
-0.052,0.054,0.265,-5.337
0.003,0.049,0.262,-5.337
0.089,0.048,0.263,-5.337
0.070,0.049,0.264,-5.337
0.037,0.048,0.264,-5.337
0.056,0.049,0.261,-5.337
0.072,0.052,0.261,-5.337
0.119,0.052,0.263,-5.337
0.163,0.052,0.269,-5.337
0.185,0.054,0.271,-5.337
0.121,0.055,0.269,-5.337
0.077,0.051,0.268,-5.337
0.099,0.049,0.270,-5.337
0.146,0.050,0.270,-5.337
0.127,0.052,0.270,-5.337
0.149,0.051,0.267,-5.337
0.159,0.052,0.265,-5.337
0.123,0.047,0.264,-5.337
0.145,0.048,0.259,-5.337
0.077,0.051,0.255,-5.337
0.035,0.053,0.255,-5.337
0.094,0.048,0.260,-5.337
0.150,0.046,0.266,-5.337
0.140,0.048,0.267,-5.337
0.119,0.054,0.267,-5.337
0.118,0.054,0.265,-5.337
0.109,0.053,0.261,-5.337
0.157,0.052,0.261,-5.337
0.170,0.053,0.260,-5.337
0.190,0.053,0.262,-5.337
0.199,0.051,0.265,-5.337
0.160,0.053,0.265,-5.337
0.107,0.053,0.265,-5.337
0.074,0.055,0.264,-5.337
0.098,0.057,0.264,-5.337
0.056,0.060,0.265,-5.337
0.078,0.059,0.264,-5.337
0.133,0.061,0.262,-5.337
0.073,0.058,0.261,-5.337
0.079,0.055,0.263,-5.337
0.156,0.055,0.265,-5.337
0.161,0.055,0.266,-5.337
0.180,0.054,0.266,-5.337
0.199,0.059,0.266,-5.337
0.188,0.060,0.265,-5.337
0.205,0.061,0.261,-5.337
0.235,0.063,0.256,-5.337
0.168,0.061,0.255,-5.337
0.126,0.060,0.259,-5.337
0.152,0.061,0.261,-5.337
0.166,0.064,0.264,-5.337
0.091,0.063,0.264,-5.337
0.060,0.065,0.263,-5.337
0.150,0.060,0.261,-5.337
0.235,0.058,0.264,-5.337
0.130,0.061,0.268,-5.337
0.117,0.062,0.267,-5.337
0.129,0.062,0.263,-5.337
0.115,0.066,0.264,-5.337
0.150,0.066,0.263,-5.337
0.125,0.067,0.260,-5.337
0.124,0.061,0.263,-5.337
0.144,0.058,0.265,-5.337
0.191,0.058,0.264,-5.337
0.143,0.063,0.263,-5.337
0.125,0.059,0.261,-5.337
0.145,0.054,0.258,-5.337
0.169,0.053,0.257,-5.337
0.235,0.057,0.258,-5.337
0.212,0.062,0.260,-5.337
0.206,0.060,0.261,-5.337
0.258,0.058,0.265,-5.337
0.260,0.059,0.266,-5.337
0.198,0.060,0.263,-5.337
0.174,0.063,0.260,-5.337
0.230,0.062,0.263,-5.337
0.208,0.064,0.263,-5.337
0.187,0.058,0.258,-5.337
0.204,0.053,0.255,-5.337
0.204,0.057,0.260,-5.337
0.217,0.059,0.266,-5.337
0.278,0.055,0.270,-5.337
0.264,0.054,0.267,-5.337
0.265,0.058,0.264,-5.337
0.250,0.060,0.263,-5.337
0.175,0.065,0.261,-5.337
0.136,0.062,0.259,-5.337
0.210,0.062,0.258,-5.337
0.265,0.058,0.258,-5.337
0.330,0.058,0.260,-5.337
0.290,0.059,0.261,-5.337
0.246,0.061,0.261,-5.337
0.207,0.063,0.261,-5.337
0.185,0.064,0.263,-5.337
0.208,0.064,0.267,-5.337
0.245,0.062,0.270,-5.337
0.251,0.063,0.270,-5.337
0.254,0.066,0.263,-5.337
0.171,0.069,0.259,-5.337
0.217,0.063,0.258,-5.337
0.289,0.064,0.257,-5.337
0.246,0.067,0.260,-5.337
0.262,0.064,0.266,-5.337
0.356,0.063,0.272,-5.337
0.290,0.064,0.272,-5.337
0.240,0.066,0.269,-5.337
0.279,0.064,0.267,-5.337
0.256,0.064,0.264,-5.337
0.231,0.065,0.258,-5.337
0.222,0.061,0.257,-5.337
0.263,0.061,0.260,-5.337
0.211,0.067,0.261,-5.337
0.164,0.067,0.263,-5.337
0.160,0.067,0.262,-5.337
0.218,0.063,0.261,-5.337
0.326,0.061,0.263,-5.337
0.374,0.059,0.261,-5.337
0.332,0.065,0.261,-5.337
0.263,0.066,0.263,-5.337
0.242,0.062,0.267,-5.337
0.232,0.062,0.266,-5.337
0.207,0.063,0.265,-5.337
0.129,0.064,0.267,-5.337
0.203,0.065,0.266,-5.337
0.253,0.067,0.265,-5.337
0.234,0.065,0.263,-5.337
0.242,0.067,0.260,-5.337
0.212,0.069,0.258,-5.337
0.187,0.066,0.264,-5.337
0.243,0.062,0.268,-5.337
0.329,0.062,0.269,-5.337
0.342,0.068,0.267,-5.337
0.304,0.064,0.269,-5.337
0.289,0.062,0.269,-5.337
0.266,0.068,0.263,-5.337
0.275,0.069,0.261,-5.337
0.354,0.064,0.262,-5.337
0.347,0.064,0.266,-5.337
0.357,0.062,0.266,-5.337
0.366,0.060,0.262,-5.337
0.245,0.066,0.265,-5.337
0.182,0.065,0.265,-5.337
0.213,0.067,0.263,-5.337
0.214,0.069,0.266,-5.337
0.232,0.067,0.267,-5.337
0.235,0.068,0.268,-5.337
0.289,0.064,0.269,-5.337
0.297,0.064,0.270,-5.337
0.272,0.064,0.265,-5.337
0.327,0.067,0.264,-5.337
0.242,0.074,0.261,-5.337
0.151,0.068,0.263,-5.337
0.140,0.069,0.262,-5.337
0.145,0.071,0.263,-5.337
0.313,0.069,0.262,-5.337
0.378,0.068,0.269,-5.337
0.351,0.067,0.272,-5.337
0.299,0.071,0.271,-5.337
0.225,0.071,0.268,-5.337
0.247,0.068,0.266,-5.337
0.298,0.066,0.264,-5.337
0.217,0.067,0.264,-5.337
0.214,0.068,0.266,-5.337
0.324,0.069,0.267,-5.337
0.271,0.068,0.265,-5.337
0.307,0.066,0.264,-5.337
0.325,0.067,0.262,-5.337
0.316,0.068,0.262,-5.337
0.289,0.067,0.267,-5.337
0.294,0.067,0.270,-5.337
0.293,0.067,0.270,-5.337
0.304,0.068,0.266,-5.337
0.334,0.068,0.265,-5.337
0.326,0.067,0.263,-5.337
0.274,0.070,0.264,-5.337
0.254,0.069,0.263,-5.337
0.288,0.072,0.268,-5.337
0.217,0.069,0.265,-5.337
0.173,0.066,0.264,-5.337
0.237,0.061,0.265,-5.337
0.283,0.063,0.266,-5.337
0.300,0.064,0.267,-5.337
0.277,0.063,0.265,-5.337
0.263,0.061,0.263,-5.337
0.270,0.063,0.264,-5.337
0.278,0.064,0.267,-5.337
0.296,0.064,0.270,-5.337
0.208,0.066,0.268,-5.337
0.181,0.066,0.267,-5.337
0.223,0.065,0.268,-5.337
0.282,0.067,0.269,-5.337
0.213,0.064,0.268,-5.337
0.206,0.063,0.266,-5.337
0.194,0.063,0.265,-5.337
0.218,0.063,0.266,-5.337
0.224,0.065,0.268,-5.337
0.233,0.064,0.265,-5.337
0.269,0.062,0.264,-5.337
0.361,0.058,0.264,-5.337
0.308,0.061,0.266,-5.337
0.219,0.062,0.264,-5.337
0.287,0.062,0.261,-5.337
0.224,0.065,0.262,-5.337
0.199,0.065,0.265,-5.337
0.231,0.065,0.270,-5.337
0.209,0.067,0.272,-5.337
0.175,0.067,0.268,-5.337
0.236,0.063,0.266,-5.337
0.283,0.061,0.268,-5.337
0.268,0.063,0.266,-5.337
0.202,0.066,0.266,-5.337
0.203,0.063,0.266,-5.337
0.280,0.063,0.268,-5.337
0.253,0.062,0.267,-5.337
0.217,0.062,0.271,-5.337
0.285,0.057,0.269,-5.337
0.323,0.055,0.266,-5.337
0.295,0.055,0.265,-5.337
0.328,0.059,0.269,-5.337
0.319,0.057,0.267,-5.337
0.327,0.055,0.261,-5.337
0.298,0.055,0.260,-5.337
0.210,0.058,0.265,-5.337
0.229,0.054,0.269,-5.337
0.298,0.054,0.272,-5.337
0.253,0.060,0.269,-5.337
0.246,0.058,0.269,-5.337
0.282,0.054,0.270,-5.337
0.259,0.057,0.273,-5.337
0.149,0.063,0.267,-5.337
0.161,0.062,0.264,-5.337
0.216,0.061,0.267,-5.337
0.172,0.061,0.268,-5.337
0.115,0.062,0.267,-5.337
0.138,0.058,0.266,-5.337
0.196,0.060,0.273,-5.337
0.200,0.058,0.279,-5.337
0.153,0.061,0.278,-5.337
0.032,0.061,0.274,-5.337
0.092,0.062,0.266,-5.337
0.150,0.065,0.260,-5.337
0.133,0.064,0.260,-5.337
0.130,0.061,0.269,-5.337
0.190,0.059,0.276,-5.337
0.253,0.057,0.279,-5.337
0.265,0.057,0.275,-5.337
0.219,0.056,0.268,-5.337
0.236,0.056,0.265,-5.337
0.271,0.053,0.265,-5.337
0.235,0.052,0.266,-5.337
0.130,0.054,0.268,-5.337
0.158,0.054,0.269,-5.337
0.178,0.051,0.269,-5.337
0.171,0.052,0.268,-5.337
0.155,0.055,0.272,-5.337
0.138,0.052,0.272,-5.337
0.130,0.051,0.274,-5.337
0.206,0.046,0.273,-5.337
0.265,0.048,0.272,-5.337
0.229,0.049,0.274,-5.337
0.208,0.052,0.274,-5.337
0.212,0.052,0.270,-5.337
0.167,0.051,0.269,-5.337
0.131,0.050,0.269,-5.337
0.168,0.052,0.264,-5.337
0.187,0.054,0.264,-5.337
0.202,0.056,0.269,-5.337
0.244,0.054,0.274,-5.337
0.238,0.054,0.276,-5.337
0.273,0.052,0.277,-5.337
0.223,0.052,0.278,-5.337
0.179,0.054,0.275,-5.337
0.209,0.048,0.271,-5.337
0.262,0.045,0.270,-5.337
0.221,0.047,0.268,-5.337
0.166,0.048,0.267,-5.337
0.202,0.050,0.269,-5.337
0.221,0.049,0.278,-5.337
0.164,0.046,0.279,-5.337
0.160,0.046,0.274,-5.337
0.205,0.048,0.270,-5.337
0.264,0.050,0.273,-5.337
0.318,0.050,0.272,-5.337
0.321,0.051,0.273,-5.337
0.257,0.047,0.271,-5.337
0.164,0.047,0.269,-5.337
0.117,0.050,0.267,-5.337
0.074,0.049,0.270,-5.337
0.139,0.044,0.272,-5.337
0.187,0.045,0.275,-5.337
0.189,0.046,0.276,-5.337
0.156,0.047,0.274,-5.337
0.180,0.045,0.273,-5.337
0.180,0.048,0.272,-5.337
0.174,0.050,0.272,-5.337
0.130,0.048,0.273,-5.337
0.135,0.049,0.272,-5.337
0.195,0.048,0.268,-5.337
0.154,0.049,0.270,-5.337
0.081,0.052,0.274,-5.337
0.123,0.050,0.275,-5.337
0.188,0.050,0.274,-5.337
0.151,0.052,0.274,-5.337
0.154,0.048,0.272,-5.337
0.181,0.048,0.270,-5.337
0.220,0.046,0.268,-5.337
0.205,0.044,0.268,-5.337
0.155,0.044,0.272,-5.337
0.092,0.045,0.272,-5.337
0.148,0.043,0.270,-5.337
0.179,0.044,0.273,-5.337
0.155,0.042,0.274,-5.337
0.165,0.043,0.270,-5.337
0.158,0.044,0.267,-5.337
0.137,0.044,0.267,-5.337
0.105,0.045,0.272,-5.337
0.112,0.046,0.273,-5.337
0.099,0.042,0.270,-5.337
0.082,0.042,0.270,-5.337
0.114,0.046,0.277,-5.337
0.127,0.044,0.279,-5.337
0.121,0.043,0.278,-5.337
0.068,0.044,0.275,-5.337
0.104,0.046,0.269,-5.337
0.104,0.045,0.265,-5.337
0.089,0.046,0.266,-5.337
0.129,0.045,0.269,-5.337
0.127,0.046,0.273,-5.337
0.062,0.046,0.274,-5.337
0.030,0.045,0.275,-5.337
0.081,0.048,0.273,-5.337
0.156,0.046,0.271,-5.337
0.154,0.043,0.271,-5.337
0.086,0.043,0.271,-5.337
0.045,0.047,0.272,-5.337
0.011,0.050,0.272,-5.337
0.041,0.049,0.274,-5.337
0.026,0.046,0.276,-5.337
0.003,0.046,0.271,-5.337
0.044,0.044,0.267,-5.337
0.071,0.047,0.269,-5.337
0.114,0.043,0.271,-5.337
0.154,0.042,0.269,-5.337
0.149,0.038,0.266,-5.337
0.062,0.041,0.266,-5.337
0.063,0.042,0.267,-5.337
0.127,0.038,0.272,-5.337
0.128,0.039,0.276,-5.337
0.032,0.041,0.274,-5.337
0.029,0.041,0.272,-5.337
0.063,0.043,0.273,-5.337
0.056,0.043,0.271,-5.337
0.045,0.045,0.269,-5.337
0.104,0.044,0.268,-5.337
0.158,0.041,0.268,-5.337
0.134,0.043,0.269,-5.337
0.150,0.042,0.270,-5.337
0.206,0.042,0.273,-5.337
0.162,0.041,0.273,-5.337
0.132,0.043,0.277,-5.337
0.119,0.042,0.275,-5.337
0.089,0.043,0.272,-5.337
0.055,0.045,0.271,-5.337
0.041,0.044,0.272,-5.337
0.019,0.042,0.274,-5.337
0.048,0.040,0.276,-5.337
0.113,0.039,0.276,-5.337
0.200,0.038,0.276,-5.337
0.138,0.040,0.273,-5.337
0.059,0.042,0.269,-5.337
0.099,0.037,0.268,-5.337
0.129,0.039,0.271,-5.337
0.103,0.041,0.276,-5.337
0.081,0.039,0.276,-5.337
0.140,0.039,0.273,-5.337
0.159,0.040,0.272,-5.337
0.098,0.042,0.272,-5.337
0.069,0.039,0.270,-5.337
0.108,0.036,0.274,-5.337
0.098,0.038,0.273,-5.337
-0.008,0.043,0.269,-5.337
-0.055,0.042,0.267,-5.337
0.037,0.041,0.270,-5.337
0.091,0.042,0.273,-5.337
0.027,0.043,0.276,-5.337
-0.000,0.042,0.280,-5.337
0.032,0.045,0.279,-5.337
0.013,0.046,0.273,-5.337
0.069,0.046,0.272,-5.337
0.085,0.044,0.271,-5.337
0.074,0.045,0.273,-5.337
0.066,0.043,0.276,-5.337
0.030,0.048,0.281,-5.337
0.004,0.048,0.283,-5.337
0.028,0.047,0.282,-5.337
0.048,0.047,0.275,-5.337
0.106,0.045,0.268,-5.337
0.119,0.044,0.269,-5.337
0.062,0.045,0.268,-5.337
0.054,0.045,0.273,-5.337
0.077,0.047,0.277,-5.337
0.062,0.047,0.279,-5.337
0.032,0.048,0.274,-5.337
0.035,0.046,0.269,-5.337
0.048,0.045,0.268,-5.337
0.052,0.044,0.271,-5.337
0.077,0.043,0.273,-5.337
0.047,0.049,0.274,-5.337
0.015,0.046,0.276,-5.337
-0.022,0.044,0.281,-5.337
-0.003,0.042,0.280,-5.337
0.108,0.041,0.276,-5.337
0.131,0.045,0.275,-5.337
0.044,0.047,0.274,-5.337
0.106,0.040,0.272,-5.337
0.180,0.038,0.271,-5.337
0.142,0.041,0.271,-5.337
0.065,0.043,0.272,-5.337
0.088,0.043,0.272,-5.337
0.168,0.039,0.272,-5.337
0.161,0.038,0.274,-5.337
0.109,0.040,0.276,-5.337
0.070,0.042,0.271,-5.337
0.091,0.042,0.265,-5.337
0.080,0.042,0.271,-5.337
0.085,0.036,0.276,-5.337
0.070,0.035,0.278,-5.337
0.026,0.038,0.277,-5.337
0.053,0.040,0.276,-5.337
0.133,0.040,0.275,-5.337
0.113,0.041,0.275,-5.337
0.014,0.043,0.275,-5.337
-0.003,0.042,0.273,-5.337
0.073,0.041,0.273,-5.337
0.089,0.041,0.275,-5.337
0.052,0.043,0.275,-5.337
0.084,0.044,0.276,-5.337
0.086,0.045,0.274,-5.337
0.023,0.048,0.273,-5.337
-0.022,0.049,0.276,-5.337
0.047,0.046,0.270,-5.337
0.082,0.044,0.267,-5.337
0.058,0.046,0.272,-5.337
0.021,0.049,0.276,-5.337
0.054,0.045,0.273,-5.337
0.085,0.042,0.275,-5.337
0.096,0.043,0.274,-5.337
0.045,0.046,0.273,-5.337
0.076,0.042,0.275,-5.337
0.139,0.040,0.279,-5.337
0.127,0.037,0.275,-5.337
0.137,0.037,0.272,-5.337
0.106,0.040,0.274,-5.337
0.078,0.037,0.271,-5.337
0.100,0.038,0.271,-5.337
0.105,0.038,0.274,-5.337
0.106,0.042,0.275,-5.337
0.039,0.048,0.276,-5.337
-0.079,0.046,0.273,-5.337
0.001,0.046,0.274,-5.337
0.036,0.048,0.275,-5.337
0.011,0.045,0.274,-5.337
0.060,0.041,0.276,-5.337
0.121,0.043,0.276,-5.337
0.112,0.043,0.278,-5.337
0.059,0.042,0.279,-5.337
0.065,0.040,0.279,-5.337
0.064,0.046,0.274,-5.337
0.027,0.047,0.269,-5.337
0.028,0.047,0.266,-5.337
0.101,0.043,0.268,-5.337
0.092,0.042,0.268,-5.337
0.046,0.046,0.270,-5.337
0.086,0.048,0.271,-5.337
0.200,0.049,0.274,-5.337
0.169,0.051,0.275,-5.337
0.129,0.051,0.276,-5.337
0.152,0.050,0.277,-5.337
0.084,0.053,0.274,-5.337
0.060,0.051,0.271,-5.337
0.195,0.043,0.268,-5.337
0.187,0.044,0.266,-5.337
0.050,0.047,0.267,-5.337
0.008,0.049,0.276,-5.337
0.098,0.046,0.281,-5.337
0.094,0.046,0.280,-5.337
0.133,0.043,0.279,-5.337
0.142,0.046,0.280,-5.337
0.127,0.049,0.277,-5.337
0.097,0.053,0.271,-5.337
0.030,0.051,0.269,-5.337
0.035,0.051,0.274,-5.337
0.078,0.054,0.276,-5.337
0.085,0.053,0.276,-5.337
0.176,0.045,0.280,-5.337
0.216,0.049,0.283,-5.337
0.127,0.048,0.283,-5.337
0.153,0.047,0.275,-5.337
0.209,0.049,0.269,-5.337
0.149,0.047,0.272,-5.337
0.183,0.043,0.277,-5.337
0.211,0.048,0.278,-5.337
0.141,0.049,0.278,-5.337
0.132,0.047,0.281,-5.337
0.170,0.047,0.282,-5.337
0.187,0.049,0.278,-5.337
0.287,0.047,0.274,-5.337
0.278,0.050,0.274,-5.337
0.129,0.055,0.275,-5.337
0.052,0.056,0.275,-5.337
0.048,0.055,0.277,-5.337
0.052,0.054,0.276,-5.337
0.054,0.055,0.272,-5.337
0.125,0.052,0.272,-5.337
0.114,0.053,0.276,-5.337
0.060,0.051,0.277,-5.337
0.093,0.050,0.277,-5.337
0.134,0.049,0.278,-5.337
0.140,0.048,0.278,-5.337
0.115,0.053,0.276,-5.337
0.181,0.054,0.276,-5.337
0.229,0.057,0.279,-5.337
0.188,0.060,0.275,-5.337
0.180,0.061,0.275,-5.337
0.205,0.057,0.280,-5.337
0.212,0.056,0.283,-5.337
0.202,0.058,0.280,-5.337
0.209,0.059,0.276,-5.337
0.240,0.057,0.272,-5.337
0.217,0.061,0.275,-5.337
0.152,0.059,0.276,-5.337
0.105,0.058,0.278,-5.337
0.126,0.053,0.281,-5.337
0.135,0.055,0.281,-5.337
0.130,0.056,0.280,-5.337
0.187,0.054,0.279,-5.337
0.188,0.053,0.283,-5.337
0.112,0.053,0.282,-5.337
0.119,0.053,0.273,-5.337
0.249,0.052,0.273,-5.337
0.247,0.056,0.277,-5.337
0.221,0.055,0.278,-5.337
0.257,0.055,0.276,-5.337
0.205,0.059,0.273,-5.337
0.118,0.057,0.276,-5.337
0.196,0.053,0.281,-5.337
0.251,0.052,0.284,-5.337
0.270,0.054,0.282,-5.337
0.199,0.057,0.280,-5.337
0.247,0.054,0.279,-5.337
0.301,0.057,0.279,-5.337
0.403,0.054,0.280,-5.337
0.359,0.059,0.283,-5.337
0.293,0.059,0.281,-5.337
0.283,0.059,0.277,-5.337
0.293,0.060,0.275,-5.337
0.257,0.061,0.278,-5.337
0.240,0.059,0.278,-5.337
0.270,0.061,0.274,-5.337
0.272,0.058,0.270,-5.337
0.259,0.061,0.274,-5.337
0.266,0.063,0.279,-5.337
0.293,0.063,0.281,-5.337
0.248,0.061,0.283,-5.337
0.191,0.059,0.282,-5.337
0.203,0.061,0.281,-5.337
0.281,0.061,0.281,-5.337
0.327,0.058,0.280,-5.337
0.245,0.058,0.277,-5.337
0.226,0.058,0.276,-5.337
0.255,0.059,0.273,-5.337
0.298,0.059,0.275,-5.337
0.279,0.061,0.275,-5.337
0.209,0.063,0.274,-5.337
0.133,0.060,0.274,-5.337
0.123,0.062,0.278,-5.337
0.167,0.060,0.279,-5.337
0.192,0.061,0.279,-5.337
0.203,0.061,0.278,-5.337
0.209,0.061,0.276,-5.337
0.255,0.062,0.275,-5.337
0.214,0.063,0.277,-5.337
0.153,0.066,0.276,-5.337
0.201,0.065,0.274,-5.337
0.299,0.062,0.271,-5.337
0.324,0.064,0.275,-5.337
0.261,0.062,0.277,-5.337
0.293,0.059,0.278,-5.337
0.360,0.058,0.280,-5.337
0.343,0.060,0.280,-5.337
0.342,0.061,0.281,-5.337
0.335,0.059,0.278,-5.337
0.322,0.058,0.275,-5.337
0.364,0.055,0.271,-5.337
0.398,0.057,0.274,-5.337
0.302,0.062,0.275,-5.337
0.254,0.063,0.278,-5.337
0.237,0.059,0.276,-5.337
0.231,0.060,0.271,-5.337
0.228,0.059,0.274,-5.337
0.238,0.062,0.280,-5.337
0.233,0.061,0.282,-5.337
0.226,0.062,0.279,-5.337
0.237,0.059,0.275,-5.337
0.270,0.059,0.272,-5.337
0.220,0.062,0.274,-5.337
0.198,0.059,0.276,-5.337
0.287,0.057,0.282,-5.337
0.311,0.058,0.280,-5.337
0.280,0.061,0.277,-5.337
0.244,0.061,0.274,-5.337
0.307,0.059,0.278,-5.337
0.341,0.061,0.278,-5.337
0.299,0.066,0.275,-5.337
0.286,0.066,0.277,-5.337
0.330,0.059,0.279,-5.337
0.371,0.056,0.276,-5.337
0.371,0.059,0.277,-5.337
0.306,0.063,0.277,-5.337
0.264,0.064,0.278,-5.337
0.289,0.062,0.279,-5.337
0.314,0.065,0.279,-5.337
0.266,0.065,0.277,-5.337
0.156,0.064,0.276,-5.337
0.192,0.064,0.274,-5.337
0.260,0.066,0.275,-5.337
0.280,0.068,0.280,-5.337
0.284,0.066,0.281,-5.337
0.289,0.066,0.279,-5.337
0.211,0.070,0.273,-5.337
0.213,0.069,0.274,-5.337
0.300,0.066,0.277,-5.337
0.292,0.068,0.280,-5.337
0.268,0.067,0.276,-5.337
0.360,0.064,0.275,-5.337
0.422,0.063,0.276,-5.337
0.345,0.065,0.278,-5.337
0.223,0.069,0.280,-5.337
0.164,0.068,0.280,-5.337
0.202,0.065,0.275,-5.337
0.252,0.065,0.270,-5.337
0.278,0.065,0.271,-5.337
0.339,0.064,0.275,-5.337
0.349,0.064,0.275,-5.337
0.361,0.067,0.277,-5.337
0.275,0.070,0.275,-5.337
0.268,0.070,0.275,-5.337
0.267,0.068,0.278,-5.337
0.280,0.068,0.281,-5.337
0.242,0.068,0.280,-5.337
0.276,0.065,0.278,-5.337
0.287,0.065,0.278,-5.337
0.307,0.065,0.278,-5.337
0.304,0.066,0.278,-5.337
0.290,0.067,0.280,-5.337
0.330,0.063,0.280,-5.337
0.341,0.062,0.284,-5.337
0.294,0.064,0.283,-5.337
0.239,0.065,0.279,-5.337
0.296,0.062,0.275,-5.337
0.318,0.063,0.273,-5.337
0.287,0.063,0.276,-5.337
0.300,0.060,0.276,-5.337
0.363,0.065,0.276,-5.337
0.366,0.066,0.277,-5.337
0.327,0.065,0.280,-5.337
0.286,0.069,0.277,-5.337
0.248,0.065,0.274,-5.337
0.319,0.062,0.274,-5.337
0.291,0.059,0.275,-5.337
0.305,0.058,0.275,-5.337
0.294,0.059,0.274,-5.337
0.281,0.062,0.278,-5.337
0.316,0.058,0.278,-5.337
0.276,0.060,0.278,-5.337
0.247,0.062,0.278,-5.337
0.338,0.063,0.280,-5.337
0.346,0.062,0.278,-5.337
0.349,0.062,0.277,-5.337
0.380,0.061,0.278,-5.337
0.402,0.063,0.278,-5.337
0.350,0.063,0.281,-5.337
0.299,0.066,0.280,-5.337
0.375,0.066,0.280,-5.337
0.399,0.064,0.282,-5.337
0.384,0.062,0.284,-5.337
0.314,0.065,0.280,-5.337
0.159,0.070,0.276,-5.337
0.193,0.068,0.277,-5.337
0.371,0.063,0.278,-5.337
0.380,0.065,0.276,-5.337
0.308,0.064,0.275,-5.337
0.293,0.061,0.274,-5.337
0.316,0.062,0.277,-5.337
0.319,0.063,0.280,-5.337
0.300,0.066,0.285,-5.337
0.335,0.067,0.282,-5.337
0.364,0.068,0.280,-5.337
0.309,0.068,0.276,-5.337
0.241,0.071,0.271,-5.337
0.244,0.067,0.273,-5.337
0.248,0.065,0.278,-5.337
0.241,0.062,0.283,-5.337
0.228,0.064,0.287,-5.337
0.271,0.065,0.288,-5.337
0.204,0.069,0.286,-5.337
0.123,0.066,0.282,-5.337
0.191,0.059,0.279,-5.337
0.309,0.056,0.274,-5.337
0.363,0.056,0.273,-5.337
0.359,0.057,0.277,-5.337
0.300,0.063,0.278,-5.337
0.292,0.063,0.282,-5.337
0.334,0.062,0.281,-5.337
0.325,0.062,0.280,-5.337
0.285,0.063,0.277,-5.337
0.269,0.061,0.274,-5.337
0.255,0.058,0.274,-5.337
0.212,0.055,0.279,-5.337
0.231,0.054,0.278,-5.337
0.282,0.052,0.277,-5.337
0.340,0.054,0.275,-5.337
0.385,0.057,0.277,-5.337
0.296,0.057,0.279,-5.337
0.290,0.055,0.279,-5.337
0.323,0.052,0.281,-5.337
0.345,0.059,0.284,-5.337
0.312,0.058,0.281,-5.337
0.310,0.056,0.280,-5.337
0.264,0.057,0.277,-5.337
0.250,0.058,0.274,-5.337
0.220,0.059,0.272,-5.337
0.244,0.056,0.274,-5.337
0.299,0.057,0.280,-5.337
0.361,0.058,0.282,-5.337
0.380,0.061,0.281,-5.337
0.367,0.060,0.278,-5.337
0.316,0.058,0.276,-5.337
0.253,0.060,0.278,-5.337
0.194,0.059,0.280,-5.337
0.166,0.057,0.281,-5.337
0.203,0.052,0.279,-5.337
0.240,0.050,0.278,-5.337
0.241,0.053,0.275,-5.337
0.217,0.053,0.275,-5.337
0.228,0.053,0.277,-5.337
0.247,0.050,0.280,-5.337
0.257,0.053,0.282,-5.337
0.236,0.053,0.284,-5.337
0.245,0.048,0.284,-5.337
0.281,0.045,0.280,-5.337
0.286,0.049,0.276,-5.337
0.227,0.051,0.275,-5.337
0.156,0.050,0.274,-5.337
0.187,0.048,0.277,-5.337
0.199,0.049,0.277,-5.337
0.205,0.050,0.278,-5.337
0.221,0.052,0.280,-5.337
0.178,0.051,0.283,-5.337
0.249,0.046,0.279,-5.337
0.290,0.049,0.276,-5.337
0.320,0.048,0.276,-5.337
0.293,0.047,0.280,-5.337
0.244,0.048,0.282,-5.337
0.178,0.050,0.282,-5.337
0.171,0.049,0.279,-5.337
0.262,0.051,0.280,-5.337
0.281,0.051,0.278,-5.337
0.217,0.050,0.276,-5.337
0.199,0.049,0.277,-5.337
0.187,0.050,0.283,-5.337
0.179,0.050,0.287,-5.337
0.165,0.049,0.284,-5.337
0.195,0.050,0.281,-5.337
0.248,0.049,0.283,-5.337
0.326,0.044,0.286,-5.337
0.337,0.044,0.283,-5.337
0.242,0.048,0.278,-5.337
0.185,0.049,0.275,-5.337
0.173,0.054,0.275,-5.337
0.182,0.052,0.277,-5.337
0.179,0.048,0.280,-5.337
0.142,0.045,0.281,-5.337
0.171,0.047,0.281,-5.337
0.266,0.046,0.281,-5.337
0.301,0.045,0.279,-5.337
0.247,0.043,0.278,-5.337
0.176,0.047,0.279,-5.337
0.211,0.046,0.281,-5.337
0.234,0.044,0.281,-5.337
0.147,0.046,0.281,-5.337
0.061,0.048,0.281,-5.337
0.064,0.052,0.280,-5.337
0.150,0.048,0.280,-5.337
0.217,0.046,0.285,-5.337
0.233,0.049,0.284,-5.337
0.133,0.052,0.285,-5.337
0.095,0.049,0.284,-5.337
0.202,0.047,0.283,-5.337
0.174,0.048,0.285,-5.337
0.163,0.046,0.288,-5.337
0.195,0.048,0.286,-5.337
0.172,0.050,0.282,-5.337
0.165,0.047,0.278,-5.337
0.202,0.047,0.277,-5.337
0.228,0.047,0.278,-5.337
0.182,0.048,0.278,-5.337
0.178,0.046,0.277,-5.337
0.244,0.048,0.277,-5.337
0.199,0.049,0.283,-5.337
0.184,0.049,0.287,-5.337
0.158,0.045,0.283,-5.337
0.246,0.041,0.280,-5.337
0.268,0.046,0.283,-5.337
0.181,0.051,0.285,-5.337
0.141,0.047,0.286,-5.337
0.172,0.046,0.285,-5.337
0.172,0.042,0.284,-5.337
0.231,0.044,0.284,-5.337
0.199,0.047,0.287,-5.337
0.132,0.047,0.284,-5.337
0.154,0.047,0.284,-5.337
0.142,0.045,0.282,-5.337
0.137,0.043,0.282,-5.337
0.136,0.044,0.282,-5.337
0.142,0.047,0.280,-5.337
0.121,0.048,0.278,-5.337
0.102,0.050,0.279,-5.337
0.103,0.051,0.280,-5.337
0.118,0.048,0.282,-5.337
0.198,0.046,0.282,-5.337
0.091,0.052,0.281,-5.337
0.031,0.052,0.280,-5.337
0.107,0.048,0.283,-5.337
0.137,0.048,0.287,-5.337
0.064,0.050,0.287,-5.337
0.030,0.051,0.285,-5.337
0.058,0.050,0.282,-5.337
0.093,0.051,0.283,-5.337
0.132,0.050,0.281,-5.337
0.069,0.051,0.281,-5.337
-0.003,0.049,0.276,-5.337
0.050,0.043,0.275,-5.337
0.139,0.041,0.278,-5.337
0.173,0.042,0.283,-5.337
0.202,0.041,0.285,-5.337
0.288,0.039,0.285,-5.337
0.268,0.042,0.280,-5.337
0.129,0.044,0.278,-5.337
0.096,0.044,0.278,-5.337
0.116,0.046,0.283,-5.337
0.090,0.046,0.286,-5.337
0.042,0.045,0.283,-5.337
0.088,0.043,0.280,-5.337
0.143,0.044,0.283,-5.337
0.111,0.049,0.286,-5.337
0.054,0.049,0.284,-5.337
0.107,0.045,0.281,-5.337
0.182,0.046,0.285,-5.337
0.103,0.050,0.289,-5.337
0.105,0.047,0.284,-5.337
0.228,0.041,0.282,-5.337
0.167,0.042,0.280,-5.337
0.075,0.046,0.280,-5.337
0.062,0.046,0.278,-5.337
0.131,0.046,0.281,-5.337
0.190,0.043,0.282,-5.337
0.128,0.044,0.278,-5.337
0.085,0.039,0.277,-5.337
0.125,0.039,0.280,-5.337
0.118,0.044,0.284,-5.337
0.097,0.042,0.285,-5.337
0.104,0.045,0.283,-5.337
0.098,0.046,0.282,-5.337
0.173,0.044,0.280,-5.337
0.185,0.042,0.277,-5.337
0.119,0.041,0.277,-5.337
0.085,0.045,0.279,-5.337
0.123,0.044,0.278,-5.337
0.168,0.043,0.280,-5.337
0.130,0.042,0.284,-5.337
0.088,0.043,0.286,-5.337
0.166,0.042,0.284,-5.337
0.198,0.038,0.281,-5.337
0.163,0.036,0.284,-5.337
0.092,0.038,0.285,-5.337
0.063,0.044,0.287,-5.337
0.039,0.046,0.280,-5.337
-0.009,0.045,0.276,-5.337
0.045,0.040,0.277,-5.337
0.100,0.042,0.281,-5.337
0.129,0.042,0.284,-5.337
0.123,0.042,0.283,-5.337
0.118,0.041,0.280,-5.337
0.078,0.039,0.279,-5.337
0.083,0.041,0.278,-5.337
0.138,0.040,0.279,-5.337
0.122,0.039,0.278,-5.337
0.040,0.040,0.280,-5.337
0.013,0.039,0.282,-5.337
0.018,0.038,0.283,-5.337
0.036,0.040,0.284,-5.337
0.098,0.039,0.284,-5.337
0.088,0.041,0.283,-5.337
0.041,0.043,0.278,-5.337
0.082,0.039,0.280,-5.337
0.147,0.037,0.279,-5.337
0.070,0.040,0.279,-5.337
0.022,0.039,0.277,-5.337
0.077,0.036,0.278,-5.337
0.149,0.033,0.281,-5.337
0.154,0.035,0.286,-5.337
0.060,0.034,0.286,-5.337
0.051,0.036,0.282,-5.337
0.109,0.038,0.276,-5.337
0.115,0.037,0.279,-5.337
0.155,0.036,0.280,-5.337
0.138,0.039,0.282,-5.337
0.096,0.037,0.282,-5.337
0.051,0.041,0.282,-5.337
-0.031,0.042,0.280,-5.337
-0.030,0.038,0.274,-5.337
0.034,0.035,0.276,-5.337
0.031,0.037,0.279,-5.337
0.036,0.037,0.283,-5.337
0.045,0.037,0.284,-5.337
-0.007,0.040,0.284,-5.337
0.029,0.037,0.283,-5.337
0.081,0.038,0.281,-5.337
0.041,0.041,0.281,-5.337
-0.024,0.041,0.284,-5.337
-0.037,0.040,0.287,-5.337
0.029,0.038,0.283,-5.337
0.072,0.036,0.279,-5.337
0.131,0.038,0.280,-5.337
0.105,0.035,0.280,-5.337
0.104,0.032,0.282,-5.337
0.028,0.033,0.282,-5.337
0.039,0.035,0.282,-5.337
0.137,0.034,0.282,-5.337
0.137,0.034,0.280,-5.337
0.054,0.033,0.279,-5.337
0.038,0.032,0.275,-5.337
0.104,0.033,0.276,-5.337
0.142,0.033,0.278,-5.337
0.081,0.032,0.281,-5.337
0.034,0.034,0.282,-5.337
0.007,0.041,0.284,-5.337
-0.055,0.044,0.280,-5.337
0.004,0.039,0.280,-5.337
0.074,0.041,0.281,-5.337
0.007,0.048,0.282,-5.337
0.037,0.042,0.274,-5.337
0.142,0.040,0.275,-5.337
0.181,0.039,0.280,-5.337
0.127,0.043,0.284,-5.337
0.055,0.041,0.283,-5.337
0.079,0.038,0.280,-5.337
0.142,0.037,0.278,-5.337
0.173,0.038,0.278,-5.337
0.059,0.045,0.282,-5.337
0.011,0.046,0.286,-5.337
0.047,0.045,0.285,-5.337
0.170,0.040,0.282,-5.337
0.168,0.041,0.279,-5.337
0.126,0.045,0.281,-5.337
0.121,0.044,0.280,-5.337
0.098,0.041,0.275,-5.337
0.126,0.041,0.275,-5.337
0.089,0.043,0.277,-5.337
0.089,0.045,0.283,-5.337
0.048,0.046,0.287,-5.337
0.075,0.043,0.287,-5.337
0.082,0.042,0.282,-5.337
0.033,0.045,0.281,-5.337
0.113,0.047,0.281,-5.337
0.139,0.052,0.279,-5.337
0.051,0.053,0.277,-5.337
0.099,0.048,0.278,-5.337
0.132,0.047,0.285,-5.337
0.130,0.047,0.287,-5.337
0.093,0.050,0.284,-5.337
0.114,0.051,0.283,-5.337
0.157,0.049,0.283,-5.337
0.173,0.048,0.282,-5.337
0.171,0.045,0.281,-5.337
0.182,0.045,0.278,-5.337
0.172,0.045,0.278,-5.337
0.117,0.045,0.280,-5.337
0.071,0.045,0.280,-5.337
0.107,0.042,0.277,-5.337
0.203,0.045,0.278,-5.337
0.220,0.046,0.280,-5.337
0.185,0.047,0.281,-5.337
0.138,0.048,0.280,-5.337
0.170,0.051,0.283,-5.337
0.172,0.048,0.284,-5.337
0.147,0.050,0.284,-5.337
0.241,0.047,0.282,-5.337
0.243,0.051,0.281,-5.337
0.174,0.053,0.282,-5.337
0.131,0.055,0.281,-5.337
0.091,0.052,0.280,-5.337
0.121,0.051,0.277,-5.337
0.116,0.054,0.275,-5.337
0.077,0.055,0.277,-5.337
0.147,0.049,0.278,-5.337
0.242,0.047,0.280,-5.337
0.237,0.051,0.283,-5.337
0.190,0.052,0.284,-5.337
0.226,0.051,0.285,-5.337
0.209,0.052,0.284,-5.337
0.207,0.054,0.281,-5.337
0.219,0.050,0.278,-5.337
0.251,0.047,0.274,-5.337
0.220,0.047,0.274,-5.337
0.161,0.049,0.280,-5.337
0.046,0.052,0.282,-5.337
0.127,0.051,0.279,-5.337
0.247,0.046,0.276,-5.337
0.189,0.049,0.277,-5.337
0.208,0.048,0.279,-5.337
0.258,0.047,0.282,-5.337
0.283,0.047,0.285,-5.337
0.227,0.051,0.288,-5.337
0.119,0.054,0.286,-5.337
0.102,0.050,0.279,-5.337
0.113,0.052,0.276,-5.337
0.176,0.052,0.277,-5.337
0.182,0.050,0.279,-5.337
0.151,0.052,0.280,-5.337
0.114,0.054,0.281,-5.337
0.126,0.051,0.277,-5.337
0.168,0.051,0.278,-5.337
0.155,0.054,0.278,-5.337
0.129,0.057,0.278,-5.337
0.154,0.058,0.278,-5.337
0.249,0.054,0.279,-5.337
0.295,0.051,0.282,-5.337
0.282,0.051,0.284,-5.337
0.331,0.049,0.285,-5.337
0.325,0.053,0.285,-5.337
0.294,0.053,0.286,-5.337
0.223,0.053,0.284,-5.337
0.244,0.052,0.281,-5.337
0.217,0.050,0.277,-5.337
0.267,0.052,0.277,-5.337
0.328,0.054,0.276,-5.337
0.342,0.055,0.277,-5.337
0.332,0.054,0.277,-5.337
0.270,0.053,0.281,-5.337
0.212,0.054,0.280,-5.337
0.135,0.059,0.281,-5.337
0.089,0.059,0.283,-5.337
0.202,0.059,0.285,-5.337
0.234,0.055,0.283,-5.337
0.283,0.051,0.282,-5.337
0.326,0.052,0.285,-5.337
0.276,0.058,0.288,-5.337
0.269,0.059,0.285,-5.337
0.346,0.053,0.280,-5.337
0.391,0.056,0.280,-5.337
0.283,0.060,0.283,-5.337
0.242,0.058,0.283,-5.337
0.234,0.056,0.285,-5.337
0.271,0.056,0.279,-5.337
0.273,0.057,0.277,-5.337
0.270,0.058,0.281,-5.337
0.197,0.060,0.285,-5.337
0.136,0.060,0.286,-5.337
0.199,0.058,0.283,-5.337
0.263,0.058,0.282,-5.337
0.270,0.058,0.280,-5.337
0.248,0.056,0.280,-5.337
0.255,0.055,0.284,-5.337
0.269,0.056,0.287,-5.337
0.263,0.058,0.286,-5.337
0.319,0.058,0.283,-5.337
0.260,0.060,0.279,-5.337
0.182,0.061,0.280,-5.337
0.256,0.057,0.282,-5.337
0.297,0.060,0.282,-5.337
0.268,0.059,0.280,-5.337
0.293,0.055,0.277,-5.337
0.371,0.053,0.278,-5.337
0.368,0.058,0.279,-5.337
0.368,0.060,0.280,-5.337
0.357,0.059,0.284,-5.337
0.409,0.057,0.286,-5.337
0.418,0.058,0.286,-5.337
0.390,0.055,0.288,-5.337
0.308,0.056,0.285,-5.337
0.315,0.056,0.285,-5.337
0.379,0.055,0.283,-5.337
0.392,0.060,0.285,-5.337
0.273,0.062,0.286,-5.337
0.234,0.061,0.282,-5.337
0.267,0.056,0.278,-5.337
0.313,0.058,0.283,-5.337
0.326,0.060,0.284,-5.337
0.315,0.061,0.283,-5.337
0.284,0.062,0.282,-5.337
0.303,0.058,0.281,-5.337
0.331,0.055,0.281,-5.337
0.357,0.054,0.280,-5.337
0.293,0.056,0.279,-5.337
0.219,0.059,0.278,-5.337
0.211,0.057,0.280,-5.337
0.248,0.058,0.280,-5.337
0.277,0.060,0.282,-5.337
0.243,0.063,0.288,-5.337
0.211,0.061,0.288,-5.337
0.233,0.061,0.283,-5.337
0.228,0.064,0.279,-5.337
0.215,0.062,0.279,-5.337
0.212,0.061,0.285,-5.337
0.215,0.061,0.284,-5.337
0.234,0.063,0.281,-5.337
0.210,0.062,0.280,-5.337
0.321,0.054,0.285,-5.337
0.430,0.055,0.280,-5.337
0.390,0.062,0.279,-5.337
0.328,0.065,0.281,-5.337
0.269,0.063,0.280,-5.337
0.338,0.056,0.275,-5.337
0.364,0.058,0.274,-5.337
0.304,0.061,0.278,-5.337
0.268,0.065,0.285,-5.337
0.292,0.062,0.284,-5.337
0.422,0.059,0.280,-5.337
0.439,0.060,0.278,-5.337
0.367,0.060,0.281,-5.337
0.298,0.060,0.282,-5.337
0.256,0.063,0.280,-5.337
0.318,0.064,0.281,-5.337
0.306,0.068,0.281,-5.337
0.294,0.067,0.283,-5.337
0.282,0.067,0.284,-5.337
0.216,0.068,0.284,-5.337
0.300,0.064,0.283,-5.337
0.339,0.066,0.285,-5.337
0.278,0.066,0.284,-5.337
0.293,0.061,0.281,-5.337
0.320,0.064,0.279,-5.337
0.289,0.064,0.279,-5.337
0.289,0.063,0.283,-5.337
0.352,0.060,0.285,-5.337
0.402,0.065,0.286,-5.337
0.406,0.068,0.285,-5.337
0.430,0.063,0.282,-5.337
0.369,0.064,0.279,-5.337
0.314,0.063,0.277,-5.337
0.316,0.064,0.280,-5.337
0.336,0.067,0.280,-5.337
0.310,0.065,0.277,-5.337
0.265,0.064,0.278,-5.337
0.190,0.069,0.280,-5.337
0.204,0.070,0.283,-5.337
0.284,0.066,0.285,-5.337
0.292,0.067,0.286,-5.337
0.287,0.063,0.282,-5.337
0.319,0.066,0.280,-5.337
0.218,0.068,0.280,-5.337
0.168,0.066,0.278,-5.337
0.196,0.065,0.278,-5.337
0.294,0.065,0.280,-5.337
0.302,0.065,0.280,-5.337
0.236,0.065,0.281,-5.337
0.233,0.062,0.282,-5.337
0.243,0.066,0.283,-5.337
0.240,0.066,0.282,-5.337
0.338,0.060,0.283,-5.337
0.413,0.058,0.283,-5.337
0.377,0.064,0.283,-5.337
0.350,0.067,0.283,-5.337
0.363,0.066,0.280,-5.337
0.340,0.063,0.280,-5.337
0.331,0.065,0.280,-5.337
0.324,0.068,0.286,-5.337
0.243,0.065,0.285,-5.337
0.272,0.065,0.280,-5.337
0.347,0.066,0.276,-5.337
0.343,0.064,0.274,-5.337
0.313,0.063,0.276,-5.337
0.308,0.062,0.280,-5.337
0.332,0.064,0.280,-5.337
0.308,0.065,0.281,-5.337
0.239,0.065,0.285,-5.337
0.243,0.065,0.284,-5.337
0.299,0.064,0.281,-5.337
0.292,0.066,0.280,-5.337
0.261,0.065,0.277,-5.337
0.298,0.061,0.280,-5.337
0.327,0.063,0.283,-5.337
0.265,0.066,0.282,-5.337
0.238,0.064,0.283,-5.337
0.258,0.061,0.283,-5.337
0.356,0.056,0.282,-5.337
0.402,0.057,0.277,-5.337
0.344,0.064,0.278,-5.337
0.299,0.062,0.281,-5.337
0.352,0.061,0.282,-5.337
0.329,0.059,0.282,-5.337
0.339,0.056,0.282,-5.337
0.438,0.053,0.282,-5.337
0.351,0.057,0.282,-5.337
0.243,0.059,0.282,-5.337
0.278,0.060,0.279,-5.337
0.360,0.059,0.277,-5.337
0.404,0.058,0.283,-5.337
0.319,0.062,0.286,-5.337
0.269,0.066,0.286,-5.337
0.245,0.067,0.281,-5.337
0.231,0.066,0.275,-5.337
0.150,0.065,0.276,-5.337
0.209,0.059,0.278,-5.337
0.303,0.059,0.280,-5.337
0.382,0.057,0.284,-5.337
0.364,0.057,0.285,-5.337
0.336,0.053,0.283,-5.337
0.330,0.054,0.285,-5.337
0.287,0.053,0.286,-5.337
0.279,0.050,0.282,-5.337
0.321,0.048,0.276,-5.337
0.297,0.052,0.273,-5.337
0.302,0.053,0.276,-5.337
0.301,0.051,0.284,-5.337
0.254,0.051,0.287,-5.337
0.288,0.051,0.286,-5.337
0.277,0.051,0.283,-5.337
0.218,0.055,0.285,-5.337
0.188,0.055,0.284,-5.337
0.261,0.053,0.281,-5.337
0.284,0.053,0.281,-5.337
0.304,0.053,0.283,-5.337
0.336,0.052,0.284,-5.337
0.363,0.049,0.281,-5.337
0.368,0.050,0.281,-5.337
0.278,0.052,0.283,-5.337
0.234,0.054,0.288,-5.337
0.292,0.050,0.288,-5.337
0.332,0.051,0.283,-5.337
0.300,0.053,0.278,-5.337
0.239,0.052,0.279,-5.337
0.189,0.053,0.277,-5.337
0.137,0.057,0.277,-5.337
0.198,0.059,0.281,-5.337
0.278,0.055,0.284,-5.337
0.251,0.054,0.283,-5.337
0.180,0.058,0.282,-5.337
0.224,0.056,0.280,-5.337
0.312,0.053,0.280,-5.337
0.315,0.051,0.279,-5.337
0.238,0.055,0.280,-5.337
0.248,0.054,0.281,-5.337
0.238,0.050,0.284,-5.337
0.246,0.050,0.288,-5.337
0.240,0.048,0.289,-5.337
0.209,0.052,0.288,-5.337
0.228,0.052,0.283,-5.337
0.242,0.048,0.282,-5.337
0.288,0.048,0.280,-5.337
0.285,0.050,0.283,-5.337
0.252,0.051,0.283,-5.337
0.206,0.051,0.286,-5.337
0.140,0.052,0.285,-5.337
0.093,0.056,0.282,-5.337
0.118,0.053,0.280,-5.337
0.142,0.050,0.283,-5.337
0.131,0.048,0.282,-5.337
0.135,0.050,0.284,-5.337
0.212,0.046,0.283,-5.337
0.264,0.047,0.280,-5.337
0.255,0.048,0.279,-5.337
0.197,0.046,0.282,-5.337
0.136,0.046,0.281,-5.337
0.231,0.047,0.280,-5.337
0.286,0.044,0.281,-5.337
0.259,0.045,0.278,-5.337
0.214,0.045,0.277,-5.337
0.207,0.044,0.278,-5.337
0.172,0.046,0.279,-5.337
0.188,0.044,0.279,-5.337
0.277,0.042,0.280,-5.337
0.275,0.043,0.278,-5.337
0.279,0.045,0.278,-5.337
0.271,0.044,0.278,-5.337
0.261,0.041,0.282,-5.337
0.277,0.041,0.287,-5.337
0.243,0.045,0.291,-5.337
0.254,0.044,0.291,-5.337
0.217,0.049,0.284,-5.337
0.169,0.049,0.279,-5.337
0.120,0.048,0.281,-5.337
0.135,0.048,0.283,-5.337
0.091,0.051,0.280,-5.337
0.028,0.051,0.280,-5.337
0.016,0.048,0.281,-5.337
0.037,0.046,0.282,-5.337
0.060,0.044,0.280,-5.337
0.136,0.042,0.279,-5.337
0.192,0.044,0.280,-5.337
0.210,0.039,0.281,-5.337
0.210,0.037,0.280,-5.337
0.157,0.043,0.280,-5.337
0.153,0.047,0.279,-5.337
0.181,0.049,0.279,-5.337
0.267,0.044,0.279,-5.337
0.274,0.041,0.280,-5.337
0.249,0.040,0.280,-5.337
0.196,0.040,0.281,-5.337
0.164,0.042,0.284,-5.337
0.160,0.039,0.286,-5.337
0.183,0.036,0.284,-5.337
0.148,0.038,0.283,-5.337
0.113,0.041,0.281,-5.337
0.108,0.043,0.283,-5.337
0.106,0.041,0.284,-5.337
0.154,0.037,0.281,-5.337
0.182,0.035,0.285,-5.337
0.115,0.039,0.287,-5.337
0.065,0.044,0.287,-5.337
0.070,0.043,0.281,-5.337
0.122,0.042,0.278,-5.337
0.137,0.041,0.280,-5.337
0.036,0.045,0.280,-5.337
0.038,0.044,0.281,-5.337
0.154,0.045,0.284,-5.337
0.177,0.044,0.285,-5.337
0.072,0.043,0.284,-5.337
0.109,0.042,0.284,-5.337
0.147,0.040,0.283,-5.337
0.136,0.043,0.282,-5.337
0.132,0.043,0.283,-5.337
0.116,0.041,0.284,-5.337
0.087,0.039,0.282,-5.337
0.112,0.035,0.280,-5.337
0.183,0.036,0.280,-5.337
0.141,0.039,0.281,-5.337
0.130,0.040,0.284,-5.337
0.131,0.041,0.286,-5.337
0.095,0.044,0.283,-5.337
0.131,0.042,0.281,-5.337
0.085,0.044,0.279,-5.337
0.031,0.044,0.281,-5.337
0.130,0.043,0.278,-5.337
0.182,0.042,0.281,-5.337
0.105,0.049,0.285,-5.337
0.139,0.046,0.286,-5.337
0.219,0.042,0.282,-5.337
0.267,0.039,0.281,-5.337
0.270,0.037,0.284,-5.337
0.210,0.039,0.285,-5.337
0.151,0.042,0.284,-5.337
0.148,0.042,0.284,-5.337
0.182,0.040,0.283,-5.337
0.137,0.038,0.282,-5.337
0.185,0.037,0.284,-5.337
0.223,0.039,0.285,-5.337
0.146,0.041,0.285,-5.337
0.054,0.039,0.284,-5.337
0.007,0.039,0.285,-5.337
0.010,0.037,0.286,-5.337
0.060,0.040,0.288,-5.337
0.058,0.041,0.288,-5.337
0.134,0.038,0.289,-5.337
0.174,0.039,0.282,-5.337
0.176,0.038,0.279,-5.337
0.201,0.039,0.280,-5.337
0.187,0.042,0.284,-5.337
0.135,0.044,0.283,-5.337
0.094,0.043,0.281,-5.337
0.095,0.038,0.283,-5.337
0.033,0.040,0.288,-5.337
-0.023,0.041,0.289,-5.337
-0.002,0.040,0.286,-5.337
0.008,0.041,0.281,-5.337
0.030,0.043,0.282,-5.337
0.169,0.044,0.285,-5.337
0.215,0.043,0.286,-5.337
0.196,0.039,0.284,-5.337
0.157,0.040,0.279,-5.337
0.121,0.040,0.275,-5.337
0.135,0.039,0.277,-5.337
0.151,0.039,0.281,-5.337
0.080,0.042,0.283,-5.337
0.012,0.042,0.284,-5.337
0.020,0.043,0.283,-5.337
0.063,0.045,0.283,-5.337
0.027,0.044,0.281,-5.337
0.031,0.039,0.282,-5.337
0.022,0.038,0.280,-5.337
0.025,0.041,0.279,-5.337
0.023,0.042,0.283,-5.337
0.071,0.041,0.286,-5.337
0.134,0.038,0.285,-5.337
0.072,0.039,0.283,-5.337
0.058,0.041,0.282,-5.337
0.059,0.043,0.281,-5.337
0.125,0.042,0.281,-5.337
0.169,0.041,0.282,-5.337
0.173,0.040,0.281,-5.337
0.136,0.042,0.283,-5.337
0.116,0.042,0.285,-5.337
0.211,0.040,0.283,-5.337
0.246,0.040,0.281,-5.337
0.177,0.041,0.280,-5.337
0.135,0.041,0.285,-5.337
0.069,0.039,0.284,-5.337
0.076,0.039,0.281,-5.337
0.068,0.038,0.278,-5.337
0.008,0.037,0.282,-5.337
0.004,0.037,0.283,-5.337
0.139,0.035,0.284,-5.337
0.239,0.035,0.285,-5.337
0.224,0.036,0.283,-5.337
0.184,0.038,0.280,-5.337
0.124,0.038,0.280,-5.337
0.073,0.041,0.281,-5.337
0.109,0.040,0.284,-5.337
0.159,0.041,0.284,-5.337
0.029,0.044,0.281,-5.337
-0.019,0.045,0.278,-5.337
0.100,0.043,0.279,-5.337
0.168,0.041,0.280,-5.337
0.089,0.043,0.278,-5.337
0.064,0.046,0.276,-5.337
0.079,0.047,0.276,-5.337
0.082,0.047,0.281,-5.337
0.053,0.043,0.280,-5.337
0.085,0.044,0.278,-5.337
0.062,0.044,0.280,-5.337
0.011,0.041,0.284,-5.337
0.053,0.036,0.285,-5.337
0.098,0.037,0.283,-5.337
0.066,0.039,0.284,-5.337
0.045,0.040,0.284,-5.337
0.085,0.039,0.284,-5.337
0.050,0.042,0.282,-5.337
0.041,0.042,0.280,-5.337
0.081,0.042,0.281,-5.337
0.013,0.042,0.281,-5.337
0.030,0.040,0.281,-5.337
0.161,0.041,0.283,-5.337
0.216,0.040,0.283,-5.337
0.165,0.039,0.282,-5.337
0.086,0.037,0.281,-5.337
0.063,0.039,0.281,-5.337
0.072,0.039,0.283,-5.337
0.107,0.037,0.284,-5.337
0.134,0.035,0.281,-5.337
0.172,0.036,0.279,-5.337
0.211,0.041,0.277,-5.337
0.125,0.043,0.276,-5.337
0.052,0.042,0.278,-5.337
0.045,0.044,0.280,-5.337
0.066,0.047,0.280,-5.337
0.127,0.047,0.282,-5.337
0.195,0.047,0.282,-5.337
0.164,0.048,0.280,-5.337
0.132,0.045,0.276,-5.337
0.100,0.052,0.277,-5.337
0.061,0.052,0.278,-5.337
0.072,0.046,0.277,-5.337
0.149,0.044,0.281,-5.337
0.093,0.049,0.282,-5.337
0.092,0.049,0.281,-5.337
0.092,0.045,0.280,-5.337
0.062,0.044,0.285,-5.337
0.061,0.044,0.285,-5.337
0.064,0.048,0.285,-5.337
0.069,0.047,0.283,-5.337
0.087,0.049,0.283,-5.337
0.129,0.050,0.280,-5.337
0.079,0.052,0.278,-5.337
0.084,0.050,0.279,-5.337
0.155,0.052,0.285,-5.337
0.197,0.047,0.286,-5.337
0.180,0.048,0.281,-5.337
0.144,0.050,0.274,-5.337
0.104,0.052,0.278,-5.337
0.194,0.043,0.283,-5.337
0.250,0.040,0.284,-5.337
0.226,0.043,0.284,-5.337
0.207,0.043,0.282,-5.337
0.176,0.045,0.280,-5.337
0.212,0.046,0.275,-5.337
0.235,0.047,0.272,-5.337
0.184,0.051,0.273,-5.337
0.140,0.052,0.280,-5.337
0.193,0.050,0.285,-5.337
0.222,0.048,0.287,-5.337
0.244,0.046,0.283,-5.337
0.232,0.050,0.281,-5.337
0.187,0.052,0.283,-5.337
0.145,0.051,0.284,-5.337
0.101,0.052,0.282,-5.337
0.106,0.052,0.281,-5.337
0.115,0.051,0.279,-5.337
0.110,0.053,0.279,-5.337
0.135,0.052,0.281,-5.337
0.174,0.046,0.282,-5.337
0.178,0.048,0.284,-5.337
0.104,0.051,0.285,-5.337
0.160,0.050,0.283,-5.337
0.239,0.051,0.280,-5.337
0.243,0.051,0.280,-5.337
0.247,0.052,0.280,-5.337
0.197,0.054,0.282,-5.337
0.220,0.052,0.281,-5.337
0.260,0.048,0.281,-5.337
0.253,0.050,0.283,-5.337
0.218,0.051,0.285,-5.337
0.250,0.048,0.284,-5.337
0.300,0.048,0.283,-5.337
0.260,0.049,0.278,-5.337
0.155,0.053,0.279,-5.337
0.097,0.052,0.278,-5.337
0.059,0.053,0.280,-5.337
0.051,0.054,0.281,-5.337
0.124,0.054,0.285,-5.337
0.175,0.051,0.287,-5.337
0.146,0.049,0.286,-5.337
0.151,0.049,0.282,-5.337
0.173,0.050,0.280,-5.337
0.269,0.048,0.283,-5.337
0.278,0.048,0.289,-5.337
0.254,0.050,0.288,-5.337
0.183,0.053,0.280,-5.337
0.163,0.051,0.277,-5.337
0.189,0.044,0.280,-5.337
0.240,0.046,0.287,-5.337
0.237,0.051,0.287,-5.337
0.180,0.052,0.287,-5.337
0.121,0.054,0.284,-5.337
0.069,0.055,0.284,-5.337
0.105,0.052,0.283,-5.337
0.155,0.049,0.281,-5.337
0.212,0.051,0.277,-5.337
0.184,0.055,0.275,-5.337
0.230,0.049,0.277,-5.337
0.277,0.048,0.280,-5.337
0.225,0.048,0.281,-5.337
0.230,0.047,0.282,-5.337
0.274,0.048,0.280,-5.337
0.241,0.052,0.276,-5.337
0.219,0.052,0.278,-5.337
0.283,0.054,0.278,-5.337
0.286,0.055,0.275,-5.337
0.189,0.058,0.276,-5.337
0.189,0.059,0.280,-5.337
0.270,0.059,0.281,-5.337
0.290,0.057,0.282,-5.337
0.287,0.057,0.283,-5.337
0.251,0.056,0.284,-5.337
0.247,0.055,0.281,-5.337
0.218,0.056,0.279,-5.337
0.217,0.056,0.277,-5.337
0.300,0.055,0.279,-5.337
0.361,0.053,0.282,-5.337
0.322,0.053,0.280,-5.337
0.273,0.050,0.279,-5.337
0.153,0.053,0.280,-5.337
0.216,0.049,0.282,-5.337
0.312,0.053,0.282,-5.337
0.273,0.056,0.281,-5.337
0.263,0.054,0.282,-5.337
0.299,0.054,0.282,-5.337
0.294,0.051,0.281,-5.337
0.248,0.051,0.280,-5.337
0.167,0.055,0.280,-5.337
0.236,0.058,0.282,-5.337
0.282,0.058,0.285,-5.337
0.308,0.057,0.285,-5.337
0.263,0.058,0.281,-5.337
0.242,0.059,0.285,-5.337
0.283,0.055,0.285,-5.337
0.235,0.057,0.285,-5.337
0.224,0.057,0.282,-5.337
0.263,0.054,0.281,-5.337
0.280,0.055,0.278,-5.337
0.298,0.056,0.277,-5.337
0.374,0.054,0.277,-5.337
0.378,0.057,0.279,-5.337
0.264,0.056,0.281,-5.337
0.237,0.057,0.282,-5.337
0.286,0.056,0.280,-5.337
0.291,0.056,0.279,-5.337
0.310,0.053,0.282,-5.337
0.336,0.054,0.283,-5.337
0.270,0.056,0.283,-5.337
0.190,0.056,0.282,-5.337
0.185,0.055,0.281,-5.337
0.214,0.058,0.279,-5.337
0.228,0.058,0.280,-5.337
0.229,0.054,0.278,-5.337
0.276,0.051,0.280,-5.337
0.352,0.054,0.282,-5.337
0.356,0.059,0.283,-5.337
0.323,0.054,0.280,-5.337
0.320,0.054,0.280,-5.337
0.361,0.054,0.280,-5.337
0.378,0.058,0.281,-5.337
0.368,0.057,0.282,-5.337
0.353,0.054,0.285,-5.337
0.210,0.057,0.285,-5.337
0.195,0.061,0.283,-5.337
0.255,0.060,0.278,-5.337
0.306,0.060,0.277,-5.337
0.294,0.060,0.279,-5.337
0.263,0.057,0.282,-5.337
0.289,0.058,0.289,-5.337
0.299,0.057,0.293,-5.337
0.402,0.052,0.293,-5.337
0.511,0.050,0.289,-5.337
0.401,0.053,0.284,-5.337
0.289,0.055,0.279,-5.337
0.300,0.055,0.278,-5.337
0.420,0.052,0.277,-5.337
0.431,0.056,0.280,-5.337
0.319,0.058,0.283,-5.337
0.286,0.061,0.286,-5.337
0.296,0.058,0.285,-5.337
0.288,0.058,0.288,-5.337
0.205,0.057,0.289,-5.337
0.205,0.057,0.287,-5.337
0.291,0.055,0.282,-5.337
0.384,0.054,0.282,-5.337
0.323,0.057,0.281,-5.337
0.211,0.060,0.281,-5.337
0.190,0.060,0.287,-5.337
0.255,0.063,0.290,-5.337
0.264,0.062,0.289,-5.337
0.285,0.062,0.285,-5.337
0.326,0.062,0.282,-5.337
0.397,0.063,0.282,-5.337
0.408,0.062,0.279,-5.337
0.358,0.060,0.272,-5.337
0.291,0.060,0.272,-5.337
0.256,0.063,0.278,-5.337
0.241,0.063,0.286,-5.337
0.304,0.061,0.288,-5.337
0.406,0.063,0.290,-5.337
0.472,0.064,0.290,-5.337
0.420,0.065,0.288,-5.337
0.388,0.061,0.283,-5.337
0.393,0.060,0.281,-5.337
0.345,0.060,0.281,-5.337
0.313,0.063,0.283,-5.337
0.346,0.064,0.283,-5.337
0.343,0.062,0.280,-5.337
0.391,0.057,0.278,-5.337
0.402,0.059,0.277,-5.337
0.268,0.064,0.280,-5.337
0.180,0.065,0.282,-5.337
0.228,0.066,0.279,-5.337
0.356,0.064,0.280,-5.337
0.420,0.063,0.282,-5.337
0.305,0.065,0.281,-5.337
0.292,0.059,0.281,-5.337
0.384,0.057,0.283,-5.337
0.381,0.057,0.282,-5.337
0.304,0.057,0.282,-5.337
0.281,0.059,0.286,-5.337
0.307,0.059,0.287,-5.337
0.367,0.060,0.287,-5.337
0.354,0.059,0.282,-5.337
0.283,0.061,0.280,-5.337
0.301,0.061,0.279,-5.337
0.371,0.061,0.282,-5.337
0.413,0.061,0.285,-5.337
0.383,0.061,0.284,-5.337
0.342,0.060,0.281,-5.337
0.355,0.061,0.280,-5.337
0.350,0.065,0.283,-5.337
0.299,0.068,0.279,-5.337
0.285,0.066,0.277,-5.337
0.291,0.062,0.276,-5.337
0.303,0.061,0.280,-5.337
0.356,0.058,0.282,-5.337
0.334,0.063,0.283,-5.337
0.246,0.067,0.280,-5.337
0.235,0.069,0.281,-5.337
0.266,0.063,0.279,-5.337
0.291,0.062,0.282,-5.337
0.289,0.062,0.285,-5.337
0.274,0.067,0.282,-5.337
0.276,0.067,0.281,-5.337
0.320,0.065,0.285,-5.337
0.302,0.062,0.283,-5.337
0.333,0.064,0.283,-5.337
0.363,0.065,0.285,-5.337
0.375,0.062,0.285,-5.337
0.403,0.060,0.284,-5.337
0.393,0.061,0.280,-5.337
0.408,0.062,0.280,-5.337
0.381,0.061,0.276,-5.337
0.315,0.060,0.277,-5.337
0.241,0.062,0.280,-5.337
0.260,0.062,0.283,-5.337
0.370,0.063,0.282,-5.337
0.284,0.062,0.281,-5.337
0.268,0.062,0.278,-5.337
0.308,0.061,0.282,-5.337
0.285,0.062,0.286,-5.337
0.325,0.059,0.289,-5.337
0.325,0.061,0.288,-5.337
0.292,0.060,0.285,-5.337
0.301,0.058,0.285,-5.337
0.248,0.058,0.286,-5.337
0.239,0.059,0.283,-5.337
0.330,0.058,0.282,-5.337
0.345,0.057,0.276,-5.337
0.295,0.058,0.275,-5.337
0.314,0.055,0.280,-5.337
0.322,0.053,0.282,-5.337
0.312,0.054,0.280,-5.337
0.289,0.055,0.274,-5.337
0.321,0.056,0.278,-5.337
0.384,0.054,0.284,-5.337
0.355,0.052,0.287,-5.337
0.331,0.052,0.280,-5.337
0.343,0.054,0.278,-5.337
0.348,0.052,0.280,-5.337
0.346,0.054,0.283,-5.337
0.394,0.050,0.283,-5.337
0.321,0.054,0.281,-5.337
0.259,0.053,0.281,-5.337
0.284,0.054,0.280,-5.337
0.275,0.052,0.281,-5.337
0.212,0.052,0.283,-5.337
0.167,0.054,0.286,-5.337
0.212,0.052,0.288,-5.337
0.292,0.049,0.286,-5.337
0.264,0.053,0.280,-5.337
0.207,0.057,0.283,-5.337
0.175,0.056,0.288,-5.337
0.139,0.055,0.288,-5.337
0.177,0.055,0.286,-5.337
0.239,0.054,0.286,-5.337
0.295,0.053,0.284,-5.337
0.277,0.052,0.282,-5.337
0.308,0.051,0.280,-5.337
0.409,0.052,0.276,-5.337
0.347,0.057,0.273,-5.337
0.304,0.055,0.275,-5.337
0.281,0.048,0.279,-5.337
0.325,0.047,0.282,-5.337
0.332,0.048,0.281,-5.337
0.211,0.054,0.280,-5.337
0.185,0.050,0.281,-5.337
0.247,0.047,0.284,-5.337
0.238,0.051,0.286,-5.337
0.237,0.054,0.286,-5.337
0.254,0.050,0.284,-5.337
0.223,0.052,0.280,-5.337
0.197,0.053,0.278,-5.337
0.211,0.052,0.279,-5.337
0.214,0.052,0.286,-5.337
0.183,0.050,0.285,-5.337
0.171,0.049,0.281,-5.337
0.234,0.049,0.278,-5.337
0.224,0.047,0.283,-5.337
0.175,0.045,0.285,-5.337
0.132,0.045,0.285,-5.337
0.133,0.048,0.283,-5.337
0.104,0.051,0.281,-5.337
0.041,0.048,0.280,-5.337
0.058,0.049,0.278,-5.337
0.134,0.047,0.280,-5.337
0.210,0.050,0.286,-5.337
0.182,0.049,0.288,-5.337
0.178,0.049,0.286,-5.337
0.237,0.045,0.284,-5.337
0.273,0.047,0.283,-5.337
0.256,0.045,0.282,-5.337
0.302,0.046,0.285,-5.337
0.238,0.046,0.285,-5.337
0.183,0.047,0.282,-5.337
0.287,0.046,0.282,-5.337
0.318,0.051,0.282,-5.337
0.262,0.053,0.284,-5.337
0.240,0.049,0.284,-5.337
0.160,0.048,0.281,-5.337
0.094,0.047,0.276,-5.337
0.134,0.047,0.276,-5.337
0.205,0.045,0.277,-5.337
0.189,0.048,0.283,-5.337
0.143,0.044,0.286,-5.337
0.215,0.044,0.287,-5.337
0.249,0.044,0.287,-5.337
0.284,0.042,0.289,-5.337
0.323,0.038,0.288,-5.337
0.232,0.043,0.287,-5.337
0.175,0.043,0.282,-5.337
0.136,0.046,0.280,-5.337
0.153,0.045,0.279,-5.337
0.121,0.048,0.282,-5.337
0.133,0.046,0.287,-5.337
0.146,0.045,0.287,-5.337
0.134,0.046,0.287,-5.337
0.138,0.044,0.283,-5.337
0.217,0.044,0.283,-5.337
0.209,0.045,0.280,-5.337
0.161,0.048,0.283,-5.337
0.177,0.045,0.285,-5.337
0.193,0.042,0.287,-5.337
0.231,0.041,0.285,-5.337
0.194,0.044,0.286,-5.337
0.122,0.047,0.285,-5.337
0.069,0.048,0.284,-5.337
0.091,0.043,0.281,-5.337
0.191,0.041,0.280,-5.337
0.262,0.041,0.280,-5.337
0.308,0.042,0.280,-5.337
0.271,0.043,0.280,-5.337
0.196,0.042,0.283,-5.337
0.116,0.042,0.282,-5.337
0.176,0.041,0.283,-5.337
0.235,0.047,0.285,-5.337
0.163,0.046,0.287,-5.337
0.194,0.043,0.287,-5.337
0.229,0.044,0.284,-5.337
0.219,0.044,0.283,-5.337
0.158,0.043,0.280,-5.337
0.186,0.041,0.281,-5.337
0.207,0.042,0.285,-5.337
0.238,0.042,0.291,-5.337
0.301,0.042,0.287,-5.337
0.233,0.042,0.285,-5.337
0.166,0.040,0.284,-5.337
0.177,0.041,0.283,-5.337
0.133,0.041,0.280,-5.337
0.177,0.040,0.276,-5.337
0.159,0.037,0.272,-5.337
0.121,0.038,0.275,-5.337
0.137,0.033,0.281,-5.337
0.151,0.035,0.285,-5.337
0.108,0.034,0.287,-5.337
0.126,0.034,0.285,-5.337
0.117,0.034,0.284,-5.337
0.121,0.035,0.285,-5.337
0.097,0.037,0.285,-5.337
0.110,0.038,0.281,-5.337
0.119,0.038,0.278,-5.337
0.091,0.040,0.278,-5.337
0.131,0.038,0.280,-5.337
0.119,0.039,0.282,-5.337
0.072,0.040,0.284,-5.337
0.091,0.045,0.283,-5.337
0.089,0.045,0.286,-5.337
0.087,0.039,0.289,-5.337
0.076,0.035,0.288,-5.337
0.091,0.038,0.283,-5.337
0.130,0.040,0.278,-5.337
0.235,0.037,0.280,-5.337
0.246,0.037,0.286,-5.337
0.192,0.039,0.284,-5.337
0.193,0.035,0.281,-5.337
0.255,0.029,0.277,-5.337
0.221,0.028,0.278,-5.337
0.101,0.035,0.285,-5.337
0.109,0.036,0.288,-5.337
0.136,0.037,0.291,-5.337
0.178,0.037,0.288,-5.337
0.112,0.039,0.283,-5.337
0.011,0.045,0.280,-5.337
0.030,0.043,0.282,-5.337
0.093,0.041,0.285,-5.337
0.158,0.037,0.287,-5.337
0.180,0.037,0.284,-5.337
0.128,0.043,0.281,-5.337
0.037,0.045,0.277,-5.337
-0.013,0.048,0.281,-5.337
-0.066,0.048,0.288,-5.337
0.006,0.046,0.287,-5.337
0.042,0.046,0.286,-5.337
0.058,0.046,0.288,-5.337
0.177,0.039,0.287,-5.337
0.233,0.037,0.284,-5.337
0.171,0.039,0.284,-5.337
0.154,0.038,0.287,-5.337
0.131,0.035,0.287,-5.337
0.164,0.034,0.285,-5.337
0.153,0.032,0.288,-5.337
0.065,0.035,0.289,-5.337
0.030,0.036,0.288,-5.337
0.139,0.033,0.284,-5.337
0.165,0.032,0.282,-5.337
0.126,0.033,0.283,-5.337
0.142,0.032,0.286,-5.337
0.210,0.032,0.284,-5.337
0.136,0.036,0.281,-5.337
0.073,0.033,0.281,-5.337
0.127,0.033,0.283,-5.337
0.127,0.035,0.281,-5.337
0.041,0.040,0.281,-5.337
0.076,0.040,0.286,-5.337
0.085,0.039,0.285,-5.337
0.085,0.038,0.283,-5.337
0.111,0.033,0.282,-5.337
0.161,0.032,0.284,-5.337
0.192,0.033,0.285,-5.337
0.195,0.031,0.286,-5.337
0.164,0.034,0.284,-5.337
0.131,0.035,0.283,-5.337
0.075,0.039,0.284,-5.337
0.152,0.039,0.286,-5.337
0.140,0.037,0.282,-5.337
0.116,0.036,0.279,-5.337
0.151,0.034,0.279,-5.337
0.167,0.033,0.283,-5.337
0.076,0.038,0.285,-5.337
0.066,0.040,0.288,-5.337
0.076,0.038,0.287,-5.337
0.118,0.037,0.284,-5.337
0.235,0.037,0.281,-5.337
0.251,0.036,0.280,-5.337
0.211,0.033,0.281,-5.337
0.114,0.035,0.283,-5.337
0.069,0.038,0.285,-5.337
0.089,0.037,0.284,-5.337
0.131,0.037,0.283,-5.337
0.096,0.041,0.283,-5.337
0.062,0.041,0.282,-5.337
-0.014,0.042,0.285,-5.337
-0.069,0.044,0.285,-5.337
-0.003,0.042,0.282,-5.337
0.082,0.037,0.281,-5.337
0.113,0.035,0.281,-5.337
0.145,0.038,0.280,-5.337
0.175,0.037,0.278,-5.337
0.147,0.038,0.280,-5.337
0.115,0.036,0.284,-5.337
0.062,0.037,0.287,-5.337
0.027,0.038,0.287,-5.337
0.021,0.039,0.286,-5.337
0.048,0.038,0.284,-5.337
0.052,0.037,0.280,-5.337
0.080,0.032,0.283,-5.337
0.128,0.032,0.288,-5.337
0.173,0.033,0.287,-5.337
0.130,0.038,0.287,-5.337
0.167,0.035,0.285,-5.337
0.214,0.034,0.282,-5.337
0.198,0.034,0.277,-5.337
0.129,0.042,0.276,-5.337
0.086,0.039,0.277,-5.337
0.083,0.035,0.279,-5.337
0.150,0.035,0.284,-5.337
0.114,0.041,0.284,-5.337
-0.016,0.044,0.283,-5.337
-0.098,0.044,0.285,-5.337
-0.041,0.044,0.288,-5.337
0.081,0.041,0.287,-5.337
0.088,0.042,0.285,-5.337
0.037,0.040,0.281,-5.337
0.068,0.038,0.275,-5.337
0.102,0.041,0.273,-5.337
0.168,0.038,0.279,-5.337
0.193,0.038,0.283,-5.337
0.187,0.035,0.285,-5.337
0.191,0.034,0.286,-5.337
0.162,0.039,0.289,-5.337
0.149,0.042,0.288,-5.337
0.145,0.042,0.285,-5.337
0.127,0.041,0.282,-5.337
0.132,0.041,0.282,-5.337
0.098,0.046,0.283,-5.337
0.106,0.046,0.281,-5.337
0.109,0.042,0.282,-5.337
0.059,0.044,0.281,-5.337
0.017,0.046,0.284,-5.337
-0.003,0.048,0.284,-5.337
0.014,0.044,0.282,-5.337
0.134,0.042,0.282,-5.337
0.172,0.045,0.283,-5.337
0.133,0.047,0.279,-5.337
0.081,0.048,0.277,-5.337
0.173,0.042,0.277,-5.337
0.215,0.041,0.279,-5.337
0.189,0.040,0.280,-5.337
0.136,0.043,0.283,-5.337
0.131,0.044,0.287,-5.337
0.137,0.047,0.288,-5.337
0.163,0.044,0.282,-5.337
0.130,0.045,0.279,-5.337
0.084,0.047,0.284,-5.337
0.094,0.045,0.285,-5.337
0.088,0.045,0.283,-5.337
0.146,0.044,0.279,-5.337
0.208,0.043,0.279,-5.337
0.262,0.042,0.281,-5.337
0.267,0.044,0.282,-5.337
0.253,0.045,0.278,-5.337
0.166,0.049,0.276,-5.337
0.124,0.048,0.279,-5.337
0.167,0.052,0.285,-5.337
0.209,0.049,0.286,-5.337
0.217,0.051,0.284,-5.337
0.214,0.050,0.283,-5.337
0.162,0.051,0.284,-5.337
0.167,0.048,0.284,-5.337
0.243,0.047,0.284,-5.337
0.239,0.049,0.283,-5.337
0.154,0.052,0.281,-5.337
0.054,0.053,0.280,-5.337
0.131,0.052,0.280,-5.337
0.180,0.054,0.279,-5.337
0.186,0.054,0.280,-5.337
0.201,0.051,0.285,-5.337
0.156,0.048,0.284,-5.337
0.194,0.048,0.281,-5.337
0.266,0.049,0.278,-5.337
0.224,0.049,0.279,-5.337
0.163,0.048,0.281,-5.337
0.133,0.047,0.282,-5.337
0.150,0.046,0.279,-5.337
0.171,0.050,0.279,-5.337
0.161,0.050,0.278,-5.337
0.169,0.050,0.274,-5.337
0.153,0.051,0.275,-5.337
0.205,0.053,0.279,-5.337
0.200,0.052,0.286,-5.337
0.169,0.051,0.288,-5.337
0.170,0.052,0.289,-5.337
0.216,0.050,0.287,-5.337
0.237,0.052,0.286,-5.337
0.198,0.054,0.287,-5.337
0.230,0.055,0.283,-5.337
0.244,0.055,0.278,-5.337
0.268,0.054,0.272,-5.337
0.262,0.053,0.271,-5.337
0.224,0.053,0.276,-5.337
0.231,0.055,0.283,-5.337
0.141,0.060,0.290,-5.337
0.131,0.057,0.291,-5.337
0.257,0.055,0.287,-5.337
0.222,0.057,0.286,-5.337
0.098,0.060,0.287,-5.337
0.124,0.055,0.283,-5.337
0.170,0.053,0.278,-5.337
0.263,0.054,0.273,-5.337
0.284,0.051,0.275,-5.337
0.191,0.053,0.280,-5.337
0.144,0.058,0.284,-5.337
0.146,0.055,0.285,-5.337
0.211,0.052,0.284,-5.337
0.221,0.050,0.281,-5.337
0.193,0.053,0.278,-5.337
0.184,0.052,0.278,-5.337
0.258,0.049,0.283,-5.337
0.303,0.052,0.285,-5.337
0.250,0.054,0.286,-5.337
0.274,0.054,0.286,-5.337
0.209,0.057,0.285,-5.337
0.176,0.054,0.284,-5.337
0.286,0.052,0.283,-5.337
0.257,0.054,0.280,-5.337
0.217,0.054,0.278,-5.337
0.261,0.051,0.281,-5.337
0.305,0.047,0.286,-5.337
0.314,0.046,0.285,-5.337
0.239,0.049,0.280,-5.337
0.231,0.050,0.276,-5.337
0.313,0.048,0.278,-5.337
0.378,0.048,0.278,-5.337
0.281,0.051,0.281,-5.337
0.239,0.051,0.283,-5.337
0.312,0.050,0.283,-5.337
0.300,0.052,0.284,-5.337
0.204,0.054,0.285,-5.337
0.225,0.055,0.287,-5.337
0.279,0.053,0.283,-5.337
0.205,0.055,0.282,-5.337
0.069,0.061,0.285,-5.337
0.121,0.056,0.283,-5.337
0.242,0.055,0.278,-5.337
0.230,0.054,0.273,-5.337
0.272,0.055,0.279,-5.337
0.267,0.055,0.284,-5.337
0.241,0.056,0.285,-5.337
0.249,0.055,0.285,-5.337
0.321,0.056,0.283,-5.337
0.265,0.058,0.280,-5.337
0.252,0.058,0.282,-5.337
0.275,0.058,0.282,-5.337
0.303,0.058,0.283,-5.337
0.379,0.061,0.284,-5.337
0.360,0.061,0.286,-5.337
0.345,0.062,0.284,-5.337
0.324,0.064,0.278,-5.337
0.246,0.065,0.276,-5.337
0.242,0.065,0.277,-5.337
0.203,0.065,0.281,-5.337
0.175,0.068,0.284,-5.337
0.169,0.063,0.285,-5.337
0.279,0.058,0.284,-5.337
0.406,0.057,0.284,-5.337
0.399,0.060,0.278,-5.337
0.335,0.061,0.276,-5.337
0.326,0.058,0.280,-5.337
0.359,0.056,0.283,-5.337
0.384,0.052,0.280,-5.337
0.349,0.058,0.275,-5.337
0.200,0.061,0.274,-5.337
0.187,0.060,0.278,-5.337
0.272,0.056,0.281,-5.337
0.327,0.055,0.280,-5.337
0.356,0.056,0.280,-5.337
0.357,0.056,0.284,-5.337
0.332,0.058,0.286,-5.337
0.183,0.060,0.283,-5.337
0.138,0.060,0.286,-5.337
0.150,0.063,0.283,-5.337
0.255,0.061,0.280,-5.337
0.284,0.062,0.277,-5.337
0.238,0.060,0.278,-5.337
0.211,0.060,0.277,-5.337
0.238,0.061,0.280,-5.337
0.309,0.060,0.284,-5.337
0.348,0.061,0.286,-5.337
0.338,0.060,0.282,-5.337
0.330,0.060,0.280,-5.337
0.323,0.056,0.280,-5.337
0.323,0.059,0.280,-5.337
0.357,0.058,0.280,-5.337
0.323,0.064,0.281,-5.337
0.327,0.064,0.281,-5.337
0.278,0.061,0.286,-5.337
0.253,0.056,0.284,-5.337
0.265,0.056,0.277,-5.337
0.322,0.053,0.274,-5.337
0.362,0.054,0.277,-5.337
0.308,0.061,0.283,-5.337
0.259,0.062,0.286,-5.337
0.292,0.060,0.287,-5.337
0.268,0.060,0.284,-5.337
0.288,0.061,0.282,-5.337
0.296,0.063,0.280,-5.337
0.347,0.064,0.282,-5.337
0.348,0.060,0.281,-5.337
0.356,0.061,0.277,-5.337
0.296,0.064,0.277,-5.337
0.315,0.061,0.282,-5.337
0.352,0.056,0.283,-5.337
0.360,0.060,0.282,-5.337
0.367,0.064,0.280,-5.337
0.335,0.063,0.277,-5.337
0.326,0.060,0.280,-5.337
0.270,0.057,0.285,-5.337
0.197,0.062,0.287,-5.337
0.208,0.069,0.285,-5.337
0.304,0.066,0.285,-5.337
0.386,0.067,0.286,-5.337
0.325,0.066,0.282,-5.337
0.263,0.063,0.278,-5.337
0.248,0.060,0.281,-5.337
0.309,0.058,0.284,-5.337
0.364,0.060,0.284,-5.337
0.377,0.060,0.283,-5.337
0.344,0.059,0.282,-5.337
0.323,0.061,0.281,-5.337
0.348,0.061,0.281,-5.337
0.365,0.056,0.276,-5.337
0.392,0.054,0.276,-5.337
0.380,0.060,0.281,-5.337
0.321,0.064,0.286,-5.337
0.360,0.061,0.284,-5.337
0.375,0.059,0.280,-5.337
0.345,0.058,0.282,-5.337
0.378,0.058,0.283,-5.337
0.470,0.057,0.283,-5.337
0.452,0.058,0.281,-5.337
0.405,0.058,0.279,-5.337
0.484,0.057,0.280,-5.337
0.417,0.060,0.282,-5.337
0.324,0.064,0.285,-5.337
0.288,0.064,0.287,-5.337
0.267,0.064,0.290,-5.337
0.214,0.065,0.291,-5.337
0.244,0.065,0.287,-5.337
0.312,0.063,0.284,-5.337
0.332,0.063,0.282,-5.337
0.331,0.058,0.283,-5.337
0.462,0.056,0.281,-5.337
0.435,0.062,0.283,-5.337
0.315,0.064,0.286,-5.337
0.381,0.060,0.281,-5.337
0.421,0.056,0.277,-5.337
0.411,0.059,0.276,-5.337
0.364,0.059,0.276,-5.337
0.328,0.060,0.274,-5.337
0.328,0.056,0.273,-5.337
0.330,0.056,0.276,-5.337
0.314,0.059,0.280,-5.337
0.278,0.058,0.285,-5.337
0.270,0.056,0.290,-5.337
0.326,0.058,0.287,-5.337
0.360,0.057,0.283,-5.337
0.321,0.055,0.281,-5.337
0.257,0.053,0.283,-5.337
0.262,0.054,0.282,-5.337
0.261,0.057,0.281,-5.337
0.242,0.059,0.280,-5.337
0.302,0.059,0.283,-5.337
0.362,0.058,0.282,-5.337
0.312,0.061,0.280,-5.337
0.257,0.063,0.279,-5.337
0.309,0.060,0.277,-5.337
0.341,0.056,0.278,-5.337
0.318,0.055,0.279,-5.337
0.364,0.053,0.283,-5.337
0.338,0.055,0.285,-5.337
0.285,0.055,0.283,-5.337
0.269,0.055,0.280,-5.337
0.319,0.055,0.278,-5.337
0.250,0.060,0.280,-5.337
0.206,0.057,0.280,-5.337
0.316,0.048,0.280,-5.337
0.398,0.049,0.280,-5.337
0.342,0.054,0.280,-5.337
0.203,0.059,0.279,-5.337
0.189,0.058,0.280,-5.337
0.228,0.058,0.282,-5.337
0.252,0.057,0.281,-5.337
0.249,0.053,0.283,-5.337
0.275,0.052,0.281,-5.337
0.284,0.053,0.278,-5.337
0.237,0.056,0.278,-5.337
0.302,0.053,0.281,-5.337
0.356,0.049,0.281,-5.337
0.289,0.050,0.285,-5.337
0.210,0.053,0.284,-5.337
0.240,0.054,0.280,-5.337
0.238,0.056,0.275,-5.337
0.244,0.053,0.277,-5.337
0.325,0.054,0.282,-5.337
0.341,0.057,0.287,-5.337
0.330,0.054,0.290,-5.337
0.361,0.049,0.282,-5.337
0.367,0.050,0.279,-5.337
0.306,0.051,0.280,-5.337
0.280,0.051,0.284,-5.337
0.234,0.050,0.285,-5.337
0.245,0.054,0.285,-5.337
0.277,0.057,0.285,-5.337
0.250,0.055,0.285,-5.337
0.241,0.049,0.284,-5.337
0.272,0.051,0.278,-5.337
0.260,0.056,0.274,-5.337
0.256,0.058,0.276,-5.337
0.315,0.054,0.277,-5.337
0.292,0.053,0.276,-5.337
0.310,0.052,0.279,-5.337
0.326,0.055,0.284,-5.337
0.356,0.055,0.285,-5.337
0.328,0.053,0.282,-5.337
0.212,0.055,0.280,-5.337
0.100,0.054,0.281,-5.337
0.145,0.055,0.284,-5.337
0.273,0.051,0.284,-5.337
0.238,0.049,0.279,-5.337
0.212,0.043,0.272,-5.337
0.186,0.043,0.274,-5.337
0.215,0.047,0.278,-5.337
0.224,0.048,0.282,-5.337
0.270,0.046,0.282,-5.337
0.292,0.046,0.283,-5.337
0.295,0.049,0.286,-5.337
0.281,0.051,0.285,-5.337
0.272,0.053,0.280,-5.337
0.290,0.053,0.280,-5.337
0.212,0.055,0.281,-5.337
0.128,0.055,0.280,-5.337
0.067,0.053,0.278,-5.337
0.124,0.049,0.280,-5.337
0.235,0.046,0.280,-5.337
0.189,0.046,0.280,-5.337
0.102,0.053,0.284,-5.337
0.144,0.049,0.287,-5.337
0.223,0.046,0.285,-5.337
0.234,0.046,0.277,-5.337
0.176,0.049,0.275,-5.337
0.117,0.048,0.277,-5.337
0.177,0.050,0.281,-5.337
0.193,0.048,0.285,-5.337
0.153,0.048,0.285,-5.337
0.174,0.049,0.282,-5.337
0.194,0.048,0.283,-5.337
0.232,0.045,0.280,-5.337
0.250,0.046,0.279,-5.337
0.177,0.048,0.277,-5.337
0.155,0.048,0.278,-5.337
0.186,0.044,0.279,-5.337
0.157,0.047,0.282,-5.337
0.155,0.043,0.285,-5.337
0.230,0.042,0.284,-5.337
0.205,0.042,0.280,-5.337
0.097,0.043,0.280,-5.337
0.126,0.045,0.282,-5.337
0.211,0.044,0.282,-5.337
0.165,0.044,0.283,-5.337
0.066,0.043,0.286,-5.337
0.127,0.043,0.284,-5.337
0.179,0.046,0.281,-5.337
0.162,0.045,0.282,-5.337
0.106,0.041,0.284,-5.337
0.077,0.041,0.283,-5.337
0.091,0.042,0.277,-5.337
0.142,0.045,0.275,-5.337
0.177,0.043,0.280,-5.337
0.129,0.045,0.288,-5.337
0.108,0.044,0.288,-5.337
0.146,0.045,0.284,-5.337
0.113,0.043,0.281,-5.337
0.096,0.042,0.280,-5.337
0.153,0.044,0.280,-5.337
0.196,0.046,0.281,-5.337
0.227,0.043,0.281,-5.337
0.175,0.039,0.283,-5.337
0.161,0.038,0.280,-5.337
0.160,0.046,0.279,-5.337
0.137,0.047,0.282,-5.337
0.117,0.047,0.284,-5.337
0.137,0.044,0.283,-5.337
0.206,0.045,0.282,-5.337
0.188,0.047,0.280,-5.337
0.168,0.049,0.279,-5.337
0.163,0.052,0.283,-5.337
0.087,0.050,0.284,-5.337
0.090,0.046,0.287,-5.337
0.140,0.045,0.286,-5.337
0.151,0.049,0.284,-5.337
0.094,0.048,0.281,-5.337
0.123,0.047,0.282,-5.337
0.157,0.045,0.283,-5.337
0.200,0.044,0.280,-5.337
0.130,0.047,0.281,-5.337
0.123,0.043,0.285,-5.337
0.184,0.041,0.287,-5.337
0.218,0.041,0.285,-5.337
0.129,0.045,0.280,-5.337
0.113,0.043,0.277,-5.337
0.157,0.038,0.280,-5.337
0.117,0.042,0.283,-5.337
0.010,0.046,0.285,-5.337
0.121,0.042,0.283,-5.337
0.212,0.041,0.282,-5.337
0.149,0.041,0.283,-5.337
0.164,0.038,0.285,-5.337
0.207,0.035,0.287,-5.337
0.226,0.032,0.288,-5.337
0.185,0.033,0.285,-5.337
0.136,0.036,0.283,-5.337
0.121,0.041,0.281,-5.337
0.057,0.041,0.281,-5.337
0.030,0.044,0.281,-5.337
0.041,0.045,0.280,-5.337
0.099,0.040,0.281,-5.337
0.227,0.038,0.282,-5.337
0.223,0.042,0.284,-5.337
0.190,0.042,0.286,-5.337
0.229,0.039,0.284,-5.337
0.277,0.039,0.283,-5.337
0.263,0.040,0.282,-5.337
0.205,0.039,0.277,-5.337
0.221,0.041,0.272,-5.337
0.217,0.042,0.276,-5.337
0.168,0.040,0.284,-5.337
0.137,0.040,0.286,-5.337
0.148,0.040,0.288,-5.337
0.113,0.042,0.285,-5.337
0.083,0.043,0.282,-5.337
0.069,0.043,0.280,-5.337
-0.012,0.041,0.279,-5.337
-0.011,0.039,0.277,-5.337
-0.006,0.038,0.278,-5.337
0.044,0.033,0.282,-5.337
0.083,0.034,0.283,-5.337
0.108,0.032,0.282,-5.337
0.080,0.038,0.283,-5.337
0.080,0.039,0.284,-5.337
0.108,0.035,0.283,-5.337
0.084,0.037,0.279,-5.337
0.103,0.038,0.276,-5.337
0.135,0.038,0.279,-5.337
0.125,0.035,0.282,-5.337
0.072,0.037,0.283,-5.337
0.053,0.039,0.281,-5.337
0.011,0.038,0.283,-5.337
-0.004,0.039,0.285,-5.337
-0.048,0.041,0.287,-5.337
-0.049,0.042,0.283,-5.337
0.003,0.038,0.278,-5.337
0.047,0.036,0.277,-5.337
0.087,0.037,0.282,-5.337
0.181,0.035,0.288,-5.337
0.246,0.034,0.289,-5.337
0.230,0.034,0.283,-5.337
0.145,0.039,0.284,-5.337
0.129,0.039,0.284,-5.337
0.081,0.042,0.282,-5.337
0.047,0.042,0.280,-5.337
0.063,0.039,0.279,-5.337
0.086,0.037,0.280,-5.337
0.067,0.038,0.280,-5.337
0.127,0.035,0.279,-5.337
0.164,0.032,0.280,-5.337
0.109,0.034,0.282,-5.337
0.137,0.036,0.283,-5.337
0.176,0.036,0.284,-5.337
0.186,0.035,0.283,-5.337
0.143,0.037,0.282,-5.337
0.100,0.036,0.282,-5.337
0.140,0.034,0.280,-5.337
0.133,0.035,0.280,-5.337
0.079,0.040,0.284,-5.337
0.079,0.039,0.284,-5.337
0.053,0.038,0.283,-5.337
0.012,0.040,0.280,-5.337
0.021,0.042,0.283,-5.337
0.050,0.039,0.287,-5.337
0.036,0.039,0.286,-5.337
0.011,0.041,0.284,-5.337
0.066,0.038,0.283,-5.337
0.118,0.039,0.280,-5.337
0.115,0.042,0.281,-5.337
0.099,0.042,0.284,-5.337
0.081,0.042,0.283,-5.337
0.076,0.045,0.283,-5.337
0.043,0.046,0.282,-5.337
0.013,0.044,0.283,-5.337
0.107,0.042,0.284,-5.337
0.196,0.038,0.285,-5.337
0.188,0.039,0.281,-5.337
0.192,0.040,0.281,-5.337
0.124,0.038,0.283,-5.337
0.066,0.044,0.286,-5.337
0.081,0.044,0.284,-5.337
0.188,0.041,0.283,-5.337
0.229,0.039,0.285,-5.337
0.161,0.041,0.282,-5.337
0.124,0.040,0.281,-5.337
0.174,0.038,0.285,-5.337
0.128,0.037,0.287,-5.337
0.117,0.038,0.287,-5.337
0.096,0.039,0.284,-5.337
0.099,0.043,0.287,-5.337
0.060,0.047,0.287,-5.337
0.060,0.045,0.286,-5.337
0.087,0.045,0.281,-5.337
0.033,0.047,0.277,-5.337
0.013,0.047,0.277,-5.337
0.041,0.043,0.281,-5.337
0.115,0.044,0.287,-5.337
0.118,0.045,0.286,-5.337
0.101,0.045,0.286,-5.337
0.108,0.044,0.280,-5.337
0.069,0.045,0.276,-5.337
0.055,0.045,0.275,-5.337
0.041,0.049,0.275,-5.337
0.060,0.048,0.279,-5.337
0.141,0.047,0.284,-5.337
0.142,0.046,0.284,-5.337
0.098,0.047,0.285,-5.337
0.091,0.042,0.287,-5.337
0.089,0.043,0.290,-5.337
0.089,0.041,0.286,-5.337
0.161,0.042,0.282,-5.337
0.192,0.045,0.280,-5.337
0.151,0.046,0.280,-5.337
0.114,0.045,0.280,-5.337
0.085,0.045,0.277,-5.337
0.123,0.045,0.278,-5.337
0.181,0.049,0.280,-5.337
0.185,0.046,0.285,-5.337
0.196,0.042,0.284,-5.337
0.205,0.043,0.285,-5.337
0.124,0.048,0.283,-5.337
0.126,0.044,0.280,-5.337
0.201,0.040,0.278,-5.337
0.165,0.042,0.277,-5.337
0.133,0.044,0.281,-5.337
0.226,0.042,0.284,-5.337
0.163,0.040,0.284,-5.337
0.065,0.045,0.284,-5.337
0.042,0.046,0.283,-5.337
0.083,0.048,0.282,-5.337
0.201,0.047,0.278,-5.337
0.263,0.047,0.277,-5.337
0.196,0.045,0.279,-5.337
0.100,0.046,0.284,-5.337
0.101,0.046,0.289,-5.337
0.238,0.043,0.289,-5.337
0.238,0.042,0.287,-5.337
0.166,0.043,0.281,-5.337
0.168,0.042,0.282,-5.337
0.202,0.045,0.281,-5.337
0.217,0.042,0.280,-5.337
0.192,0.043,0.278,-5.337
0.130,0.046,0.279,-5.337
0.088,0.048,0.280,-5.337
0.058,0.051,0.278,-5.337
0.097,0.048,0.278,-5.337
0.189,0.050,0.281,-5.337
0.227,0.048,0.286,-5.337
0.219,0.047,0.286,-5.337
0.239,0.046,0.282,-5.337
0.216,0.047,0.281,-5.337
0.224,0.050,0.284,-5.337
0.188,0.046,0.283,-5.337
0.170,0.048,0.283,-5.337
0.149,0.051,0.284,-5.337
0.181,0.051,0.284,-5.337
0.191,0.052,0.280,-5.337
0.143,0.053,0.280,-5.337
0.147,0.055,0.280,-5.337
0.167,0.054,0.280,-5.337
0.199,0.048,0.281,-5.337
0.198,0.046,0.283,-5.337
0.164,0.047,0.283,-5.337
0.108,0.050,0.282,-5.337
0.067,0.048,0.282,-5.337
0.195,0.050,0.282,-5.337
0.247,0.048,0.284,-5.337
0.135,0.050,0.283,-5.337
0.079,0.049,0.285,-5.337
0.144,0.054,0.286,-5.337
0.189,0.054,0.285,-5.337
0.128,0.052,0.279,-5.337
0.167,0.048,0.275,-5.337
0.226,0.049,0.277,-5.337
0.124,0.054,0.282,-5.337
0.131,0.049,0.284,-5.337
0.216,0.047,0.284,-5.337
0.305,0.049,0.277,-5.337
0.365,0.048,0.276,-5.337
0.312,0.050,0.276,-5.337
0.251,0.055,0.281,-5.337
0.220,0.055,0.280,-5.337
0.166,0.052,0.277,-5.337
0.256,0.046,0.277,-5.337
0.265,0.050,0.283,-5.337
0.158,0.055,0.284,-5.337
0.211,0.055,0.282,-5.337
0.239,0.055,0.281,-5.337
0.190,0.058,0.282,-5.337
0.240,0.056,0.280,-5.337
0.302,0.054,0.278,-5.337
0.277,0.054,0.279,-5.337
0.261,0.056,0.281,-5.337
0.280,0.055,0.283,-5.337
0.223,0.058,0.282,-5.337
0.200,0.056,0.282,-5.337
0.258,0.058,0.283,-5.337
0.217,0.059,0.284,-5.337
0.198,0.057,0.283,-5.337
0.233,0.053,0.283,-5.337
0.243,0.054,0.283,-5.337
0.185,0.059,0.285,-5.337
0.179,0.060,0.282,-5.337
0.260,0.055,0.279,-5.337
0.279,0.052,0.280,-5.337
0.271,0.054,0.283,-5.337
0.271,0.057,0.280,-5.337
0.272,0.063,0.282,-5.337
0.296,0.059,0.282,-5.337
0.276,0.061,0.281,-5.337
0.239,0.059,0.277,-5.337
0.280,0.059,0.275,-5.337
0.266,0.057,0.277,-5.337
0.264,0.059,0.280,-5.337
0.316,0.058,0.285,-5.337
0.404,0.054,0.287,-5.337
0.362,0.057,0.283,-5.337
0.307,0.060,0.280,-5.337
0.304,0.061,0.281,-5.337
0.331,0.062,0.281,-5.337
0.259,0.061,0.281,-5.337
0.185,0.061,0.279,-5.337
0.211,0.062,0.282,-5.337
0.282,0.062,0.281,-5.337
0.296,0.063,0.283,-5.337
0.275,0.063,0.287,-5.337
0.240,0.062,0.286,-5.337
0.281,0.060,0.281,-5.337
0.323,0.060,0.277,-5.337
0.339,0.061,0.279,-5.337
0.353,0.060,0.282,-5.337
0.367,0.055,0.283,-5.337
0.354,0.057,0.281,-5.337
0.217,0.063,0.277,-5.337
0.184,0.065,0.278,-5.337
0.285,0.059,0.278,-5.337
0.370,0.058,0.277,-5.337
0.370,0.060,0.279,-5.337
0.305,0.061,0.281,-5.337
0.333,0.059,0.284,-5.337
0.393,0.054,0.283,-5.337
0.287,0.055,0.284,-5.337
0.244,0.056,0.283,-5.337
0.353,0.057,0.286,-5.337
0.356,0.060,0.290,-5.337
0.330,0.061,0.291,-5.337
0.387,0.059,0.285,-5.337
0.345,0.062,0.281,-5.337
0.285,0.058,0.282,-5.337
0.253,0.059,0.280,-5.337
0.285,0.063,0.280,-5.337
0.334,0.062,0.280,-5.337
0.286,0.057,0.279,-5.337
0.233,0.061,0.283,-5.337
0.238,0.067,0.283,-5.337
0.186,0.068,0.279,-5.337
0.143,0.067,0.278,-5.337
0.168,0.063,0.281,-5.337
0.232,0.062,0.283,-5.337
0.349,0.064,0.279,-5.337
0.393,0.062,0.280,-5.337
0.386,0.058,0.284,-5.337
0.372,0.060,0.287,-5.337
0.366,0.068,0.290,-5.337
0.400,0.067,0.292,-5.337
0.423,0.064,0.289,-5.337
0.413,0.063,0.283,-5.337
0.358,0.067,0.278,-5.337
0.369,0.063,0.280,-5.337
0.317,0.065,0.284,-5.337
0.238,0.066,0.282,-5.337
0.248,0.064,0.279,-5.337
0.311,0.065,0.279,-5.337
0.292,0.062,0.280,-5.337
0.193,0.064,0.284,-5.337
0.168,0.066,0.285,-5.337
0.245,0.066,0.281,-5.337
0.409,0.063,0.282,-5.337
0.403,0.065,0.281,-5.337
0.290,0.066,0.280,-5.337
0.298,0.063,0.279,-5.337
0.375,0.060,0.286,-5.337
0.380,0.059,0.288,-5.337
0.314,0.062,0.286,-5.337
0.302,0.066,0.283,-5.337
0.349,0.067,0.283,-5.337
0.305,0.065,0.283,-5.337
0.241,0.066,0.285,-5.337
0.250,0.067,0.282,-5.337
0.291,0.064,0.281,-5.337
0.354,0.062,0.284,-5.337
0.364,0.064,0.281,-5.337
0.347,0.062,0.281,-5.337
0.355,0.064,0.283,-5.337
0.405,0.061,0.287,-5.337
0.448,0.060,0.291,-5.337
0.394,0.065,0.286,-5.337
0.432,0.064,0.280,-5.337
0.414,0.068,0.279,-5.337
0.347,0.066,0.278,-5.337
0.356,0.063,0.279,-5.337
0.364,0.066,0.274,-5.337
0.301,0.068,0.276,-5.337
0.294,0.065,0.279,-5.337
0.359,0.064,0.282,-5.337
0.381,0.064,0.282,-5.337
0.361,0.063,0.283,-5.337
0.384,0.065,0.285,-5.337
0.330,0.070,0.285,-5.337
0.299,0.067,0.282,-5.337
0.321,0.067,0.282,-5.337
0.294,0.067,0.283,-5.337
0.292,0.067,0.283,-5.337
0.313,0.063,0.286,-5.337
0.355,0.066,0.288,-5.337
0.427,0.062,0.290,-5.337
0.407,0.059,0.290,-5.337
0.267,0.063,0.284,-5.337
0.215,0.068,0.281,-5.337
0.228,0.074,0.285,-5.337
0.312,0.072,0.289,-5.337
0.337,0.067,0.287,-5.337
0.309,0.067,0.284,-5.337
0.378,0.064,0.282,-5.337
0.437,0.061,0.278,-5.337
0.387,0.065,0.276,-5.337
0.370,0.066,0.278,-5.337
0.407,0.065,0.283,-5.337
0.368,0.067,0.286,-5.337
0.341,0.065,0.284,-5.337
0.329,0.064,0.280,-5.337
0.335,0.066,0.280,-5.337
0.318,0.066,0.282,-5.337
0.293,0.066,0.283,-5.337
0.270,0.068,0.283,-5.337
0.244,0.071,0.282,-5.337
0.296,0.064,0.279,-5.337
0.342,0.059,0.282,-5.337
0.291,0.062,0.287,-5.337
0.266,0.064,0.289,-5.337
0.287,0.065,0.285,-5.337
0.447,0.061,0.280,-5.337
0.437,0.060,0.278,-5.337
0.306,0.061,0.276,-5.337
0.304,0.065,0.284,-5.337
0.327,0.065,0.287,-5.337
0.323,0.064,0.287,-5.337
0.279,0.061,0.286,-5.337
0.235,0.062,0.287,-5.337
0.234,0.063,0.287,-5.337
0.300,0.062,0.285,-5.337
0.255,0.064,0.282,-5.337
0.227,0.062,0.282,-5.337
0.268,0.058,0.283,-5.337
0.326,0.057,0.284,-5.337
0.327,0.057,0.285,-5.337
0.337,0.060,0.285,-5.337
0.337,0.058,0.286,-5.337
0.345,0.059,0.284,-5.337
0.337,0.057,0.279,-5.337
0.319,0.058,0.279,-5.337
0.256,0.062,0.282,-5.337
0.246,0.062,0.283,-5.337
0.319,0.058,0.283,-5.337
0.318,0.058,0.282,-5.337
0.280,0.057,0.281,-5.337
0.249,0.055,0.281,-5.337
0.289,0.056,0.282,-5.337
0.210,0.058,0.282,-5.337
0.204,0.060,0.283,-5.337
0.241,0.057,0.286,-5.337
0.307,0.053,0.285,-5.337
0.368,0.054,0.282,-5.337
0.342,0.058,0.281,-5.337
0.338,0.053,0.281,-5.337
0.350,0.053,0.280,-5.337
0.383,0.050,0.278,-5.337
0.365,0.055,0.279,-5.337
0.347,0.058,0.279,-5.337
0.337,0.058,0.284,-5.337
0.287,0.058,0.284,-5.337
0.247,0.054,0.285,-5.337
0.271,0.054,0.286,-5.337
0.261,0.055,0.285,-5.337
0.223,0.056,0.286,-5.337
0.203,0.055,0.287,-5.337
0.127,0.057,0.286,-5.337
0.128,0.058,0.278,-5.337
0.286,0.053,0.274,-5.337
0.323,0.049,0.275,-5.337
0.236,0.052,0.279,-5.337
0.218,0.053,0.282,-5.337
0.298,0.054,0.282,-5.337
0.326,0.048,0.281,-5.337
0.270,0.051,0.281,-5.337
0.287,0.052,0.283,-5.337
0.335,0.050,0.284,-5.337
0.315,0.049,0.281,-5.337
0.223,0.052,0.280,-5.337
0.223,0.049,0.284,-5.337
0.253,0.048,0.286,-5.337
0.251,0.046,0.285,-5.337
0.254,0.046,0.282,-5.337
0.267,0.048,0.281,-5.337
0.278,0.045,0.275,-5.337
0.311,0.044,0.276,-5.337
0.274,0.045,0.280,-5.337
0.239,0.050,0.288,-5.337
0.246,0.051,0.291,-5.337
0.251,0.051,0.289,-5.337
0.219,0.049,0.283,-5.337
0.226,0.047,0.281,-5.337
0.275,0.048,0.281,-5.337
0.242,0.054,0.277,-5.337
0.134,0.051,0.275,-5.337
0.063,0.054,0.279,-5.337
0.051,0.055,0.283,-5.337
0.074,0.052,0.287,-5.337
0.167,0.048,0.288,-5.337
0.275,0.047,0.287,-5.337
0.301,0.047,0.282,-5.337
0.216,0.051,0.281,-5.337
0.127,0.052,0.282,-5.337
0.129,0.055,0.281,-5.337
0.163,0.052,0.278,-5.337
0.150,0.049,0.283,-5.337
0.157,0.049,0.286,-5.337
0.163,0.048,0.283,-5.337
0.233,0.049,0.282,-5.337
0.273,0.049,0.283,-5.337
0.226,0.050,0.282,-5.337
0.202,0.052,0.282,-5.337
0.191,0.050,0.283,-5.337
0.188,0.046,0.284,-5.337
0.169,0.046,0.286,-5.337
0.100,0.049,0.284,-5.337
0.110,0.050,0.286,-5.337
0.094,0.051,0.286,-5.337
0.021,0.046,0.283,-5.337
0.041,0.040,0.280,-5.337
0.176,0.041,0.281,-5.337
0.259,0.043,0.282,-5.337
0.288,0.042,0.279,-5.337
0.309,0.043,0.278,-5.337
0.279,0.040,0.279,-5.337
0.241,0.041,0.281,-5.337
0.215,0.043,0.281,-5.337
0.219,0.046,0.282,-5.337
0.181,0.043,0.284,-5.337
0.170,0.044,0.283,-5.337
0.202,0.048,0.280,-5.337
0.178,0.052,0.283,-5.337
0.114,0.052,0.286,-5.337
0.111,0.050,0.287,-5.337
0.226,0.041,0.287,-5.337
0.228,0.048,0.288,-5.337
0.158,0.050,0.285,-5.337
0.056,0.054,0.280,-5.337
0.078,0.048,0.276,-5.337
0.140,0.045,0.276,-5.337
0.146,0.046,0.279,-5.337
0.152,0.046,0.282,-5.337
0.165,0.047,0.281,-5.337
0.156,0.046,0.279,-5.337
0.230,0.045,0.280,-5.337
0.297,0.048,0.285,-5.337
0.219,0.049,0.288,-5.337
0.194,0.051,0.287,-5.337
0.223,0.049,0.288,-5.337
0.165,0.051,0.289,-5.337
0.127,0.047,0.286,-5.337
0.140,0.043,0.281,-5.337
0.196,0.046,0.278,-5.337
0.113,0.046,0.277,-5.337
0.149,0.043,0.278,-5.337
0.185,0.042,0.281,-5.337
0.115,0.046,0.279,-5.337
0.048,0.044,0.281,-5.337
0.046,0.044,0.283,-5.337
0.072,0.043,0.283,-5.337
0.149,0.042,0.285,-5.337
0.232,0.041,0.282,-5.337
0.182,0.043,0.282,-5.337
0.101,0.044,0.282,-5.337
0.136,0.046,0.282,-5.337
0.150,0.043,0.282,-5.337
0.089,0.041,0.279,-5.337
0.078,0.043,0.278,-5.337
0.099,0.041,0.279,-5.337
0.116,0.041,0.284,-5.337
0.139,0.040,0.290,-5.337
0.151,0.041,0.288,-5.337
0.134,0.043,0.285,-5.337
0.114,0.041,0.283,-5.337
0.095,0.040,0.281,-5.337
0.104,0.041,0.282,-5.337
0.038,0.041,0.283,-5.337
0.078,0.042,0.283,-5.337
0.167,0.040,0.278,-5.337
0.267,0.038,0.275,-5.337
0.256,0.038,0.276,-5.337
0.157,0.038,0.285,-5.337
0.141,0.037,0.285,-5.337
0.135,0.040,0.284,-5.337
0.204,0.041,0.283,-5.337
0.244,0.042,0.281,-5.337
0.149,0.043,0.280,-5.337
0.080,0.044,0.281,-5.337
0.145,0.041,0.281,-5.337
0.177,0.041,0.276,-5.337
0.129,0.046,0.274,-5.337
0.102,0.046,0.280,-5.337
0.108,0.043,0.288,-5.337
0.123,0.041,0.288,-5.337
0.144,0.044,0.290,-5.337
0.129,0.045,0.288,-5.337
0.130,0.044,0.283,-5.337
0.106,0.043,0.282,-5.337
0.080,0.046,0.282,-5.337
0.117,0.045,0.281,-5.337
0.145,0.044,0.282,-5.337
0.113,0.045,0.283,-5.337
0.083,0.043,0.282,-5.337
0.124,0.041,0.283,-5.337
0.152,0.040,0.281,-5.337
0.171,0.038,0.282,-5.337
0.215,0.040,0.283,-5.337
0.193,0.043,0.286,-5.337
0.076,0.046,0.286,-5.337
-0.002,0.042,0.283,-5.337
0.009,0.044,0.282,-5.337
0.026,0.045,0.281,-5.337
-0.001,0.046,0.283,-5.337
0.067,0.043,0.283,-5.337
0.064,0.042,0.281,-5.337
0.056,0.043,0.281,-5.337
0.071,0.046,0.281,-5.337
0.142,0.045,0.286,-5.337
0.179,0.042,0.284,-5.337
0.152,0.049,0.284,-5.337
0.113,0.046,0.282,-5.337
0.145,0.045,0.279,-5.337
0.132,0.050,0.281,-5.337
0.120,0.051,0.283,-5.337
0.073,0.047,0.282,-5.337
0.105,0.043,0.283,-5.337
0.152,0.043,0.283,-5.337
0.160,0.042,0.281,-5.337
0.172,0.041,0.278,-5.337
0.162,0.045,0.280,-5.337
0.112,0.045,0.284,-5.337
0.153,0.042,0.284,-5.337
0.172,0.040,0.284,-5.337
0.116,0.043,0.282,-5.337
0.099,0.045,0.280,-5.337
0.165,0.044,0.282,-5.337
0.163,0.045,0.290,-5.337
0.091,0.045,0.291,-5.337
0.114,0.046,0.289,-5.337
0.101,0.047,0.283,-5.337
0.002,0.050,0.280,-5.337
0.022,0.045,0.280,-5.337
0.089,0.044,0.281,-5.337
0.061,0.045,0.284,-5.337
0.033,0.044,0.284,-5.337
0.020,0.045,0.282,-5.337
-0.016,0.049,0.284,-5.337
0.043,0.045,0.284,-5.337
0.173,0.042,0.282,-5.337
0.170,0.044,0.280,-5.337
0.195,0.044,0.277,-5.337
0.183,0.045,0.275,-5.337
0.173,0.042,0.275,-5.337
0.100,0.045,0.280,-5.337
-0.016,0.045,0.282,-5.337
0.041,0.043,0.287,-5.337
0.112,0.045,0.285,-5.337
0.156,0.044,0.287,-5.337
0.140,0.045,0.284,-5.337
0.089,0.046,0.282,-5.337
0.038,0.043,0.282,-5.337
0.049,0.042,0.285,-5.337
0.098,0.040,0.282,-5.337
0.110,0.041,0.282,-5.337
0.107,0.038,0.280,-5.337
0.103,0.046,0.283,-5.337
0.076,0.048,0.286,-5.337
0.066,0.045,0.288,-5.337
0.079,0.043,0.284,-5.337
0.047,0.046,0.281,-5.337
-0.011,0.050,0.282,-5.337
-0.082,0.049,0.283,-5.337
0.014,0.044,0.284,-5.337
0.126,0.046,0.281,-5.337
0.103,0.046,0.278,-5.337
0.140,0.042,0.277,-5.337
0.156,0.042,0.283,-5.337
0.121,0.043,0.286,-5.337
0.066,0.047,0.286,-5.337
0.092,0.047,0.283,-5.337
0.097,0.046,0.283,-5.337
0.091,0.047,0.282,-5.337
0.104,0.048,0.281,-5.337
0.095,0.046,0.280,-5.337
0.061,0.050,0.281,-5.337
0.078,0.045,0.284,-5.337
0.201,0.045,0.288,-5.337
0.235,0.048,0.286,-5.337
0.172,0.052,0.281,-5.337
0.160,0.050,0.282,-5.337
0.148,0.047,0.284,-5.337
0.139,0.047,0.283,-5.337
0.105,0.051,0.281,-5.337
0.078,0.056,0.281,-5.337
0.099,0.051,0.283,-5.337
0.138,0.047,0.284,-5.337
0.124,0.050,0.285,-5.337
0.174,0.045,0.284,-5.337
0.188,0.041,0.284,-5.337
0.185,0.041,0.284,-5.337
0.217,0.041,0.279,-5.337
0.209,0.046,0.283,-5.337
0.219,0.046,0.287,-5.337
0.189,0.046,0.288,-5.337
0.133,0.049,0.282,-5.337
0.123,0.051,0.280,-5.337
0.163,0.051,0.280,-5.337
0.130,0.052,0.282,-5.337
0.081,0.052,0.283,-5.337
0.088,0.051,0.284,-5.337
0.128,0.051,0.283,-5.337
0.172,0.048,0.281,-5.337
0.225,0.050,0.279,-5.337
0.152,0.054,0.279,-5.337
0.030,0.053,0.281,-5.337
0.032,0.050,0.284,-5.337
0.116,0.047,0.287,-5.337
0.248,0.047,0.286,-5.337
0.250,0.049,0.283,-5.337
0.153,0.049,0.281,-5.337
0.054,0.050,0.282,-5.337
0.110,0.047,0.280,-5.337
0.155,0.051,0.285,-5.337
0.165,0.050,0.285,-5.337
0.293,0.046,0.283,-5.337
0.224,0.046,0.280,-5.337
0.118,0.048,0.282,-5.337
0.211,0.047,0.283,-5.337
0.261,0.046,0.281,-5.337
0.263,0.045,0.278,-5.337
0.166,0.049,0.278,-5.337
0.059,0.051,0.280,-5.337
0.098,0.051,0.281,-5.337
0.155,0.048,0.280,-5.337
0.156,0.049,0.281,-5.337
0.130,0.049,0.279,-5.337
0.125,0.052,0.280,-5.337
0.071,0.055,0.283,-5.337
0.042,0.056,0.283,-5.337
0.084,0.053,0.283,-5.337
0.168,0.053,0.280,-5.337
0.143,0.051,0.281,-5.337
0.183,0.048,0.279,-5.337
0.164,0.050,0.279,-5.337
0.148,0.052,0.278,-5.337
0.242,0.051,0.283,-5.337
0.319,0.050,0.286,-5.337
0.302,0.053,0.284,-5.337
0.254,0.052,0.282,-5.337
0.210,0.052,0.283,-5.337
0.203,0.054,0.281,-5.337
0.205,0.054,0.281,-5.337
0.257,0.052,0.280,-5.337
0.282,0.055,0.280,-5.337
0.205,0.055,0.284,-5.337
0.171,0.054,0.284,-5.337
0.204,0.054,0.283,-5.337
0.292,0.055,0.281,-5.337
0.311,0.056,0.282,-5.337
0.230,0.054,0.280,-5.337
0.249,0.056,0.279,-5.337
0.257,0.057,0.279,-5.337
0.217,0.059,0.282,-5.337
0.214,0.057,0.280,-5.337
0.285,0.056,0.278,-5.337
0.321,0.052,0.276,-5.337
0.222,0.055,0.280,-5.337
0.215,0.059,0.284,-5.337
0.227,0.060,0.284,-5.337
0.230,0.059,0.285,-5.337
0.182,0.062,0.287,-5.337
0.154,0.060,0.285,-5.337
0.210,0.060,0.285,-5.337
0.273,0.060,0.283,-5.337
0.230,0.061,0.283,-5.337
0.235,0.056,0.280,-5.337
0.278,0.050,0.278,-5.337
0.364,0.052,0.277,-5.337
0.362,0.058,0.279,-5.337
0.321,0.056,0.281,-5.337
0.310,0.056,0.282,-5.337
0.264,0.059,0.283,-5.337
0.207,0.060,0.282,-5.337
0.249,0.059,0.280,-5.337
0.312,0.059,0.282,-5.337
0.222,0.063,0.283,-5.337
0.174,0.060,0.280,-5.337
0.237,0.057,0.279,-5.337
0.240,0.057,0.277,-5.337
0.268,0.056,0.275,-5.337
0.275,0.058,0.278,-5.337
0.244,0.060,0.284,-5.337
0.243,0.058,0.287,-5.337
0.296,0.055,0.286,-5.337
0.215,0.057,0.284,-5.337
0.121,0.062,0.281,-5.337
0.168,0.058,0.282,-5.337
0.224,0.056,0.280,-5.337
0.232,0.057,0.281,-5.337
0.159,0.062,0.279,-5.337
0.138,0.063,0.280,-5.337
0.220,0.063,0.282,-5.337
0.241,0.061,0.281,-5.337
0.211,0.061,0.280,-5.337
0.257,0.063,0.280,-5.337
0.312,0.063,0.279,-5.337
0.285,0.063,0.278,-5.337
0.243,0.062,0.279,-5.337
0.181,0.065,0.280,-5.337
0.196,0.064,0.280,-5.337
0.364,0.061,0.282,-5.337
0.369,0.062,0.283,-5.337
0.332,0.063,0.285,-5.337
0.371,0.063,0.283,-5.337
0.348,0.062,0.281,-5.337
0.338,0.060,0.279,-5.337
0.375,0.058,0.278,-5.337
0.357,0.063,0.278,-5.337
0.337,0.064,0.279,-5.337
0.297,0.063,0.278,-5.337
0.276,0.065,0.275,-5.337
0.248,0.063,0.276,-5.337
0.287,0.068,0.277,-5.337
0.287,0.071,0.282,-5.337
0.328,0.067,0.284,-5.337
0.338,0.065,0.283,-5.337
0.353,0.067,0.280,-5.337
0.232,0.070,0.282,-5.337
0.200,0.066,0.282,-5.337
0.291,0.066,0.281,-5.337
0.274,0.067,0.276,-5.337
0.240,0.066,0.275,-5.337
0.254,0.067,0.277,-5.337
0.274,0.063,0.277,-5.337
0.316,0.060,0.280,-5.337
0.327,0.063,0.282,-5.337
0.249,0.062,0.280,-5.337
0.279,0.059,0.277,-5.337
0.405,0.056,0.278,-5.337
0.406,0.060,0.279,-5.337
0.287,0.061,0.277,-5.337
0.211,0.064,0.278,-5.337
0.285,0.059,0.281,-5.337
0.288,0.062,0.284,-5.337
0.239,0.063,0.286,-5.337
0.202,0.062,0.284,-5.337
0.180,0.062,0.283,-5.337
0.206,0.063,0.278,-5.337
0.233,0.065,0.279,-5.337
0.308,0.061,0.277,-5.337
0.292,0.060,0.276,-5.337
0.282,0.062,0.273,-5.337
0.343,0.063,0.276,-5.337
0.368,0.060,0.284,-5.337
0.355,0.057,0.289,-5.337
0.337,0.057,0.286,-5.337
0.380,0.060,0.281,-5.337
0.394,0.061,0.279,-5.337
0.416,0.058,0.278,-5.337
0.411,0.060,0.278,-5.337
0.410,0.062,0.281,-5.337
0.374,0.064,0.283,-5.337
0.307,0.068,0.283,-5.337
0.288,0.066,0.282,-5.337
0.317,0.065,0.280,-5.337
0.330,0.067,0.280,-5.337
0.390,0.064,0.282,-5.337
0.367,0.064,0.288,-5.337
0.296,0.065,0.286,-5.337
0.276,0.067,0.284,-5.337
0.239,0.066,0.280,-5.337
0.251,0.062,0.282,-5.337
0.321,0.059,0.280,-5.337
0.354,0.058,0.279,-5.337
0.322,0.061,0.278,-5.337
0.329,0.060,0.281,-5.337
0.342,0.059,0.281,-5.337
0.346,0.064,0.279,-5.337
0.302,0.067,0.280,-5.337
0.249,0.064,0.283,-5.337
0.238,0.063,0.284,-5.337
0.273,0.063,0.283,-5.337
0.294,0.064,0.281,-5.337
0.290,0.066,0.282,-5.337
0.321,0.065,0.283,-5.337
0.347,0.066,0.281,-5.337
0.376,0.067,0.280,-5.337
0.413,0.065,0.280,-5.337
0.371,0.067,0.283,-5.337
0.305,0.065,0.284,-5.337
0.330,0.068,0.283,-5.337
0.344,0.069,0.283,-5.337
0.399,0.068,0.282,-5.337
0.375,0.069,0.280,-5.337
0.318,0.067,0.278,-5.337
0.267,0.069,0.279,-5.337
0.303,0.070,0.283,-5.337
0.338,0.068,0.285,-5.337
0.347,0.066,0.284,-5.337
0.367,0.067,0.284,-5.337
0.434,0.066,0.283,-5.337
0.402,0.062,0.281,-5.337
0.396,0.063,0.281,-5.337
0.415,0.063,0.282,-5.337
0.363,0.066,0.282,-5.337
0.385,0.065,0.282,-5.337
0.360,0.064,0.283,-5.337
0.328,0.062,0.282,-5.337
0.295,0.062,0.282,-5.337
0.234,0.062,0.283,-5.337
0.285,0.059,0.282,-5.337
0.290,0.062,0.281,-5.337
0.130,0.064,0.278,-5.337
0.168,0.060,0.277,-5.337
0.239,0.061,0.277,-5.337
0.226,0.062,0.275,-5.337
0.260,0.062,0.276,-5.337
0.300,0.059,0.280,-5.337
0.262,0.058,0.280,-5.337
0.302,0.056,0.281,-5.337
0.396,0.056,0.283,-5.337
0.367,0.059,0.282,-5.337
0.326,0.057,0.281,-5.337
0.309,0.057,0.283,-5.337
0.295,0.059,0.280,-5.337
0.326,0.058,0.283,-5.337
0.366,0.058,0.287,-5.337
0.419,0.055,0.285,-5.337
0.437,0.056,0.283,-5.337
0.393,0.058,0.281,-5.337
0.369,0.058,0.281,-5.337
0.343,0.055,0.280,-5.337
0.343,0.053,0.279,-5.337
0.291,0.052,0.278,-5.337
0.332,0.050,0.281,-5.337
0.367,0.049,0.286,-5.337
0.390,0.051,0.286,-5.337
0.411,0.049,0.282,-5.337
0.403,0.051,0.276,-5.337
0.377,0.048,0.274,-5.337
0.283,0.052,0.277,-5.337
0.238,0.049,0.283,-5.337
0.315,0.050,0.288,-5.337
0.335,0.053,0.287,-5.337
0.294,0.053,0.284,-5.337
0.213,0.054,0.281,-5.337
0.233,0.050,0.279,-5.337
0.277,0.048,0.279,-5.337
0.318,0.050,0.283,-5.337
0.310,0.048,0.287,-5.337
0.236,0.051,0.285,-5.337
0.213,0.052,0.284,-5.337
0.221,0.054,0.279,-5.337
0.167,0.050,0.279,-5.337
0.210,0.046,0.278,-5.337
0.261,0.047,0.278,-5.337
0.277,0.049,0.281,-5.337
0.279,0.048,0.284,-5.337
0.255,0.051,0.283,-5.337
0.270,0.056,0.280,-5.337
0.270,0.057,0.280,-5.337
0.244,0.059,0.284,-5.337
0.283,0.056,0.287,-5.337
0.344,0.054,0.284,-5.337
0.328,0.053,0.279,-5.337
0.312,0.053,0.277,-5.337
0.309,0.051,0.279,-5.337
0.240,0.053,0.281,-5.337
0.166,0.055,0.283,-5.337
0.163,0.053,0.283,-5.337
0.185,0.051,0.284,-5.337
0.178,0.049,0.278,-5.337
0.204,0.051,0.279,-5.337
0.231,0.049,0.280,-5.337
0.200,0.048,0.283,-5.337
0.197,0.049,0.284,-5.337
0.162,0.050,0.286,-5.337
0.175,0.049,0.284,-5.337
0.307,0.044,0.282,-5.337
0.375,0.043,0.280,-5.337
0.320,0.044,0.279,-5.337
0.308,0.044,0.279,-5.337
0.279,0.047,0.283,-5.337
0.267,0.046,0.285,-5.337
0.271,0.043,0.285,-5.337
0.310,0.045,0.283,-5.337
0.280,0.048,0.282,-5.337
0.222,0.046,0.280,-5.337
0.263,0.040,0.276,-5.337
0.275,0.043,0.276,-5.337
0.215,0.041,0.278,-5.337
0.175,0.038,0.281,-5.337
0.180,0.040,0.283,-5.337
0.166,0.043,0.284,-5.337
0.206,0.045,0.281,-5.337
0.275,0.044,0.281,-5.337
0.257,0.040,0.282,-5.337
0.210,0.041,0.284,-5.337
0.205,0.041,0.282,-5.337
0.234,0.044,0.282,-5.337
0.274,0.045,0.283,-5.337
0.217,0.046,0.284,-5.337
0.088,0.043,0.287,-5.337
0.120,0.042,0.285,-5.337
0.203,0.042,0.282,-5.337
0.245,0.043,0.281,-5.337
0.188,0.043,0.280,-5.337
0.178,0.041,0.280,-5.337
0.180,0.041,0.278,-5.337
0.220,0.041,0.277,-5.337
0.224,0.039,0.282,-5.337
0.222,0.041,0.286,-5.337
0.239,0.040,0.284,-5.337
0.260,0.041,0.280,-5.337
0.210,0.040,0.282,-5.337
0.146,0.043,0.284,-5.337
0.116,0.047,0.285,-5.337
0.116,0.048,0.283,-5.337
0.082,0.045,0.281,-5.337
0.143,0.040,0.278,-5.337
0.174,0.042,0.278,-5.337
0.204,0.040,0.276,-5.337
0.262,0.039,0.280,-5.337
0.239,0.043,0.285,-5.337
0.105,0.049,0.286,-5.337
0.158,0.046,0.282,-5.337
0.280,0.041,0.279,-5.337
0.210,0.046,0.281,-5.337
0.109,0.047,0.286,-5.337
0.150,0.044,0.288,-5.337
0.185,0.040,0.285,-5.337
0.132,0.041,0.285,-5.337
0.081,0.046,0.281,-5.337
0.129,0.042,0.278,-5.337
0.135,0.039,0.276,-5.337
0.150,0.042,0.277,-5.337
0.170,0.042,0.279,-5.337
0.167,0.042,0.283,-5.337
0.213,0.040,0.282,-5.337
0.281,0.037,0.278,-5.337
0.210,0.036,0.278,-5.337
0.194,0.037,0.283,-5.337
0.253,0.039,0.285,-5.337
0.225,0.044,0.288,-5.337
0.175,0.044,0.288,-5.337
0.191,0.042,0.285,-5.337
0.196,0.043,0.284,-5.337
0.162,0.040,0.282,-5.337
0.114,0.040,0.282,-5.337
0.138,0.043,0.284,-5.337
0.091,0.041,0.287,-5.337
0.086,0.039,0.286,-5.337
0.072,0.038,0.284,-5.337
0.116,0.037,0.281,-5.337
0.148,0.038,0.284,-5.337
0.131,0.038,0.286,-5.337
0.181,0.041,0.287,-5.337
0.174,0.036,0.284,-5.337
0.149,0.034,0.283,-5.337
0.169,0.036,0.282,-5.337
0.176,0.041,0.285,-5.337
0.192,0.041,0.283,-5.337
0.148,0.042,0.281,-5.337
0.161,0.040,0.278,-5.337
0.142,0.042,0.280,-5.337
0.052,0.044,0.282,-5.337
0.017,0.045,0.284,-5.337
0.028,0.041,0.281,-5.337
0.090,0.041,0.272,-5.337
0.034,0.040,0.271,-5.337
-0.038,0.040,0.275,-5.337
-0.028,0.041,0.277,-5.337
-0.021,0.043,0.279,-5.337
0.063,0.037,0.283,-5.337
0.125,0.033,0.286,-5.337
0.117,0.037,0.287,-5.337
0.084,0.041,0.284,-5.337
0.120,0.040,0.283,-5.337
0.156,0.040,0.280,-5.337
0.147,0.042,0.278,-5.337
0.117,0.037,0.275,-5.337
0.047,0.039,0.275,-5.337
-0.056,0.040,0.279,-5.337
-0.063,0.040,0.279,-5.337
-0.000,0.037,0.278,-5.337
0.092,0.035,0.280,-5.337
0.162,0.031,0.286,-5.337
0.110,0.035,0.287,-5.337
0.132,0.037,0.281,-5.337
0.189,0.040,0.278,-5.337
0.147,0.041,0.280,-5.337
0.128,0.038,0.281,-5.337
0.122,0.032,0.280,-5.337
0.117,0.034,0.280,-5.337
0.061,0.042,0.281,-5.337
0.052,0.040,0.280,-5.337
0.063,0.041,0.281,-5.337
0.132,0.041,0.281,-5.337
0.124,0.040,0.280,-5.337
0.164,0.038,0.279,-5.337
0.117,0.041,0.280,-5.337
0.085,0.038,0.284,-5.337
0.110,0.037,0.286,-5.337
0.108,0.039,0.285,-5.337
0.106,0.042,0.285,-5.337
0.134,0.036,0.284,-5.337
0.155,0.031,0.283,-5.337
0.154,0.033,0.279,-5.337
0.124,0.037,0.276,-5.337
0.115,0.040,0.280,-5.337
0.086,0.038,0.284,-5.337
0.124,0.036,0.284,-5.337
0.141,0.034,0.282,-5.337
0.109,0.035,0.282,-5.337
0.123,0.036,0.282,-5.337
0.078,0.039,0.282,-5.337
0.060,0.035,0.279,-5.337
0.055,0.036,0.279,-5.337
0.055,0.042,0.279,-5.337
0.053,0.041,0.280,-5.337
0.067,0.040,0.278,-5.337
0.038,0.038,0.280,-5.337
0.156,0.036,0.276,-5.337
0.231,0.038,0.273,-5.337
0.167,0.035,0.274,-5.337
0.165,0.035,0.281,-5.337
0.223,0.035,0.287,-5.337
0.130,0.038,0.284,-5.337
0.023,0.040,0.284,-5.337
0.041,0.039,0.285,-5.337
0.086,0.040,0.283,-5.337
0.076,0.039,0.283,-5.337
0.089,0.039,0.285,-5.337
0.042,0.044,0.288,-5.337
-0.004,0.043,0.287,-5.337
0.020,0.037,0.283,-5.337
0.109,0.036,0.282,-5.337
0.097,0.038,0.282,-5.337
0.129,0.036,0.282,-5.337
0.188,0.032,0.278,-5.337
0.196,0.038,0.280,-5.337
0.125,0.042,0.284,-5.337
0.084,0.040,0.284,-5.337
0.079,0.039,0.281,-5.337
0.083,0.034,0.278,-5.337
0.094,0.034,0.278,-5.337
0.070,0.034,0.282,-5.337
0.016,0.037,0.285,-5.337
0.018,0.035,0.285,-5.337
0.083,0.030,0.285,-5.337
0.115,0.030,0.283,-5.337
0.107,0.032,0.280,-5.337
0.110,0.033,0.282,-5.337
0.149,0.028,0.285,-5.337
0.175,0.029,0.284,-5.337
0.153,0.031,0.280,-5.337
0.085,0.033,0.279,-5.337
0.093,0.034,0.281,-5.337
0.118,0.032,0.281,-5.337
0.121,0.032,0.279,-5.337
0.091,0.035,0.276,-5.337
0.111,0.039,0.277,-5.337
0.034,0.038,0.280,-5.337
0.009,0.034,0.284,-5.337
-0.034,0.034,0.285,-5.337
-0.048,0.036,0.284,-5.337
0.039,0.036,0.279,-5.337
0.053,0.038,0.274,-5.337
0.027,0.038,0.275,-5.337
0.040,0.037,0.282,-5.337
0.068,0.035,0.288,-5.337
0.129,0.037,0.290,-5.337
0.145,0.037,0.285,-5.337
0.111,0.038,0.285,-5.337
0.112,0.033,0.283,-5.337
0.083,0.035,0.280,-5.337
0.048,0.038,0.281,-5.337
0.042,0.039,0.284,-5.337
0.045,0.035,0.284,-5.337
0.055,0.033,0.284,-5.337
0.090,0.034,0.284,-5.337
0.099,0.037,0.281,-5.337
0.127,0.035,0.282,-5.337
0.145,0.035,0.281,-5.337
0.100,0.039,0.280,-5.337
0.045,0.045,0.283,-5.337
0.058,0.042,0.284,-5.337
0.030,0.040,0.282,-5.337
0.101,0.037,0.282,-5.337
0.144,0.040,0.282,-5.337
0.135,0.043,0.282,-5.337
0.107,0.041,0.284,-5.337
0.123,0.039,0.287,-5.337
0.098,0.040,0.287,-5.337
0.104,0.041,0.283,-5.337
0.031,0.044,0.281,-5.337
0.011,0.042,0.283,-5.337
-0.013,0.045,0.283,-5.337
-0.016,0.042,0.280,-5.337
0.076,0.042,0.280,-5.337
0.158,0.041,0.278,-5.337
0.186,0.042,0.280,-5.337
0.180,0.042,0.283,-5.337
0.160,0.040,0.285,-5.337
0.163,0.042,0.284,-5.337
0.079,0.046,0.282,-5.337
0.082,0.043,0.282,-5.337
0.159,0.043,0.281,-5.337
0.234,0.039,0.282,-5.337
0.243,0.037,0.283,-5.337
0.206,0.040,0.281,-5.337
0.148,0.044,0.280,-5.337
0.162,0.044,0.281,-5.337
0.165,0.044,0.280,-5.337
0.145,0.046,0.280,-5.337
0.165,0.046,0.282,-5.337
0.170,0.046,0.285,-5.337
0.151,0.045,0.282,-5.337
0.100,0.044,0.279,-5.337
0.109,0.045,0.281,-5.337
0.229,0.041,0.284,-5.337
0.190,0.045,0.283,-5.337
0.148,0.046,0.282,-5.337
0.130,0.047,0.282,-5.337
0.137,0.045,0.282,-5.337
0.135,0.045,0.280,-5.337
0.138,0.050,0.284,-5.337
0.204,0.043,0.286,-5.337
0.241,0.043,0.286,-5.337
0.201,0.044,0.283,-5.337
0.188,0.046,0.281,-5.337
0.153,0.045,0.281,-5.337
0.156,0.043,0.281,-5.337
0.189,0.044,0.282,-5.337
0.234,0.045,0.280,-5.337
0.235,0.042,0.280,-5.337
0.168,0.046,0.281,-5.337
0.090,0.050,0.284,-5.337
0.094,0.048,0.284,-5.337
0.206,0.041,0.279,-5.337
0.235,0.041,0.277,-5.337
0.236,0.043,0.284,-5.337
0.232,0.045,0.286,-5.337
0.196,0.047,0.285,-5.337
0.143,0.046,0.280,-5.337
0.201,0.045,0.282,-5.337
0.230,0.046,0.281,-5.337
0.229,0.046,0.280,-5.337
0.155,0.048,0.278,-5.337
0.152,0.049,0.275,-5.337
0.252,0.044,0.276,-5.337
0.239,0.043,0.282,-5.337
0.141,0.045,0.283,-5.337
0.146,0.052,0.285,-5.337
0.173,0.052,0.286,-5.337
0.148,0.052,0.287,-5.337
0.072,0.052,0.282,-5.337
0.073,0.051,0.278,-5.337
0.139,0.050,0.280,-5.337
0.124,0.047,0.285,-5.337
0.146,0.044,0.286,-5.337
0.251,0.046,0.282,-5.337
0.204,0.051,0.281,-5.337
0.170,0.051,0.281,-5.337
0.239,0.045,0.282,-5.337
0.323,0.045,0.280,-5.337
0.321,0.048,0.280,-5.337
0.287,0.049,0.281,-5.337
0.198,0.054,0.278,-5.337
0.158,0.055,0.276,-5.337
0.175,0.054,0.279,-5.337
0.138,0.053,0.285,-5.337
0.161,0.050,0.288,-5.337
0.245,0.046,0.288,-5.337
0.204,0.052,0.286,-5.337
0.083,0.054,0.284,-5.337
0.124,0.055,0.285,-5.337
0.213,0.053,0.283,-5.337
0.167,0.058,0.279,-5.337
0.226,0.055,0.277,-5.337
0.338,0.053,0.274,-5.337
0.348,0.052,0.274,-5.337
0.306,0.051,0.278,-5.337
0.278,0.051,0.285,-5.337
0.274,0.050,0.286,-5.337
0.277,0.052,0.284,-5.337
0.244,0.053,0.282,-5.337
0.373,0.051,0.283,-5.337
0.435,0.050,0.282,-5.337
0.321,0.052,0.284,-5.337
0.202,0.053,0.280,-5.337
0.201,0.056,0.279,-5.337
0.285,0.052,0.278,-5.337
0.279,0.050,0.278,-5.337
0.182,0.054,0.279,-5.337
0.183,0.056,0.283,-5.337
0.266,0.055,0.283,-5.337
0.272,0.055,0.282,-5.337
0.202,0.053,0.283,-5.337
0.215,0.050,0.281,-5.337
0.259,0.050,0.278,-5.337
0.259,0.053,0.277,-5.337
0.300,0.056,0.280,-5.337
0.366,0.054,0.277,-5.337
0.340,0.052,0.276,-5.337
0.296,0.050,0.280,-5.337
0.323,0.054,0.283,-5.337
0.358,0.058,0.281,-5.337
0.385,0.058,0.280,-5.337
0.359,0.054,0.278,-5.337
0.367,0.051,0.278,-5.337
0.371,0.050,0.282,-5.337
0.332,0.054,0.287,-5.337
0.252,0.055,0.287,-5.337
0.260,0.053,0.286,-5.337
0.323,0.054,0.283,-5.337
0.327,0.054,0.283,-5.337
0.365,0.050,0.279,-5.337
0.341,0.053,0.276,-5.337
0.285,0.054,0.279,-5.337
0.301,0.053,0.281,-5.337
0.330,0.056,0.279,-5.337
0.290,0.055,0.273,-5.337
0.243,0.055,0.276,-5.337
0.231,0.055,0.283,-5.337
0.246,0.053,0.287,-5.337
0.253,0.054,0.284,-5.337
0.244,0.057,0.283,-5.337
0.301,0.055,0.282,-5.337
0.299,0.054,0.279,-5.337
0.363,0.052,0.275,-5.337
0.357,0.053,0.276,-5.337
0.287,0.056,0.279,-5.337
0.214,0.062,0.282,-5.337
0.248,0.061,0.281,-5.337
0.354,0.057,0.283,-5.337
0.346,0.056,0.285,-5.337
0.305,0.057,0.286,-5.337
0.317,0.055,0.285,-5.337
0.336,0.054,0.282,-5.337
0.357,0.055,0.281,-5.337
0.341,0.057,0.280,-5.337
0.293,0.057,0.278,-5.337
0.301,0.059,0.275,-5.337
0.272,0.057,0.277,-5.337
0.300,0.059,0.282,-5.337
0.348,0.059,0.284,-5.337
0.241,0.061,0.281,-5.337
0.267,0.062,0.281,-5.337
0.346,0.060,0.280,-5.337
0.402,0.056,0.280,-5.337
0.344,0.055,0.280,-5.337
0.268,0.060,0.284,-5.337
0.224,0.062,0.283,-5.337
0.258,0.065,0.280,-5.337
0.326,0.065,0.275,-5.337
0.326,0.066,0.272,-5.337
0.299,0.067,0.275,-5.337
0.266,0.067,0.282,-5.337
0.315,0.068,0.284,-5.337
0.332,0.067,0.281,-5.337
0.326,0.069,0.280,-5.337
0.298,0.070,0.279,-5.337
0.305,0.074,0.280,-5.337
0.296,0.072,0.280,-5.337
0.315,0.068,0.281,-5.337
0.363,0.065,0.281,-5.337
0.348,0.068,0.283,-5.337
0.307,0.069,0.279,-5.337
0.286,0.065,0.278,-5.337
0.331,0.068,0.277,-5.337
0.328,0.069,0.282,-5.337
0.308,0.062,0.283,-5.337
0.287,0.060,0.280,-5.337
0.213,0.061,0.279,-5.337
0.162,0.066,0.286,-5.337
0.262,0.063,0.287,-5.337
0.400,0.060,0.282,-5.337
0.434,0.061,0.278,-5.337
0.366,0.063,0.276,-5.337
0.301,0.068,0.273,-5.337
0.300,0.067,0.274,-5.337
0.286,0.065,0.280,-5.337
0.258,0.063,0.283,-5.337
0.252,0.063,0.284,-5.337
0.298,0.061,0.280,-5.337
0.310,0.063,0.274,-5.337
0.356,0.062,0.273,-5.337
0.393,0.059,0.276,-5.337
0.368,0.059,0.279,-5.337
0.305,0.061,0.279,-5.337
0.327,0.061,0.279,-5.337
0.310,0.063,0.285,-5.337
0.260,0.063,0.286,-5.337
0.272,0.064,0.284,-5.337
0.299,0.063,0.280,-5.337
0.296,0.064,0.276,-5.337
0.358,0.062,0.275,-5.337
0.356,0.064,0.279,-5.337
0.342,0.061,0.283,-5.337
0.460,0.057,0.286,-5.337
0.481,0.061,0.281,-5.337
0.417,0.065,0.280,-5.337
0.348,0.069,0.282,-5.337
0.338,0.066,0.283,-5.337
0.296,0.067,0.283,-5.337
0.267,0.066,0.282,-5.337
0.214,0.063,0.280,-5.337
0.265,0.061,0.275,-5.337
0.311,0.059,0.275,-5.337
0.281,0.061,0.279,-5.337
0.252,0.061,0.278,-5.337
0.308,0.058,0.277,-5.337
0.422,0.058,0.282,-5.337
0.391,0.059,0.284,-5.337
0.363,0.058,0.281,-5.337
0.355,0.061,0.278,-5.337
0.334,0.061,0.275,-5.337
0.326,0.058,0.274,-5.337
0.297,0.059,0.281,-5.337
0.201,0.062,0.283,-5.337
0.219,0.060,0.279,-5.337
0.280,0.063,0.281,-5.337
0.247,0.062,0.283,-5.337
0.303,0.058,0.281,-5.337
0.357,0.058,0.280,-5.337
0.320,0.058,0.281,-5.337
0.314,0.054,0.282,-5.337
0.350,0.056,0.283,-5.337
0.347,0.058,0.283,-5.337
0.299,0.057,0.285,-5.337
0.260,0.057,0.288,-5.337
0.142,0.058,0.286,-5.337
0.155,0.057,0.281,-5.337
0.228,0.056,0.281,-5.337
0.267,0.051,0.280,-5.337
0.315,0.051,0.276,-5.337
0.342,0.050,0.277,-5.337
0.294,0.056,0.284,-5.337
0.226,0.054,0.283,-5.337
0.252,0.051,0.280,-5.337
0.315,0.050,0.280,-5.337
0.236,0.053,0.283,-5.337
0.224,0.052,0.282,-5.337
0.311,0.049,0.280,-5.337
0.375,0.049,0.278,-5.337
0.315,0.055,0.277,-5.337
0.313,0.053,0.281,-5.337
0.322,0.053,0.281,-5.337
0.260,0.052,0.279,-5.337
0.304,0.052,0.276,-5.337
0.287,0.052,0.279,-5.337
0.271,0.054,0.280,-5.337
0.239,0.054,0.282,-5.337
0.234,0.056,0.284,-5.337
0.223,0.059,0.286,-5.337
0.279,0.055,0.284,-5.337
0.179,0.056,0.282,-5.337
0.170,0.050,0.281,-5.337
0.183,0.054,0.285,-5.337
0.120,0.057,0.285,-5.337
0.108,0.052,0.283,-5.337
0.165,0.048,0.282,-5.337
0.225,0.049,0.279,-5.337
0.224,0.053,0.281,-5.337
0.225,0.052,0.283,-5.337
0.242,0.047,0.283,-5.337
0.217,0.048,0.281,-5.337
0.239,0.045,0.281,-5.337
0.257,0.046,0.282,-5.337
0.289,0.047,0.282,-5.337
0.340,0.044,0.277,-5.337
0.395,0.044,0.277,-5.337
0.335,0.045,0.280,-5.337
0.266,0.048,0.285,-5.337
0.253,0.046,0.285,-5.337
0.290,0.048,0.281,-5.337
0.311,0.047,0.278,-5.337
0.219,0.052,0.282,-5.337
0.114,0.050,0.283,-5.337
0.144,0.050,0.282,-5.337
0.218,0.046,0.282,-5.337
0.289,0.048,0.282,-5.337
0.315,0.045,0.283,-5.337
0.329,0.044,0.285,-5.337
0.376,0.043,0.284,-5.337
0.339,0.048,0.283,-5.337
0.272,0.044,0.282,-5.337
0.244,0.044,0.283,-5.337
0.186,0.048,0.284,-5.337
0.192,0.050,0.282,-5.337
0.246,0.044,0.279,-5.337
0.262,0.041,0.280,-5.337
0.246,0.040,0.287,-5.337
0.290,0.042,0.287,-5.337
0.226,0.048,0.283,-5.337
0.144,0.049,0.278,-5.337
0.211,0.047,0.281,-5.337
0.211,0.048,0.281,-5.337
0.095,0.051,0.279,-5.337
0.084,0.049,0.281,-5.337
0.173,0.054,0.282,-5.337
0.200,0.054,0.282,-5.337
0.163,0.051,0.283,-5.337
0.146,0.049,0.279,-5.337
0.159,0.049,0.278,-5.337
0.156,0.048,0.283,-5.337
0.195,0.048,0.284,-5.337
0.156,0.048,0.280,-5.337
0.127,0.048,0.279,-5.337
0.112,0.049,0.282,-5.337
0.123,0.052,0.284,-5.337
0.139,0.049,0.284,-5.337
0.159,0.045,0.284,-5.337
0.215,0.042,0.285,-5.337
0.292,0.042,0.284,-5.337
0.254,0.046,0.283,-5.337
0.197,0.045,0.281,-5.337
0.148,0.046,0.285,-5.337
0.117,0.043,0.285,-5.337
0.180,0.040,0.283,-5.337
0.170,0.038,0.280,-5.337
0.190,0.039,0.280,-5.337
0.135,0.041,0.280,-5.337
0.073,0.044,0.280,-5.337
0.153,0.040,0.279,-5.337
0.236,0.037,0.282,-5.337
0.220,0.039,0.282,-5.337
0.159,0.042,0.280,-5.337
0.089,0.046,0.280,-5.337
0.043,0.045,0.283,-5.337
0.089,0.043,0.284,-5.337
0.130,0.043,0.280,-5.337
0.139,0.042,0.280,-5.337
0.197,0.042,0.284,-5.337
0.184,0.040,0.287,-5.337
0.139,0.038,0.287,-5.337
0.117,0.040,0.286,-5.337
0.092,0.044,0.285,-5.337
0.133,0.043,0.283,-5.337
0.187,0.040,0.277,-5.337
0.223,0.039,0.278,-5.337
0.224,0.038,0.283,-5.337
0.227,0.038,0.286,-5.337
0.209,0.040,0.282,-5.337
0.170,0.041,0.277,-5.337
0.102,0.041,0.280,-5.337
0.096,0.045,0.282,-5.337
0.194,0.041,0.285,-5.337
0.183,0.041,0.289,-5.337
0.126,0.042,0.288,-5.337
0.146,0.039,0.290,-5.337
0.177,0.038,0.285,-5.337
0.146,0.040,0.278,-5.337
0.089,0.041,0.274,-5.337
0.167,0.041,0.276,-5.337
0.217,0.040,0.279,-5.337
0.197,0.039,0.278,-5.337
0.174,0.036,0.280,-5.337
0.195,0.037,0.282,-5.337
0.231,0.036,0.283,-5.337
0.252,0.036,0.283,-5.337
0.163,0.039,0.282,-5.337
0.044,0.040,0.283,-5.337
0.057,0.044,0.284,-5.337
0.069,0.043,0.282,-5.337
0.116,0.038,0.282,-5.337
0.175,0.039,0.283,-5.337
0.141,0.039,0.283,-5.337
0.040,0.044,0.285,-5.337
-0.022,0.042,0.288,-5.337
0.005,0.041,0.287,-5.337
0.087,0.038,0.282,-5.337
0.199,0.034,0.276,-5.337
0.196,0.038,0.277,-5.337
0.184,0.038,0.282,-5.337
0.187,0.039,0.281,-5.337
0.082,0.039,0.284,-5.337
0.100,0.036,0.288,-5.337
0.230,0.036,0.287,-5.337
0.200,0.036,0.280,-5.337
0.157,0.035,0.278,-5.337
0.157,0.035,0.280,-5.337
0.192,0.038,0.284,-5.337
0.134,0.040,0.285,-5.337
0.102,0.041,0.281,-5.337
0.134,0.039,0.281,-5.337
0.163,0.035,0.282,-5.337
0.164,0.035,0.282,-5.337
0.144,0.037,0.281,-5.337
0.111,0.039,0.280,-5.337
0.054,0.044,0.281,-5.337
-0.020,0.048,0.284,-5.337
-0.061,0.047,0.287,-5.337
0.049,0.040,0.285,-5.337
0.113,0.039,0.283,-5.337
0.075,0.040,0.285,-5.337
0.044,0.040,0.284,-5.337
0.075,0.035,0.282,-5.337
0.156,0.032,0.280,-5.337
0.114,0.039,0.280,-5.337
0.079,0.039,0.281,-5.337
0.051,0.038,0.285,-5.337
0.021,0.034,0.286,-5.337
0.004,0.034,0.289,-5.337
0.060,0.034,0.290,-5.337
0.103,0.037,0.285,-5.337
0.056,0.037,0.282,-5.337
0.010,0.040,0.281,-5.337
0.028,0.039,0.278,-5.337
0.042,0.040,0.281,-5.337
0.061,0.038,0.281,-5.337
0.100,0.037,0.280,-5.337
0.117,0.039,0.280,-5.337
0.023,0.042,0.282,-5.337
-0.027,0.040,0.283,-5.337
0.044,0.035,0.279,-5.337
0.118,0.031,0.277,-5.337
0.113,0.036,0.278,-5.337
0.092,0.039,0.284,-5.337
0.075,0.036,0.285,-5.337
0.136,0.036,0.286,-5.337
0.154,0.041,0.283,-5.337
0.165,0.043,0.281,-5.337
0.165,0.043,0.279,-5.337
0.178,0.040,0.278,-5.337
0.178,0.038,0.279,-5.337
0.164,0.038,0.279,-5.337
0.172,0.036,0.281,-5.337
0.079,0.038,0.283,-5.337
0.044,0.034,0.282,-5.337
0.090,0.035,0.281,-5.337
0.209,0.033,0.279,-5.337
0.275,0.032,0.281,-5.337
0.188,0.038,0.282,-5.337
0.051,0.041,0.282,-5.337
0.090,0.038,0.284,-5.337
0.151,0.039,0.287,-5.337
0.166,0.038,0.289,-5.337
0.169,0.039,0.285,-5.337
0.113,0.039,0.283,-5.337
0.069,0.037,0.280,-5.337
0.033,0.042,0.277,-5.337
0.040,0.043,0.279,-5.337
0.039,0.041,0.281,-5.337
0.067,0.041,0.277,-5.337
0.098,0.040,0.276,-5.337
0.038,0.042,0.282,-5.337
-0.024,0.042,0.286,-5.337
0.001,0.037,0.288,-5.337
0.075,0.037,0.287,-5.337
0.121,0.032,0.280,-5.337
0.054,0.033,0.278,-5.337
0.036,0.038,0.280,-5.337
0.066,0.039,0.282,-5.337
0.099,0.037,0.282,-5.337
0.095,0.037,0.281,-5.337
0.079,0.035,0.278,-5.337
0.081,0.035,0.276,-5.337
0.075,0.034,0.277,-5.337
0.090,0.035,0.278,-5.337
0.193,0.031,0.280,-5.337
0.215,0.030,0.283,-5.337
0.194,0.030,0.286,-5.337
0.143,0.030,0.285,-5.337
0.079,0.038,0.280,-5.337
0.047,0.041,0.278,-5.337
0.022,0.039,0.281,-5.337
-0.029,0.037,0.280,-5.337
-0.032,0.039,0.278,-5.337
0.041,0.035,0.279,-5.337
0.110,0.032,0.285,-5.337
0.142,0.030,0.288,-5.337
0.158,0.032,0.289,-5.337
0.091,0.034,0.288,-5.337
0.065,0.039,0.288,-5.337
0.022,0.040,0.284,-5.337
-0.001,0.042,0.279,-5.337
0.049,0.040,0.276,-5.337
0.047,0.040,0.281,-5.337
0.051,0.041,0.285,-5.337
0.067,0.042,0.285,-5.337
0.064,0.038,0.285,-5.337
0.078,0.040,0.282,-5.337
0.104,0.043,0.283,-5.337
0.079,0.048,0.285,-5.337
0.134,0.044,0.286,-5.337
0.221,0.041,0.283,-5.337
0.158,0.048,0.282,-5.337
0.074,0.053,0.281,-5.337
0.057,0.050,0.281,-5.337
0.125,0.044,0.280,-5.337
0.188,0.042,0.285,-5.337
0.221,0.042,0.286,-5.337
0.261,0.042,0.283,-5.337
0.172,0.042,0.282,-5.337
0.148,0.043,0.281,-5.337
0.197,0.042,0.280,-5.337
0.139,0.044,0.279,-5.337
0.132,0.045,0.280,-5.337
0.203,0.043,0.281,-5.337
0.250,0.044,0.282,-5.337
0.222,0.047,0.280,-5.337
0.144,0.045,0.281,-5.337
0.079,0.045,0.281,-5.337
0.132,0.048,0.283,-5.337
0.245,0.044,0.285,-5.337
0.230,0.043,0.289,-5.337
0.131,0.046,0.288,-5.337
0.071,0.049,0.285,-5.337
0.099,0.048,0.281,-5.337
0.043,0.050,0.284,-5.337
0.062,0.049,0.284,-5.337
0.111,0.049,0.286,-5.337
0.168,0.048,0.286,-5.337
0.193,0.046,0.285,-5.337
0.201,0.050,0.285,-5.337
0.137,0.052,0.284,-5.337
0.099,0.047,0.285,-5.337
0.156,0.047,0.284,-5.337
0.177,0.052,0.282,-5.337
0.106,0.050,0.280,-5.337
0.144,0.044,0.283,-5.337
0.248,0.043,0.287,-5.337
0.279,0.046,0.286,-5.337
0.175,0.048,0.281,-5.337
0.148,0.047,0.283,-5.337
0.211,0.047,0.286,-5.337
0.223,0.048,0.287,-5.337
0.201,0.046,0.284,-5.337
0.177,0.046,0.284,-5.337
0.210,0.046,0.282,-5.337
0.205,0.043,0.281,-5.337
0.233,0.042,0.281,-5.337
0.221,0.043,0.284,-5.337
0.137,0.048,0.288,-5.337
0.095,0.051,0.287,-5.337
0.126,0.052,0.288,-5.337
0.174,0.049,0.288,-5.337
0.145,0.049,0.286,-5.337
0.036,0.053,0.283,-5.337
0.007,0.053,0.282,-5.337
0.087,0.050,0.282,-5.337
0.153,0.049,0.284,-5.337
0.156,0.048,0.282,-5.337
0.196,0.049,0.282,-5.337
0.230,0.047,0.284,-5.337
0.180,0.049,0.286,-5.337
0.137,0.051,0.284,-5.337
0.156,0.050,0.282,-5.337
