[Parameters]
Operating Mode, Non-Feedback
Subject  AA..ZZ, WT
Session  0..99, 41
No. Trials (1..9999), 500
Mouse Number, 1
Pressure Probe Serial Port, \00\00\00\04COM4
Save additional csv file, TRUE
Save using mouse number, FALSE
A/D Monitor Rate (Hz), 30000.000000
A/D Stimulate Rate (Hz), 30000.000000
A/D input range (+/- V), 5
No. Channels to acquire (N), 2
Pre-Stim Acq. time (ms), 100.000000
Post-Stim Acq. time (ms), 900.000000
Analysis window parameters.M-response Start (ms), 1.100000
Analysis window parameters.M-response Duration (ms), 5.500000
Analysis window parameters.H-response Duration (ms), 6.000000
Analysis window parameters.H-response Start (ms), 6.500000
Feedback window, H response
Proportional gain, 0.100000
Target value, 6.700000
Feedback Ch., 1
Stim Channel to Control (1-4), 4
Trial, 9
Wait for EMG Conditions, FALSE
Channel to monitor (0 - N-1), 1
EMG Hi Limit, 2.000000
EMG Lo Limit, 0.001000
Inter-Stim delay (sec), 10.000000
EMG Monitor Mode, Mean
Time to run Long Stim.(sec), 30
Save Long Stim Data?, OFF
BURST Save time (ms), 1000
BURST Save Interval (x above), 10
Long-Stim. Rep. Rate (Hz), 10.000000
Stim type cluster array.<size(s)>, 4
Stim type cluster array 0.Stimulus Output, Electrical
Stim type cluster array 1.Stimulus Output, OFF
Stim type cluster array 2.Stimulus Output, OFF
Stim type cluster array 3.Stimulus Output, Motor Length
Stim specs cluster array.<size(s)>, 4
Stim specs cluster array 0.Initial Stimulus ampl., 0.300000
Stim specs cluster array 0.Maximum Stimulus, 1.120000
Stim specs cluster array 0.#Pulses in train, 3
Stim specs cluster array 0.Peak Level time (ms), 1.000000
Stim specs cluster array 0.Total pulse period (ms), 150.000000
Stim specs cluster array 0.Start Delay (ms), 0.000000
Stim specs cluster array 0.Pulse Shape, Square
Stim specs cluster array 0.Ramp/Rel. time (ms), 0.100000
Stim specs cluster array 0.Peak Amplitude (V), 0.120000
Stim specs cluster array 1.Initial Stimulus ampl., 0.000000
Stim specs cluster array 1.Maximum Stimulus, 0.000000
Stim specs cluster array 1.#Pulses in train, 3
Stim specs cluster array 1.Peak Level time (ms), 29.000000
Stim specs cluster array 1.Total pulse period (ms), 200.000000
Stim specs cluster array 1.Start Delay (ms), 0.000000
Stim specs cluster array 1.Pulse Shape, Square
Stim specs cluster array 1.Ramp/Rel. time (ms), 0.000000
Stim specs cluster array 1.Peak Amplitude (V), 2.000000
Stim specs cluster array 2.Initial Stimulus ampl., 0.000000
Stim specs cluster array 2.Maximum Stimulus, 0.000000
Stim specs cluster array 2.#Pulses in train, 1
Stim specs cluster array 2.Peak Level time (ms), 25.000000
Stim specs cluster array 2.Total pulse period (ms), 200.000000
Stim specs cluster array 2.Start Delay (ms), 0.000000
Stim specs cluster array 2.Pulse Shape, Square
Stim specs cluster array 2.Ramp/Rel. time (ms), 20.000000
Stim specs cluster array 2.Peak Amplitude (V), 10.000000
Stim specs cluster array 3.Initial Stimulus ampl., 0.000000
Stim specs cluster array 3.Maximum Stimulus, 0.000000
Stim specs cluster array 3.#Pulses in train, 25
Stim specs cluster array 3.Peak Level time (ms), 0.100000
Stim specs cluster array 3.Total pulse period (ms), 4.000000
Stim specs cluster array 3.Start Delay (ms), -5.000000
Stim specs cluster array 3.Pulse Shape, Triangle
Stim specs cluster array 3.Ramp/Rel. time (ms), 3.000000
Stim specs cluster array 3.Peak Amplitude (V), 0.500000
Force cal. (mN/Volt), 100.000000
Force Range (mN), 100.000000
Length cal. (mm/Volt), 10.000000
Length Range (mm), 10.000000
Stim. 1, 0.300000
Stim. 2, 0.000000
Stim. 3, 0.000000
Stim. 4, 0.000000
Monitor acquire time (ms), 100.000000
EMG graph Ymax, 0.100000
Travel limit (mm), 20.000000
Use Pressure Probe, FALSE
Pressure goal (g), 100
Speed (mm/sec), 5.000000
Dwell time (ms), 100.000000
Pressure limit (g), 500.000000
Channel amplitude offset, 0.000000

[DATA]

0.217,0.063,0.287,-5.337
0.304,0.063,0.284,-5.337
0.334,0.063,0.283,-5.337
0.294,0.060,0.285,-5.337
0.236,0.064,0.293,-5.337
0.190,0.065,0.292,-5.337
0.271,0.064,0.289,-5.337
0.288,0.064,0.289,-5.337
0.243,0.064,0.287,-5.337
0.281,0.063,0.288,-5.337
0.397,0.061,0.289,-5.337
0.434,0.066,0.291,-5.337
0.367,0.064,0.290,-5.337
0.310,0.063,0.288,-5.337
0.291,0.066,0.285,-5.337
0.231,0.065,0.285,-5.337
0.192,0.063,0.283,-5.337
0.271,0.062,0.287,-5.337
0.348,0.065,0.289,-5.337
0.343,0.065,0.290,-5.337
0.311,0.067,0.292,-5.337
0.318,0.067,0.294,-5.337
0.254,0.068,0.295,-5.337
0.194,0.066,0.294,-5.337
0.245,0.060,0.290,-5.337
0.310,0.064,0.288,-5.337
0.348,0.064,0.289,-5.337
0.347,0.065,0.291,-5.337
0.321,0.064,0.291,-5.337
0.303,0.065,0.290,-5.337
0.317,0.064,0.286,-5.337
0.311,0.065,0.281,-5.337
0.284,0.067,0.282,-5.337
0.317,0.068,0.285,-5.337
0.293,0.067,0.287,-5.337
0.295,0.066,0.288,-5.337
0.278,0.067,0.290,-5.337
0.193,0.066,0.290,-5.337
0.210,0.066,0.292,-5.337
0.286,0.066,0.291,-5.337
0.284,0.067,0.292,-5.337
0.204,0.067,0.289,-5.337
0.187,0.065,0.284,-5.337
0.242,0.063,0.287,-5.337
0.307,0.061,0.290,-5.337
0.366,0.057,0.289,-5.337
0.385,0.063,0.286,-5.337
0.364,0.062,0.284,-5.337
0.412,0.063,0.287,-5.337
0.338,0.066,0.290,-5.337
0.349,0.063,0.291,-5.337
0.405,0.060,0.290,-5.337
0.353,0.061,0.293,-5.337
0.295,0.065,0.294,-5.337
0.311,0.065,0.289,-5.337
0.345,0.060,0.287,-5.337
0.361,0.058,0.284,-5.337
0.378,0.062,0.285,-5.337
0.337,0.064,0.289,-5.337
0.324,0.062,0.295,-5.337
0.312,0.065,0.295,-5.337
0.285,0.071,0.292,-5.337
0.295,0.072,0.288,-5.337
0.284,0.072,0.288,-5.337
0.312,0.067,0.287,-5.337
0.355,0.069,0.287,-5.337
0.389,0.066,0.288,-5.337
0.350,0.066,0.288,-5.337
0.322,0.062,0.284,-5.337
0.347,0.065,0.284,-5.337
0.305,0.068,0.284,-5.337
0.315,0.065,0.284,-5.337
0.340,0.065,0.283,-5.337
0.286,0.070,0.287,-5.337
0.319,0.072,0.290,-5.337
0.354,0.069,0.290,-5.337
0.317,0.066,0.287,-5.337
0.281,0.065,0.283,-5.337
0.296,0.068,0.285,-5.337
0.337,0.066,0.289,-5.337
0.305,0.067,0.291,-5.337
0.250,0.070,0.291,-5.337
0.268,0.072,0.292,-5.337
0.272,0.073,0.292,-5.337
0.238,0.068,0.292,-5.337
0.265,0.069,0.288,-5.337
0.340,0.070,0.287,-5.337
0.384,0.068,0.286,-5.337
0.345,0.071,0.286,-5.337
0.262,0.072,0.288,-5.337
0.277,0.070,0.293,-5.337
0.328,0.068,0.297,-5.337
0.333,0.068,0.293,-5.337
0.288,0.071,0.288,-5.337
0.287,0.070,0.292,-5.337
0.322,0.068,0.295,-5.337
0.340,0.068,0.293,-5.337
0.334,0.070,0.287,-5.337
0.267,0.068,0.283,-5.337
0.258,0.066,0.281,-5.337
0.370,0.060,0.283,-5.337
0.430,0.060,0.285,-5.337
0.363,0.058,0.285,-5.337
0.344,0.055,0.288,-5.337
0.393,0.056,0.288,-5.337
0.346,0.062,0.290,-5.337
0.245,0.067,0.291,-5.337
0.263,0.067,0.292,-5.337
0.331,0.061,0.290,-5.337
0.319,0.065,0.289,-5.337
0.328,0.066,0.287,-5.337
0.313,0.069,0.288,-5.337
0.280,0.071,0.292,-5.337
0.249,0.074,0.292,-5.337
0.259,0.067,0.290,-5.337
0.300,0.068,0.287,-5.337
0.265,0.068,0.284,-5.337
0.263,0.066,0.287,-5.337
0.384,0.063,0.291,-5.337
0.298,0.068,0.291,-5.337
0.299,0.068,0.289,-5.337
0.399,0.065,0.285,-5.337
0.381,0.067,0.288,-5.337
0.356,0.068,0.289,-5.337
0.365,0.069,0.292,-5.337
0.369,0.067,0.292,-5.337
0.267,0.070,0.291,-5.337
0.219,0.069,0.288,-5.337
0.234,0.069,0.287,-5.337
0.249,0.064,0.287,-5.337
0.278,0.064,0.290,-5.337
0.340,0.061,0.291,-5.337
0.407,0.060,0.291,-5.337
0.417,0.061,0.287,-5.337
0.342,0.063,0.286,-5.337
0.275,0.063,0.288,-5.337
0.194,0.065,0.292,-5.337
0.164,0.063,0.292,-5.337
0.231,0.064,0.291,-5.337
0.298,0.060,0.290,-5.337
0.321,0.061,0.292,-5.337
0.334,0.056,0.295,-5.337
0.360,0.054,0.294,-5.337
0.316,0.057,0.289,-5.337
0.303,0.055,0.288,-5.337
0.303,0.054,0.290,-5.337
0.282,0.058,0.290,-5.337
0.203,0.062,0.291,-5.337
0.118,0.061,0.288,-5.337
0.151,0.060,0.289,-5.337
0.156,0.058,0.288,-5.337
0.138,0.058,0.289,-5.337
0.149,0.059,0.291,-5.337
0.203,0.059,0.293,-5.337
0.240,0.060,0.290,-5.337
0.259,0.057,0.286,-5.337
0.276,0.056,0.283,-5.337
0.356,0.056,0.283,-5.337
0.358,0.056,0.284,-5.337
0.275,0.057,0.288,-5.337
0.278,0.056,0.288,-5.337
0.340,0.054,0.289,-5.337
0.354,0.054,0.290,-5.337
0.255,0.058,0.290,-5.337
0.211,0.059,0.292,-5.337
0.192,0.061,0.292,-5.337
0.156,0.061,0.290,-5.337
0.203,0.060,0.287,-5.337
0.271,0.059,0.291,-5.337
0.313,0.056,0.292,-5.337
0.321,0.055,0.292,-5.337
0.339,0.056,0.289,-5.337
0.289,0.059,0.286,-5.337
0.228,0.056,0.283,-5.337
0.168,0.056,0.288,-5.337
0.169,0.053,0.289,-5.337
0.290,0.048,0.287,-5.337
0.455,0.047,0.284,-5.337
0.417,0.051,0.282,-5.337
0.306,0.050,0.285,-5.337
0.278,0.050,0.289,-5.337
0.266,0.047,0.287,-5.337
0.249,0.045,0.284,-5.337
0.219,0.049,0.286,-5.337
0.216,0.052,0.292,-5.337
0.200,0.053,0.293,-5.337
0.207,0.052,0.293,-5.337
0.266,0.049,0.292,-5.337
0.236,0.051,0.290,-5.337
0.215,0.049,0.290,-5.337
0.243,0.048,0.290,-5.337
0.224,0.046,0.290,-5.337
0.223,0.046,0.288,-5.337
0.223,0.046,0.285,-5.337
0.212,0.042,0.285,-5.337
0.268,0.039,0.287,-5.337
0.229,0.041,0.286,-5.337
0.215,0.041,0.286,-5.337
0.253,0.043,0.286,-5.337
0.203,0.049,0.288,-5.337
0.145,0.047,0.291,-5.337
0.169,0.043,0.291,-5.337
0.273,0.042,0.292,-5.337
0.263,0.049,0.294,-5.337
0.196,0.052,0.298,-5.337
0.252,0.048,0.298,-5.337
0.301,0.043,0.296,-5.337
0.295,0.042,0.292,-5.337
0.294,0.041,0.285,-5.337
0.253,0.044,0.282,-5.337
0.160,0.049,0.285,-5.337
0.091,0.050,0.289,-5.337
0.093,0.044,0.292,-5.337
0.113,0.044,0.294,-5.337
0.216,0.046,0.296,-5.337
0.206,0.048,0.292,-5.337
0.190,0.045,0.290,-5.337
0.181,0.044,0.287,-5.337
0.128,0.045,0.289,-5.337
0.110,0.044,0.293,-5.337
0.111,0.042,0.292,-5.337
0.174,0.040,0.288,-5.337
0.230,0.039,0.288,-5.337
0.264,0.040,0.284,-5.337
0.248,0.042,0.285,-5.337
0.166,0.045,0.286,-5.337
0.180,0.041,0.290,-5.337
0.227,0.041,0.292,-5.337
0.178,0.044,0.289,-5.337
0.136,0.040,0.287,-5.337
0.227,0.036,0.286,-5.337
0.211,0.039,0.284,-5.337
0.204,0.040,0.282,-5.337
0.147,0.040,0.284,-5.337
0.129,0.039,0.286,-5.337
0.150,0.038,0.289,-5.337
0.161,0.037,0.292,-5.337
0.150,0.039,0.291,-5.337
0.180,0.039,0.288,-5.337
0.180,0.036,0.287,-5.337
0.126,0.038,0.286,-5.337
0.088,0.042,0.285,-5.337
0.182,0.038,0.287,-5.337
0.282,0.034,0.295,-5.337
0.255,0.036,0.298,-5.337
0.183,0.040,0.297,-5.337
0.217,0.036,0.293,-5.337
0.220,0.036,0.290,-5.337
0.217,0.034,0.288,-5.337
0.220,0.039,0.286,-5.337
0.149,0.041,0.287,-5.337
0.135,0.040,0.286,-5.337
0.092,0.041,0.286,-5.337
0.065,0.042,0.289,-5.337
0.039,0.044,0.289,-5.337
0.022,0.046,0.291,-5.337
0.085,0.041,0.290,-5.337
0.154,0.037,0.289,-5.337
0.176,0.037,0.288,-5.337
0.207,0.033,0.289,-5.337
0.128,0.033,0.289,-5.337
0.007,0.035,0.287,-5.337
-0.003,0.036,0.288,-5.337
0.025,0.038,0.287,-5.337
0.085,0.041,0.287,-5.337
0.098,0.041,0.287,-5.337
0.067,0.039,0.287,-5.337
0.002,0.038,0.289,-5.337
0.094,0.033,0.289,-5.337
0.163,0.034,0.289,-5.337
0.127,0.039,0.286,-5.337
0.140,0.038,0.283,-5.337
0.175,0.038,0.285,-5.337
0.167,0.039,0.287,-5.337
0.128,0.041,0.288,-5.337
0.139,0.039,0.288,-5.337
0.199,0.039,0.289,-5.337
0.194,0.041,0.289,-5.337
0.129,0.044,0.290,-5.337
0.085,0.043,0.296,-5.337
0.072,0.041,0.294,-5.337
0.104,0.039,0.290,-5.337
0.174,0.039,0.284,-5.337
0.203,0.039,0.284,-5.337
0.123,0.042,0.288,-5.337
0.069,0.041,0.293,-5.337
0.070,0.041,0.291,-5.337
0.112,0.037,0.288,-5.337
0.178,0.037,0.286,-5.337
0.218,0.034,0.288,-5.337
0.177,0.036,0.291,-5.337
0.147,0.039,0.291,-5.337
0.113,0.038,0.287,-5.337
0.090,0.038,0.285,-5.337
0.129,0.034,0.288,-5.337
0.134,0.038,0.291,-5.337
0.037,0.039,0.292,-5.337
0.057,0.037,0.292,-5.337
0.139,0.034,0.291,-5.337
0.111,0.034,0.290,-5.337
0.086,0.036,0.290,-5.337
0.103,0.034,0.293,-5.337
0.124,0.036,0.292,-5.337
0.133,0.036,0.289,-5.337
0.078,0.037,0.290,-5.337
0.024,0.036,0.289,-5.337
0.004,0.039,0.287,-5.337
0.048,0.040,0.286,-5.337
0.121,0.037,0.289,-5.337
0.190,0.030,0.289,-5.337
0.135,0.031,0.287,-5.337
0.094,0.032,0.287,-5.337
0.171,0.034,0.289,-5.337
0.118,0.035,0.290,-5.337
0.039,0.034,0.292,-5.337
0.052,0.031,0.294,-5.337
0.052,0.035,0.297,-5.337
0.046,0.036,0.294,-5.337
0.071,0.036,0.291,-5.337
0.155,0.034,0.292,-5.337
0.163,0.034,0.293,-5.337
0.123,0.035,0.293,-5.337
0.086,0.037,0.291,-5.337
0.068,0.040,0.292,-5.337
0.121,0.039,0.291,-5.337
0.154,0.038,0.289,-5.337
0.206,0.035,0.288,-5.337
0.210,0.036,0.289,-5.337
0.198,0.036,0.287,-5.337
0.168,0.032,0.290,-5.337
0.135,0.030,0.288,-5.337
0.094,0.033,0.286,-5.337
0.101,0.035,0.284,-5.337
0.142,0.036,0.287,-5.337
0.125,0.032,0.290,-5.337
0.197,0.032,0.293,-5.337
0.188,0.034,0.292,-5.337
0.139,0.040,0.290,-5.337
0.044,0.039,0.288,-5.337
0.106,0.035,0.284,-5.337
0.177,0.036,0.284,-5.337
0.147,0.039,0.289,-5.337
0.094,0.037,0.295,-5.337
0.056,0.035,0.293,-5.337
0.089,0.037,0.290,-5.337
0.093,0.039,0.288,-5.337
-0.002,0.042,0.287,-5.337
-0.065,0.042,0.287,-5.337
-0.065,0.037,0.291,-5.337
-0.032,0.039,0.292,-5.337
0.058,0.037,0.292,-5.337
0.091,0.036,0.291,-5.337
0.065,0.040,0.293,-5.337
0.050,0.040,0.292,-5.337
-0.002,0.042,0.292,-5.337
-0.032,0.039,0.290,-5.337
0.042,0.034,0.289,-5.337
0.139,0.029,0.284,-5.337
0.188,0.032,0.287,-5.337
0.172,0.037,0.288,-5.337
0.131,0.035,0.287,-5.337
0.126,0.035,0.285,-5.337
0.098,0.039,0.285,-5.337
0.086,0.039,0.289,-5.337
0.148,0.038,0.289,-5.337
0.207,0.037,0.286,-5.337
0.215,0.035,0.284,-5.337
0.187,0.040,0.283,-5.337
0.157,0.040,0.284,-5.337
0.115,0.041,0.284,-5.337
0.006,0.048,0.285,-5.337
-0.023,0.044,0.286,-5.337
0.035,0.042,0.287,-5.337
0.068,0.040,0.288,-5.337
0.054,0.044,0.287,-5.337
0.087,0.046,0.286,-5.337
0.125,0.042,0.288,-5.337
0.042,0.044,0.294,-5.337
0.012,0.045,0.293,-5.337
0.057,0.042,0.291,-5.337
0.102,0.042,0.289,-5.337
0.118,0.042,0.291,-5.337
0.132,0.041,0.290,-5.337
0.128,0.040,0.287,-5.337
0.112,0.039,0.287,-5.337
0.051,0.041,0.289,-5.337
0.076,0.037,0.288,-5.337
0.142,0.038,0.289,-5.337
0.150,0.042,0.284,-5.337
0.108,0.044,0.283,-5.337
0.094,0.043,0.284,-5.337
0.171,0.044,0.284,-5.337
0.171,0.047,0.286,-5.337
0.067,0.047,0.287,-5.337
0.029,0.045,0.287,-5.337
0.069,0.045,0.286,-5.337
0.143,0.047,0.289,-5.337
0.165,0.044,0.290,-5.337
0.203,0.039,0.292,-5.337
0.205,0.042,0.289,-5.337
0.152,0.043,0.288,-5.337
0.140,0.043,0.287,-5.337
0.042,0.045,0.288,-5.337
0.001,0.042,0.284,-5.337
-0.012,0.043,0.283,-5.337
-0.032,0.046,0.285,-5.337
0.015,0.046,0.291,-5.337
0.068,0.041,0.290,-5.337
0.145,0.040,0.288,-5.337
0.202,0.040,0.289,-5.337
0.231,0.043,0.291,-5.337
0.222,0.046,0.291,-5.337
0.165,0.048,0.290,-5.337
0.156,0.047,0.286,-5.337
0.095,0.048,0.284,-5.337
0.133,0.049,0.285,-5.337
0.186,0.044,0.283,-5.337
0.247,0.043,0.282,-5.337
0.152,0.049,0.284,-5.337
0.126,0.045,0.284,-5.337
0.140,0.043,0.280,-5.337
0.165,0.045,0.282,-5.337
0.264,0.044,0.286,-5.337
0.274,0.044,0.287,-5.337
0.198,0.046,0.289,-5.337
0.115,0.046,0.288,-5.337
0.124,0.044,0.282,-5.337
0.116,0.043,0.280,-5.337
0.129,0.045,0.280,-5.337
0.176,0.046,0.282,-5.337
0.217,0.045,0.285,-5.337
0.197,0.045,0.288,-5.337
0.181,0.047,0.287,-5.337
0.149,0.048,0.285,-5.337
0.124,0.044,0.285,-5.337
0.109,0.049,0.287,-5.337
0.089,0.047,0.285,-5.337
0.163,0.046,0.286,-5.337
0.238,0.044,0.284,-5.337
0.283,0.045,0.283,-5.337
0.149,0.048,0.287,-5.337
0.100,0.048,0.289,-5.337
0.138,0.044,0.286,-5.337
0.241,0.043,0.283,-5.337
0.162,0.046,0.286,-5.337
0.111,0.047,0.286,-5.337
0.204,0.046,0.287,-5.337
0.182,0.049,0.284,-5.337
0.097,0.051,0.282,-5.337
0.076,0.049,0.286,-5.337
0.085,0.047,0.284,-5.337
0.147,0.045,0.283,-5.337
0.218,0.044,0.285,-5.337
0.276,0.042,0.288,-5.337
0.354,0.044,0.289,-5.337
0.360,0.046,0.286,-5.337
0.301,0.047,0.288,-5.337
0.212,0.045,0.288,-5.337
0.200,0.045,0.285,-5.337
0.288,0.044,0.282,-5.337
0.316,0.044,0.282,-5.337
0.310,0.046,0.283,-5.337
0.283,0.046,0.277,-5.337
0.166,0.053,0.277,-5.337
0.045,0.052,0.283,-5.337
0.129,0.050,0.288,-5.337
0.260,0.048,0.286,-5.337
0.223,0.051,0.284,-5.337
0.180,0.048,0.284,-5.337
0.259,0.052,0.287,-5.337
0.298,0.051,0.285,-5.337
0.251,0.050,0.285,-5.337
0.254,0.051,0.289,-5.337
0.274,0.050,0.289,-5.337
0.273,0.053,0.284,-5.337
0.271,0.055,0.278,-5.337
0.274,0.053,0.279,-5.337
0.284,0.053,0.285,-5.337
0.282,0.052,0.288,-5.337
0.264,0.054,0.286,-5.337
0.177,0.052,0.283,-5.337
0.179,0.051,0.283,-5.337
0.215,0.050,0.288,-5.337
0.264,0.049,0.289,-5.337
0.205,0.050,0.286,-5.337
0.158,0.053,0.279,-5.337
0.223,0.052,0.277,-5.337
0.249,0.054,0.278,-5.337
0.227,0.054,0.282,-5.337
0.292,0.052,0.285,-5.337
0.339,0.053,0.286,-5.337
0.294,0.055,0.284,-5.337
0.240,0.059,0.285,-5.337
0.227,0.054,0.285,-5.337
0.236,0.053,0.285,-5.337
0.230,0.054,0.283,-5.337
0.207,0.053,0.280,-5.337
0.207,0.052,0.282,-5.337
0.235,0.051,0.286,-5.337
0.198,0.049,0.287,-5.337
0.254,0.044,0.287,-5.337
0.295,0.044,0.286,-5.337
0.247,0.049,0.287,-5.337
0.215,0.052,0.288,-5.337
0.205,0.049,0.287,-5.337
0.168,0.052,0.284,-5.337
0.173,0.053,0.282,-5.337
0.243,0.051,0.286,-5.337
0.293,0.052,0.284,-5.337
0.294,0.047,0.281,-5.337
0.322,0.045,0.278,-5.337
0.318,0.049,0.282,-5.337
0.335,0.048,0.281,-5.337
0.334,0.047,0.281,-5.337
0.351,0.051,0.278,-5.337
0.352,0.051,0.281,-5.337
0.309,0.050,0.283,-5.337
0.280,0.050,0.284,-5.337
0.265,0.050,0.285,-5.337
0.329,0.054,0.283,-5.337
0.308,0.054,0.284,-5.337
0.267,0.056,0.286,-5.337
0.289,0.057,0.287,-5.337
0.308,0.059,0.288,-5.337
0.286,0.060,0.286,-5.337
0.264,0.057,0.281,-5.337
0.225,0.057,0.278,-5.337
0.213,0.058,0.281,-5.337
0.239,0.057,0.281,-5.337
0.286,0.056,0.282,-5.337
0.335,0.060,0.283,-5.337
0.390,0.060,0.284,-5.337
0.285,0.061,0.290,-5.337
0.177,0.061,0.292,-5.337
0.212,0.059,0.288,-5.337
0.295,0.058,0.284,-5.337
0.353,0.054,0.284,-5.337
0.384,0.056,0.281,-5.337
0.333,0.060,0.280,-5.337
0.283,0.063,0.280,-5.337
0.219,0.063,0.280,-5.337
0.273,0.059,0.281,-5.337
0.313,0.060,0.284,-5.337
0.304,0.057,0.284,-5.337
0.271,0.058,0.284,-5.337
0.296,0.059,0.281,-5.337
0.325,0.058,0.281,-5.337
0.338,0.059,0.285,-5.337
0.332,0.062,0.287,-5.337
0.338,0.064,0.286,-5.337
0.327,0.065,0.284,-5.337
0.319,0.063,0.283,-5.337
0.345,0.063,0.285,-5.337
0.359,0.062,0.289,-5.337
0.338,0.058,0.287,-5.337
0.302,0.059,0.281,-5.337
0.267,0.060,0.278,-5.337
0.232,0.066,0.281,-5.337
0.257,0.063,0.285,-5.337
0.331,0.062,0.290,-5.337
0.386,0.063,0.292,-5.337
0.324,0.061,0.292,-5.337
0.283,0.060,0.287,-5.337
0.291,0.062,0.282,-5.337
0.317,0.062,0.278,-5.337
0.386,0.062,0.277,-5.337
0.424,0.058,0.281,-5.337
0.377,0.061,0.285,-5.337
0.296,0.063,0.285,-5.337
0.260,0.063,0.284,-5.337
0.238,0.061,0.283,-5.337
0.212,0.059,0.284,-5.337
0.242,0.058,0.284,-5.337
0.286,0.059,0.283,-5.337
0.275,0.061,0.285,-5.337
0.251,0.053,0.286,-5.337
0.280,0.048,0.286,-5.337
0.312,0.051,0.287,-5.337
0.296,0.055,0.287,-5.337
0.301,0.057,0.284,-5.337
0.337,0.057,0.283,-5.337
0.353,0.057,0.283,-5.337
0.376,0.056,0.283,-5.337
0.298,0.059,0.287,-5.337
0.322,0.062,0.290,-5.337
0.354,0.061,0.291,-5.337
0.367,0.059,0.288,-5.337
0.321,0.057,0.284,-5.337
0.312,0.058,0.284,-5.337
0.317,0.057,0.283,-5.337
0.367,0.056,0.286,-5.337
0.320,0.055,0.286,-5.337
0.284,0.057,0.284,-5.337
0.306,0.058,0.280,-5.337
0.326,0.054,0.281,-5.337
0.265,0.053,0.281,-5.337
0.231,0.055,0.284,-5.337
0.314,0.058,0.289,-5.337
0.357,0.061,0.288,-5.337
0.367,0.057,0.284,-5.337
0.332,0.058,0.281,-5.337
0.307,0.059,0.283,-5.337
0.281,0.062,0.285,-5.337
0.276,0.059,0.283,-5.337
0.250,0.060,0.282,-5.337
0.271,0.060,0.283,-5.337
0.350,0.057,0.283,-5.337
0.374,0.055,0.285,-5.337
0.391,0.056,0.287,-5.337
0.351,0.055,0.286,-5.337
0.354,0.056,0.286,-5.337
0.371,0.057,0.289,-5.337
0.372,0.053,0.289,-5.337
0.365,0.055,0.291,-5.337
0.337,0.058,0.290,-5.337
0.357,0.061,0.290,-5.337
0.344,0.059,0.289,-5.337
0.307,0.056,0.289,-5.337
0.339,0.058,0.288,-5.337
0.377,0.058,0.284,-5.337
0.350,0.057,0.284,-5.337
0.283,0.057,0.281,-5.337
0.304,0.055,0.279,-5.337
0.301,0.053,0.280,-5.337
0.312,0.053,0.282,-5.337
0.312,0.051,0.285,-5.337
0.333,0.052,0.290,-5.337
0.296,0.055,0.287,-5.337
0.290,0.053,0.278,-5.337
0.272,0.051,0.278,-5.337
0.245,0.054,0.282,-5.337
0.255,0.052,0.283,-5.337
0.322,0.049,0.287,-5.337
0.385,0.047,0.286,-5.337
0.337,0.050,0.283,-5.337
0.251,0.051,0.282,-5.337
0.225,0.050,0.285,-5.337
0.221,0.050,0.287,-5.337
0.134,0.051,0.287,-5.337
0.153,0.055,0.286,-5.337
0.238,0.056,0.283,-5.337
0.287,0.052,0.283,-5.337
0.352,0.052,0.282,-5.337
0.347,0.054,0.284,-5.337
0.322,0.053,0.284,-5.337
0.273,0.049,0.283,-5.337
0.277,0.046,0.286,-5.337
0.271,0.048,0.289,-5.337
0.252,0.049,0.289,-5.337
0.231,0.052,0.289,-5.337
0.215,0.052,0.287,-5.337
0.208,0.053,0.285,-5.337
0.203,0.052,0.282,-5.337
0.183,0.056,0.282,-5.337
0.103,0.057,0.284,-5.337
0.129,0.056,0.285,-5.337
0.174,0.051,0.286,-5.337
0.203,0.052,0.286,-5.337
0.215,0.050,0.285,-5.337
0.294,0.048,0.283,-5.337
0.308,0.050,0.282,-5.337
0.366,0.045,0.282,-5.337
0.348,0.048,0.284,-5.337
0.281,0.049,0.286,-5.337
0.217,0.049,0.288,-5.337
0.272,0.050,0.284,-5.337
0.290,0.051,0.280,-5.337
0.283,0.051,0.280,-5.337
0.259,0.048,0.286,-5.337
0.279,0.049,0.287,-5.337
0.302,0.050,0.290,-5.337
0.263,0.052,0.288,-5.337
0.275,0.052,0.287,-5.337
0.306,0.051,0.283,-5.337
0.328,0.052,0.282,-5.337
0.334,0.051,0.283,-5.337
0.305,0.053,0.287,-5.337
0.289,0.049,0.287,-5.337
0.245,0.049,0.288,-5.337
0.207,0.052,0.289,-5.337
0.249,0.047,0.287,-5.337
0.251,0.044,0.286,-5.337
0.157,0.046,0.288,-5.337
0.149,0.047,0.287,-5.337
0.189,0.046,0.284,-5.337
0.226,0.047,0.284,-5.337
0.188,0.050,0.285,-5.337
0.175,0.048,0.284,-5.337
0.241,0.045,0.282,-5.337
0.251,0.046,0.284,-5.337
0.271,0.048,0.287,-5.337
0.275,0.041,0.287,-5.337
0.210,0.043,0.287,-5.337
0.142,0.046,0.287,-5.337
0.195,0.045,0.285,-5.337
0.276,0.045,0.285,-5.337
0.296,0.044,0.281,-5.337
0.264,0.047,0.282,-5.337
0.198,0.050,0.282,-5.337
0.236,0.051,0.284,-5.337
0.259,0.049,0.290,-5.337
0.204,0.050,0.292,-5.337
0.200,0.046,0.288,-5.337
0.245,0.049,0.289,-5.337
0.225,0.048,0.288,-5.337
0.212,0.052,0.286,-5.337
0.220,0.047,0.283,-5.337
0.238,0.046,0.281,-5.337
0.266,0.044,0.282,-5.337
0.243,0.046,0.283,-5.337
0.172,0.047,0.282,-5.337
0.163,0.044,0.285,-5.337
0.216,0.042,0.290,-5.337
0.262,0.043,0.287,-5.337
0.203,0.044,0.284,-5.337
0.167,0.047,0.282,-5.337
0.134,0.043,0.283,-5.337
0.198,0.041,0.282,-5.337
0.193,0.044,0.285,-5.337
0.196,0.047,0.283,-5.337
0.169,0.049,0.285,-5.337
0.161,0.046,0.289,-5.337
0.181,0.045,0.292,-5.337
0.238,0.043,0.288,-5.337
0.240,0.047,0.284,-5.337
0.119,0.047,0.282,-5.337
0.116,0.043,0.284,-5.337
0.156,0.044,0.286,-5.337
0.187,0.044,0.291,-5.337
0.257,0.040,0.293,-5.337
0.182,0.041,0.288,-5.337
0.088,0.042,0.282,-5.337
0.148,0.041,0.280,-5.337
0.134,0.044,0.280,-5.337
0.058,0.044,0.282,-5.337
0.120,0.043,0.288,-5.337
0.161,0.043,0.290,-5.337
0.106,0.042,0.287,-5.337
0.177,0.041,0.282,-5.337
0.247,0.044,0.282,-5.337
0.210,0.043,0.282,-5.337
0.229,0.042,0.284,-5.337
0.231,0.040,0.282,-5.337
0.175,0.045,0.281,-5.337
0.117,0.044,0.281,-5.337
0.097,0.045,0.287,-5.337
0.108,0.045,0.292,-5.337
0.152,0.044,0.291,-5.337
0.238,0.040,0.290,-5.337
0.194,0.043,0.286,-5.337
0.129,0.043,0.282,-5.337
0.086,0.043,0.282,-5.337
0.154,0.040,0.283,-5.337
0.207,0.042,0.283,-5.337
0.188,0.041,0.284,-5.337
0.065,0.045,0.284,-5.337
0.058,0.043,0.286,-5.337
0.129,0.040,0.285,-5.337
0.110,0.037,0.284,-5.337
0.087,0.037,0.282,-5.337
0.114,0.039,0.285,-5.337
0.168,0.040,0.285,-5.337
0.141,0.042,0.289,-5.337
0.044,0.043,0.288,-5.337
0.015,0.042,0.289,-5.337
0.138,0.040,0.291,-5.337
0.144,0.042,0.287,-5.337
0.050,0.044,0.281,-5.337
0.057,0.042,0.281,-5.337
0.069,0.042,0.283,-5.337
0.071,0.044,0.287,-5.337
0.161,0.041,0.286,-5.337
0.178,0.041,0.286,-5.337
0.145,0.043,0.284,-5.337
0.138,0.045,0.283,-5.337
0.172,0.043,0.284,-5.337
0.183,0.042,0.285,-5.337
0.111,0.047,0.291,-5.337
0.104,0.049,0.289,-5.337
0.090,0.048,0.287,-5.337
0.131,0.045,0.287,-5.337
0.150,0.042,0.290,-5.337
0.168,0.044,0.287,-5.337
0.140,0.043,0.284,-5.337
0.072,0.043,0.281,-5.337
0.050,0.048,0.282,-5.337
0.129,0.045,0.285,-5.337
0.236,0.039,0.289,-5.337
0.178,0.040,0.289,-5.337
0.128,0.042,0.286,-5.337
0.106,0.042,0.280,-5.337
0.112,0.044,0.284,-5.337
0.122,0.043,0.287,-5.337
0.120,0.044,0.287,-5.337
0.097,0.045,0.286,-5.337
0.003,0.045,0.285,-5.337
0.056,0.040,0.282,-5.337
0.160,0.041,0.282,-5.337
0.159,0.043,0.284,-5.337
0.049,0.045,0.285,-5.337
0.048,0.042,0.284,-5.337
0.166,0.041,0.285,-5.337
0.237,0.038,0.288,-5.337
0.161,0.038,0.289,-5.337
0.136,0.041,0.286,-5.337
0.120,0.039,0.282,-5.337
0.097,0.037,0.283,-5.337
0.089,0.036,0.285,-5.337
0.095,0.037,0.288,-5.337
0.181,0.033,0.287,-5.337
0.175,0.035,0.288,-5.337
0.054,0.037,0.289,-5.337
0.032,0.041,0.288,-5.337
0.121,0.039,0.284,-5.337
0.132,0.039,0.281,-5.337
0.069,0.038,0.284,-5.337
0.069,0.038,0.284,-5.337
0.155,0.038,0.284,-5.337
0.222,0.038,0.285,-5.337
0.181,0.039,0.288,-5.337
0.131,0.039,0.289,-5.337
0.091,0.039,0.289,-5.337
0.067,0.042,0.286,-5.337
0.006,0.040,0.285,-5.337
0.008,0.041,0.281,-5.337
0.083,0.039,0.280,-5.337
0.136,0.038,0.281,-5.337
0.115,0.035,0.285,-5.337
0.009,0.036,0.288,-5.337
-0.057,0.039,0.291,-5.337
0.082,0.038,0.287,-5.337
0.183,0.037,0.283,-5.337
0.115,0.036,0.280,-5.337
0.069,0.036,0.283,-5.337
0.045,0.037,0.289,-5.337
0.034,0.040,0.290,-5.337
0.066,0.036,0.284,-5.337
0.149,0.035,0.278,-5.337
0.170,0.037,0.280,-5.337
0.078,0.040,0.283,-5.337
0.037,0.042,0.281,-5.337
0.083,0.039,0.280,-5.337
0.042,0.036,0.282,-5.337
-0.005,0.036,0.287,-5.337
0.099,0.032,0.287,-5.337
0.113,0.033,0.289,-5.337
0.007,0.035,0.293,-5.337
-0.023,0.035,0.294,-5.337
0.028,0.036,0.295,-5.337
0.061,0.035,0.292,-5.337
0.102,0.038,0.289,-5.337
0.154,0.036,0.286,-5.337
0.212,0.035,0.285,-5.337
0.133,0.039,0.282,-5.337
0.095,0.039,0.282,-5.337
0.034,0.040,0.283,-5.337
0.065,0.040,0.287,-5.337
0.081,0.039,0.288,-5.337
0.079,0.046,0.285,-5.337
0.082,0.042,0.288,-5.337
0.117,0.040,0.289,-5.337
0.094,0.041,0.287,-5.337
0.172,0.041,0.288,-5.337
0.182,0.038,0.289,-5.337
0.167,0.042,0.291,-5.337
0.110,0.044,0.290,-5.337
0.092,0.039,0.281,-5.337
0.149,0.036,0.278,-5.337
0.145,0.041,0.281,-5.337
0.091,0.044,0.284,-5.337
0.055,0.042,0.288,-5.337
0.015,0.046,0.291,-5.337
0.041,0.046,0.289,-5.337
0.123,0.042,0.290,-5.337
0.192,0.041,0.287,-5.337
0.124,0.042,0.289,-5.337
0.080,0.042,0.290,-5.337
0.113,0.042,0.290,-5.337
0.121,0.042,0.288,-5.337
0.104,0.046,0.282,-5.337
0.129,0.044,0.284,-5.337
0.163,0.043,0.287,-5.337
0.116,0.043,0.288,-5.337
0.106,0.040,0.289,-5.337
0.074,0.040,0.285,-5.337
0.038,0.047,0.282,-5.337
0.035,0.047,0.285,-5.337
0.089,0.044,0.289,-5.337
0.198,0.039,0.288,-5.337
0.137,0.040,0.284,-5.337
0.076,0.042,0.285,-5.337
0.113,0.043,0.290,-5.337
0.085,0.047,0.292,-5.337
0.073,0.045,0.290,-5.337
0.097,0.042,0.284,-5.337
0.145,0.040,0.277,-5.337
0.186,0.042,0.280,-5.337
0.164,0.044,0.286,-5.337
0.160,0.042,0.289,-5.337
0.223,0.041,0.287,-5.337
0.271,0.042,0.287,-5.337
0.166,0.047,0.285,-5.337
0.050,0.047,0.286,-5.337
0.091,0.042,0.284,-5.337
0.169,0.041,0.283,-5.337
0.187,0.043,0.284,-5.337
0.146,0.044,0.287,-5.337
0.149,0.040,0.289,-5.337
0.201,0.037,0.291,-5.337
0.185,0.038,0.291,-5.337
0.159,0.041,0.286,-5.337
0.166,0.040,0.283,-5.337
0.059,0.041,0.281,-5.337
0.122,0.040,0.285,-5.337
0.228,0.041,0.290,-5.337
0.210,0.044,0.288,-5.337
0.063,0.046,0.287,-5.337
0.024,0.047,0.284,-5.337
0.129,0.047,0.282,-5.337
0.205,0.045,0.287,-5.337
0.139,0.048,0.291,-5.337
0.002,0.052,0.289,-5.337
0.038,0.050,0.287,-5.337
0.104,0.048,0.292,-5.337
0.117,0.049,0.292,-5.337
0.130,0.050,0.290,-5.337
0.166,0.049,0.287,-5.337
0.130,0.052,0.290,-5.337
0.154,0.053,0.288,-5.337
0.208,0.048,0.285,-5.337
0.179,0.045,0.287,-5.337
0.123,0.047,0.286,-5.337
0.108,0.048,0.283,-5.337
0.099,0.049,0.284,-5.337
0.156,0.045,0.283,-5.337
0.232,0.045,0.283,-5.337
0.256,0.044,0.282,-5.337
0.239,0.045,0.280,-5.337
0.180,0.044,0.283,-5.337
0.179,0.043,0.282,-5.337
0.210,0.040,0.282,-5.337
0.221,0.043,0.282,-5.337
0.179,0.049,0.284,-5.337
0.142,0.048,0.284,-5.337
0.221,0.048,0.286,-5.337
0.279,0.047,0.283,-5.337
0.207,0.049,0.284,-5.337
0.118,0.050,0.285,-5.337
0.150,0.050,0.287,-5.337
0.189,0.052,0.285,-5.337
0.157,0.054,0.287,-5.337
0.193,0.053,0.292,-5.337
0.216,0.054,0.294,-5.337
0.181,0.055,0.289,-5.337
0.155,0.057,0.282,-5.337
0.196,0.058,0.281,-5.337
0.233,0.057,0.284,-5.337
0.194,0.057,0.285,-5.337
0.179,0.056,0.285,-5.337
0.142,0.056,0.286,-5.337
0.165,0.054,0.287,-5.337
0.256,0.050,0.286,-5.337
0.279,0.050,0.287,-5.337
0.217,0.050,0.290,-5.337
0.262,0.046,0.287,-5.337
0.262,0.047,0.285,-5.337
0.265,0.049,0.284,-5.337
0.240,0.053,0.282,-5.337
0.258,0.051,0.283,-5.337
0.318,0.052,0.288,-5.337
0.302,0.052,0.287,-5.337
0.211,0.056,0.285,-5.337
0.191,0.056,0.284,-5.337
0.206,0.052,0.282,-5.337
0.213,0.053,0.282,-5.337
0.212,0.056,0.283,-5.337
0.248,0.057,0.285,-5.337
0.236,0.058,0.285,-5.337
0.178,0.057,0.281,-5.337
0.221,0.056,0.283,-5.337
0.316,0.053,0.287,-5.337
0.324,0.053,0.286,-5.337
0.245,0.057,0.284,-5.337
0.186,0.059,0.280,-5.337
0.237,0.059,0.281,-5.337
0.319,0.058,0.281,-5.337
0.297,0.057,0.284,-5.337
0.268,0.059,0.285,-5.337
0.245,0.058,0.289,-5.337
0.288,0.056,0.290,-5.337
0.294,0.059,0.288,-5.337
0.317,0.062,0.284,-5.337
0.341,0.063,0.285,-5.337
0.294,0.063,0.284,-5.337
0.305,0.061,0.283,-5.337
0.235,0.062,0.283,-5.337
0.251,0.059,0.284,-5.337
0.322,0.059,0.284,-5.337
0.294,0.059,0.281,-5.337
0.240,0.059,0.282,-5.337
0.217,0.062,0.283,-5.337
0.270,0.062,0.281,-5.337
0.237,0.063,0.279,-5.337
0.215,0.060,0.282,-5.337
0.242,0.059,0.286,-5.337
0.232,0.062,0.287,-5.337
0.196,0.062,0.283,-5.337
0.211,0.060,0.284,-5.337
0.256,0.059,0.285,-5.337
0.231,0.057,0.287,-5.337
0.254,0.057,0.290,-5.337
0.336,0.058,0.293,-5.337
0.272,0.061,0.294,-5.337
0.206,0.059,0.292,-5.337
0.254,0.055,0.286,-5.337
0.377,0.053,0.282,-5.337
0.395,0.053,0.283,-5.337
0.255,0.058,0.286,-5.337
0.219,0.060,0.286,-5.337
0.260,0.064,0.286,-5.337
0.234,0.065,0.285,-5.337
0.295,0.060,0.284,-5.337
0.306,0.064,0.283,-5.337
0.288,0.066,0.284,-5.337
0.267,0.067,0.282,-5.337
0.161,0.065,0.285,-5.337
0.205,0.064,0.288,-5.337
0.253,0.064,0.288,-5.337
0.347,0.061,0.291,-5.337
0.403,0.056,0.290,-5.337
0.432,0.054,0.287,-5.337
0.411,0.058,0.284,-5.337
0.381,0.057,0.285,-5.337
0.332,0.058,0.287,-5.337
0.213,0.062,0.291,-5.337
0.257,0.062,0.289,-5.337
0.341,0.062,0.286,-5.337
0.346,0.062,0.285,-5.337
0.301,0.064,0.283,-5.337
0.271,0.063,0.283,-5.337
0.307,0.062,0.283,-5.337
0.345,0.061,0.286,-5.337
0.366,0.061,0.289,-5.337
0.355,0.063,0.290,-5.337
0.278,0.065,0.289,-5.337
0.266,0.063,0.287,-5.337
0.325,0.061,0.285,-5.337
0.311,0.064,0.288,-5.337
0.282,0.067,0.286,-5.337
0.318,0.066,0.282,-5.337
0.390,0.058,0.279,-5.337
0.397,0.062,0.281,-5.337
0.424,0.061,0.281,-5.337
0.401,0.063,0.286,-5.337
0.351,0.063,0.286,-5.337
0.292,0.067,0.287,-5.337
0.184,0.070,0.288,-5.337
0.224,0.067,0.291,-5.337
0.311,0.063,0.289,-5.337
0.338,0.066,0.287,-5.337
0.357,0.061,0.286,-5.337
0.363,0.061,0.286,-5.337
0.288,0.063,0.289,-5.337
0.299,0.064,0.287,-5.337
0.358,0.063,0.281,-5.337
0.376,0.063,0.280,-5.337
0.392,0.065,0.282,-5.337
0.389,0.065,0.287,-5.337
0.379,0.061,0.290,-5.337
0.329,0.061,0.290,-5.337
0.307,0.061,0.289,-5.337
0.320,0.059,0.284,-5.337
0.320,0.062,0.279,-5.337
0.302,0.066,0.283,-5.337
0.298,0.064,0.288,-5.337
0.377,0.060,0.287,-5.337
0.391,0.062,0.286,-5.337
0.337,0.065,0.285,-5.337
0.288,0.064,0.282,-5.337
0.313,0.063,0.280,-5.337
0.319,0.067,0.280,-5.337
0.275,0.067,0.280,-5.337
0.226,0.065,0.283,-5.337
0.235,0.064,0.288,-5.337
0.276,0.066,0.291,-5.337
0.252,0.067,0.286,-5.337
0.215,0.070,0.281,-5.337
0.200,0.065,0.280,-5.337
0.241,0.065,0.287,-5.337
0.324,0.066,0.291,-5.337
0.396,0.066,0.290,-5.337
0.401,0.064,0.281,-5.337
0.353,0.065,0.276,-5.337
0.334,0.067,0.277,-5.337
0.301,0.069,0.282,-5.337
0.252,0.068,0.287,-5.337
0.358,0.060,0.287,-5.337
0.438,0.058,0.289,-5.337
0.370,0.066,0.288,-5.337
0.310,0.065,0.288,-5.337
0.329,0.062,0.285,-5.337
0.338,0.064,0.286,-5.337
0.339,0.065,0.285,-5.337
0.341,0.062,0.287,-5.337
0.318,0.064,0.289,-5.337
0.348,0.064,0.289,-5.337
0.366,0.064,0.285,-5.337
0.403,0.060,0.284,-5.337
0.457,0.058,0.285,-5.337
0.485,0.061,0.285,-5.337
0.468,0.059,0.284,-5.337
0.381,0.062,0.282,-5.337
0.284,0.061,0.280,-5.337
0.352,0.061,0.282,-5.337
0.342,0.065,0.285,-5.337
0.309,0.063,0.285,-5.337
0.346,0.061,0.283,-5.337
0.307,0.060,0.282,-5.337
0.254,0.063,0.290,-5.337
0.356,0.062,0.294,-5.337
0.403,0.062,0.292,-5.337
0.391,0.063,0.287,-5.337
0.361,0.063,0.285,-5.337
0.326,0.060,0.281,-5.337
0.343,0.057,0.280,-5.337
0.317,0.055,0.280,-5.337
0.333,0.055,0.285,-5.337
0.350,0.053,0.292,-5.337
0.278,0.057,0.294,-5.337
0.326,0.055,0.289,-5.337
0.375,0.058,0.284,-5.337
0.355,0.059,0.285,-5.337
0.307,0.056,0.289,-5.337
0.304,0.052,0.288,-5.337
0.366,0.052,0.284,-5.337
0.286,0.055,0.282,-5.337
0.241,0.055,0.282,-5.337
0.258,0.058,0.284,-5.337
0.278,0.055,0.288,-5.337
0.265,0.051,0.289,-5.337
0.226,0.050,0.284,-5.337
0.278,0.053,0.283,-5.337
0.259,0.055,0.284,-5.337
0.236,0.050,0.288,-5.337
0.287,0.046,0.288,-5.337
0.306,0.045,0.286,-5.337
0.329,0.046,0.285,-5.337
0.295,0.051,0.285,-5.337
0.311,0.048,0.287,-5.337
0.342,0.051,0.288,-5.337
0.335,0.050,0.288,-5.337
0.353,0.050,0.284,-5.337
0.351,0.048,0.282,-5.337
0.330,0.046,0.285,-5.337
0.318,0.052,0.290,-5.337
0.288,0.054,0.291,-5.337
0.287,0.050,0.289,-5.337
0.298,0.054,0.288,-5.337
0.303,0.056,0.289,-5.337
0.297,0.054,0.289,-5.337
0.288,0.053,0.286,-5.337
0.341,0.052,0.286,-5.337
0.378,0.047,0.288,-5.337
0.343,0.046,0.288,-5.337
0.277,0.049,0.287,-5.337
0.289,0.050,0.285,-5.337
0.311,0.052,0.284,-5.337
0.347,0.049,0.281,-5.337
0.376,0.048,0.283,-5.337
0.234,0.051,0.284,-5.337
0.185,0.053,0.288,-5.337
0.255,0.053,0.289,-5.337
0.275,0.052,0.289,-5.337
0.221,0.050,0.289,-5.337
0.243,0.049,0.290,-5.337
0.247,0.046,0.289,-5.337
0.265,0.047,0.289,-5.337
0.263,0.045,0.290,-5.337
0.295,0.048,0.290,-5.337
0.282,0.046,0.289,-5.337
0.225,0.047,0.287,-5.337
0.211,0.042,0.285,-5.337
0.204,0.042,0.285,-5.337
0.100,0.048,0.282,-5.337
0.102,0.050,0.282,-5.337
0.169,0.043,0.287,-5.337
0.289,0.043,0.288,-5.337
0.282,0.046,0.287,-5.337
0.216,0.048,0.284,-5.337
0.218,0.045,0.286,-5.337
0.280,0.046,0.290,-5.337
0.248,0.050,0.293,-5.337
0.248,0.047,0.292,-5.337
0.205,0.047,0.288,-5.337
0.161,0.047,0.283,-5.337
0.202,0.047,0.283,-5.337
0.231,0.043,0.283,-5.337
0.238,0.043,0.287,-5.337
0.253,0.041,0.288,-5.337
0.245,0.042,0.288,-5.337
0.230,0.043,0.288,-5.337
0.215,0.042,0.286,-5.337
0.185,0.046,0.290,-5.337
0.195,0.047,0.290,-5.337
0.163,0.045,0.287,-5.337
0.081,0.044,0.287,-5.337
0.087,0.042,0.289,-5.337
0.175,0.040,0.292,-5.337
0.205,0.043,0.291,-5.337
0.237,0.044,0.286,-5.337
0.215,0.045,0.282,-5.337
0.108,0.045,0.280,-5.337
0.121,0.044,0.284,-5.337
0.249,0.040,0.286,-5.337
0.287,0.043,0.288,-5.337
0.249,0.046,0.289,-5.337
0.208,0.049,0.287,-5.337
0.242,0.047,0.285,-5.337
0.291,0.042,0.286,-5.337
0.273,0.042,0.288,-5.337
0.218,0.045,0.286,-5.337
0.217,0.045,0.282,-5.337
0.166,0.051,0.287,-5.337
0.109,0.051,0.288,-5.337
0.131,0.046,0.285,-5.337
0.274,0.039,0.284,-5.337
0.295,0.039,0.284,-5.337
0.225,0.041,0.284,-5.337
0.187,0.043,0.287,-5.337
0.177,0.042,0.290,-5.337
0.170,0.044,0.291,-5.337
0.209,0.041,0.289,-5.337
0.225,0.040,0.287,-5.337
0.194,0.043,0.292,-5.337
0.242,0.042,0.292,-5.337
0.213,0.041,0.291,-5.337
0.215,0.035,0.287,-5.337
0.315,0.031,0.286,-5.337
0.308,0.031,0.283,-5.337
0.208,0.032,0.282,-5.337
0.189,0.030,0.282,-5.337
0.285,0.028,0.282,-5.337
0.323,0.029,0.281,-5.337
0.176,0.038,0.280,-5.337
0.096,0.037,0.282,-5.337
0.108,0.039,0.286,-5.337
0.103,0.039,0.289,-5.337
0.169,0.036,0.291,-5.337
0.168,0.039,0.290,-5.337
0.137,0.037,0.288,-5.337
0.158,0.033,0.289,-5.337
0.156,0.034,0.290,-5.337
0.134,0.034,0.289,-5.337
0.116,0.038,0.289,-5.337
0.052,0.039,0.290,-5.337
0.031,0.037,0.290,-5.337
0.068,0.038,0.292,-5.337
0.118,0.037,0.287,-5.337
0.160,0.037,0.281,-5.337
0.205,0.038,0.280,-5.337
0.160,0.039,0.283,-5.337
0.168,0.040,0.289,-5.337
0.147,0.040,0.293,-5.337
0.138,0.042,0.290,-5.337
0.145,0.040,0.287,-5.337
0.118,0.036,0.287,-5.337
0.062,0.035,0.286,-5.337
0.075,0.037,0.288,-5.337
0.101,0.039,0.287,-5.337
0.064,0.039,0.285,-5.337
0.056,0.036,0.283,-5.337
0.096,0.037,0.283,-5.337
0.130,0.038,0.285,-5.337
0.167,0.038,0.286,-5.337
0.132,0.035,0.285,-5.337
0.166,0.035,0.287,-5.337
0.187,0.032,0.288,-5.337
0.225,0.033,0.292,-5.337
0.187,0.038,0.287,-5.337
0.143,0.038,0.286,-5.337
0.089,0.038,0.287,-5.337
0.103,0.036,0.286,-5.337
0.145,0.035,0.284,-5.337
0.096,0.039,0.284,-5.337
0.064,0.042,0.287,-5.337
0.090,0.040,0.287,-5.337
0.134,0.037,0.288,-5.337
0.130,0.038,0.288,-5.337
0.063,0.043,0.288,-5.337
0.042,0.042,0.287,-5.337
0.107,0.036,0.287,-5.337
0.092,0.034,0.287,-5.337
0.069,0.033,0.286,-5.337
0.105,0.033,0.287,-5.337
0.139,0.035,0.291,-5.337
0.106,0.037,0.291,-5.337
0.109,0.038,0.287,-5.337
0.134,0.036,0.284,-5.337
0.098,0.039,0.287,-5.337
0.039,0.042,0.287,-5.337
0.020,0.039,0.285,-5.337
0.137,0.039,0.281,-5.337
0.222,0.038,0.283,-5.337
0.103,0.039,0.286,-5.337
0.097,0.038,0.287,-5.337
0.156,0.040,0.287,-5.337
0.140,0.038,0.292,-5.337
0.191,0.038,0.295,-5.337
0.128,0.040,0.291,-5.337
0.098,0.037,0.287,-5.337
0.109,0.039,0.287,-5.337
0.075,0.040,0.285,-5.337
0.081,0.035,0.283,-5.337
0.115,0.034,0.282,-5.337
0.124,0.038,0.285,-5.337
0.084,0.042,0.286,-5.337
0.123,0.038,0.283,-5.337
0.124,0.038,0.281,-5.337
0.158,0.038,0.287,-5.337
0.167,0.039,0.294,-5.337
0.151,0.039,0.292,-5.337
0.093,0.040,0.286,-5.337
0.030,0.040,0.283,-5.337
0.081,0.041,0.284,-5.337
0.140,0.037,0.288,-5.337
0.157,0.036,0.289,-5.337
0.155,0.040,0.287,-5.337
0.097,0.036,0.289,-5.337
0.081,0.031,0.289,-5.337
0.122,0.034,0.283,-5.337
0.137,0.038,0.280,-5.337
0.109,0.035,0.281,-5.337
0.117,0.031,0.285,-5.337
0.169,0.033,0.286,-5.337
0.166,0.032,0.281,-5.337
0.122,0.034,0.282,-5.337
0.141,0.036,0.288,-5.337
0.161,0.038,0.290,-5.337
0.110,0.037,0.286,-5.337
0.066,0.037,0.285,-5.337
0.114,0.035,0.289,-5.337
0.190,0.036,0.287,-5.337
0.148,0.039,0.283,-5.337
0.045,0.042,0.284,-5.337
-0.016,0.040,0.287,-5.337
0.049,0.037,0.288,-5.337
0.115,0.035,0.288,-5.337
0.048,0.040,0.291,-5.337
0.006,0.040,0.293,-5.337
0.072,0.037,0.292,-5.337
0.087,0.038,0.289,-5.337
0.055,0.038,0.285,-5.337
0.091,0.040,0.284,-5.337
0.130,0.036,0.282,-5.337
0.211,0.032,0.287,-5.337
0.192,0.036,0.288,-5.337
0.135,0.039,0.284,-5.337
0.067,0.041,0.280,-5.337
0.078,0.039,0.279,-5.337
0.173,0.035,0.281,-5.337
0.165,0.034,0.283,-5.337
0.116,0.038,0.286,-5.337
0.107,0.040,0.284,-5.337
0.054,0.042,0.283,-5.337
0.017,0.043,0.285,-5.337
0.096,0.037,0.285,-5.337
0.155,0.036,0.286,-5.337
0.083,0.038,0.290,-5.337
0.018,0.037,0.292,-5.337
0.047,0.034,0.292,-5.337
0.153,0.033,0.288,-5.337
0.132,0.037,0.285,-5.337
0.107,0.034,0.284,-5.337
0.146,0.037,0.285,-5.337
0.129,0.040,0.283,-5.337
0.087,0.041,0.289,-5.337
0.073,0.040,0.290,-5.337
0.120,0.041,0.289,-5.337
0.081,0.041,0.285,-5.337
0.062,0.041,0.283,-5.337
0.093,0.041,0.284,-5.337
0.057,0.042,0.283,-5.337
0.075,0.043,0.283,-5.337
0.098,0.042,0.285,-5.337
0.123,0.042,0.285,-5.337
0.098,0.043,0.285,-5.337
0.092,0.040,0.284,-5.337
0.193,0.038,0.285,-5.337
0.162,0.042,0.288,-5.337
0.129,0.045,0.286,-5.337
0.135,0.042,0.287,-5.337
0.124,0.040,0.289,-5.337
0.076,0.043,0.289,-5.337
0.050,0.042,0.285,-5.337
0.101,0.040,0.285,-5.337
0.078,0.039,0.287,-5.337
0.098,0.039,0.289,-5.337
0.128,0.040,0.291,-5.337
0.172,0.038,0.293,-5.337
0.126,0.041,0.292,-5.337
0.024,0.044,0.288,-5.337
-0.002,0.043,0.288,-5.337
0.074,0.042,0.288,-5.337
0.155,0.040,0.291,-5.337
0.144,0.042,0.290,-5.337
0.108,0.042,0.285,-5.337
0.152,0.044,0.281,-5.337
0.200,0.046,0.282,-5.337
0.177,0.046,0.284,-5.337
0.194,0.043,0.286,-5.337
0.230,0.039,0.288,-5.337
0.145,0.042,0.287,-5.337
0.123,0.041,0.286,-5.337
0.206,0.042,0.289,-5.337
0.201,0.041,0.288,-5.337
0.175,0.043,0.284,-5.337
0.111,0.046,0.282,-5.337
0.154,0.042,0.288,-5.337
0.244,0.044,0.289,-5.337
0.273,0.045,0.287,-5.337
0.228,0.045,0.284,-5.337
0.164,0.045,0.283,-5.337
0.140,0.048,0.285,-5.337
0.143,0.049,0.285,-5.337
0.180,0.047,0.287,-5.337
0.151,0.052,0.291,-5.337
0.154,0.048,0.294,-5.337
0.160,0.048,0.292,-5.337
0.132,0.051,0.289,-5.337
0.111,0.054,0.290,-5.337
0.120,0.056,0.289,-5.337
0.053,0.058,0.285,-5.337
0.042,0.056,0.285,-5.337
0.095,0.053,0.284,-5.337
0.166,0.053,0.285,-5.337
0.219,0.049,0.286,-5.337
0.211,0.050,0.285,-5.337
0.183,0.052,0.282,-5.337
0.191,0.054,0.284,-5.337
0.174,0.054,0.286,-5.337
0.222,0.052,0.288,-5.337
0.234,0.050,0.286,-5.337
0.207,0.053,0.289,-5.337
0.184,0.051,0.289,-5.337
0.192,0.051,0.288,-5.337
0.213,0.049,0.286,-5.337
0.233,0.053,0.291,-5.337
0.195,0.052,0.296,-5.337
0.197,0.054,0.293,-5.337
0.251,0.048,0.289,-5.337
0.309,0.044,0.285,-5.337
0.270,0.046,0.283,-5.337
0.176,0.046,0.285,-5.337
0.113,0.046,0.287,-5.337
0.163,0.047,0.289,-5.337
0.227,0.047,0.290,-5.337
0.233,0.047,0.288,-5.337
0.152,0.047,0.286,-5.337
0.124,0.044,0.284,-5.337
0.133,0.049,0.289,-5.337
0.238,0.047,0.290,-5.337
0.253,0.054,0.291,-5.337
0.164,0.056,0.285,-5.337
0.161,0.052,0.283,-5.337
0.266,0.053,0.285,-5.337
0.340,0.048,0.286,-5.337
0.344,0.044,0.286,-5.337
0.278,0.047,0.287,-5.337
0.163,0.050,0.286,-5.337
0.151,0.049,0.287,-5.337
0.208,0.049,0.284,-5.337
0.186,0.053,0.282,-5.337
0.176,0.053,0.287,-5.337
0.213,0.051,0.293,-5.337
0.245,0.050,0.296,-5.337
0.244,0.054,0.294,-5.337
0.212,0.055,0.288,-5.337
0.260,0.052,0.282,-5.337
0.252,0.053,0.279,-5.337
0.215,0.055,0.282,-5.337
0.242,0.059,0.283,-5.337
0.280,0.056,0.282,-5.337
0.277,0.053,0.284,-5.337
0.227,0.056,0.283,-5.337
0.283,0.057,0.287,-5.337
0.339,0.058,0.287,-5.337
0.346,0.055,0.287,-5.337
0.319,0.053,0.286,-5.337
0.207,0.055,0.286,-5.337
0.230,0.050,0.287,-5.337
0.292,0.047,0.289,-5.337
0.292,0.047,0.288,-5.337
0.212,0.050,0.286,-5.337
0.188,0.053,0.283,-5.337
0.192,0.054,0.283,-5.337
0.237,0.053,0.285,-5.337
0.302,0.050,0.289,-5.337
0.307,0.050,0.292,-5.337
0.309,0.050,0.292,-5.337
0.265,0.051,0.284,-5.337
0.315,0.051,0.280,-5.337
0.331,0.053,0.282,-5.337
0.328,0.053,0.285,-5.337
0.290,0.054,0.286,-5.337
0.307,0.055,0.287,-5.337
0.322,0.056,0.287,-5.337
0.267,0.056,0.283,-5.337
0.290,0.058,0.285,-5.337
0.252,0.061,0.287,-5.337
0.262,0.062,0.290,-5.337
0.214,0.059,0.286,-5.337
0.242,0.056,0.280,-5.337
0.294,0.057,0.277,-5.337
0.301,0.062,0.278,-5.337
0.320,0.062,0.284,-5.337
0.341,0.057,0.289,-5.337
0.397,0.053,0.291,-5.337
0.419,0.055,0.292,-5.337
0.333,0.060,0.289,-5.337
0.305,0.060,0.289,-5.337
0.304,0.056,0.289,-5.337
0.268,0.059,0.290,-5.337
0.226,0.060,0.292,-5.337
0.233,0.060,0.291,-5.337
0.327,0.058,0.291,-5.337
0.383,0.058,0.287,-5.337
0.307,0.065,0.286,-5.337
0.235,0.065,0.286,-5.337
0.234,0.062,0.287,-5.337
0.254,0.061,0.284,-5.337
0.302,0.061,0.285,-5.337
0.370,0.061,0.284,-5.337
0.349,0.061,0.284,-5.337
0.290,0.062,0.284,-5.337
0.292,0.063,0.285,-5.337
0.234,0.063,0.287,-5.337
0.157,0.062,0.286,-5.337
0.215,0.056,0.284,-5.337
0.341,0.054,0.285,-5.337
0.347,0.052,0.287,-5.337
0.330,0.054,0.291,-5.337
0.302,0.058,0.290,-5.337
0.255,0.061,0.287,-5.337
0.260,0.060,0.286,-5.337
0.313,0.057,0.287,-5.337
0.332,0.057,0.287,-5.337
0.329,0.057,0.289,-5.337
0.279,0.060,0.293,-5.337
0.314,0.059,0.291,-5.337
0.406,0.060,0.286,-5.337
0.478,0.058,0.286,-5.337
0.436,0.061,0.291,-5.337
0.363,0.061,0.292,-5.337
0.349,0.063,0.290,-5.337
0.381,0.065,0.287,-5.337
0.292,0.067,0.286,-5.337
0.295,0.064,0.286,-5.337
0.382,0.061,0.288,-5.337
0.349,0.062,0.288,-5.337
0.289,0.065,0.284,-5.337
0.244,0.064,0.281,-5.337
0.250,0.061,0.284,-5.337
0.227,0.064,0.289,-5.337
0.199,0.065,0.289,-5.337
0.266,0.060,0.286,-5.337
0.318,0.058,0.288,-5.337
0.264,0.062,0.288,-5.337
0.265,0.064,0.288,-5.337
0.232,0.064,0.289,-5.337
0.279,0.063,0.289,-5.337
0.389,0.063,0.286,-5.337
0.396,0.062,0.285,-5.337
0.341,0.060,0.288,-5.337
0.306,0.059,0.290,-5.337
0.367,0.059,0.287,-5.337
0.425,0.058,0.283,-5.337
0.431,0.058,0.284,-5.337
0.395,0.062,0.285,-5.337
0.285,0.064,0.287,-5.337
0.297,0.065,0.292,-5.337
0.353,0.063,0.297,-5.337
0.293,0.067,0.296,-5.337
0.255,0.066,0.292,-5.337
0.294,0.065,0.285,-5.337
0.320,0.064,0.281,-5.337
0.308,0.059,0.279,-5.337
0.320,0.060,0.281,-5.337
0.272,0.063,0.282,-5.337
0.228,0.065,0.283,-5.337
0.267,0.061,0.283,-5.337
0.322,0.059,0.284,-5.337
0.342,0.061,0.287,-5.337
0.328,0.059,0.294,-5.337
0.365,0.057,0.293,-5.337
0.366,0.057,0.288,-5.337
0.263,0.063,0.283,-5.337
0.267,0.060,0.284,-5.337
0.319,0.057,0.288,-5.337
0.332,0.058,0.283,-5.337
0.345,0.057,0.282,-5.337
0.312,0.058,0.282,-5.337
0.304,0.058,0.284,-5.337
0.324,0.061,0.285,-5.337
0.300,0.061,0.287,-5.337
0.283,0.058,0.285,-5.337
0.267,0.058,0.286,-5.337
0.286,0.060,0.289,-5.337
0.365,0.057,0.289,-5.337
0.355,0.057,0.286,-5.337
0.284,0.058,0.283,-5.337
0.313,0.057,0.283,-5.337
0.336,0.060,0.285,-5.337
0.333,0.059,0.286,-5.337
0.314,0.058,0.288,-5.337
0.335,0.058,0.289,-5.337
0.338,0.061,0.289,-5.337
0.310,0.058,0.285,-5.337
0.301,0.054,0.280,-5.337
0.344,0.054,0.285,-5.337
0.391,0.055,0.288,-5.337
0.426,0.051,0.288,-5.337
0.430,0.052,0.282,-5.337
0.423,0.055,0.282,-5.337
0.399,0.055,0.286,-5.337
0.281,0.057,0.290,-5.337
0.239,0.058,0.287,-5.337
0.304,0.061,0.283,-5.337
0.363,0.060,0.280,-5.337
0.372,0.057,0.282,-5.337
0.349,0.053,0.285,-5.337
0.317,0.053,0.285,-5.337
0.271,0.053,0.284,-5.337
0.277,0.055,0.285,-5.337
0.336,0.057,0.283,-5.337
0.356,0.059,0.282,-5.337
0.368,0.058,0.284,-5.337
0.242,0.060,0.288,-5.337
0.225,0.056,0.290,-5.337
0.316,0.054,0.289,-5.337
0.358,0.055,0.288,-5.337
0.255,0.061,0.287,-5.337
0.196,0.060,0.285,-5.337
0.236,0.055,0.286,-5.337
0.253,0.056,0.291,-5.337
0.334,0.054,0.289,-5.337
0.335,0.054,0.284,-5.337
0.314,0.052,0.281,-5.337
0.346,0.053,0.281,-5.337
0.326,0.055,0.282,-5.337
0.293,0.056,0.281,-5.337
0.291,0.054,0.282,-5.337
0.308,0.054,0.283,-5.337
0.308,0.051,0.286,-5.337
0.320,0.049,0.289,-5.337
0.316,0.049,0.288,-5.337
0.264,0.052,0.287,-5.337
0.225,0.054,0.285,-5.337
0.312,0.050,0.287,-5.337
0.355,0.050,0.289,-5.337
0.330,0.053,0.290,-5.337
0.347,0.055,0.293,-5.337
0.292,0.054,0.295,-5.337
0.229,0.052,0.294,-5.337
0.263,0.050,0.285,-5.337
0.281,0.051,0.282,-5.337
0.240,0.054,0.280,-5.337
0.230,0.056,0.282,-5.337
0.246,0.050,0.281,-5.337
0.292,0.047,0.282,-5.337
0.271,0.051,0.283,-5.337
0.254,0.052,0.284,-5.337
0.271,0.045,0.286,-5.337
0.261,0.046,0.286,-5.337
0.234,0.050,0.285,-5.337
0.174,0.052,0.290,-5.337
0.137,0.052,0.289,-5.337
0.229,0.051,0.289,-5.337
0.214,0.049,0.286,-5.337
0.235,0.051,0.288,-5.337
0.218,0.051,0.290,-5.337
0.294,0.047,0.289,-5.337
0.348,0.046,0.285,-5.337
0.359,0.049,0.285,-5.337
0.253,0.049,0.288,-5.337
0.269,0.047,0.286,-5.337
0.250,0.047,0.289,-5.337
0.176,0.046,0.290,-5.337
0.146,0.048,0.292,-5.337
0.169,0.048,0.288,-5.337
0.205,0.048,0.286,-5.337
0.131,0.050,0.286,-5.337
0.112,0.047,0.286,-5.337
0.220,0.042,0.283,-5.337
0.270,0.040,0.284,-5.337
0.225,0.043,0.289,-5.337
0.273,0.047,0.291,-5.337
0.290,0.045,0.291,-5.337
0.306,0.044,0.289,-5.337
0.312,0.041,0.287,-5.337
0.323,0.041,0.289,-5.337
0.237,0.045,0.293,-5.337
0.120,0.046,0.291,-5.337
0.126,0.046,0.290,-5.337
0.231,0.043,0.287,-5.337
0.273,0.044,0.287,-5.337
0.254,0.045,0.288,-5.337
0.144,0.047,0.287,-5.337
0.130,0.046,0.285,-5.337
0.238,0.042,0.284,-5.337
0.259,0.042,0.284,-5.337
0.230,0.044,0.288,-5.337
0.145,0.046,0.286,-5.337
0.118,0.049,0.287,-5.337
0.223,0.043,0.287,-5.337
0.239,0.046,0.291,-5.337
0.157,0.047,0.295,-5.337
0.104,0.047,0.297,-5.337
0.143,0.041,0.293,-5.337
0.186,0.040,0.286,-5.337
0.197,0.039,0.282,-5.337
0.236,0.043,0.288,-5.337
0.257,0.039,0.289,-5.337
0.219,0.039,0.283,-5.337
0.156,0.042,0.279,-5.337
0.179,0.042,0.283,-5.337
0.313,0.039,0.286,-5.337
0.374,0.042,0.288,-5.337
0.291,0.043,0.294,-5.337
0.138,0.045,0.296,-5.337
0.033,0.043,0.292,-5.337
0.118,0.042,0.289,-5.337
0.188,0.041,0.291,-5.337
0.236,0.040,0.291,-5.337
0.196,0.042,0.291,-5.337
0.172,0.040,0.287,-5.337
0.101,0.041,0.283,-5.337
0.081,0.041,0.282,-5.337
0.109,0.040,0.283,-5.337
0.165,0.039,0.288,-5.337
0.196,0.040,0.294,-5.337
0.238,0.039,0.292,-5.337
0.271,0.042,0.286,-5.337
0.245,0.042,0.281,-5.337
0.201,0.044,0.281,-5.337
0.205,0.041,0.284,-5.337
0.234,0.039,0.284,-5.337
0.264,0.037,0.285,-5.337
0.196,0.041,0.288,-5.337
0.146,0.042,0.291,-5.337
0.172,0.040,0.288,-5.337
0.162,0.038,0.285,-5.337
0.158,0.038,0.286,-5.337
0.189,0.036,0.289,-5.337
0.202,0.037,0.289,-5.337
0.181,0.035,0.288,-5.337
0.090,0.038,0.288,-5.337
0.140,0.035,0.288,-5.337
0.197,0.038,0.284,-5.337
0.220,0.040,0.287,-5.337
0.131,0.040,0.287,-5.337
0.032,0.042,0.288,-5.337
0.048,0.040,0.291,-5.337
0.182,0.039,0.295,-5.337
0.142,0.041,0.293,-5.337
0.043,0.040,0.288,-5.337
0.106,0.037,0.283,-5.337
0.233,0.035,0.282,-5.337
0.193,0.037,0.282,-5.337
0.137,0.040,0.286,-5.337
0.072,0.040,0.290,-5.337
0.037,0.041,0.291,-5.337
0.112,0.043,0.287,-5.337
0.163,0.041,0.284,-5.337
0.168,0.037,0.283,-5.337
0.168,0.037,0.285,-5.337
0.173,0.040,0.288,-5.337
0.186,0.042,0.286,-5.337
0.150,0.039,0.286,-5.337
0.192,0.039,0.289,-5.337
0.224,0.037,0.291,-5.337
0.278,0.036,0.288,-5.337
0.243,0.040,0.285,-5.337
0.220,0.041,0.285,-5.337
0.239,0.042,0.285,-5.337
0.261,0.042,0.287,-5.337
0.219,0.040,0.288,-5.337
0.121,0.036,0.287,-5.337
0.071,0.035,0.289,-5.337
0.108,0.035,0.289,-5.337
0.070,0.039,0.289,-5.337
0.024,0.038,0.288,-5.337
0.070,0.037,0.286,-5.337
0.070,0.041,0.288,-5.337
-0.040,0.044,0.291,-5.337
-0.085,0.044,0.291,-5.337
0.068,0.038,0.286,-5.337
0.144,0.041,0.283,-5.337
0.065,0.045,0.281,-5.337
0.100,0.041,0.285,-5.337
0.122,0.038,0.286,-5.337
0.089,0.036,0.292,-5.337
0.086,0.038,0.294,-5.337
0.115,0.039,0.293,-5.337
0.103,0.037,0.289,-5.337
0.069,0.039,0.285,-5.337
0.114,0.041,0.282,-5.337
0.164,0.040,0.281,-5.337
0.124,0.037,0.283,-5.337
0.053,0.038,0.288,-5.337
0.035,0.039,0.290,-5.337
0.055,0.041,0.292,-5.337
0.084,0.038,0.289,-5.337
0.090,0.036,0.286,-5.337
0.114,0.036,0.286,-5.337
0.213,0.035,0.287,-5.337
0.172,0.032,0.289,-5.337
0.133,0.033,0.291,-5.337
0.158,0.039,0.289,-5.337
0.174,0.037,0.287,-5.337
0.231,0.031,0.291,-5.337
0.181,0.033,0.290,-5.337
0.119,0.038,0.289,-5.337
0.090,0.038,0.287,-5.337
0.087,0.040,0.288,-5.337
0.104,0.038,0.286,-5.337
0.141,0.038,0.287,-5.337
0.169,0.037,0.290,-5.337
0.195,0.040,0.291,-5.337
0.185,0.039,0.287,-5.337
0.072,0.039,0.284,-5.337
0.089,0.039,0.283,-5.337
0.135,0.040,0.283,-5.337
0.112,0.038,0.283,-5.337
0.133,0.041,0.283,-5.337
0.170,0.041,0.284,-5.337
0.176,0.043,0.286,-5.337
0.163,0.042,0.286,-5.337
0.132,0.043,0.284,-5.337
0.059,0.040,0.283,-5.337
0.103,0.037,0.288,-5.337
0.129,0.036,0.292,-5.337
0.119,0.039,0.293,-5.337
0.103,0.037,0.293,-5.337
0.044,0.040,0.292,-5.337
-0.020,0.040,0.291,-5.337
-0.012,0.043,0.287,-5.337
0.081,0.039,0.286,-5.337
0.110,0.040,0.286,-5.337
0.084,0.044,0.287,-5.337
0.136,0.040,0.285,-5.337
0.154,0.037,0.284,-5.337
0.123,0.040,0.287,-5.337
0.101,0.045,0.291,-5.337
0.180,0.040,0.290,-5.337
0.256,0.033,0.286,-5.337
0.256,0.032,0.284,-5.337
0.128,0.037,0.286,-5.337
0.052,0.040,0.292,-5.337
0.092,0.040,0.291,-5.337
0.185,0.037,0.284,-5.337
0.170,0.038,0.282,-5.337
0.125,0.039,0.286,-5.337
0.138,0.042,0.288,-5.337
0.145,0.041,0.288,-5.337
0.129,0.039,0.284,-5.337
0.087,0.037,0.282,-5.337
0.133,0.037,0.284,-5.337
0.108,0.043,0.292,-5.337
0.005,0.044,0.294,-5.337
0.014,0.043,0.290,-5.337
0.057,0.044,0.286,-5.337
0.091,0.042,0.286,-5.337
0.143,0.035,0.287,-5.337
0.127,0.038,0.291,-5.337
0.019,0.042,0.292,-5.337
0.057,0.038,0.291,-5.337
0.166,0.033,0.291,-5.337
0.084,0.043,0.288,-5.337
0.017,0.045,0.285,-5.337
0.062,0.044,0.284,-5.337
0.060,0.044,0.284,-5.337
0.029,0.045,0.284,-5.337
0.032,0.044,0.286,-5.337
0.090,0.042,0.288,-5.337
0.129,0.043,0.285,-5.337
0.191,0.044,0.282,-5.337
0.206,0.045,0.283,-5.337
0.214,0.042,0.280,-5.337
0.192,0.044,0.279,-5.337
0.174,0.044,0.282,-5.337
0.175,0.046,0.290,-5.337
0.182,0.043,0.289,-5.337
0.129,0.043,0.286,-5.337
0.111,0.042,0.280,-5.337
0.067,0.043,0.279,-5.337
0.110,0.044,0.281,-5.337
0.071,0.045,0.285,-5.337
0.081,0.042,0.288,-5.337
0.129,0.042,0.288,-5.337
0.089,0.041,0.286,-5.337
0.115,0.042,0.286,-5.337
0.100,0.043,0.287,-5.337
0.066,0.045,0.289,-5.337
0.136,0.041,0.289,-5.337
0.167,0.043,0.289,-5.337
0.129,0.044,0.285,-5.337
0.161,0.045,0.284,-5.337
0.158,0.046,0.287,-5.337
0.163,0.044,0.290,-5.337
0.224,0.045,0.289,-5.337
0.148,0.049,0.286,-5.337
0.193,0.044,0.283,-5.337
0.249,0.043,0.281,-5.337
0.194,0.043,0.284,-5.337
0.123,0.045,0.285,-5.337
0.078,0.045,0.285,-5.337
0.123,0.047,0.287,-5.337
0.147,0.046,0.284,-5.337
0.123,0.042,0.280,-5.337
0.187,0.041,0.283,-5.337
0.166,0.044,0.286,-5.337
0.172,0.048,0.286,-5.337
0.191,0.047,0.285,-5.337
0.161,0.044,0.283,-5.337
0.182,0.040,0.284,-5.337
0.159,0.043,0.290,-5.337
0.123,0.046,0.292,-5.337
0.153,0.046,0.292,-5.337
0.179,0.045,0.291,-5.337
0.208,0.042,0.287,-5.337
0.210,0.041,0.284,-5.337
0.189,0.040,0.282,-5.337
0.160,0.044,0.287,-5.337
0.052,0.047,0.288,-5.337
0.082,0.047,0.285,-5.337
0.188,0.043,0.282,-5.337
0.189,0.045,0.284,-5.337
0.075,0.048,0.286,-5.337
0.089,0.048,0.290,-5.337
0.191,0.045,0.291,-5.337
0.188,0.046,0.288,-5.337
0.169,0.046,0.286,-5.337
0.225,0.046,0.289,-5.337
0.271,0.043,0.288,-5.337
0.280,0.047,0.287,-5.337
0.207,0.048,0.286,-5.337
0.267,0.045,0.286,-5.337
0.339,0.044,0.285,-5.337
0.271,0.045,0.287,-5.337
0.157,0.045,0.289,-5.337
0.111,0.045,0.284,-5.337
0.129,0.045,0.280,-5.337
0.174,0.049,0.280,-5.337
0.132,0.052,0.287,-5.337
0.149,0.049,0.288,-5.337
0.202,0.046,0.286,-5.337
0.254,0.048,0.282,-5.337
0.223,0.052,0.286,-5.337
0.198,0.053,0.291,-5.337
0.227,0.053,0.292,-5.337
0.198,0.052,0.287,-5.337
0.172,0.052,0.286,-5.337
0.178,0.054,0.286,-5.337
0.234,0.053,0.286,-5.337
0.260,0.050,0.287,-5.337
0.260,0.051,0.288,-5.337
0.206,0.051,0.288,-5.337
0.254,0.050,0.287,-5.337
0.309,0.048,0.290,-5.337
0.231,0.049,0.294,-5.337
0.241,0.050,0.292,-5.337
0.269,0.052,0.286,-5.337
0.214,0.055,0.282,-5.337
0.172,0.055,0.284,-5.337
0.221,0.051,0.289,-5.337
0.271,0.049,0.290,-5.337
0.264,0.044,0.288,-5.337
0.199,0.047,0.289,-5.337
0.275,0.049,0.292,-5.337
0.296,0.050,0.292,-5.337
0.238,0.051,0.288,-5.337
0.165,0.051,0.283,-5.337
0.213,0.051,0.283,-5.337
0.270,0.052,0.281,-5.337
0.248,0.054,0.281,-5.337
0.250,0.056,0.284,-5.337
0.225,0.054,0.288,-5.337
0.175,0.052,0.289,-5.337
0.170,0.055,0.289,-5.337
0.205,0.054,0.291,-5.337
0.238,0.053,0.289,-5.337
0.215,0.055,0.285,-5.337
0.195,0.055,0.283,-5.337
0.190,0.054,0.287,-5.337
0.161,0.055,0.288,-5.337
0.136,0.059,0.287,-5.337
0.193,0.053,0.288,-5.337
0.287,0.052,0.291,-5.337
0.313,0.052,0.291,-5.337
0.300,0.053,0.292,-5.337
0.236,0.054,0.292,-5.337
0.276,0.051,0.289,-5.337
0.412,0.050,0.288,-5.337
0.391,0.057,0.292,-5.337
0.239,0.058,0.289,-5.337
0.182,0.056,0.284,-5.337
0.199,0.052,0.279,-5.337
0.240,0.054,0.280,-5.337
0.284,0.057,0.279,-5.337
0.314,0.057,0.283,-5.337
0.337,0.056,0.293,-5.337
0.319,0.057,0.300,-5.337
0.265,0.057,0.298,-5.337
0.281,0.055,0.287,-5.337
0.335,0.053,0.284,-5.337
0.329,0.053,0.281,-5.337
0.321,0.054,0.281,-5.337
0.316,0.059,0.281,-5.337
0.315,0.060,0.281,-5.337
0.388,0.057,0.283,-5.337
0.391,0.056,0.284,-5.337
0.355,0.056,0.287,-5.337
0.323,0.054,0.290,-5.337
0.342,0.056,0.289,-5.337
0.335,0.058,0.290,-5.337
0.248,0.059,0.287,-5.337
0.277,0.057,0.286,-5.337
0.355,0.057,0.286,-5.337
0.350,0.057,0.288,-5.337
0.295,0.054,0.285,-5.337
0.269,0.055,0.282,-5.337
0.235,0.061,0.279,-5.337
0.211,0.060,0.279,-5.337
0.262,0.055,0.281,-5.337
0.293,0.054,0.284,-5.337
0.281,0.055,0.286,-5.337
0.239,0.060,0.284,-5.337
0.238,0.061,0.282,-5.337
0.294,0.057,0.282,-5.337
0.334,0.054,0.283,-5.337
0.311,0.055,0.288,-5.337
0.306,0.058,0.291,-5.337
0.373,0.060,0.290,-5.337
0.396,0.059,0.290,-5.337
0.380,0.059,0.289,-5.337
0.318,0.059,0.287,-5.337
0.273,0.060,0.285,-5.337
0.324,0.059,0.283,-5.337
0.385,0.059,0.283,-5.337
0.280,0.060,0.285,-5.337
0.212,0.059,0.286,-5.337
0.229,0.060,0.288,-5.337
0.254,0.061,0.286,-5.337
0.263,0.060,0.289,-5.337
0.379,0.060,0.292,-5.337
0.404,0.061,0.292,-5.337
0.273,0.062,0.288,-5.337
0.242,0.064,0.285,-5.337
0.298,0.065,0.283,-5.337
0.377,0.062,0.284,-5.337
0.400,0.062,0.285,-5.337
0.289,0.065,0.285,-5.337
0.314,0.062,0.281,-5.337
0.379,0.062,0.284,-5.337
0.337,0.062,0.288,-5.337
0.242,0.062,0.286,-5.337
0.231,0.062,0.288,-5.337
0.198,0.063,0.288,-5.337
0.204,0.066,0.290,-5.337
0.286,0.062,0.289,-5.337
0.347,0.060,0.287,-5.337
0.326,0.062,0.284,-5.337
0.219,0.063,0.285,-5.337
0.259,0.058,0.287,-5.337
0.313,0.059,0.291,-5.337
0.318,0.058,0.291,-5.337
0.286,0.063,0.290,-5.337
0.255,0.065,0.286,-5.337
0.279,0.063,0.285,-5.337
0.387,0.059,0.287,-5.337
0.404,0.062,0.284,-5.337
0.332,0.062,0.284,-5.337
0.328,0.058,0.285,-5.337
0.384,0.057,0.285,-5.337
0.408,0.059,0.289,-5.337
0.364,0.062,0.286,-5.337
0.316,0.065,0.286,-5.337
0.294,0.064,0.288,-5.337
0.339,0.061,0.288,-5.337
0.333,0.059,0.288,-5.337
0.306,0.055,0.286,-5.337
0.341,0.057,0.285,-5.337
0.375,0.059,0.283,-5.337
0.388,0.060,0.283,-5.337
0.365,0.059,0.283,-5.337
0.296,0.058,0.283,-5.337
0.379,0.052,0.283,-5.337
0.487,0.055,0.283,-5.337
0.395,0.059,0.286,-5.337
0.310,0.059,0.288,-5.337
0.278,0.059,0.290,-5.337
0.277,0.055,0.289,-5.337
0.361,0.052,0.285,-5.337
0.374,0.055,0.284,-5.337
0.372,0.055,0.288,-5.337
0.358,0.058,0.292,-5.337
0.294,0.057,0.290,-5.337
0.269,0.058,0.287,-5.337
0.240,0.057,0.283,-5.337
0.283,0.053,0.288,-5.337
0.292,0.061,0.292,-5.337
0.305,0.057,0.290,-5.337
0.384,0.054,0.284,-5.337
0.381,0.055,0.281,-5.337
0.331,0.057,0.281,-5.337
0.300,0.057,0.280,-5.337
0.298,0.057,0.283,-5.337
0.315,0.056,0.286,-5.337
0.275,0.059,0.288,-5.337
0.274,0.059,0.285,-5.337
0.293,0.058,0.286,-5.337
0.298,0.056,0.284,-5.337
0.323,0.058,0.285,-5.337
0.318,0.061,0.287,-5.337
0.320,0.061,0.290,-5.337
0.297,0.055,0.288,-5.337
0.354,0.052,0.285,-5.337
0.418,0.052,0.287,-5.337
0.438,0.053,0.289,-5.337
0.367,0.054,0.287,-5.337
0.314,0.054,0.283,-5.337
0.300,0.057,0.282,-5.337
0.298,0.057,0.285,-5.337
0.284,0.060,0.285,-5.337
0.273,0.059,0.281,-5.337
0.327,0.060,0.281,-5.337
0.255,0.062,0.284,-5.337
0.248,0.062,0.289,-5.337
0.213,0.059,0.289,-5.337
0.185,0.058,0.286,-5.337
0.277,0.054,0.283,-5.337
0.375,0.054,0.283,-5.337
0.337,0.056,0.281,-5.337
0.290,0.056,0.284,-5.337
0.311,0.057,0.287,-5.337
0.348,0.056,0.288,-5.337
0.350,0.053,0.286,-5.337
0.340,0.054,0.283,-5.337
0.332,0.050,0.285,-5.337
0.387,0.053,0.286,-5.337
0.363,0.052,0.288,-5.337
0.306,0.052,0.286,-5.337
0.264,0.053,0.287,-5.337
0.283,0.054,0.288,-5.337
0.275,0.054,0.285,-5.337
0.259,0.051,0.284,-5.337
0.264,0.053,0.286,-5.337
0.307,0.053,0.288,-5.337
0.278,0.055,0.287,-5.337
0.247,0.056,0.286,-5.337
0.222,0.057,0.291,-5.337
0.229,0.055,0.290,-5.337
0.215,0.052,0.286,-5.337
0.247,0.051,0.280,-5.337
0.249,0.053,0.280,-5.337
0.268,0.051,0.282,-5.337
0.327,0.047,0.284,-5.337
0.334,0.047,0.280,-5.337
0.317,0.050,0.281,-5.337
0.312,0.050,0.285,-5.337
0.244,0.050,0.288,-5.337
0.274,0.049,0.287,-5.337
0.308,0.047,0.286,-5.337
0.309,0.048,0.287,-5.337
0.361,0.045,0.290,-5.337
0.350,0.047,0.286,-5.337
0.209,0.050,0.281,-5.337
0.141,0.052,0.281,-5.337
0.179,0.048,0.287,-5.337
0.216,0.049,0.291,-5.337
0.181,0.051,0.289,-5.337
0.229,0.049,0.284,-5.337
0.332,0.045,0.283,-5.337
0.328,0.044,0.285,-5.337
0.207,0.047,0.284,-5.337
0.091,0.051,0.285,-5.337
0.181,0.052,0.287,-5.337
0.235,0.052,0.287,-5.337
0.265,0.050,0.285,-5.337
0.289,0.048,0.283,-5.337
0.291,0.046,0.284,-5.337
0.221,0.049,0.288,-5.337
0.188,0.045,0.289,-5.337
0.235,0.044,0.287,-5.337
0.247,0.046,0.282,-5.337
0.255,0.051,0.281,-5.337
0.186,0.050,0.282,-5.337
0.087,0.048,0.285,-5.337
0.127,0.045,0.286,-5.337
0.190,0.047,0.285,-5.337
0.194,0.050,0.289,-5.337
0.190,0.049,0.290,-5.337
0.194,0.044,0.287,-5.337
0.170,0.042,0.283,-5.337
0.207,0.042,0.283,-5.337
0.241,0.041,0.285,-5.337
0.263,0.046,0.289,-5.337
0.175,0.048,0.290,-5.337
0.092,0.047,0.291,-5.337
0.129,0.043,0.290,-5.337
0.174,0.046,0.288,-5.337
0.146,0.048,0.289,-5.337
0.079,0.046,0.288,-5.337
0.099,0.043,0.285,-5.337
0.181,0.044,0.281,-5.337
0.289,0.042,0.282,-5.337
0.245,0.045,0.281,-5.337
0.117,0.048,0.280,-5.337
0.119,0.050,0.285,-5.337
0.127,0.049,0.290,-5.337
0.183,0.045,0.293,-5.337
0.201,0.046,0.292,-5.337
0.173,0.047,0.289,-5.337
0.178,0.048,0.286,-5.337
0.209,0.043,0.288,-5.337
0.243,0.042,0.291,-5.337
0.217,0.043,0.287,-5.337
0.173,0.045,0.287,-5.337
0.144,0.043,0.290,-5.337
0.119,0.044,0.290,-5.337
0.100,0.043,0.286,-5.337
0.071,0.045,0.284,-5.337
0.073,0.044,0.285,-5.337
0.115,0.042,0.287,-5.337
0.131,0.042,0.290,-5.337
0.161,0.038,0.293,-5.337
0.149,0.034,0.293,-5.337
0.188,0.037,0.292,-5.337
0.214,0.040,0.285,-5.337
0.212,0.043,0.283,-5.337
0.209,0.041,0.285,-5.337
0.171,0.042,0.289,-5.337
0.114,0.042,0.292,-5.337
0.122,0.043,0.291,-5.337
0.177,0.045,0.285,-5.337
0.195,0.048,0.284,-5.337
0.190,0.048,0.285,-5.337
0.213,0.046,0.285,-5.337
0.152,0.048,0.286,-5.337
0.153,0.047,0.292,-5.337
0.184,0.046,0.293,-5.337
0.090,0.047,0.288,-5.337
0.037,0.049,0.288,-5.337
0.106,0.044,0.289,-5.337
0.161,0.044,0.293,-5.337
0.210,0.039,0.292,-5.337
0.232,0.038,0.291,-5.337
0.159,0.036,0.288,-5.337
0.122,0.039,0.287,-5.337
0.086,0.043,0.290,-5.337
0.051,0.045,0.291,-5.337
0.054,0.047,0.290,-5.337
0.132,0.045,0.288,-5.337
0.180,0.042,0.288,-5.337
0.090,0.041,0.287,-5.337
0.057,0.042,0.288,-5.337
0.052,0.046,0.292,-5.337
0.162,0.041,0.289,-5.337
0.255,0.037,0.290,-5.337
0.200,0.037,0.289,-5.337
0.095,0.040,0.288,-5.337
0.032,0.043,0.289,-5.337
0.043,0.043,0.288,-5.337
0.098,0.039,0.283,-5.337
0.084,0.041,0.282,-5.337
0.078,0.041,0.286,-5.337
0.090,0.039,0.290,-5.337
0.116,0.037,0.290,-5.337
0.172,0.036,0.289,-5.337
0.168,0.037,0.289,-5.337
0.209,0.037,0.289,-5.337
0.171,0.037,0.290,-5.337
0.101,0.038,0.289,-5.337
0.121,0.039,0.285,-5.337
0.177,0.035,0.283,-5.337
0.196,0.034,0.285,-5.337
0.125,0.036,0.289,-5.337
0.097,0.037,0.296,-5.337
0.163,0.037,0.292,-5.337
0.106,0.040,0.287,-5.337
0.164,0.040,0.282,-5.337
0.213,0.039,0.282,-5.337
0.201,0.040,0.284,-5.337
0.205,0.038,0.287,-5.337
0.160,0.041,0.288,-5.337
0.049,0.043,0.285,-5.337
0.079,0.040,0.287,-5.337
0.142,0.038,0.288,-5.337
0.161,0.038,0.288,-5.337
0.148,0.041,0.284,-5.337
0.123,0.039,0.287,-5.337
0.165,0.036,0.288,-5.337
0.155,0.036,0.285,-5.337
0.120,0.038,0.281,-5.337
0.152,0.039,0.283,-5.337
0.153,0.037,0.287,-5.337
0.193,0.036,0.290,-5.337
0.139,0.034,0.289,-5.337
0.013,0.037,0.286,-5.337
0.029,0.034,0.286,-5.337
0.111,0.034,0.289,-5.337
0.099,0.038,0.288,-5.337
0.105,0.039,0.285,-5.337
0.179,0.040,0.288,-5.337
0.153,0.042,0.291,-5.337
0.099,0.042,0.292,-5.337
0.081,0.041,0.291,-5.337
0.090,0.040,0.290,-5.337
0.095,0.039,0.285,-5.337
0.098,0.038,0.284,-5.337
0.068,0.037,0.284,-5.337
-0.009,0.036,0.282,-5.337
0.060,0.035,0.281,-5.337
0.197,0.037,0.284,-5.337
0.172,0.040,0.285,-5.337
0.012,0.043,0.289,-5.337
0.047,0.041,0.291,-5.337
0.161,0.039,0.291,-5.337
0.152,0.037,0.288,-5.337
0.108,0.039,0.288,-5.337
0.056,0.040,0.290,-5.337
0.110,0.038,0.290,-5.337
0.136,0.038,0.287,-5.337
0.124,0.038,0.286,-5.337
0.094,0.042,0.287,-5.337
0.123,0.040,0.284,-5.337
0.180,0.035,0.284,-5.337
0.191,0.036,0.288,-5.337
0.097,0.039,0.290,-5.337
0.030,0.042,0.287,-5.337
0.062,0.041,0.286,-5.337
0.074,0.040,0.284,-5.337
0.102,0.039,0.288,-5.337
0.147,0.039,0.290,-5.337
0.138,0.041,0.291,-5.337
0.105,0.043,0.288,-5.337
0.112,0.044,0.287,-5.337
0.140,0.044,0.287,-5.337
0.143,0.041,0.289,-5.337
0.230,0.033,0.284,-5.337
0.267,0.038,0.281,-5.337
0.161,0.042,0.286,-5.337
0.046,0.043,0.291,-5.337
0.055,0.044,0.290,-5.337
0.068,0.044,0.290,-5.337
0.023,0.043,0.285,-5.337
0.053,0.041,0.284,-5.337
0.078,0.040,0.288,-5.337
0.065,0.041,0.290,-5.337
0.162,0.038,0.292,-5.337
0.226,0.039,0.292,-5.337
0.174,0.038,0.291,-5.337
0.081,0.045,0.290,-5.337
0.019,0.048,0.286,-5.337
0.004,0.045,0.286,-5.337
0.062,0.042,0.286,-5.337
0.096,0.039,0.284,-5.337
0.048,0.041,0.284,-5.337
0.102,0.040,0.286,-5.337
0.140,0.040,0.293,-5.337
0.064,0.037,0.292,-5.337
0.062,0.034,0.289,-5.337
0.134,0.036,0.289,-5.337
0.174,0.041,0.291,-5.337
0.131,0.037,0.288,-5.337
0.167,0.037,0.282,-5.337
0.161,0.043,0.281,-5.337
0.113,0.041,0.286,-5.337
0.114,0.040,0.291,-5.337
0.099,0.042,0.293,-5.337
0.136,0.042,0.292,-5.337
0.149,0.046,0.291,-5.337
0.087,0.048,0.287,-5.337
0.091,0.048,0.285,-5.337
0.077,0.048,0.283,-5.337
0.113,0.048,0.283,-5.337
0.167,0.048,0.282,-5.337
0.139,0.049,0.283,-5.337
0.132,0.047,0.287,-5.337
0.091,0.046,0.287,-5.337
0.110,0.044,0.286,-5.337
0.123,0.045,0.281,-5.337
0.084,0.047,0.283,-5.337
0.060,0.046,0.285,-5.337
0.159,0.046,0.290,-5.337
0.152,0.048,0.289,-5.337
0.050,0.050,0.289,-5.337
0.082,0.048,0.293,-5.337
0.120,0.047,0.293,-5.337
0.138,0.047,0.289,-5.337
0.136,0.046,0.284,-5.337
0.149,0.044,0.280,-5.337
0.057,0.049,0.283,-5.337
0.037,0.045,0.287,-5.337
0.164,0.043,0.290,-5.337
0.242,0.044,0.288,-5.337
0.244,0.043,0.286,-5.337
0.169,0.044,0.286,-5.337
0.125,0.046,0.285,-5.337
0.080,0.044,0.286,-5.337
0.151,0.042,0.282,-5.337
0.200,0.044,0.282,-5.337
0.197,0.043,0.284,-5.337
0.143,0.044,0.288,-5.337
0.137,0.045,0.285,-5.337
0.191,0.046,0.285,-5.337
0.198,0.046,0.289,-5.337
0.134,0.048,0.289,-5.337
0.124,0.045,0.284,-5.337
0.212,0.042,0.286,-5.337
0.212,0.043,0.288,-5.337
0.166,0.048,0.287,-5.337
0.165,0.048,0.284,-5.337
0.192,0.049,0.283,-5.337
0.202,0.049,0.285,-5.337
0.177,0.050,0.288,-5.337
0.096,0.051,0.289,-5.337
0.110,0.049,0.287,-5.337
0.112,0.051,0.287,-5.337
0.145,0.050,0.286,-5.337
0.188,0.045,0.285,-5.337
0.248,0.045,0.286,-5.337
0.260,0.047,0.290,-5.337
0.197,0.048,0.289,-5.337
0.141,0.046,0.291,-5.337
0.096,0.044,0.287,-5.337
0.138,0.042,0.284,-5.337
0.146,0.046,0.288,-5.337
0.178,0.047,0.289,-5.337
0.225,0.049,0.286,-5.337
0.190,0.052,0.284,-5.337
0.078,0.052,0.284,-5.337
0.117,0.050,0.284,-5.337
0.215,0.048,0.281,-5.337
0.203,0.052,0.282,-5.337
0.176,0.051,0.288,-5.337
0.149,0.050,0.291,-5.337
0.175,0.049,0.293,-5.337
0.224,0.046,0.292,-5.337
0.253,0.045,0.288,-5.337
0.176,0.049,0.283,-5.337
0.079,0.050,0.281,-5.337
0.120,0.048,0.284,-5.337
0.235,0.044,0.292,-5.337
0.272,0.045,0.292,-5.337
0.255,0.044,0.289,-5.337
0.178,0.044,0.284,-5.337
0.102,0.044,0.285,-5.337
0.118,0.045,0.285,-5.337
0.204,0.046,0.284,-5.337
0.200,0.046,0.285,-5.337
0.154,0.044,0.287,-5.337
0.201,0.042,0.288,-5.337
0.193,0.043,0.288,-5.337
0.241,0.038,0.285,-5.337
0.307,0.038,0.286,-5.337
0.262,0.039,0.284,-5.337
0.205,0.042,0.285,-5.337
0.165,0.044,0.284,-5.337
0.202,0.044,0.285,-5.337
0.298,0.041,0.285,-5.337
0.331,0.042,0.284,-5.337
0.264,0.046,0.286,-5.337
0.257,0.050,0.285,-5.337
0.358,0.047,0.283,-5.337
0.339,0.048,0.285,-5.337
0.241,0.050,0.288,-5.337
0.190,0.047,0.287,-5.337
0.252,0.047,0.290,-5.337
0.273,0.049,0.291,-5.337
0.266,0.049,0.292,-5.337
0.288,0.047,0.288,-5.337
0.275,0.046,0.284,-5.337
0.318,0.049,0.282,-5.337
0.280,0.054,0.284,-5.337
0.215,0.053,0.285,-5.337
0.250,0.054,0.285,-5.337
0.256,0.052,0.283,-5.337
0.172,0.053,0.286,-5.337
0.184,0.052,0.287,-5.337
0.211,0.051,0.288,-5.337
0.222,0.051,0.286,-5.337
0.259,0.049,0.285,-5.337
0.253,0.051,0.287,-5.337
0.259,0.049,0.288,-5.337
0.297,0.047,0.289,-5.337
0.299,0.048,0.289,-5.337
0.227,0.051,0.286,-5.337
0.209,0.052,0.283,-5.337
0.220,0.052,0.288,-5.337
0.303,0.047,0.289,-5.337
0.341,0.050,0.287,-5.337
0.267,0.054,0.288,-5.337
0.266,0.055,0.293,-5.337
0.289,0.056,0.293,-5.337
0.345,0.055,0.296,-5.337
0.395,0.054,0.293,-5.337
0.313,0.056,0.284,-5.337
0.246,0.058,0.282,-5.337
0.274,0.061,0.288,-5.337
0.310,0.060,0.291,-5.337
0.370,0.058,0.290,-5.337
0.405,0.053,0.288,-5.337
0.376,0.057,0.289,-5.337
0.328,0.059,0.289,-5.337
0.316,0.056,0.284,-5.337
0.341,0.057,0.282,-5.337
0.362,0.057,0.288,-5.337
0.385,0.058,0.291,-5.337
0.384,0.055,0.290,-5.337
0.382,0.053,0.290,-5.337
0.351,0.056,0.289,-5.337
0.282,0.057,0.290,-5.337
0.305,0.058,0.289,-5.337
0.252,0.056,0.289,-5.337
0.267,0.054,0.286,-5.337
0.273,0.055,0.285,-5.337
0.255,0.055,0.282,-5.337
0.262,0.054,0.286,-5.337
0.305,0.058,0.293,-5.337
0.336,0.058,0.295,-5.337
0.316,0.055,0.289,-5.337
0.317,0.056,0.286,-5.337
0.309,0.057,0.288,-5.337
0.296,0.059,0.291,-5.337
0.314,0.056,0.290,-5.337
0.341,0.052,0.287,-5.337
0.362,0.054,0.286,-5.337
0.290,0.054,0.289,-5.337
0.289,0.054,0.293,-5.337
0.332,0.054,0.295,-5.337
0.344,0.054,0.293,-5.337
0.320,0.054,0.288,-5.337
0.279,0.056,0.285,-5.337
0.342,0.054,0.286,-5.337
0.408,0.057,0.289,-5.337
0.337,0.055,0.287,-5.337
0.333,0.050,0.288,-5.337
0.349,0.053,0.290,-5.337
0.363,0.057,0.291,-5.337
0.275,0.060,0.287,-5.337
0.214,0.059,0.285,-5.337
0.221,0.058,0.286,-5.337
0.349,0.053,0.289,-5.337
0.408,0.053,0.289,-5.337
0.352,0.057,0.286,-5.337
0.336,0.057,0.292,-5.337
0.381,0.055,0.295,-5.337
0.382,0.056,0.293,-5.337
0.354,0.061,0.287,-5.337
0.384,0.063,0.285,-5.337
0.445,0.059,0.281,-5.337
0.402,0.060,0.279,-5.337
0.327,0.060,0.279,-5.337
0.362,0.062,0.282,-5.337
0.345,0.066,0.287,-5.337
0.280,0.066,0.287,-5.337
0.344,0.063,0.285,-5.337
0.333,0.065,0.290,-5.337
0.341,0.065,0.292,-5.337
0.332,0.065,0.291,-5.337
0.348,0.061,0.288,-5.337
0.341,0.060,0.287,-5.337
0.313,0.060,0.286,-5.337
0.335,0.060,0.284,-5.337
0.272,0.062,0.286,-5.337
0.271,0.063,0.290,-5.337
0.282,0.061,0.291,-5.337
0.258,0.063,0.285,-5.337
0.266,0.060,0.281,-5.337
0.343,0.054,0.280,-5.337
0.355,0.056,0.284,-5.337
0.348,0.057,0.288,-5.337
0.401,0.058,0.293,-5.337
0.419,0.059,0.294,-5.337
0.357,0.061,0.289,-5.337
0.315,0.060,0.288,-5.337
0.303,0.058,0.286,-5.337
0.333,0.061,0.285,-5.337
0.342,0.062,0.287,-5.337
0.341,0.057,0.288,-5.337
0.377,0.057,0.286,-5.337
0.402,0.057,0.284,-5.337
0.441,0.060,0.289,-5.337
0.400,0.060,0.290,-5.337
0.375,0.059,0.289,-5.337
0.346,0.057,0.287,-5.337
0.357,0.058,0.287,-5.337
0.311,0.058,0.286,-5.337
0.291,0.061,0.286,-5.337
0.295,0.059,0.286,-5.337
0.337,0.061,0.287,-5.337
0.327,0.065,0.291,-5.337
0.301,0.066,0.292,-5.337
0.323,0.066,0.288,-5.337
0.340,0.068,0.287,-5.337
0.286,0.069,0.287,-5.337
0.267,0.072,0.289,-5.337
0.300,0.071,0.288,-5.337
0.254,0.072,0.285,-5.337
0.263,0.070,0.286,-5.337
0.373,0.070,0.287,-5.337
0.409,0.070,0.288,-5.337
0.350,0.067,0.287,-5.337
0.350,0.070,0.286,-5.337
0.340,0.066,0.285,-5.337
0.384,0.061,0.290,-5.337
0.377,0.058,0.292,-5.337
0.303,0.063,0.292,-5.337
0.339,0.061,0.290,-5.337
0.365,0.060,0.287,-5.337
0.335,0.059,0.286,-5.337
0.320,0.057,0.287,-5.337
0.332,0.058,0.289,-5.337
0.383,0.057,0.286,-5.337
0.349,0.061,0.280,-5.337
0.328,0.061,0.281,-5.337
0.243,0.060,0.286,-5.337
0.271,0.058,0.290,-5.337
0.304,0.056,0.291,-5.337
0.306,0.060,0.287,-5.337
0.294,0.061,0.289,-5.337
0.212,0.063,0.289,-5.337
0.286,0.058,0.288,-5.337
0.351,0.057,0.287,-5.337
0.231,0.058,0.288,-5.337
0.343,0.053,0.289,-5.337
0.442,0.052,0.289,-5.337
0.391,0.051,0.284,-5.337
0.289,0.054,0.283,-5.337
0.301,0.053,0.285,-5.337
0.338,0.052,0.289,-5.337
0.395,0.049,0.292,-5.337
0.342,0.050,0.293,-5.337
0.318,0.049,0.291,-5.337
0.313,0.053,0.288,-5.337
0.324,0.053,0.286,-5.337
0.333,0.057,0.289,-5.337
0.332,0.054,0.290,-5.337
0.330,0.053,0.290,-5.337
0.288,0.052,0.287,-5.337
0.302,0.053,0.285,-5.337
0.308,0.053,0.287,-5.337
0.307,0.050,0.293,-5.337
0.292,0.048,0.290,-5.337
0.293,0.048,0.286,-5.337
0.236,0.051,0.286,-5.337
0.165,0.053,0.283,-5.337
0.208,0.051,0.284,-5.337
0.192,0.050,0.287,-5.337
0.194,0.054,0.291,-5.337
0.236,0.054,0.293,-5.337
0.253,0.051,0.292,-5.337
0.213,0.050,0.288,-5.337
0.262,0.051,0.285,-5.337
0.311,0.051,0.282,-5.337
0.313,0.050,0.283,-5.337
0.291,0.052,0.285,-5.337
0.290,0.054,0.288,-5.337
0.281,0.052,0.291,-5.337
0.258,0.052,0.292,-5.337
0.247,0.052,0.291,-5.337
0.232,0.051,0.290,-5.337
0.253,0.048,0.286,-5.337
0.292,0.047,0.285,-5.337
0.310,0.046,0.282,-5.337
0.294,0.048,0.287,-5.337
0.286,0.048,0.293,-5.337
0.223,0.051,0.293,-5.337
0.219,0.052,0.291,-5.337
0.206,0.054,0.287,-5.337
0.228,0.051,0.287,-5.337
0.193,0.048,0.288,-5.337
0.171,0.050,0.287,-5.337
0.202,0.050,0.283,-5.337
0.254,0.046,0.284,-5.337
0.300,0.045,0.281,-5.337
0.361,0.045,0.282,-5.337
0.315,0.045,0.284,-5.337
0.268,0.047,0.286,-5.337
0.256,0.045,0.288,-5.337
0.249,0.048,0.287,-5.337
0.249,0.048,0.287,-5.337
0.235,0.051,0.290,-5.337
0.270,0.047,0.289,-5.337
0.250,0.047,0.290,-5.337
0.257,0.047,0.290,-5.337
0.222,0.045,0.287,-5.337
0.205,0.047,0.289,-5.337
0.218,0.049,0.294,-5.337
0.235,0.044,0.298,-5.337
0.243,0.043,0.294,-5.337
0.166,0.048,0.288,-5.337
0.130,0.050,0.284,-5.337
0.114,0.050,0.289,-5.337
0.205,0.048,0.292,-5.337
0.259,0.048,0.288,-5.337
0.233,0.047,0.285,-5.337
0.222,0.050,0.291,-5.337
0.137,0.051,0.291,-5.337
0.120,0.049,0.287,-5.337
0.190,0.044,0.282,-5.337
0.224,0.047,0.283,-5.337
0.200,0.051,0.285,-5.337
0.201,0.049,0.287,-5.337
0.253,0.044,0.289,-5.337
0.212,0.047,0.291,-5.337
0.200,0.046,0.289,-5.337
0.170,0.050,0.286,-5.337
0.123,0.052,0.283,-5.337
0.152,0.051,0.282,-5.337
0.171,0.048,0.284,-5.337
0.176,0.047,0.287,-5.337
0.246,0.048,0.287,-5.337
0.200,0.051,0.287,-5.337
0.240,0.047,0.288,-5.337
0.351,0.043,0.288,-5.337
0.306,0.043,0.287,-5.337
0.176,0.045,0.287,-5.337
0.110,0.049,0.290,-5.337
0.178,0.046,0.292,-5.337
0.181,0.049,0.293,-5.337
0.127,0.046,0.290,-5.337
0.115,0.047,0.289,-5.337
0.137,0.047,0.286,-5.337
0.145,0.051,0.281,-5.337
0.173,0.045,0.283,-5.337
0.183,0.042,0.289,-5.337
0.140,0.043,0.292,-5.337
0.172,0.045,0.289,-5.337
0.202,0.045,0.284,-5.337
0.192,0.044,0.285,-5.337
0.198,0.044,0.289,-5.337
0.214,0.045,0.291,-5.337
0.262,0.043,0.289,-5.337
0.261,0.043,0.289,-5.337
0.236,0.041,0.290,-5.337
0.224,0.044,0.286,-5.337
0.219,0.046,0.282,-5.337
0.186,0.045,0.282,-5.337
0.159,0.044,0.289,-5.337
0.156,0.045,0.294,-5.337
0.188,0.045,0.295,-5.337
0.176,0.045,0.289,-5.337
0.078,0.052,0.284,-5.337
0.059,0.051,0.284,-5.337
0.127,0.046,0.288,-5.337
0.198,0.043,0.289,-5.337
0.180,0.046,0.293,-5.337
0.097,0.047,0.295,-5.337
0.107,0.046,0.291,-5.337
0.160,0.046,0.289,-5.337
0.206,0.040,0.287,-5.337
0.207,0.043,0.285,-5.337
0.208,0.044,0.285,-5.337
0.139,0.044,0.287,-5.337
0.101,0.043,0.288,-5.337
0.124,0.048,0.291,-5.337
0.089,0.050,0.291,-5.337
0.102,0.046,0.289,-5.337
0.189,0.044,0.289,-5.337
0.217,0.046,0.287,-5.337
0.172,0.049,0.287,-5.337
0.134,0.051,0.287,-5.337
0.100,0.047,0.286,-5.337
0.076,0.046,0.290,-5.337
0.116,0.045,0.292,-5.337
0.141,0.046,0.293,-5.337
0.181,0.044,0.294,-5.337
0.184,0.046,0.294,-5.337
0.129,0.046,0.290,-5.337
0.119,0.047,0.287,-5.337
0.139,0.047,0.289,-5.337
0.138,0.047,0.289,-5.337
0.156,0.046,0.289,-5.337
0.174,0.044,0.288,-5.337
0.215,0.042,0.287,-5.337
0.220,0.044,0.288,-5.337
0.123,0.045,0.288,-5.337
0.108,0.042,0.290,-5.337
0.139,0.040,0.291,-5.337
0.101,0.043,0.290,-5.337
-0.022,0.044,0.288,-5.337
0.035,0.044,0.291,-5.337
0.094,0.041,0.294,-5.337
0.052,0.043,0.290,-5.337
0.070,0.045,0.288,-5.337
0.129,0.042,0.290,-5.337
0.134,0.040,0.292,-5.337
0.175,0.043,0.291,-5.337
0.162,0.043,0.291,-5.337
0.129,0.046,0.292,-5.337
0.102,0.045,0.291,-5.337
0.053,0.045,0.289,-5.337
0.060,0.042,0.291,-5.337
0.147,0.040,0.293,-5.337
0.220,0.040,0.292,-5.337
0.151,0.040,0.290,-5.337
0.078,0.044,0.292,-5.337
0.081,0.042,0.290,-5.337
0.032,0.044,0.288,-5.337
0.030,0.042,0.289,-5.337
0.161,0.041,0.291,-5.337
0.123,0.042,0.292,-5.337
0.071,0.044,0.289,-5.337
0.070,0.041,0.289,-5.337
0.083,0.036,0.291,-5.337
0.088,0.037,0.292,-5.337
0.068,0.039,0.288,-5.337
0.088,0.036,0.287,-5.337
0.129,0.036,0.288,-5.337
0.090,0.037,0.289,-5.337
0.037,0.042,0.286,-5.337
0.062,0.043,0.286,-5.337
0.156,0.040,0.284,-5.337
0.241,0.039,0.284,-5.337
0.185,0.040,0.289,-5.337
0.123,0.044,0.295,-5.337
0.128,0.042,0.294,-5.337
0.105,0.042,0.291,-5.337
0.137,0.039,0.288,-5.337
0.204,0.039,0.285,-5.337
0.207,0.037,0.283,-5.337
0.196,0.036,0.282,-5.337
0.091,0.038,0.285,-5.337
0.038,0.036,0.286,-5.337
0.131,0.038,0.288,-5.337
0.192,0.038,0.290,-5.337
0.112,0.037,0.295,-5.337
0.123,0.036,0.294,-5.337
0.143,0.039,0.292,-5.337
0.134,0.040,0.290,-5.337
0.161,0.039,0.288,-5.337
0.222,0.038,0.285,-5.337
0.178,0.040,0.287,-5.337
0.068,0.044,0.291,-5.337
0.089,0.042,0.291,-5.337
0.140,0.039,0.288,-5.337
0.155,0.039,0.287,-5.337
0.112,0.037,0.284,-5.337
0.061,0.039,0.282,-5.337
0.019,0.037,0.282,-5.337
0.012,0.039,0.284,-5.337
-0.041,0.039,0.286,-5.337
-0.009,0.037,0.288,-5.337
0.038,0.035,0.287,-5.337
0.113,0.033,0.287,-5.337
0.101,0.038,0.285,-5.337
0.037,0.039,0.285,-5.337
0.071,0.035,0.292,-5.337
0.077,0.035,0.294,-5.337
0.129,0.035,0.289,-5.337
0.184,0.034,0.281,-5.337
0.146,0.037,0.283,-5.337
0.081,0.041,0.288,-5.337
0.081,0.040,0.292,-5.337
0.155,0.038,0.290,-5.337
0.156,0.039,0.290,-5.337
0.100,0.040,0.288,-5.337
0.079,0.040,0.287,-5.337
0.102,0.038,0.288,-5.337
0.138,0.038,0.289,-5.337
0.165,0.038,0.287,-5.337
0.146,0.036,0.283,-5.337
0.184,0.031,0.283,-5.337
0.225,0.033,0.289,-5.337
0.114,0.040,0.291,-5.337
0.070,0.036,0.287,-5.337
0.179,0.036,0.284,-5.337
0.238,0.036,0.286,-5.337
0.254,0.037,0.290,-5.337
0.148,0.040,0.289,-5.337
0.096,0.040,0.291,-5.337
0.122,0.044,0.291,-5.337
0.128,0.047,0.292,-5.337
0.067,0.048,0.292,-5.337
0.017,0.046,0.292,-5.337
0.068,0.043,0.291,-5.337
0.070,0.046,0.290,-5.337
0.048,0.043,0.291,-5.337
0.021,0.046,0.292,-5.337
0.023,0.044,0.289,-5.337
0.156,0.043,0.286,-5.337
0.187,0.044,0.287,-5.337
0.174,0.042,0.290,-5.337
0.201,0.046,0.289,-5.337
0.122,0.048,0.287,-5.337
0.058,0.047,0.287,-5.337
0.068,0.046,0.289,-5.337
0.201,0.045,0.289,-5.337
0.184,0.046,0.292,-5.337
0.053,0.048,0.290,-5.337
0.064,0.043,0.287,-5.337
0.112,0.042,0.285,-5.337
0.116,0.043,0.283,-5.337
0.103,0.042,0.283,-5.337
0.189,0.041,0.285,-5.337
0.242,0.042,0.289,-5.337
0.207,0.048,0.291,-5.337
0.198,0.045,0.294,-5.337
0.196,0.044,0.291,-5.337
0.161,0.042,0.290,-5.337
0.190,0.040,0.289,-5.337
0.224,0.038,0.287,-5.337
0.247,0.041,0.285,-5.337
0.184,0.043,0.288,-5.337
0.099,0.043,0.290,-5.337
0.147,0.041,0.291,-5.337
0.175,0.041,0.290,-5.337
0.164,0.042,0.288,-5.337
0.191,0.044,0.286,-5.337
0.184,0.046,0.290,-5.337
0.082,0.049,0.290,-5.337
0.115,0.052,0.288,-5.337
0.184,0.048,0.285,-5.337
0.143,0.053,0.287,-5.337
0.107,0.056,0.289,-5.337
0.122,0.054,0.290,-5.337
0.203,0.049,0.288,-5.337
0.174,0.048,0.285,-5.337
0.139,0.052,0.286,-5.337
0.114,0.053,0.285,-5.337
0.114,0.050,0.289,-5.337
0.176,0.046,0.289,-5.337
0.117,0.047,0.289,-5.337
0.156,0.046,0.286,-5.337
0.222,0.046,0.286,-5.337
0.294,0.042,0.289,-5.337
0.309,0.043,0.289,-5.337
0.236,0.047,0.290,-5.337
0.126,0.047,0.292,-5.337
0.138,0.047,0.292,-5.337
0.162,0.049,0.289,-5.337
0.184,0.047,0.288,-5.337
0.207,0.048,0.289,-5.337
0.211,0.048,0.289,-5.337
0.235,0.047,0.284,-5.337
0.201,0.049,0.284,-5.337
0.180,0.047,0.287,-5.337
0.225,0.047,0.289,-5.337
0.308,0.044,0.291,-5.337
0.340,0.038,0.291,-5.337
0.340,0.037,0.288,-5.337
0.291,0.044,0.287,-5.337
0.158,0.049,0.287,-5.337
0.174,0.048,0.286,-5.337
0.274,0.049,0.287,-5.337
0.305,0.049,0.289,-5.337
0.173,0.048,0.289,-5.337
0.149,0.047,0.290,-5.337
0.210,0.047,0.285,-5.337
0.192,0.047,0.285,-5.337
0.154,0.045,0.281,-5.337
0.200,0.043,0.282,-5.337
0.309,0.037,0.282,-5.337
0.269,0.039,0.286,-5.337
0.132,0.041,0.290,-5.337
0.166,0.042,0.291,-5.337
0.309,0.040,0.293,-5.337
0.340,0.042,0.292,-5.337
0.256,0.048,0.288,-5.337
0.281,0.048,0.286,-5.337
0.378,0.049,0.286,-5.337
0.320,0.049,0.286,-5.337
0.234,0.049,0.285,-5.337
0.188,0.051,0.283,-5.337
0.172,0.052,0.284,-5.337
0.208,0.051,0.286,-5.337
0.231,0.049,0.288,-5.337
0.262,0.044,0.287,-5.337
0.262,0.046,0.289,-5.337
0.246,0.049,0.287,-5.337
0.306,0.047,0.289,-5.337
0.368,0.048,0.291,-5.337
0.344,0.049,0.289,-5.337
0.358,0.048,0.287,-5.337
0.350,0.051,0.285,-5.337
0.310,0.052,0.286,-5.337
0.278,0.051,0.286,-5.337
0.227,0.048,0.288,-5.337
0.232,0.043,0.290,-5.337
0.290,0.046,0.291,-5.337
0.249,0.053,0.290,-5.337
0.207,0.054,0.288,-5.337
0.157,0.053,0.285,-5.337
0.182,0.053,0.287,-5.337
0.277,0.050,0.289,-5.337
0.303,0.053,0.288,-5.337
0.278,0.055,0.285,-5.337
0.248,0.053,0.285,-5.337
0.270,0.053,0.286,-5.337
0.301,0.054,0.289,-5.337
0.264,0.056,0.289,-5.337
0.270,0.054,0.291,-5.337
0.382,0.049,0.292,-5.337
0.400,0.050,0.288,-5.337
0.345,0.053,0.286,-5.337
0.333,0.052,0.286,-5.337
0.343,0.050,0.288,-5.337
0.283,0.055,0.287,-5.337
0.200,0.060,0.287,-5.337
0.237,0.055,0.289,-5.337
0.232,0.054,0.288,-5.337
0.237,0.057,0.287,-5.337
0.277,0.058,0.288,-5.337
0.303,0.058,0.287,-5.337
0.329,0.058,0.286,-5.337
0.315,0.058,0.281,-5.337
0.286,0.057,0.284,-5.337
0.270,0.059,0.288,-5.337
0.263,0.063,0.293,-5.337
0.203,0.061,0.290,-5.337
0.299,0.059,0.289,-5.337
0.283,0.057,0.287,-5.337
0.303,0.060,0.288,-5.337
0.322,0.058,0.287,-5.337
0.255,0.060,0.290,-5.337
0.246,0.064,0.291,-5.337
0.271,0.062,0.285,-5.337
0.264,0.060,0.285,-5.337
0.265,0.060,0.287,-5.337
0.323,0.060,0.285,-5.337
0.313,0.059,0.287,-5.337
0.301,0.058,0.292,-5.337
0.305,0.056,0.291,-5.337
0.375,0.057,0.286,-5.337
0.384,0.057,0.284,-5.337
0.393,0.054,0.285,-5.337
0.397,0.054,0.287,-5.337
0.387,0.055,0.291,-5.337
0.357,0.055,0.293,-5.337
0.281,0.054,0.290,-5.337
0.297,0.057,0.285,-5.337
0.334,0.058,0.286,-5.337
0.306,0.056,0.289,-5.337
0.215,0.055,0.291,-5.337
0.199,0.052,0.289,-5.337
0.277,0.056,0.291,-5.337
0.270,0.057,0.291,-5.337
0.272,0.054,0.292,-5.337
0.260,0.055,0.293,-5.337
0.274,0.058,0.294,-5.337
0.275,0.057,0.292,-5.337
0.367,0.055,0.290,-5.337
0.406,0.053,0.287,-5.337
0.365,0.056,0.284,-5.337
0.290,0.060,0.284,-5.337
0.281,0.064,0.286,-5.337
0.249,0.063,0.288,-5.337
0.334,0.056,0.292,-5.337
0.426,0.052,0.291,-5.337
0.363,0.060,0.291,-5.337
0.256,0.061,0.290,-5.337
0.290,0.059,0.289,-5.337
0.326,0.059,0.290,-5.337
0.266,0.057,0.290,-5.337
0.238,0.058,0.294,-5.337
0.204,0.060,0.294,-5.337
0.193,0.065,0.295,-5.337
0.298,0.060,0.292,-5.337
0.399,0.063,0.287,-5.337
0.292,0.066,0.283,-5.337
0.246,0.065,0.284,-5.337
0.272,0.062,0.286,-5.337
0.296,0.054,0.289,-5.337
0.322,0.054,0.292,-5.337
0.371,0.057,0.296,-5.337
0.386,0.060,0.296,-5.337
0.368,0.058,0.291,-5.337
0.377,0.057,0.287,-5.337
0.326,0.058,0.287,-5.337
0.315,0.063,0.291,-5.337
0.238,0.065,0.291,-5.337
0.291,0.061,0.289,-5.337
0.358,0.060,0.288,-5.337
0.389,0.060,0.293,-5.337
0.380,0.058,0.292,-5.337
0.404,0.056,0.290,-5.337
0.388,0.059,0.287,-5.337
0.361,0.062,0.287,-5.337
0.402,0.058,0.288,-5.337
0.405,0.059,0.292,-5.337
0.332,0.063,0.290,-5.337
0.278,0.064,0.290,-5.337
0.282,0.061,0.288,-5.337
0.357,0.060,0.289,-5.337
0.348,0.062,0.286,-5.337
0.290,0.064,0.285,-5.337
0.316,0.064,0.288,-5.337
0.339,0.063,0.293,-5.337
0.449,0.062,0.290,-5.337
0.473,0.059,0.285,-5.337
0.410,0.056,0.283,-5.337
0.358,0.057,0.285,-5.337
0.422,0.057,0.288,-5.337
0.451,0.059,0.290,-5.337
0.360,0.058,0.287,-5.337
0.316,0.057,0.286,-5.337
0.328,0.057,0.287,-5.337
0.341,0.058,0.288,-5.337
0.304,0.061,0.289,-5.337
0.353,0.060,0.287,-5.337
0.348,0.058,0.285,-5.337
0.298,0.060,0.285,-5.337
0.295,0.059,0.292,-5.337
0.390,0.059,0.291,-5.337
0.375,0.062,0.287,-5.337
0.342,0.060,0.284,-5.337
0.333,0.059,0.285,-5.337
0.354,0.059,0.289,-5.337
0.381,0.057,0.290,-5.337
0.417,0.056,0.292,-5.337
0.337,0.059,0.291,-5.337
0.248,0.060,0.287,-5.337
0.320,0.059,0.286,-5.337
0.355,0.057,0.286,-5.337
0.343,0.056,0.287,-5.337
0.334,0.053,0.283,-5.337
0.321,0.054,0.280,-5.337
0.379,0.057,0.282,-5.337
0.428,0.054,0.289,-5.337
0.357,0.055,0.290,-5.337
0.290,0.059,0.285,-5.337
0.314,0.059,0.284,-5.337
0.297,0.057,0.286,-5.337
0.278,0.058,0.290,-5.337
0.325,0.054,0.290,-5.337
0.350,0.055,0.292,-5.337
0.325,0.054,0.290,-5.337
0.402,0.055,0.289,-5.337
0.391,0.053,0.288,-5.337
0.254,0.055,0.284,-5.337
0.176,0.054,0.284,-5.337
0.240,0.051,0.290,-5.337
0.313,0.048,0.292,-5.337
0.303,0.050,0.290,-5.337
0.264,0.053,0.289,-5.337
0.296,0.054,0.289,-5.337
0.286,0.053,0.284,-5.337
0.220,0.054,0.282,-5.337
0.185,0.054,0.284,-5.337
0.286,0.051,0.287,-5.337
0.305,0.049,0.289,-5.337
0.217,0.052,0.287,-5.337
0.174,0.055,0.289,-5.337
0.219,0.052,0.293,-5.337
0.353,0.052,0.294,-5.337
0.416,0.050,0.292,-5.337
0.394,0.052,0.293,-5.337
0.378,0.051,0.293,-5.337
0.372,0.051,0.292,-5.337
0.270,0.053,0.289,-5.337
0.210,0.053,0.288,-5.337
0.295,0.055,0.289,-5.337
0.347,0.054,0.290,-5.337
0.293,0.051,0.289,-5.337
0.228,0.047,0.286,-5.337
0.221,0.047,0.285,-5.337
0.286,0.050,0.289,-5.337
0.268,0.048,0.292,-5.337
0.276,0.046,0.291,-5.337
0.208,0.048,0.290,-5.337
0.207,0.050,0.289,-5.337
0.216,0.051,0.287,-5.337
0.211,0.051,0.285,-5.337
0.215,0.049,0.287,-5.337
0.190,0.047,0.289,-5.337
0.130,0.050,0.291,-5.337
0.192,0.049,0.285,-5.337
0.311,0.046,0.286,-5.337
0.357,0.048,0.287,-5.337
0.315,0.052,0.291,-5.337
0.228,0.049,0.290,-5.337
0.176,0.050,0.289,-5.337
0.199,0.047,0.287,-5.337
0.262,0.045,0.289,-5.337
0.306,0.044,0.291,-5.337
0.244,0.050,0.290,-5.337
0.187,0.046,0.290,-5.337
0.207,0.044,0.292,-5.337
0.257,0.045,0.289,-5.337
0.318,0.049,0.289,-5.337
0.333,0.047,0.288,-5.337
0.316,0.045,0.291,-5.337
0.218,0.046,0.291,-5.337
0.168,0.049,0.292,-5.337
0.185,0.047,0.294,-5.337
0.284,0.042,0.296,-5.337
0.272,0.044,0.295,-5.337
0.237,0.046,0.294,-5.337
0.279,0.046,0.291,-5.337
0.263,0.045,0.287,-5.337
0.191,0.047,0.290,-5.337
0.254,0.042,0.290,-5.337
0.281,0.042,0.290,-5.337
0.246,0.043,0.288,-5.337
0.236,0.044,0.290,-5.337
0.232,0.041,0.289,-5.337
0.267,0.042,0.288,-5.337
0.243,0.044,0.283,-5.337
0.178,0.045,0.283,-5.337
0.083,0.045,0.287,-5.337
0.029,0.047,0.291,-5.337
0.023,0.050,0.292,-5.337
0.050,0.049,0.291,-5.337
0.147,0.044,0.285,-5.337
0.221,0.040,0.283,-5.337
0.267,0.037,0.283,-5.337
0.300,0.038,0.287,-5.337
0.196,0.043,0.289,-5.337
0.175,0.045,0.288,-5.337
0.191,0.045,0.286,-5.337
0.115,0.044,0.286,-5.337
0.147,0.041,0.288,-5.337
0.274,0.042,0.290,-5.337
0.292,0.044,0.291,-5.337
0.217,0.042,0.292,-5.337
0.154,0.040,0.294,-5.337
0.172,0.042,0.290,-5.337
0.180,0.043,0.291,-5.337
0.219,0.042,0.292,-5.337
0.230,0.044,0.295,-5.337
0.229,0.042,0.292,-5.337
0.211,0.044,0.287,-5.337
0.148,0.046,0.286,-5.337
0.126,0.044,0.286,-5.337
0.096,0.044,0.284,-5.337
0.080,0.046,0.286,-5.337
0.107,0.044,0.287,-5.337
0.180,0.043,0.288,-5.337
0.215,0.043,0.289,-5.337
0.228,0.043,0.290,-5.337
0.226,0.045,0.295,-5.337
0.190,0.047,0.294,-5.337
0.132,0.052,0.290,-5.337
0.091,0.052,0.287,-5.337
0.103,0.048,0.290,-5.337
0.147,0.048,0.292,-5.337
0.226,0.045,0.292,-5.337
0.173,0.048,0.290,-5.337
0.072,0.053,0.291,-5.337
0.072,0.048,0.290,-5.337
0.195,0.044,0.289,-5.337
0.186,0.044,0.286,-5.337
0.170,0.047,0.287,-5.337
0.131,0.047,0.288,-5.337
0.098,0.049,0.292,-5.337
0.133,0.046,0.295,-5.337
0.170,0.044,0.294,-5.337
0.151,0.049,0.293,-5.337
0.071,0.050,0.290,-5.337
0.103,0.047,0.290,-5.337
0.180,0.049,0.290,-5.337
0.181,0.049,0.290,-5.337
0.192,0.046,0.288,-5.337
0.132,0.046,0.288,-5.337
0.107,0.046,0.282,-5.337
0.084,0.047,0.282,-5.337
0.145,0.045,0.288,-5.337
0.275,0.040,0.292,-5.337
0.286,0.039,0.289,-5.337
0.188,0.042,0.287,-5.337
0.174,0.040,0.285,-5.337
0.229,0.039,0.287,-5.337
0.177,0.041,0.292,-5.337
0.169,0.042,0.295,-5.337
0.220,0.041,0.292,-5.337
0.203,0.041,0.290,-5.337
0.210,0.039,0.292,-5.337
0.232,0.035,0.293,-5.337
0.166,0.039,0.293,-5.337
0.106,0.043,0.292,-5.337
0.158,0.040,0.289,-5.337
0.186,0.040,0.284,-5.337
0.101,0.040,0.285,-5.337
0.085,0.043,0.289,-5.337
0.038,0.042,0.295,-5.337
0.073,0.040,0.295,-5.337
0.163,0.039,0.292,-5.337
0.213,0.040,0.288,-5.337
0.173,0.040,0.289,-5.337
0.182,0.037,0.287,-5.337
0.117,0.038,0.289,-5.337
0.018,0.041,0.289,-5.337
0.124,0.041,0.293,-5.337
0.204,0.040,0.292,-5.337
0.154,0.038,0.291,-5.337
0.111,0.042,0.291,-5.337
0.066,0.042,0.291,-5.337
0.012,0.040,0.291,-5.337
-0.021,0.040,0.288,-5.337
0.040,0.040,0.284,-5.337
0.093,0.040,0.285,-5.337
0.125,0.041,0.288,-5.337
0.155,0.041,0.285,-5.337
0.125,0.041,0.285,-5.337
0.119,0.042,0.291,-5.337
0.116,0.041,0.296,-5.337
0.108,0.040,0.299,-5.337
0.095,0.042,0.294,-5.337
0.114,0.041,0.293,-5.337
0.122,0.043,0.293,-5.337
0.135,0.044,0.291,-5.337
0.138,0.047,0.290,-5.337
0.082,0.046,0.292,-5.337
0.080,0.041,0.295,-5.337
0.094,0.039,0.292,-5.337
0.091,0.040,0.292,-5.337
0.129,0.042,0.292,-5.337
0.151,0.041,0.291,-5.337
0.112,0.041,0.289,-5.337
0.076,0.041,0.288,-5.337
0.092,0.040,0.290,-5.337
0.184,0.037,0.296,-5.337
0.190,0.036,0.301,-5.337
0.167,0.041,0.298,-5.337
0.180,0.038,0.294,-5.337
0.128,0.039,0.292,-5.337
0.048,0.038,0.290,-5.337
0.116,0.038,0.291,-5.337
0.154,0.039,0.289,-5.337
0.115,0.041,0.291,-5.337
0.058,0.045,0.292,-5.337
0.032,0.047,0.289,-5.337
0.031,0.044,0.289,-5.337
0.060,0.041,0.295,-5.337
0.073,0.042,0.300,-5.337
0.087,0.040,0.298,-5.337
0.145,0.040,0.296,-5.337
0.163,0.040,0.294,-5.337
0.127,0.042,0.291,-5.337
0.043,0.042,0.290,-5.337
0.042,0.040,0.291,-5.337
0.068,0.040,0.294,-5.337
0.059,0.042,0.295,-5.337
0.013,0.038,0.293,-5.337
0.060,0.035,0.291,-5.337
0.098,0.035,0.294,-5.337
0.078,0.040,0.297,-5.337
0.067,0.040,0.295,-5.337
0.032,0.041,0.293,-5.337
0.057,0.041,0.294,-5.337
0.149,0.037,0.295,-5.337
0.199,0.034,0.292,-5.337
0.195,0.033,0.292,-5.337
0.155,0.035,0.291,-5.337
0.049,0.038,0.286,-5.337
0.053,0.036,0.289,-5.337
0.141,0.035,0.288,-5.337
0.205,0.039,0.284,-5.337
0.151,0.044,0.278,-5.337
0.085,0.044,0.282,-5.337
0.027,0.041,0.286,-5.337
0.107,0.039,0.291,-5.337
0.168,0.039,0.293,-5.337
0.116,0.041,0.295,-5.337
0.089,0.042,0.293,-5.337
0.068,0.045,0.295,-5.337
0.123,0.040,0.294,-5.337
0.070,0.045,0.292,-5.337
0.001,0.045,0.293,-5.337
0.044,0.041,0.295,-5.337
0.079,0.041,0.292,-5.337
0.113,0.040,0.290,-5.337
0.168,0.043,0.290,-5.337
0.224,0.048,0.288,-5.337
0.202,0.048,0.287,-5.337
0.167,0.044,0.287,-5.337
0.184,0.044,0.288,-5.337
0.119,0.046,0.287,-5.337
0.091,0.042,0.289,-5.337
0.096,0.044,0.290,-5.337
0.084,0.046,0.291,-5.337
0.078,0.047,0.290,-5.337
0.121,0.044,0.289,-5.337
0.192,0.042,0.285,-5.337
0.213,0.043,0.290,-5.337
0.149,0.045,0.294,-5.337
0.115,0.048,0.295,-5.337
0.072,0.046,0.288,-5.337
0.034,0.047,0.285,-5.337
0.032,0.049,0.287,-5.337
-0.034,0.051,0.290,-5.337
-0.006,0.048,0.292,-5.337
0.095,0.043,0.291,-5.337
0.206,0.048,0.288,-5.337
0.186,0.050,0.289,-5.337
0.096,0.049,0.289,-5.337
0.135,0.050,0.288,-5.337
0.188,0.051,0.291,-5.337
0.210,0.052,0.293,-5.337
0.182,0.050,0.293,-5.337
0.217,0.048,0.291,-5.337
0.188,0.051,0.291,-5.337
0.135,0.049,0.293,-5.337
0.087,0.050,0.293,-5.337
0.117,0.048,0.291,-5.337
0.167,0.047,0.289,-5.337
0.138,0.046,0.289,-5.337
0.035,0.053,0.294,-5.337
0.013,0.053,0.289,-5.337
0.037,0.054,0.283,-5.337
0.111,0.049,0.283,-5.337
0.214,0.049,0.288,-5.337
0.219,0.054,0.292,-5.337
0.177,0.051,0.290,-5.337
0.175,0.052,0.287,-5.337
0.197,0.051,0.290,-5.337
0.155,0.051,0.293,-5.337
0.096,0.055,0.293,-5.337
0.109,0.055,0.291,-5.337
0.225,0.054,0.291,-5.337
0.183,0.054,0.288,-5.337
0.193,0.056,0.285,-5.337
0.252,0.055,0.285,-5.337
0.208,0.058,0.290,-5.337
0.195,0.057,0.292,-5.337
0.206,0.052,0.291,-5.337
0.136,0.053,0.290,-5.337
0.102,0.053,0.289,-5.337
0.216,0.053,0.290,-5.337
0.253,0.059,0.292,-5.337
0.202,0.064,0.294,-5.337
0.207,0.063,0.295,-5.337
0.218,0.063,0.296,-5.337
0.150,0.063,0.297,-5.337
0.079,0.064,0.298,-5.337
0.114,0.062,0.297,-5.337
0.177,0.057,0.292,-5.337
0.162,0.056,0.287,-5.337
0.186,0.059,0.288,-5.337
0.265,0.054,0.286,-5.337
0.335,0.056,0.286,-5.337
0.271,0.057,0.287,-5.337
0.194,0.059,0.286,-5.337
0.138,0.058,0.285,-5.337
0.154,0.056,0.286,-5.337
0.192,0.057,0.292,-5.337
0.163,0.055,0.297,-5.337
0.178,0.054,0.300,-5.337
0.213,0.056,0.296,-5.337
0.178,0.053,0.294,-5.337
0.139,0.054,0.291,-5.337
0.124,0.057,0.289,-5.337
0.121,0.053,0.285,-5.337
0.168,0.050,0.287,-5.337
0.192,0.050,0.289,-5.337
0.304,0.050,0.292,-5.337
0.358,0.048,0.298,-5.337
0.290,0.052,0.298,-5.337
0.148,0.053,0.293,-5.337
0.172,0.052,0.288,-5.337
0.217,0.054,0.291,-5.337
0.188,0.052,0.294,-5.337
0.226,0.050,0.296,-5.337
0.209,0.052,0.292,-5.337
0.176,0.054,0.290,-5.337
0.243,0.051,0.292,-5.337
0.284,0.051,0.290,-5.337
0.261,0.049,0.287,-5.337
0.314,0.048,0.285,-5.337
0.292,0.054,0.286,-5.337
0.304,0.055,0.287,-5.337
0.355,0.055,0.288,-5.337
0.338,0.054,0.290,-5.337
0.269,0.057,0.290,-5.337
0.266,0.056,0.290,-5.337
0.285,0.057,0.290,-5.337
0.313,0.057,0.294,-5.337
0.343,0.054,0.297,-5.337
0.333,0.058,0.292,-5.337
0.295,0.058,0.287,-5.337
0.277,0.059,0.289,-5.337
0.251,0.058,0.290,-5.337
0.300,0.058,0.289,-5.337
0.291,0.062,0.288,-5.337
0.260,0.062,0.286,-5.337
0.273,0.060,0.287,-5.337
0.263,0.059,0.292,-5.337
0.265,0.058,0.296,-5.337
0.270,0.060,0.296,-5.337
0.312,0.056,0.293,-5.337
0.315,0.059,0.288,-5.337
0.221,0.062,0.285,-5.337
0.212,0.062,0.287,-5.337
0.231,0.059,0.295,-5.337
0.266,0.058,0.299,-5.337
0.190,0.062,0.298,-5.337
0.154,0.060,0.291,-5.337
0.220,0.060,0.287,-5.337
0.278,0.058,0.286,-5.337
0.287,0.059,0.288,-5.337
0.340,0.060,0.288,-5.337
0.323,0.060,0.289,-5.337
0.233,0.059,0.291,-5.337
0.245,0.060,0.293,-5.337
0.323,0.058,0.293,-5.337
0.231,0.065,0.290,-5.337
0.215,0.063,0.287,-5.337
0.300,0.062,0.292,-5.337
0.342,0.062,0.295,-5.337
0.311,0.061,0.293,-5.337
0.318,0.062,0.293,-5.337
0.339,0.062,0.293,-5.337
0.281,0.064,0.293,-5.337
0.200,0.066,0.289,-5.337
0.253,0.066,0.283,-5.337
0.290,0.064,0.282,-5.337
0.278,0.065,0.284,-5.337
0.342,0.059,0.290,-5.337
0.351,0.060,0.294,-5.337
0.270,0.063,0.293,-5.337
0.248,0.062,0.295,-5.337
0.275,0.060,0.293,-5.337
0.217,0.063,0.289,-5.337
0.280,0.062,0.287,-5.337
0.380,0.063,0.292,-5.337
0.376,0.059,0.293,-5.337
0.411,0.058,0.289,-5.337
0.383,0.060,0.286,-5.337
0.375,0.059,0.291,-5.337
0.397,0.056,0.295,-5.337
0.456,0.057,0.290,-5.337
0.424,0.061,0.287,-5.337
0.364,0.062,0.291,-5.337
0.320,0.064,0.295,-5.337
0.287,0.064,0.297,-5.337
0.266,0.062,0.296,-5.337
0.282,0.062,0.293,-5.337
0.248,0.060,0.290,-5.337
0.177,0.064,0.289,-5.337
0.134,0.065,0.289,-5.337
0.240,0.065,0.286,-5.337
0.301,0.066,0.286,-5.337
0.219,0.065,0.287,-5.337
0.228,0.063,0.292,-5.337
0.305,0.066,0.292,-5.337
0.284,0.067,0.292,-5.337
0.345,0.063,0.292,-5.337
0.433,0.062,0.292,-5.337
0.462,0.060,0.291,-5.337
0.433,0.058,0.287,-5.337
0.365,0.060,0.289,-5.337
0.389,0.061,0.292,-5.337
0.317,0.068,0.292,-5.337
0.228,0.065,0.295,-5.337
0.250,0.059,0.296,-5.337
0.279,0.063,0.293,-5.337
0.272,0.067,0.288,-5.337
0.313,0.067,0.286,-5.337
0.342,0.066,0.289,-5.337
0.323,0.067,0.291,-5.337
0.286,0.067,0.291,-5.337
0.249,0.066,0.289,-5.337
0.297,0.065,0.291,-5.337
0.398,0.064,0.289,-5.337
0.392,0.065,0.290,-5.337
0.381,0.060,0.292,-5.337
0.383,0.059,0.293,-5.337
0.319,0.060,0.289,-5.337
0.292,0.064,0.284,-5.337
0.306,0.064,0.284,-5.337
0.328,0.060,0.291,-5.337
0.270,0.064,0.293,-5.337
0.170,0.063,0.291,-5.337
0.216,0.061,0.294,-5.337
0.299,0.060,0.297,-5.337
0.330,0.059,0.295,-5.337
0.292,0.060,0.295,-5.337
0.332,0.061,0.295,-5.337
0.389,0.062,0.292,-5.337
0.323,0.063,0.289,-5.337
0.253,0.063,0.287,-5.337
0.260,0.062,0.290,-5.337
0.303,0.063,0.291,-5.337
0.366,0.061,0.294,-5.337
0.385,0.062,0.292,-5.337
0.273,0.064,0.290,-5.337
0.277,0.063,0.288,-5.337
0.314,0.065,0.291,-5.337
0.315,0.064,0.292,-5.337
0.390,0.063,0.294,-5.337
0.403,0.064,0.294,-5.337
0.344,0.062,0.296,-5.337
0.351,0.062,0.295,-5.337
0.362,0.064,0.291,-5.337
0.370,0.067,0.287,-5.337
0.378,0.065,0.288,-5.337
0.409,0.058,0.293,-5.337
0.481,0.057,0.295,-5.337
0.494,0.060,0.294,-5.337
0.375,0.064,0.291,-5.337
0.278,0.067,0.289,-5.337
0.348,0.066,0.292,-5.337
0.424,0.062,0.296,-5.337
0.373,0.062,0.298,-5.337
0.335,0.063,0.298,-5.337
0.306,0.066,0.293,-5.337
0.321,0.065,0.291,-5.337
0.302,0.062,0.289,-5.337
0.304,0.060,0.291,-5.337
0.322,0.057,0.291,-5.337
0.346,0.059,0.296,-5.337
0.405,0.056,0.298,-5.337
0.364,0.057,0.298,-5.337
0.316,0.054,0.291,-5.337
0.263,0.055,0.286,-5.337
0.325,0.053,0.286,-5.337
0.433,0.055,0.289,-5.337
0.360,0.054,0.291,-5.337
0.267,0.054,0.294,-5.337
0.275,0.054,0.297,-5.337
0.315,0.053,0.293,-5.337
0.323,0.057,0.293,-5.337
0.246,0.061,0.294,-5.337
0.278,0.056,0.296,-5.337
0.347,0.055,0.292,-5.337
0.337,0.056,0.286,-5.337
0.286,0.056,0.284,-5.337
0.277,0.054,0.288,-5.337
0.219,0.057,0.292,-5.337
0.237,0.058,0.292,-5.337
0.262,0.057,0.291,-5.337
0.265,0.058,0.295,-5.337
0.283,0.051,0.294,-5.337
0.337,0.050,0.291,-5.337
0.346,0.053,0.294,-5.337
0.298,0.053,0.299,-5.337
0.299,0.055,0.293,-5.337
0.270,0.058,0.285,-5.337
0.236,0.056,0.285,-5.337
0.248,0.060,0.286,-5.337
0.259,0.058,0.285,-5.337
0.309,0.052,0.287,-5.337
0.359,0.050,0.289,-5.337
0.377,0.051,0.292,-5.337
0.382,0.051,0.293,-5.337
0.388,0.052,0.290,-5.337
0.328,0.053,0.285,-5.337
0.263,0.055,0.286,-5.337
0.251,0.055,0.291,-5.337
0.221,0.053,0.292,-5.337
0.192,0.052,0.290,-5.337
0.202,0.052,0.288,-5.337
0.189,0.051,0.289,-5.337
0.248,0.051,0.288,-5.337
0.275,0.055,0.291,-5.337
0.331,0.055,0.294,-5.337
0.317,0.051,0.298,-5.337
0.319,0.049,0.296,-5.337
0.339,0.053,0.291,-5.337
0.382,0.054,0.292,-5.337
0.403,0.052,0.290,-5.337
0.347,0.050,0.291,-5.337
0.303,0.047,0.294,-5.337
0.258,0.051,0.293,-5.337
0.219,0.051,0.287,-5.337
0.244,0.050,0.282,-5.337
0.267,0.051,0.282,-5.337
0.218,0.053,0.287,-5.337
0.198,0.055,0.290,-5.337
0.254,0.050,0.293,-5.337
0.336,0.049,0.294,-5.337
0.332,0.049,0.295,-5.337
0.283,0.051,0.296,-5.337
0.261,0.051,0.291,-5.337
0.256,0.053,0.289,-5.337
0.243,0.052,0.292,-5.337
0.305,0.048,0.296,-5.337
0.309,0.050,0.298,-5.337
0.237,0.051,0.295,-5.337
0.241,0.048,0.287,-5.337
0.252,0.046,0.280,-5.337
0.314,0.046,0.281,-5.337
0.257,0.045,0.285,-5.337
0.211,0.044,0.289,-5.337
0.219,0.047,0.289,-5.337
0.269,0.045,0.291,-5.337
0.254,0.046,0.292,-5.337
0.189,0.046,0.290,-5.337
0.200,0.050,0.287,-5.337
0.234,0.051,0.289,-5.337
0.265,0.047,0.292,-5.337
0.248,0.046,0.291,-5.337
0.201,0.048,0.289,-5.337
0.094,0.051,0.290,-5.337
0.078,0.051,0.293,-5.337
0.149,0.048,0.297,-5.337
0.267,0.042,0.298,-5.337
0.403,0.041,0.294,-5.337
0.339,0.044,0.295,-5.337
0.298,0.048,0.294,-5.337
0.282,0.052,0.293,-5.337
0.244,0.054,0.291,-5.337
0.153,0.053,0.290,-5.337
0.174,0.048,0.289,-5.337
0.264,0.048,0.289,-5.337
0.210,0.045,0.291,-5.337
0.167,0.045,0.295,-5.337
0.204,0.047,0.292,-5.337
0.232,0.050,0.291,-5.337
0.153,0.054,0.287,-5.337
0.072,0.052,0.287,-5.337
0.148,0.045,0.288,-5.337
0.232,0.046,0.290,-5.337
0.160,0.046,0.291,-5.337
0.142,0.046,0.292,-5.337
0.225,0.044,0.293,-5.337
0.224,0.047,0.292,-5.337
0.228,0.048,0.290,-5.337
0.289,0.048,0.290,-5.337
0.332,0.051,0.294,-5.337
0.270,0.049,0.290,-5.337
0.200,0.049,0.293,-5.337
0.235,0.050,0.294,-5.337
0.222,0.051,0.292,-5.337
0.200,0.048,0.290,-5.337
0.250,0.048,0.291,-5.337
0.173,0.048,0.291,-5.337
0.105,0.048,0.290,-5.337
0.116,0.048,0.287,-5.337
0.142,0.046,0.290,-5.337
0.217,0.042,0.294,-5.337
0.225,0.044,0.296,-5.337
0.174,0.041,0.293,-5.337
0.106,0.041,0.290,-5.337
0.138,0.042,0.290,-5.337
0.189,0.045,0.292,-5.337
0.180,0.042,0.292,-5.337
0.144,0.044,0.291,-5.337
0.084,0.050,0.290,-5.337
0.049,0.050,0.292,-5.337
0.141,0.044,0.295,-5.337
0.198,0.044,0.292,-5.337
0.135,0.046,0.292,-5.337
0.182,0.043,0.289,-5.337
0.148,0.043,0.287,-5.337
0.068,0.042,0.288,-5.337
0.123,0.039,0.290,-5.337
0.231,0.040,0.289,-5.337
0.298,0.043,0.290,-5.337
0.221,0.047,0.292,-5.337
0.197,0.047,0.293,-5.337
0.169,0.046,0.290,-5.337
0.158,0.046,0.289,-5.337
0.158,0.042,0.290,-5.337
0.124,0.042,0.295,-5.337
0.168,0.043,0.298,-5.337
0.164,0.047,0.293,-5.337
0.109,0.044,0.286,-5.337
0.137,0.037,0.288,-5.337
0.165,0.038,0.291,-5.337
0.188,0.039,0.294,-5.337
0.239,0.038,0.293,-5.337
0.201,0.041,0.293,-5.337
0.152,0.041,0.291,-5.337
0.172,0.042,0.291,-5.337
0.177,0.043,0.292,-5.337
0.176,0.039,0.291,-5.337
0.184,0.040,0.292,-5.337
0.179,0.037,0.292,-5.337
0.203,0.037,0.291,-5.337
0.235,0.039,0.289,-5.337
0.216,0.039,0.288,-5.337
0.174,0.040,0.287,-5.337
0.152,0.041,0.288,-5.337
0.102,0.040,0.291,-5.337
0.149,0.041,0.293,-5.337
0.137,0.043,0.294,-5.337
0.052,0.044,0.291,-5.337
0.054,0.044,0.289,-5.337
0.107,0.044,0.289,-5.337
0.152,0.040,0.292,-5.337
0.162,0.040,0.294,-5.337
0.094,0.042,0.295,-5.337
0.022,0.044,0.292,-5.337
0.099,0.041,0.288,-5.337
0.210,0.042,0.288,-5.337
0.141,0.043,0.292,-5.337
0.069,0.042,0.294,-5.337
0.125,0.041,0.295,-5.337
0.153,0.042,0.288,-5.337
0.208,0.044,0.288,-5.337
0.164,0.045,0.291,-5.337
0.037,0.045,0.297,-5.337
0.010,0.046,0.292,-5.337
0.091,0.044,0.291,-5.337
0.150,0.043,0.291,-5.337
0.176,0.042,0.292,-5.337
0.068,0.046,0.291,-5.337
-0.001,0.045,0.286,-5.337
0.057,0.042,0.289,-5.337
0.063,0.040,0.294,-5.337
0.073,0.038,0.296,-5.337
0.133,0.041,0.297,-5.337
0.145,0.038,0.293,-5.337
0.117,0.038,0.291,-5.337
0.131,0.037,0.290,-5.337
0.108,0.038,0.291,-5.337
0.038,0.039,0.295,-5.337
0.054,0.037,0.297,-5.337
0.116,0.037,0.298,-5.337
0.151,0.037,0.295,-5.337
0.167,0.040,0.294,-5.337
0.155,0.044,0.293,-5.337
0.169,0.040,0.291,-5.337
0.203,0.037,0.289,-5.337
0.158,0.035,0.291,-5.337
0.182,0.035,0.292,-5.337
0.114,0.039,0.292,-5.337
0.113,0.039,0.293,-5.337
0.167,0.042,0.292,-5.337
0.166,0.041,0.289,-5.337
0.191,0.042,0.287,-5.337
0.110,0.045,0.285,-5.337
0.044,0.046,0.285,-5.337
0.030,0.042,0.288,-5.337
0.072,0.038,0.295,-5.337
0.110,0.035,0.295,-5.337
0.106,0.034,0.291,-5.337
0.111,0.036,0.291,-5.337
0.131,0.039,0.292,-5.337
0.117,0.037,0.295,-5.337
0.130,0.034,0.294,-5.337
0.077,0.041,0.292,-5.337
0.004,0.043,0.290,-5.337
-0.019,0.040,0.293,-5.337
0.046,0.040,0.292,-5.337
0.079,0.039,0.290,-5.337
0.083,0.041,0.292,-5.337
0.141,0.039,0.293,-5.337
0.128,0.041,0.293,-5.337
0.086,0.042,0.293,-5.337
0.166,0.040,0.292,-5.337
0.150,0.039,0.291,-5.337
0.090,0.034,0.291,-5.337
0.114,0.028,0.292,-5.337
0.150,0.029,0.292,-5.337
0.136,0.035,0.294,-5.337
0.142,0.037,0.294,-5.337
0.082,0.037,0.294,-5.337
-0.006,0.035,0.291,-5.337
0.038,0.034,0.285,-5.337
0.063,0.039,0.286,-5.337
0.092,0.040,0.291,-5.337
0.075,0.038,0.294,-5.337
0.046,0.039,0.294,-5.337
0.098,0.037,0.296,-5.337
0.188,0.035,0.299,-5.337
0.155,0.037,0.302,-5.337
0.030,0.040,0.301,-5.337
0.044,0.036,0.299,-5.337
0.146,0.034,0.298,-5.337
0.164,0.036,0.294,-5.337
0.135,0.034,0.287,-5.337
0.092,0.036,0.286,-5.337
0.112,0.035,0.292,-5.337
0.100,0.036,0.295,-5.337
0.091,0.036,0.291,-5.337
0.077,0.037,0.286,-5.337
0.092,0.041,0.288,-5.337
0.116,0.041,0.293,-5.337
0.095,0.043,0.291,-5.337
0.077,0.045,0.288,-5.337
0.131,0.044,0.290,-5.337
0.074,0.045,0.296,-5.337
0.081,0.042,0.296,-5.337
0.121,0.041,0.296,-5.337
0.083,0.042,0.296,-5.337
0.097,0.044,0.297,-5.337
0.121,0.046,0.296,-5.337
0.100,0.047,0.296,-5.337
0.112,0.043,0.294,-5.337
0.124,0.043,0.289,-5.337
0.142,0.044,0.288,-5.337
0.137,0.044,0.289,-5.337
0.146,0.047,0.291,-5.337
0.137,0.047,0.293,-5.337
0.122,0.046,0.295,-5.337
0.147,0.047,0.289,-5.337
0.118,0.050,0.286,-5.337
0.078,0.047,0.290,-5.337
0.167,0.043,0.296,-5.337
0.173,0.043,0.303,-5.337
0.141,0.044,0.302,-5.337
0.108,0.045,0.294,-5.337
0.116,0.048,0.288,-5.337
0.121,0.044,0.289,-5.337
0.190,0.041,0.293,-5.337
0.236,0.042,0.294,-5.337
0.137,0.044,0.294,-5.337
0.010,0.047,0.296,-5.337
0.041,0.044,0.294,-5.337
0.109,0.041,0.291,-5.337
0.139,0.040,0.292,-5.337
0.134,0.043,0.297,-5.337
0.121,0.044,0.295,-5.337
0.128,0.042,0.293,-5.337
0.103,0.042,0.291,-5.337
0.114,0.044,0.293,-5.337
0.158,0.046,0.293,-5.337
0.096,0.047,0.291,-5.337
0.068,0.046,0.288,-5.337
0.091,0.046,0.292,-5.337
0.157,0.042,0.293,-5.337
0.211,0.044,0.292,-5.337
0.160,0.042,0.291,-5.337
0.131,0.044,0.294,-5.337
0.182,0.043,0.293,-5.337
0.265,0.040,0.294,-5.337
0.159,0.043,0.294,-5.337
0.028,0.044,0.293,-5.337
0.099,0.044,0.292,-5.337
0.231,0.042,0.293,-5.337
0.199,0.047,0.291,-5.337
0.155,0.048,0.288,-5.337
0.169,0.047,0.291,-5.337
0.165,0.046,0.289,-5.337
0.163,0.047,0.286,-5.337
0.178,0.045,0.286,-5.337
0.143,0.048,0.291,-5.337
0.200,0.049,0.293,-5.337
0.233,0.048,0.293,-5.337
0.266,0.046,0.289,-5.337
0.287,0.048,0.289,-5.337
0.224,0.047,0.289,-5.337
0.116,0.049,0.291,-5.337
0.121,0.044,0.290,-5.337
0.144,0.046,0.289,-5.337
0.153,0.047,0.289,-5.337
0.121,0.048,0.289,-5.337
0.128,0.048,0.293,-5.337
0.183,0.050,0.293,-5.337
0.186,0.050,0.291,-5.337
0.164,0.049,0.290,-5.337
0.173,0.052,0.292,-5.337
0.201,0.054,0.294,-5.337
0.215,0.050,0.296,-5.337
0.180,0.054,0.292,-5.337
0.130,0.057,0.290,-5.337
0.156,0.054,0.290,-5.337
0.239,0.051,0.291,-5.337
0.289,0.050,0.291,-5.337
0.227,0.054,0.291,-5.337
0.152,0.055,0.288,-5.337
0.208,0.054,0.289,-5.337
0.313,0.050,0.292,-5.337
0.308,0.052,0.294,-5.337
0.254,0.054,0.293,-5.337
0.267,0.051,0.295,-5.337
0.288,0.051,0.295,-5.337
0.237,0.054,0.295,-5.337
0.151,0.056,0.292,-5.337
0.174,0.053,0.292,-5.337
0.247,0.052,0.293,-5.337
0.240,0.054,0.295,-5.337
0.124,0.053,0.293,-5.337
0.086,0.053,0.292,-5.337
0.140,0.053,0.294,-5.337
0.161,0.056,0.290,-5.337
0.213,0.054,0.286,-5.337
0.282,0.053,0.287,-5.337
0.285,0.055,0.289,-5.337
0.303,0.057,0.288,-5.337
0.286,0.058,0.293,-5.337
0.236,0.057,0.296,-5.337
0.272,0.058,0.297,-5.337
0.287,0.056,0.298,-5.337
0.302,0.052,0.296,-5.337
0.269,0.053,0.294,-5.337
0.249,0.055,0.293,-5.337
0.273,0.057,0.292,-5.337
0.258,0.055,0.293,-5.337
0.242,0.058,0.291,-5.337
0.240,0.062,0.293,-5.337
0.258,0.057,0.296,-5.337
0.287,0.053,0.299,-5.337
0.296,0.054,0.296,-5.337
0.296,0.055,0.294,-5.337
0.327,0.054,0.294,-5.337
0.275,0.061,0.295,-5.337
0.201,0.062,0.296,-5.337
0.193,0.054,0.293,-5.337
0.236,0.052,0.287,-5.337
0.283,0.055,0.286,-5.337
0.310,0.055,0.290,-5.337
0.333,0.055,0.294,-5.337
0.339,0.053,0.297,-5.337
0.297,0.055,0.295,-5.337
0.224,0.053,0.290,-5.337
0.242,0.048,0.280,-5.337
0.263,0.051,0.280,-5.337
0.235,0.053,0.282,-5.337
0.259,0.052,0.291,-5.337
0.296,0.052,0.297,-5.337
0.285,0.053,0.298,-5.337
0.280,0.053,0.298,-5.337
0.314,0.053,0.294,-5.337
0.346,0.055,0.288,-5.337
0.271,0.057,0.286,-5.337
0.155,0.059,0.293,-5.337
0.145,0.059,0.295,-5.337
0.255,0.057,0.294,-5.337
0.323,0.055,0.294,-5.337
0.284,0.058,0.293,-5.337
0.237,0.062,0.292,-5.337
0.250,0.061,0.295,-5.337
0.297,0.059,0.295,-5.337
0.289,0.065,0.297,-5.337
0.231,0.063,0.297,-5.337
0.218,0.062,0.296,-5.337
0.351,0.059,0.291,-5.337
0.391,0.058,0.287,-5.337
0.325,0.060,0.286,-5.337
0.179,0.065,0.286,-5.337
0.196,0.059,0.288,-5.337
0.270,0.060,0.289,-5.337
0.288,0.061,0.293,-5.337
0.307,0.062,0.298,-5.337
0.402,0.058,0.299,-5.337
0.483,0.053,0.298,-5.337
0.456,0.054,0.291,-5.337
0.336,0.061,0.287,-5.337
0.295,0.061,0.287,-5.337
0.330,0.061,0.287,-5.337
0.273,0.058,0.289,-5.337
0.291,0.056,0.290,-5.337
0.293,0.055,0.291,-5.337
0.309,0.058,0.291,-5.337
0.323,0.064,0.292,-5.337
0.267,0.061,0.292,-5.337
0.244,0.059,0.295,-5.337
0.265,0.059,0.294,-5.337
0.246,0.061,0.294,-5.337
0.189,0.061,0.292,-5.337
0.210,0.058,0.292,-5.337
0.300,0.056,0.296,-5.337
0.379,0.058,0.296,-5.337
0.279,0.061,0.291,-5.337
0.205,0.059,0.287,-5.337
0.300,0.054,0.287,-5.337
0.430,0.054,0.292,-5.337
0.440,0.054,0.297,-5.337
0.365,0.055,0.299,-5.337
0.292,0.056,0.298,-5.337
0.338,0.058,0.294,-5.337
0.388,0.053,0.290,-5.337
0.393,0.051,0.286,-5.337
0.392,0.058,0.288,-5.337
0.305,0.062,0.291,-5.337
0.284,0.060,0.292,-5.337
0.363,0.056,0.291,-5.337
0.354,0.058,0.295,-5.337
0.284,0.059,0.295,-5.337
0.269,0.058,0.293,-5.337
0.280,0.058,0.287,-5.337
0.276,0.066,0.291,-5.337
0.243,0.062,0.292,-5.337
0.277,0.059,0.292,-5.337
0.240,0.060,0.295,-5.337
0.293,0.061,0.298,-5.337
0.283,0.060,0.296,-5.337
0.245,0.059,0.294,-5.337
0.234,0.059,0.293,-5.337
0.331,0.061,0.291,-5.337
0.286,0.064,0.290,-5.337
0.231,0.068,0.292,-5.337
0.259,0.066,0.293,-5.337
0.308,0.064,0.292,-5.337
0.354,0.063,0.292,-5.337
0.338,0.063,0.294,-5.337
0.318,0.062,0.293,-5.337
0.297,0.064,0.290,-5.337
0.336,0.061,0.291,-5.337
0.365,0.059,0.291,-5.337
0.357,0.063,0.291,-5.337
0.365,0.064,0.290,-5.337
0.341,0.065,0.292,-5.337
0.309,0.062,0.292,-5.337
0.352,0.061,0.293,-5.337
0.333,0.058,0.295,-5.337
0.314,0.055,0.296,-5.337
0.308,0.056,0.295,-5.337
0.371,0.059,0.293,-5.337
0.367,0.060,0.291,-5.337
0.376,0.060,0.290,-5.337
0.382,0.064,0.292,-5.337
0.329,0.067,0.292,-5.337
0.336,0.066,0.292,-5.337
0.328,0.065,0.291,-5.337
0.347,0.065,0.290,-5.337
0.332,0.066,0.290,-5.337
0.314,0.066,0.292,-5.337
0.287,0.067,0.296,-5.337
0.290,0.067,0.297,-5.337
0.308,0.066,0.294,-5.337
0.278,0.067,0.295,-5.337
0.244,0.065,0.295,-5.337
0.326,0.062,0.296,-5.337
0.374,0.062,0.290,-5.337
0.335,0.060,0.287,-5.337
0.314,0.061,0.287,-5.337
0.269,0.065,0.289,-5.337
0.269,0.062,0.289,-5.337
0.403,0.060,0.290,-5.337
0.454,0.062,0.292,-5.337
0.391,0.060,0.293,-5.337
0.396,0.056,0.292,-5.337
0.399,0.057,0.291,-5.337
0.330,0.060,0.294,-5.337
0.330,0.056,0.296,-5.337
0.399,0.054,0.293,-5.337
0.388,0.055,0.291,-5.337
0.405,0.054,0.292,-5.337
0.404,0.054,0.293,-5.337
0.340,0.053,0.294,-5.337
0.265,0.056,0.292,-5.337
0.241,0.054,0.292,-5.337
0.273,0.054,0.293,-5.337
0.243,0.056,0.295,-5.337
0.200,0.055,0.294,-5.337
0.219,0.055,0.293,-5.337
0.297,0.054,0.294,-5.337
0.314,0.054,0.297,-5.337
0.320,0.054,0.291,-5.337
0.337,0.056,0.288,-5.337
0.282,0.057,0.289,-5.337
0.294,0.054,0.294,-5.337
0.259,0.054,0.297,-5.337
0.252,0.055,0.299,-5.337
0.328,0.052,0.297,-5.337
0.432,0.050,0.297,-5.337
0.355,0.049,0.294,-5.337
0.300,0.051,0.292,-5.337
0.316,0.051,0.293,-5.337
0.365,0.053,0.294,-5.337
0.281,0.051,0.298,-5.337
0.255,0.047,0.297,-5.337
0.372,0.049,0.295,-5.337
0.301,0.053,0.296,-5.337
0.252,0.054,0.295,-5.337
0.266,0.051,0.291,-5.337
0.267,0.052,0.291,-5.337
0.160,0.056,0.293,-5.337
0.184,0.056,0.295,-5.337
0.241,0.053,0.294,-5.337
0.236,0.052,0.293,-5.337
0.330,0.046,0.295,-5.337
0.432,0.045,0.294,-5.337
0.373,0.050,0.293,-5.337
0.323,0.050,0.292,-5.337
0.342,0.048,0.293,-5.337
0.315,0.051,0.296,-5.337
0.289,0.051,0.298,-5.337
0.230,0.052,0.297,-5.337
0.217,0.048,0.294,-5.337
0.232,0.050,0.292,-5.337
0.200,0.050,0.294,-5.337
0.192,0.047,0.297,-5.337
0.189,0.047,0.297,-5.337
0.225,0.049,0.295,-5.337
0.254,0.051,0.293,-5.337
0.248,0.051,0.291,-5.337
0.287,0.048,0.291,-5.337
0.280,0.048,0.288,-5.337
0.276,0.050,0.292,-5.337
0.237,0.048,0.292,-5.337
0.205,0.047,0.291,-5.337
0.238,0.043,0.291,-5.337
0.238,0.044,0.294,-5.337
0.231,0.045,0.294,-5.337
0.281,0.045,0.292,-5.337
0.274,0.047,0.292,-5.337
0.282,0.049,0.297,-5.337
0.287,0.046,0.299,-5.337
0.306,0.045,0.297,-5.337
0.270,0.046,0.292,-5.337
0.268,0.046,0.294,-5.337
0.263,0.046,0.293,-5.337
0.235,0.047,0.290,-5.337
0.153,0.049,0.286,-5.337
0.149,0.044,0.288,-5.337
0.192,0.042,0.294,-5.337
0.220,0.044,0.298,-5.337
0.169,0.048,0.301,-5.337
0.068,0.049,0.296,-5.337
0.046,0.050,0.297,-5.337
0.122,0.044,0.294,-5.337
0.148,0.044,0.287,-5.337
0.193,0.044,0.286,-5.337
0.259,0.045,0.290,-5.337
0.263,0.043,0.292,-5.337
0.237,0.041,0.292,-5.337
0.229,0.044,0.292,-5.337
0.248,0.044,0.291,-5.337
0.249,0.042,0.292,-5.337
0.263,0.046,0.296,-5.337
0.218,0.050,0.298,-5.337
0.149,0.045,0.294,-5.337
0.194,0.041,0.290,-5.337
0.194,0.041,0.287,-5.337
0.203,0.039,0.290,-5.337
0.266,0.040,0.291,-5.337
0.244,0.041,0.289,-5.337
0.281,0.037,0.286,-5.337
0.341,0.037,0.288,-5.337
0.299,0.039,0.291,-5.337
0.225,0.041,0.292,-5.337
0.143,0.041,0.290,-5.337
0.164,0.039,0.292,-5.337
0.207,0.040,0.293,-5.337
0.265,0.040,0.296,-5.337
0.202,0.043,0.296,-5.337
0.122,0.042,0.295,-5.337
0.098,0.037,0.291,-5.337
0.084,0.037,0.289,-5.337
0.105,0.037,0.292,-5.337
0.184,0.040,0.293,-5.337
0.230,0.042,0.291,-5.337
0.183,0.042,0.293,-5.337
0.182,0.037,0.294,-5.337
0.159,0.036,0.292,-5.337
0.097,0.039,0.286,-5.337
0.107,0.039,0.287,-5.337
0.111,0.038,0.294,-5.337
0.131,0.037,0.299,-5.337
0.124,0.038,0.294,-5.337
0.127,0.041,0.291,-5.337
0.143,0.040,0.295,-5.337
0.223,0.036,0.296,-5.337
0.248,0.037,0.295,-5.337
0.207,0.040,0.294,-5.337
0.196,0.043,0.292,-5.337
0.235,0.041,0.290,-5.337
0.199,0.041,0.291,-5.337
0.085,0.045,0.290,-5.337
0.042,0.045,0.289,-5.337
0.167,0.042,0.292,-5.337
0.189,0.042,0.294,-5.337
0.125,0.042,0.297,-5.337
0.071,0.047,0.296,-5.337
0.062,0.047,0.294,-5.337
0.103,0.047,0.297,-5.337
0.141,0.043,0.296,-5.337
0.128,0.043,0.296,-5.337
0.144,0.042,0.296,-5.337
0.200,0.039,0.297,-5.337
0.199,0.040,0.296,-5.337
0.147,0.042,0.291,-5.337
0.115,0.041,0.290,-5.337
0.083,0.041,0.291,-5.337
0.055,0.040,0.290,-5.337
0.081,0.039,0.288,-5.337
0.127,0.041,0.291,-5.337
0.146,0.038,0.292,-5.337
0.116,0.038,0.294,-5.337
0.079,0.040,0.291,-5.337
0.092,0.043,0.289,-5.337
0.111,0.040,0.288,-5.337
0.103,0.039,0.292,-5.337
0.116,0.037,0.291,-5.337
0.140,0.038,0.291,-5.337
0.123,0.041,0.294,-5.337
0.077,0.036,0.295,-5.337
0.118,0.034,0.296,-5.337
0.150,0.036,0.295,-5.337
0.198,0.036,0.297,-5.337
0.170,0.037,0.297,-5.337
0.091,0.037,0.295,-5.337
0.147,0.036,0.294,-5.337
0.166,0.032,0.294,-5.337
0.133,0.033,0.293,-5.337
0.079,0.038,0.292,-5.337
0.081,0.040,0.292,-5.337
0.053,0.041,0.292,-5.337
0.035,0.039,0.290,-5.337
0.150,0.040,0.288,-5.337
0.181,0.042,0.292,-5.337
0.161,0.044,0.298,-5.337
0.104,0.040,0.294,-5.337
0.138,0.039,0.291,-5.337
0.217,0.041,0.291,-5.337
0.204,0.042,0.294,-5.337
0.185,0.040,0.294,-5.337
0.129,0.038,0.292,-5.337
0.073,0.037,0.290,-5.337
0.143,0.036,0.290,-5.337
0.130,0.038,0.293,-5.337
0.159,0.040,0.294,-5.337
0.103,0.038,0.293,-5.337
0.064,0.040,0.292,-5.337
0.068,0.039,0.289,-5.337
0.104,0.040,0.290,-5.337
0.150,0.041,0.293,-5.337
0.166,0.037,0.296,-5.337
0.079,0.039,0.296,-5.337
0.034,0.039,0.297,-5.337
0.073,0.040,0.297,-5.337
0.132,0.039,0.291,-5.337
0.137,0.043,0.285,-5.337
0.151,0.039,0.285,-5.337
0.118,0.039,0.291,-5.337
0.057,0.040,0.295,-5.337
0.089,0.036,0.295,-5.337
0.118,0.036,0.293,-5.337
0.139,0.036,0.293,-5.337
0.074,0.035,0.293,-5.337
0.116,0.035,0.294,-5.337
0.180,0.034,0.296,-5.337
0.187,0.037,0.292,-5.337
0.153,0.034,0.289,-5.337
0.168,0.035,0.289,-5.337
0.074,0.036,0.292,-5.337
0.088,0.040,0.296,-5.337
0.115,0.040,0.293,-5.337
0.060,0.042,0.292,-5.337
0.085,0.044,0.296,-5.337
0.165,0.040,0.296,-5.337
0.127,0.041,0.293,-5.337
0.048,0.038,0.290,-5.337
0.044,0.042,0.292,-5.337
0.040,0.040,0.292,-5.337
0.084,0.036,0.296,-5.337
0.119,0.038,0.296,-5.337
0.118,0.039,0.296,-5.337
0.099,0.040,0.295,-5.337
0.074,0.039,0.291,-5.337
0.068,0.037,0.290,-5.337
0.057,0.036,0.294,-5.337
0.069,0.036,0.297,-5.337
0.079,0.035,0.294,-5.337
0.133,0.035,0.293,-5.337
0.181,0.036,0.293,-5.337
0.158,0.037,0.293,-5.337
0.109,0.039,0.299,-5.337
0.029,0.040,0.301,-5.337
-0.067,0.044,0.296,-5.337
0.026,0.039,0.289,-5.337
0.114,0.036,0.288,-5.337
0.155,0.036,0.290,-5.337
0.118,0.039,0.294,-5.337
0.075,0.043,0.295,-5.337
0.095,0.042,0.288,-5.337
0.108,0.038,0.285,-5.337
0.073,0.038,0.286,-5.337
0.085,0.037,0.295,-5.337
0.128,0.038,0.297,-5.337
0.119,0.041,0.296,-5.337
0.080,0.038,0.290,-5.337
0.122,0.037,0.287,-5.337
0.157,0.035,0.287,-5.337
0.144,0.036,0.287,-5.337
0.169,0.035,0.289,-5.337
0.184,0.036,0.290,-5.337
0.167,0.038,0.295,-5.337
0.156,0.038,0.300,-5.337
0.087,0.040,0.301,-5.337
0.052,0.040,0.298,-5.337
0.023,0.040,0.293,-5.337
-0.009,0.042,0.290,-5.337
-0.011,0.043,0.292,-5.337
0.044,0.042,0.296,-5.337
-0.014,0.042,0.297,-5.337
-0.021,0.043,0.294,-5.337
0.050,0.042,0.292,-5.337
0.106,0.041,0.291,-5.337
0.158,0.038,0.291,-5.337
0.139,0.042,0.290,-5.337
0.079,0.044,0.290,-5.337
0.076,0.039,0.291,-5.337
0.069,0.035,0.292,-5.337
0.114,0.033,0.288,-5.337
0.171,0.035,0.292,-5.337
0.182,0.037,0.296,-5.337
0.128,0.039,0.298,-5.337
0.173,0.036,0.297,-5.337
0.166,0.039,0.293,-5.337
0.125,0.040,0.291,-5.337
0.114,0.040,0.292,-5.337
0.131,0.039,0.290,-5.337
0.122,0.040,0.289,-5.337
0.200,0.040,0.288,-5.337
0.213,0.042,0.289,-5.337
0.124,0.047,0.289,-5.337
0.074,0.049,0.290,-5.337
0.135,0.049,0.291,-5.337
0.154,0.045,0.294,-5.337
0.039,0.046,0.296,-5.337
0.005,0.045,0.297,-5.337
0.073,0.048,0.300,-5.337
0.089,0.050,0.296,-5.337
0.111,0.044,0.296,-5.337
0.165,0.040,0.290,-5.337
0.205,0.038,0.288,-5.337
0.219,0.042,0.291,-5.337
0.147,0.044,0.295,-5.337
0.127,0.043,0.296,-5.337
0.187,0.044,0.298,-5.337
0.243,0.044,0.297,-5.337
0.255,0.044,0.295,-5.337
0.201,0.044,0.294,-5.337
0.141,0.047,0.291,-5.337
0.063,0.049,0.290,-5.337
0.040,0.050,0.291,-5.337
0.137,0.048,0.293,-5.337
0.155,0.051,0.296,-5.337
0.121,0.051,0.296,-5.337
0.137,0.050,0.294,-5.337
0.158,0.048,0.295,-5.337
0.141,0.048,0.296,-5.337
0.100,0.045,0.299,-5.337
0.075,0.043,0.299,-5.337
0.176,0.042,0.296,-5.337
0.211,0.043,0.294,-5.337
0.173,0.041,0.296,-5.337
0.239,0.039,0.296,-5.337
0.259,0.041,0.294,-5.337
0.175,0.041,0.292,-5.337
0.137,0.041,0.292,-5.337
0.217,0.041,0.291,-5.337
0.242,0.043,0.294,-5.337
0.251,0.043,0.294,-5.337
0.157,0.047,0.294,-5.337
0.083,0.045,0.292,-5.337
0.111,0.047,0.293,-5.337
0.166,0.046,0.294,-5.337
0.179,0.046,0.298,-5.337
0.123,0.046,0.300,-5.337
0.143,0.046,0.300,-5.337
0.232,0.045,0.295,-5.337
0.255,0.047,0.291,-5.337
0.187,0.047,0.288,-5.337
0.182,0.051,0.289,-5.337
0.149,0.049,0.289,-5.337
0.151,0.049,0.290,-5.337
0.184,0.047,0.293,-5.337
0.186,0.049,0.297,-5.337
0.211,0.051,0.297,-5.337
0.111,0.052,0.293,-5.337
0.048,0.049,0.292,-5.337
0.105,0.052,0.292,-5.337
0.155,0.054,0.292,-5.337
0.214,0.053,0.291,-5.337
0.169,0.050,0.293,-5.337
0.226,0.047,0.296,-5.337
0.274,0.053,0.296,-5.337
0.235,0.053,0.292,-5.337
0.243,0.049,0.289,-5.337
0.286,0.044,0.286,-5.337
0.297,0.050,0.289,-5.337
0.196,0.056,0.290,-5.337
0.128,0.055,0.293,-5.337
0.122,0.052,0.293,-5.337
0.220,0.049,0.294,-5.337
0.316,0.050,0.293,-5.337
0.290,0.051,0.292,-5.337
0.280,0.049,0.292,-5.337
0.275,0.051,0.290,-5.337
0.198,0.053,0.289,-5.337
0.180,0.053,0.291,-5.337
0.179,0.053,0.294,-5.337
0.192,0.054,0.294,-5.337
0.224,0.054,0.294,-5.337
0.253,0.049,0.290,-5.337
0.219,0.052,0.287,-5.337
0.170,0.052,0.285,-5.337
0.124,0.054,0.289,-5.337
0.199,0.054,0.297,-5.337
0.344,0.051,0.298,-5.337
0.322,0.054,0.292,-5.337
0.310,0.054,0.286,-5.337
0.291,0.055,0.289,-5.337
0.233,0.050,0.295,-5.337
0.247,0.049,0.296,-5.337
0.227,0.054,0.289,-5.337
0.174,0.062,0.289,-5.337
0.052,0.062,0.291,-5.337
0.117,0.057,0.295,-5.337
0.282,0.054,0.293,-5.337
0.364,0.056,0.290,-5.337
0.312,0.059,0.287,-5.337
0.290,0.058,0.291,-5.337
0.295,0.055,0.295,-5.337
0.301,0.052,0.294,-5.337
0.312,0.056,0.288,-5.337
0.328,0.057,0.288,-5.337
0.312,0.055,0.290,-5.337
0.218,0.056,0.295,-5.337
0.159,0.055,0.292,-5.337
0.166,0.055,0.289,-5.337
0.229,0.056,0.286,-5.337
0.248,0.055,0.288,-5.337
0.266,0.052,0.295,-5.337
0.274,0.053,0.296,-5.337
0.235,0.051,0.295,-5.337
0.211,0.050,0.294,-5.337
0.244,0.051,0.295,-5.337
0.272,0.052,0.295,-5.337
0.243,0.050,0.294,-5.337
0.253,0.050,0.292,-5.337
0.270,0.049,0.290,-5.337
0.303,0.050,0.289,-5.337
0.342,0.051,0.287,-5.337
0.326,0.054,0.286,-5.337
0.258,0.055,0.291,-5.337
0.282,0.053,0.292,-5.337
0.248,0.057,0.292,-5.337
0.184,0.057,0.290,-5.337
0.176,0.057,0.292,-5.337
0.225,0.058,0.294,-5.337
0.300,0.052,0.292,-5.337
0.386,0.048,0.291,-5.337
0.394,0.052,0.294,-5.337
0.312,0.057,0.292,-5.337
0.256,0.057,0.291,-5.337
0.263,0.056,0.292,-5.337
0.265,0.056,0.292,-5.337
0.268,0.055,0.293,-5.337
0.282,0.055,0.297,-5.337
0.306,0.053,0.300,-5.337
0.335,0.054,0.297,-5.337
0.377,0.056,0.292,-5.337
0.386,0.056,0.289,-5.337
0.372,0.056,0.288,-5.337
0.321,0.054,0.290,-5.337
0.327,0.058,0.295,-5.337
0.338,0.059,0.296,-5.337
0.289,0.057,0.291,-5.337
0.289,0.056,0.284,-5.337
0.360,0.054,0.287,-5.337
0.416,0.053,0.293,-5.337
0.370,0.057,0.297,-5.337
0.304,0.056,0.294,-5.337
0.297,0.059,0.289,-5.337
0.345,0.057,0.292,-5.337
0.307,0.059,0.298,-5.337
0.295,0.059,0.298,-5.337
0.278,0.060,0.295,-5.337
0.288,0.056,0.296,-5.337
0.374,0.054,0.297,-5.337
0.365,0.056,0.291,-5.337
0.301,0.059,0.287,-5.337
0.240,0.059,0.288,-5.337
0.209,0.060,0.292,-5.337
0.261,0.058,0.290,-5.337
0.238,0.059,0.289,-5.337
0.237,0.062,0.292,-5.337
0.272,0.059,0.294,-5.337
0.372,0.054,0.291,-5.337
0.410,0.056,0.287,-5.337
0.357,0.060,0.288,-5.337
0.293,0.061,0.289,-5.337
0.295,0.058,0.291,-5.337
0.397,0.057,0.292,-5.337
0.447,0.058,0.293,-5.337
0.384,0.058,0.291,-5.337
0.381,0.058,0.290,-5.337
0.349,0.063,0.292,-5.337
0.346,0.061,0.294,-5.337
0.383,0.058,0.298,-5.337
0.389,0.060,0.298,-5.337
0.387,0.058,0.295,-5.337
0.381,0.058,0.292,-5.337
0.291,0.059,0.287,-5.337
0.196,0.062,0.286,-5.337
0.213,0.060,0.286,-5.337
0.273,0.059,0.288,-5.337
0.331,0.055,0.291,-5.337
0.377,0.056,0.289,-5.337
0.317,0.060,0.290,-5.337
0.249,0.064,0.291,-5.337
0.273,0.063,0.297,-5.337
0.317,0.061,0.297,-5.337
0.273,0.063,0.296,-5.337
0.257,0.061,0.292,-5.337
0.335,0.059,0.293,-5.337
0.374,0.061,0.292,-5.337
0.317,0.061,0.292,-5.337
0.301,0.060,0.291,-5.337
0.372,0.059,0.291,-5.337
0.405,0.057,0.293,-5.337
0.358,0.062,0.297,-5.337
0.301,0.062,0.295,-5.337
0.302,0.060,0.293,-5.337
0.410,0.056,0.291,-5.337
0.476,0.058,0.290,-5.337
0.461,0.060,0.289,-5.337
0.401,0.059,0.295,-5.337
0.345,0.057,0.296,-5.337
0.351,0.058,0.294,-5.337
0.405,0.059,0.293,-5.337
0.414,0.058,0.294,-5.337
0.449,0.055,0.294,-5.337
0.427,0.054,0.291,-5.337
0.384,0.057,0.293,-5.337
0.283,0.062,0.294,-5.337
0.173,0.063,0.293,-5.337
0.269,0.058,0.287,-5.337
0.326,0.063,0.289,-5.337
0.280,0.067,0.292,-5.337
0.261,0.061,0.291,-5.337
0.288,0.058,0.293,-5.337
0.297,0.064,0.293,-5.337
0.254,0.065,0.292,-5.337
0.280,0.061,0.292,-5.337
0.334,0.063,0.292,-5.337
0.361,0.063,0.295,-5.337
0.289,0.061,0.298,-5.337
0.242,0.058,0.296,-5.337
0.205,0.057,0.294,-5.337
0.239,0.059,0.297,-5.337
0.289,0.058,0.297,-5.337
0.286,0.057,0.294,-5.337
0.278,0.060,0.293,-5.337
0.268,0.058,0.292,-5.337
0.248,0.058,0.292,-5.337
0.318,0.054,0.292,-5.337
0.361,0.056,0.293,-5.337
0.345,0.055,0.290,-5.337
0.364,0.055,0.291,-5.337
0.354,0.050,0.289,-5.337
0.298,0.052,0.289,-5.337
0.210,0.055,0.289,-5.337
0.215,0.056,0.292,-5.337
0.200,0.058,0.296,-5.337
0.183,0.055,0.295,-5.337
0.221,0.052,0.293,-5.337
0.263,0.051,0.292,-5.337
0.327,0.049,0.292,-5.337
0.283,0.051,0.292,-5.337
0.263,0.050,0.289,-5.337
0.385,0.049,0.290,-5.337
0.400,0.047,0.292,-5.337
