[Parameters]
Operating Mode, Feedback
Subject  AA..ZZ, WT
Session  0..99, 42
No. Trials (1..9999), 500
Mouse Number, 1
Pressure Probe Serial Port, \00\00\00\04COM4
Save additional csv file, TRUE
Save using mouse number, FALSE
A/D Monitor Rate (Hz), 30000.000000
A/D Stimulate Rate (Hz), 30000.000000
A/D input range (+/- V), 5
No. Channels to acquire (N), 2
Pre-Stim Acq. time (ms), 100.000000
Post-Stim Acq. time (ms), 900.000000
Analysis window parameters.M-response Start (ms), 1.100000
Analysis window parameters.M-response Duration (ms), 5.500000
Analysis window parameters.H-response Duration (ms), 6.000000
Analysis window parameters.H-response Start (ms), 6.500000
Feedback window, H response
Proportional gain, 0.100000
Target value, 6.700000
Feedback Ch., 1
Stim Channel to Control (1-4), 4
Trial, 23
Wait for EMG Conditions, FALSE
Channel to monitor (0 - N-1), 1
EMG Hi Limit, 2.000000
EMG Lo Limit, 0.001000
Inter-Stim delay (sec), 10.000000
EMG Monitor Mode, Mean
Time to run Long Stim.(sec), 30
Save Long Stim Data?, OFF
BURST Save time (ms), 1000
BURST Save Interval (x above), 10
Long-Stim. Rep. Rate (Hz), 10.000000
Stim type cluster array.<size(s)>, 4
Stim type cluster array 0.Stimulus Output, Electrical
Stim type cluster array 1.Stimulus Output, OFF
Stim type cluster array 2.Stimulus Output, OFF
Stim type cluster array 3.Stimulus Output, Motor Length
Stim specs cluster array.<size(s)>, 4
Stim specs cluster array 0.Initial Stimulus ampl., 0.300000
Stim specs cluster array 0.Maximum Stimulus, 1.120000
Stim specs cluster array 0.#Pulses in train, 4
Stim specs cluster array 0.Peak Level time (ms), 1.000000
Stim specs cluster array 0.Total pulse period (ms), 150.000000
Stim specs cluster array 0.Start Delay (ms), -50.000000
Stim specs cluster array 0.Pulse Shape, Square
Stim specs cluster array 0.Ramp/Rel. time (ms), 0.100000
Stim specs cluster array 0.Peak Amplitude (V), 0.120000
Stim specs cluster array 1.Initial Stimulus ampl., 0.000000
Stim specs cluster array 1.Maximum Stimulus, 0.000000
Stim specs cluster array 1.#Pulses in train, 3
Stim specs cluster array 1.Peak Level time (ms), 29.000000
Stim specs cluster array 1.Total pulse period (ms), 200.000000
Stim specs cluster array 1.Start Delay (ms), 0.000000
Stim specs cluster array 1.Pulse Shape, Square
Stim specs cluster array 1.Ramp/Rel. time (ms), 0.000000
Stim specs cluster array 1.Peak Amplitude (V), 2.000000
Stim specs cluster array 2.Initial Stimulus ampl., 0.000000
Stim specs cluster array 2.Maximum Stimulus, 0.000000
Stim specs cluster array 2.#Pulses in train, 1
Stim specs cluster array 2.Peak Level time (ms), 25.000000
Stim specs cluster array 2.Total pulse period (ms), 200.000000
Stim specs cluster array 2.Start Delay (ms), 0.000000
Stim specs cluster array 2.Pulse Shape, Square
Stim specs cluster array 2.Ramp/Rel. time (ms), 20.000000
Stim specs cluster array 2.Peak Amplitude (V), 10.000000
Stim specs cluster array 3.Initial Stimulus ampl., 0.000000
Stim specs cluster array 3.Maximum Stimulus, 20.000000
Stim specs cluster array 3.#Pulses in train, 25
Stim specs cluster array 3.Peak Level time (ms), 0.100000
Stim specs cluster array 3.Total pulse period (ms), 4.000000
Stim specs cluster array 3.Start Delay (ms), 205.000000
Stim specs cluster array 3.Pulse Shape, Triangle
Stim specs cluster array 3.Ramp/Rel. time (ms), 3.000000
Stim specs cluster array 3.Peak Amplitude (V), 0.500000
Force cal. (mN/Volt), 100.000000
Force Range (mN), 100.000000
Length cal. (mm/Volt), 10.000000
Length Range (mm), 10.000000
Stim. 1, 0.300000
Stim. 2, 0.000000
Stim. 3, 0.000000
Stim. 4, 0.000000
Monitor acquire time (ms), 100.000000
EMG graph Ymax, 0.100000
Travel limit (mm), 20.000000
Use Pressure Probe, FALSE
Pressure goal (g), 100
Speed (mm/sec), 5.000000
Dwell time (ms), 100.000000
Pressure limit (g), 500.000000
Channel amplitude offset, 0.000000

[DATA]

0.148,0.058,0.331,-5.337
0.149,0.055,0.335,-5.337
0.259,0.058,0.334,-5.337
0.256,0.061,0.330,-5.337
0.226,0.059,0.327,-5.337
0.164,0.058,0.326,-5.337
0.089,0.063,0.328,-5.337
0.009,0.063,0.331,-5.337
0.053,0.060,0.329,-5.337
0.140,0.057,0.330,-5.337
0.234,0.054,0.331,-5.337
0.229,0.054,0.329,-5.337
0.186,0.058,0.327,-5.337
0.190,0.061,0.329,-5.337
0.228,0.059,0.331,-5.337
0.192,0.061,0.333,-5.337
0.091,0.065,0.332,-5.337
0.149,0.061,0.331,-5.337
0.239,0.052,0.328,-5.337
0.227,0.055,0.331,-5.337
0.142,0.057,0.334,-5.337
0.135,0.057,0.334,-5.337
0.093,0.053,0.331,-5.337
0.082,0.056,0.333,-5.337
0.161,0.054,0.336,-5.337
0.157,0.055,0.334,-5.337
0.169,0.057,0.330,-5.337
0.143,0.057,0.328,-5.337
0.054,0.059,0.328,-5.337
0.028,0.058,0.329,-5.337
0.059,0.059,0.333,-5.337
0.140,0.057,0.337,-5.337
0.137,0.056,0.337,-5.337
0.121,0.057,0.332,-5.337
0.206,0.059,0.327,-5.337
0.281,0.055,0.329,-5.337
0.260,0.057,0.333,-5.337
0.225,0.058,0.336,-5.337
0.233,0.057,0.340,-5.337
0.249,0.059,0.338,-5.337
0.264,0.061,0.332,-5.337
0.228,0.061,0.327,-5.337
0.177,0.059,0.327,-5.337
0.224,0.050,0.326,-5.337
0.188,0.054,0.326,-5.337
0.164,0.054,0.328,-5.337
0.229,0.055,0.333,-5.337
0.191,0.057,0.337,-5.337
0.084,0.056,0.334,-5.337
0.175,0.051,0.329,-5.337
0.233,0.051,0.327,-5.337
0.225,0.051,0.330,-5.337
0.210,0.050,0.332,-5.337
0.195,0.047,0.332,-5.337
0.132,0.054,0.332,-5.337
0.158,0.050,0.332,-5.337
0.226,0.048,0.330,-5.337
0.238,0.051,0.331,-5.337
0.248,0.053,0.332,-5.337
0.227,0.053,0.332,-5.337
0.220,0.048,0.331,-5.337
0.230,0.050,0.336,-5.337
0.136,0.053,0.338,-5.337
0.136,0.052,0.335,-5.337
0.210,0.048,0.331,-5.337
0.255,0.049,0.328,-5.337
0.248,0.048,0.328,-5.337
0.272,0.049,0.331,-5.337
0.238,0.050,0.337,-5.337
0.143,0.053,0.339,-5.337
0.155,0.052,0.336,-5.337
0.234,0.050,0.332,-5.337
0.261,0.051,0.326,-5.337
0.230,0.052,0.321,-5.337
0.171,0.054,0.325,-5.337
0.172,0.053,0.333,-5.337
0.170,0.053,0.339,-5.337
0.156,0.053,0.336,-5.337
0.201,0.052,0.331,-5.337
0.260,0.053,0.330,-5.337
0.246,0.047,0.336,-5.337
0.224,0.045,0.338,-5.337
0.281,0.046,0.335,-5.337
0.289,0.046,0.331,-5.337
0.251,0.043,0.330,-5.337
0.241,0.044,0.326,-5.337
0.236,0.046,0.329,-5.337
0.188,0.046,0.334,-5.337
0.130,0.049,0.333,-5.337
0.158,0.045,0.327,-5.337
0.176,0.048,0.326,-5.337
0.112,0.050,0.329,-5.337
0.150,0.045,0.332,-5.337
0.148,0.047,0.334,-5.337
0.065,0.048,0.336,-5.337
0.067,0.048,0.332,-5.337
0.140,0.046,0.328,-5.337
0.247,0.041,0.331,-5.337
0.253,0.041,0.330,-5.337
0.218,0.044,0.328,-5.337
0.246,0.044,0.329,-5.337
0.255,0.043,0.331,-5.337
0.232,0.041,0.332,-5.337
0.220,0.045,0.333,-5.337
0.192,0.047,0.334,-5.337
0.143,0.053,0.334,-5.337
0.112,0.050,0.330,-5.337
0.120,0.047,0.328,-5.337
0.200,0.045,0.326,-5.337
0.221,0.049,0.330,-5.337
0.174,0.049,0.337,-5.337
0.097,0.051,0.340,-5.337
0.173,0.046,0.338,-5.337
0.298,0.040,0.331,-5.337
0.315,0.038,0.332,-5.337
0.282,0.041,0.337,-5.337
0.268,0.042,0.338,-5.337
0.245,0.039,0.334,-5.337
0.261,0.040,0.328,-5.337
0.212,0.041,0.327,-5.337
0.217,0.039,0.328,-5.337
0.279,0.037,0.331,-5.337
0.274,0.038,0.331,-5.337
0.242,0.038,0.332,-5.337
0.221,0.035,0.334,-5.337
0.225,0.034,0.334,-5.337
0.230,0.035,0.335,-5.337
0.281,0.033,0.331,-5.337
0.257,0.037,0.333,-5.337
0.272,0.041,0.335,-5.337
0.218,0.039,0.338,-5.337
0.252,0.036,0.336,-5.337
0.224,0.034,0.332,-5.337
0.109,0.035,0.328,-5.337
0.068,0.039,0.326,-5.337
0.152,0.037,0.329,-5.337
0.242,0.034,0.331,-5.337
0.228,0.036,0.331,-5.337
0.209,0.034,0.330,-5.337
0.255,0.035,0.331,-5.337
0.281,0.037,0.333,-5.337
0.284,0.034,0.331,-5.337
0.239,0.037,0.328,-5.337
0.164,0.040,0.329,-5.337
0.139,0.041,0.335,-5.337
0.096,0.039,0.337,-5.337
0.121,0.039,0.331,-5.337
0.148,0.038,0.326,-5.337
0.204,0.035,0.329,-5.337
0.138,0.037,0.334,-5.337
0.137,0.039,0.333,-5.337
0.242,0.035,0.332,-5.337
0.289,0.038,0.330,-5.337
0.224,0.037,0.331,-5.337
0.173,0.041,0.331,-5.337
0.216,0.038,0.333,-5.337
0.270,0.036,0.332,-5.337
0.213,0.040,0.331,-5.337
0.127,0.040,0.325,-5.337
0.143,0.038,0.321,-5.337
0.225,0.039,0.324,-5.337
0.193,0.043,0.329,-5.337
0.198,0.040,0.333,-5.337
0.305,0.035,0.336,-5.337
0.302,0.036,0.334,-5.337
0.199,0.040,0.332,-5.337
0.125,0.041,0.331,-5.337
0.164,0.041,0.331,-5.337
0.111,0.039,0.330,-5.337
0.074,0.039,0.328,-5.337
0.131,0.034,0.328,-5.337
0.181,0.033,0.326,-5.337
0.229,0.033,0.329,-5.337
0.187,0.037,0.332,-5.337
0.209,0.040,0.333,-5.337
0.253,0.040,0.331,-5.337
0.205,0.040,0.327,-5.337
0.176,0.039,0.327,-5.337
0.107,0.042,0.331,-5.337
0.019,0.044,0.335,-5.337
0.094,0.041,0.330,-5.337
0.235,0.038,0.326,-5.337
0.242,0.037,0.331,-5.337
0.134,0.039,0.332,-5.337
0.067,0.041,0.327,-5.337
0.146,0.039,0.327,-5.337
0.231,0.035,0.329,-5.337
0.239,0.036,0.331,-5.337
0.115,0.038,0.329,-5.337
0.057,0.039,0.329,-5.337
0.100,0.038,0.329,-5.337
0.149,0.040,0.332,-5.337
0.207,0.039,0.331,-5.337
0.222,0.035,0.330,-5.337
0.184,0.035,0.329,-5.337
0.180,0.035,0.330,-5.337
0.199,0.036,0.330,-5.337
0.198,0.039,0.328,-5.337
0.217,0.037,0.328,-5.337
0.195,0.041,0.330,-5.337
0.209,0.039,0.332,-5.337
0.237,0.039,0.332,-5.337
0.174,0.042,0.328,-5.337
0.139,0.041,0.327,-5.337
0.206,0.037,0.328,-5.337
0.258,0.037,0.328,-5.337
0.293,0.036,0.326,-5.337
0.296,0.035,0.328,-5.337
0.247,0.037,0.330,-5.337
0.215,0.036,0.326,-5.337
0.199,0.032,0.326,-5.337
0.222,0.033,0.328,-5.337
0.248,0.036,0.329,-5.337
0.236,0.039,0.331,-5.337
0.192,0.040,0.330,-5.337
0.182,0.039,0.328,-5.337
0.213,0.039,0.330,-5.337
0.220,0.039,0.333,-5.337
0.161,0.039,0.336,-5.337
0.121,0.039,0.333,-5.337
0.143,0.040,0.329,-5.337
0.253,0.037,0.328,-5.337
0.307,0.034,0.330,-5.337
0.256,0.036,0.330,-5.337
0.250,0.037,0.330,-5.337
0.240,0.035,0.331,-5.337
0.248,0.034,0.334,-5.337
0.194,0.038,0.334,-5.337
0.098,0.041,0.333,-5.337
0.098,0.037,0.333,-5.337
0.129,0.039,0.333,-5.337
0.113,0.040,0.326,-5.337
0.079,0.038,0.325,-5.337
0.160,0.035,0.327,-5.337
0.214,0.035,0.329,-5.337
0.190,0.036,0.328,-5.337
0.195,0.038,0.326,-5.337
0.215,0.035,0.330,-5.337
0.165,0.035,0.334,-5.337
0.184,0.035,0.332,-5.337
0.162,0.040,0.331,-5.337
0.235,0.037,0.331,-5.337
0.234,0.035,0.329,-5.337
0.145,0.039,0.328,-5.337
0.111,0.039,0.327,-5.337
0.155,0.040,0.326,-5.337
0.182,0.038,0.331,-5.337
0.128,0.039,0.336,-5.337
0.103,0.037,0.334,-5.337
0.167,0.033,0.331,-5.337
0.252,0.031,0.330,-5.337
0.269,0.034,0.329,-5.337
0.250,0.035,0.327,-5.337
0.185,0.037,0.327,-5.337
0.129,0.039,0.330,-5.337
0.110,0.038,0.330,-5.337
0.143,0.035,0.332,-5.337
0.214,0.034,0.330,-5.337
0.251,0.036,0.327,-5.337
0.180,0.040,0.331,-5.337
0.126,0.040,0.335,-5.337
0.154,0.039,0.335,-5.337
0.173,0.039,0.333,-5.337
0.188,0.036,0.328,-5.337
0.163,0.036,0.328,-5.337
0.159,0.031,0.327,-5.337
0.198,0.032,0.327,-5.337
0.188,0.033,0.323,-5.337
0.148,0.031,0.323,-5.337
0.163,0.033,0.328,-5.337
0.233,0.034,0.332,-5.337
0.302,0.030,0.333,-5.337
0.302,0.035,0.332,-5.337
0.201,0.036,0.328,-5.337
0.148,0.037,0.328,-5.337
0.166,0.035,0.327,-5.337
0.223,0.034,0.328,-5.337
0.191,0.037,0.327,-5.337
0.118,0.035,0.326,-5.337
0.157,0.033,0.326,-5.337
0.179,0.035,0.326,-5.337
0.187,0.037,0.328,-5.337
0.155,0.035,0.329,-5.337
0.123,0.032,0.330,-5.337
0.116,0.029,0.330,-5.337
0.177,0.028,0.330,-5.337
0.137,0.033,0.335,-5.337
0.126,0.035,0.337,-5.337
0.141,0.036,0.332,-5.337
0.156,0.036,0.329,-5.337
0.174,0.037,0.328,-5.337
0.170,0.038,0.330,-5.337
0.208,0.038,0.328,-5.337
0.159,0.043,0.327,-5.337
0.147,0.040,0.325,-5.337
0.211,0.039,0.328,-5.337
0.243,0.037,0.332,-5.337
0.211,0.040,0.333,-5.337
0.184,0.042,0.332,-5.337
0.135,0.042,0.332,-5.337
0.079,0.042,0.328,-5.337
0.042,0.041,0.322,-5.337
0.087,0.041,0.320,-5.337
0.140,0.042,0.326,-5.337
0.141,0.042,0.332,-5.337
0.138,0.042,0.334,-5.337
0.176,0.043,0.333,-5.337
0.166,0.042,0.329,-5.337
0.149,0.044,0.327,-5.337
0.226,0.041,0.327,-5.337
0.275,0.042,0.328,-5.337
0.218,0.048,0.327,-5.337
0.165,0.047,0.328,-5.337
0.197,0.048,0.325,-5.337
0.183,0.050,0.327,-5.337
0.225,0.045,0.330,-5.337
0.266,0.043,0.333,-5.337
0.205,0.043,0.331,-5.337
0.176,0.043,0.331,-5.337
0.159,0.040,0.333,-5.337
0.140,0.042,0.328,-5.337
0.166,0.043,0.325,-5.337
0.202,0.043,0.328,-5.337
0.210,0.041,0.330,-5.337
0.185,0.041,0.333,-5.337
0.147,0.044,0.331,-5.337
0.202,0.042,0.330,-5.337
0.187,0.041,0.329,-5.337
0.145,0.040,0.332,-5.337
0.148,0.036,0.335,-5.337
0.176,0.040,0.327,-5.337
0.184,0.041,0.326,-5.337
0.167,0.041,0.330,-5.337
0.182,0.038,0.337,-5.337
0.180,0.041,0.335,-5.337
0.153,0.045,0.328,-5.337
0.159,0.043,0.324,-5.337
0.093,0.048,0.328,-5.337
0.066,0.049,0.331,-5.337
0.130,0.046,0.333,-5.337
0.229,0.045,0.330,-5.337
0.234,0.044,0.329,-5.337
0.293,0.042,0.328,-5.337
0.301,0.041,0.328,-5.337
0.271,0.043,0.331,-5.337
0.214,0.041,0.335,-5.337
0.228,0.040,0.334,-5.337
0.243,0.043,0.332,-5.337
0.169,0.051,0.333,-5.337
0.104,0.049,0.332,-5.337
0.117,0.049,0.331,-5.337
0.146,0.048,0.326,-5.337
0.180,0.045,0.327,-5.337
0.126,0.049,0.328,-5.337
0.060,0.051,0.333,-5.337
0.105,0.048,0.335,-5.337
0.130,0.048,0.338,-5.337
0.175,0.044,0.337,-5.337
0.274,0.047,0.332,-5.337
0.288,0.048,0.330,-5.337
0.264,0.048,0.328,-5.337
0.273,0.047,0.329,-5.337
0.252,0.048,0.328,-5.337
0.047,0.052,0.327,-5.337
-0.001,0.051,0.330,-5.337
0.103,0.048,0.333,-5.337
0.158,0.051,0.330,-5.337
0.166,0.047,0.329,-5.337
0.181,0.045,0.330,-5.337
0.197,0.046,0.329,-5.337
0.162,0.051,0.328,-5.337
0.140,0.053,0.330,-5.337
0.175,0.053,0.336,-5.337
0.174,0.050,0.337,-5.337
0.207,0.048,0.334,-5.337
0.295,0.049,0.333,-5.337
0.343,0.052,0.333,-5.337
0.290,0.054,0.331,-5.337
0.229,0.054,0.326,-5.337
0.190,0.052,0.329,-5.337
0.181,0.053,0.330,-5.337
0.154,0.056,0.330,-5.337
0.096,0.055,0.329,-5.337
0.107,0.050,0.329,-5.337
0.140,0.048,0.330,-5.337
0.177,0.050,0.329,-5.337
0.186,0.049,0.328,-5.337
0.179,0.049,0.330,-5.337
0.197,0.046,0.329,-5.337
0.186,0.045,0.329,-5.337
0.220,0.046,0.325,-5.337
0.201,0.048,0.326,-5.337
0.151,0.049,0.326,-5.337
0.248,0.049,0.324,-5.337
0.212,0.051,0.326,-5.337
0.149,0.052,0.326,-5.337
0.132,0.049,0.324,-5.337
0.084,0.050,0.326,-5.337
0.092,0.054,0.332,-5.337
0.079,0.057,0.331,-5.337
0.051,0.055,0.332,-5.337
0.163,0.052,0.333,-5.337
0.221,0.052,0.331,-5.337
0.111,0.052,0.329,-5.337
0.062,0.054,0.325,-5.337
0.172,0.052,0.325,-5.337
0.221,0.053,0.326,-5.337
0.163,0.053,0.326,-5.337
0.165,0.055,0.328,-5.337
0.217,0.053,0.327,-5.337
0.189,0.055,0.327,-5.337
0.170,0.055,0.326,-5.337
0.198,0.052,0.327,-5.337
0.213,0.051,0.326,-5.337
0.177,0.052,0.326,-5.337
0.151,0.054,0.327,-5.337
0.219,0.053,0.325,-5.337
0.241,0.053,0.323,-5.337
0.226,0.051,0.326,-5.337
0.170,0.052,0.328,-5.337
0.130,0.053,0.325,-5.337
0.157,0.055,0.326,-5.337
0.177,0.051,0.330,-5.337
0.238,0.052,0.332,-5.337
0.279,0.052,0.327,-5.337
0.322,0.051,0.325,-5.337
0.320,0.053,0.326,-5.337
0.217,0.055,0.328,-5.337
0.088,0.057,0.327,-5.337
0.074,0.056,0.326,-5.337
0.132,0.055,0.323,-5.337
0.244,0.055,0.322,-5.337
0.282,0.054,0.323,-5.337
0.243,0.051,0.328,-5.337
0.184,0.055,0.325,-5.337
0.139,0.061,0.324,-5.337
0.090,0.060,0.326,-5.337
0.084,0.057,0.327,-5.337
0.184,0.055,0.324,-5.337
0.196,0.054,0.320,-5.337
0.129,0.054,0.326,-5.337
0.146,0.060,0.329,-5.337
0.180,0.056,0.331,-5.337
0.172,0.054,0.330,-5.337
0.204,0.054,0.328,-5.337
0.242,0.051,0.327,-5.337
0.213,0.052,0.325,-5.337
0.173,0.054,0.321,-5.337
0.209,0.059,0.322,-5.337
0.167,0.061,0.321,-5.337
0.111,0.059,0.325,-5.337
0.168,0.054,0.326,-5.337
0.258,0.053,0.322,-5.337
0.245,0.056,0.322,-5.337
0.181,0.058,0.323,-5.337
0.207,0.054,0.322,-5.337
0.244,0.050,0.321,-5.337
0.189,0.052,0.319,-5.337
0.158,0.052,0.320,-5.337
0.210,0.050,0.325,-5.337
0.171,0.055,0.330,-5.337
0.110,0.057,0.331,-5.337
0.201,0.055,0.328,-5.337
0.264,0.056,0.326,-5.337
0.231,0.057,0.327,-5.337
0.177,0.056,0.323,-5.337
0.124,0.054,0.320,-5.337
0.138,0.054,0.322,-5.337
0.225,0.052,0.324,-5.337
0.243,0.053,0.324,-5.337
0.220,0.056,0.324,-5.337
0.168,0.061,0.323,-5.337
0.156,0.065,0.320,-5.337
0.121,0.064,0.319,-5.337
0.131,0.064,0.319,-5.337
0.145,0.061,0.320,-5.337
0.164,0.060,0.324,-5.337
0.163,0.059,0.328,-5.337
0.155,0.058,0.327,-5.337
0.131,0.060,0.324,-5.337
0.102,0.062,0.320,-5.337
0.122,0.059,0.320,-5.337
0.122,0.060,0.320,-5.337
0.135,0.062,0.319,-5.337
0.218,0.062,0.321,-5.337
0.252,0.063,0.323,-5.337
0.244,0.061,0.326,-5.337
0.249,0.059,0.323,-5.337
0.194,0.061,0.324,-5.337
0.073,0.064,0.326,-5.337
0.029,0.063,0.327,-5.337
0.070,0.061,0.326,-5.337
0.199,0.060,0.324,-5.337
0.222,0.061,0.322,-5.337
0.205,0.061,0.323,-5.337
0.267,0.061,0.327,-5.337
0.268,0.061,0.325,-5.337
0.276,0.057,0.322,-5.337
0.210,0.060,0.321,-5.337
0.231,0.058,0.323,-5.337
0.259,0.058,0.326,-5.337
0.192,0.061,0.324,-5.337
0.179,0.060,0.322,-5.337
0.192,0.063,0.323,-5.337
0.178,0.066,0.322,-5.337
0.208,0.064,0.322,-5.337
0.183,0.065,0.321,-5.337
0.179,0.063,0.322,-5.337
0.201,0.061,0.324,-5.337
0.190,0.063,0.328,-5.337
0.243,0.060,0.327,-5.337
0.258,0.059,0.325,-5.337
0.252,0.060,0.323,-5.337
0.191,0.062,0.324,-5.337
0.098,0.059,0.321,-5.337
0.127,0.060,0.320,-5.337
0.229,0.060,0.319,-5.337
0.300,0.062,0.319,-5.337
0.356,0.059,0.317,-5.337
0.356,0.059,0.318,-5.337
0.225,0.060,0.322,-5.337
0.136,0.060,0.328,-5.337
0.161,0.063,0.332,-5.337
0.173,0.064,0.331,-5.337
0.178,0.059,0.325,-5.337
0.182,0.056,0.323,-5.337
0.200,0.057,0.324,-5.337
0.159,0.061,0.324,-5.337
0.094,0.058,0.323,-5.337
0.113,0.057,0.321,-5.337
0.106,0.058,0.323,-5.337
0.085,0.058,0.322,-5.337
0.148,0.052,0.321,-5.337
0.274,0.050,0.322,-5.337
0.210,0.058,0.324,-5.337
0.096,0.059,0.323,-5.337
0.162,0.056,0.322,-5.337
0.272,0.054,0.321,-5.337
0.341,0.051,0.325,-5.337
0.313,0.052,0.325,-5.337
0.263,0.052,0.321,-5.337
0.229,0.049,0.318,-5.337
0.225,0.052,0.319,-5.337
0.195,0.051,0.320,-5.337
0.261,0.050,0.320,-5.337
0.298,0.046,0.319,-5.337
0.233,0.046,0.322,-5.337
0.174,0.045,0.326,-5.337
0.171,0.047,0.328,-5.337
0.186,0.048,0.326,-5.337
0.156,0.049,0.323,-5.337
0.160,0.051,0.323,-5.337
0.152,0.053,0.323,-5.337
0.117,0.051,0.324,-5.337
0.110,0.049,0.322,-5.337
0.118,0.049,0.321,-5.337
0.147,0.053,0.319,-5.337
0.193,0.048,0.323,-5.337
0.236,0.048,0.325,-5.337
0.220,0.048,0.327,-5.337
0.302,0.048,0.325,-5.337
0.309,0.047,0.325,-5.337
0.232,0.047,0.327,-5.337
0.216,0.045,0.326,-5.337
0.228,0.044,0.324,-5.337
0.211,0.047,0.326,-5.337
0.184,0.049,0.326,-5.337
0.151,0.047,0.326,-5.337
0.171,0.044,0.322,-5.337
0.183,0.045,0.317,-5.337
0.240,0.047,0.320,-5.337
0.285,0.043,0.324,-5.337
0.298,0.042,0.325,-5.337
0.241,0.048,0.322,-5.337
0.158,0.052,0.321,-5.337
0.116,0.049,0.321,-5.337
0.178,0.047,0.320,-5.337
0.187,0.048,0.320,-5.337
0.201,0.048,0.323,-5.337
0.225,0.049,0.326,-5.337
0.166,0.051,0.326,-5.337
0.133,0.051,0.325,-5.337
0.142,0.052,0.324,-5.337
0.167,0.050,0.322,-5.337
0.177,0.046,0.322,-5.337
0.177,0.045,0.325,-5.337
0.154,0.045,0.327,-5.337
0.123,0.048,0.323,-5.337
0.205,0.044,0.321,-5.337
0.218,0.044,0.322,-5.337
0.191,0.041,0.323,-5.337
0.193,0.039,0.321,-5.337
0.149,0.041,0.322,-5.337
0.153,0.044,0.325,-5.337
0.175,0.046,0.323,-5.337
0.206,0.044,0.319,-5.337
0.276,0.045,0.322,-5.337
0.212,0.044,0.324,-5.337
0.215,0.043,0.326,-5.337
0.274,0.043,0.328,-5.337
0.296,0.039,0.324,-5.337
0.294,0.038,0.326,-5.337
0.223,0.040,0.329,-5.337
0.144,0.042,0.332,-5.337
0.145,0.039,0.326,-5.337
0.158,0.040,0.322,-5.337
0.155,0.040,0.319,-5.337
0.221,0.039,0.321,-5.337
0.295,0.038,0.326,-5.337
0.235,0.041,0.327,-5.337
0.178,0.038,0.330,-5.337
0.191,0.042,0.328,-5.337
0.207,0.041,0.324,-5.337
0.192,0.040,0.323,-5.337
0.224,0.039,0.322,-5.337
0.270,0.038,0.321,-5.337
0.239,0.042,0.319,-5.337
0.182,0.044,0.320,-5.337
0.193,0.042,0.322,-5.337
0.154,0.042,0.326,-5.337
0.125,0.043,0.325,-5.337
0.220,0.040,0.324,-5.337
0.249,0.039,0.326,-5.337
0.204,0.039,0.320,-5.337
0.134,0.041,0.321,-5.337
0.150,0.041,0.324,-5.337
0.221,0.043,0.325,-5.337
0.295,0.041,0.326,-5.337
0.269,0.043,0.327,-5.337
0.201,0.042,0.327,-5.337
0.169,0.041,0.329,-5.337
0.099,0.041,0.328,-5.337
0.209,0.039,0.327,-5.337
0.332,0.037,0.324,-5.337
0.298,0.039,0.324,-5.337
0.182,0.039,0.323,-5.337
0.222,0.036,0.324,-5.337
0.308,0.031,0.323,-5.337
0.287,0.036,0.322,-5.337
0.241,0.037,0.323,-5.337
0.228,0.036,0.325,-5.337
0.279,0.032,0.326,-5.337
0.282,0.032,0.326,-5.337
0.196,0.035,0.327,-5.337
0.229,0.033,0.324,-5.337
0.254,0.036,0.325,-5.337
0.187,0.041,0.326,-5.337
0.119,0.039,0.326,-5.337
0.150,0.043,0.327,-5.337
0.176,0.041,0.326,-5.337
0.176,0.038,0.322,-5.337
0.195,0.038,0.321,-5.337
0.254,0.039,0.321,-5.337
0.236,0.039,0.325,-5.337
0.220,0.040,0.321,-5.337
0.229,0.039,0.320,-5.337
0.265,0.038,0.325,-5.337
0.253,0.040,0.326,-5.337
0.172,0.042,0.327,-5.337
0.120,0.041,0.326,-5.337
0.092,0.040,0.322,-5.337
0.024,0.041,0.321,-5.337
0.143,0.039,0.322,-5.337
0.219,0.042,0.322,-5.337
0.182,0.043,0.325,-5.337
0.173,0.040,0.328,-5.337
0.215,0.035,0.331,-5.337
0.258,0.035,0.330,-5.337
0.250,0.037,0.328,-5.337
0.204,0.039,0.328,-5.337
0.238,0.036,0.328,-5.337
0.245,0.035,0.324,-5.337
0.179,0.038,0.322,-5.337
0.188,0.035,0.315,-5.337
0.255,0.033,0.316,-5.337
0.204,0.032,0.319,-5.337
0.200,0.034,0.321,-5.337
0.269,0.033,0.318,-5.337
0.338,0.030,0.319,-5.337
0.307,0.030,0.322,-5.337
0.252,0.035,0.321,-5.337
0.197,0.034,0.324,-5.337
0.186,0.029,0.327,-5.337
0.205,0.029,0.328,-5.337
0.144,0.031,0.328,-5.337
0.128,0.034,0.327,-5.337
0.142,0.034,0.327,-5.337
0.218,0.031,0.322,-5.337
0.291,0.031,0.321,-5.337
0.271,0.031,0.319,-5.337
0.254,0.033,0.320,-5.337
0.262,0.031,0.325,-5.337
0.238,0.030,0.328,-5.337
0.169,0.033,0.330,-5.337
0.202,0.030,0.326,-5.337
0.206,0.030,0.324,-5.337
0.242,0.029,0.325,-5.337
0.213,0.035,0.326,-5.337
0.153,0.036,0.323,-5.337
0.152,0.035,0.320,-5.337
0.134,0.036,0.319,-5.337
0.164,0.036,0.324,-5.337
0.141,0.033,0.326,-5.337
0.170,0.034,0.324,-5.337
0.169,0.033,0.324,-5.337
0.128,0.038,0.325,-5.337
0.132,0.035,0.324,-5.337
0.181,0.031,0.326,-5.337
0.245,0.029,0.324,-5.337
0.289,0.031,0.324,-5.337
0.281,0.034,0.327,-5.337
0.232,0.036,0.329,-5.337
0.262,0.031,0.326,-5.337
0.327,0.032,0.320,-5.337
0.299,0.034,0.321,-5.337
0.221,0.034,0.323,-5.337
0.197,0.033,0.323,-5.337
0.201,0.031,0.322,-5.337
0.210,0.034,0.323,-5.337
0.224,0.039,0.321,-5.337
0.206,0.043,0.320,-5.337
0.116,0.043,0.320,-5.337
0.145,0.038,0.324,-5.337
0.211,0.036,0.327,-5.337
0.228,0.038,0.329,-5.337
0.210,0.036,0.323,-5.337
0.239,0.034,0.319,-5.337
0.316,0.032,0.321,-5.337
0.277,0.032,0.324,-5.337
0.176,0.033,0.325,-5.337
0.288,0.030,0.323,-5.337
0.389,0.030,0.323,-5.337
0.265,0.036,0.326,-5.337
0.169,0.036,0.324,-5.337
0.205,0.034,0.323,-5.337
0.127,0.035,0.327,-5.337
0.104,0.036,0.324,-5.337
0.149,0.037,0.320,-5.337
0.155,0.038,0.319,-5.337
0.101,0.041,0.327,-5.337
0.102,0.040,0.327,-5.337
0.146,0.042,0.322,-5.337
0.215,0.041,0.319,-5.337
0.250,0.032,0.319,-5.337
0.194,0.030,0.322,-5.337
0.222,0.032,0.324,-5.337
0.269,0.034,0.324,-5.337
0.211,0.034,0.320,-5.337
0.199,0.032,0.318,-5.337
0.272,0.030,0.318,-5.337
0.302,0.030,0.321,-5.337
0.253,0.033,0.323,-5.337
0.194,0.036,0.323,-5.337
0.091,0.037,0.323,-5.337
0.110,0.036,0.325,-5.337
0.142,0.036,0.324,-5.337
0.164,0.038,0.325,-5.337
0.173,0.034,0.325,-5.337
0.168,0.032,0.327,-5.337
0.194,0.035,0.323,-5.337
0.181,0.040,0.324,-5.337
0.172,0.036,0.327,-5.337
0.212,0.033,0.327,-5.337
0.262,0.033,0.322,-5.337
0.284,0.037,0.322,-5.337
0.210,0.040,0.322,-5.337
0.226,0.037,0.325,-5.337
0.252,0.033,0.328,-5.337
0.261,0.033,0.328,-5.337
0.234,0.033,0.325,-5.337
0.174,0.034,0.320,-5.337
0.180,0.033,0.314,-5.337
0.224,0.033,0.319,-5.337
0.242,0.032,0.326,-5.337
0.239,0.033,0.324,-5.337
0.188,0.032,0.321,-5.337
0.181,0.036,0.322,-5.337
0.191,0.041,0.324,-5.337
0.146,0.037,0.327,-5.337
0.161,0.029,0.325,-5.337
0.190,0.030,0.325,-5.337
0.122,0.033,0.322,-5.337
0.097,0.035,0.319,-5.337
0.136,0.031,0.318,-5.337
0.192,0.030,0.317,-5.337
0.226,0.030,0.319,-5.337
0.238,0.031,0.322,-5.337
0.258,0.032,0.324,-5.337
0.250,0.033,0.321,-5.337
0.219,0.033,0.322,-5.337
0.201,0.031,0.322,-5.337
0.182,0.035,0.325,-5.337
0.179,0.039,0.324,-5.337
0.183,0.039,0.321,-5.337
0.164,0.039,0.321,-5.337
0.180,0.037,0.323,-5.337
0.157,0.039,0.325,-5.337
0.137,0.043,0.326,-5.337
0.165,0.042,0.324,-5.337
0.185,0.041,0.326,-5.337
0.217,0.039,0.327,-5.337
0.222,0.038,0.330,-5.337
0.205,0.039,0.331,-5.337
0.231,0.040,0.326,-5.337
0.298,0.037,0.319,-5.337
0.241,0.039,0.318,-5.337
0.192,0.041,0.321,-5.337
0.203,0.043,0.322,-5.337
0.286,0.039,0.324,-5.337
0.285,0.038,0.324,-5.337
0.247,0.040,0.324,-5.337
0.172,0.043,0.320,-5.337
0.120,0.042,0.315,-5.337
0.109,0.042,0.315,-5.337
0.101,0.045,0.321,-5.337
0.076,0.046,0.328,-5.337
0.189,0.043,0.328,-5.337
0.307,0.041,0.325,-5.337
0.281,0.043,0.326,-5.337
0.167,0.046,0.326,-5.337
0.131,0.043,0.324,-5.337
0.203,0.042,0.323,-5.337
0.244,0.046,0.324,-5.337
0.315,0.043,0.320,-5.337
0.300,0.040,0.317,-5.337
0.204,0.040,0.321,-5.337
0.118,0.042,0.326,-5.337
0.042,0.044,0.329,-5.337
0.053,0.045,0.330,-5.337
0.212,0.042,0.326,-5.337
0.298,0.040,0.319,-5.337
0.212,0.041,0.318,-5.337
0.164,0.041,0.323,-5.337
0.215,0.040,0.324,-5.337
0.233,0.040,0.324,-5.337
0.242,0.040,0.325,-5.337
0.256,0.045,0.320,-5.337
0.175,0.048,0.316,-5.337
0.150,0.043,0.319,-5.337
0.138,0.042,0.323,-5.337
0.189,0.043,0.324,-5.337
0.155,0.047,0.323,-5.337
0.156,0.048,0.323,-5.337
0.178,0.048,0.320,-5.337
0.118,0.051,0.318,-5.337
0.082,0.048,0.322,-5.337
0.057,0.047,0.325,-5.337
0.127,0.049,0.324,-5.337
0.213,0.048,0.323,-5.337
0.188,0.050,0.321,-5.337
0.173,0.049,0.321,-5.337
0.143,0.049,0.324,-5.337
0.171,0.047,0.328,-5.337
0.180,0.046,0.328,-5.337
0.125,0.050,0.327,-5.337
0.153,0.044,0.322,-5.337
0.219,0.042,0.322,-5.337
0.246,0.040,0.321,-5.337
0.236,0.041,0.321,-5.337
0.201,0.046,0.321,-5.337
0.175,0.048,0.320,-5.337
0.188,0.047,0.321,-5.337
0.143,0.048,0.325,-5.337
0.167,0.048,0.324,-5.337
0.240,0.048,0.321,-5.337
0.204,0.046,0.324,-5.337
0.205,0.045,0.326,-5.337
0.204,0.047,0.327,-5.337
0.142,0.049,0.326,-5.337
0.134,0.046,0.326,-5.337
0.116,0.048,0.325,-5.337
0.101,0.047,0.324,-5.337
0.169,0.048,0.325,-5.337
0.271,0.046,0.325,-5.337
0.255,0.046,0.322,-5.337
0.195,0.045,0.317,-5.337
0.154,0.048,0.314,-5.337
0.172,0.050,0.319,-5.337
0.198,0.048,0.321,-5.337
0.169,0.048,0.322,-5.337
0.133,0.049,0.322,-5.337
0.138,0.047,0.322,-5.337
0.206,0.046,0.319,-5.337
0.222,0.050,0.317,-5.337
0.213,0.048,0.322,-5.337
0.213,0.048,0.326,-5.337
0.163,0.050,0.329,-5.337
0.162,0.050,0.330,-5.337
0.229,0.047,0.328,-5.337
0.258,0.048,0.327,-5.337
0.233,0.050,0.325,-5.337
0.182,0.052,0.325,-5.337
0.108,0.054,0.324,-5.337
0.066,0.056,0.321,-5.337
0.111,0.052,0.320,-5.337
0.180,0.050,0.321,-5.337
0.159,0.054,0.322,-5.337
0.107,0.054,0.322,-5.337
0.042,0.052,0.325,-5.337
0.063,0.054,0.326,-5.337
0.114,0.058,0.322,-5.337
0.114,0.060,0.320,-5.337
0.083,0.057,0.320,-5.337
0.151,0.054,0.322,-5.337
0.247,0.050,0.327,-5.337
0.290,0.053,0.327,-5.337
0.280,0.055,0.326,-5.337
0.259,0.054,0.326,-5.337
0.179,0.054,0.325,-5.337
0.155,0.051,0.324,-5.337
0.155,0.052,0.322,-5.337
0.113,0.054,0.323,-5.337
0.082,0.054,0.325,-5.337
0.118,0.053,0.324,-5.337
0.151,0.052,0.322,-5.337
0.171,0.055,0.324,-5.337
0.207,0.052,0.325,-5.337
0.228,0.052,0.323,-5.337
0.178,0.052,0.324,-5.337
0.126,0.052,0.327,-5.337
0.155,0.052,0.326,-5.337
0.222,0.048,0.325,-5.337
0.207,0.048,0.322,-5.337
0.125,0.052,0.324,-5.337
0.122,0.050,0.323,-5.337
0.255,0.051,0.320,-5.337
0.280,0.050,0.316,-5.337
0.200,0.054,0.317,-5.337
0.142,0.056,0.318,-5.337
0.118,0.054,0.317,-5.337
0.113,0.053,0.318,-5.337
0.162,0.048,0.323,-5.337
0.169,0.051,0.325,-5.337
0.170,0.052,0.325,-5.337
0.214,0.050,0.324,-5.337
0.231,0.054,0.322,-5.337
0.140,0.055,0.323,-5.337
0.164,0.057,0.327,-5.337
0.237,0.054,0.326,-5.337
0.222,0.054,0.324,-5.337
0.204,0.057,0.321,-5.337
0.218,0.060,0.322,-5.337
0.195,0.060,0.323,-5.337
0.200,0.057,0.321,-5.337
0.177,0.059,0.319,-5.337
0.112,0.060,0.315,-5.337
-0.003,0.060,0.317,-5.337
0.077,0.060,0.321,-5.337
0.161,0.059,0.323,-5.337
0.178,0.057,0.324,-5.337
0.186,0.059,0.324,-5.337
0.146,0.057,0.325,-5.337
0.124,0.056,0.325,-5.337
0.147,0.053,0.321,-5.337
0.167,0.054,0.318,-5.337
0.221,0.049,0.320,-5.337
0.201,0.050,0.325,-5.337
0.153,0.051,0.325,-5.337
0.265,0.051,0.326,-5.337
0.265,0.053,0.324,-5.337
0.175,0.055,0.321,-5.337
0.135,0.056,0.318,-5.337
0.217,0.053,0.320,-5.337
0.270,0.054,0.322,-5.337
0.207,0.060,0.317,-5.337
0.201,0.055,0.318,-5.337
0.239,0.052,0.319,-5.337
0.237,0.052,0.324,-5.337
0.253,0.057,0.328,-5.337
0.201,0.060,0.326,-5.337
0.131,0.056,0.323,-5.337
0.165,0.054,0.327,-5.337
0.196,0.054,0.330,-5.337
0.257,0.060,0.327,-5.337
0.201,0.060,0.320,-5.337
0.170,0.058,0.320,-5.337
0.212,0.054,0.323,-5.337
0.207,0.055,0.323,-5.337
0.142,0.056,0.322,-5.337
0.128,0.058,0.324,-5.337
0.199,0.057,0.324,-5.337
0.198,0.059,0.321,-5.337
0.170,0.057,0.320,-5.337
0.188,0.057,0.321,-5.337
0.188,0.058,0.321,-5.337
0.098,0.062,0.320,-5.337
0.087,0.057,0.319,-5.337
0.190,0.056,0.321,-5.337
0.212,0.055,0.320,-5.337
0.164,0.056,0.316,-5.337
0.115,0.057,0.322,-5.337
0.128,0.055,0.325,-5.337
0.121,0.054,0.326,-5.337
0.132,0.053,0.322,-5.337
0.183,0.053,0.320,-5.337
0.259,0.049,0.319,-5.337
0.238,0.052,0.319,-5.337
0.150,0.055,0.322,-5.337
0.146,0.056,0.327,-5.337
0.194,0.055,0.326,-5.337
0.206,0.057,0.321,-5.337
0.227,0.057,0.322,-5.337
0.167,0.058,0.323,-5.337
0.140,0.056,0.323,-5.337
0.162,0.054,0.321,-5.337
0.192,0.053,0.320,-5.337
0.183,0.056,0.320,-5.337
0.196,0.053,0.321,-5.337
0.187,0.053,0.320,-5.337
0.191,0.056,0.319,-5.337
0.180,0.055,0.318,-5.337
0.196,0.052,0.320,-5.337
0.175,0.055,0.318,-5.337
0.100,0.056,0.319,-5.337
0.168,0.052,0.320,-5.337
0.265,0.050,0.319,-5.337
0.281,0.052,0.315,-5.337
0.263,0.057,0.319,-5.337
0.212,0.058,0.322,-5.337
0.157,0.062,0.317,-5.337
0.157,0.059,0.318,-5.337
0.148,0.058,0.323,-5.337
0.156,0.058,0.328,-5.337
0.184,0.058,0.331,-5.337
0.181,0.057,0.327,-5.337
0.218,0.054,0.322,-5.337
0.261,0.056,0.319,-5.337
0.301,0.055,0.317,-5.337
0.283,0.054,0.312,-5.337
0.239,0.053,0.312,-5.337
0.283,0.052,0.320,-5.337
0.357,0.053,0.325,-5.337
0.284,0.054,0.325,-5.337
0.180,0.056,0.323,-5.337
0.244,0.053,0.321,-5.337
0.264,0.055,0.319,-5.337
0.202,0.055,0.321,-5.337
0.170,0.052,0.322,-5.337
0.175,0.055,0.321,-5.337
0.172,0.052,0.320,-5.337
0.109,0.055,0.320,-5.337
0.105,0.051,0.320,-5.337
0.140,0.051,0.323,-5.337
0.143,0.050,0.322,-5.337
0.101,0.052,0.321,-5.337
0.090,0.052,0.319,-5.337
0.088,0.053,0.319,-5.337
0.147,0.052,0.320,-5.337
0.138,0.055,0.319,-5.337
0.097,0.052,0.319,-5.337
0.180,0.050,0.322,-5.337
0.270,0.049,0.326,-5.337
0.237,0.052,0.326,-5.337
0.132,0.053,0.326,-5.337
0.025,0.050,0.325,-5.337
0.055,0.050,0.324,-5.337
0.159,0.045,0.320,-5.337
0.234,0.042,0.320,-5.337
0.266,0.042,0.321,-5.337
0.205,0.046,0.325,-5.337
0.142,0.044,0.323,-5.337
0.192,0.040,0.323,-5.337
0.279,0.042,0.322,-5.337
0.258,0.047,0.324,-5.337
0.220,0.044,0.322,-5.337
0.227,0.043,0.318,-5.337
0.281,0.040,0.317,-5.337
0.251,0.039,0.317,-5.337
0.221,0.042,0.319,-5.337
0.147,0.046,0.324,-5.337
0.183,0.045,0.325,-5.337
0.262,0.045,0.324,-5.337
0.211,0.045,0.326,-5.337
0.196,0.041,0.326,-5.337
0.163,0.041,0.324,-5.337
0.146,0.044,0.320,-5.337
0.149,0.045,0.323,-5.337
0.174,0.044,0.326,-5.337
0.192,0.045,0.326,-5.337
0.202,0.047,0.323,-5.337
0.225,0.048,0.322,-5.337
0.228,0.047,0.323,-5.337
0.214,0.048,0.323,-5.337
0.126,0.045,0.321,-5.337
0.085,0.047,0.319,-5.337
0.107,0.045,0.321,-5.337
0.110,0.048,0.326,-5.337
0.157,0.046,0.327,-5.337
0.191,0.043,0.325,-5.337
0.225,0.043,0.323,-5.337
0.251,0.044,0.323,-5.337
0.267,0.043,0.323,-5.337
0.249,0.039,0.321,-5.337
0.227,0.037,0.320,-5.337
0.208,0.038,0.320,-5.337
0.207,0.043,0.322,-5.337
0.198,0.040,0.320,-5.337
0.189,0.037,0.319,-5.337
0.189,0.038,0.319,-5.337
0.166,0.040,0.326,-5.337
0.156,0.038,0.327,-5.337
0.130,0.035,0.324,-5.337
0.162,0.036,0.320,-5.337
0.187,0.039,0.325,-5.337
0.167,0.039,0.328,-5.337
0.231,0.039,0.329,-5.337
0.269,0.040,0.325,-5.337
0.242,0.044,0.321,-5.337
0.199,0.042,0.322,-5.337
0.152,0.041,0.326,-5.337
0.119,0.037,0.323,-5.337
0.149,0.039,0.321,-5.337
0.194,0.036,0.322,-5.337
0.212,0.038,0.321,-5.337
0.228,0.036,0.320,-5.337
0.217,0.036,0.323,-5.337
0.238,0.036,0.326,-5.337
0.183,0.038,0.321,-5.337
0.135,0.037,0.320,-5.337
0.108,0.038,0.322,-5.337
0.203,0.037,0.327,-5.337
0.285,0.038,0.325,-5.337
0.285,0.037,0.322,-5.337
0.167,0.038,0.320,-5.337
0.043,0.037,0.320,-5.337
0.108,0.039,0.321,-5.337
0.207,0.040,0.322,-5.337
0.186,0.039,0.321,-5.337
0.154,0.039,0.322,-5.337
0.183,0.042,0.323,-5.337
0.228,0.041,0.323,-5.337
0.260,0.039,0.324,-5.337
0.275,0.036,0.325,-5.337
0.218,0.036,0.324,-5.337
0.166,0.035,0.324,-5.337
0.106,0.037,0.325,-5.337
0.075,0.042,0.324,-5.337
0.170,0.041,0.322,-5.337
0.264,0.038,0.320,-5.337
0.261,0.038,0.324,-5.337
0.174,0.041,0.325,-5.337
0.225,0.040,0.323,-5.337
0.265,0.039,0.318,-5.337
0.222,0.038,0.315,-5.337
0.156,0.041,0.320,-5.337
0.168,0.037,0.323,-5.337
0.220,0.035,0.319,-5.337
0.232,0.033,0.318,-5.337
0.168,0.037,0.320,-5.337
0.158,0.039,0.325,-5.337
0.154,0.041,0.325,-5.337
0.154,0.040,0.325,-5.337
0.259,0.036,0.323,-5.337
0.209,0.037,0.324,-5.337
0.201,0.033,0.327,-5.337
0.246,0.033,0.329,-5.337
0.312,0.031,0.326,-5.337
0.289,0.034,0.324,-5.337
0.220,0.037,0.324,-5.337
0.259,0.036,0.325,-5.337
0.273,0.035,0.327,-5.337
0.242,0.035,0.331,-5.337
0.256,0.038,0.329,-5.337
0.203,0.036,0.325,-5.337
0.186,0.035,0.320,-5.337
0.269,0.032,0.319,-5.337
0.253,0.034,0.321,-5.337
0.173,0.039,0.321,-5.337
0.148,0.038,0.324,-5.337
0.180,0.037,0.323,-5.337
0.230,0.034,0.324,-5.337
0.233,0.034,0.324,-5.337
0.158,0.036,0.326,-5.337
0.132,0.037,0.324,-5.337
0.119,0.039,0.322,-5.337
0.176,0.036,0.321,-5.337
0.282,0.035,0.322,-5.337
0.277,0.035,0.322,-5.337
0.203,0.037,0.323,-5.337
0.215,0.037,0.321,-5.337
0.208,0.038,0.323,-5.337
0.203,0.037,0.325,-5.337
0.199,0.037,0.323,-5.337
0.185,0.037,0.322,-5.337
0.207,0.039,0.325,-5.337
0.148,0.039,0.328,-5.337
0.090,0.038,0.327,-5.337
0.175,0.035,0.325,-5.337
0.219,0.037,0.326,-5.337
0.164,0.036,0.326,-5.337
0.146,0.037,0.323,-5.337
0.193,0.037,0.323,-5.337
0.242,0.036,0.320,-5.337
0.253,0.036,0.323,-5.337
0.244,0.036,0.326,-5.337
0.229,0.037,0.331,-5.337
0.256,0.037,0.330,-5.337
0.223,0.038,0.324,-5.337
0.211,0.040,0.317,-5.337
0.215,0.039,0.317,-5.337
0.234,0.035,0.321,-5.337
0.197,0.037,0.322,-5.337
0.208,0.036,0.322,-5.337
0.197,0.037,0.323,-5.337
0.168,0.035,0.324,-5.337
0.235,0.038,0.324,-5.337
0.256,0.039,0.325,-5.337
0.157,0.040,0.326,-5.337
0.090,0.041,0.324,-5.337
0.122,0.041,0.323,-5.337
0.109,0.041,0.322,-5.337
0.117,0.035,0.321,-5.337
0.186,0.029,0.321,-5.337
0.219,0.030,0.322,-5.337
0.197,0.034,0.328,-5.337
0.141,0.036,0.328,-5.337
0.107,0.034,0.325,-5.337
0.167,0.035,0.322,-5.337
0.212,0.035,0.323,-5.337
0.235,0.036,0.322,-5.337
0.246,0.036,0.322,-5.337
0.230,0.037,0.323,-5.337
0.207,0.039,0.324,-5.337
0.246,0.038,0.320,-5.337
0.314,0.039,0.322,-5.337
0.282,0.037,0.324,-5.337
0.199,0.039,0.322,-5.337
0.154,0.038,0.321,-5.337
0.233,0.039,0.322,-5.337
0.261,0.037,0.321,-5.337
0.201,0.038,0.323,-5.337
0.128,0.038,0.327,-5.337
0.186,0.038,0.327,-5.337
0.231,0.038,0.327,-5.337
0.186,0.040,0.327,-5.337
0.200,0.037,0.326,-5.337
0.236,0.038,0.325,-5.337
0.180,0.041,0.325,-5.337
0.157,0.041,0.326,-5.337
0.216,0.039,0.326,-5.337
0.300,0.036,0.321,-5.337
0.307,0.039,0.320,-5.337
0.190,0.040,0.318,-5.337
0.131,0.042,0.318,-5.337
0.182,0.040,0.321,-5.337
0.219,0.040,0.326,-5.337
0.220,0.040,0.324,-5.337
0.339,0.039,0.320,-5.337
0.382,0.037,0.320,-5.337
0.263,0.036,0.324,-5.337
0.174,0.034,0.327,-5.337
0.152,0.039,0.325,-5.337
0.216,0.039,0.322,-5.337
0.288,0.037,0.321,-5.337
0.251,0.034,0.321,-5.337
0.165,0.038,0.324,-5.337
0.039,0.041,0.325,-5.337
0.043,0.038,0.325,-5.337
0.089,0.037,0.326,-5.337
0.120,0.038,0.322,-5.337
0.138,0.040,0.325,-5.337
0.180,0.040,0.324,-5.337
0.210,0.038,0.319,-5.337
0.209,0.036,0.318,-5.337
0.219,0.037,0.322,-5.337
0.212,0.038,0.324,-5.337
0.229,0.037,0.324,-5.337
0.209,0.037,0.323,-5.337
0.201,0.036,0.322,-5.337
0.201,0.033,0.321,-5.337
0.224,0.035,0.324,-5.337
0.178,0.033,0.324,-5.337
0.195,0.035,0.320,-5.337
0.227,0.037,0.320,-5.337
0.190,0.038,0.323,-5.337
0.162,0.037,0.322,-5.337
0.179,0.035,0.321,-5.337
0.168,0.036,0.319,-5.337
0.227,0.037,0.320,-5.337
0.253,0.036,0.324,-5.337
0.209,0.035,0.323,-5.337
0.110,0.035,0.321,-5.337
0.080,0.036,0.316,-5.337
0.069,0.038,0.317,-5.337
0.118,0.035,0.320,-5.337
0.202,0.035,0.323,-5.337
0.220,0.035,0.320,-5.337
0.169,0.037,0.320,-5.337
0.123,0.032,0.320,-5.337
0.147,0.034,0.321,-5.337
0.194,0.034,0.319,-5.337
0.175,0.036,0.321,-5.337
0.152,0.033,0.326,-5.337
0.252,0.032,0.322,-5.337
0.264,0.033,0.319,-5.337
0.228,0.038,0.319,-5.337
0.204,0.038,0.318,-5.337
0.171,0.039,0.319,-5.337
0.166,0.039,0.321,-5.337
0.168,0.041,0.324,-5.337
0.129,0.039,0.322,-5.337
0.165,0.036,0.319,-5.337
0.210,0.034,0.320,-5.337
0.225,0.036,0.324,-5.337
0.280,0.037,0.324,-5.337
0.239,0.038,0.322,-5.337
0.175,0.038,0.326,-5.337
0.216,0.034,0.326,-5.337
0.238,0.036,0.327,-5.337
0.212,0.038,0.323,-5.337
0.164,0.038,0.317,-5.337
0.213,0.037,0.315,-5.337
0.195,0.040,0.317,-5.337
0.203,0.043,0.320,-5.337
0.221,0.047,0.324,-5.337
0.181,0.046,0.328,-5.337
0.065,0.047,0.328,-5.337
0.136,0.041,0.322,-5.337
0.253,0.041,0.319,-5.337
0.237,0.045,0.321,-5.337
0.280,0.046,0.324,-5.337
0.360,0.040,0.327,-5.337
0.348,0.041,0.325,-5.337
0.254,0.046,0.322,-5.337
0.097,0.049,0.320,-5.337
0.082,0.046,0.318,-5.337
0.163,0.046,0.317,-5.337
0.137,0.048,0.320,-5.337
0.128,0.049,0.325,-5.337
0.205,0.044,0.328,-5.337
0.265,0.038,0.327,-5.337
0.244,0.038,0.326,-5.337
0.151,0.045,0.324,-5.337
0.162,0.047,0.321,-5.337
0.195,0.044,0.316,-5.337
0.192,0.041,0.317,-5.337
0.263,0.040,0.321,-5.337
0.269,0.043,0.324,-5.337
0.227,0.045,0.319,-5.337
0.195,0.044,0.321,-5.337
0.277,0.041,0.325,-5.337
0.207,0.042,0.323,-5.337
0.056,0.046,0.324,-5.337
0.082,0.043,0.327,-5.337
0.128,0.041,0.326,-5.337
0.137,0.039,0.323,-5.337
0.188,0.040,0.320,-5.337
0.232,0.045,0.319,-5.337
0.192,0.046,0.320,-5.337
0.129,0.047,0.323,-5.337
0.187,0.045,0.327,-5.337
0.207,0.044,0.328,-5.337
0.225,0.044,0.327,-5.337
0.180,0.048,0.319,-5.337
0.115,0.046,0.318,-5.337
0.099,0.044,0.322,-5.337
0.118,0.047,0.328,-5.337
0.082,0.051,0.327,-5.337
0.054,0.052,0.323,-5.337
0.130,0.050,0.319,-5.337
0.158,0.053,0.320,-5.337
0.108,0.053,0.322,-5.337
0.110,0.053,0.324,-5.337
0.190,0.048,0.325,-5.337
0.229,0.046,0.326,-5.337
0.204,0.043,0.323,-5.337
0.176,0.045,0.322,-5.337
0.180,0.050,0.324,-5.337
0.110,0.054,0.326,-5.337
0.119,0.051,0.328,-5.337
0.219,0.049,0.329,-5.337
0.209,0.051,0.325,-5.337
0.181,0.051,0.320,-5.337
0.210,0.049,0.317,-5.337
0.237,0.047,0.318,-5.337
0.258,0.047,0.322,-5.337
0.202,0.043,0.323,-5.337
0.139,0.044,0.322,-5.337
0.159,0.049,0.318,-5.337
0.146,0.050,0.319,-5.337
0.196,0.047,0.320,-5.337
0.264,0.049,0.322,-5.337
0.202,0.050,0.318,-5.337
0.164,0.052,0.317,-5.337
0.156,0.054,0.318,-5.337
0.124,0.052,0.323,-5.337
0.201,0.050,0.327,-5.337
0.196,0.051,0.327,-5.337
0.156,0.051,0.324,-5.337
0.248,0.050,0.322,-5.337
0.309,0.050,0.320,-5.337
0.212,0.052,0.319,-5.337
0.176,0.052,0.320,-5.337
0.200,0.054,0.323,-5.337
0.214,0.051,0.324,-5.337
0.192,0.052,0.324,-5.337
0.115,0.053,0.323,-5.337
0.095,0.052,0.323,-5.337
0.146,0.048,0.323,-5.337
0.165,0.051,0.321,-5.337
0.107,0.052,0.322,-5.337
0.154,0.050,0.321,-5.337
0.172,0.053,0.323,-5.337
0.104,0.053,0.322,-5.337
0.068,0.049,0.325,-5.337
0.163,0.046,0.324,-5.337
0.170,0.049,0.321,-5.337
0.139,0.048,0.318,-5.337
0.200,0.046,0.317,-5.337
0.240,0.046,0.319,-5.337
0.245,0.049,0.320,-5.337
0.265,0.046,0.319,-5.337
0.335,0.046,0.318,-5.337
0.268,0.049,0.323,-5.337
0.254,0.046,0.329,-5.337
0.262,0.047,0.330,-5.337
0.269,0.048,0.326,-5.337
0.260,0.052,0.321,-5.337
0.243,0.051,0.319,-5.337
0.209,0.049,0.317,-5.337
0.170,0.051,0.316,-5.337
0.153,0.056,0.319,-5.337
0.146,0.057,0.324,-5.337
0.154,0.056,0.329,-5.337
0.100,0.054,0.325,-5.337
0.031,0.058,0.321,-5.337
0.115,0.054,0.318,-5.337
0.242,0.055,0.318,-5.337
0.255,0.055,0.319,-5.337
0.186,0.060,0.325,-5.337
0.068,0.063,0.328,-5.337
0.114,0.055,0.328,-5.337
0.238,0.053,0.326,-5.337
0.241,0.055,0.324,-5.337
0.211,0.056,0.323,-5.337
0.207,0.060,0.321,-5.337
0.212,0.055,0.322,-5.337
0.174,0.057,0.325,-5.337
0.068,0.058,0.325,-5.337
0.041,0.058,0.322,-5.337
0.175,0.058,0.321,-5.337
0.192,0.057,0.322,-5.337
0.141,0.059,0.325,-5.337
0.163,0.060,0.324,-5.337
0.200,0.062,0.322,-5.337
0.158,0.062,0.319,-5.337
0.086,0.062,0.322,-5.337
0.076,0.060,0.323,-5.337
0.076,0.059,0.323,-5.337
0.056,0.057,0.321,-5.337
0.186,0.055,0.318,-5.337
0.278,0.052,0.318,-5.337
0.287,0.056,0.322,-5.337
0.266,0.058,0.324,-5.337
0.307,0.058,0.325,-5.337
0.244,0.058,0.325,-5.337
0.173,0.059,0.326,-5.337
0.151,0.058,0.322,-5.337
0.201,0.063,0.320,-5.337
0.232,0.060,0.320,-5.337
0.266,0.056,0.320,-5.337
0.246,0.055,0.321,-5.337
0.193,0.059,0.322,-5.337
0.189,0.059,0.325,-5.337
0.159,0.060,0.325,-5.337
0.131,0.060,0.325,-5.337
0.072,0.060,0.325,-5.337
0.194,0.055,0.323,-5.337
0.308,0.054,0.321,-5.337
0.296,0.056,0.323,-5.337
0.236,0.060,0.324,-5.337
0.265,0.058,0.323,-5.337
0.246,0.057,0.320,-5.337
0.191,0.062,0.321,-5.337
0.218,0.058,0.324,-5.337
0.273,0.059,0.324,-5.337
0.187,0.063,0.321,-5.337
0.073,0.066,0.322,-5.337
0.030,0.067,0.323,-5.337
0.076,0.064,0.321,-5.337
0.157,0.065,0.319,-5.337
0.124,0.066,0.317,-5.337
0.109,0.066,0.317,-5.337
0.144,0.067,0.318,-5.337
0.107,0.067,0.320,-5.337
0.086,0.067,0.324,-5.337
0.112,0.067,0.327,-5.337
0.100,0.066,0.326,-5.337
0.098,0.065,0.324,-5.337
0.130,0.064,0.319,-5.337
0.139,0.059,0.318,-5.337
0.225,0.058,0.315,-5.337
0.280,0.061,0.319,-5.337
0.242,0.060,0.323,-5.337
0.262,0.060,0.324,-5.337
0.302,0.060,0.325,-5.337
0.269,0.062,0.323,-5.337
0.205,0.060,0.321,-5.337
0.216,0.062,0.321,-5.337
0.225,0.065,0.320,-5.337
0.201,0.065,0.320,-5.337
0.233,0.062,0.322,-5.337
0.285,0.060,0.321,-5.337
0.259,0.060,0.318,-5.337
0.261,0.062,0.320,-5.337
0.247,0.064,0.324,-5.337
0.246,0.066,0.322,-5.337
0.159,0.069,0.322,-5.337
0.081,0.069,0.323,-5.337
0.135,0.070,0.326,-5.337
0.102,0.071,0.327,-5.337
0.067,0.069,0.323,-5.337
0.169,0.067,0.317,-5.337
0.269,0.064,0.318,-5.337
0.297,0.064,0.317,-5.337
0.138,0.070,0.317,-5.337
0.052,0.069,0.319,-5.337
0.107,0.069,0.322,-5.337
0.237,0.066,0.322,-5.337
0.241,0.067,0.320,-5.337
0.194,0.064,0.320,-5.337
0.210,0.058,0.320,-5.337
0.228,0.059,0.320,-5.337
0.237,0.064,0.321,-5.337
0.332,0.063,0.322,-5.337
0.400,0.061,0.323,-5.337
0.349,0.060,0.321,-5.337
0.298,0.059,0.321,-5.337
0.204,0.060,0.326,-5.337
0.154,0.057,0.325,-5.337
0.179,0.060,0.320,-5.337
0.211,0.063,0.318,-5.337
0.169,0.063,0.319,-5.337
0.187,0.063,0.320,-5.337
0.129,0.064,0.320,-5.337
0.090,0.066,0.321,-5.337
0.112,0.064,0.325,-5.337
0.148,0.062,0.326,-5.337
0.140,0.063,0.325,-5.337
0.129,0.059,0.318,-5.337
0.192,0.060,0.317,-5.337
0.199,0.062,0.319,-5.337
0.168,0.059,0.320,-5.337
0.255,0.057,0.318,-5.337
0.213,0.059,0.320,-5.337
0.162,0.065,0.324,-5.337
0.128,0.065,0.325,-5.337
0.098,0.060,0.324,-5.337
0.202,0.058,0.324,-5.337
0.329,0.057,0.320,-5.337
0.304,0.061,0.317,-5.337
0.316,0.058,0.319,-5.337
0.414,0.057,0.323,-5.337
0.432,0.055,0.321,-5.337
0.304,0.058,0.318,-5.337
0.146,0.060,0.321,-5.337
0.133,0.057,0.324,-5.337
0.156,0.057,0.324,-5.337
0.209,0.055,0.319,-5.337
0.214,0.055,0.320,-5.337
0.122,0.055,0.325,-5.337
0.160,0.052,0.325,-5.337
0.212,0.053,0.324,-5.337
0.177,0.052,0.326,-5.337
0.117,0.048,0.326,-5.337
0.185,0.047,0.322,-5.337
0.283,0.050,0.320,-5.337
0.368,0.047,0.322,-5.337
0.316,0.045,0.323,-5.337
0.259,0.044,0.324,-5.337
0.263,0.038,0.321,-5.337
0.288,0.040,0.320,-5.337
0.312,0.045,0.318,-5.337
0.302,0.047,0.317,-5.337
0.238,0.046,0.315,-5.337
0.227,0.043,0.314,-5.337
0.243,0.044,0.318,-5.337
0.210,0.045,0.322,-5.337
0.180,0.047,0.327,-5.337
0.216,0.047,0.323,-5.337
0.221,0.048,0.322,-5.337
0.185,0.050,0.323,-5.337
0.166,0.047,0.326,-5.337
0.188,0.049,0.319,-5.337
0.189,0.049,0.315,-5.337
0.219,0.050,0.317,-5.337
0.231,0.051,0.323,-5.337
0.193,0.051,0.322,-5.337
0.201,0.050,0.322,-5.337
0.206,0.053,0.323,-5.337
0.280,0.050,0.324,-5.337
0.298,0.049,0.324,-5.337
0.203,0.050,0.323,-5.337
0.144,0.049,0.323,-5.337
0.156,0.046,0.326,-5.337
0.158,0.047,0.323,-5.337
0.119,0.047,0.319,-5.337
0.177,0.044,0.321,-5.337
0.249,0.042,0.324,-5.337
0.256,0.043,0.327,-5.337
0.200,0.043,0.325,-5.337
0.164,0.043,0.324,-5.337
0.221,0.045,0.322,-5.337
0.258,0.042,0.322,-5.337
0.248,0.042,0.323,-5.337
0.231,0.045,0.323,-5.337
0.167,0.042,0.320,-5.337
0.125,0.042,0.319,-5.337
0.160,0.044,0.320,-5.337
0.145,0.046,0.323,-5.337
0.126,0.045,0.319,-5.337
0.118,0.048,0.314,-5.337
0.180,0.045,0.317,-5.337
0.227,0.042,0.323,-5.337
0.298,0.041,0.326,-5.337
0.360,0.045,0.324,-5.337
0.315,0.047,0.325,-5.337
0.173,0.049,0.322,-5.337
0.163,0.046,0.320,-5.337
0.258,0.045,0.323,-5.337
0.266,0.043,0.325,-5.337
0.258,0.043,0.325,-5.337
0.256,0.043,0.325,-5.337
0.234,0.045,0.323,-5.337
0.164,0.046,0.322,-5.337
0.115,0.045,0.322,-5.337
0.121,0.045,0.323,-5.337
0.210,0.045,0.326,-5.337
0.233,0.047,0.329,-5.337
0.179,0.046,0.329,-5.337
0.180,0.047,0.326,-5.337
0.164,0.049,0.323,-5.337
0.137,0.051,0.320,-5.337
0.116,0.042,0.320,-5.337
0.137,0.042,0.318,-5.337
0.224,0.039,0.318,-5.337
0.328,0.037,0.318,-5.337
0.297,0.040,0.317,-5.337
0.271,0.040,0.319,-5.337
0.314,0.034,0.320,-5.337
0.351,0.033,0.321,-5.337
0.306,0.034,0.323,-5.337
0.246,0.036,0.326,-5.337
0.232,0.033,0.327,-5.337
0.241,0.035,0.327,-5.337
0.165,0.039,0.329,-5.337
0.103,0.042,0.325,-5.337
0.132,0.039,0.322,-5.337
0.100,0.039,0.321,-5.337
0.076,0.037,0.320,-5.337
0.140,0.040,0.316,-5.337
0.167,0.044,0.317,-5.337
0.130,0.041,0.319,-5.337
0.189,0.041,0.323,-5.337
0.210,0.038,0.324,-5.337
0.169,0.039,0.323,-5.337
0.183,0.039,0.319,-5.337
0.197,0.039,0.321,-5.337
0.226,0.038,0.321,-5.337
0.151,0.041,0.321,-5.337
0.168,0.041,0.322,-5.337
0.185,0.044,0.325,-5.337
0.205,0.041,0.325,-5.337
0.212,0.039,0.322,-5.337
0.248,0.037,0.319,-5.337
0.292,0.036,0.317,-5.337
0.261,0.036,0.319,-5.337
0.232,0.033,0.319,-5.337
0.247,0.037,0.322,-5.337
0.249,0.039,0.324,-5.337
0.181,0.039,0.322,-5.337
0.188,0.038,0.319,-5.337
0.241,0.037,0.321,-5.337
0.189,0.042,0.321,-5.337
0.104,0.044,0.323,-5.337
0.157,0.042,0.323,-5.337
0.245,0.041,0.325,-5.337
0.230,0.038,0.327,-5.337
0.192,0.038,0.328,-5.337
0.180,0.038,0.326,-5.337
0.255,0.036,0.324,-5.337
0.244,0.033,0.320,-5.337
0.151,0.037,0.320,-5.337
0.132,0.037,0.317,-5.337
0.163,0.034,0.317,-5.337
0.244,0.032,0.317,-5.337
0.267,0.034,0.319,-5.337
0.223,0.037,0.326,-5.337
0.176,0.036,0.328,-5.337
0.200,0.037,0.323,-5.337
0.212,0.038,0.318,-5.337
0.181,0.039,0.321,-5.337
0.217,0.037,0.324,-5.337
0.340,0.032,0.326,-5.337
0.336,0.031,0.325,-5.337
0.289,0.035,0.326,-5.337
0.210,0.037,0.323,-5.337
0.181,0.034,0.322,-5.337
0.267,0.032,0.322,-5.337
0.205,0.033,0.327,-5.337
0.147,0.032,0.329,-5.337
0.089,0.042,0.325,-5.337
0.127,0.040,0.325,-5.337
0.174,0.035,0.325,-5.337
0.126,0.034,0.321,-5.337
0.151,0.036,0.321,-5.337
0.248,0.039,0.324,-5.337
0.260,0.040,0.327,-5.337
0.178,0.036,0.325,-5.337
0.147,0.035,0.321,-5.337
0.129,0.034,0.320,-5.337
0.180,0.036,0.321,-5.337
0.202,0.035,0.322,-5.337
0.207,0.035,0.324,-5.337
0.297,0.035,0.323,-5.337
0.326,0.037,0.319,-5.337
0.291,0.038,0.323,-5.337
0.259,0.036,0.324,-5.337
0.243,0.036,0.324,-5.337
0.235,0.040,0.322,-5.337
0.235,0.040,0.324,-5.337
0.184,0.040,0.324,-5.337
0.153,0.041,0.323,-5.337
0.204,0.040,0.323,-5.337
0.255,0.041,0.323,-5.337
0.210,0.040,0.323,-5.337
0.137,0.042,0.319,-5.337
0.074,0.039,0.318,-5.337
0.104,0.036,0.320,-5.337
0.150,0.035,0.320,-5.337
0.173,0.037,0.320,-5.337
0.210,0.037,0.319,-5.337
0.173,0.039,0.323,-5.337
0.179,0.038,0.329,-5.337
0.168,0.038,0.327,-5.337
0.180,0.036,0.323,-5.337
0.189,0.036,0.320,-5.337
0.239,0.036,0.322,-5.337
0.281,0.037,0.325,-5.337
0.242,0.037,0.327,-5.337
0.198,0.040,0.325,-5.337
0.168,0.043,0.322,-5.337
0.195,0.041,0.317,-5.337
0.223,0.037,0.317,-5.337
0.232,0.038,0.316,-5.337
0.192,0.042,0.319,-5.337
0.158,0.038,0.323,-5.337
0.220,0.042,0.320,-5.337
0.238,0.042,0.318,-5.337
0.275,0.043,0.321,-5.337
0.277,0.044,0.326,-5.337
0.297,0.041,0.327,-5.337
0.211,0.040,0.322,-5.337
0.115,0.041,0.321,-5.337
0.139,0.042,0.321,-5.337
0.152,0.040,0.319,-5.337
0.171,0.040,0.319,-5.337
0.151,0.039,0.322,-5.337
0.150,0.042,0.324,-5.337
0.209,0.041,0.326,-5.337
0.230,0.037,0.330,-5.337
0.232,0.038,0.330,-5.337
0.226,0.037,0.326,-5.337
0.225,0.038,0.319,-5.337
0.249,0.040,0.319,-5.337
0.266,0.037,0.320,-5.337
0.211,0.038,0.318,-5.337
0.160,0.039,0.315,-5.337
0.185,0.042,0.320,-5.337
0.161,0.037,0.324,-5.337
0.161,0.036,0.327,-5.337
0.180,0.035,0.326,-5.337
0.204,0.037,0.325,-5.337
0.172,0.041,0.323,-5.337
0.133,0.043,0.323,-5.337
0.217,0.038,0.322,-5.337
0.239,0.040,0.320,-5.337
0.232,0.042,0.317,-5.337
0.297,0.041,0.316,-5.337
0.208,0.041,0.319,-5.337
0.111,0.037,0.321,-5.337
0.106,0.035,0.321,-5.337
0.228,0.035,0.320,-5.337
0.310,0.034,0.321,-5.337
0.176,0.038,0.321,-5.337
0.080,0.039,0.322,-5.337
0.103,0.036,0.326,-5.337
0.161,0.036,0.331,-5.337
0.212,0.037,0.327,-5.337
0.220,0.039,0.320,-5.337
0.267,0.038,0.317,-5.337
0.277,0.038,0.317,-5.337
0.199,0.040,0.319,-5.337
0.152,0.042,0.322,-5.337
0.126,0.041,0.323,-5.337
0.161,0.040,0.326,-5.337
0.169,0.036,0.326,-5.337
0.165,0.039,0.327,-5.337
0.163,0.038,0.324,-5.337
0.242,0.036,0.320,-5.337
0.265,0.037,0.320,-5.337
0.185,0.040,0.323,-5.337
0.163,0.045,0.325,-5.337
0.202,0.046,0.324,-5.337
0.252,0.040,0.323,-5.337
0.225,0.044,0.320,-5.337
0.172,0.047,0.319,-5.337
0.196,0.048,0.319,-5.337
0.255,0.044,0.320,-5.337
0.239,0.047,0.319,-5.337
0.167,0.047,0.319,-5.337
0.159,0.045,0.318,-5.337
0.109,0.046,0.316,-5.337
0.177,0.043,0.319,-5.337
0.339,0.046,0.324,-5.337
0.359,0.046,0.325,-5.337
0.220,0.045,0.324,-5.337
0.155,0.047,0.322,-5.337
0.201,0.045,0.320,-5.337
0.234,0.044,0.320,-5.337
0.274,0.042,0.321,-5.337
0.188,0.044,0.319,-5.337
0.162,0.041,0.316,-5.337
0.230,0.042,0.321,-5.337
0.213,0.045,0.324,-5.337
0.139,0.046,0.322,-5.337
0.132,0.043,0.317,-5.337
0.157,0.041,0.318,-5.337
0.241,0.038,0.320,-5.337
0.262,0.042,0.321,-5.337
0.322,0.043,0.318,-5.337
0.274,0.043,0.318,-5.337
0.159,0.043,0.320,-5.337
0.145,0.045,0.320,-5.337
0.218,0.041,0.315,-5.337
0.188,0.042,0.318,-5.337
0.154,0.047,0.320,-5.337
0.148,0.049,0.320,-5.337
0.126,0.047,0.320,-5.337
0.167,0.043,0.321,-5.337
0.161,0.045,0.323,-5.337
0.229,0.045,0.326,-5.337
0.265,0.048,0.326,-5.337
0.239,0.051,0.326,-5.337
0.261,0.047,0.319,-5.337
0.265,0.046,0.313,-5.337
0.250,0.049,0.313,-5.337
0.156,0.049,0.316,-5.337
0.188,0.047,0.321,-5.337
0.258,0.043,0.325,-5.337
0.313,0.041,0.327,-5.337
0.305,0.042,0.323,-5.337
0.261,0.046,0.323,-5.337
0.279,0.046,0.323,-5.337
0.223,0.048,0.322,-5.337
0.152,0.048,0.317,-5.337
0.212,0.050,0.318,-5.337
0.217,0.051,0.322,-5.337
0.196,0.054,0.324,-5.337
0.181,0.051,0.323,-5.337
0.117,0.052,0.317,-5.337
0.135,0.052,0.314,-5.337
0.155,0.054,0.316,-5.337
0.166,0.054,0.320,-5.337
0.223,0.052,0.324,-5.337
0.250,0.050,0.322,-5.337
0.198,0.054,0.321,-5.337
0.135,0.054,0.323,-5.337
0.168,0.056,0.323,-5.337
0.192,0.056,0.318,-5.337
0.165,0.054,0.317,-5.337
0.184,0.050,0.323,-5.337
0.133,0.049,0.323,-5.337
0.172,0.047,0.321,-5.337
0.202,0.051,0.323,-5.337
0.197,0.052,0.324,-5.337
0.192,0.054,0.323,-5.337
0.240,0.048,0.324,-5.337
0.286,0.048,0.322,-5.337
0.235,0.057,0.318,-5.337
0.228,0.058,0.318,-5.337
0.207,0.056,0.320,-5.337
0.180,0.054,0.321,-5.337
0.220,0.055,0.321,-5.337
0.212,0.056,0.322,-5.337
0.216,0.056,0.324,-5.337
0.243,0.052,0.326,-5.337
0.225,0.050,0.325,-5.337
0.227,0.051,0.322,-5.337
0.192,0.056,0.318,-5.337
0.265,0.053,0.320,-5.337
0.325,0.052,0.323,-5.337
0.221,0.057,0.324,-5.337
0.123,0.059,0.323,-5.337
0.110,0.056,0.323,-5.337
0.116,0.054,0.322,-5.337
0.167,0.052,0.323,-5.337
0.222,0.053,0.324,-5.337
0.174,0.056,0.321,-5.337
0.165,0.055,0.320,-5.337
0.209,0.053,0.322,-5.337
0.167,0.055,0.324,-5.337
0.124,0.055,0.324,-5.337
0.140,0.054,0.322,-5.337
0.207,0.052,0.325,-5.337
0.275,0.055,0.322,-5.337
0.183,0.056,0.319,-5.337
0.160,0.053,0.319,-5.337
0.164,0.054,0.324,-5.337
0.180,0.057,0.326,-5.337
0.162,0.062,0.326,-5.337
0.127,0.059,0.327,-5.337
0.194,0.056,0.327,-5.337
0.307,0.058,0.322,-5.337
0.295,0.060,0.316,-5.337
0.292,0.058,0.316,-5.337
0.265,0.057,0.316,-5.337
0.213,0.054,0.316,-5.337
0.205,0.054,0.316,-5.337
0.228,0.055,0.320,-5.337
0.267,0.058,0.324,-5.337
0.220,0.061,0.328,-5.337
0.126,0.057,0.327,-5.337
0.067,0.055,0.323,-5.337
0.074,0.056,0.319,-5.337
0.089,0.059,0.317,-5.337
0.198,0.059,0.319,-5.337
0.212,0.056,0.317,-5.337
0.190,0.057,0.318,-5.337
0.135,0.062,0.322,-5.337
0.182,0.059,0.325,-5.337
0.255,0.059,0.323,-5.337
0.246,0.059,0.319,-5.337
0.188,0.062,0.319,-5.337
0.227,0.061,0.318,-5.337
0.283,0.057,0.318,-5.337
0.202,0.059,0.317,-5.337
0.134,0.059,0.319,-5.337
0.158,0.061,0.321,-5.337
0.161,0.061,0.322,-5.337
0.221,0.055,0.327,-5.337
0.298,0.053,0.328,-5.337
0.261,0.056,0.328,-5.337
0.231,0.057,0.325,-5.337
0.298,0.058,0.322,-5.337
0.285,0.058,0.320,-5.337
0.236,0.057,0.324,-5.337
0.242,0.055,0.326,-5.337
0.286,0.054,0.323,-5.337
0.180,0.057,0.317,-5.337
0.126,0.060,0.315,-5.337
0.192,0.058,0.318,-5.337
0.215,0.058,0.323,-5.337
0.168,0.060,0.320,-5.337
0.231,0.057,0.317,-5.337
0.267,0.057,0.316,-5.337
0.275,0.059,0.318,-5.337
0.202,0.061,0.325,-5.337
0.211,0.063,0.329,-5.337
0.267,0.063,0.328,-5.337
0.213,0.063,0.325,-5.337
0.138,0.067,0.324,-5.337
0.186,0.067,0.324,-5.337
0.212,0.064,0.320,-5.337
0.184,0.062,0.317,-5.337
0.134,0.063,0.319,-5.337
0.130,0.064,0.320,-5.337
0.133,0.068,0.322,-5.337
0.140,0.067,0.319,-5.337
0.120,0.066,0.320,-5.337
0.188,0.064,0.320,-5.337
0.290,0.062,0.321,-5.337
0.285,0.060,0.323,-5.337
0.242,0.061,0.325,-5.337
0.228,0.061,0.324,-5.337
0.218,0.061,0.322,-5.337
0.178,0.058,0.319,-5.337
0.189,0.058,0.319,-5.337
0.191,0.061,0.323,-5.337
0.258,0.062,0.324,-5.337
0.226,0.061,0.319,-5.337
0.202,0.061,0.318,-5.337
0.213,0.062,0.319,-5.337
0.210,0.065,0.321,-5.337
0.134,0.068,0.322,-5.337
0.113,0.066,0.323,-5.337
0.165,0.066,0.325,-5.337
0.204,0.067,0.323,-5.337
0.219,0.067,0.322,-5.337
0.257,0.065,0.320,-5.337
0.209,0.067,0.320,-5.337
0.096,0.069,0.319,-5.337
0.055,0.067,0.322,-5.337
0.163,0.062,0.319,-5.337
0.267,0.062,0.315,-5.337
0.274,0.065,0.314,-5.337
0.274,0.064,0.321,-5.337
0.280,0.061,0.322,-5.337
0.250,0.060,0.322,-5.337
0.235,0.056,0.320,-5.337
0.216,0.061,0.320,-5.337
0.229,0.062,0.319,-5.337
0.311,0.056,0.322,-5.337
0.297,0.055,0.326,-5.337
0.250,0.059,0.329,-5.337
0.288,0.061,0.329,-5.337
0.325,0.059,0.324,-5.337
0.295,0.056,0.318,-5.337
0.224,0.057,0.314,-5.337
0.188,0.057,0.312,-5.337
0.180,0.059,0.315,-5.337
0.143,0.062,0.322,-5.337
0.080,0.061,0.323,-5.337
0.131,0.059,0.322,-5.337
0.211,0.058,0.320,-5.337
0.256,0.058,0.320,-5.337
0.245,0.056,0.319,-5.337
0.197,0.062,0.321,-5.337
0.225,0.060,0.320,-5.337
0.232,0.061,0.322,-5.337
0.180,0.058,0.319,-5.337
0.175,0.059,0.319,-5.337
0.236,0.059,0.324,-5.337
0.241,0.056,0.326,-5.337
0.299,0.057,0.324,-5.337
0.361,0.053,0.322,-5.337
0.430,0.055,0.321,-5.337
0.360,0.055,0.320,-5.337
0.237,0.060,0.316,-5.337
0.178,0.062,0.317,-5.337
0.217,0.057,0.319,-5.337
0.224,0.060,0.318,-5.337
0.079,0.065,0.319,-5.337
0.082,0.060,0.321,-5.337
0.201,0.056,0.324,-5.337
0.241,0.057,0.324,-5.337
0.269,0.060,0.322,-5.337
0.297,0.054,0.317,-5.337
0.251,0.051,0.315,-5.337
0.186,0.053,0.317,-5.337
0.151,0.056,0.322,-5.337
0.193,0.059,0.325,-5.337
0.172,0.056,0.325,-5.337
0.176,0.051,0.320,-5.337
0.215,0.052,0.317,-5.337
0.152,0.056,0.318,-5.337
0.181,0.057,0.322,-5.337
0.146,0.054,0.321,-5.337
0.132,0.055,0.319,-5.337
0.199,0.054,0.318,-5.337
0.200,0.058,0.319,-5.337
0.171,0.056,0.325,-5.337
0.180,0.055,0.326,-5.337
0.188,0.055,0.325,-5.337
0.200,0.054,0.322,-5.337
0.179,0.049,0.322,-5.337
0.148,0.049,0.318,-5.337
0.200,0.050,0.317,-5.337
0.248,0.053,0.317,-5.337
0.254,0.055,0.319,-5.337
0.216,0.053,0.322,-5.337
0.242,0.051,0.321,-5.337
0.258,0.055,0.316,-5.337
0.266,0.057,0.313,-5.337
0.236,0.054,0.313,-5.337
0.156,0.056,0.319,-5.337
0.142,0.054,0.325,-5.337
0.213,0.054,0.329,-5.337
0.338,0.050,0.329,-5.337
0.332,0.048,0.330,-5.337
0.238,0.049,0.326,-5.337
0.167,0.049,0.322,-5.337
0.181,0.051,0.319,-5.337
0.163,0.048,0.318,-5.337
0.269,0.046,0.320,-5.337
0.293,0.044,0.322,-5.337
0.261,0.045,0.323,-5.337
0.298,0.044,0.321,-5.337
0.280,0.049,0.322,-5.337
0.143,0.053,0.319,-5.337
0.191,0.049,0.317,-5.337
0.257,0.045,0.317,-5.337
0.217,0.042,0.320,-5.337
0.178,0.043,0.322,-5.337
0.141,0.047,0.324,-5.337
0.179,0.042,0.325,-5.337
0.191,0.044,0.324,-5.337
0.147,0.044,0.321,-5.337
0.135,0.045,0.320,-5.337
0.193,0.045,0.319,-5.337
0.236,0.043,0.316,-5.337
0.280,0.044,0.317,-5.337
0.278,0.042,0.321,-5.337
0.308,0.041,0.321,-5.337
0.283,0.044,0.320,-5.337
0.269,0.044,0.321,-5.337
0.316,0.043,0.320,-5.337
0.291,0.043,0.320,-5.337
0.274,0.045,0.319,-5.337
0.292,0.045,0.319,-5.337
0.314,0.044,0.320,-5.337
0.257,0.044,0.323,-5.337
0.158,0.044,0.323,-5.337
0.159,0.045,0.321,-5.337
0.221,0.041,0.321,-5.337
0.236,0.044,0.321,-5.337
0.280,0.043,0.318,-5.337
0.280,0.047,0.318,-5.337
0.243,0.046,0.320,-5.337
0.286,0.045,0.324,-5.337
0.254,0.044,0.326,-5.337
0.253,0.042,0.324,-5.337
0.305,0.041,0.320,-5.337
0.314,0.045,0.317,-5.337
0.265,0.045,0.316,-5.337
0.208,0.043,0.317,-5.337
0.170,0.041,0.317,-5.337
0.249,0.040,0.317,-5.337
0.246,0.044,0.316,-5.337
0.193,0.047,0.319,-5.337
0.122,0.045,0.323,-5.337
0.107,0.042,0.323,-5.337
0.163,0.039,0.321,-5.337
0.220,0.041,0.318,-5.337
0.226,0.042,0.319,-5.337
0.193,0.041,0.319,-5.337
0.212,0.042,0.320,-5.337
0.223,0.043,0.320,-5.337
0.146,0.043,0.323,-5.337
0.113,0.040,0.321,-5.337
0.151,0.036,0.320,-5.337
0.180,0.039,0.317,-5.337
0.196,0.042,0.314,-5.337
0.182,0.043,0.317,-5.337
0.158,0.040,0.322,-5.337
0.140,0.040,0.325,-5.337
0.137,0.041,0.323,-5.337
0.217,0.038,0.321,-5.337
0.257,0.040,0.321,-5.337
0.148,0.041,0.320,-5.337
0.127,0.040,0.318,-5.337
0.184,0.037,0.315,-5.337
0.167,0.039,0.315,-5.337
0.187,0.036,0.318,-5.337
0.211,0.036,0.319,-5.337
0.267,0.037,0.323,-5.337
0.272,0.042,0.323,-5.337
0.171,0.044,0.323,-5.337
0.157,0.038,0.320,-5.337
0.135,0.040,0.321,-5.337
0.134,0.040,0.322,-5.337
0.244,0.037,0.325,-5.337
0.290,0.035,0.324,-5.337
0.233,0.039,0.322,-5.337
0.155,0.040,0.320,-5.337
0.168,0.039,0.321,-5.337
0.238,0.034,0.318,-5.337
0.281,0.036,0.320,-5.337
0.200,0.039,0.323,-5.337
0.186,0.036,0.320,-5.337
0.187,0.035,0.320,-5.337
0.185,0.037,0.321,-5.337
0.184,0.036,0.318,-5.337
0.211,0.036,0.317,-5.337
0.247,0.038,0.318,-5.337
0.220,0.037,0.319,-5.337
0.169,0.039,0.323,-5.337
0.160,0.034,0.328,-5.337
0.169,0.033,0.330,-5.337
0.186,0.035,0.327,-5.337
0.201,0.039,0.324,-5.337
0.191,0.039,0.320,-5.337
0.248,0.036,0.320,-5.337
0.265,0.036,0.317,-5.337
0.215,0.037,0.317,-5.337
0.233,0.034,0.321,-5.337
0.232,0.040,0.321,-5.337
0.236,0.039,0.318,-5.337
0.273,0.038,0.323,-5.337
0.262,0.040,0.325,-5.337
0.254,0.038,0.325,-5.337
0.267,0.037,0.324,-5.337
0.241,0.037,0.323,-5.337
0.174,0.037,0.321,-5.337
0.164,0.038,0.319,-5.337
0.222,0.035,0.321,-5.337
0.213,0.038,0.321,-5.337
0.171,0.039,0.319,-5.337
0.192,0.037,0.319,-5.337
0.185,0.033,0.321,-5.337
0.175,0.035,0.322,-5.337
0.195,0.036,0.317,-5.337
0.206,0.036,0.315,-5.337
0.156,0.036,0.321,-5.337
0.152,0.033,0.325,-5.337
0.207,0.029,0.325,-5.337
0.180,0.029,0.319,-5.337
0.111,0.039,0.318,-5.337
0.123,0.037,0.321,-5.337
0.215,0.033,0.322,-5.337
0.236,0.031,0.320,-5.337
0.203,0.032,0.319,-5.337
0.179,0.035,0.320,-5.337
0.205,0.033,0.321,-5.337
0.246,0.032,0.322,-5.337
0.256,0.033,0.324,-5.337
0.237,0.035,0.319,-5.337
0.151,0.041,0.318,-5.337
0.135,0.037,0.319,-5.337
0.231,0.031,0.320,-5.337
0.270,0.032,0.324,-5.337
0.247,0.033,0.326,-5.337
0.287,0.035,0.328,-5.337
0.274,0.035,0.326,-5.337
0.238,0.035,0.321,-5.337
0.172,0.043,0.315,-5.337
0.123,0.044,0.315,-5.337
0.129,0.044,0.319,-5.337
0.141,0.040,0.323,-5.337
0.158,0.036,0.323,-5.337
0.182,0.033,0.322,-5.337
0.240,0.030,0.322,-5.337
0.287,0.034,0.325,-5.337
0.314,0.032,0.326,-5.337
0.267,0.035,0.321,-5.337
0.237,0.035,0.320,-5.337
0.184,0.032,0.324,-5.337
0.192,0.032,0.326,-5.337
0.242,0.035,0.320,-5.337
0.223,0.037,0.319,-5.337
0.213,0.034,0.320,-5.337
0.224,0.035,0.322,-5.337
0.191,0.034,0.322,-5.337
0.151,0.034,0.323,-5.337
0.140,0.032,0.322,-5.337
0.167,0.034,0.323,-5.337
0.196,0.037,0.320,-5.337
0.173,0.037,0.320,-5.337
0.165,0.035,0.317,-5.337
0.188,0.032,0.319,-5.337
0.179,0.032,0.320,-5.337
0.156,0.034,0.322,-5.337
0.238,0.029,0.319,-5.337
0.304,0.033,0.319,-5.337
0.151,0.039,0.324,-5.337
-0.008,0.042,0.326,-5.337
0.035,0.038,0.323,-5.337
0.182,0.035,0.323,-5.337
0.219,0.035,0.323,-5.337
0.213,0.035,0.323,-5.337
0.225,0.034,0.322,-5.337
0.229,0.037,0.323,-5.337
0.222,0.036,0.323,-5.337
0.254,0.037,0.322,-5.337
0.214,0.039,0.324,-5.337
0.227,0.036,0.322,-5.337
0.267,0.034,0.322,-5.337
0.222,0.033,0.319,-5.337
0.159,0.035,0.320,-5.337
0.148,0.034,0.319,-5.337
0.188,0.035,0.321,-5.337
0.224,0.034,0.319,-5.337
0.248,0.033,0.321,-5.337
0.209,0.036,0.325,-5.337
0.214,0.037,0.323,-5.337
0.187,0.040,0.319,-5.337
0.158,0.035,0.315,-5.337
0.157,0.031,0.316,-5.337
0.204,0.033,0.319,-5.337
0.208,0.034,0.319,-5.337
0.242,0.033,0.320,-5.337
0.274,0.034,0.321,-5.337
0.212,0.032,0.326,-5.337
0.199,0.033,0.323,-5.337
0.242,0.034,0.321,-5.337
0.197,0.032,0.320,-5.337
0.205,0.034,0.320,-5.337
0.162,0.037,0.321,-5.337
0.127,0.037,0.321,-5.337
0.137,0.036,0.317,-5.337
0.173,0.037,0.315,-5.337
0.163,0.034,0.318,-5.337
0.125,0.034,0.320,-5.337
0.136,0.031,0.320,-5.337
0.212,0.030,0.319,-5.337
0.199,0.035,0.319,-5.337
0.114,0.036,0.317,-5.337
0.144,0.034,0.319,-5.337
0.159,0.031,0.320,-5.337
0.146,0.034,0.321,-5.337
0.212,0.036,0.318,-5.337
0.197,0.042,0.316,-5.337
0.139,0.039,0.318,-5.337
0.131,0.041,0.318,-5.337
0.160,0.042,0.320,-5.337
0.194,0.038,0.323,-5.337
0.191,0.035,0.326,-5.337
0.210,0.033,0.324,-5.337
0.236,0.035,0.317,-5.337
0.244,0.040,0.315,-5.337
0.206,0.040,0.318,-5.337
0.224,0.040,0.322,-5.337
0.238,0.043,0.325,-5.337
0.227,0.040,0.326,-5.337
0.239,0.039,0.326,-5.337
0.236,0.039,0.319,-5.337
0.196,0.041,0.315,-5.337
0.113,0.041,0.311,-5.337
0.113,0.041,0.316,-5.337
0.199,0.042,0.319,-5.337
0.239,0.041,0.319,-5.337
0.282,0.041,0.316,-5.337
0.255,0.043,0.313,-5.337
0.158,0.048,0.317,-5.337
0.176,0.050,0.321,-5.337
0.169,0.048,0.323,-5.337
0.170,0.047,0.325,-5.337
0.240,0.045,0.321,-5.337
0.250,0.046,0.319,-5.337
0.248,0.043,0.321,-5.337
0.311,0.041,0.324,-5.337
0.287,0.045,0.322,-5.337
0.146,0.048,0.321,-5.337
0.085,0.048,0.324,-5.337
0.115,0.048,0.323,-5.337
0.144,0.050,0.319,-5.337
0.131,0.051,0.316,-5.337
0.130,0.050,0.319,-5.337
0.196,0.046,0.318,-5.337
0.205,0.047,0.317,-5.337
0.106,0.049,0.315,-5.337
0.053,0.047,0.318,-5.337
0.113,0.042,0.320,-5.337
0.240,0.042,0.321,-5.337
0.282,0.040,0.322,-5.337
0.228,0.047,0.322,-5.337
0.209,0.044,0.322,-5.337
0.206,0.045,0.324,-5.337
0.138,0.048,0.321,-5.337
0.116,0.047,0.321,-5.337
0.194,0.044,0.323,-5.337
0.234,0.047,0.323,-5.337
0.200,0.048,0.321,-5.337
0.193,0.048,0.319,-5.337
0.190,0.050,0.320,-5.337
0.219,0.052,0.324,-5.337
0.229,0.048,0.326,-5.337
0.223,0.047,0.324,-5.337
0.246,0.048,0.322,-5.337
0.232,0.048,0.321,-5.337
0.149,0.050,0.319,-5.337
0.165,0.046,0.317,-5.337
0.195,0.048,0.318,-5.337
0.193,0.049,0.317,-5.337
0.218,0.053,0.319,-5.337
0.230,0.054,0.320,-5.337
0.165,0.054,0.319,-5.337
0.170,0.053,0.319,-5.337
0.241,0.050,0.318,-5.337
0.259,0.052,0.322,-5.337
0.260,0.050,0.322,-5.337
0.274,0.046,0.319,-5.337
0.283,0.046,0.320,-5.337
0.254,0.049,0.320,-5.337
0.197,0.051,0.322,-5.337
0.223,0.049,0.323,-5.337
0.276,0.050,0.322,-5.337
0.256,0.051,0.320,-5.337
0.196,0.052,0.319,-5.337
0.181,0.054,0.321,-5.337
0.219,0.055,0.320,-5.337
0.143,0.056,0.320,-5.337
0.046,0.056,0.319,-5.337
0.033,0.056,0.320,-5.337
0.158,0.053,0.318,-5.337
0.278,0.053,0.317,-5.337
0.272,0.056,0.315,-5.337
0.236,0.054,0.317,-5.337
0.265,0.051,0.318,-5.337
0.168,0.053,0.316,-5.337
0.030,0.056,0.318,-5.337
0.058,0.055,0.322,-5.337
0.144,0.052,0.320,-5.337
0.159,0.056,0.322,-5.337
0.128,0.058,0.322,-5.337
0.158,0.054,0.318,-5.337
0.247,0.050,0.316,-5.337
0.223,0.053,0.315,-5.337
0.217,0.057,0.314,-5.337
0.232,0.057,0.315,-5.337
0.210,0.058,0.315,-5.337
0.182,0.060,0.314,-5.337
0.173,0.059,0.314,-5.337
0.207,0.058,0.316,-5.337
0.221,0.060,0.320,-5.337
0.158,0.058,0.324,-5.337
0.172,0.054,0.328,-5.337
0.254,0.051,0.324,-5.337
0.211,0.054,0.320,-5.337
0.164,0.058,0.314,-5.337
0.184,0.056,0.313,-5.337
0.287,0.052,0.318,-5.337
0.212,0.052,0.323,-5.337
0.125,0.049,0.325,-5.337
0.135,0.052,0.324,-5.337
0.133,0.053,0.321,-5.337
0.161,0.055,0.317,-5.337
0.184,0.054,0.319,-5.337
0.173,0.053,0.322,-5.337
0.145,0.055,0.319,-5.337
0.154,0.057,0.318,-5.337
0.171,0.057,0.319,-5.337
0.103,0.059,0.323,-5.337
0.084,0.056,0.324,-5.337
0.267,0.051,0.322,-5.337
0.343,0.052,0.321,-5.337
0.249,0.058,0.321,-5.337
0.230,0.061,0.322,-5.337
0.234,0.058,0.322,-5.337
0.129,0.062,0.321,-5.337
0.137,0.062,0.315,-5.337
0.204,0.061,0.316,-5.337
0.219,0.059,0.321,-5.337
0.265,0.060,0.323,-5.337
0.264,0.059,0.318,-5.337
0.236,0.063,0.317,-5.337
0.198,0.066,0.319,-5.337
0.203,0.065,0.323,-5.337
0.198,0.059,0.322,-5.337
0.207,0.059,0.322,-5.337
0.268,0.059,0.323,-5.337
0.261,0.058,0.325,-5.337
0.214,0.061,0.322,-5.337
0.216,0.061,0.319,-5.337
0.265,0.061,0.319,-5.337
0.249,0.063,0.323,-5.337
0.145,0.064,0.329,-5.337
0.079,0.064,0.327,-5.337
0.137,0.060,0.321,-5.337
0.227,0.061,0.315,-5.337
0.154,0.062,0.318,-5.337
0.072,0.062,0.320,-5.337
0.124,0.062,0.319,-5.337
0.193,0.062,0.316,-5.337
0.215,0.061,0.319,-5.337
0.246,0.056,0.320,-5.337
0.216,0.058,0.318,-5.337
0.174,0.060,0.318,-5.337
0.115,0.063,0.317,-5.337
0.095,0.066,0.319,-5.337
0.184,0.067,0.321,-5.337
0.224,0.065,0.323,-5.337
0.201,0.066,0.322,-5.337
0.120,0.067,0.323,-5.337
0.198,0.066,0.325,-5.337
0.254,0.063,0.322,-5.337
0.237,0.062,0.320,-5.337
0.240,0.061,0.319,-5.337
0.284,0.064,0.317,-5.337
0.259,0.065,0.318,-5.337
0.206,0.067,0.318,-5.337
0.191,0.065,0.320,-5.337
0.258,0.064,0.320,-5.337
0.204,0.065,0.320,-5.337
0.170,0.066,0.321,-5.337
0.281,0.066,0.324,-5.337
0.292,0.065,0.323,-5.337
0.286,0.063,0.321,-5.337
0.322,0.063,0.319,-5.337
0.290,0.065,0.316,-5.337
0.234,0.067,0.314,-5.337
0.147,0.064,0.317,-5.337
0.122,0.062,0.321,-5.337
0.167,0.063,0.322,-5.337
0.189,0.064,0.322,-5.337
0.202,0.063,0.324,-5.337
0.193,0.066,0.322,-5.337
0.178,0.065,0.318,-5.337
0.183,0.062,0.318,-5.337
0.203,0.063,0.321,-5.337
0.170,0.067,0.318,-5.337
0.168,0.063,0.314,-5.337
0.159,0.061,0.316,-5.337
0.200,0.060,0.318,-5.337
0.241,0.064,0.319,-5.337
0.195,0.066,0.320,-5.337
0.174,0.064,0.318,-5.337
0.144,0.064,0.315,-5.337
0.129,0.066,0.319,-5.337
0.126,0.066,0.324,-5.337
0.134,0.063,0.324,-5.337
0.184,0.062,0.318,-5.337
0.186,0.063,0.318,-5.337
0.231,0.063,0.320,-5.337
0.183,0.067,0.325,-5.337
0.177,0.066,0.326,-5.337
0.201,0.067,0.323,-5.337
0.194,0.065,0.320,-5.337
0.228,0.063,0.324,-5.337
0.207,0.064,0.324,-5.337
0.175,0.066,0.321,-5.337
0.156,0.065,0.317,-5.337
0.203,0.062,0.313,-5.337
0.245,0.063,0.313,-5.337
0.237,0.067,0.313,-5.337
0.208,0.063,0.313,-5.337
0.156,0.065,0.315,-5.337
0.133,0.065,0.319,-5.337
0.198,0.064,0.319,-5.337
0.179,0.064,0.320,-5.337
0.169,0.064,0.322,-5.337
0.113,0.067,0.325,-5.337
0.097,0.066,0.326,-5.337
0.150,0.067,0.326,-5.337
0.147,0.065,0.322,-5.337
0.179,0.066,0.321,-5.337
0.209,0.064,0.317,-5.337
0.145,0.063,0.316,-5.337
0.126,0.061,0.318,-5.337
0.163,0.061,0.317,-5.337
0.218,0.061,0.316,-5.337
0.233,0.059,0.319,-5.337
0.234,0.058,0.320,-5.337
0.288,0.056,0.320,-5.337
0.346,0.058,0.318,-5.337
0.311,0.062,0.320,-5.337
0.225,0.061,0.324,-5.337
0.173,0.061,0.323,-5.337
0.205,0.061,0.321,-5.337
0.263,0.060,0.320,-5.337
0.254,0.059,0.321,-5.337
0.231,0.059,0.319,-5.337
0.168,0.062,0.317,-5.337
0.186,0.061,0.315,-5.337
0.204,0.058,0.318,-5.337
0.234,0.056,0.321,-5.337
0.234,0.058,0.321,-5.337
0.186,0.060,0.317,-5.337
0.194,0.060,0.318,-5.337
0.245,0.058,0.319,-5.337
0.284,0.057,0.319,-5.337
0.259,0.060,0.322,-5.337
0.220,0.060,0.322,-5.337
0.222,0.055,0.317,-5.337
0.201,0.059,0.312,-5.337
0.224,0.055,0.312,-5.337
0.302,0.054,0.314,-5.337
0.228,0.057,0.317,-5.337
0.117,0.059,0.316,-5.337
0.146,0.058,0.318,-5.337
0.201,0.055,0.322,-5.337
0.188,0.056,0.324,-5.337
0.128,0.058,0.323,-5.337
0.161,0.056,0.324,-5.337
0.209,0.054,0.319,-5.337
0.211,0.055,0.318,-5.337
0.241,0.054,0.317,-5.337
0.259,0.055,0.320,-5.337
0.267,0.057,0.319,-5.337
0.237,0.058,0.319,-5.337
0.211,0.054,0.319,-5.337
0.182,0.053,0.317,-5.337
0.131,0.052,0.318,-5.337
0.144,0.053,0.321,-5.337
0.212,0.051,0.321,-5.337
0.280,0.048,0.320,-5.337
0.297,0.049,0.319,-5.337
0.253,0.049,0.323,-5.337
0.190,0.052,0.322,-5.337
0.152,0.056,0.322,-5.337
0.202,0.057,0.323,-5.337
0.176,0.059,0.321,-5.337
0.139,0.055,0.317,-5.337
0.174,0.059,0.316,-5.337
0.229,0.057,0.315,-5.337
0.227,0.055,0.317,-5.337
0.195,0.053,0.317,-5.337
0.200,0.051,0.316,-5.337
0.271,0.053,0.319,-5.337
0.308,0.051,0.319,-5.337
0.277,0.050,0.317,-5.337
0.240,0.049,0.314,-5.337
0.219,0.050,0.319,-5.337
0.238,0.047,0.325,-5.337
0.230,0.048,0.329,-5.337
0.173,0.047,0.328,-5.337
0.170,0.050,0.323,-5.337
0.177,0.050,0.321,-5.337
0.157,0.048,0.321,-5.337
0.224,0.050,0.320,-5.337
0.206,0.052,0.321,-5.337
0.170,0.051,0.320,-5.337
0.236,0.049,0.319,-5.337
0.280,0.048,0.318,-5.337
0.278,0.047,0.319,-5.337
0.225,0.045,0.321,-5.337
0.207,0.044,0.319,-5.337
0.218,0.039,0.316,-5.337
0.245,0.040,0.316,-5.337
0.284,0.043,0.318,-5.337
0.296,0.042,0.318,-5.337
0.292,0.039,0.320,-5.337
0.230,0.041,0.321,-5.337
0.271,0.043,0.319,-5.337
0.226,0.046,0.318,-5.337
0.248,0.046,0.318,-5.337
0.251,0.045,0.316,-5.337
0.172,0.048,0.319,-5.337
0.163,0.047,0.324,-5.337
0.213,0.047,0.326,-5.337
0.201,0.047,0.324,-5.337
0.185,0.046,0.319,-5.337
0.199,0.046,0.317,-5.337
0.216,0.046,0.321,-5.337
0.171,0.046,0.325,-5.337
0.126,0.044,0.320,-5.337
0.126,0.041,0.317,-5.337
0.182,0.042,0.317,-5.337
0.117,0.042,0.320,-5.337
0.185,0.042,0.321,-5.337
0.275,0.044,0.324,-5.337
0.269,0.046,0.321,-5.337
0.200,0.043,0.318,-5.337
0.212,0.044,0.317,-5.337
0.268,0.046,0.320,-5.337
0.307,0.047,0.319,-5.337
0.269,0.049,0.320,-5.337
0.203,0.046,0.324,-5.337
0.197,0.041,0.325,-5.337
0.222,0.039,0.320,-5.337
0.261,0.040,0.316,-5.337
0.262,0.040,0.316,-5.337
0.225,0.040,0.316,-5.337
0.102,0.042,0.316,-5.337
0.036,0.040,0.318,-5.337
0.153,0.035,0.321,-5.337
0.245,0.032,0.321,-5.337
0.227,0.033,0.320,-5.337
0.210,0.037,0.320,-5.337
0.186,0.036,0.322,-5.337
0.189,0.033,0.322,-5.337
0.132,0.033,0.319,-5.337
0.106,0.036,0.316,-5.337
0.135,0.040,0.317,-5.337
0.129,0.039,0.321,-5.337
0.147,0.036,0.323,-5.337
0.173,0.036,0.323,-5.337
0.156,0.039,0.321,-5.337
0.145,0.041,0.317,-5.337
0.171,0.039,0.314,-5.337
0.163,0.040,0.314,-5.337
0.200,0.041,0.318,-5.337
0.249,0.038,0.318,-5.337
0.250,0.040,0.321,-5.337
0.242,0.038,0.322,-5.337
0.219,0.039,0.321,-5.337
0.213,0.040,0.322,-5.337
0.280,0.037,0.320,-5.337
0.278,0.038,0.322,-5.337
0.264,0.038,0.321,-5.337
0.257,0.039,0.317,-5.337
0.285,0.040,0.315,-5.337
0.241,0.037,0.312,-5.337
0.250,0.037,0.310,-5.337
0.227,0.042,0.314,-5.337
0.204,0.043,0.319,-5.337
0.181,0.039,0.324,-5.337
0.164,0.040,0.322,-5.337
0.186,0.041,0.321,-5.337
0.256,0.037,0.320,-5.337
0.325,0.031,0.316,-5.337
0.351,0.031,0.315,-5.337
0.225,0.036,0.318,-5.337
0.161,0.039,0.321,-5.337
0.234,0.037,0.323,-5.337
0.241,0.035,0.323,-5.337
0.175,0.036,0.322,-5.337
0.212,0.033,0.325,-5.337
0.306,0.030,0.324,-5.337
0.289,0.029,0.320,-5.337
0.207,0.033,0.319,-5.337
0.168,0.035,0.319,-5.337
0.223,0.036,0.315,-5.337
0.255,0.036,0.313,-5.337
0.212,0.037,0.317,-5.337
0.120,0.041,0.318,-5.337
0.126,0.043,0.320,-5.337
0.125,0.044,0.318,-5.337
0.155,0.045,0.317,-5.337
0.174,0.045,0.322,-5.337
0.198,0.044,0.321,-5.337
0.173,0.041,0.317,-5.337
0.166,0.041,0.314,-5.337
0.146,0.038,0.319,-5.337
0.143,0.035,0.326,-5.337
0.155,0.036,0.327,-5.337
0.192,0.039,0.322,-5.337
0.239,0.038,0.319,-5.337
0.230,0.037,0.317,-5.337
0.181,0.039,0.318,-5.337
0.254,0.039,0.318,-5.337
0.300,0.042,0.319,-5.337
0.184,0.039,0.320,-5.337
0.110,0.038,0.323,-5.337
0.218,0.036,0.324,-5.337
0.285,0.037,0.325,-5.337
0.247,0.035,0.323,-5.337
0.115,0.036,0.323,-5.337
0.118,0.039,0.320,-5.337
0.160,0.041,0.317,-5.337
0.133,0.038,0.319,-5.337
0.137,0.039,0.318,-5.337
0.196,0.039,0.320,-5.337
0.278,0.039,0.319,-5.337
0.239,0.038,0.317,-5.337
0.168,0.042,0.317,-5.337
0.123,0.043,0.319,-5.337
0.132,0.040,0.322,-5.337
0.226,0.038,0.327,-5.337
0.281,0.038,0.329,-5.337
0.262,0.041,0.328,-5.337
0.235,0.044,0.323,-5.337
0.204,0.045,0.321,-5.337
0.211,0.039,0.320,-5.337
0.211,0.040,0.318,-5.337
0.273,0.040,0.316,-5.337
0.224,0.040,0.316,-5.337
0.114,0.040,0.319,-5.337
0.056,0.038,0.320,-5.337
0.112,0.038,0.319,-5.337
0.175,0.036,0.320,-5.337
0.177,0.039,0.324,-5.337
0.190,0.042,0.324,-5.337
0.188,0.044,0.323,-5.337
0.217,0.043,0.321,-5.337
0.227,0.042,0.319,-5.337
0.227,0.042,0.319,-5.337
0.260,0.042,0.320,-5.337
0.266,0.042,0.321,-5.337
0.256,0.042,0.324,-5.337
0.229,0.041,0.322,-5.337
0.254,0.037,0.322,-5.337
0.229,0.036,0.322,-5.337
0.188,0.039,0.322,-5.337
0.242,0.035,0.317,-5.337
0.312,0.037,0.315,-5.337
0.311,0.039,0.319,-5.337
0.300,0.038,0.323,-5.337
0.265,0.037,0.325,-5.337
0.204,0.038,0.324,-5.337
0.188,0.039,0.324,-5.337
0.183,0.040,0.322,-5.337
0.177,0.040,0.322,-5.337
0.178,0.040,0.324,-5.337
0.168,0.038,0.326,-5.337
0.170,0.038,0.323,-5.337
0.151,0.038,0.317,-5.337
0.130,0.036,0.314,-5.337
0.180,0.033,0.318,-5.337
0.229,0.032,0.317,-5.337
0.181,0.036,0.318,-5.337
0.163,0.037,0.318,-5.337
0.175,0.038,0.320,-5.337
0.206,0.036,0.320,-5.337
0.228,0.038,0.322,-5.337
0.163,0.038,0.322,-5.337
0.191,0.035,0.320,-5.337
0.187,0.032,0.323,-5.337
0.148,0.037,0.326,-5.337
0.094,0.040,0.325,-5.337
0.114,0.036,0.324,-5.337
0.227,0.035,0.324,-5.337
0.276,0.037,0.323,-5.337
0.271,0.039,0.323,-5.337
0.247,0.039,0.325,-5.337
0.232,0.040,0.326,-5.337
0.253,0.036,0.322,-5.337
0.271,0.034,0.321,-5.337
0.259,0.036,0.321,-5.337
0.167,0.040,0.325,-5.337
0.128,0.039,0.323,-5.337
0.172,0.036,0.322,-5.337
0.212,0.037,0.317,-5.337
0.165,0.038,0.317,-5.337
0.067,0.039,0.319,-5.337
0.099,0.042,0.321,-5.337
0.176,0.039,0.322,-5.337
0.182,0.035,0.323,-5.337
0.187,0.031,0.319,-5.337
0.156,0.033,0.319,-5.337
0.202,0.034,0.322,-5.337
0.180,0.036,0.324,-5.337
0.171,0.040,0.324,-5.337
0.212,0.040,0.324,-5.337
0.188,0.041,0.325,-5.337
0.111,0.042,0.321,-5.337
0.176,0.042,0.319,-5.337
0.204,0.038,0.320,-5.337
0.186,0.038,0.321,-5.337
0.252,0.035,0.321,-5.337
0.315,0.035,0.320,-5.337
0.292,0.039,0.320,-5.337
0.230,0.041,0.317,-5.337
0.250,0.041,0.316,-5.337
0.245,0.042,0.317,-5.337
0.222,0.042,0.314,-5.337
0.252,0.042,0.316,-5.337
0.279,0.039,0.320,-5.337
0.219,0.039,0.325,-5.337
0.264,0.038,0.324,-5.337
0.306,0.043,0.323,-5.337
0.190,0.045,0.322,-5.337
0.093,0.044,0.322,-5.337
0.163,0.039,0.322,-5.337
0.212,0.038,0.321,-5.337
0.253,0.035,0.319,-5.337
0.281,0.039,0.319,-5.337
0.276,0.039,0.317,-5.337
0.256,0.038,0.317,-5.337
0.237,0.037,0.317,-5.337
0.216,0.040,0.319,-5.337
0.262,0.040,0.320,-5.337
0.228,0.037,0.320,-5.337
0.163,0.038,0.321,-5.337
0.189,0.040,0.318,-5.337
0.218,0.040,0.321,-5.337
0.110,0.042,0.324,-5.337
0.105,0.040,0.328,-5.337
0.184,0.040,0.329,-5.337
0.128,0.039,0.327,-5.337
0.096,0.038,0.323,-5.337
0.159,0.038,0.322,-5.337
0.218,0.042,0.318,-5.337
0.166,0.047,0.312,-5.337
0.203,0.044,0.309,-5.337
0.240,0.045,0.314,-5.337
0.176,0.041,0.317,-5.337
0.117,0.044,0.321,-5.337
0.075,0.045,0.324,-5.337
0.125,0.045,0.322,-5.337
0.233,0.046,0.322,-5.337
0.197,0.048,0.322,-5.337
0.175,0.049,0.322,-5.337
0.167,0.051,0.318,-5.337
0.145,0.048,0.314,-5.337
0.219,0.046,0.312,-5.337
0.227,0.044,0.314,-5.337
0.237,0.043,0.320,-5.337
0.226,0.040,0.326,-5.337
0.150,0.042,0.322,-5.337
0.073,0.045,0.322,-5.337
0.106,0.050,0.322,-5.337
0.222,0.049,0.320,-5.337
0.284,0.049,0.320,-5.337
0.221,0.049,0.319,-5.337
0.116,0.050,0.317,-5.337
0.135,0.051,0.316,-5.337
0.186,0.049,0.318,-5.337
0.101,0.051,0.322,-5.337
0.085,0.051,0.322,-5.337
0.186,0.050,0.321,-5.337
0.261,0.048,0.321,-5.337
0.258,0.052,0.325,-5.337
0.200,0.050,0.326,-5.337
0.108,0.046,0.323,-5.337
0.104,0.044,0.315,-5.337
0.177,0.044,0.312,-5.337
0.274,0.046,0.316,-5.337
0.273,0.046,0.317,-5.337
0.208,0.046,0.318,-5.337
0.221,0.045,0.321,-5.337
0.286,0.042,0.324,-5.337
0.234,0.044,0.323,-5.337
0.150,0.046,0.324,-5.337
0.165,0.045,0.321,-5.337
0.252,0.044,0.319,-5.337
0.229,0.044,0.320,-5.337
0.205,0.045,0.320,-5.337
0.226,0.039,0.320,-5.337
0.230,0.040,0.322,-5.337
0.192,0.044,0.322,-5.337
0.213,0.047,0.319,-5.337
0.256,0.046,0.318,-5.337
0.239,0.045,0.321,-5.337
0.139,0.047,0.323,-5.337
0.114,0.047,0.317,-5.337
0.133,0.047,0.314,-5.337
0.127,0.046,0.317,-5.337
0.223,0.043,0.318,-5.337
0.273,0.043,0.318,-5.337
0.191,0.046,0.323,-5.337
0.154,0.048,0.325,-5.337
0.178,0.050,0.324,-5.337
0.195,0.050,0.323,-5.337
0.181,0.048,0.323,-5.337
0.216,0.044,0.318,-5.337
0.207,0.048,0.318,-5.337
0.134,0.048,0.318,-5.337
0.135,0.045,0.319,-5.337
0.244,0.044,0.321,-5.337
0.276,0.045,0.321,-5.337
0.215,0.046,0.319,-5.337
0.241,0.050,0.320,-5.337
0.264,0.047,0.321,-5.337
0.214,0.048,0.321,-5.337
0.122,0.050,0.318,-5.337
0.069,0.051,0.317,-5.337
0.048,0.051,0.316,-5.337
0.079,0.052,0.318,-5.337
0.167,0.054,0.323,-5.337
0.194,0.056,0.323,-5.337
0.192,0.054,0.320,-5.337
0.224,0.052,0.316,-5.337
0.231,0.055,0.313,-5.337
0.195,0.054,0.313,-5.337
0.205,0.051,0.317,-5.337
0.242,0.051,0.319,-5.337
0.250,0.052,0.322,-5.337
0.218,0.049,0.322,-5.337
0.202,0.049,0.323,-5.337
0.220,0.050,0.320,-5.337
0.164,0.053,0.317,-5.337
0.065,0.057,0.317,-5.337
0.090,0.057,0.316,-5.337
0.125,0.055,0.315,-5.337
0.139,0.056,0.320,-5.337
0.204,0.056,0.325,-5.337
0.209,0.056,0.323,-5.337
0.237,0.053,0.317,-5.337
0.277,0.054,0.316,-5.337
0.234,0.058,0.318,-5.337
0.151,0.060,0.320,-5.337
0.200,0.053,0.320,-5.337
0.231,0.052,0.316,-5.337
0.197,0.054,0.313,-5.337
0.169,0.054,0.318,-5.337
0.201,0.054,0.323,-5.337
0.206,0.054,0.323,-5.337
0.193,0.056,0.320,-5.337
0.256,0.053,0.316,-5.337
0.254,0.052,0.313,-5.337
0.223,0.052,0.312,-5.337
0.192,0.053,0.321,-5.337
0.172,0.056,0.323,-5.337
0.181,0.059,0.320,-5.337
0.223,0.054,0.318,-5.337
0.235,0.056,0.317,-5.337
0.156,0.058,0.319,-5.337
0.121,0.055,0.320,-5.337
0.167,0.052,0.321,-5.337
0.158,0.051,0.320,-5.337
0.176,0.055,0.317,-5.337
0.200,0.056,0.315,-5.337
0.189,0.054,0.319,-5.337
0.252,0.053,0.322,-5.337
0.262,0.055,0.319,-5.337
0.196,0.059,0.318,-5.337
0.173,0.059,0.318,-5.337
0.140,0.062,0.316,-5.337
0.116,0.064,0.313,-5.337
0.167,0.064,0.318,-5.337
0.236,0.063,0.322,-5.337
0.224,0.065,0.323,-5.337
0.115,0.063,0.325,-5.337
0.160,0.061,0.325,-5.337
0.290,0.054,0.325,-5.337
0.299,0.055,0.324,-5.337
0.199,0.060,0.320,-5.337
0.156,0.061,0.313,-5.337
0.177,0.058,0.311,-5.337
0.158,0.058,0.315,-5.337
0.149,0.058,0.320,-5.337
0.195,0.055,0.321,-5.337
0.200,0.057,0.317,-5.337
0.182,0.054,0.313,-5.337
0.141,0.054,0.317,-5.337
0.213,0.050,0.321,-5.337
0.315,0.051,0.323,-5.337
0.269,0.053,0.320,-5.337
0.263,0.052,0.320,-5.337
0.236,0.056,0.320,-5.337
0.255,0.060,0.320,-5.337
0.283,0.058,0.322,-5.337
0.309,0.057,0.324,-5.337
0.265,0.055,0.325,-5.337
0.233,0.059,0.325,-5.337
0.131,0.060,0.321,-5.337
0.063,0.063,0.318,-5.337
0.128,0.064,0.317,-5.337
0.198,0.062,0.316,-5.337
0.169,0.060,0.316,-5.337
0.203,0.059,0.318,-5.337
0.186,0.060,0.318,-5.337
0.159,0.062,0.316,-5.337
0.226,0.059,0.317,-5.337
0.297,0.057,0.318,-5.337
0.326,0.057,0.321,-5.337
0.295,0.061,0.324,-5.337
0.288,0.060,0.323,-5.337
0.285,0.057,0.324,-5.337
0.253,0.056,0.324,-5.337
0.267,0.055,0.322,-5.337
0.269,0.059,0.323,-5.337
0.303,0.057,0.321,-5.337
0.306,0.054,0.317,-5.337
0.271,0.054,0.317,-5.337
0.198,0.059,0.320,-5.337
0.154,0.058,0.328,-5.337
0.138,0.061,0.326,-5.337
0.152,0.062,0.319,-5.337
0.181,0.060,0.312,-5.337
0.134,0.062,0.312,-5.337
0.190,0.062,0.314,-5.337
0.233,0.061,0.317,-5.337
0.243,0.058,0.319,-5.337
0.198,0.058,0.320,-5.337
0.194,0.059,0.320,-5.337
0.163,0.059,0.322,-5.337
0.176,0.060,0.325,-5.337
0.205,0.063,0.320,-5.337
0.181,0.064,0.316,-5.337
0.220,0.062,0.317,-5.337
0.193,0.060,0.320,-5.337
0.118,0.064,0.323,-5.337
0.152,0.061,0.326,-5.337
0.249,0.057,0.325,-5.337
0.252,0.056,0.320,-5.337
0.193,0.055,0.316,-5.337
0.137,0.056,0.318,-5.337
0.230,0.054,0.319,-5.337
0.302,0.052,0.320,-5.337
0.243,0.052,0.319,-5.337
0.160,0.053,0.322,-5.337
0.152,0.057,0.324,-5.337
0.219,0.058,0.323,-5.337
0.222,0.056,0.320,-5.337
0.214,0.057,0.318,-5.337
0.166,0.055,0.316,-5.337
0.154,0.060,0.314,-5.337
0.142,0.061,0.316,-5.337
0.228,0.057,0.317,-5.337
0.306,0.054,0.318,-5.337
0.286,0.055,0.316,-5.337
0.244,0.055,0.314,-5.337
0.303,0.055,0.317,-5.337
0.289,0.052,0.323,-5.337
0.243,0.055,0.324,-5.337
0.212,0.059,0.323,-5.337
0.234,0.059,0.320,-5.337
0.176,0.056,0.318,-5.337
0.190,0.053,0.318,-5.337
0.227,0.054,0.322,-5.337
0.274,0.056,0.323,-5.337
0.282,0.054,0.321,-5.337
0.216,0.051,0.317,-5.337
0.219,0.053,0.316,-5.337
0.261,0.053,0.320,-5.337
0.291,0.051,0.319,-5.337
0.325,0.048,0.316,-5.337
0.253,0.054,0.316,-5.337
0.211,0.053,0.318,-5.337
0.223,0.053,0.326,-5.337
0.202,0.052,0.328,-5.337
0.192,0.054,0.321,-5.337
0.192,0.052,0.317,-5.337
0.243,0.052,0.317,-5.337
0.249,0.052,0.318,-5.337
0.263,0.053,0.317,-5.337
0.257,0.055,0.316,-5.337
0.210,0.055,0.318,-5.337
0.267,0.049,0.321,-5.337
0.242,0.048,0.320,-5.337
0.211,0.048,0.318,-5.337
0.227,0.047,0.316,-5.337
0.286,0.045,0.315,-5.337
0.269,0.047,0.319,-5.337
0.232,0.048,0.323,-5.337
0.202,0.050,0.320,-5.337
0.167,0.055,0.318,-5.337
0.134,0.055,0.319,-5.337
0.177,0.053,0.319,-5.337
0.188,0.053,0.316,-5.337
0.179,0.053,0.316,-5.337
0.227,0.048,0.322,-5.337
0.318,0.047,0.327,-5.337
0.248,0.050,0.320,-5.337
0.199,0.050,0.313,-5.337
0.148,0.052,0.313,-5.337
0.127,0.056,0.319,-5.337
0.227,0.052,0.320,-5.337
0.262,0.052,0.318,-5.337
0.170,0.055,0.318,-5.337
0.068,0.052,0.318,-5.337
0.118,0.048,0.319,-5.337
0.180,0.048,0.319,-5.337
0.133,0.051,0.316,-5.337
0.125,0.050,0.318,-5.337
0.135,0.048,0.322,-5.337
0.184,0.046,0.324,-5.337
0.192,0.045,0.321,-5.337
0.209,0.047,0.314,-5.337
0.168,0.048,0.312,-5.337
0.203,0.044,0.317,-5.337
0.240,0.043,0.321,-5.337
0.205,0.044,0.319,-5.337
0.249,0.047,0.314,-5.337
0.230,0.049,0.314,-5.337
0.202,0.050,0.317,-5.337
0.212,0.047,0.316,-5.337
0.217,0.047,0.320,-5.337
0.176,0.046,0.322,-5.337
0.217,0.046,0.320,-5.337
0.265,0.047,0.320,-5.337
0.164,0.053,0.322,-5.337
0.188,0.053,0.321,-5.337
0.192,0.052,0.316,-5.337
0.210,0.048,0.317,-5.337
0.256,0.047,0.317,-5.337
0.206,0.045,0.315,-5.337
0.182,0.041,0.315,-5.337
0.237,0.047,0.319,-5.337
0.247,0.047,0.319,-5.337
0.224,0.046,0.320,-5.337
0.252,0.043,0.322,-5.337
0.324,0.042,0.324,-5.337
0.274,0.047,0.324,-5.337
0.224,0.047,0.323,-5.337
0.267,0.043,0.322,-5.337
0.220,0.046,0.320,-5.337
0.163,0.047,0.318,-5.337
0.160,0.045,0.317,-5.337
0.229,0.044,0.318,-5.337
0.238,0.046,0.316,-5.337
0.223,0.046,0.315,-5.337
0.263,0.044,0.315,-5.337
0.305,0.042,0.317,-5.337
0.252,0.041,0.319,-5.337
0.175,0.042,0.319,-5.337
0.206,0.046,0.325,-5.337
0.237,0.046,0.326,-5.337
0.257,0.046,0.318,-5.337
0.280,0.042,0.313,-5.337
0.253,0.041,0.316,-5.337
0.133,0.046,0.320,-5.337
0.054,0.050,0.320,-5.337
0.059,0.047,0.319,-5.337
0.152,0.044,0.316,-5.337
0.220,0.043,0.320,-5.337
0.269,0.042,0.325,-5.337
0.262,0.046,0.324,-5.337
0.204,0.047,0.320,-5.337
0.195,0.046,0.320,-5.337
0.269,0.042,0.318,-5.337
0.319,0.040,0.318,-5.337
0.293,0.041,0.316,-5.337
0.258,0.042,0.316,-5.337
0.200,0.043,0.318,-5.337
0.168,0.045,0.319,-5.337
0.165,0.042,0.321,-5.337
0.264,0.040,0.321,-5.337
0.301,0.044,0.320,-5.337
0.290,0.041,0.321,-5.337
0.275,0.041,0.321,-5.337
0.221,0.041,0.317,-5.337
0.222,0.041,0.317,-5.337
0.230,0.042,0.316,-5.337
0.219,0.041,0.317,-5.337
0.294,0.040,0.322,-5.337
0.303,0.039,0.324,-5.337
0.260,0.039,0.318,-5.337
0.214,0.042,0.315,-5.337
0.203,0.044,0.316,-5.337
0.201,0.043,0.319,-5.337
0.211,0.040,0.323,-5.337
0.147,0.040,0.324,-5.337
0.131,0.041,0.323,-5.337
0.201,0.039,0.319,-5.337
0.195,0.041,0.319,-5.337
0.185,0.039,0.323,-5.337
0.149,0.041,0.318,-5.337
0.174,0.040,0.314,-5.337
0.172,0.043,0.313,-5.337
0.147,0.047,0.316,-5.337
0.170,0.043,0.315,-5.337
0.208,0.038,0.316,-5.337
0.202,0.038,0.321,-5.337
0.233,0.038,0.322,-5.337
0.244,0.039,0.321,-5.337
0.196,0.037,0.320,-5.337
0.179,0.041,0.318,-5.337
0.188,0.043,0.313,-5.337
0.213,0.042,0.317,-5.337
0.201,0.037,0.319,-5.337
0.234,0.035,0.318,-5.337
0.221,0.038,0.318,-5.337
0.186,0.043,0.322,-5.337
0.140,0.041,0.322,-5.337
0.159,0.040,0.315,-5.337
0.136,0.044,0.314,-5.337
0.179,0.049,0.318,-5.337
0.117,0.047,0.319,-5.337
0.136,0.040,0.318,-5.337
0.232,0.042,0.318,-5.337
0.217,0.044,0.319,-5.337
0.176,0.041,0.317,-5.337
0.122,0.040,0.317,-5.337
0.101,0.041,0.317,-5.337
0.150,0.043,0.319,-5.337
0.176,0.041,0.323,-5.337
0.140,0.040,0.319,-5.337
0.190,0.039,0.315,-5.337
0.297,0.037,0.315,-5.337
0.295,0.038,0.320,-5.337
0.253,0.036,0.322,-5.337
0.234,0.033,0.322,-5.337
0.254,0.036,0.318,-5.337
0.236,0.037,0.319,-5.337
0.256,0.036,0.319,-5.337
0.266,0.036,0.317,-5.337
0.237,0.030,0.316,-5.337
0.334,0.029,0.319,-5.337
0.350,0.032,0.317,-5.337
0.351,0.030,0.312,-5.337
0.337,0.031,0.312,-5.337
0.281,0.033,0.315,-5.337
0.195,0.037,0.321,-5.337
0.162,0.039,0.320,-5.337
0.151,0.037,0.319,-5.337
0.152,0.034,0.319,-5.337
0.230,0.037,0.321,-5.337
0.263,0.043,0.318,-5.337
0.247,0.039,0.316,-5.337
0.198,0.036,0.318,-5.337
0.230,0.038,0.321,-5.337
0.228,0.040,0.322,-5.337
0.247,0.041,0.318,-5.337
0.180,0.044,0.315,-5.337
0.129,0.040,0.316,-5.337
0.225,0.034,0.316,-5.337
0.233,0.038,0.321,-5.337
0.235,0.039,0.321,-5.337
0.255,0.036,0.321,-5.337
0.245,0.036,0.321,-5.337
0.241,0.037,0.320,-5.337
0.139,0.037,0.315,-5.337
0.119,0.036,0.314,-5.337
0.200,0.032,0.318,-5.337
0.319,0.034,0.320,-5.337
0.276,0.038,0.318,-5.337
0.215,0.041,0.319,-5.337
0.204,0.037,0.321,-5.337
0.257,0.035,0.319,-5.337
0.222,0.040,0.316,-5.337
0.188,0.042,0.319,-5.337
0.180,0.041,0.325,-5.337
0.174,0.039,0.324,-5.337
0.182,0.035,0.325,-5.337
0.204,0.033,0.323,-5.337
0.138,0.039,0.321,-5.337
0.170,0.040,0.321,-5.337
0.178,0.038,0.326,-5.337
0.180,0.041,0.325,-5.337
0.156,0.039,0.321,-5.337
0.194,0.036,0.316,-5.337
0.207,0.036,0.315,-5.337
0.196,0.035,0.316,-5.337
0.219,0.038,0.316,-5.337
0.155,0.038,0.317,-5.337
0.140,0.038,0.317,-5.337
0.155,0.034,0.316,-5.337
0.256,0.037,0.321,-5.337
0.257,0.042,0.321,-5.337
0.153,0.044,0.318,-5.337
0.161,0.040,0.314,-5.337
0.246,0.039,0.314,-5.337
0.283,0.037,0.318,-5.337
0.282,0.040,0.319,-5.337
0.237,0.039,0.322,-5.337
0.238,0.041,0.322,-5.337
0.260,0.038,0.323,-5.337
0.212,0.041,0.321,-5.337
0.113,0.040,0.317,-5.337
0.090,0.041,0.315,-5.337
0.163,0.040,0.319,-5.337
0.175,0.039,0.320,-5.337
0.163,0.039,0.318,-5.337
0.184,0.041,0.320,-5.337
0.205,0.043,0.322,-5.337
0.201,0.038,0.320,-5.337
0.206,0.038,0.321,-5.337
0.167,0.041,0.319,-5.337
0.105,0.042,0.321,-5.337
0.145,0.040,0.321,-5.337
0.258,0.040,0.319,-5.337
0.286,0.041,0.320,-5.337
0.218,0.043,0.322,-5.337
0.246,0.044,0.323,-5.337
0.239,0.046,0.317,-5.337
0.193,0.037,0.317,-5.337
0.250,0.036,0.320,-5.337
0.287,0.037,0.320,-5.337
0.260,0.037,0.320,-5.337
0.224,0.040,0.321,-5.337
0.159,0.041,0.320,-5.337
0.136,0.040,0.318,-5.337
0.128,0.040,0.314,-5.337
0.128,0.043,0.316,-5.337
0.146,0.042,0.317,-5.337
0.180,0.042,0.317,-5.337
0.240,0.039,0.317,-5.337
0.233,0.041,0.316,-5.337
0.179,0.044,0.320,-5.337
0.152,0.042,0.322,-5.337
0.164,0.039,0.320,-5.337
0.243,0.041,0.319,-5.337
0.228,0.045,0.321,-5.337
0.154,0.045,0.322,-5.337
0.229,0.039,0.318,-5.337
0.277,0.042,0.316,-5.337
0.263,0.046,0.315,-5.337
0.289,0.046,0.320,-5.337
0.285,0.047,0.322,-5.337
0.217,0.048,0.317,-5.337
0.208,0.046,0.312,-5.337
0.216,0.044,0.312,-5.337
0.164,0.042,0.314,-5.337
0.233,0.043,0.316,-5.337
0.245,0.040,0.319,-5.337
0.267,0.042,0.317,-5.337
0.307,0.044,0.320,-5.337
0.336,0.044,0.322,-5.337
0.313,0.043,0.324,-5.337
0.242,0.045,0.321,-5.337
0.194,0.049,0.314,-5.337
0.235,0.047,0.313,-5.337
0.215,0.049,0.316,-5.337
0.220,0.046,0.318,-5.337
0.171,0.048,0.321,-5.337
0.092,0.051,0.320,-5.337
0.121,0.051,0.318,-5.337
0.202,0.050,0.319,-5.337
0.167,0.051,0.320,-5.337
0.130,0.049,0.320,-5.337
0.126,0.049,0.318,-5.337
0.178,0.049,0.314,-5.337
0.224,0.049,0.315,-5.337
0.163,0.052,0.319,-5.337
0.097,0.050,0.319,-5.337
0.290,0.046,0.317,-5.337
0.303,0.048,0.313,-5.337
0.168,0.053,0.316,-5.337
0.098,0.053,0.318,-5.337
0.150,0.050,0.320,-5.337
0.205,0.046,0.321,-5.337
0.212,0.046,0.319,-5.337
0.264,0.046,0.317,-5.337
0.320,0.047,0.317,-5.337
0.220,0.050,0.315,-5.337
0.159,0.049,0.313,-5.337
0.171,0.048,0.313,-5.337
0.189,0.046,0.314,-5.337
0.174,0.045,0.318,-5.337
0.234,0.050,0.322,-5.337
0.220,0.053,0.322,-5.337
0.165,0.053,0.323,-5.337
0.210,0.050,0.320,-5.337
0.281,0.050,0.318,-5.337
0.271,0.049,0.318,-5.337
0.242,0.052,0.321,-5.337
0.194,0.052,0.320,-5.337
0.146,0.050,0.316,-5.337
0.112,0.048,0.315,-5.337
0.151,0.047,0.314,-5.337
0.236,0.051,0.318,-5.337
0.213,0.053,0.319,-5.337
0.194,0.052,0.321,-5.337
0.088,0.051,0.319,-5.337
0.092,0.049,0.318,-5.337
0.167,0.047,0.318,-5.337
0.198,0.048,0.319,-5.337
0.183,0.046,0.317,-5.337
0.253,0.045,0.315,-5.337
0.297,0.042,0.318,-5.337
0.278,0.045,0.321,-5.337
0.279,0.048,0.318,-5.337
0.235,0.051,0.315,-5.337
0.248,0.052,0.317,-5.337
0.317,0.049,0.321,-5.337
0.355,0.047,0.321,-5.337
0.259,0.045,0.315,-5.337
0.189,0.047,0.312,-5.337
0.255,0.051,0.314,-5.337
0.297,0.054,0.319,-5.337
0.250,0.052,0.318,-5.337
0.207,0.054,0.318,-5.337
0.214,0.058,0.315,-5.337
0.250,0.055,0.312,-5.337
0.283,0.054,0.313,-5.337
0.139,0.057,0.318,-5.337
0.077,0.057,0.324,-5.337
0.110,0.059,0.328,-5.337
0.161,0.056,0.329,-5.337
0.196,0.059,0.329,-5.337
0.164,0.058,0.321,-5.337
0.087,0.055,0.316,-5.337
0.082,0.054,0.313,-5.337
0.206,0.054,0.316,-5.337
0.201,0.054,0.319,-5.337
0.138,0.060,0.317,-5.337
0.094,0.061,0.317,-5.337
0.131,0.060,0.315,-5.337
0.176,0.057,0.315,-5.337
0.209,0.059,0.317,-5.337
0.224,0.059,0.319,-5.337
0.225,0.057,0.319,-5.337
0.215,0.057,0.322,-5.337
0.184,0.056,0.322,-5.337
0.223,0.055,0.319,-5.337
0.248,0.053,0.319,-5.337
0.273,0.055,0.323,-5.337
0.249,0.057,0.323,-5.337
0.266,0.057,0.318,-5.337
0.263,0.056,0.311,-5.337
0.215,0.058,0.311,-5.337
0.223,0.056,0.317,-5.337
0.145,0.056,0.320,-5.337
0.070,0.056,0.321,-5.337
0.122,0.060,0.322,-5.337
0.125,0.058,0.320,-5.337
0.210,0.053,0.320,-5.337
0.231,0.051,0.319,-5.337
0.261,0.054,0.318,-5.337
0.231,0.057,0.320,-5.337
0.239,0.056,0.321,-5.337
0.196,0.055,0.322,-5.337
0.142,0.058,0.319,-5.337
0.130,0.058,0.320,-5.337
0.121,0.060,0.321,-5.337
0.140,0.056,0.322,-5.337
0.207,0.054,0.318,-5.337
0.181,0.057,0.317,-5.337
0.077,0.061,0.320,-5.337
0.110,0.061,0.320,-5.337
0.193,0.054,0.315,-5.337
0.262,0.055,0.316,-5.337
0.209,0.059,0.315,-5.337
0.131,0.062,0.317,-5.337
0.184,0.056,0.319,-5.337
0.214,0.056,0.317,-5.337
0.199,0.057,0.313,-5.337
0.201,0.056,0.316,-5.337
0.204,0.060,0.322,-5.337
0.196,0.058,0.324,-5.337
0.196,0.060,0.323,-5.337
0.171,0.058,0.319,-5.337
0.185,0.060,0.316,-5.337
0.181,0.059,0.316,-5.337
0.252,0.055,0.316,-5.337
0.210,0.056,0.314,-5.337
0.113,0.059,0.317,-5.337
0.088,0.060,0.321,-5.337
0.153,0.060,0.324,-5.337
0.257,0.055,0.320,-5.337
0.258,0.054,0.319,-5.337
0.234,0.056,0.316,-5.337
0.209,0.057,0.315,-5.337
0.208,0.056,0.313,-5.337
0.213,0.054,0.313,-5.337
0.205,0.054,0.315,-5.337
0.165,0.057,0.316,-5.337
0.092,0.057,0.316,-5.337
0.112,0.059,0.315,-5.337
0.219,0.057,0.312,-5.337
0.234,0.057,0.312,-5.337
0.266,0.053,0.314,-5.337
0.278,0.055,0.318,-5.337
0.197,0.060,0.319,-5.337
0.187,0.058,0.320,-5.337
0.305,0.055,0.320,-5.337
0.304,0.057,0.315,-5.337
0.284,0.058,0.316,-5.337
0.371,0.059,0.317,-5.337
0.326,0.059,0.317,-5.337
0.221,0.061,0.316,-5.337
0.229,0.062,0.319,-5.337
0.227,0.061,0.317,-5.337
0.235,0.057,0.316,-5.337
0.245,0.055,0.317,-5.337
0.233,0.057,0.319,-5.337
0.148,0.059,0.317,-5.337
0.196,0.057,0.319,-5.337
0.213,0.053,0.322,-5.337
0.166,0.057,0.321,-5.337
0.152,0.057,0.320,-5.337
0.239,0.058,0.320,-5.337
0.255,0.060,0.317,-5.337
0.227,0.061,0.312,-5.337
0.250,0.057,0.315,-5.337
0.230,0.061,0.317,-5.337
0.170,0.060,0.317,-5.337
0.209,0.055,0.315,-5.337
0.183,0.052,0.316,-5.337
0.155,0.055,0.317,-5.337
0.168,0.054,0.321,-5.337
0.216,0.053,0.322,-5.337
0.178,0.055,0.322,-5.337
0.172,0.056,0.321,-5.337
0.138,0.058,0.317,-5.337
0.113,0.060,0.313,-5.337
0.108,0.064,0.312,-5.337
0.100,0.062,0.316,-5.337
0.129,0.055,0.322,-5.337
0.141,0.057,0.321,-5.337
0.081,0.063,0.323,-5.337
0.152,0.058,0.322,-5.337
0.257,0.057,0.319,-5.337
0.168,0.063,0.318,-5.337
0.076,0.067,0.321,-5.337
0.165,0.064,0.319,-5.337
0.246,0.060,0.318,-5.337
0.251,0.058,0.320,-5.337
0.249,0.061,0.323,-5.337
0.193,0.064,0.321,-5.337
0.152,0.062,0.321,-5.337
0.252,0.056,0.319,-5.337
0.296,0.055,0.317,-5.337
0.244,0.059,0.317,-5.337
0.222,0.059,0.316,-5.337
0.219,0.058,0.316,-5.337
0.292,0.054,0.318,-5.337
0.233,0.061,0.321,-5.337
0.218,0.062,0.323,-5.337
0.243,0.061,0.325,-5.337
0.263,0.057,0.318,-5.337
0.306,0.055,0.315,-5.337
0.265,0.058,0.314,-5.337
0.207,0.060,0.314,-5.337
0.176,0.059,0.315,-5.337
0.219,0.057,0.317,-5.337
0.226,0.059,0.317,-5.337
0.175,0.061,0.320,-5.337
0.217,0.059,0.322,-5.337
0.223,0.058,0.325,-5.337
0.217,0.055,0.320,-5.337
0.173,0.059,0.315,-5.337
0.150,0.061,0.318,-5.337
0.186,0.058,0.322,-5.337
0.213,0.056,0.323,-5.337
0.169,0.058,0.321,-5.337
0.128,0.061,0.321,-5.337
0.133,0.058,0.320,-5.337
0.122,0.055,0.318,-5.337
0.166,0.052,0.315,-5.337
0.202,0.053,0.316,-5.337
0.220,0.053,0.318,-5.337
0.158,0.057,0.322,-5.337
0.170,0.055,0.321,-5.337
0.221,0.052,0.320,-5.337
0.285,0.050,0.320,-5.337
0.231,0.051,0.318,-5.337
0.159,0.051,0.314,-5.337
0.187,0.052,0.316,-5.337
0.296,0.050,0.319,-5.337
0.274,0.050,0.319,-5.337
0.202,0.053,0.324,-5.337
0.174,0.055,0.328,-5.337
0.167,0.053,0.326,-5.337
0.221,0.052,0.327,-5.337
0.178,0.051,0.327,-5.337
0.147,0.050,0.323,-5.337
0.229,0.050,0.318,-5.337
0.249,0.052,0.316,-5.337
0.268,0.052,0.318,-5.337
0.299,0.052,0.320,-5.337
0.287,0.054,0.319,-5.337
0.251,0.053,0.316,-5.337
0.221,0.050,0.316,-5.337
0.157,0.049,0.315,-5.337
0.133,0.046,0.315,-5.337
0.250,0.041,0.316,-5.337
0.346,0.042,0.320,-5.337
0.246,0.046,0.326,-5.337
0.080,0.048,0.324,-5.337
0.028,0.046,0.319,-5.337
0.135,0.044,0.318,-5.337
0.230,0.047,0.319,-5.337
0.237,0.050,0.321,-5.337
0.178,0.052,0.325,-5.337
0.244,0.050,0.323,-5.337
0.290,0.049,0.317,-5.337
0.309,0.047,0.316,-5.337
0.322,0.047,0.317,-5.337
0.289,0.048,0.315,-5.337
0.236,0.047,0.317,-5.337
0.293,0.047,0.320,-5.337
0.291,0.048,0.322,-5.337
0.223,0.047,0.321,-5.337
0.230,0.047,0.316,-5.337
0.245,0.046,0.315,-5.337
0.262,0.044,0.318,-5.337
0.153,0.047,0.318,-5.337
0.174,0.043,0.316,-5.337
0.296,0.036,0.316,-5.337
0.308,0.042,0.316,-5.337
0.206,0.044,0.316,-5.337
0.152,0.042,0.319,-5.337
0.180,0.036,0.322,-5.337
0.202,0.038,0.321,-5.337
0.252,0.037,0.320,-5.337
0.304,0.039,0.320,-5.337
0.296,0.040,0.319,-5.337
0.250,0.040,0.319,-5.337
0.211,0.042,0.318,-5.337
0.219,0.041,0.322,-5.337
0.245,0.041,0.324,-5.337
0.238,0.041,0.321,-5.337
0.269,0.040,0.320,-5.337
0.182,0.042,0.319,-5.337
0.176,0.043,0.323,-5.337
0.189,0.045,0.320,-5.337
0.206,0.048,0.317,-5.337
0.140,0.049,0.312,-5.337
0.109,0.051,0.313,-5.337
0.118,0.053,0.315,-5.337
0.185,0.049,0.317,-5.337
0.243,0.048,0.321,-5.337
0.190,0.052,0.322,-5.337
0.176,0.052,0.317,-5.337
0.133,0.049,0.313,-5.337
0.119,0.051,0.315,-5.337
0.199,0.051,0.318,-5.337
0.203,0.052,0.320,-5.337
0.106,0.049,0.321,-5.337
0.110,0.044,0.319,-5.337
0.126,0.043,0.316,-5.337
0.105,0.042,0.315,-5.337
0.100,0.044,0.319,-5.337
0.182,0.044,0.321,-5.337
0.199,0.045,0.323,-5.337
0.179,0.043,0.318,-5.337
0.227,0.038,0.316,-5.337
0.284,0.039,0.317,-5.337
0.254,0.044,0.315,-5.337
0.178,0.047,0.315,-5.337
0.155,0.046,0.319,-5.337
0.235,0.042,0.326,-5.337
0.286,0.042,0.327,-5.337
0.241,0.044,0.322,-5.337
0.215,0.041,0.318,-5.337
0.297,0.039,0.318,-5.337
0.269,0.038,0.317,-5.337
0.280,0.036,0.317,-5.337
0.296,0.034,0.319,-5.337
0.298,0.038,0.317,-5.337
0.281,0.037,0.316,-5.337
0.271,0.037,0.316,-5.337
0.341,0.033,0.316,-5.337
0.384,0.030,0.316,-5.337
0.321,0.033,0.314,-5.337
0.203,0.039,0.318,-5.337
0.154,0.042,0.322,-5.337
0.181,0.039,0.322,-5.337
0.203,0.037,0.321,-5.337
0.167,0.039,0.318,-5.337
0.067,0.045,0.319,-5.337
0.097,0.044,0.323,-5.337
0.188,0.041,0.326,-5.337
0.145,0.039,0.324,-5.337
0.068,0.043,0.318,-5.337
0.079,0.039,0.313,-5.337
0.169,0.038,0.314,-5.337
0.194,0.036,0.319,-5.337
0.215,0.033,0.323,-5.337
0.212,0.034,0.320,-5.337
0.198,0.036,0.316,-5.337
0.171,0.038,0.316,-5.337
0.165,0.038,0.318,-5.337
0.194,0.036,0.317,-5.337
0.128,0.039,0.317,-5.337
0.083,0.038,0.321,-5.337
0.191,0.036,0.323,-5.337
0.278,0.035,0.323,-5.337
0.297,0.031,0.321,-5.337
0.271,0.032,0.317,-5.337
0.153,0.036,0.320,-5.337
0.172,0.033,0.322,-5.337
0.202,0.031,0.317,-5.337
0.219,0.031,0.315,-5.337
0.228,0.034,0.312,-5.337
0.135,0.039,0.316,-5.337
0.115,0.037,0.315,-5.337
0.207,0.034,0.316,-5.337
0.211,0.038,0.317,-5.337
0.100,0.040,0.318,-5.337
0.139,0.039,0.320,-5.337
0.220,0.040,0.320,-5.337
0.201,0.040,0.319,-5.337
0.183,0.040,0.317,-5.337
0.156,0.039,0.316,-5.337
0.178,0.038,0.320,-5.337
0.279,0.033,0.320,-5.337
0.292,0.039,0.320,-5.337
0.219,0.040,0.320,-5.337
0.209,0.036,0.319,-5.337
0.244,0.033,0.318,-5.337
0.219,0.031,0.318,-5.337
0.213,0.031,0.321,-5.337
0.183,0.034,0.322,-5.337
0.181,0.034,0.324,-5.337
0.200,0.031,0.321,-5.337
0.211,0.034,0.323,-5.337
0.190,0.039,0.319,-5.337
0.083,0.041,0.317,-5.337
0.103,0.038,0.320,-5.337
0.146,0.034,0.322,-5.337
0.184,0.034,0.322,-5.337
0.195,0.037,0.319,-5.337
0.215,0.035,0.316,-5.337
0.151,0.037,0.314,-5.337
0.111,0.038,0.314,-5.337
0.117,0.039,0.316,-5.337
0.155,0.037,0.319,-5.337
0.170,0.037,0.320,-5.337
0.153,0.037,0.322,-5.337
0.122,0.038,0.322,-5.337
0.175,0.036,0.320,-5.337
0.214,0.040,0.320,-5.337
0.244,0.040,0.318,-5.337
0.220,0.042,0.319,-5.337
0.231,0.041,0.320,-5.337
0.222,0.038,0.322,-5.337
0.181,0.039,0.320,-5.337
0.140,0.041,0.317,-5.337
0.166,0.040,0.318,-5.337
0.212,0.038,0.314,-5.337
0.159,0.039,0.313,-5.337
0.189,0.032,0.313,-5.337
0.293,0.032,0.317,-5.337
0.329,0.031,0.317,-5.337
0.285,0.032,0.317,-5.337
0.222,0.033,0.316,-5.337
0.230,0.032,0.319,-5.337
0.232,0.033,0.321,-5.337
0.233,0.035,0.319,-5.337
0.191,0.041,0.316,-5.337
0.129,0.039,0.315,-5.337
0.171,0.036,0.318,-5.337
0.193,0.036,0.322,-5.337
0.172,0.035,0.321,-5.337
0.136,0.036,0.319,-5.337
0.183,0.036,0.317,-5.337
0.240,0.037,0.317,-5.337
0.262,0.037,0.319,-5.337
0.303,0.036,0.317,-5.337
0.278,0.036,0.316,-5.337
0.271,0.037,0.314,-5.337
0.168,0.042,0.319,-5.337
0.155,0.039,0.322,-5.337
0.169,0.036,0.320,-5.337
0.150,0.035,0.317,-5.337
0.158,0.035,0.315,-5.337
0.226,0.033,0.315,-5.337
0.236,0.033,0.316,-5.337
0.257,0.032,0.315,-5.337
0.261,0.032,0.316,-5.337
0.218,0.032,0.318,-5.337
0.202,0.034,0.319,-5.337
0.244,0.031,0.319,-5.337
0.196,0.036,0.319,-5.337
0.155,0.036,0.317,-5.337
0.192,0.036,0.315,-5.337
0.193,0.038,0.316,-5.337
0.162,0.035,0.319,-5.337
0.105,0.035,0.315,-5.337
0.176,0.035,0.313,-5.337
0.142,0.036,0.315,-5.337
0.055,0.036,0.318,-5.337
0.133,0.033,0.321,-5.337
0.231,0.035,0.321,-5.337
0.246,0.036,0.324,-5.337
0.246,0.036,0.323,-5.337
0.289,0.035,0.322,-5.337
0.273,0.034,0.317,-5.337
0.256,0.037,0.313,-5.337
0.292,0.035,0.311,-5.337
0.230,0.038,0.315,-5.337
0.173,0.036,0.319,-5.337
0.164,0.035,0.323,-5.337
0.244,0.032,0.325,-5.337
0.272,0.034,0.320,-5.337
0.174,0.034,0.316,-5.337
0.144,0.037,0.315,-5.337
0.143,0.038,0.316,-5.337
0.079,0.040,0.318,-5.337
0.084,0.037,0.320,-5.337
0.142,0.036,0.322,-5.337
0.075,0.036,0.321,-5.337
0.059,0.038,0.319,-5.337
0.142,0.040,0.321,-5.337
0.206,0.039,0.322,-5.337
0.128,0.036,0.319,-5.337
0.086,0.039,0.313,-5.337
0.135,0.041,0.318,-5.337
0.160,0.041,0.323,-5.337
0.226,0.037,0.320,-5.337
0.231,0.035,0.314,-5.337
0.211,0.039,0.317,-5.337
0.228,0.043,0.320,-5.337
0.244,0.042,0.323,-5.337
0.284,0.040,0.323,-5.337
0.328,0.042,0.323,-5.337
0.259,0.040,0.319,-5.337
0.169,0.041,0.318,-5.337
0.162,0.034,0.317,-5.337
0.213,0.035,0.316,-5.337
0.179,0.042,0.317,-5.337
0.214,0.041,0.319,-5.337
0.241,0.038,0.321,-5.337
0.213,0.038,0.319,-5.337
0.248,0.040,0.318,-5.337
0.264,0.041,0.321,-5.337
0.212,0.037,0.324,-5.337
0.203,0.036,0.322,-5.337
0.277,0.035,0.319,-5.337
0.316,0.039,0.314,-5.337
0.293,0.041,0.315,-5.337
0.211,0.042,0.318,-5.337
0.231,0.040,0.323,-5.337
0.232,0.042,0.321,-5.337
0.230,0.043,0.319,-5.337
0.194,0.043,0.317,-5.337
0.218,0.041,0.317,-5.337
0.221,0.041,0.316,-5.337
0.216,0.042,0.319,-5.337
0.257,0.040,0.322,-5.337
0.237,0.041,0.320,-5.337
0.178,0.038,0.317,-5.337
0.173,0.034,0.316,-5.337
0.207,0.035,0.319,-5.337
0.224,0.040,0.322,-5.337
0.171,0.042,0.323,-5.337
0.127,0.039,0.320,-5.337
0.073,0.042,0.314,-5.337
0.093,0.044,0.315,-5.337
0.131,0.045,0.320,-5.337
0.145,0.045,0.319,-5.337
0.097,0.045,0.317,-5.337
0.030,0.046,0.318,-5.337
0.119,0.043,0.322,-5.337
0.232,0.038,0.319,-5.337
0.133,0.044,0.318,-5.337
0.073,0.048,0.316,-5.337
0.167,0.043,0.319,-5.337
0.220,0.038,0.319,-5.337
0.249,0.042,0.320,-5.337
0.234,0.044,0.320,-5.337
0.254,0.046,0.320,-5.337
0.230,0.044,0.321,-5.337
0.216,0.047,0.321,-5.337
0.211,0.045,0.323,-5.337
0.204,0.045,0.322,-5.337
0.175,0.045,0.319,-5.337
0.152,0.046,0.318,-5.337
0.127,0.047,0.316,-5.337
0.062,0.049,0.316,-5.337
0.013,0.047,0.315,-5.337
0.069,0.047,0.319,-5.337
0.230,0.047,0.317,-5.337
0.281,0.048,0.314,-5.337
0.203,0.045,0.315,-5.337
0.073,0.046,0.317,-5.337
0.112,0.043,0.318,-5.337
0.190,0.041,0.319,-5.337
0.262,0.041,0.321,-5.337
0.263,0.045,0.318,-5.337
0.244,0.044,0.319,-5.337
0.243,0.040,0.319,-5.337
0.271,0.042,0.320,-5.337
0.231,0.042,0.319,-5.337
0.231,0.044,0.318,-5.337
0.246,0.045,0.314,-5.337
0.092,0.051,0.314,-5.337
0.117,0.048,0.319,-5.337
0.240,0.046,0.318,-5.337
0.231,0.049,0.317,-5.337
0.192,0.049,0.316,-5.337
0.186,0.049,0.318,-5.337
0.221,0.047,0.318,-5.337
0.226,0.043,0.318,-5.337
0.242,0.042,0.318,-5.337
0.239,0.044,0.319,-5.337
0.219,0.042,0.317,-5.337
0.234,0.043,0.319,-5.337
0.212,0.046,0.316,-5.337
0.227,0.049,0.317,-5.337
0.213,0.048,0.318,-5.337
0.183,0.049,0.317,-5.337
0.197,0.047,0.315,-5.337
0.276,0.049,0.316,-5.337
0.302,0.050,0.316,-5.337
0.197,0.052,0.316,-5.337
0.220,0.048,0.313,-5.337
0.241,0.051,0.315,-5.337
0.191,0.052,0.319,-5.337
0.188,0.052,0.322,-5.337
0.208,0.048,0.321,-5.337
0.192,0.049,0.319,-5.337
0.132,0.053,0.322,-5.337
0.205,0.052,0.322,-5.337
0.211,0.055,0.317,-5.337
0.114,0.051,0.314,-5.337
0.128,0.050,0.318,-5.337
0.177,0.050,0.320,-5.337
0.148,0.057,0.317,-5.337
0.129,0.055,0.314,-5.337
0.197,0.053,0.319,-5.337
0.181,0.052,0.322,-5.337
0.198,0.051,0.325,-5.337
0.187,0.052,0.314,-5.337
0.130,0.056,0.312,-5.337
0.145,0.057,0.313,-5.337
0.159,0.058,0.312,-5.337
0.144,0.056,0.312,-5.337
0.172,0.055,0.319,-5.337
0.271,0.051,0.324,-5.337
0.233,0.050,0.325,-5.337
0.180,0.050,0.323,-5.337
0.185,0.050,0.317,-5.337
0.179,0.053,0.312,-5.337
0.251,0.055,0.314,-5.337
0.209,0.058,0.321,-5.337
0.171,0.061,0.322,-5.337
0.220,0.057,0.317,-5.337
0.218,0.057,0.313,-5.337
0.226,0.059,0.313,-5.337
0.213,0.060,0.314,-5.337
0.180,0.058,0.314,-5.337
0.167,0.057,0.320,-5.337
0.163,0.058,0.321,-5.337
0.147,0.055,0.320,-5.337
0.135,0.054,0.324,-5.337
0.165,0.054,0.326,-5.337
0.208,0.057,0.323,-5.337
0.210,0.056,0.318,-5.337
0.165,0.055,0.314,-5.337
0.200,0.053,0.315,-5.337
0.248,0.054,0.317,-5.337
0.259,0.054,0.316,-5.337
0.209,0.056,0.318,-5.337
0.191,0.054,0.317,-5.337
0.153,0.054,0.317,-5.337
0.112,0.054,0.318,-5.337
0.172,0.056,0.321,-5.337
0.199,0.060,0.322,-5.337
0.194,0.059,0.321,-5.337
0.164,0.057,0.318,-5.337
0.168,0.059,0.317,-5.337
0.181,0.058,0.321,-5.337
0.153,0.058,0.320,-5.337
0.220,0.058,0.318,-5.337
0.267,0.058,0.316,-5.337
0.260,0.055,0.316,-5.337
0.272,0.056,0.315,-5.337
0.236,0.059,0.318,-5.337
0.217,0.060,0.318,-5.337
0.236,0.055,0.318,-5.337
0.322,0.051,0.317,-5.337
0.330,0.053,0.314,-5.337
0.252,0.054,0.319,-5.337
0.249,0.056,0.324,-5.337
0.272,0.058,0.324,-5.337
0.205,0.061,0.320,-5.337
0.150,0.060,0.319,-5.337
0.149,0.058,0.324,-5.337
0.057,0.059,0.325,-5.337
0.121,0.056,0.320,-5.337
0.194,0.053,0.318,-5.337
0.186,0.057,0.316,-5.337
0.189,0.057,0.316,-5.337
0.215,0.056,0.315,-5.337
0.224,0.054,0.317,-5.337
0.257,0.055,0.315,-5.337
0.272,0.058,0.316,-5.337
0.209,0.057,0.313,-5.337
0.165,0.060,0.316,-5.337
0.144,0.061,0.318,-5.337
0.155,0.065,0.320,-5.337
0.228,0.060,0.319,-5.337
0.294,0.059,0.319,-5.337
0.266,0.058,0.321,-5.337
0.215,0.060,0.321,-5.337
0.234,0.062,0.322,-5.337
0.202,0.061,0.323,-5.337
0.143,0.060,0.321,-5.337
0.151,0.057,0.319,-5.337
0.201,0.059,0.316,-5.337
0.157,0.063,0.314,-5.337
0.122,0.062,0.313,-5.337
0.093,0.062,0.313,-5.337
0.093,0.060,0.315,-5.337
0.140,0.059,0.321,-5.337
0.217,0.057,0.325,-5.337
0.244,0.056,0.323,-5.337
0.228,0.056,0.320,-5.337
0.157,0.061,0.318,-5.337
0.069,0.063,0.316,-5.337
0.158,0.057,0.311,-5.337
0.273,0.055,0.313,-5.337
0.274,0.060,0.315,-5.337
0.201,0.062,0.317,-5.337
0.259,0.059,0.317,-5.337
0.342,0.058,0.321,-5.337
0.289,0.059,0.321,-5.337
0.206,0.063,0.317,-5.337
0.224,0.059,0.317,-5.337
0.272,0.059,0.318,-5.337
0.214,0.057,0.316,-5.337
0.126,0.058,0.313,-5.337
0.181,0.055,0.314,-5.337
0.208,0.057,0.319,-5.337
0.174,0.056,0.321,-5.337
0.177,0.055,0.322,-5.337
0.157,0.054,0.320,-5.337
0.172,0.055,0.317,-5.337
0.181,0.055,0.317,-5.337
0.171,0.056,0.318,-5.337
0.096,0.056,0.319,-5.337
0.110,0.054,0.317,-5.337
0.184,0.056,0.320,-5.337
0.217,0.058,0.324,-5.337
0.237,0.056,0.323,-5.337
0.223,0.060,0.317,-5.337
0.196,0.061,0.316,-5.337
0.200,0.057,0.314,-5.337
0.235,0.055,0.315,-5.337
0.207,0.057,0.314,-5.337
0.144,0.059,0.318,-5.337
0.199,0.055,0.324,-5.337
0.208,0.056,0.324,-5.337
0.192,0.054,0.318,-5.337
0.190,0.051,0.313,-5.337
0.198,0.052,0.312,-5.337
0.218,0.052,0.313,-5.337
0.297,0.049,0.313,-5.337
0.318,0.053,0.315,-5.337
0.277,0.053,0.321,-5.337
0.265,0.054,0.323,-5.337
0.227,0.055,0.320,-5.337
0.240,0.052,0.318,-5.337
0.289,0.052,0.317,-5.337
0.288,0.049,0.316,-5.337
0.255,0.047,0.318,-5.337
0.160,0.048,0.319,-5.337
0.118,0.049,0.318,-5.337
0.156,0.049,0.316,-5.337
0.197,0.048,0.318,-5.337
0.194,0.050,0.318,-5.337
0.172,0.052,0.320,-5.337
0.161,0.053,0.320,-5.337
0.204,0.054,0.319,-5.337
0.158,0.059,0.322,-5.337
0.040,0.061,0.318,-5.337
0.090,0.058,0.316,-5.337
0.188,0.056,0.319,-5.337
0.291,0.052,0.321,-5.337
0.348,0.050,0.320,-5.337
0.300,0.050,0.319,-5.337
0.264,0.051,0.319,-5.337
0.233,0.048,0.318,-5.337
0.243,0.046,0.316,-5.337
0.261,0.046,0.319,-5.337
0.236,0.046,0.322,-5.337
0.217,0.053,0.325,-5.337
0.219,0.051,0.321,-5.337
0.151,0.050,0.317,-5.337
0.136,0.048,0.316,-5.337
0.222,0.049,0.319,-5.337
0.226,0.051,0.319,-5.337
0.225,0.052,0.320,-5.337
0.168,0.052,0.320,-5.337
0.151,0.051,0.318,-5.337
0.238,0.048,0.318,-5.337
0.334,0.050,0.319,-5.337
0.309,0.050,0.321,-5.337
0.180,0.051,0.324,-5.337
0.114,0.050,0.323,-5.337
0.119,0.048,0.322,-5.337
0.146,0.045,0.320,-5.337
0.186,0.045,0.317,-5.337
0.195,0.044,0.314,-5.337
0.194,0.042,0.317,-5.337
0.219,0.044,0.322,-5.337
0.250,0.041,0.322,-5.337
0.220,0.042,0.322,-5.337
0.201,0.043,0.322,-5.337
0.198,0.043,0.323,-5.337
0.139,0.043,0.319,-5.337
0.144,0.043,0.318,-5.337
0.170,0.048,0.319,-5.337
0.219,0.052,0.320,-5.337
0.205,0.053,0.318,-5.337
0.186,0.051,0.317,-5.337
0.164,0.051,0.319,-5.337
0.199,0.051,0.317,-5.337
0.203,0.043,0.318,-5.337
0.200,0.042,0.322,-5.337
0.196,0.044,0.324,-5.337
0.175,0.046,0.321,-5.337
0.192,0.045,0.321,-5.337
0.208,0.039,0.320,-5.337
0.186,0.039,0.320,-5.337
0.176,0.043,0.321,-5.337
0.240,0.041,0.324,-5.337
0.224,0.042,0.323,-5.337
0.183,0.039,0.320,-5.337
0.212,0.038,0.321,-5.337
0.234,0.043,0.322,-5.337
0.173,0.046,0.320,-5.337
0.148,0.046,0.318,-5.337
0.161,0.045,0.316,-5.337
0.228,0.044,0.317,-5.337
0.188,0.044,0.317,-5.337
0.147,0.043,0.320,-5.337
0.216,0.042,0.320,-5.337
0.290,0.047,0.319,-5.337
0.225,0.048,0.320,-5.337
0.219,0.046,0.321,-5.337
0.221,0.045,0.322,-5.337
0.180,0.044,0.319,-5.337
0.240,0.041,0.317,-5.337
0.262,0.042,0.316,-5.337
0.233,0.042,0.316,-5.337
0.230,0.044,0.317,-5.337
0.155,0.046,0.320,-5.337
0.108,0.048,0.321,-5.337
0.146,0.046,0.320,-5.337
0.189,0.043,0.319,-5.337
0.138,0.042,0.318,-5.337
0.161,0.040,0.316,-5.337
0.207,0.039,0.316,-5.337
0.211,0.038,0.317,-5.337
0.262,0.036,0.319,-5.337
0.268,0.036,0.319,-5.337
0.201,0.039,0.322,-5.337
0.193,0.037,0.321,-5.337
0.241,0.038,0.317,-5.337
0.182,0.038,0.315,-5.337
0.109,0.042,0.319,-5.337
0.229,0.039,0.323,-5.337
0.314,0.037,0.321,-5.337
0.246,0.039,0.318,-5.337
0.206,0.040,0.314,-5.337
0.210,0.040,0.312,-5.337
0.173,0.039,0.313,-5.337
0.259,0.034,0.317,-5.337
0.293,0.038,0.323,-5.337
0.214,0.041,0.321,-5.337
0.168,0.042,0.316,-5.337
0.208,0.040,0.316,-5.337
0.201,0.040,0.318,-5.337
0.200,0.040,0.317,-5.337
0.176,0.040,0.314,-5.337
0.215,0.037,0.315,-5.337
0.244,0.038,0.318,-5.337
0.177,0.044,0.322,-5.337
0.197,0.043,0.319,-5.337
0.238,0.038,0.317,-5.337
0.257,0.038,0.317,-5.337
0.233,0.042,0.321,-5.337
0.221,0.041,0.320,-5.337
0.189,0.042,0.323,-5.337
0.166,0.043,0.322,-5.337
0.171,0.045,0.319,-5.337
0.188,0.045,0.315,-5.337
0.250,0.041,0.312,-5.337
0.281,0.034,0.315,-5.337
0.172,0.036,0.318,-5.337
0.170,0.038,0.315,-5.337
0.297,0.035,0.313,-5.337
0.383,0.034,0.315,-5.337
0.320,0.040,0.318,-5.337
0.129,0.041,0.319,-5.337
0.130,0.037,0.321,-5.337
0.280,0.032,0.320,-5.337
0.310,0.032,0.318,-5.337
0.232,0.034,0.321,-5.337
0.257,0.034,0.320,-5.337
0.267,0.035,0.321,-5.337
0.158,0.035,0.323,-5.337
0.108,0.036,0.325,-5.337
0.185,0.039,0.321,-5.337
0.172,0.043,0.316,-5.337
0.120,0.042,0.315,-5.337
0.146,0.040,0.318,-5.337
0.187,0.036,0.318,-5.337
0.178,0.035,0.318,-5.337
0.181,0.032,0.317,-5.337
0.186,0.036,0.315,-5.337
0.239,0.034,0.317,-5.337
0.266,0.035,0.320,-5.337
0.247,0.034,0.316,-5.337
0.263,0.035,0.315,-5.337
0.220,0.037,0.316,-5.337
0.181,0.039,0.317,-5.337
0.155,0.041,0.315,-5.337
0.155,0.039,0.313,-5.337
0.222,0.036,0.316,-5.337
0.238,0.038,0.320,-5.337
0.197,0.041,0.323,-5.337
0.180,0.042,0.323,-5.337
0.215,0.038,0.321,-5.337
0.258,0.040,0.319,-5.337
0.259,0.042,0.319,-5.337
0.266,0.042,0.318,-5.337
0.265,0.041,0.316,-5.337
0.206,0.039,0.309,-5.337
0.157,0.040,0.310,-5.337
0.178,0.041,0.316,-5.337
0.199,0.042,0.319,-5.337
0.209,0.036,0.319,-5.337
0.270,0.033,0.318,-5.337
0.240,0.040,0.321,-5.337
0.193,0.040,0.327,-5.337
0.234,0.039,0.327,-5.337
0.200,0.039,0.323,-5.337
0.217,0.037,0.318,-5.337
0.244,0.036,0.314,-5.337
0.205,0.038,0.312,-5.337
0.177,0.039,0.315,-5.337
0.178,0.037,0.318,-5.337
0.192,0.037,0.319,-5.337
0.155,0.036,0.325,-5.337
0.177,0.035,0.325,-5.337
0.216,0.035,0.323,-5.337
0.220,0.035,0.316,-5.337
0.241,0.034,0.316,-5.337
0.215,0.033,0.315,-5.337
0.261,0.033,0.315,-5.337
0.311,0.033,0.315,-5.337
0.265,0.032,0.315,-5.337
0.274,0.029,0.314,-5.337
0.250,0.031,0.317,-5.337
0.209,0.032,0.320,-5.337
0.263,0.032,0.322,-5.337
0.236,0.031,0.324,-5.337
0.172,0.032,0.324,-5.337
0.152,0.031,0.320,-5.337
0.159,0.029,0.317,-5.337
0.209,0.028,0.315,-5.337
0.217,0.028,0.316,-5.337
0.173,0.028,0.318,-5.337
0.222,0.032,0.314,-5.337
0.164,0.038,0.315,-5.337
0.112,0.039,0.314,-5.337
0.100,0.037,0.316,-5.337
0.106,0.036,0.319,-5.337
0.131,0.041,0.321,-5.337
0.163,0.040,0.320,-5.337
0.278,0.033,0.321,-5.337
0.272,0.035,0.320,-5.337
0.255,0.040,0.321,-5.337
0.188,0.040,0.322,-5.337
0.161,0.039,0.320,-5.337
0.180,0.036,0.315,-5.337
0.178,0.037,0.313,-5.337
0.203,0.036,0.316,-5.337
0.229,0.035,0.318,-5.337
0.226,0.034,0.317,-5.337
0.250,0.033,0.319,-5.337
0.267,0.038,0.320,-5.337
0.284,0.035,0.322,-5.337
0.264,0.033,0.321,-5.337
0.261,0.034,0.318,-5.337
0.300,0.033,0.315,-5.337
0.266,0.040,0.312,-5.337
0.237,0.041,0.312,-5.337
0.233,0.039,0.314,-5.337
0.280,0.037,0.317,-5.337
0.281,0.037,0.319,-5.337
0.235,0.035,0.319,-5.337
0.249,0.035,0.317,-5.337
0.282,0.039,0.318,-5.337
0.248,0.038,0.318,-5.337
0.178,0.040,0.321,-5.337
0.205,0.041,0.321,-5.337
0.297,0.039,0.320,-5.337
0.243,0.037,0.315,-5.337
0.125,0.041,0.312,-5.337
0.049,0.036,0.315,-5.337
0.099,0.036,0.318,-5.337
0.157,0.037,0.318,-5.337
0.160,0.041,0.317,-5.337
0.115,0.037,0.318,-5.337
0.197,0.037,0.319,-5.337
0.256,0.035,0.318,-5.337
0.249,0.033,0.318,-5.337
0.240,0.032,0.319,-5.337
0.287,0.032,0.318,-5.337
0.269,0.035,0.319,-5.337
0.222,0.037,0.317,-5.337
0.229,0.036,0.315,-5.337
0.213,0.036,0.311,-5.337
0.166,0.038,0.314,-5.337
0.128,0.040,0.317,-5.337
0.196,0.037,0.320,-5.337
0.345,0.037,0.319,-5.337
0.252,0.038,0.319,-5.337
0.101,0.041,0.316,-5.337
0.137,0.042,0.316,-5.337
0.194,0.037,0.317,-5.337
0.225,0.038,0.318,-5.337
0.219,0.037,0.315,-5.337
0.180,0.037,0.312,-5.337
0.106,0.038,0.313,-5.337
0.144,0.037,0.317,-5.337
0.191,0.040,0.322,-5.337
0.225,0.041,0.325,-5.337
0.246,0.038,0.324,-5.337
0.212,0.039,0.317,-5.337
0.208,0.042,0.314,-5.337
0.155,0.043,0.316,-5.337
0.132,0.044,0.318,-5.337
0.117,0.042,0.317,-5.337
0.096,0.042,0.316,-5.337
0.153,0.045,0.314,-5.337
0.150,0.045,0.313,-5.337
0.132,0.042,0.312,-5.337
0.129,0.041,0.315,-5.337
0.164,0.041,0.316,-5.337
0.163,0.042,0.314,-5.337
0.215,0.041,0.314,-5.337
0.199,0.040,0.320,-5.337
0.156,0.044,0.324,-5.337
0.120,0.041,0.326,-5.337
0.198,0.038,0.322,-5.337
0.300,0.037,0.316,-5.337
0.299,0.039,0.313,-5.337
0.203,0.038,0.314,-5.337
0.192,0.036,0.317,-5.337
0.209,0.036,0.320,-5.337
0.232,0.036,0.320,-5.337
0.212,0.040,0.317,-5.337
0.174,0.044,0.317,-5.337
0.190,0.045,0.321,-5.337
0.216,0.047,0.324,-5.337
0.150,0.046,0.319,-5.337
0.088,0.046,0.315,-5.337
0.109,0.045,0.316,-5.337
0.103,0.047,0.319,-5.337
0.094,0.047,0.318,-5.337
0.166,0.046,0.315,-5.337
0.207,0.051,0.313,-5.337
0.209,0.051,0.317,-5.337
0.237,0.048,0.321,-5.337
0.222,0.050,0.322,-5.337
0.189,0.049,0.324,-5.337
0.163,0.050,0.326,-5.337
0.185,0.049,0.326,-5.337
0.222,0.047,0.325,-5.337
0.236,0.047,0.323,-5.337
0.274,0.045,0.319,-5.337
0.253,0.050,0.313,-5.337
0.143,0.051,0.312,-5.337
0.159,0.045,0.318,-5.337
0.240,0.043,0.323,-5.337
0.314,0.046,0.323,-5.337
0.281,0.049,0.319,-5.337
0.271,0.049,0.320,-5.337
0.239,0.051,0.319,-5.337
0.210,0.053,0.321,-5.337
0.219,0.050,0.318,-5.337
0.216,0.051,0.319,-5.337
0.187,0.049,0.320,-5.337
0.184,0.049,0.319,-5.337
0.206,0.047,0.321,-5.337
0.256,0.045,0.321,-5.337
0.233,0.046,0.317,-5.337
0.191,0.051,0.316,-5.337
0.158,0.050,0.317,-5.337
0.200,0.047,0.319,-5.337
0.254,0.047,0.316,-5.337
0.165,0.048,0.314,-5.337
0.176,0.048,0.314,-5.337
0.203,0.046,0.317,-5.337
0.163,0.047,0.320,-5.337
0.175,0.049,0.322,-5.337
0.217,0.048,0.323,-5.337
0.220,0.046,0.318,-5.337
0.218,0.045,0.319,-5.337
0.259,0.047,0.320,-5.337
0.213,0.048,0.321,-5.337
0.188,0.050,0.321,-5.337
0.223,0.047,0.321,-5.337
0.212,0.047,0.317,-5.337
0.215,0.050,0.319,-5.337
0.224,0.049,0.323,-5.337
0.229,0.049,0.321,-5.337
0.215,0.050,0.315,-5.337
0.243,0.052,0.318,-5.337
0.228,0.049,0.322,-5.337
0.172,0.050,0.322,-5.337
0.144,0.049,0.319,-5.337
0.158,0.051,0.315,-5.337
0.228,0.049,0.314,-5.337
0.230,0.047,0.317,-5.337
0.265,0.043,0.319,-5.337
0.293,0.046,0.318,-5.337
0.209,0.054,0.315,-5.337
0.180,0.053,0.315,-5.337
0.191,0.053,0.314,-5.337
0.212,0.054,0.312,-5.337
0.286,0.048,0.313,-5.337
0.291,0.048,0.317,-5.337
0.206,0.053,0.321,-5.337
0.147,0.056,0.318,-5.337
0.209,0.054,0.318,-5.337
0.243,0.050,0.317,-5.337
0.259,0.052,0.317,-5.337
0.214,0.053,0.316,-5.337
0.206,0.056,0.318,-5.337
0.131,0.056,0.319,-5.337
0.128,0.051,0.321,-5.337
0.195,0.050,0.319,-5.337
0.249,0.051,0.315,-5.337
0.262,0.054,0.315,-5.337
0.245,0.054,0.316,-5.337
0.266,0.052,0.315,-5.337
0.226,0.053,0.316,-5.337
0.230,0.050,0.317,-5.337
0.190,0.054,0.318,-5.337
0.118,0.056,0.316,-5.337
0.250,0.055,0.316,-5.337
0.300,0.060,0.313,-5.337
0.196,0.064,0.314,-5.337
0.126,0.061,0.316,-5.337
0.083,0.058,0.316,-5.337
0.067,0.057,0.316,-5.337
0.113,0.059,0.315,-5.337
0.167,0.057,0.318,-5.337
0.111,0.058,0.319,-5.337
0.044,0.062,0.319,-5.337
0.039,0.060,0.315,-5.337
0.073,0.061,0.314,-5.337
0.096,0.062,0.317,-5.337
0.128,0.058,0.320,-5.337
0.189,0.055,0.318,-5.337
0.241,0.056,0.318,-5.337
0.304,0.056,0.318,-5.337
0.303,0.061,0.317,-5.337
0.191,0.063,0.317,-5.337
0.087,0.062,0.318,-5.337
0.127,0.059,0.316,-5.337
0.277,0.058,0.316,-5.337
0.337,0.061,0.315,-5.337
0.244,0.063,0.313,-5.337
0.125,0.064,0.311,-5.337
0.166,0.062,0.315,-5.337
0.243,0.056,0.320,-5.337
0.221,0.055,0.317,-5.337
0.190,0.057,0.317,-5.337
0.167,0.055,0.321,-5.337
0.087,0.054,0.326,-5.337
0.116,0.054,0.324,-5.337
0.237,0.055,0.320,-5.337
0.237,0.055,0.317,-5.337
0.258,0.056,0.317,-5.337
0.235,0.053,0.318,-5.337
0.204,0.054,0.323,-5.337
0.225,0.055,0.322,-5.337
0.279,0.055,0.319,-5.337
0.317,0.055,0.316,-5.337
0.279,0.056,0.314,-5.337
0.242,0.053,0.316,-5.337
0.130,0.056,0.318,-5.337
0.090,0.059,0.318,-5.337
0.127,0.056,0.313,-5.337
0.122,0.060,0.311,-5.337
0.162,0.058,0.315,-5.337
0.242,0.055,0.319,-5.337
0.336,0.054,0.319,-5.337
0.319,0.056,0.321,-5.337
0.311,0.054,0.320,-5.337
0.306,0.056,0.318,-5.337
0.293,0.059,0.315,-5.337
0.220,0.062,0.316,-5.337
0.214,0.059,0.318,-5.337
0.237,0.061,0.324,-5.337
0.265,0.060,0.326,-5.337
0.296,0.060,0.326,-5.337
0.268,0.060,0.322,-5.337
0.194,0.062,0.322,-5.337
0.103,0.062,0.318,-5.337
0.103,0.059,0.314,-5.337
0.146,0.057,0.314,-5.337
0.198,0.058,0.315,-5.337
0.154,0.059,0.317,-5.337
0.115,0.057,0.316,-5.337
0.157,0.058,0.315,-5.337
0.236,0.058,0.319,-5.337
0.224,0.061,0.323,-5.337
0.163,0.061,0.324,-5.337
0.208,0.060,0.322,-5.337
0.250,0.057,0.318,-5.337
0.228,0.059,0.316,-5.337
0.149,0.063,0.316,-5.337
0.193,0.061,0.317,-5.337
0.239,0.060,0.314,-5.337
0.176,0.059,0.315,-5.337
0.223,0.059,0.315,-5.337
0.235,0.058,0.316,-5.337
0.228,0.057,0.318,-5.337
0.165,0.060,0.319,-5.337
0.187,0.057,0.319,-5.337
0.328,0.054,0.321,-5.337
0.321,0.055,0.323,-5.337
0.271,0.058,0.324,-5.337
0.160,0.058,0.321,-5.337
0.129,0.063,0.318,-5.337
0.147,0.061,0.315,-5.337
0.161,0.056,0.316,-5.337
0.207,0.059,0.319,-5.337
0.202,0.062,0.319,-5.337
0.201,0.064,0.318,-5.337
0.204,0.065,0.313,-5.337
0.106,0.065,0.312,-5.337
0.037,0.060,0.311,-5.337
0.136,0.059,0.317,-5.337
0.260,0.060,0.319,-5.337
0.234,0.059,0.323,-5.337
0.213,0.055,0.325,-5.337
0.289,0.057,0.322,-5.337
0.277,0.057,0.316,-5.337
0.258,0.055,0.315,-5.337
0.227,0.051,0.315,-5.337
0.275,0.050,0.318,-5.337
0.264,0.053,0.319,-5.337
0.216,0.058,0.320,-5.337
0.193,0.058,0.318,-5.337
0.213,0.054,0.314,-5.337
0.296,0.050,0.314,-5.337
0.241,0.054,0.316,-5.337
0.135,0.055,0.321,-5.337
0.130,0.049,0.323,-5.337
0.243,0.048,0.319,-5.337
0.271,0.051,0.314,-5.337
0.237,0.051,0.315,-5.337
0.199,0.050,0.313,-5.337
0.148,0.052,0.314,-5.337
0.179,0.054,0.317,-5.337
0.228,0.053,0.320,-5.337
0.220,0.056,0.317,-5.337
0.150,0.057,0.317,-5.337
0.152,0.053,0.318,-5.337
0.275,0.050,0.319,-5.337
0.292,0.048,0.319,-5.337
0.262,0.047,0.321,-5.337
0.232,0.045,0.319,-5.337
0.222,0.048,0.319,-5.337
0.213,0.051,0.315,-5.337
0.245,0.048,0.312,-5.337
0.286,0.046,0.315,-5.337
0.255,0.047,0.319,-5.337
0.232,0.050,0.319,-5.337
0.213,0.051,0.315,-5.337
0.187,0.049,0.317,-5.337
0.176,0.049,0.319,-5.337
0.189,0.051,0.321,-5.337
0.198,0.050,0.320,-5.337
0.177,0.050,0.318,-5.337
0.123,0.050,0.314,-5.337
0.167,0.046,0.315,-5.337
0.216,0.047,0.315,-5.337
0.264,0.051,0.313,-5.337
0.230,0.051,0.316,-5.337
0.203,0.052,0.319,-5.337
0.266,0.049,0.319,-5.337
0.304,0.044,0.317,-5.337
0.259,0.040,0.319,-5.337
0.222,0.041,0.320,-5.337
0.251,0.044,0.321,-5.337
0.230,0.049,0.322,-5.337
0.265,0.046,0.322,-5.337
0.263,0.044,0.321,-5.337
0.259,0.042,0.319,-5.337
0.238,0.047,0.319,-5.337
0.276,0.049,0.316,-5.337
0.273,0.048,0.314,-5.337
0.229,0.045,0.314,-5.337
0.245,0.045,0.316,-5.337
0.211,0.045,0.317,-5.337
0.232,0.048,0.318,-5.337
0.200,0.048,0.318,-5.337
0.189,0.046,0.316,-5.337
0.241,0.042,0.315,-5.337
0.181,0.044,0.317,-5.337
0.217,0.043,0.318,-5.337
0.281,0.043,0.318,-5.337
0.225,0.040,0.319,-5.337
0.170,0.041,0.319,-5.337
0.200,0.042,0.317,-5.337
0.178,0.044,0.312,-5.337
0.207,0.046,0.311,-5.337
0.179,0.045,0.316,-5.337
0.140,0.045,0.325,-5.337
0.170,0.044,0.328,-5.337
0.221,0.045,0.321,-5.337
0.227,0.047,0.315,-5.337
0.251,0.047,0.315,-5.337
0.211,0.046,0.317,-5.337
0.144,0.047,0.317,-5.337
0.170,0.045,0.319,-5.337
0.186,0.046,0.321,-5.337
0.107,0.048,0.318,-5.337
0.065,0.045,0.318,-5.337
0.161,0.044,0.320,-5.337
0.211,0.043,0.322,-5.337
0.207,0.042,0.321,-5.337
0.234,0.039,0.315,-5.337
0.227,0.038,0.314,-5.337
0.246,0.040,0.312,-5.337
0.262,0.036,0.313,-5.337
0.245,0.036,0.318,-5.337
0.245,0.040,0.324,-5.337
0.252,0.039,0.326,-5.337
0.167,0.044,0.326,-5.337
0.133,0.047,0.324,-5.337
0.184,0.044,0.323,-5.337
0.249,0.039,0.323,-5.337
0.241,0.042,0.322,-5.337
0.224,0.044,0.317,-5.337
0.243,0.046,0.314,-5.337
0.280,0.048,0.314,-5.337
0.333,0.048,0.317,-5.337
0.286,0.044,0.318,-5.337
0.250,0.039,0.321,-5.337
0.225,0.037,0.325,-5.337
0.235,0.039,0.324,-5.337
0.263,0.040,0.321,-5.337
0.266,0.040,0.318,-5.337
0.185,0.038,0.316,-5.337
0.188,0.033,0.316,-5.337
0.263,0.031,0.319,-5.337
0.313,0.033,0.322,-5.337
0.316,0.038,0.323,-5.337
0.225,0.040,0.323,-5.337
