[Parameters]
Operating Mode, Feedback
Subject  AA..ZZ, WT
Session  0..99, 42
No. Trials (1..9999), 500
Mouse Number, 1
Pressure Probe Serial Port, \00\00\00\04COM4
Save additional csv file, TRUE
Save using mouse number, FALSE
A/D Monitor Rate (Hz), 30000.000000
A/D Stimulate Rate (Hz), 30000.000000
A/D input range (+/- V), 5
No. Channels to acquire (N), 2
Pre-Stim Acq. time (ms), 100.000000
Post-Stim Acq. time (ms), 900.000000
Analysis window parameters.M-response Start (ms), 1.100000
Analysis window parameters.M-response Duration (ms), 5.500000
Analysis window parameters.H-response Duration (ms), 6.000000
Analysis window parameters.H-response Start (ms), 6.500000
Feedback window, H response
Proportional gain, 0.100000
Target value, 6.700000
Feedback Ch., 1
Stim Channel to Control (1-4), 4
Trial, 23
Wait for EMG Conditions, FALSE
Channel to monitor (0 - N-1), 1
EMG Hi Limit, 2.000000
EMG Lo Limit, 0.001000
Inter-Stim delay (sec), 10.000000
EMG Monitor Mode, Mean
Time to run Long Stim.(sec), 30
Save Long Stim Data?, OFF
BURST Save time (ms), 1000
BURST Save Interval (x above), 10
Long-Stim. Rep. Rate (Hz), 10.000000
Stim type cluster array.<size(s)>, 4
Stim type cluster array 0.Stimulus Output, Electrical
Stim type cluster array 1.Stimulus Output, OFF
Stim type cluster array 2.Stimulus Output, OFF
Stim type cluster array 3.Stimulus Output, Motor Length
Stim specs cluster array.<size(s)>, 4
Stim specs cluster array 0.Initial Stimulus ampl., 0.300000
Stim specs cluster array 0.Maximum Stimulus, 1.120000
Stim specs cluster array 0.#Pulses in train, 4
Stim specs cluster array 0.Peak Level time (ms), 1.000000
Stim specs cluster array 0.Total pulse period (ms), 150.000000
Stim specs cluster array 0.Start Delay (ms), -50.000000
Stim specs cluster array 0.Pulse Shape, Square
Stim specs cluster array 0.Ramp/Rel. time (ms), 0.100000
Stim specs cluster array 0.Peak Amplitude (V), 0.120000
Stim specs cluster array 1.Initial Stimulus ampl., 0.000000
Stim specs cluster array 1.Maximum Stimulus, 0.000000
Stim specs cluster array 1.#Pulses in train, 3
Stim specs cluster array 1.Peak Level time (ms), 29.000000
Stim specs cluster array 1.Total pulse period (ms), 200.000000
Stim specs cluster array 1.Start Delay (ms), 0.000000
Stim specs cluster array 1.Pulse Shape, Square
Stim specs cluster array 1.Ramp/Rel. time (ms), 0.000000
Stim specs cluster array 1.Peak Amplitude (V), 2.000000
Stim specs cluster array 2.Initial Stimulus ampl., 0.000000
Stim specs cluster array 2.Maximum Stimulus, 0.000000
Stim specs cluster array 2.#Pulses in train, 1
Stim specs cluster array 2.Peak Level time (ms), 25.000000
Stim specs cluster array 2.Total pulse period (ms), 200.000000
Stim specs cluster array 2.Start Delay (ms), 0.000000
Stim specs cluster array 2.Pulse Shape, Square
Stim specs cluster array 2.Ramp/Rel. time (ms), 20.000000
Stim specs cluster array 2.Peak Amplitude (V), 10.000000
Stim specs cluster array 3.Initial Stimulus ampl., 0.000000
Stim specs cluster array 3.Maximum Stimulus, 20.000000
Stim specs cluster array 3.#Pulses in train, 25
Stim specs cluster array 3.Peak Level time (ms), 0.100000
Stim specs cluster array 3.Total pulse period (ms), 4.000000
Stim specs cluster array 3.Start Delay (ms), 205.000000
Stim specs cluster array 3.Pulse Shape, Triangle
Stim specs cluster array 3.Ramp/Rel. time (ms), 3.000000
Stim specs cluster array 3.Peak Amplitude (V), 0.500000
Force cal. (mN/Volt), 100.000000
Force Range (mN), 100.000000
Length cal. (mm/Volt), 10.000000
Length Range (mm), 10.000000
Stim. 1, 0.300000
Stim. 2, 0.000000
Stim. 3, 0.000000
Stim. 4, 0.000000
Monitor acquire time (ms), 100.000000
EMG graph Ymax, 0.100000
Travel limit (mm), 20.000000
Use Pressure Probe, FALSE
Pressure goal (g), 100
Speed (mm/sec), 5.000000
Dwell time (ms), 100.000000
Pressure limit (g), 500.000000
Channel amplitude offset, 0.000000

[DATA]

0.128,0.047,0.283,-5.337
0.162,0.048,0.282,-5.337
0.172,0.048,0.284,-5.337
0.151,0.050,0.287,-5.337
0.108,0.052,0.286,-5.337
0.162,0.050,0.287,-5.337
0.234,0.048,0.289,-5.337
0.215,0.052,0.292,-5.337
0.196,0.053,0.293,-5.337
0.180,0.054,0.294,-5.337
0.184,0.051,0.288,-5.337
0.137,0.053,0.280,-5.337
0.117,0.057,0.279,-5.337
0.063,0.059,0.281,-5.337
0.088,0.060,0.285,-5.337
0.175,0.057,0.288,-5.337
0.261,0.054,0.290,-5.337
0.300,0.054,0.287,-5.337
0.281,0.058,0.286,-5.337
0.274,0.058,0.282,-5.337
0.257,0.055,0.286,-5.337
0.267,0.055,0.289,-5.337
0.149,0.058,0.289,-5.337
0.186,0.053,0.289,-5.337
0.264,0.052,0.291,-5.337
0.187,0.052,0.289,-5.337
0.126,0.053,0.288,-5.337
0.142,0.053,0.289,-5.337
0.214,0.052,0.288,-5.337
0.295,0.050,0.289,-5.337
0.254,0.056,0.288,-5.337
0.195,0.057,0.285,-5.337
0.201,0.056,0.281,-5.337
0.199,0.060,0.284,-5.337
0.148,0.059,0.288,-5.337
0.092,0.056,0.293,-5.337
0.064,0.052,0.294,-5.337
0.144,0.050,0.292,-5.337
0.192,0.050,0.286,-5.337
0.211,0.051,0.284,-5.337
0.194,0.053,0.285,-5.337
0.217,0.053,0.288,-5.337
0.161,0.056,0.290,-5.337
0.142,0.058,0.288,-5.337
0.182,0.053,0.283,-5.337
0.188,0.055,0.286,-5.337
0.198,0.059,0.289,-5.337
0.152,0.062,0.287,-5.337
0.089,0.063,0.288,-5.337
0.091,0.062,0.289,-5.337
0.132,0.062,0.289,-5.337
0.129,0.062,0.287,-5.337
0.091,0.059,0.288,-5.337
0.152,0.058,0.289,-5.337
0.198,0.059,0.289,-5.337
0.205,0.062,0.287,-5.337
0.211,0.063,0.285,-5.337
0.219,0.061,0.286,-5.337
0.213,0.060,0.288,-5.337
0.153,0.060,0.290,-5.337
0.125,0.062,0.292,-5.337
0.117,0.059,0.287,-5.337
0.173,0.058,0.285,-5.337
0.240,0.055,0.283,-5.337
0.237,0.055,0.286,-5.337
0.156,0.059,0.287,-5.337
0.113,0.062,0.290,-5.337
0.177,0.060,0.289,-5.337
0.205,0.062,0.286,-5.337
0.171,0.062,0.288,-5.337
0.143,0.061,0.287,-5.337
0.158,0.058,0.284,-5.337
0.169,0.057,0.285,-5.337
0.176,0.057,0.288,-5.337
0.209,0.056,0.294,-5.337
0.217,0.057,0.292,-5.337
0.220,0.064,0.288,-5.337
0.219,0.064,0.284,-5.337
0.199,0.063,0.285,-5.337
0.218,0.062,0.283,-5.337
0.265,0.063,0.283,-5.337
0.272,0.065,0.287,-5.337
0.266,0.061,0.290,-5.337
0.244,0.058,0.293,-5.337
0.264,0.058,0.291,-5.337
0.256,0.061,0.288,-5.337
0.248,0.061,0.287,-5.337
0.186,0.061,0.286,-5.337
0.201,0.060,0.283,-5.337
0.166,0.060,0.287,-5.337
0.189,0.058,0.291,-5.337
0.253,0.060,0.292,-5.337
0.272,0.058,0.290,-5.337
0.190,0.057,0.284,-5.337
0.146,0.056,0.278,-5.337
0.209,0.059,0.283,-5.337
0.173,0.062,0.290,-5.337
0.079,0.060,0.292,-5.337
0.126,0.053,0.294,-5.337
0.257,0.050,0.293,-5.337
0.345,0.050,0.291,-5.337
0.262,0.053,0.289,-5.337
0.154,0.055,0.285,-5.337
0.141,0.054,0.286,-5.337
0.137,0.055,0.286,-5.337
0.154,0.053,0.287,-5.337
0.219,0.052,0.291,-5.337
0.234,0.052,0.292,-5.337
0.238,0.057,0.292,-5.337
0.184,0.057,0.286,-5.337
0.223,0.060,0.285,-5.337
0.203,0.059,0.286,-5.337
0.193,0.058,0.287,-5.337
0.191,0.057,0.286,-5.337
0.227,0.054,0.286,-5.337
0.273,0.049,0.288,-5.337
0.256,0.051,0.287,-5.337
0.230,0.055,0.285,-5.337
0.203,0.056,0.290,-5.337
0.179,0.055,0.296,-5.337
0.090,0.055,0.298,-5.337
0.079,0.056,0.290,-5.337
0.106,0.057,0.282,-5.337
0.147,0.059,0.281,-5.337
0.144,0.055,0.285,-5.337
0.208,0.051,0.289,-5.337
0.234,0.055,0.287,-5.337
0.226,0.057,0.288,-5.337
0.197,0.057,0.289,-5.337
0.245,0.054,0.290,-5.337
0.224,0.054,0.285,-5.337
0.214,0.055,0.283,-5.337
0.152,0.056,0.283,-5.337
0.117,0.055,0.286,-5.337
0.153,0.053,0.289,-5.337
0.172,0.055,0.286,-5.337
0.147,0.056,0.284,-5.337
0.208,0.055,0.284,-5.337
0.199,0.050,0.285,-5.337
0.146,0.049,0.286,-5.337
0.069,0.051,0.285,-5.337
0.098,0.052,0.285,-5.337
0.170,0.054,0.286,-5.337
0.155,0.052,0.288,-5.337
0.094,0.049,0.288,-5.337
0.143,0.047,0.287,-5.337
0.281,0.046,0.285,-5.337
0.411,0.045,0.287,-5.337
0.377,0.046,0.287,-5.337
0.252,0.048,0.285,-5.337
0.180,0.046,0.285,-5.337
0.196,0.045,0.282,-5.337
0.197,0.045,0.283,-5.337
0.216,0.043,0.282,-5.337
0.190,0.043,0.285,-5.337
0.143,0.042,0.291,-5.337
0.186,0.045,0.295,-5.337
0.205,0.048,0.293,-5.337
0.189,0.048,0.291,-5.337
0.172,0.047,0.285,-5.337
0.254,0.046,0.285,-5.337
0.275,0.045,0.286,-5.337
0.219,0.043,0.287,-5.337
0.232,0.044,0.286,-5.337
0.295,0.044,0.288,-5.337
0.212,0.044,0.293,-5.337
0.133,0.049,0.292,-5.337
0.176,0.046,0.284,-5.337
0.194,0.044,0.284,-5.337
0.163,0.045,0.287,-5.337
0.158,0.047,0.290,-5.337
0.173,0.046,0.290,-5.337
0.179,0.045,0.286,-5.337
0.165,0.048,0.284,-5.337
0.199,0.049,0.284,-5.337
0.272,0.046,0.289,-5.337
0.257,0.042,0.288,-5.337
0.264,0.041,0.288,-5.337
0.267,0.046,0.284,-5.337
0.292,0.048,0.283,-5.337
0.231,0.044,0.285,-5.337
0.168,0.042,0.288,-5.337
0.214,0.046,0.287,-5.337
0.199,0.049,0.284,-5.337
0.163,0.045,0.287,-5.337
0.270,0.042,0.290,-5.337
0.267,0.040,0.292,-5.337
0.207,0.041,0.291,-5.337
0.195,0.039,0.289,-5.337
0.304,0.037,0.288,-5.337
0.300,0.041,0.286,-5.337
0.219,0.042,0.284,-5.337
0.226,0.039,0.285,-5.337
0.261,0.037,0.286,-5.337
0.268,0.036,0.288,-5.337
0.264,0.037,0.291,-5.337
0.175,0.038,0.292,-5.337
0.076,0.040,0.292,-5.337
0.173,0.040,0.286,-5.337
0.190,0.042,0.278,-5.337
0.193,0.040,0.279,-5.337
0.182,0.042,0.285,-5.337
0.174,0.046,0.294,-5.337
0.259,0.043,0.292,-5.337
0.261,0.039,0.289,-5.337
0.272,0.039,0.290,-5.337
0.274,0.040,0.291,-5.337
0.253,0.040,0.290,-5.337
0.168,0.044,0.286,-5.337
0.204,0.042,0.284,-5.337
0.261,0.039,0.285,-5.337
0.311,0.038,0.286,-5.337
0.244,0.041,0.291,-5.337
0.203,0.042,0.292,-5.337
0.229,0.041,0.289,-5.337
0.286,0.040,0.286,-5.337
0.237,0.043,0.285,-5.337
0.195,0.040,0.287,-5.337
0.202,0.040,0.287,-5.337
0.205,0.039,0.289,-5.337
0.211,0.037,0.290,-5.337
0.263,0.040,0.286,-5.337
0.202,0.043,0.283,-5.337
0.251,0.039,0.288,-5.337
0.268,0.040,0.290,-5.337
0.223,0.038,0.292,-5.337
0.156,0.036,0.291,-5.337
0.176,0.033,0.289,-5.337
0.249,0.034,0.286,-5.337
0.236,0.033,0.286,-5.337
0.238,0.027,0.288,-5.337
0.257,0.027,0.290,-5.337
0.243,0.029,0.287,-5.337
0.182,0.031,0.288,-5.337
0.217,0.028,0.291,-5.337
0.236,0.030,0.291,-5.337
0.220,0.030,0.287,-5.337
0.209,0.032,0.280,-5.337
0.268,0.029,0.278,-5.337
0.296,0.029,0.280,-5.337
0.267,0.029,0.280,-5.337
0.282,0.028,0.282,-5.337
0.285,0.035,0.288,-5.337
0.224,0.036,0.289,-5.337
0.227,0.035,0.289,-5.337
0.231,0.035,0.285,-5.337
0.201,0.037,0.290,-5.337
0.226,0.035,0.291,-5.337
0.227,0.037,0.286,-5.337
0.199,0.035,0.283,-5.337
0.194,0.037,0.281,-5.337
0.210,0.030,0.281,-5.337
0.252,0.032,0.288,-5.337
0.248,0.032,0.292,-5.337
0.237,0.033,0.292,-5.337
0.285,0.033,0.289,-5.337
0.258,0.033,0.287,-5.337
0.165,0.031,0.282,-5.337
0.162,0.030,0.285,-5.337
0.182,0.032,0.289,-5.337
0.167,0.032,0.289,-5.337
0.243,0.027,0.285,-5.337
0.215,0.027,0.285,-5.337
0.159,0.030,0.291,-5.337
0.256,0.031,0.291,-5.337
0.326,0.030,0.290,-5.337
0.238,0.028,0.285,-5.337
0.079,0.028,0.285,-5.337
0.075,0.027,0.284,-5.337
0.248,0.024,0.283,-5.337
0.307,0.024,0.276,-5.337
0.194,0.029,0.279,-5.337
0.259,0.028,0.283,-5.337
0.363,0.031,0.287,-5.337
0.300,0.035,0.287,-5.337
0.244,0.033,0.284,-5.337
0.247,0.028,0.285,-5.337
0.251,0.029,0.286,-5.337
0.263,0.031,0.287,-5.337
0.265,0.035,0.287,-5.337
0.157,0.037,0.288,-5.337
0.080,0.035,0.288,-5.337
0.114,0.034,0.290,-5.337
0.094,0.032,0.289,-5.337
0.101,0.029,0.285,-5.337
0.211,0.027,0.283,-5.337
0.285,0.030,0.281,-5.337
0.215,0.035,0.283,-5.337
0.194,0.034,0.292,-5.337
0.242,0.034,0.295,-5.337
0.321,0.030,0.292,-5.337
0.320,0.031,0.285,-5.337
0.203,0.032,0.284,-5.337
0.195,0.032,0.286,-5.337
0.243,0.030,0.288,-5.337
0.188,0.030,0.285,-5.337
0.105,0.030,0.287,-5.337
0.143,0.029,0.285,-5.337
0.224,0.027,0.281,-5.337
0.233,0.031,0.282,-5.337
0.153,0.034,0.288,-5.337
0.147,0.034,0.292,-5.337
0.202,0.036,0.291,-5.337
0.208,0.036,0.287,-5.337
0.231,0.035,0.283,-5.337
0.244,0.034,0.283,-5.337
0.225,0.031,0.287,-5.337
0.223,0.032,0.286,-5.337
0.252,0.033,0.285,-5.337
0.276,0.031,0.285,-5.337
0.245,0.032,0.286,-5.337
0.216,0.032,0.288,-5.337
0.188,0.030,0.290,-5.337
0.214,0.029,0.291,-5.337
0.312,0.032,0.292,-5.337
0.316,0.031,0.292,-5.337
0.295,0.032,0.288,-5.337
0.353,0.032,0.286,-5.337
0.352,0.032,0.286,-5.337
0.264,0.035,0.287,-5.337
0.178,0.038,0.284,-5.337
0.162,0.038,0.286,-5.337
0.228,0.034,0.286,-5.337
0.213,0.032,0.285,-5.337
0.237,0.029,0.286,-5.337
0.242,0.031,0.289,-5.337
0.255,0.032,0.289,-5.337
0.200,0.034,0.286,-5.337
0.152,0.035,0.289,-5.337
0.144,0.034,0.291,-5.337
0.144,0.034,0.294,-5.337
0.075,0.035,0.288,-5.337
0.067,0.034,0.283,-5.337
0.114,0.033,0.287,-5.337
0.168,0.033,0.292,-5.337
0.207,0.030,0.294,-5.337
0.303,0.029,0.293,-5.337
0.293,0.032,0.291,-5.337
0.183,0.032,0.290,-5.337
0.139,0.029,0.285,-5.337
0.194,0.029,0.286,-5.337
0.246,0.026,0.286,-5.337
0.308,0.026,0.290,-5.337
0.294,0.026,0.290,-5.337
0.271,0.028,0.290,-5.337
0.191,0.026,0.289,-5.337
0.149,0.026,0.289,-5.337
0.227,0.026,0.288,-5.337
0.260,0.027,0.286,-5.337
0.262,0.030,0.284,-5.337
0.286,0.030,0.286,-5.337
0.331,0.029,0.288,-5.337
0.286,0.029,0.292,-5.337
0.243,0.030,0.294,-5.337
0.236,0.030,0.293,-5.337
0.208,0.031,0.288,-5.337
0.211,0.031,0.285,-5.337
0.198,0.032,0.292,-5.337
0.236,0.027,0.292,-5.337
0.289,0.024,0.290,-5.337
0.277,0.026,0.288,-5.337
0.233,0.029,0.289,-5.337
0.187,0.031,0.287,-5.337
0.209,0.031,0.290,-5.337
0.271,0.030,0.285,-5.337
0.236,0.032,0.283,-5.337
0.258,0.030,0.288,-5.337
0.286,0.031,0.292,-5.337
0.225,0.034,0.292,-5.337
0.188,0.038,0.290,-5.337
0.165,0.039,0.287,-5.337
0.193,0.036,0.287,-5.337
0.283,0.034,0.285,-5.337
0.228,0.037,0.285,-5.337
0.193,0.037,0.286,-5.337
0.218,0.035,0.288,-5.337
0.198,0.033,0.292,-5.337
0.197,0.031,0.292,-5.337
0.238,0.029,0.287,-5.337
0.189,0.032,0.284,-5.337
0.132,0.033,0.282,-5.337
0.195,0.035,0.286,-5.337
0.242,0.034,0.292,-5.337
0.192,0.037,0.292,-5.337
0.192,0.035,0.290,-5.337
0.246,0.033,0.288,-5.337
0.278,0.033,0.288,-5.337
0.217,0.034,0.288,-5.337
0.154,0.032,0.291,-5.337
0.136,0.032,0.289,-5.337
0.151,0.035,0.287,-5.337
0.210,0.036,0.287,-5.337
0.216,0.036,0.292,-5.337
0.239,0.035,0.291,-5.337
0.264,0.030,0.284,-5.337
0.267,0.031,0.284,-5.337
0.272,0.035,0.289,-5.337
0.195,0.034,0.294,-5.337
0.178,0.035,0.291,-5.337
0.280,0.033,0.287,-5.337
0.235,0.038,0.286,-5.337
0.169,0.039,0.287,-5.337
0.237,0.038,0.286,-5.337
0.263,0.035,0.285,-5.337
0.201,0.036,0.286,-5.337
0.161,0.038,0.286,-5.337
0.169,0.036,0.288,-5.337
0.185,0.038,0.292,-5.337
0.221,0.038,0.291,-5.337
0.185,0.035,0.290,-5.337
0.148,0.035,0.289,-5.337
0.101,0.038,0.285,-5.337
0.107,0.038,0.284,-5.337
0.238,0.036,0.288,-5.337
0.246,0.034,0.288,-5.337
0.173,0.040,0.287,-5.337
0.156,0.041,0.287,-5.337
0.129,0.041,0.287,-5.337
0.095,0.039,0.285,-5.337
0.185,0.037,0.286,-5.337
0.281,0.037,0.284,-5.337
0.252,0.035,0.284,-5.337
0.205,0.036,0.284,-5.337
0.204,0.038,0.286,-5.337
0.194,0.032,0.284,-5.337
0.248,0.034,0.286,-5.337
0.241,0.036,0.287,-5.337
0.274,0.034,0.286,-5.337
0.265,0.035,0.282,-5.337
0.179,0.036,0.280,-5.337
0.123,0.035,0.287,-5.337
0.170,0.032,0.291,-5.337
0.191,0.035,0.294,-5.337
0.232,0.037,0.291,-5.337
0.251,0.037,0.291,-5.337
0.219,0.037,0.291,-5.337
0.204,0.037,0.291,-5.337
0.199,0.037,0.287,-5.337
0.174,0.040,0.285,-5.337
0.193,0.043,0.284,-5.337
0.207,0.042,0.283,-5.337
0.201,0.042,0.285,-5.337
0.177,0.044,0.289,-5.337
0.169,0.043,0.289,-5.337
0.156,0.043,0.290,-5.337
0.192,0.042,0.288,-5.337
0.205,0.043,0.285,-5.337
0.201,0.042,0.283,-5.337
0.223,0.041,0.280,-5.337
0.224,0.041,0.280,-5.337
0.227,0.043,0.286,-5.337
0.208,0.043,0.289,-5.337
0.205,0.044,0.290,-5.337
0.213,0.042,0.290,-5.337
0.210,0.043,0.285,-5.337
0.296,0.046,0.285,-5.337
0.330,0.045,0.286,-5.337
0.278,0.042,0.288,-5.337
0.256,0.043,0.286,-5.337
0.260,0.046,0.285,-5.337
0.248,0.045,0.284,-5.337
0.182,0.048,0.284,-5.337
0.094,0.048,0.281,-5.337
0.074,0.045,0.280,-5.337
0.055,0.041,0.283,-5.337
0.129,0.042,0.285,-5.337
0.157,0.043,0.287,-5.337
0.190,0.041,0.288,-5.337
0.197,0.045,0.286,-5.337
0.140,0.051,0.287,-5.337
0.165,0.050,0.286,-5.337
0.174,0.049,0.286,-5.337
0.232,0.046,0.286,-5.337
0.297,0.047,0.284,-5.337
0.309,0.046,0.284,-5.337
0.205,0.052,0.285,-5.337
0.139,0.049,0.289,-5.337
0.146,0.052,0.289,-5.337
0.257,0.049,0.290,-5.337
0.291,0.046,0.287,-5.337
0.225,0.050,0.285,-5.337
0.187,0.052,0.285,-5.337
0.131,0.054,0.287,-5.337
0.156,0.054,0.289,-5.337
0.216,0.049,0.286,-5.337
0.262,0.047,0.279,-5.337
0.221,0.055,0.278,-5.337
0.173,0.055,0.282,-5.337
0.221,0.053,0.286,-5.337
0.261,0.049,0.289,-5.337
0.220,0.051,0.289,-5.337
0.227,0.052,0.283,-5.337
0.302,0.053,0.283,-5.337
0.287,0.054,0.288,-5.337
0.123,0.057,0.288,-5.337
0.073,0.054,0.288,-5.337
0.123,0.055,0.285,-5.337
0.164,0.054,0.283,-5.337
0.184,0.054,0.288,-5.337
0.187,0.058,0.292,-5.337
0.143,0.058,0.284,-5.337
0.142,0.054,0.278,-5.337
0.260,0.049,0.281,-5.337
0.237,0.050,0.287,-5.337
0.213,0.050,0.287,-5.337
0.175,0.050,0.284,-5.337
0.159,0.052,0.281,-5.337
0.224,0.056,0.279,-5.337
0.168,0.056,0.277,-5.337
0.126,0.055,0.276,-5.337
0.196,0.051,0.277,-5.337
0.271,0.052,0.285,-5.337
0.193,0.054,0.289,-5.337
0.166,0.052,0.292,-5.337
0.187,0.055,0.288,-5.337
0.158,0.058,0.285,-5.337
0.150,0.056,0.284,-5.337
0.123,0.056,0.285,-5.337
0.162,0.054,0.283,-5.337
0.271,0.055,0.279,-5.337
0.266,0.057,0.279,-5.337
0.221,0.057,0.281,-5.337
0.256,0.056,0.284,-5.337
0.279,0.055,0.284,-5.337
0.200,0.057,0.285,-5.337
0.140,0.057,0.284,-5.337
0.249,0.054,0.283,-5.337
0.312,0.053,0.282,-5.337
0.326,0.053,0.286,-5.337
0.311,0.051,0.286,-5.337
0.320,0.051,0.283,-5.337
0.318,0.051,0.281,-5.337
0.251,0.054,0.282,-5.337
0.234,0.056,0.280,-5.337
0.211,0.061,0.279,-5.337
0.150,0.058,0.281,-5.337
0.238,0.054,0.283,-5.337
0.344,0.053,0.280,-5.337
0.272,0.054,0.281,-5.337
0.158,0.059,0.284,-5.337
0.176,0.058,0.284,-5.337
0.181,0.057,0.284,-5.337
0.167,0.058,0.282,-5.337
0.147,0.061,0.281,-5.337
0.143,0.059,0.281,-5.337
0.199,0.057,0.283,-5.337
0.262,0.058,0.285,-5.337
0.193,0.061,0.286,-5.337
0.042,0.060,0.287,-5.337
0.083,0.058,0.285,-5.337
0.200,0.058,0.277,-5.337
0.232,0.057,0.276,-5.337
0.204,0.055,0.278,-5.337
0.210,0.057,0.282,-5.337
0.198,0.054,0.282,-5.337
0.195,0.054,0.279,-5.337
0.153,0.057,0.277,-5.337
0.224,0.055,0.279,-5.337
0.263,0.055,0.281,-5.337
0.230,0.060,0.282,-5.337
0.214,0.063,0.280,-5.337
0.297,0.060,0.283,-5.337
0.351,0.054,0.285,-5.337
0.280,0.057,0.281,-5.337
0.147,0.061,0.281,-5.337
0.134,0.064,0.284,-5.337
0.124,0.060,0.285,-5.337
0.072,0.057,0.283,-5.337
0.042,0.054,0.282,-5.337
0.124,0.052,0.284,-5.337
0.170,0.053,0.283,-5.337
0.191,0.053,0.281,-5.337
0.179,0.051,0.283,-5.337
0.158,0.055,0.281,-5.337
0.103,0.058,0.281,-5.337
0.028,0.059,0.285,-5.337
0.075,0.058,0.286,-5.337
0.187,0.057,0.283,-5.337
0.239,0.058,0.280,-5.337
0.223,0.056,0.278,-5.337
0.252,0.058,0.279,-5.337
0.342,0.058,0.279,-5.337
0.292,0.059,0.281,-5.337
0.218,0.060,0.284,-5.337
0.220,0.060,0.282,-5.337
0.256,0.059,0.279,-5.337
0.213,0.059,0.278,-5.337
0.151,0.060,0.279,-5.337
0.138,0.061,0.282,-5.337
0.218,0.062,0.284,-5.337
0.342,0.061,0.283,-5.337
0.331,0.062,0.284,-5.337
0.226,0.064,0.286,-5.337
0.152,0.063,0.286,-5.337
0.202,0.058,0.283,-5.337
0.246,0.055,0.278,-5.337
0.288,0.056,0.280,-5.337
0.243,0.058,0.286,-5.337
0.193,0.057,0.284,-5.337
0.192,0.055,0.282,-5.337
0.231,0.058,0.280,-5.337
0.222,0.060,0.280,-5.337
0.167,0.061,0.280,-5.337
0.150,0.059,0.282,-5.337
0.191,0.059,0.281,-5.337
0.187,0.061,0.279,-5.337
0.203,0.059,0.284,-5.337
0.198,0.059,0.292,-5.337
0.163,0.061,0.291,-5.337
0.158,0.060,0.285,-5.337
0.196,0.057,0.280,-5.337
0.234,0.059,0.280,-5.337
0.199,0.061,0.284,-5.337
0.102,0.060,0.285,-5.337
0.103,0.060,0.285,-5.337
0.173,0.061,0.282,-5.337
0.194,0.059,0.284,-5.337
0.275,0.056,0.285,-5.337
0.288,0.053,0.289,-5.337
0.244,0.056,0.285,-5.337
0.223,0.057,0.282,-5.337
0.181,0.058,0.280,-5.337
0.100,0.058,0.281,-5.337
0.161,0.054,0.280,-5.337
0.217,0.053,0.281,-5.337
0.259,0.055,0.283,-5.337
0.323,0.057,0.286,-5.337
0.238,0.058,0.281,-5.337
0.100,0.060,0.281,-5.337
0.073,0.060,0.283,-5.337
0.113,0.062,0.287,-5.337
0.190,0.063,0.287,-5.337
0.168,0.061,0.284,-5.337
0.186,0.057,0.282,-5.337
0.158,0.061,0.281,-5.337
0.174,0.063,0.281,-5.337
0.274,0.061,0.282,-5.337
0.284,0.062,0.282,-5.337
0.255,0.064,0.279,-5.337
0.274,0.059,0.279,-5.337
0.252,0.059,0.281,-5.337
0.220,0.060,0.286,-5.337
0.232,0.055,0.287,-5.337
0.262,0.053,0.287,-5.337
0.217,0.056,0.282,-5.337
0.167,0.061,0.280,-5.337
0.190,0.055,0.281,-5.337
0.232,0.056,0.287,-5.337
0.224,0.055,0.290,-5.337
0.294,0.053,0.286,-5.337
0.267,0.051,0.282,-5.337
0.258,0.050,0.280,-5.337
0.226,0.053,0.284,-5.337
0.245,0.052,0.287,-5.337
0.253,0.051,0.289,-5.337
0.220,0.051,0.286,-5.337
0.188,0.052,0.280,-5.337
0.126,0.054,0.278,-5.337
0.202,0.050,0.277,-5.337
0.252,0.049,0.275,-5.337
0.171,0.048,0.276,-5.337
0.173,0.049,0.279,-5.337
0.193,0.051,0.281,-5.337
0.254,0.049,0.279,-5.337
0.261,0.051,0.282,-5.337
0.213,0.047,0.283,-5.337
0.232,0.046,0.287,-5.337
0.193,0.051,0.285,-5.337
0.167,0.051,0.282,-5.337
0.205,0.048,0.279,-5.337
0.230,0.049,0.282,-5.337
0.239,0.050,0.284,-5.337
0.247,0.050,0.284,-5.337
0.241,0.051,0.282,-5.337
0.235,0.048,0.280,-5.337
0.223,0.048,0.282,-5.337
0.104,0.052,0.283,-5.337
0.087,0.051,0.283,-5.337
0.086,0.054,0.283,-5.337
0.077,0.054,0.283,-5.337
0.196,0.050,0.282,-5.337
0.268,0.045,0.284,-5.337
0.208,0.049,0.282,-5.337
0.193,0.048,0.278,-5.337
0.219,0.048,0.277,-5.337
0.207,0.045,0.280,-5.337
0.167,0.044,0.280,-5.337
0.165,0.043,0.280,-5.337
0.193,0.042,0.279,-5.337
0.231,0.042,0.282,-5.337
0.141,0.042,0.284,-5.337
0.168,0.042,0.282,-5.337
0.256,0.042,0.280,-5.337
0.275,0.041,0.280,-5.337
0.249,0.039,0.283,-5.337
0.199,0.042,0.285,-5.337
0.212,0.041,0.286,-5.337
0.350,0.038,0.285,-5.337
0.311,0.042,0.285,-5.337
0.236,0.046,0.286,-5.337
0.226,0.045,0.284,-5.337
0.234,0.043,0.282,-5.337
0.277,0.042,0.282,-5.337
0.321,0.042,0.283,-5.337
0.272,0.042,0.284,-5.337
0.234,0.041,0.284,-5.337
0.285,0.040,0.283,-5.337
0.309,0.044,0.282,-5.337
0.303,0.045,0.281,-5.337
0.262,0.041,0.281,-5.337
0.235,0.041,0.281,-5.337
0.196,0.045,0.280,-5.337
0.184,0.048,0.283,-5.337
0.172,0.047,0.288,-5.337
0.205,0.046,0.286,-5.337
0.197,0.043,0.280,-5.337
0.200,0.042,0.279,-5.337
0.231,0.041,0.280,-5.337
0.230,0.044,0.279,-5.337
0.296,0.044,0.279,-5.337
0.310,0.045,0.281,-5.337
0.211,0.042,0.285,-5.337
0.221,0.039,0.287,-5.337
0.245,0.044,0.284,-5.337
0.234,0.047,0.283,-5.337
0.232,0.044,0.281,-5.337
0.224,0.041,0.284,-5.337
0.242,0.043,0.284,-5.337
0.275,0.042,0.283,-5.337
0.248,0.041,0.280,-5.337
0.192,0.042,0.275,-5.337
0.226,0.042,0.278,-5.337
0.349,0.040,0.281,-5.337
0.330,0.038,0.286,-5.337
0.268,0.041,0.286,-5.337
0.318,0.041,0.284,-5.337
0.387,0.038,0.281,-5.337
0.304,0.040,0.282,-5.337
0.158,0.041,0.282,-5.337
0.143,0.039,0.283,-5.337
0.275,0.034,0.282,-5.337
0.308,0.035,0.282,-5.337
0.193,0.037,0.281,-5.337
0.199,0.035,0.281,-5.337
0.297,0.034,0.285,-5.337
0.279,0.038,0.285,-5.337
0.166,0.037,0.281,-5.337
0.151,0.038,0.281,-5.337
0.186,0.039,0.284,-5.337
0.178,0.039,0.283,-5.337
0.146,0.039,0.281,-5.337
0.216,0.038,0.284,-5.337
0.266,0.037,0.287,-5.337
0.278,0.041,0.285,-5.337
0.235,0.044,0.281,-5.337
0.228,0.046,0.285,-5.337
0.302,0.042,0.286,-5.337
0.274,0.039,0.281,-5.337
0.277,0.038,0.280,-5.337
0.256,0.039,0.282,-5.337
0.217,0.040,0.284,-5.337
0.227,0.040,0.284,-5.337
0.231,0.040,0.281,-5.337
0.131,0.036,0.279,-5.337
0.092,0.039,0.280,-5.337
0.149,0.039,0.280,-5.337
0.201,0.040,0.282,-5.337
0.255,0.035,0.280,-5.337
0.284,0.033,0.280,-5.337
0.261,0.035,0.283,-5.337
0.215,0.037,0.287,-5.337
0.181,0.040,0.285,-5.337
0.207,0.037,0.281,-5.337
0.210,0.036,0.280,-5.337
0.261,0.033,0.280,-5.337
0.255,0.034,0.283,-5.337
0.238,0.035,0.284,-5.337
0.198,0.035,0.285,-5.337
0.181,0.036,0.287,-5.337
0.272,0.033,0.283,-5.337
0.301,0.034,0.278,-5.337
0.290,0.034,0.278,-5.337
0.274,0.040,0.277,-5.337
0.223,0.042,0.281,-5.337
0.203,0.038,0.282,-5.337
0.207,0.041,0.284,-5.337
0.192,0.040,0.283,-5.337
0.179,0.041,0.284,-5.337
0.209,0.036,0.284,-5.337
0.262,0.035,0.283,-5.337
0.190,0.037,0.284,-5.337
0.146,0.037,0.283,-5.337
0.240,0.034,0.279,-5.337
0.292,0.033,0.277,-5.337
0.238,0.037,0.280,-5.337
0.160,0.040,0.281,-5.337
0.163,0.037,0.279,-5.337
0.178,0.039,0.278,-5.337
0.179,0.037,0.279,-5.337
0.246,0.033,0.281,-5.337
0.325,0.034,0.283,-5.337
0.241,0.034,0.278,-5.337
0.183,0.035,0.278,-5.337
0.293,0.030,0.275,-5.337
0.286,0.029,0.277,-5.337
0.214,0.031,0.277,-5.337
0.224,0.032,0.283,-5.337
0.226,0.035,0.290,-5.337
0.217,0.037,0.288,-5.337
0.278,0.034,0.282,-5.337
0.335,0.031,0.280,-5.337
0.264,0.034,0.281,-5.337
0.138,0.036,0.283,-5.337
0.187,0.031,0.284,-5.337
0.259,0.031,0.284,-5.337
0.278,0.032,0.280,-5.337
0.279,0.032,0.279,-5.337
0.240,0.034,0.280,-5.337
0.212,0.034,0.280,-5.337
0.245,0.035,0.275,-5.337
0.233,0.031,0.271,-5.337
0.242,0.032,0.280,-5.337
0.245,0.032,0.285,-5.337
0.251,0.033,0.286,-5.337
0.264,0.032,0.279,-5.337
0.298,0.027,0.278,-5.337
0.305,0.032,0.279,-5.337
0.255,0.036,0.283,-5.337
0.223,0.035,0.283,-5.337
0.209,0.036,0.280,-5.337
0.233,0.034,0.282,-5.337
0.225,0.035,0.283,-5.337
0.218,0.033,0.281,-5.337
0.247,0.034,0.280,-5.337
0.169,0.032,0.279,-5.337
0.207,0.032,0.278,-5.337
0.224,0.033,0.279,-5.337
0.185,0.035,0.280,-5.337
0.195,0.038,0.281,-5.337
0.254,0.036,0.280,-5.337
0.262,0.031,0.280,-5.337
0.236,0.030,0.280,-5.337
0.198,0.033,0.287,-5.337
0.270,0.032,0.290,-5.337
0.326,0.030,0.284,-5.337
0.280,0.032,0.277,-5.337
0.197,0.033,0.275,-5.337
0.270,0.034,0.275,-5.337
0.338,0.034,0.280,-5.337
0.252,0.037,0.279,-5.337
0.179,0.037,0.279,-5.337
0.248,0.036,0.277,-5.337
0.212,0.038,0.279,-5.337
0.140,0.038,0.284,-5.337
0.237,0.035,0.287,-5.337
0.287,0.037,0.284,-5.337
0.181,0.038,0.283,-5.337
0.155,0.038,0.287,-5.337
0.236,0.034,0.284,-5.337
0.227,0.034,0.278,-5.337
0.172,0.033,0.277,-5.337
0.144,0.031,0.280,-5.337
0.117,0.031,0.283,-5.337
0.143,0.027,0.285,-5.337
0.146,0.032,0.285,-5.337
0.195,0.033,0.286,-5.337
0.242,0.032,0.284,-5.337
0.261,0.032,0.283,-5.337
0.236,0.030,0.279,-5.337
0.314,0.031,0.281,-5.337
0.333,0.033,0.285,-5.337
0.259,0.032,0.288,-5.337
0.198,0.034,0.286,-5.337
0.208,0.031,0.285,-5.337
0.265,0.031,0.284,-5.337
0.338,0.031,0.284,-5.337
0.296,0.030,0.282,-5.337
0.234,0.031,0.284,-5.337
0.225,0.034,0.282,-5.337
0.289,0.035,0.282,-5.337
0.336,0.034,0.280,-5.337
0.275,0.037,0.279,-5.337
0.191,0.039,0.278,-5.337
0.135,0.041,0.280,-5.337
0.111,0.037,0.287,-5.337
0.130,0.033,0.290,-5.337
0.178,0.033,0.285,-5.337
0.232,0.036,0.282,-5.337
0.250,0.040,0.283,-5.337
0.198,0.039,0.282,-5.337
0.203,0.037,0.280,-5.337
0.224,0.037,0.282,-5.337
0.192,0.038,0.283,-5.337
0.142,0.038,0.287,-5.337
0.203,0.037,0.290,-5.337
0.178,0.036,0.285,-5.337
0.156,0.039,0.285,-5.337
0.156,0.042,0.284,-5.337
0.234,0.040,0.282,-5.337
0.295,0.040,0.279,-5.337
0.301,0.044,0.280,-5.337
0.241,0.045,0.280,-5.337
0.187,0.041,0.279,-5.337
0.177,0.043,0.280,-5.337
0.193,0.042,0.281,-5.337
0.258,0.040,0.281,-5.337
0.240,0.043,0.282,-5.337
0.144,0.044,0.286,-5.337
0.149,0.046,0.286,-5.337
0.191,0.043,0.283,-5.337
0.193,0.045,0.281,-5.337
0.224,0.043,0.281,-5.337
0.251,0.042,0.282,-5.337
0.229,0.044,0.287,-5.337
0.222,0.043,0.289,-5.337
0.225,0.043,0.285,-5.337
0.189,0.043,0.283,-5.337
0.284,0.042,0.285,-5.337
0.359,0.042,0.283,-5.337
0.309,0.042,0.283,-5.337
0.219,0.045,0.282,-5.337
0.189,0.045,0.283,-5.337
0.167,0.041,0.282,-5.337
0.170,0.039,0.282,-5.337
0.231,0.034,0.282,-5.337
0.273,0.037,0.282,-5.337
0.246,0.041,0.284,-5.337
0.271,0.040,0.284,-5.337
0.265,0.037,0.281,-5.337
0.271,0.038,0.281,-5.337
0.295,0.038,0.281,-5.337
0.228,0.041,0.282,-5.337
0.190,0.041,0.282,-5.337
0.236,0.042,0.280,-5.337
0.226,0.044,0.278,-5.337
0.182,0.048,0.280,-5.337
0.232,0.045,0.285,-5.337
0.282,0.042,0.287,-5.337
0.268,0.042,0.284,-5.337
0.213,0.046,0.281,-5.337
0.200,0.046,0.278,-5.337
0.234,0.043,0.278,-5.337
0.223,0.043,0.281,-5.337
0.140,0.040,0.275,-5.337
0.114,0.043,0.277,-5.337
0.150,0.044,0.280,-5.337
0.165,0.045,0.282,-5.337
0.211,0.045,0.279,-5.337
0.202,0.048,0.277,-5.337
0.156,0.051,0.278,-5.337
0.157,0.050,0.279,-5.337
0.235,0.044,0.283,-5.337
0.275,0.045,0.285,-5.337
0.243,0.045,0.284,-5.337
0.200,0.046,0.284,-5.337
0.223,0.045,0.281,-5.337
0.253,0.043,0.281,-5.337
0.188,0.046,0.281,-5.337
0.170,0.048,0.283,-5.337
0.220,0.049,0.281,-5.337
0.196,0.051,0.279,-5.337
0.127,0.047,0.279,-5.337
0.162,0.049,0.280,-5.337
0.180,0.049,0.284,-5.337
0.197,0.046,0.283,-5.337
0.129,0.048,0.281,-5.337
0.124,0.044,0.278,-5.337
0.205,0.042,0.284,-5.337
0.253,0.046,0.284,-5.337
0.195,0.050,0.283,-5.337
0.142,0.050,0.280,-5.337
0.081,0.049,0.282,-5.337
0.155,0.045,0.286,-5.337
0.239,0.047,0.288,-5.337
0.287,0.042,0.283,-5.337
0.224,0.044,0.277,-5.337
0.229,0.047,0.280,-5.337
0.290,0.044,0.284,-5.337
0.267,0.044,0.284,-5.337
0.267,0.044,0.285,-5.337
0.273,0.046,0.284,-5.337
0.249,0.048,0.283,-5.337
0.194,0.049,0.279,-5.337
0.128,0.050,0.276,-5.337
0.120,0.047,0.275,-5.337
0.091,0.046,0.277,-5.337
0.108,0.046,0.285,-5.337
0.198,0.048,0.285,-5.337
0.168,0.050,0.286,-5.337
0.129,0.050,0.283,-5.337
0.173,0.051,0.280,-5.337
0.248,0.046,0.279,-5.337
0.341,0.047,0.280,-5.337
0.339,0.048,0.278,-5.337
0.262,0.050,0.280,-5.337
0.215,0.050,0.283,-5.337
0.220,0.049,0.287,-5.337
0.233,0.049,0.288,-5.337
0.288,0.043,0.289,-5.337
0.296,0.040,0.287,-5.337
0.241,0.050,0.283,-5.337
0.145,0.052,0.282,-5.337
0.179,0.050,0.280,-5.337
0.242,0.046,0.280,-5.337
0.259,0.048,0.280,-5.337
0.236,0.052,0.280,-5.337
0.161,0.053,0.280,-5.337
0.184,0.053,0.284,-5.337
0.209,0.051,0.287,-5.337
0.196,0.051,0.286,-5.337
0.171,0.056,0.286,-5.337
0.130,0.059,0.284,-5.337
0.100,0.059,0.280,-5.337
0.072,0.060,0.281,-5.337
0.134,0.058,0.281,-5.337
0.205,0.058,0.280,-5.337
0.101,0.059,0.272,-5.337
0.067,0.060,0.274,-5.337
0.110,0.057,0.282,-5.337
0.152,0.055,0.285,-5.337
0.183,0.051,0.284,-5.337
0.226,0.051,0.285,-5.337
0.298,0.051,0.288,-5.337
0.341,0.051,0.289,-5.337
0.343,0.043,0.285,-5.337
0.372,0.046,0.281,-5.337
0.258,0.047,0.276,-5.337
0.183,0.049,0.276,-5.337
0.177,0.046,0.281,-5.337
0.162,0.051,0.283,-5.337
0.102,0.048,0.286,-5.337
0.176,0.044,0.284,-5.337
0.230,0.048,0.282,-5.337
0.210,0.051,0.281,-5.337
0.173,0.053,0.283,-5.337
0.171,0.053,0.286,-5.337
0.211,0.052,0.284,-5.337
0.217,0.054,0.284,-5.337
0.176,0.054,0.283,-5.337
0.165,0.058,0.281,-5.337
0.107,0.054,0.281,-5.337
0.164,0.048,0.278,-5.337
0.234,0.049,0.279,-5.337
0.208,0.050,0.281,-5.337
0.153,0.055,0.287,-5.337
0.212,0.053,0.289,-5.337
0.264,0.053,0.287,-5.337
0.192,0.054,0.284,-5.337
0.180,0.053,0.279,-5.337
0.182,0.054,0.278,-5.337
0.171,0.056,0.282,-5.337
0.155,0.055,0.287,-5.337
0.154,0.054,0.289,-5.337
0.183,0.053,0.284,-5.337
0.171,0.053,0.278,-5.337
0.190,0.051,0.277,-5.337
0.192,0.050,0.283,-5.337
0.197,0.050,0.289,-5.337
0.187,0.053,0.284,-5.337
0.159,0.057,0.279,-5.337
0.138,0.053,0.273,-5.337
0.266,0.048,0.275,-5.337
0.290,0.051,0.280,-5.337
0.171,0.058,0.285,-5.337
0.102,0.055,0.285,-5.337
0.134,0.054,0.281,-5.337
0.197,0.056,0.278,-5.337
0.211,0.055,0.279,-5.337
0.242,0.053,0.278,-5.337
0.183,0.056,0.280,-5.337
0.133,0.059,0.284,-5.337
0.156,0.065,0.286,-5.337
0.166,0.064,0.286,-5.337
0.192,0.062,0.282,-5.337
0.208,0.060,0.278,-5.337
0.267,0.059,0.277,-5.337
0.349,0.053,0.280,-5.337
0.322,0.056,0.280,-5.337
0.211,0.058,0.278,-5.337
0.243,0.055,0.278,-5.337
0.295,0.054,0.281,-5.337
0.297,0.054,0.282,-5.337
0.245,0.056,0.281,-5.337
0.197,0.055,0.276,-5.337
0.187,0.057,0.278,-5.337
0.144,0.056,0.282,-5.337
0.169,0.053,0.286,-5.337
0.280,0.051,0.285,-5.337
0.306,0.050,0.283,-5.337
0.243,0.049,0.281,-5.337
0.250,0.051,0.277,-5.337
0.246,0.051,0.277,-5.337
0.198,0.055,0.280,-5.337
0.162,0.057,0.280,-5.337
0.149,0.057,0.281,-5.337
0.168,0.056,0.281,-5.337
0.222,0.056,0.282,-5.337
0.241,0.058,0.282,-5.337
0.180,0.056,0.282,-5.337
0.137,0.054,0.280,-5.337
0.225,0.052,0.278,-5.337
0.250,0.052,0.280,-5.337
0.200,0.054,0.280,-5.337
0.094,0.058,0.283,-5.337
0.053,0.060,0.283,-5.337
0.213,0.058,0.284,-5.337
0.315,0.057,0.282,-5.337
0.205,0.058,0.283,-5.337
0.143,0.055,0.281,-5.337
0.231,0.057,0.281,-5.337
0.298,0.054,0.281,-5.337
0.214,0.057,0.280,-5.337
0.136,0.056,0.282,-5.337
0.179,0.055,0.282,-5.337
0.200,0.053,0.283,-5.337
0.192,0.053,0.280,-5.337
0.163,0.055,0.277,-5.337
0.198,0.053,0.279,-5.337
0.284,0.052,0.281,-5.337
0.335,0.054,0.283,-5.337
0.293,0.055,0.285,-5.337
0.239,0.055,0.284,-5.337
0.177,0.053,0.283,-5.337
0.200,0.052,0.283,-5.337
0.211,0.053,0.284,-5.337
0.180,0.055,0.281,-5.337
0.201,0.058,0.278,-5.337
0.205,0.057,0.277,-5.337
0.170,0.058,0.279,-5.337
0.152,0.057,0.279,-5.337
0.234,0.053,0.281,-5.337
0.299,0.050,0.283,-5.337
0.217,0.050,0.282,-5.337
0.216,0.049,0.280,-5.337
0.213,0.050,0.281,-5.337
0.262,0.052,0.284,-5.337
0.215,0.057,0.285,-5.337
0.165,0.055,0.286,-5.337
0.174,0.057,0.285,-5.337
0.206,0.052,0.281,-5.337
0.189,0.052,0.282,-5.337
0.142,0.052,0.284,-5.337
0.120,0.053,0.282,-5.337
0.138,0.055,0.277,-5.337
0.143,0.053,0.279,-5.337
0.187,0.051,0.284,-5.337
0.349,0.048,0.285,-5.337
0.429,0.052,0.283,-5.337
0.292,0.055,0.284,-5.337
0.223,0.054,0.286,-5.337
0.276,0.052,0.287,-5.337
0.249,0.050,0.287,-5.337
0.212,0.056,0.283,-5.337
0.234,0.057,0.286,-5.337
0.274,0.053,0.287,-5.337
0.223,0.053,0.286,-5.337
0.185,0.053,0.283,-5.337
0.288,0.053,0.283,-5.337
0.280,0.050,0.283,-5.337
0.145,0.055,0.286,-5.337
0.160,0.055,0.284,-5.337
0.237,0.053,0.279,-5.337
0.216,0.056,0.277,-5.337
0.165,0.057,0.281,-5.337
0.201,0.052,0.285,-5.337
0.188,0.051,0.287,-5.337
0.204,0.053,0.290,-5.337
0.156,0.057,0.288,-5.337
0.123,0.055,0.283,-5.337
0.163,0.053,0.282,-5.337
0.230,0.053,0.285,-5.337
0.254,0.055,0.282,-5.337
0.283,0.053,0.279,-5.337
0.236,0.053,0.280,-5.337
0.156,0.051,0.287,-5.337
0.183,0.048,0.288,-5.337
0.231,0.048,0.288,-5.337
0.156,0.047,0.287,-5.337
0.159,0.049,0.284,-5.337
0.225,0.050,0.285,-5.337
0.219,0.050,0.287,-5.337
0.225,0.048,0.286,-5.337
0.324,0.045,0.284,-5.337
0.356,0.044,0.281,-5.337
0.236,0.045,0.286,-5.337
0.151,0.043,0.289,-5.337
0.205,0.044,0.287,-5.337
0.286,0.043,0.284,-5.337
0.278,0.042,0.281,-5.337
0.303,0.041,0.280,-5.337
0.281,0.043,0.281,-5.337
0.267,0.044,0.281,-5.337
0.256,0.045,0.281,-5.337
0.233,0.044,0.284,-5.337
0.190,0.043,0.287,-5.337
0.214,0.043,0.292,-5.337
0.237,0.045,0.288,-5.337
0.151,0.044,0.286,-5.337
0.125,0.041,0.285,-5.337
0.242,0.040,0.284,-5.337
0.235,0.045,0.279,-5.337
0.236,0.046,0.279,-5.337
0.321,0.043,0.282,-5.337
0.320,0.045,0.283,-5.337
0.252,0.045,0.282,-5.337
0.246,0.045,0.282,-5.337
0.228,0.044,0.282,-5.337
0.227,0.045,0.282,-5.337
0.214,0.044,0.283,-5.337
0.240,0.044,0.285,-5.337
0.296,0.048,0.285,-5.337
0.262,0.049,0.283,-5.337
0.217,0.047,0.279,-5.337
0.192,0.045,0.278,-5.337
0.218,0.042,0.277,-5.337
0.211,0.042,0.281,-5.337
0.255,0.042,0.284,-5.337
0.277,0.042,0.284,-5.337
0.312,0.040,0.287,-5.337
0.266,0.040,0.288,-5.337
0.218,0.042,0.287,-5.337
0.220,0.045,0.284,-5.337
0.237,0.044,0.282,-5.337
0.163,0.042,0.276,-5.337
0.083,0.043,0.281,-5.337
0.176,0.041,0.285,-5.337
0.299,0.039,0.284,-5.337
0.321,0.039,0.281,-5.337
0.317,0.038,0.282,-5.337
0.267,0.040,0.283,-5.337
0.198,0.040,0.284,-5.337
0.260,0.036,0.283,-5.337
0.287,0.038,0.281,-5.337
0.223,0.042,0.282,-5.337
0.185,0.042,0.287,-5.337
0.215,0.035,0.288,-5.337
0.280,0.033,0.285,-5.337
0.358,0.033,0.284,-5.337
0.294,0.032,0.285,-5.337
0.226,0.034,0.285,-5.337
0.211,0.039,0.281,-5.337
0.184,0.037,0.279,-5.337
0.238,0.037,0.280,-5.337
0.266,0.042,0.283,-5.337
0.244,0.042,0.283,-5.337
0.259,0.037,0.284,-5.337
0.225,0.037,0.286,-5.337
0.192,0.040,0.285,-5.337
0.205,0.039,0.282,-5.337
0.183,0.040,0.283,-5.337
0.121,0.037,0.281,-5.337
0.151,0.035,0.280,-5.337
0.221,0.035,0.279,-5.337
0.254,0.037,0.280,-5.337
0.208,0.038,0.282,-5.337
0.197,0.042,0.286,-5.337
0.242,0.044,0.286,-5.337
0.192,0.042,0.286,-5.337
0.187,0.037,0.285,-5.337
0.273,0.033,0.288,-5.337
0.242,0.039,0.288,-5.337
0.193,0.034,0.287,-5.337
0.275,0.034,0.285,-5.337
0.361,0.034,0.281,-5.337
0.253,0.037,0.281,-5.337
0.151,0.037,0.282,-5.337
0.193,0.035,0.283,-5.337
0.226,0.039,0.284,-5.337
0.174,0.042,0.286,-5.337
0.173,0.039,0.284,-5.337
0.226,0.038,0.283,-5.337
0.233,0.041,0.280,-5.337
0.167,0.042,0.280,-5.337
0.224,0.039,0.279,-5.337
0.220,0.038,0.282,-5.337
0.179,0.038,0.281,-5.337
0.166,0.037,0.283,-5.337
0.199,0.035,0.285,-5.337
0.249,0.035,0.289,-5.337
0.256,0.034,0.290,-5.337
0.214,0.035,0.286,-5.337
0.163,0.037,0.283,-5.337
0.181,0.039,0.284,-5.337
0.292,0.032,0.285,-5.337
0.279,0.031,0.287,-5.337
0.215,0.034,0.287,-5.337
0.151,0.037,0.281,-5.337
0.210,0.036,0.279,-5.337
0.238,0.035,0.276,-5.337
0.178,0.034,0.282,-5.337
0.166,0.032,0.286,-5.337
0.195,0.032,0.289,-5.337
0.232,0.036,0.286,-5.337
0.286,0.033,0.282,-5.337
0.341,0.030,0.280,-5.337
0.344,0.029,0.284,-5.337
0.293,0.029,0.285,-5.337
0.258,0.032,0.281,-5.337
0.216,0.031,0.282,-5.337
0.238,0.033,0.287,-5.337
0.268,0.033,0.288,-5.337
0.217,0.032,0.288,-5.337
0.199,0.032,0.285,-5.337
0.214,0.033,0.282,-5.337
0.252,0.031,0.282,-5.337
0.262,0.030,0.281,-5.337
0.234,0.033,0.281,-5.337
0.221,0.033,0.280,-5.337
0.205,0.033,0.283,-5.337
0.176,0.034,0.287,-5.337
0.256,0.033,0.286,-5.337
0.286,0.032,0.286,-5.337
0.248,0.029,0.283,-5.337
0.255,0.030,0.279,-5.337
0.310,0.031,0.282,-5.337
0.331,0.035,0.286,-5.337
0.357,0.031,0.290,-5.337
0.321,0.031,0.284,-5.337
0.259,0.030,0.281,-5.337
0.235,0.030,0.280,-5.337
0.246,0.030,0.280,-5.337
0.321,0.027,0.281,-5.337
0.352,0.027,0.287,-5.337
0.191,0.031,0.291,-5.337
0.135,0.033,0.289,-5.337
0.158,0.034,0.282,-5.337
0.134,0.035,0.278,-5.337
0.156,0.036,0.279,-5.337
0.156,0.039,0.284,-5.337
0.177,0.037,0.284,-5.337
0.168,0.035,0.282,-5.337
0.121,0.035,0.282,-5.337
0.172,0.034,0.285,-5.337
0.220,0.034,0.288,-5.337
0.216,0.036,0.287,-5.337
0.265,0.035,0.283,-5.337
0.295,0.032,0.277,-5.337
0.312,0.031,0.281,-5.337
0.320,0.032,0.282,-5.337
0.285,0.033,0.283,-5.337
0.198,0.033,0.278,-5.337
0.155,0.034,0.277,-5.337
0.155,0.036,0.280,-5.337
0.116,0.036,0.282,-5.337
0.168,0.034,0.284,-5.337
0.289,0.030,0.286,-5.337
0.223,0.032,0.288,-5.337
0.178,0.034,0.290,-5.337
0.248,0.033,0.289,-5.337
0.309,0.034,0.284,-5.337
0.181,0.036,0.281,-5.337
0.161,0.031,0.281,-5.337
0.186,0.035,0.282,-5.337
0.236,0.034,0.281,-5.337
0.293,0.031,0.280,-5.337
0.277,0.036,0.281,-5.337
0.267,0.036,0.285,-5.337
0.226,0.038,0.286,-5.337
0.238,0.037,0.285,-5.337
0.195,0.036,0.281,-5.337
0.251,0.031,0.279,-5.337
0.311,0.028,0.276,-5.337
0.237,0.031,0.280,-5.337
0.197,0.029,0.281,-5.337
0.221,0.032,0.282,-5.337
0.266,0.031,0.283,-5.337
0.253,0.026,0.282,-5.337
0.280,0.023,0.282,-5.337
0.255,0.025,0.284,-5.337
0.320,0.024,0.286,-5.337
0.331,0.025,0.289,-5.337
0.287,0.025,0.290,-5.337
0.294,0.029,0.285,-5.337
0.310,0.028,0.283,-5.337
0.282,0.031,0.283,-5.337
0.182,0.032,0.281,-5.337
0.134,0.029,0.280,-5.337
0.211,0.030,0.281,-5.337
0.214,0.032,0.284,-5.337
0.192,0.035,0.289,-5.337
0.228,0.038,0.288,-5.337
0.186,0.039,0.283,-5.337
0.196,0.040,0.276,-5.337
0.166,0.037,0.276,-5.337
0.167,0.035,0.277,-5.337
0.173,0.036,0.279,-5.337
0.124,0.038,0.281,-5.337
0.144,0.036,0.281,-5.337
0.183,0.035,0.283,-5.337
0.267,0.036,0.286,-5.337
0.272,0.038,0.289,-5.337
0.260,0.040,0.286,-5.337
0.259,0.039,0.283,-5.337
0.320,0.038,0.284,-5.337
0.295,0.034,0.281,-5.337
0.234,0.035,0.278,-5.337
0.215,0.037,0.279,-5.337
0.198,0.040,0.282,-5.337
0.191,0.038,0.284,-5.337
0.238,0.035,0.282,-5.337
0.268,0.037,0.281,-5.337
0.288,0.039,0.281,-5.337
0.268,0.036,0.284,-5.337
0.257,0.038,0.288,-5.337
0.200,0.041,0.288,-5.337
0.128,0.046,0.283,-5.337
0.123,0.047,0.281,-5.337
0.174,0.046,0.283,-5.337
0.153,0.046,0.290,-5.337
0.113,0.047,0.290,-5.337
0.130,0.049,0.288,-5.337
0.108,0.045,0.284,-5.337
0.121,0.044,0.282,-5.337
0.133,0.045,0.281,-5.337
0.173,0.045,0.279,-5.337
0.227,0.046,0.277,-5.337
0.274,0.045,0.279,-5.337
0.233,0.040,0.284,-5.337
0.117,0.044,0.287,-5.337
0.092,0.048,0.289,-5.337
0.184,0.048,0.291,-5.337
0.274,0.041,0.292,-5.337
0.204,0.039,0.290,-5.337
0.200,0.042,0.283,-5.337
0.242,0.050,0.279,-5.337
0.261,0.049,0.278,-5.337
0.300,0.045,0.278,-5.337
0.231,0.049,0.280,-5.337
0.167,0.051,0.280,-5.337
0.225,0.046,0.283,-5.337
0.273,0.043,0.284,-5.337
0.277,0.047,0.284,-5.337
0.264,0.049,0.286,-5.337
0.240,0.049,0.289,-5.337
0.263,0.046,0.289,-5.337
0.280,0.045,0.290,-5.337
0.287,0.042,0.290,-5.337
0.305,0.045,0.292,-5.337
0.245,0.048,0.290,-5.337
0.156,0.049,0.286,-5.337
0.168,0.048,0.282,-5.337
0.233,0.045,0.284,-5.337
0.322,0.042,0.285,-5.337
0.318,0.048,0.286,-5.337
0.178,0.056,0.288,-5.337
0.052,0.051,0.288,-5.337
0.047,0.047,0.282,-5.337
0.150,0.049,0.279,-5.337
0.187,0.052,0.279,-5.337
0.228,0.055,0.280,-5.337
0.281,0.050,0.284,-5.337
0.325,0.051,0.286,-5.337
0.193,0.052,0.292,-5.337
0.116,0.050,0.291,-5.337
0.164,0.050,0.289,-5.337
0.253,0.046,0.286,-5.337
0.210,0.049,0.286,-5.337
0.126,0.051,0.287,-5.337
0.159,0.048,0.286,-5.337
0.165,0.048,0.284,-5.337
0.142,0.048,0.284,-5.337
0.201,0.045,0.283,-5.337
0.262,0.048,0.284,-5.337
0.177,0.050,0.281,-5.337
0.108,0.054,0.284,-5.337
0.256,0.052,0.290,-5.337
0.370,0.051,0.291,-5.337
0.324,0.050,0.288,-5.337
0.329,0.048,0.281,-5.337
0.247,0.050,0.277,-5.337
0.177,0.054,0.277,-5.337
0.158,0.054,0.279,-5.337
0.235,0.051,0.278,-5.337
0.316,0.047,0.279,-5.337
0.352,0.043,0.281,-5.337
0.298,0.047,0.286,-5.337
0.225,0.050,0.288,-5.337
0.142,0.052,0.289,-5.337
0.160,0.052,0.287,-5.337
0.266,0.048,0.281,-5.337
0.277,0.045,0.277,-5.337
0.207,0.047,0.278,-5.337
0.098,0.050,0.279,-5.337
0.021,0.052,0.279,-5.337
0.158,0.051,0.282,-5.337
0.198,0.053,0.287,-5.337
0.145,0.050,0.290,-5.337
0.191,0.048,0.289,-5.337
0.191,0.053,0.287,-5.337
0.177,0.057,0.285,-5.337
0.186,0.057,0.282,-5.337
0.102,0.052,0.279,-5.337
0.083,0.052,0.280,-5.337
0.074,0.054,0.281,-5.337
0.133,0.055,0.285,-5.337
0.208,0.054,0.288,-5.337
0.143,0.054,0.288,-5.337
0.118,0.052,0.283,-5.337
0.200,0.052,0.281,-5.337
0.291,0.052,0.282,-5.337
0.324,0.055,0.284,-5.337
0.260,0.055,0.285,-5.337
0.197,0.054,0.284,-5.337
0.235,0.046,0.283,-5.337
0.232,0.048,0.283,-5.337
0.252,0.048,0.281,-5.337
0.300,0.049,0.282,-5.337
0.198,0.054,0.286,-5.337
0.165,0.054,0.284,-5.337
0.258,0.052,0.280,-5.337
0.253,0.050,0.279,-5.337
0.212,0.051,0.281,-5.337
0.214,0.053,0.285,-5.337
0.258,0.053,0.286,-5.337
0.214,0.054,0.284,-5.337
0.256,0.053,0.282,-5.337
0.197,0.057,0.280,-5.337
0.166,0.058,0.283,-5.337
0.154,0.057,0.286,-5.337
0.197,0.058,0.287,-5.337
0.204,0.058,0.285,-5.337
0.182,0.058,0.287,-5.337
0.164,0.058,0.286,-5.337
0.173,0.057,0.286,-5.337
0.193,0.061,0.285,-5.337
0.120,0.062,0.283,-5.337
0.120,0.058,0.284,-5.337
0.178,0.060,0.288,-5.337
0.192,0.057,0.286,-5.337
0.137,0.062,0.283,-5.337
0.106,0.059,0.283,-5.337
0.146,0.057,0.285,-5.337
0.230,0.055,0.283,-5.337
0.257,0.056,0.283,-5.337
0.274,0.055,0.285,-5.337
0.258,0.056,0.287,-5.337
0.182,0.057,0.285,-5.337
0.223,0.057,0.279,-5.337
0.232,0.057,0.278,-5.337
0.184,0.055,0.280,-5.337
0.125,0.054,0.283,-5.337
0.162,0.052,0.280,-5.337
0.237,0.053,0.277,-5.337
0.250,0.053,0.278,-5.337
0.275,0.053,0.286,-5.337
0.261,0.056,0.290,-5.337
0.206,0.058,0.292,-5.337
0.197,0.061,0.285,-5.337
0.214,0.061,0.283,-5.337
0.218,0.059,0.282,-5.337
0.174,0.060,0.281,-5.337
0.148,0.060,0.281,-5.337
0.219,0.059,0.284,-5.337
0.356,0.059,0.287,-5.337
0.312,0.058,0.287,-5.337
0.206,0.060,0.284,-5.337
0.197,0.061,0.286,-5.337
0.289,0.058,0.282,-5.337
0.243,0.059,0.279,-5.337
0.181,0.058,0.280,-5.337
0.187,0.063,0.283,-5.337
0.252,0.063,0.289,-5.337
0.270,0.061,0.290,-5.337
0.212,0.058,0.287,-5.337
0.183,0.058,0.281,-5.337
0.205,0.060,0.279,-5.337
0.242,0.063,0.281,-5.337
0.232,0.061,0.284,-5.337
0.162,0.060,0.286,-5.337
0.237,0.055,0.286,-5.337
0.298,0.057,0.284,-5.337
0.244,0.059,0.283,-5.337
0.168,0.059,0.282,-5.337
0.232,0.058,0.283,-5.337
0.225,0.057,0.286,-5.337
0.242,0.061,0.290,-5.337
0.306,0.057,0.288,-5.337
0.255,0.061,0.282,-5.337
0.215,0.059,0.279,-5.337
0.181,0.063,0.281,-5.337
0.141,0.064,0.282,-5.337
0.200,0.063,0.283,-5.337
0.252,0.061,0.287,-5.337
0.192,0.061,0.287,-5.337
0.139,0.060,0.286,-5.337
0.157,0.059,0.283,-5.337
0.189,0.060,0.279,-5.337
0.219,0.059,0.279,-5.337
0.204,0.060,0.280,-5.337
0.202,0.060,0.282,-5.337
0.237,0.061,0.286,-5.337
0.147,0.062,0.291,-5.337
0.038,0.062,0.292,-5.337
-0.036,0.063,0.291,-5.337
0.079,0.067,0.291,-5.337
0.139,0.066,0.290,-5.337
0.122,0.065,0.287,-5.337
0.179,0.061,0.283,-5.337
0.201,0.061,0.280,-5.337
0.151,0.063,0.283,-5.337
0.224,0.060,0.285,-5.337
0.222,0.058,0.281,-5.337
0.170,0.060,0.279,-5.337
0.110,0.063,0.282,-5.337
0.187,0.062,0.287,-5.337
0.247,0.059,0.287,-5.337
0.240,0.058,0.285,-5.337
0.302,0.058,0.284,-5.337
0.344,0.059,0.283,-5.337
0.273,0.061,0.285,-5.337
0.250,0.062,0.286,-5.337
0.285,0.062,0.290,-5.337
0.242,0.060,0.287,-5.337
0.205,0.060,0.284,-5.337
0.242,0.059,0.281,-5.337
0.246,0.061,0.283,-5.337
0.198,0.064,0.281,-5.337
0.095,0.066,0.277,-5.337
0.096,0.063,0.275,-5.337
0.206,0.062,0.279,-5.337
0.229,0.059,0.283,-5.337
0.220,0.060,0.282,-5.337
0.248,0.062,0.281,-5.337
0.187,0.066,0.283,-5.337
0.230,0.062,0.283,-5.337
0.278,0.061,0.286,-5.337
0.212,0.060,0.287,-5.337
0.260,0.057,0.285,-5.337
0.327,0.058,0.283,-5.337
0.319,0.060,0.281,-5.337
0.195,0.064,0.279,-5.337
0.138,0.061,0.280,-5.337
0.180,0.061,0.284,-5.337
0.234,0.059,0.287,-5.337
0.202,0.054,0.286,-5.337
0.213,0.055,0.283,-5.337
0.264,0.059,0.282,-5.337
0.140,0.063,0.280,-5.337
0.111,0.059,0.281,-5.337
0.104,0.057,0.282,-5.337
0.110,0.059,0.285,-5.337
0.116,0.056,0.286,-5.337
0.206,0.051,0.288,-5.337
0.248,0.050,0.287,-5.337
0.130,0.052,0.281,-5.337
0.073,0.050,0.280,-5.337
0.146,0.049,0.281,-5.337
0.233,0.047,0.280,-5.337
0.241,0.046,0.284,-5.337
0.224,0.046,0.286,-5.337
0.258,0.046,0.285,-5.337
0.290,0.048,0.283,-5.337
0.253,0.050,0.282,-5.337
0.152,0.048,0.279,-5.337
0.098,0.048,0.275,-5.337
0.114,0.047,0.278,-5.337
0.185,0.048,0.286,-5.337
0.221,0.051,0.293,-5.337
0.161,0.050,0.295,-5.337
0.158,0.049,0.294,-5.337
0.243,0.047,0.287,-5.337
0.310,0.051,0.284,-5.337
0.325,0.051,0.279,-5.337
0.294,0.051,0.276,-5.337
0.193,0.051,0.277,-5.337
0.216,0.052,0.282,-5.337
0.271,0.051,0.285,-5.337
0.277,0.050,0.285,-5.337
0.241,0.049,0.285,-5.337
0.234,0.051,0.285,-5.337
0.188,0.049,0.283,-5.337
0.203,0.053,0.286,-5.337
0.212,0.053,0.289,-5.337
0.184,0.053,0.286,-5.337
0.170,0.052,0.280,-5.337
0.195,0.054,0.278,-5.337
0.161,0.052,0.281,-5.337
0.189,0.050,0.285,-5.337
0.182,0.049,0.286,-5.337
0.200,0.049,0.285,-5.337
0.255,0.046,0.285,-5.337
0.237,0.050,0.285,-5.337
0.188,0.049,0.285,-5.337
0.221,0.050,0.281,-5.337
0.235,0.048,0.283,-5.337
0.183,0.045,0.287,-5.337
0.213,0.046,0.289,-5.337
0.150,0.049,0.289,-5.337
0.158,0.048,0.290,-5.337
0.163,0.047,0.285,-5.337
0.249,0.046,0.279,-5.337
0.361,0.043,0.279,-5.337
0.333,0.040,0.285,-5.337
0.226,0.041,0.289,-5.337
0.137,0.044,0.291,-5.337
0.186,0.039,0.287,-5.337
0.213,0.040,0.285,-5.337
0.205,0.042,0.287,-5.337
0.184,0.044,0.286,-5.337
0.170,0.041,0.285,-5.337
0.178,0.042,0.286,-5.337
0.235,0.040,0.285,-5.337
0.259,0.039,0.290,-5.337
0.306,0.040,0.291,-5.337
0.304,0.042,0.289,-5.337
0.275,0.042,0.288,-5.337
0.356,0.041,0.284,-5.337
0.317,0.042,0.284,-5.337
0.247,0.043,0.282,-5.337
0.232,0.043,0.285,-5.337
0.242,0.042,0.290,-5.337
0.208,0.044,0.292,-5.337
0.227,0.043,0.287,-5.337
0.292,0.042,0.286,-5.337
0.265,0.043,0.285,-5.337
0.173,0.047,0.284,-5.337
0.191,0.045,0.283,-5.337
0.217,0.044,0.285,-5.337
0.226,0.046,0.287,-5.337
0.246,0.046,0.290,-5.337
0.243,0.043,0.291,-5.337
0.244,0.042,0.290,-5.337
0.285,0.042,0.290,-5.337
0.226,0.046,0.285,-5.337
0.165,0.046,0.281,-5.337
0.192,0.046,0.283,-5.337
0.207,0.047,0.285,-5.337
0.235,0.043,0.283,-5.337
0.179,0.047,0.284,-5.337
0.179,0.045,0.289,-5.337
0.246,0.042,0.288,-5.337
0.317,0.041,0.286,-5.337
0.343,0.042,0.282,-5.337
0.262,0.046,0.280,-5.337
0.123,0.049,0.284,-5.337
0.100,0.047,0.283,-5.337
0.161,0.047,0.283,-5.337
0.204,0.044,0.284,-5.337
0.271,0.044,0.285,-5.337
0.269,0.043,0.285,-5.337
0.173,0.042,0.288,-5.337
0.170,0.040,0.291,-5.337
0.184,0.041,0.285,-5.337
0.215,0.041,0.280,-5.337
0.276,0.036,0.281,-5.337
0.296,0.032,0.280,-5.337
0.261,0.038,0.283,-5.337
0.220,0.043,0.288,-5.337
0.178,0.043,0.291,-5.337
0.203,0.041,0.290,-5.337
0.197,0.044,0.286,-5.337
0.183,0.045,0.281,-5.337
0.214,0.044,0.277,-5.337
0.233,0.043,0.279,-5.337
0.213,0.042,0.285,-5.337
0.272,0.041,0.289,-5.337
0.243,0.040,0.285,-5.337
0.252,0.042,0.281,-5.337
0.265,0.044,0.280,-5.337
0.293,0.042,0.284,-5.337
0.237,0.042,0.285,-5.337
0.224,0.040,0.284,-5.337
0.260,0.039,0.281,-5.337
0.280,0.043,0.284,-5.337
0.236,0.045,0.285,-5.337
0.173,0.048,0.286,-5.337
0.201,0.042,0.284,-5.337
0.217,0.043,0.284,-5.337
0.215,0.042,0.283,-5.337
0.243,0.044,0.280,-5.337
0.248,0.043,0.283,-5.337
0.229,0.042,0.286,-5.337
0.221,0.044,0.286,-5.337
0.225,0.044,0.285,-5.337
0.269,0.042,0.288,-5.337
0.354,0.038,0.285,-5.337
0.366,0.036,0.283,-5.337
0.249,0.040,0.282,-5.337
0.201,0.042,0.285,-5.337
0.283,0.037,0.285,-5.337
0.212,0.044,0.283,-5.337
0.186,0.047,0.283,-5.337
0.204,0.048,0.282,-5.337
0.257,0.043,0.283,-5.337
0.190,0.041,0.284,-5.337
0.153,0.040,0.282,-5.337
0.283,0.037,0.281,-5.337
0.245,0.038,0.281,-5.337
0.192,0.039,0.281,-5.337
0.267,0.039,0.283,-5.337
0.298,0.037,0.285,-5.337
0.265,0.039,0.285,-5.337
0.266,0.041,0.285,-5.337
0.269,0.040,0.287,-5.337
0.328,0.037,0.288,-5.337
0.249,0.040,0.284,-5.337
0.157,0.046,0.285,-5.337
0.238,0.044,0.289,-5.337
0.312,0.042,0.288,-5.337
0.241,0.045,0.286,-5.337
0.211,0.047,0.284,-5.337
0.241,0.048,0.285,-5.337
0.192,0.046,0.284,-5.337
0.103,0.046,0.284,-5.337
0.112,0.043,0.284,-5.337
0.188,0.042,0.285,-5.337
0.229,0.040,0.281,-5.337
0.192,0.039,0.282,-5.337
0.154,0.042,0.284,-5.337
0.132,0.042,0.287,-5.337
0.200,0.042,0.288,-5.337
0.231,0.041,0.288,-5.337
0.269,0.035,0.285,-5.337
0.226,0.038,0.284,-5.337
0.200,0.040,0.286,-5.337
0.198,0.041,0.288,-5.337
0.138,0.043,0.287,-5.337
0.108,0.039,0.286,-5.337
0.185,0.036,0.287,-5.337
0.214,0.036,0.287,-5.337
0.213,0.037,0.286,-5.337
0.159,0.036,0.282,-5.337
0.135,0.036,0.281,-5.337
0.150,0.040,0.280,-5.337
0.103,0.043,0.285,-5.337
0.175,0.039,0.287,-5.337
0.300,0.034,0.285,-5.337
0.286,0.032,0.283,-5.337
0.264,0.038,0.286,-5.337
0.212,0.041,0.287,-5.337
0.125,0.042,0.287,-5.337
0.196,0.036,0.281,-5.337
0.324,0.037,0.280,-5.337
0.301,0.039,0.284,-5.337
0.195,0.040,0.289,-5.337
0.189,0.036,0.289,-5.337
0.303,0.033,0.290,-5.337
0.367,0.035,0.288,-5.337
0.338,0.036,0.286,-5.337
0.330,0.034,0.285,-5.337
0.369,0.035,0.291,-5.337
0.372,0.036,0.292,-5.337
0.202,0.039,0.290,-5.337
0.084,0.043,0.285,-5.337
0.121,0.040,0.279,-5.337
0.233,0.036,0.281,-5.337
0.215,0.036,0.280,-5.337
0.219,0.037,0.283,-5.337
0.203,0.036,0.286,-5.337
0.172,0.034,0.289,-5.337
0.209,0.033,0.286,-5.337
0.265,0.037,0.285,-5.337
0.263,0.040,0.282,-5.337
0.265,0.039,0.284,-5.337
0.295,0.035,0.287,-5.337
0.192,0.037,0.288,-5.337
0.105,0.037,0.285,-5.337
0.192,0.037,0.286,-5.337
0.264,0.036,0.287,-5.337
0.256,0.041,0.285,-5.337
0.199,0.043,0.284,-5.337
0.156,0.041,0.288,-5.337
0.101,0.044,0.287,-5.337
0.061,0.043,0.283,-5.337
0.114,0.044,0.281,-5.337
0.128,0.044,0.281,-5.337
0.212,0.041,0.283,-5.337
0.289,0.039,0.283,-5.337
0.259,0.035,0.286,-5.337
0.250,0.036,0.288,-5.337
0.265,0.037,0.288,-5.337
0.284,0.035,0.283,-5.337
0.306,0.035,0.280,-5.337
0.330,0.039,0.283,-5.337
0.265,0.040,0.285,-5.337
0.313,0.034,0.282,-5.337
0.354,0.029,0.281,-5.337
0.251,0.031,0.283,-5.337
0.173,0.036,0.282,-5.337
0.161,0.033,0.282,-5.337
0.214,0.033,0.285,-5.337
0.284,0.035,0.287,-5.337
0.334,0.033,0.283,-5.337
0.332,0.035,0.284,-5.337
0.231,0.037,0.285,-5.337
0.206,0.038,0.289,-5.337
0.252,0.038,0.290,-5.337
0.292,0.037,0.286,-5.337
0.295,0.038,0.283,-5.337
0.231,0.038,0.284,-5.337
0.136,0.041,0.288,-5.337
0.238,0.042,0.289,-5.337
0.235,0.043,0.285,-5.337
0.181,0.041,0.284,-5.337
0.263,0.038,0.284,-5.337
0.245,0.040,0.286,-5.337
0.217,0.041,0.284,-5.337
0.212,0.041,0.285,-5.337
0.222,0.040,0.285,-5.337
0.236,0.042,0.283,-5.337
0.274,0.044,0.283,-5.337
0.228,0.046,0.284,-5.337
0.122,0.047,0.286,-5.337
0.194,0.044,0.285,-5.337
0.263,0.041,0.286,-5.337
0.164,0.046,0.288,-5.337
0.077,0.049,0.287,-5.337
0.137,0.047,0.288,-5.337
0.260,0.042,0.285,-5.337
0.276,0.042,0.283,-5.337
0.312,0.045,0.283,-5.337
0.330,0.045,0.283,-5.337
0.278,0.045,0.282,-5.337
0.255,0.044,0.281,-5.337
0.300,0.044,0.281,-5.337
0.267,0.046,0.281,-5.337
0.183,0.048,0.285,-5.337
0.160,0.048,0.284,-5.337
0.180,0.049,0.282,-5.337
0.204,0.050,0.282,-5.337
0.270,0.050,0.283,-5.337
0.198,0.049,0.281,-5.337
0.156,0.049,0.285,-5.337
0.220,0.049,0.288,-5.337
0.247,0.050,0.290,-5.337
0.217,0.050,0.292,-5.337
0.248,0.048,0.287,-5.337
0.254,0.044,0.282,-5.337
0.238,0.044,0.282,-5.337
0.246,0.046,0.284,-5.337
0.315,0.044,0.285,-5.337
0.335,0.043,0.285,-5.337
0.291,0.047,0.285,-5.337
0.190,0.051,0.285,-5.337
0.144,0.052,0.287,-5.337
0.148,0.049,0.285,-5.337
0.167,0.047,0.282,-5.337
0.147,0.047,0.283,-5.337
0.162,0.050,0.283,-5.337
0.193,0.052,0.281,-5.337
0.231,0.047,0.280,-5.337
0.269,0.047,0.283,-5.337
0.229,0.046,0.281,-5.337
0.185,0.045,0.282,-5.337
0.103,0.050,0.283,-5.337
0.152,0.048,0.285,-5.337
0.254,0.047,0.284,-5.337
0.151,0.051,0.287,-5.337
0.130,0.050,0.288,-5.337
0.309,0.049,0.288,-5.337
0.299,0.051,0.287,-5.337
0.156,0.055,0.285,-5.337
0.114,0.055,0.283,-5.337
0.215,0.054,0.281,-5.337
0.246,0.053,0.280,-5.337
0.188,0.052,0.283,-5.337
0.202,0.055,0.291,-5.337
0.198,0.057,0.294,-5.337
0.265,0.057,0.292,-5.337
0.320,0.052,0.288,-5.337
0.260,0.048,0.288,-5.337
0.224,0.048,0.287,-5.337
0.264,0.052,0.287,-5.337
0.294,0.052,0.289,-5.337
0.236,0.052,0.289,-5.337
0.267,0.051,0.288,-5.337
0.256,0.054,0.287,-5.337
0.221,0.050,0.285,-5.337
0.245,0.049,0.287,-5.337
0.228,0.050,0.292,-5.337
0.194,0.054,0.292,-5.337
0.140,0.054,0.290,-5.337
0.173,0.053,0.286,-5.337
0.198,0.048,0.283,-5.337
0.180,0.050,0.283,-5.337
0.218,0.054,0.287,-5.337
0.213,0.053,0.285,-5.337
0.121,0.051,0.287,-5.337
0.122,0.052,0.291,-5.337
0.252,0.050,0.289,-5.337
0.291,0.051,0.286,-5.337
0.190,0.054,0.284,-5.337
0.209,0.057,0.283,-5.337
0.195,0.056,0.286,-5.337
0.135,0.053,0.285,-5.337
0.149,0.050,0.286,-5.337
0.138,0.051,0.287,-5.337
0.160,0.053,0.289,-5.337
0.256,0.055,0.287,-5.337
0.316,0.056,0.284,-5.337
0.308,0.057,0.282,-5.337
0.262,0.054,0.283,-5.337
0.217,0.053,0.289,-5.337
0.101,0.059,0.295,-5.337
0.091,0.059,0.294,-5.337
0.203,0.055,0.291,-5.337
0.224,0.054,0.286,-5.337
0.189,0.054,0.285,-5.337
0.230,0.053,0.284,-5.337
0.261,0.057,0.284,-5.337
0.228,0.060,0.282,-5.337
0.217,0.058,0.281,-5.337
0.197,0.054,0.280,-5.337
0.197,0.054,0.277,-5.337
0.231,0.059,0.280,-5.337
0.250,0.057,0.282,-5.337
0.317,0.051,0.285,-5.337
0.266,0.052,0.286,-5.337
0.135,0.056,0.288,-5.337
0.148,0.060,0.288,-5.337
0.184,0.061,0.289,-5.337
0.138,0.059,0.289,-5.337
0.140,0.057,0.290,-5.337
0.236,0.057,0.287,-5.337
0.233,0.062,0.284,-5.337
0.244,0.060,0.282,-5.337
0.237,0.060,0.283,-5.337
0.206,0.059,0.280,-5.337
0.292,0.058,0.280,-5.337
0.317,0.057,0.280,-5.337
0.264,0.057,0.282,-5.337
0.198,0.058,0.282,-5.337
0.129,0.063,0.286,-5.337
0.139,0.065,0.289,-5.337
0.153,0.065,0.286,-5.337
0.158,0.063,0.284,-5.337
0.189,0.062,0.282,-5.337
0.214,0.059,0.280,-5.337
0.256,0.056,0.280,-5.337
0.291,0.057,0.285,-5.337
0.223,0.059,0.285,-5.337
0.187,0.059,0.285,-5.337
0.223,0.060,0.282,-5.337
0.356,0.060,0.284,-5.337
0.313,0.062,0.284,-5.337
0.165,0.063,0.288,-5.337
0.169,0.061,0.286,-5.337
0.179,0.064,0.284,-5.337
0.212,0.064,0.283,-5.337
0.231,0.067,0.283,-5.337
0.213,0.064,0.281,-5.337
0.237,0.062,0.281,-5.337
0.155,0.062,0.286,-5.337
0.146,0.063,0.292,-5.337
0.176,0.063,0.293,-5.337
0.203,0.058,0.288,-5.337
0.246,0.058,0.282,-5.337
0.220,0.062,0.279,-5.337
0.165,0.064,0.279,-5.337
0.212,0.060,0.279,-5.337
0.214,0.060,0.282,-5.337
0.189,0.065,0.285,-5.337
0.117,0.063,0.286,-5.337
0.113,0.061,0.285,-5.337
0.127,0.060,0.285,-5.337
0.188,0.060,0.285,-5.337
0.164,0.059,0.289,-5.337
0.129,0.059,0.289,-5.337
0.163,0.061,0.287,-5.337
0.171,0.062,0.284,-5.337
0.220,0.059,0.288,-5.337
0.233,0.058,0.292,-5.337
0.194,0.060,0.292,-5.337
0.206,0.061,0.288,-5.337
0.245,0.059,0.283,-5.337
0.278,0.058,0.280,-5.337
0.252,0.057,0.280,-5.337
0.231,0.057,0.285,-5.337
0.166,0.060,0.284,-5.337
0.161,0.062,0.282,-5.337
0.225,0.065,0.285,-5.337
0.207,0.066,0.285,-5.337
0.156,0.067,0.281,-5.337
0.168,0.063,0.280,-5.337
0.207,0.061,0.283,-5.337
0.167,0.064,0.290,-5.337
0.167,0.062,0.293,-5.337
0.170,0.062,0.294,-5.337
0.157,0.063,0.290,-5.337
0.279,0.061,0.286,-5.337
0.333,0.062,0.283,-5.337
0.254,0.062,0.286,-5.337
0.147,0.062,0.288,-5.337
0.168,0.060,0.284,-5.337
0.231,0.056,0.282,-5.337
0.244,0.057,0.282,-5.337
0.234,0.059,0.281,-5.337
0.218,0.063,0.282,-5.337
0.164,0.063,0.287,-5.337
0.175,0.060,0.290,-5.337
0.271,0.059,0.285,-5.337
0.329,0.063,0.282,-5.337
0.302,0.065,0.283,-5.337
0.291,0.064,0.284,-5.337
0.235,0.066,0.285,-5.337
0.182,0.060,0.286,-5.337
0.224,0.060,0.282,-5.337
0.292,0.061,0.280,-5.337
0.288,0.063,0.284,-5.337
0.305,0.061,0.288,-5.337
0.335,0.062,0.289,-5.337
0.303,0.062,0.289,-5.337
0.180,0.064,0.290,-5.337
0.164,0.059,0.288,-5.337
0.197,0.057,0.284,-5.337
0.243,0.053,0.280,-5.337
0.284,0.057,0.284,-5.337
0.210,0.059,0.283,-5.337
0.064,0.061,0.283,-5.337
0.062,0.057,0.280,-5.337
0.160,0.057,0.280,-5.337
0.247,0.058,0.283,-5.337
0.206,0.059,0.285,-5.337
0.208,0.057,0.286,-5.337
0.229,0.060,0.288,-5.337
0.240,0.062,0.288,-5.337
0.282,0.063,0.286,-5.337
0.275,0.064,0.283,-5.337
0.199,0.065,0.282,-5.337
0.192,0.063,0.280,-5.337
0.170,0.063,0.284,-5.337
0.157,0.059,0.286,-5.337
0.171,0.056,0.286,-5.337
0.201,0.058,0.287,-5.337
0.209,0.060,0.285,-5.337
0.198,0.057,0.286,-5.337
0.150,0.054,0.285,-5.337
0.127,0.057,0.285,-5.337
0.128,0.058,0.282,-5.337
0.159,0.056,0.285,-5.337
0.203,0.054,0.286,-5.337
0.162,0.053,0.285,-5.337
0.141,0.055,0.284,-5.337
0.159,0.058,0.286,-5.337
0.149,0.056,0.288,-5.337
0.174,0.056,0.292,-5.337
0.153,0.054,0.288,-5.337
0.138,0.058,0.285,-5.337
0.123,0.058,0.285,-5.337
0.108,0.056,0.286,-5.337
0.165,0.052,0.286,-5.337
0.173,0.054,0.286,-5.337
0.167,0.057,0.286,-5.337
0.222,0.053,0.286,-5.337
0.244,0.048,0.283,-5.337
0.172,0.052,0.282,-5.337
0.185,0.051,0.284,-5.337
0.248,0.048,0.286,-5.337
0.302,0.043,0.287,-5.337
0.285,0.043,0.284,-5.337
0.230,0.048,0.283,-5.337
0.174,0.050,0.284,-5.337
0.170,0.050,0.287,-5.337
0.218,0.050,0.291,-5.337
0.247,0.049,0.291,-5.337
0.236,0.046,0.286,-5.337
0.274,0.047,0.284,-5.337
0.261,0.046,0.283,-5.337
0.217,0.046,0.286,-5.337
0.165,0.050,0.288,-5.337
0.145,0.051,0.287,-5.337
0.187,0.052,0.285,-5.337
0.186,0.051,0.283,-5.337
0.176,0.052,0.283,-5.337
0.190,0.057,0.283,-5.337
0.249,0.053,0.285,-5.337
0.251,0.053,0.285,-5.337
0.160,0.056,0.284,-5.337
0.136,0.056,0.282,-5.337
0.115,0.051,0.285,-5.337
0.187,0.049,0.288,-5.337
0.247,0.050,0.285,-5.337
0.227,0.049,0.280,-5.337
0.176,0.049,0.281,-5.337
0.201,0.048,0.285,-5.337
0.163,0.051,0.288,-5.337
0.205,0.047,0.287,-5.337
0.155,0.046,0.286,-5.337
0.133,0.046,0.283,-5.337
0.127,0.049,0.284,-5.337
0.158,0.050,0.286,-5.337
0.197,0.050,0.284,-5.337
0.250,0.047,0.283,-5.337
0.281,0.045,0.286,-5.337
0.337,0.044,0.286,-5.337
0.361,0.043,0.283,-5.337
0.336,0.042,0.283,-5.337
0.332,0.047,0.284,-5.337
0.299,0.047,0.283,-5.337
0.306,0.042,0.284,-5.337
0.275,0.044,0.288,-5.337
0.211,0.045,0.289,-5.337
0.176,0.048,0.287,-5.337
0.161,0.047,0.286,-5.337
0.202,0.047,0.287,-5.337
0.272,0.046,0.288,-5.337
0.249,0.046,0.289,-5.337
0.245,0.047,0.286,-5.337
0.207,0.049,0.281,-5.337
0.231,0.047,0.277,-5.337
0.299,0.049,0.279,-5.337
0.242,0.048,0.282,-5.337
0.192,0.048,0.282,-5.337
0.251,0.045,0.279,-5.337
0.238,0.044,0.282,-5.337
0.211,0.042,0.287,-5.337
0.211,0.044,0.287,-5.337
0.219,0.047,0.287,-5.337
0.221,0.045,0.288,-5.337
0.253,0.043,0.285,-5.337
0.212,0.047,0.286,-5.337
0.177,0.046,0.285,-5.337
0.225,0.046,0.286,-5.337
0.247,0.050,0.286,-5.337
0.172,0.048,0.285,-5.337
0.141,0.048,0.287,-5.337
0.221,0.045,0.289,-5.337
0.264,0.044,0.288,-5.337
0.297,0.046,0.284,-5.337
0.348,0.047,0.285,-5.337
0.377,0.045,0.285,-5.337
0.311,0.044,0.288,-5.337
0.201,0.044,0.287,-5.337
0.145,0.048,0.284,-5.337
0.202,0.044,0.284,-5.337
0.281,0.043,0.284,-5.337
0.211,0.045,0.286,-5.337
0.119,0.043,0.290,-5.337
0.192,0.038,0.289,-5.337
0.261,0.039,0.288,-5.337
0.200,0.043,0.287,-5.337
0.126,0.045,0.287,-5.337
0.182,0.042,0.288,-5.337
0.281,0.039,0.289,-5.337
0.202,0.040,0.289,-5.337
0.060,0.044,0.286,-5.337
0.129,0.041,0.282,-5.337
0.220,0.043,0.280,-5.337
0.146,0.042,0.284,-5.337
0.115,0.040,0.287,-5.337
0.179,0.040,0.291,-5.337
0.192,0.038,0.292,-5.337
0.154,0.041,0.290,-5.337
0.096,0.043,0.286,-5.337
0.194,0.040,0.287,-5.337
0.335,0.038,0.287,-5.337
0.293,0.038,0.287,-5.337
0.263,0.037,0.285,-5.337
0.254,0.038,0.288,-5.337
0.197,0.037,0.287,-5.337
0.212,0.038,0.287,-5.337
0.221,0.038,0.289,-5.337
0.162,0.038,0.289,-5.337
0.146,0.036,0.284,-5.337
0.186,0.039,0.282,-5.337
0.240,0.039,0.285,-5.337
0.274,0.038,0.288,-5.337
0.260,0.040,0.291,-5.337
0.284,0.042,0.291,-5.337
0.359,0.042,0.288,-5.337
0.316,0.041,0.289,-5.337
0.283,0.038,0.290,-5.337
0.179,0.040,0.288,-5.337
0.193,0.038,0.287,-5.337
0.290,0.037,0.287,-5.337
0.289,0.040,0.289,-5.337
0.228,0.040,0.284,-5.337
0.240,0.038,0.281,-5.337
0.279,0.037,0.277,-5.337
0.336,0.034,0.279,-5.337
0.387,0.034,0.283,-5.337
0.274,0.038,0.288,-5.337
0.176,0.038,0.289,-5.337
0.135,0.038,0.285,-5.337
0.172,0.038,0.281,-5.337
0.197,0.040,0.281,-5.337
0.265,0.037,0.283,-5.337
0.326,0.037,0.287,-5.337
0.304,0.041,0.289,-5.337
0.226,0.042,0.285,-5.337
0.178,0.042,0.285,-5.337
0.177,0.038,0.286,-5.337
0.197,0.036,0.289,-5.337
0.236,0.037,0.292,-5.337
0.263,0.038,0.293,-5.337
0.281,0.037,0.289,-5.337
0.294,0.038,0.282,-5.337
0.319,0.036,0.280,-5.337
0.388,0.033,0.283,-5.337
0.392,0.034,0.284,-5.337
0.269,0.038,0.285,-5.337
0.199,0.038,0.284,-5.337
0.157,0.040,0.282,-5.337
0.134,0.039,0.284,-5.337
0.133,0.036,0.286,-5.337
0.182,0.035,0.284,-5.337
0.218,0.038,0.285,-5.337
0.234,0.042,0.284,-5.337
0.274,0.040,0.284,-5.337
0.272,0.041,0.285,-5.337
0.230,0.041,0.286,-5.337
0.202,0.040,0.283,-5.337
0.290,0.039,0.285,-5.337
0.310,0.037,0.288,-5.337
0.277,0.035,0.286,-5.337
0.244,0.041,0.283,-5.337
0.241,0.041,0.283,-5.337
0.189,0.044,0.283,-5.337
0.152,0.044,0.282,-5.337
0.215,0.043,0.283,-5.337
0.135,0.042,0.283,-5.337
0.077,0.040,0.291,-5.337
0.074,0.041,0.291,-5.337
0.138,0.040,0.287,-5.337
0.141,0.040,0.280,-5.337
0.128,0.042,0.277,-5.337
0.207,0.040,0.283,-5.337
0.218,0.043,0.286,-5.337
0.138,0.041,0.283,-5.337
0.192,0.038,0.281,-5.337
0.264,0.036,0.283,-5.337
0.279,0.038,0.286,-5.337
0.296,0.037,0.284,-5.337
0.315,0.040,0.283,-5.337
0.344,0.042,0.284,-5.337
0.323,0.040,0.286,-5.337
0.343,0.038,0.287,-5.337
0.378,0.033,0.286,-5.337
0.305,0.037,0.282,-5.337
0.229,0.038,0.282,-5.337
0.299,0.034,0.285,-5.337
0.365,0.037,0.287,-5.337
0.348,0.037,0.290,-5.337
0.328,0.036,0.289,-5.337
0.237,0.038,0.290,-5.337
0.228,0.037,0.289,-5.337
0.264,0.038,0.288,-5.337
0.242,0.037,0.285,-5.337
0.268,0.034,0.284,-5.337
0.306,0.033,0.283,-5.337
0.222,0.034,0.283,-5.337
0.203,0.033,0.282,-5.337
0.195,0.038,0.287,-5.337
0.157,0.043,0.289,-5.337
0.195,0.042,0.286,-5.337
0.275,0.035,0.284,-5.337
0.329,0.036,0.285,-5.337
0.301,0.042,0.287,-5.337
0.196,0.042,0.289,-5.337
0.200,0.037,0.288,-5.337
0.184,0.038,0.287,-5.337
0.113,0.042,0.284,-5.337
0.125,0.044,0.285,-5.337
0.184,0.039,0.287,-5.337
0.206,0.036,0.290,-5.337
0.212,0.035,0.288,-5.337
0.208,0.033,0.283,-5.337
0.224,0.034,0.279,-5.337
0.232,0.036,0.279,-5.337
0.229,0.037,0.285,-5.337
0.218,0.037,0.288,-5.337
0.174,0.038,0.291,-5.337
0.174,0.038,0.290,-5.337
0.212,0.034,0.286,-5.337
0.235,0.030,0.279,-5.337
0.242,0.031,0.281,-5.337
0.265,0.033,0.285,-5.337
0.253,0.035,0.286,-5.337
0.221,0.034,0.283,-5.337
0.264,0.037,0.283,-5.337
0.236,0.039,0.284,-5.337
0.171,0.040,0.284,-5.337
0.240,0.038,0.285,-5.337
0.314,0.039,0.284,-5.337
0.355,0.041,0.283,-5.337
0.321,0.042,0.285,-5.337
0.262,0.038,0.287,-5.337
0.246,0.037,0.285,-5.337
0.298,0.039,0.285,-5.337
0.264,0.042,0.288,-5.337
0.208,0.038,0.289,-5.337
0.260,0.036,0.288,-5.337
0.249,0.036,0.288,-5.337
0.183,0.039,0.284,-5.337
0.185,0.042,0.284,-5.337
0.187,0.038,0.284,-5.337
0.151,0.039,0.287,-5.337
0.087,0.041,0.284,-5.337
0.170,0.043,0.282,-5.337
0.179,0.045,0.284,-5.337
0.222,0.043,0.285,-5.337
0.310,0.040,0.288,-5.337
0.345,0.041,0.286,-5.337
0.256,0.042,0.286,-5.337
0.245,0.043,0.287,-5.337
0.285,0.041,0.286,-5.337
0.297,0.037,0.284,-5.337
0.289,0.037,0.282,-5.337
0.392,0.037,0.284,-5.337
0.421,0.039,0.284,-5.337
0.373,0.040,0.284,-5.337
0.228,0.040,0.284,-5.337
0.166,0.038,0.283,-5.337
0.244,0.040,0.290,-5.337
0.282,0.042,0.292,-5.337
0.157,0.041,0.291,-5.337
0.117,0.044,0.289,-5.337
0.176,0.045,0.284,-5.337
0.200,0.045,0.279,-5.337
0.195,0.045,0.280,-5.337
0.175,0.046,0.281,-5.337
0.205,0.048,0.286,-5.337
0.223,0.047,0.285,-5.337
0.203,0.048,0.280,-5.337
0.209,0.045,0.279,-5.337
0.244,0.044,0.285,-5.337
0.235,0.046,0.288,-5.337
0.294,0.041,0.292,-5.337
0.367,0.041,0.288,-5.337
0.306,0.049,0.281,-5.337
0.210,0.052,0.281,-5.337
0.188,0.046,0.284,-5.337
0.175,0.043,0.287,-5.337
0.206,0.047,0.288,-5.337
0.261,0.046,0.288,-5.337
0.266,0.048,0.285,-5.337
0.217,0.051,0.285,-5.337
0.155,0.051,0.285,-5.337
0.194,0.053,0.285,-5.337
0.219,0.051,0.280,-5.337
0.225,0.049,0.281,-5.337
0.219,0.047,0.282,-5.337
0.184,0.047,0.287,-5.337
0.201,0.048,0.284,-5.337
0.213,0.049,0.284,-5.337
0.235,0.045,0.281,-5.337
0.224,0.043,0.279,-5.337
0.254,0.046,0.281,-5.337
0.213,0.051,0.284,-5.337
0.273,0.051,0.287,-5.337
0.314,0.046,0.291,-5.337
0.324,0.046,0.290,-5.337
0.276,0.049,0.286,-5.337
0.206,0.050,0.283,-5.337
0.242,0.050,0.284,-5.337
0.137,0.051,0.285,-5.337
0.116,0.050,0.285,-5.337
0.121,0.051,0.285,-5.337
0.116,0.054,0.282,-5.337
0.138,0.054,0.282,-5.337
0.179,0.051,0.285,-5.337
0.265,0.043,0.286,-5.337
0.255,0.047,0.284,-5.337
0.198,0.048,0.286,-5.337
0.172,0.050,0.289,-5.337
0.222,0.048,0.288,-5.337
0.213,0.048,0.284,-5.337
0.181,0.049,0.284,-5.337
0.198,0.053,0.283,-5.337
0.197,0.054,0.283,-5.337
0.155,0.056,0.283,-5.337
0.133,0.054,0.287,-5.337
0.202,0.050,0.290,-5.337
0.300,0.053,0.287,-5.337
0.292,0.057,0.284,-5.337
0.241,0.056,0.284,-5.337
0.227,0.056,0.285,-5.337
0.264,0.056,0.286,-5.337
0.194,0.056,0.284,-5.337
0.202,0.057,0.282,-5.337
0.253,0.057,0.283,-5.337
0.227,0.056,0.282,-5.337
0.197,0.055,0.284,-5.337
0.159,0.053,0.286,-5.337
0.129,0.053,0.288,-5.337
0.205,0.053,0.283,-5.337
0.238,0.053,0.280,-5.337
0.208,0.052,0.282,-5.337
0.141,0.055,0.289,-5.337
0.175,0.051,0.291,-5.337
0.247,0.050,0.286,-5.337
0.331,0.055,0.281,-5.337
0.250,0.056,0.279,-5.337
0.175,0.057,0.278,-5.337
0.175,0.061,0.282,-5.337
0.218,0.058,0.287,-5.337
0.204,0.057,0.289,-5.337
0.174,0.058,0.289,-5.337
0.157,0.054,0.286,-5.337
0.197,0.054,0.283,-5.337
0.195,0.054,0.279,-5.337
0.255,0.058,0.281,-5.337
0.226,0.058,0.284,-5.337
0.212,0.054,0.286,-5.337
0.258,0.055,0.286,-5.337
0.270,0.057,0.285,-5.337
0.244,0.056,0.283,-5.337
0.248,0.056,0.284,-5.337
0.208,0.057,0.288,-5.337
0.213,0.057,0.289,-5.337
0.190,0.058,0.287,-5.337
0.131,0.054,0.286,-5.337
0.120,0.055,0.284,-5.337
0.104,0.058,0.283,-5.337
0.028,0.060,0.279,-5.337
0.090,0.057,0.281,-5.337
0.146,0.059,0.283,-5.337
0.200,0.057,0.286,-5.337
0.246,0.055,0.289,-5.337
0.280,0.053,0.291,-5.337
0.229,0.057,0.292,-5.337
0.244,0.054,0.289,-5.337
0.238,0.055,0.286,-5.337
0.157,0.060,0.289,-5.337
0.148,0.056,0.292,-5.337
0.203,0.054,0.290,-5.337
0.222,0.057,0.284,-5.337
0.181,0.059,0.282,-5.337
0.205,0.054,0.287,-5.337
0.229,0.054,0.291,-5.337
0.160,0.059,0.291,-5.337
0.119,0.060,0.284,-5.337
0.129,0.057,0.283,-5.337
0.174,0.056,0.283,-5.337
0.210,0.061,0.285,-5.337
0.212,0.057,0.290,-5.337
0.228,0.056,0.292,-5.337
0.180,0.059,0.290,-5.337
0.196,0.057,0.287,-5.337
0.241,0.055,0.282,-5.337
0.179,0.058,0.281,-5.337
0.177,0.054,0.283,-5.337
0.186,0.057,0.289,-5.337
0.178,0.057,0.290,-5.337
0.232,0.060,0.289,-5.337
0.263,0.059,0.286,-5.337
0.243,0.061,0.283,-5.337
0.133,0.061,0.281,-5.337
0.118,0.060,0.278,-5.337
0.149,0.061,0.281,-5.337
0.255,0.059,0.288,-5.337
0.308,0.057,0.293,-5.337
0.306,0.055,0.290,-5.337
0.237,0.054,0.286,-5.337
0.192,0.058,0.283,-5.337
0.209,0.060,0.284,-5.337
0.228,0.054,0.288,-5.337
0.265,0.053,0.290,-5.337
0.313,0.054,0.287,-5.337
0.299,0.056,0.285,-5.337
0.230,0.055,0.286,-5.337
0.183,0.053,0.286,-5.337
0.133,0.052,0.285,-5.337
0.158,0.053,0.283,-5.337
0.182,0.053,0.281,-5.337
0.159,0.056,0.281,-5.337
0.226,0.054,0.280,-5.337
0.237,0.056,0.282,-5.337
0.209,0.058,0.283,-5.337
0.235,0.058,0.286,-5.337
0.193,0.059,0.286,-5.337
0.181,0.058,0.283,-5.337
0.244,0.058,0.284,-5.337
0.250,0.059,0.283,-5.337
0.157,0.063,0.282,-5.337
0.170,0.064,0.283,-5.337
0.247,0.066,0.285,-5.337
0.231,0.068,0.288,-5.337
0.184,0.067,0.288,-5.337
0.227,0.063,0.279,-5.337
0.180,0.063,0.274,-5.337
0.156,0.061,0.280,-5.337
0.173,0.063,0.286,-5.337
0.181,0.064,0.283,-5.337
0.144,0.065,0.281,-5.337
0.145,0.068,0.285,-5.337
0.145,0.069,0.289,-5.337
0.177,0.067,0.286,-5.337
0.258,0.063,0.281,-5.337
0.255,0.058,0.279,-5.337
0.161,0.060,0.281,-5.337
0.095,0.062,0.284,-5.337
0.125,0.061,0.284,-5.337
0.141,0.061,0.284,-5.337
0.144,0.061,0.285,-5.337
0.190,0.061,0.287,-5.337
0.206,0.061,0.286,-5.337
0.160,0.062,0.286,-5.337
0.193,0.061,0.287,-5.337
0.243,0.063,0.290,-5.337
0.245,0.064,0.288,-5.337
0.194,0.063,0.282,-5.337
0.206,0.062,0.281,-5.337
0.261,0.062,0.283,-5.337
0.342,0.060,0.282,-5.337
0.270,0.062,0.282,-5.337
0.257,0.059,0.284,-5.337
0.324,0.055,0.287,-5.337
0.238,0.057,0.286,-5.337
0.152,0.058,0.283,-5.337
0.183,0.059,0.284,-5.337
0.314,0.058,0.285,-5.337
0.339,0.060,0.283,-5.337
0.295,0.062,0.280,-5.337
0.285,0.061,0.279,-5.337
0.296,0.060,0.283,-5.337
0.298,0.062,0.285,-5.337
0.299,0.060,0.284,-5.337
0.306,0.060,0.285,-5.337
0.248,0.059,0.286,-5.337
0.201,0.055,0.285,-5.337
0.216,0.058,0.280,-5.337
0.154,0.065,0.281,-5.337
0.124,0.066,0.283,-5.337
0.170,0.062,0.285,-5.337
0.198,0.059,0.287,-5.337
0.145,0.061,0.290,-5.337
0.126,0.059,0.285,-5.337
0.183,0.060,0.286,-5.337
0.221,0.057,0.284,-5.337
0.202,0.055,0.279,-5.337
0.155,0.057,0.277,-5.337
0.149,0.059,0.282,-5.337
0.225,0.057,0.284,-5.337
0.202,0.060,0.286,-5.337
0.159,0.061,0.287,-5.337
0.181,0.062,0.287,-5.337
0.192,0.060,0.284,-5.337
0.201,0.058,0.282,-5.337
0.179,0.059,0.280,-5.337
0.221,0.058,0.282,-5.337
0.249,0.059,0.282,-5.337
0.202,0.062,0.281,-5.337
0.131,0.058,0.285,-5.337
0.212,0.056,0.287,-5.337
0.265,0.059,0.287,-5.337
0.237,0.059,0.284,-5.337
0.248,0.055,0.286,-5.337
0.307,0.054,0.287,-5.337
0.267,0.055,0.288,-5.337
0.188,0.053,0.289,-5.337
0.201,0.046,0.290,-5.337
0.255,0.045,0.286,-5.337
0.230,0.051,0.281,-5.337
0.237,0.050,0.279,-5.337
0.250,0.051,0.282,-5.337
0.206,0.050,0.283,-5.337
0.127,0.052,0.282,-5.337
0.176,0.053,0.282,-5.337
0.275,0.052,0.286,-5.337
0.257,0.053,0.286,-5.337
0.164,0.054,0.283,-5.337
0.120,0.059,0.281,-5.337
0.153,0.058,0.281,-5.337
0.227,0.056,0.283,-5.337
0.222,0.056,0.282,-5.337
0.195,0.057,0.280,-5.337
0.135,0.060,0.280,-5.337
0.134,0.057,0.282,-5.337
0.263,0.051,0.283,-5.337
0.333,0.050,0.286,-5.337
0.349,0.053,0.288,-5.337
0.317,0.054,0.288,-5.337
0.246,0.054,0.284,-5.337
0.211,0.054,0.282,-5.337
0.189,0.054,0.280,-5.337
0.154,0.050,0.284,-5.337
0.152,0.050,0.288,-5.337
0.125,0.052,0.290,-5.337
0.121,0.050,0.291,-5.337
0.151,0.049,0.286,-5.337
0.161,0.049,0.281,-5.337
0.218,0.048,0.281,-5.337
0.212,0.047,0.286,-5.337
0.212,0.049,0.290,-5.337
0.247,0.047,0.288,-5.337
0.259,0.047,0.287,-5.337
0.218,0.049,0.284,-5.337
0.180,0.048,0.279,-5.337
0.192,0.046,0.280,-5.337
0.195,0.047,0.282,-5.337
0.228,0.046,0.285,-5.337
0.263,0.045,0.287,-5.337
0.259,0.047,0.288,-5.337
0.293,0.047,0.284,-5.337
0.236,0.049,0.286,-5.337
0.193,0.048,0.290,-5.337
0.271,0.047,0.288,-5.337
0.326,0.046,0.286,-5.337
0.354,0.046,0.284,-5.337
0.285,0.046,0.284,-5.337
0.189,0.046,0.285,-5.337
0.228,0.047,0.286,-5.337
0.365,0.047,0.288,-5.337
0.277,0.050,0.287,-5.337
0.137,0.051,0.287,-5.337
0.178,0.050,0.287,-5.337
0.288,0.049,0.284,-5.337
0.222,0.052,0.281,-5.337
0.236,0.047,0.283,-5.337
0.344,0.043,0.290,-5.337
0.262,0.046,0.291,-5.337
0.233,0.045,0.290,-5.337
0.204,0.050,0.286,-5.337
0.166,0.051,0.285,-5.337
0.185,0.047,0.283,-5.337
0.273,0.046,0.282,-5.337
0.280,0.047,0.281,-5.337
0.260,0.051,0.280,-5.337
0.254,0.050,0.283,-5.337
0.273,0.050,0.286,-5.337
0.270,0.050,0.286,-5.337
0.313,0.047,0.287,-5.337
0.376,0.048,0.288,-5.337
0.287,0.049,0.289,-5.337
0.237,0.048,0.289,-5.337
0.267,0.046,0.289,-5.337
0.265,0.049,0.288,-5.337
0.219,0.049,0.287,-5.337
0.207,0.047,0.285,-5.337
0.210,0.047,0.281,-5.337
0.233,0.049,0.281,-5.337
0.229,0.049,0.284,-5.337
0.176,0.045,0.286,-5.337
0.136,0.046,0.283,-5.337
0.156,0.043,0.284,-5.337
0.208,0.041,0.285,-5.337
0.230,0.040,0.288,-5.337
0.245,0.040,0.285,-5.337
0.245,0.042,0.284,-5.337
0.269,0.042,0.285,-5.337
0.178,0.042,0.286,-5.337
0.108,0.041,0.284,-5.337
0.121,0.042,0.283,-5.337
0.189,0.043,0.282,-5.337
0.247,0.043,0.280,-5.337
0.307,0.039,0.278,-5.337
0.270,0.040,0.280,-5.337
0.124,0.044,0.285,-5.337
0.084,0.044,0.288,-5.337
0.130,0.044,0.289,-5.337
0.158,0.047,0.286,-5.337
0.185,0.042,0.284,-5.337
0.289,0.042,0.283,-5.337
0.226,0.047,0.281,-5.337
0.132,0.046,0.283,-5.337
0.270,0.045,0.283,-5.337
0.334,0.044,0.283,-5.337
0.282,0.042,0.285,-5.337
0.244,0.044,0.287,-5.337
0.216,0.045,0.287,-5.337
0.259,0.046,0.286,-5.337
0.221,0.045,0.286,-5.337
0.186,0.045,0.286,-5.337
0.231,0.042,0.286,-5.337
0.246,0.042,0.288,-5.337
0.227,0.043,0.290,-5.337
0.202,0.042,0.285,-5.337
0.235,0.037,0.282,-5.337
0.243,0.040,0.281,-5.337
0.212,0.041,0.283,-5.337
0.285,0.041,0.287,-5.337
0.283,0.042,0.285,-5.337
0.197,0.041,0.283,-5.337
0.165,0.041,0.287,-5.337
0.185,0.040,0.289,-5.337
0.230,0.040,0.290,-5.337
0.260,0.041,0.289,-5.337
0.216,0.042,0.286,-5.337
0.190,0.041,0.282,-5.337
0.238,0.038,0.281,-5.337
0.287,0.039,0.282,-5.337
0.292,0.041,0.287,-5.337
0.317,0.035,0.293,-5.337
0.343,0.035,0.292,-5.337
0.303,0.036,0.289,-5.337
0.309,0.035,0.284,-5.337
0.260,0.038,0.286,-5.337
0.214,0.040,0.286,-5.337
0.252,0.036,0.285,-5.337
0.253,0.037,0.282,-5.337
0.191,0.041,0.284,-5.337
0.212,0.037,0.286,-5.337
0.300,0.037,0.290,-5.337
0.319,0.035,0.291,-5.337
0.258,0.036,0.293,-5.337
0.202,0.037,0.294,-5.337
0.115,0.037,0.289,-5.337
0.118,0.037,0.284,-5.337
0.165,0.040,0.285,-5.337
0.225,0.038,0.290,-5.337
0.256,0.035,0.290,-5.337
0.267,0.034,0.288,-5.337
0.225,0.035,0.284,-5.337
0.210,0.035,0.282,-5.337
0.196,0.035,0.283,-5.337
0.273,0.037,0.286,-5.337
0.168,0.040,0.289,-5.337
0.105,0.040,0.291,-5.337
0.136,0.037,0.290,-5.337
0.214,0.033,0.289,-5.337
0.272,0.031,0.287,-5.337
0.281,0.033,0.286,-5.337
0.259,0.035,0.285,-5.337
0.252,0.035,0.286,-5.337
0.240,0.035,0.286,-5.337
0.262,0.034,0.285,-5.337
0.302,0.032,0.284,-5.337
0.349,0.037,0.285,-5.337
0.298,0.036,0.282,-5.337
0.167,0.036,0.285,-5.337
0.097,0.037,0.288,-5.337
0.162,0.036,0.292,-5.337
0.169,0.036,0.291,-5.337
0.166,0.035,0.288,-5.337
0.178,0.034,0.286,-5.337
0.170,0.035,0.284,-5.337
0.212,0.037,0.283,-5.337
0.225,0.033,0.282,-5.337
0.240,0.030,0.287,-5.337
0.204,0.034,0.288,-5.337
0.160,0.037,0.287,-5.337
0.184,0.038,0.287,-5.337
0.224,0.036,0.289,-5.337
0.225,0.033,0.286,-5.337
0.286,0.036,0.282,-5.337
0.242,0.040,0.283,-5.337
0.218,0.038,0.287,-5.337
0.210,0.037,0.290,-5.337
0.180,0.041,0.289,-5.337
0.192,0.036,0.287,-5.337
0.236,0.038,0.287,-5.337
0.292,0.038,0.285,-5.337
0.265,0.041,0.282,-5.337
0.216,0.041,0.281,-5.337
0.283,0.039,0.281,-5.337
0.340,0.039,0.284,-5.337
0.331,0.038,0.289,-5.337
0.327,0.036,0.290,-5.337
0.285,0.037,0.290,-5.337
0.280,0.036,0.288,-5.337
0.247,0.037,0.287,-5.337
0.197,0.035,0.284,-5.337
0.257,0.033,0.279,-5.337
0.300,0.033,0.280,-5.337
0.216,0.034,0.282,-5.337
0.141,0.036,0.285,-5.337
0.102,0.036,0.286,-5.337
0.165,0.034,0.287,-5.337
0.179,0.036,0.286,-5.337
0.187,0.038,0.283,-5.337
0.183,0.037,0.281,-5.337
0.180,0.036,0.278,-5.337
0.192,0.037,0.280,-5.337
0.121,0.039,0.283,-5.337
0.072,0.038,0.284,-5.337
0.204,0.035,0.287,-5.337
0.273,0.035,0.284,-5.337
0.225,0.033,0.282,-5.337
0.204,0.032,0.281,-5.337
0.309,0.032,0.283,-5.337
0.374,0.034,0.287,-5.337
0.318,0.034,0.284,-5.337
0.293,0.033,0.285,-5.337
0.254,0.035,0.285,-5.337
0.235,0.034,0.289,-5.337
0.227,0.033,0.288,-5.337
0.291,0.028,0.286,-5.337
0.357,0.031,0.285,-5.337
0.290,0.040,0.289,-5.337
0.190,0.043,0.292,-5.337
0.183,0.044,0.292,-5.337
0.173,0.040,0.288,-5.337
0.142,0.042,0.289,-5.337
0.146,0.040,0.287,-5.337
0.182,0.041,0.283,-5.337
0.251,0.038,0.281,-5.337
0.317,0.039,0.284,-5.337
0.312,0.038,0.286,-5.337
0.292,0.037,0.286,-5.337
0.242,0.036,0.285,-5.337
0.266,0.035,0.287,-5.337
0.262,0.037,0.286,-5.337
0.224,0.038,0.283,-5.337
0.248,0.038,0.280,-5.337
0.209,0.039,0.280,-5.337
0.193,0.040,0.280,-5.337
0.221,0.042,0.286,-5.337
0.188,0.041,0.290,-5.337
0.225,0.040,0.285,-5.337
0.244,0.040,0.283,-5.337
0.281,0.043,0.283,-5.337
0.269,0.044,0.287,-5.337
0.158,0.043,0.287,-5.337
0.122,0.044,0.285,-5.337
0.204,0.042,0.283,-5.337
0.199,0.043,0.286,-5.337
0.138,0.043,0.289,-5.337
0.195,0.039,0.288,-5.337
0.260,0.040,0.284,-5.337
0.279,0.044,0.284,-5.337
0.258,0.044,0.288,-5.337
0.277,0.042,0.292,-5.337
0.234,0.040,0.287,-5.337
0.214,0.042,0.281,-5.337
0.273,0.043,0.281,-5.337
0.261,0.042,0.280,-5.337
0.214,0.043,0.283,-5.337
0.193,0.044,0.283,-5.337
0.217,0.042,0.284,-5.337
0.205,0.043,0.285,-5.337
0.166,0.044,0.285,-5.337
0.170,0.044,0.285,-5.337
0.234,0.039,0.286,-5.337
0.326,0.038,0.289,-5.337
0.283,0.041,0.290,-5.337
0.183,0.044,0.287,-5.337
0.241,0.041,0.288,-5.337
0.351,0.036,0.288,-5.337
0.342,0.041,0.286,-5.337
0.285,0.044,0.283,-5.337
0.234,0.046,0.281,-5.337
0.249,0.044,0.281,-5.337
0.306,0.044,0.286,-5.337
0.274,0.045,0.291,-5.337
0.158,0.049,0.291,-5.337
0.175,0.048,0.288,-5.337
0.246,0.048,0.283,-5.337
0.202,0.052,0.282,-5.337
0.133,0.055,0.283,-5.337
0.093,0.054,0.281,-5.337
0.150,0.053,0.282,-5.337
0.208,0.055,0.285,-5.337
0.177,0.055,0.286,-5.337
0.185,0.051,0.287,-5.337
0.208,0.050,0.288,-5.337
0.273,0.051,0.290,-5.337
0.270,0.053,0.289,-5.337
0.262,0.054,0.286,-5.337
0.293,0.051,0.285,-5.337
0.245,0.051,0.283,-5.337
0.172,0.052,0.282,-5.337
0.159,0.049,0.281,-5.337
0.138,0.049,0.280,-5.337
0.064,0.051,0.281,-5.337
0.016,0.054,0.282,-5.337
0.074,0.052,0.284,-5.337
0.117,0.048,0.286,-5.337
0.134,0.049,0.289,-5.337
0.109,0.047,0.290,-5.337
0.137,0.045,0.291,-5.337
0.132,0.049,0.292,-5.337
0.126,0.047,0.290,-5.337
0.176,0.046,0.287,-5.337
0.288,0.043,0.283,-5.337
0.326,0.043,0.282,-5.337
0.306,0.045,0.284,-5.337
0.238,0.046,0.285,-5.337
0.173,0.049,0.286,-5.337
0.142,0.051,0.286,-5.337
0.168,0.052,0.286,-5.337
0.239,0.051,0.289,-5.337
0.241,0.051,0.284,-5.337
0.246,0.051,0.285,-5.337
0.262,0.050,0.284,-5.337
0.255,0.048,0.288,-5.337
0.243,0.046,0.288,-5.337
0.235,0.046,0.287,-5.337
0.216,0.045,0.287,-5.337
0.287,0.049,0.288,-5.337
0.276,0.052,0.284,-5.337
0.132,0.053,0.285,-5.337
0.134,0.049,0.286,-5.337
0.222,0.048,0.282,-5.337
0.222,0.052,0.285,-5.337
0.217,0.052,0.287,-5.337
0.200,0.054,0.288,-5.337
0.148,0.053,0.288,-5.337
0.178,0.052,0.288,-5.337
0.289,0.051,0.289,-5.337
0.233,0.051,0.286,-5.337
0.151,0.050,0.280,-5.337
0.183,0.047,0.280,-5.337
0.261,0.049,0.284,-5.337
0.225,0.051,0.287,-5.337
0.122,0.053,0.285,-5.337
0.104,0.052,0.287,-5.337
0.157,0.049,0.287,-5.337
0.156,0.053,0.289,-5.337
0.168,0.053,0.287,-5.337
0.237,0.053,0.287,-5.337
0.228,0.052,0.285,-5.337
0.238,0.051,0.284,-5.337
0.227,0.052,0.283,-5.337
0.184,0.054,0.286,-5.337
0.141,0.053,0.291,-5.337
0.102,0.053,0.290,-5.337
0.157,0.049,0.286,-5.337
0.268,0.049,0.286,-5.337
0.274,0.046,0.286,-5.337
0.313,0.045,0.281,-5.337
0.293,0.050,0.282,-5.337
0.294,0.049,0.284,-5.337
0.293,0.051,0.288,-5.337
0.272,0.049,0.290,-5.337
0.215,0.054,0.292,-5.337
0.083,0.060,0.290,-5.337
0.136,0.059,0.286,-5.337
0.249,0.056,0.284,-5.337
0.234,0.057,0.285,-5.337
0.185,0.059,0.284,-5.337
0.186,0.060,0.286,-5.337
0.255,0.051,0.287,-5.337
0.261,0.054,0.283,-5.337
0.205,0.057,0.283,-5.337
0.183,0.057,0.285,-5.337
0.241,0.057,0.285,-5.337
0.299,0.055,0.284,-5.337
0.218,0.056,0.286,-5.337
0.105,0.054,0.289,-5.337
0.128,0.055,0.291,-5.337
0.203,0.053,0.291,-5.337
0.184,0.053,0.286,-5.337
0.155,0.059,0.283,-5.337
0.160,0.059,0.285,-5.337
0.225,0.058,0.288,-5.337
0.259,0.056,0.285,-5.337
0.248,0.052,0.280,-5.337
0.274,0.055,0.282,-5.337
0.313,0.056,0.287,-5.337
0.288,0.055,0.288,-5.337
0.263,0.056,0.286,-5.337
0.252,0.056,0.286,-5.337
0.217,0.059,0.286,-5.337
0.199,0.055,0.286,-5.337
0.224,0.052,0.285,-5.337
0.273,0.053,0.281,-5.337
0.283,0.055,0.280,-5.337
0.263,0.057,0.284,-5.337
0.209,0.057,0.288,-5.337
0.168,0.058,0.290,-5.337
0.238,0.057,0.286,-5.337
0.202,0.057,0.286,-5.337
0.179,0.057,0.285,-5.337
0.205,0.058,0.285,-5.337
0.198,0.058,0.290,-5.337
0.151,0.059,0.295,-5.337
0.155,0.057,0.295,-5.337
0.253,0.057,0.287,-5.337
0.288,0.054,0.282,-5.337
0.253,0.055,0.285,-5.337
0.152,0.057,0.289,-5.337
0.072,0.062,0.286,-5.337
0.160,0.059,0.282,-5.337
0.241,0.056,0.285,-5.337
0.233,0.056,0.293,-5.337
0.180,0.063,0.294,-5.337
0.099,0.068,0.294,-5.337
0.091,0.065,0.288,-5.337
0.059,0.063,0.286,-5.337
0.215,0.060,0.290,-5.337
0.259,0.061,0.293,-5.337
0.147,0.060,0.292,-5.337
0.152,0.058,0.287,-5.337
0.174,0.058,0.285,-5.337
0.138,0.059,0.287,-5.337
0.181,0.059,0.288,-5.337
0.199,0.062,0.288,-5.337
0.146,0.061,0.288,-5.337
0.147,0.061,0.288,-5.337
0.133,0.064,0.290,-5.337
0.135,0.063,0.291,-5.337
0.155,0.063,0.290,-5.337
0.204,0.061,0.286,-5.337
0.193,0.063,0.287,-5.337
0.146,0.065,0.288,-5.337
0.243,0.059,0.286,-5.337
0.294,0.056,0.282,-5.337
0.240,0.062,0.283,-5.337
0.172,0.065,0.282,-5.337
0.111,0.065,0.283,-5.337
0.110,0.061,0.284,-5.337
0.107,0.062,0.283,-5.337
0.135,0.062,0.285,-5.337
0.188,0.060,0.290,-5.337
0.220,0.059,0.292,-5.337
0.173,0.064,0.290,-5.337
0.125,0.066,0.286,-5.337
0.121,0.063,0.285,-5.337
0.256,0.057,0.284,-5.337
0.285,0.055,0.282,-5.337
0.271,0.055,0.285,-5.337
0.247,0.055,0.289,-5.337
0.238,0.056,0.289,-5.337
0.249,0.055,0.289,-5.337
0.272,0.058,0.291,-5.337
0.271,0.058,0.288,-5.337
0.280,0.056,0.285,-5.337
0.223,0.059,0.280,-5.337
0.129,0.060,0.282,-5.337
0.110,0.060,0.288,-5.337
0.218,0.059,0.290,-5.337
0.253,0.059,0.285,-5.337
0.226,0.058,0.282,-5.337
0.227,0.058,0.279,-5.337
0.227,0.061,0.282,-5.337
0.283,0.059,0.286,-5.337
0.322,0.057,0.286,-5.337
0.256,0.056,0.284,-5.337
0.199,0.057,0.284,-5.337
0.171,0.058,0.284,-5.337
0.215,0.059,0.285,-5.337
0.232,0.058,0.285,-5.337
0.196,0.058,0.283,-5.337
0.184,0.055,0.284,-5.337
0.157,0.057,0.284,-5.337
0.152,0.061,0.284,-5.337
0.068,0.064,0.283,-5.337
0.072,0.063,0.283,-5.337
0.142,0.060,0.286,-5.337
0.154,0.059,0.287,-5.337
0.142,0.060,0.285,-5.337
0.180,0.060,0.284,-5.337
0.217,0.057,0.282,-5.337
0.248,0.058,0.284,-5.337
0.206,0.060,0.284,-5.337
0.193,0.060,0.287,-5.337
0.286,0.058,0.287,-5.337
0.321,0.062,0.284,-5.337
0.302,0.060,0.284,-5.337
0.317,0.058,0.287,-5.337
0.348,0.058,0.288,-5.337
0.335,0.058,0.286,-5.337
0.272,0.060,0.284,-5.337
0.253,0.060,0.286,-5.337
0.267,0.059,0.288,-5.337
0.193,0.060,0.284,-5.337
0.155,0.063,0.282,-5.337
0.242,0.062,0.285,-5.337
0.261,0.061,0.290,-5.337
0.176,0.059,0.291,-5.337
0.142,0.059,0.289,-5.337
0.164,0.058,0.282,-5.337
0.196,0.055,0.277,-5.337
0.272,0.055,0.278,-5.337
0.289,0.057,0.284,-5.337
0.263,0.060,0.287,-5.337
0.257,0.057,0.288,-5.337
0.267,0.054,0.287,-5.337
0.285,0.055,0.289,-5.337
0.244,0.056,0.289,-5.337
0.175,0.057,0.285,-5.337
0.139,0.053,0.284,-5.337
0.228,0.050,0.284,-5.337
0.238,0.051,0.284,-5.337
0.206,0.053,0.285,-5.337
0.191,0.050,0.281,-5.337
0.180,0.051,0.282,-5.337
0.203,0.055,0.289,-5.337
0.254,0.053,0.292,-5.337
0.367,0.052,0.286,-5.337
0.364,0.050,0.284,-5.337
0.278,0.054,0.287,-5.337
0.223,0.056,0.289,-5.337
0.260,0.052,0.291,-5.337
0.255,0.049,0.289,-5.337
0.240,0.050,0.287,-5.337
0.184,0.052,0.286,-5.337
0.217,0.050,0.289,-5.337
0.303,0.045,0.290,-5.337
0.323,0.044,0.287,-5.337
0.216,0.051,0.284,-5.337
0.169,0.053,0.285,-5.337
0.179,0.048,0.283,-5.337
0.213,0.044,0.283,-5.337
0.176,0.045,0.281,-5.337
0.143,0.048,0.281,-5.337
0.199,0.045,0.284,-5.337
0.260,0.044,0.284,-5.337
0.197,0.045,0.288,-5.337
0.206,0.046,0.289,-5.337
0.197,0.050,0.285,-5.337
0.219,0.050,0.282,-5.337
0.233,0.048,0.282,-5.337
0.283,0.048,0.285,-5.337
0.257,0.049,0.284,-5.337
0.197,0.050,0.283,-5.337
0.201,0.049,0.285,-5.337
0.180,0.052,0.288,-5.337
0.158,0.052,0.291,-5.337
0.153,0.052,0.289,-5.337
0.158,0.053,0.290,-5.337
0.183,0.053,0.291,-5.337
0.230,0.052,0.289,-5.337
0.334,0.050,0.286,-5.337
0.204,0.055,0.286,-5.337
0.101,0.054,0.286,-5.337
0.187,0.048,0.286,-5.337
0.241,0.048,0.284,-5.337
0.226,0.051,0.283,-5.337
0.263,0.048,0.282,-5.337
0.314,0.045,0.285,-5.337
0.329,0.044,0.286,-5.337
0.288,0.046,0.287,-5.337
0.203,0.047,0.288,-5.337
0.177,0.049,0.288,-5.337
0.199,0.048,0.289,-5.337
0.273,0.044,0.291,-5.337
0.238,0.046,0.290,-5.337
0.150,0.048,0.289,-5.337
0.152,0.048,0.288,-5.337
0.213,0.044,0.287,-5.337
0.164,0.046,0.284,-5.337
0.120,0.048,0.284,-5.337
0.137,0.046,0.285,-5.337
0.248,0.042,0.286,-5.337
0.283,0.041,0.289,-5.337
0.235,0.048,0.291,-5.337
0.165,0.049,0.289,-5.337
0.182,0.044,0.285,-5.337
0.237,0.042,0.287,-5.337
0.217,0.042,0.288,-5.337
0.129,0.047,0.283,-5.337
0.121,0.047,0.283,-5.337
0.180,0.045,0.286,-5.337
0.156,0.044,0.287,-5.337
0.116,0.045,0.286,-5.337
0.106,0.046,0.282,-5.337
0.120,0.047,0.284,-5.337
0.145,0.045,0.285,-5.337
0.216,0.043,0.287,-5.337
0.308,0.042,0.289,-5.337
0.359,0.039,0.290,-5.337
0.270,0.039,0.290,-5.337
0.094,0.041,0.288,-5.337
0.155,0.039,0.284,-5.337
0.271,0.039,0.281,-5.337
0.244,0.042,0.285,-5.337
0.218,0.042,0.291,-5.337
0.248,0.043,0.295,-5.337
0.275,0.041,0.290,-5.337
0.250,0.042,0.285,-5.337
0.234,0.040,0.281,-5.337
0.298,0.037,0.285,-5.337
0.361,0.035,0.292,-5.337
0.309,0.038,0.292,-5.337
0.265,0.040,0.289,-5.337
0.235,0.038,0.289,-5.337
0.258,0.035,0.286,-5.337
0.311,0.032,0.285,-5.337
0.253,0.032,0.287,-5.337
0.240,0.033,0.289,-5.337
0.297,0.034,0.289,-5.337
0.335,0.037,0.287,-5.337
0.314,0.039,0.289,-5.337
0.257,0.041,0.288,-5.337
0.201,0.037,0.286,-5.337
0.204,0.037,0.285,-5.337
0.176,0.040,0.282,-5.337
0.174,0.042,0.280,-5.337
0.183,0.043,0.284,-5.337
0.186,0.040,0.286,-5.337
0.265,0.039,0.289,-5.337
0.276,0.040,0.288,-5.337
0.236,0.042,0.288,-5.337
0.228,0.042,0.286,-5.337
0.254,0.041,0.287,-5.337
0.238,0.038,0.286,-5.337
0.232,0.037,0.285,-5.337
0.284,0.036,0.290,-5.337
0.293,0.037,0.292,-5.337
0.298,0.035,0.289,-5.337
0.348,0.034,0.286,-5.337
0.334,0.032,0.282,-5.337
0.353,0.031,0.287,-5.337
0.418,0.029,0.289,-5.337
0.375,0.030,0.289,-5.337
0.259,0.033,0.289,-5.337
0.198,0.035,0.292,-5.337
0.213,0.036,0.292,-5.337
0.271,0.034,0.284,-5.337
0.171,0.039,0.280,-5.337
0.137,0.040,0.279,-5.337
0.232,0.032,0.283,-5.337
0.295,0.034,0.288,-5.337
0.276,0.035,0.291,-5.337
0.208,0.038,0.290,-5.337
0.101,0.041,0.289,-5.337
0.090,0.040,0.286,-5.337
0.070,0.039,0.285,-5.337
0.104,0.039,0.283,-5.337
0.137,0.040,0.282,-5.337
0.167,0.038,0.282,-5.337
0.219,0.037,0.286,-5.337
0.235,0.032,0.288,-5.337
0.248,0.031,0.287,-5.337
0.299,0.032,0.292,-5.337
0.288,0.035,0.293,-5.337
0.277,0.033,0.289,-5.337
0.295,0.031,0.286,-5.337
0.331,0.030,0.284,-5.337
0.342,0.033,0.284,-5.337
0.267,0.035,0.284,-5.337
0.237,0.033,0.285,-5.337
0.292,0.033,0.286,-5.337
0.300,0.035,0.288,-5.337
0.246,0.037,0.290,-5.337
0.196,0.037,0.291,-5.337
0.220,0.034,0.291,-5.337
0.280,0.033,0.288,-5.337
0.233,0.033,0.288,-5.337
0.142,0.036,0.290,-5.337
0.153,0.037,0.290,-5.337
0.219,0.037,0.284,-5.337
0.263,0.034,0.285,-5.337
0.237,0.033,0.288,-5.337
0.206,0.032,0.289,-5.337
0.254,0.037,0.291,-5.337
0.246,0.039,0.290,-5.337
0.184,0.036,0.288,-5.337
0.182,0.036,0.285,-5.337
0.165,0.037,0.285,-5.337
0.167,0.038,0.287,-5.337
0.185,0.037,0.290,-5.337
0.200,0.037,0.293,-5.337
0.146,0.040,0.291,-5.337
0.154,0.037,0.290,-5.337
0.243,0.032,0.288,-5.337
0.219,0.035,0.285,-5.337
0.237,0.037,0.287,-5.337
0.342,0.036,0.287,-5.337
0.288,0.037,0.287,-5.337
0.173,0.039,0.286,-5.337
0.187,0.038,0.289,-5.337
0.277,0.033,0.292,-5.337
0.280,0.035,0.294,-5.337
0.261,0.036,0.292,-5.337
0.206,0.035,0.290,-5.337
0.254,0.032,0.286,-5.337
0.305,0.036,0.285,-5.337
0.256,0.035,0.287,-5.337
0.184,0.036,0.291,-5.337
0.194,0.035,0.289,-5.337
0.245,0.038,0.285,-5.337
0.223,0.037,0.284,-5.337
0.206,0.038,0.287,-5.337
0.250,0.038,0.286,-5.337
0.236,0.040,0.284,-5.337
0.179,0.039,0.287,-5.337
0.204,0.036,0.290,-5.337
0.228,0.038,0.285,-5.337
0.215,0.040,0.283,-5.337
0.261,0.038,0.286,-5.337
0.265,0.034,0.285,-5.337
0.219,0.036,0.288,-5.337
0.175,0.033,0.287,-5.337
0.203,0.035,0.287,-5.337
0.181,0.038,0.284,-5.337
0.172,0.037,0.285,-5.337
0.300,0.034,0.286,-5.337
0.361,0.031,0.289,-5.337
0.278,0.033,0.291,-5.337
0.280,0.034,0.293,-5.337
0.266,0.036,0.291,-5.337
0.159,0.034,0.289,-5.337
0.210,0.034,0.290,-5.337
0.280,0.037,0.289,-5.337
0.251,0.038,0.285,-5.337
0.233,0.038,0.283,-5.337
0.309,0.038,0.282,-5.337
0.347,0.042,0.282,-5.337
0.298,0.043,0.283,-5.337
0.249,0.040,0.288,-5.337
0.260,0.038,0.290,-5.337
0.300,0.038,0.292,-5.337
0.282,0.038,0.290,-5.337
0.272,0.042,0.285,-5.337
0.172,0.046,0.283,-5.337
0.134,0.049,0.283,-5.337
0.164,0.047,0.287,-5.337
0.101,0.045,0.285,-5.337
0.154,0.044,0.283,-5.337
0.232,0.045,0.283,-5.337
0.176,0.049,0.286,-5.337
0.180,0.042,0.287,-5.337
0.284,0.042,0.290,-5.337
0.323,0.041,0.289,-5.337
0.362,0.044,0.288,-5.337
0.292,0.047,0.287,-5.337
0.189,0.045,0.287,-5.337
0.185,0.046,0.284,-5.337
0.195,0.042,0.283,-5.337
0.186,0.046,0.284,-5.337
0.167,0.046,0.283,-5.337
0.203,0.042,0.281,-5.337
0.237,0.041,0.280,-5.337
0.234,0.043,0.279,-5.337
0.141,0.047,0.281,-5.337
0.114,0.047,0.288,-5.337
0.129,0.047,0.290,-5.337
0.138,0.045,0.291,-5.337
0.184,0.039,0.290,-5.337
0.277,0.038,0.292,-5.337
0.259,0.040,0.286,-5.337
0.230,0.042,0.286,-5.337
0.170,0.042,0.285,-5.337
0.182,0.040,0.284,-5.337
0.214,0.039,0.286,-5.337
0.199,0.039,0.283,-5.337
0.239,0.035,0.277,-5.337
0.267,0.037,0.275,-5.337
0.256,0.037,0.278,-5.337
0.310,0.038,0.284,-5.337
0.273,0.043,0.286,-5.337
0.182,0.047,0.288,-5.337
0.185,0.044,0.288,-5.337
0.253,0.043,0.289,-5.337
0.226,0.043,0.287,-5.337
0.127,0.044,0.288,-5.337
0.069,0.041,0.289,-5.337
0.174,0.041,0.291,-5.337
0.224,0.041,0.292,-5.337
0.213,0.038,0.291,-5.337
0.216,0.038,0.286,-5.337
0.171,0.047,0.282,-5.337
0.173,0.048,0.287,-5.337
0.234,0.044,0.287,-5.337
0.251,0.042,0.287,-5.337
0.179,0.043,0.283,-5.337
0.175,0.045,0.283,-5.337
0.214,0.046,0.282,-5.337
0.293,0.043,0.286,-5.337
0.314,0.042,0.286,-5.337
0.268,0.042,0.287,-5.337
0.219,0.043,0.291,-5.337
0.168,0.047,0.288,-5.337
0.211,0.048,0.286,-5.337
0.299,0.047,0.285,-5.337
0.276,0.042,0.285,-5.337
0.298,0.044,0.287,-5.337
0.295,0.042,0.288,-5.337
0.260,0.042,0.290,-5.337
0.253,0.043,0.290,-5.337
0.233,0.043,0.287,-5.337
0.232,0.045,0.285,-5.337
0.211,0.046,0.286,-5.337
0.253,0.042,0.284,-5.337
0.228,0.041,0.282,-5.337
0.248,0.042,0.287,-5.337
0.219,0.049,0.292,-5.337
0.172,0.050,0.291,-5.337
0.268,0.044,0.286,-5.337
0.283,0.049,0.285,-5.337
0.206,0.050,0.282,-5.337
0.212,0.051,0.283,-5.337
0.244,0.052,0.285,-5.337
0.229,0.053,0.285,-5.337
0.185,0.051,0.286,-5.337
0.157,0.052,0.287,-5.337
0.118,0.052,0.288,-5.337
0.210,0.051,0.287,-5.337
0.208,0.054,0.286,-5.337
0.177,0.053,0.286,-5.337
0.159,0.051,0.285,-5.337
0.185,0.052,0.286,-5.337
0.203,0.053,0.286,-5.337
0.185,0.053,0.286,-5.337
0.158,0.057,0.284,-5.337
0.176,0.054,0.282,-5.337
0.154,0.050,0.282,-5.337
0.173,0.050,0.281,-5.337
0.252,0.053,0.283,-5.337
0.221,0.055,0.285,-5.337
0.123,0.057,0.287,-5.337
0.061,0.056,0.288,-5.337
0.173,0.055,0.286,-5.337
0.197,0.053,0.281,-5.337
0.190,0.054,0.283,-5.337
0.164,0.054,0.285,-5.337
0.253,0.053,0.285,-5.337
0.286,0.052,0.285,-5.337
0.232,0.054,0.288,-5.337
0.218,0.053,0.289,-5.337
0.256,0.055,0.287,-5.337
0.231,0.056,0.284,-5.337
0.187,0.053,0.285,-5.337
0.162,0.053,0.289,-5.337
0.182,0.051,0.290,-5.337
0.264,0.054,0.289,-5.337
0.295,0.055,0.285,-5.337
0.313,0.053,0.285,-5.337
0.246,0.052,0.287,-5.337
0.126,0.050,0.286,-5.337
0.103,0.053,0.284,-5.337
0.174,0.054,0.285,-5.337
0.228,0.054,0.283,-5.337
0.155,0.055,0.284,-5.337
0.092,0.053,0.282,-5.337
0.109,0.049,0.283,-5.337
0.177,0.047,0.287,-5.337
0.251,0.053,0.285,-5.337
0.227,0.054,0.283,-5.337
0.176,0.057,0.283,-5.337
0.178,0.055,0.287,-5.337
0.177,0.052,0.290,-5.337
0.117,0.054,0.287,-5.337
0.149,0.056,0.289,-5.337
0.155,0.059,0.289,-5.337
0.127,0.059,0.290,-5.337
0.115,0.061,0.290,-5.337
0.098,0.058,0.287,-5.337
0.102,0.059,0.287,-5.337
0.135,0.061,0.288,-5.337
0.201,0.061,0.288,-5.337
0.208,0.059,0.287,-5.337
0.161,0.060,0.285,-5.337
0.197,0.058,0.284,-5.337
0.242,0.061,0.287,-5.337
0.238,0.063,0.288,-5.337
0.197,0.062,0.289,-5.337
0.159,0.064,0.284,-5.337
0.180,0.064,0.282,-5.337
0.230,0.062,0.285,-5.337
0.242,0.060,0.289,-5.337
0.170,0.058,0.291,-5.337
0.260,0.058,0.292,-5.337
0.297,0.058,0.293,-5.337
0.252,0.062,0.293,-5.337
0.238,0.059,0.289,-5.337
0.229,0.062,0.282,-5.337
0.165,0.063,0.274,-5.337
0.169,0.061,0.278,-5.337
0.285,0.059,0.284,-5.337
0.250,0.061,0.285,-5.337
0.229,0.061,0.285,-5.337
0.254,0.061,0.283,-5.337
0.217,0.062,0.285,-5.337
0.162,0.064,0.288,-5.337
0.104,0.066,0.292,-5.337
0.135,0.064,0.293,-5.337
0.230,0.062,0.291,-5.337
0.290,0.065,0.288,-5.337
0.189,0.066,0.286,-5.337
0.163,0.062,0.285,-5.337
0.166,0.062,0.286,-5.337
0.158,0.065,0.285,-5.337
0.197,0.067,0.284,-5.337
0.227,0.060,0.280,-5.337
0.286,0.060,0.278,-5.337
0.246,0.063,0.281,-5.337
0.137,0.066,0.287,-5.337
0.097,0.065,0.293,-5.337
0.193,0.061,0.292,-5.337
0.228,0.063,0.291,-5.337
0.195,0.062,0.294,-5.337
0.236,0.059,0.290,-5.337
0.297,0.060,0.282,-5.337
0.256,0.062,0.284,-5.337
0.161,0.069,0.287,-5.337
0.180,0.065,0.287,-5.337
0.238,0.062,0.287,-5.337
0.231,0.062,0.290,-5.337
0.263,0.067,0.295,-5.337
0.197,0.072,0.296,-5.337
0.143,0.073,0.289,-5.337
0.143,0.071,0.286,-5.337
0.208,0.067,0.281,-5.337
0.225,0.067,0.278,-5.337
0.252,0.066,0.280,-5.337
0.314,0.062,0.291,-5.337
0.225,0.062,0.295,-5.337
0.184,0.060,0.290,-5.337
0.244,0.061,0.286,-5.337
0.206,0.066,0.288,-5.337
0.142,0.067,0.288,-5.337
0.161,0.066,0.286,-5.337
0.238,0.066,0.288,-5.337
0.223,0.069,0.290,-5.337
0.206,0.068,0.287,-5.337
0.166,0.070,0.285,-5.337
0.144,0.069,0.288,-5.337
0.203,0.065,0.290,-5.337
0.219,0.065,0.291,-5.337
0.124,0.067,0.289,-5.337
0.152,0.068,0.289,-5.337
0.205,0.067,0.288,-5.337
0.175,0.070,0.288,-5.337
0.108,0.071,0.284,-5.337
0.148,0.069,0.285,-5.337
0.228,0.066,0.287,-5.337
0.250,0.067,0.289,-5.337
0.220,0.069,0.289,-5.337
0.206,0.072,0.289,-5.337
0.170,0.071,0.286,-5.337
0.243,0.071,0.286,-5.337
0.289,0.070,0.287,-5.337
0.274,0.070,0.289,-5.337
0.263,0.069,0.286,-5.337
0.299,0.070,0.286,-5.337
0.289,0.075,0.292,-5.337
0.228,0.074,0.292,-5.337
0.266,0.067,0.284,-5.337
0.284,0.070,0.280,-5.337
0.206,0.071,0.281,-5.337
0.119,0.069,0.282,-5.337
0.126,0.067,0.282,-5.337
0.169,0.065,0.283,-5.337
0.099,0.069,0.287,-5.337
0.091,0.069,0.288,-5.337
0.161,0.066,0.289,-5.337
0.258,0.063,0.292,-5.337
0.309,0.062,0.296,-5.337
0.288,0.061,0.293,-5.337
0.268,0.062,0.290,-5.337
0.235,0.062,0.287,-5.337
0.230,0.064,0.284,-5.337
0.234,0.064,0.284,-5.337
0.206,0.065,0.287,-5.337
0.173,0.067,0.288,-5.337
0.185,0.066,0.288,-5.337
0.191,0.065,0.290,-5.337
0.164,0.063,0.287,-5.337
0.140,0.062,0.285,-5.337
0.153,0.063,0.285,-5.337
0.204,0.063,0.287,-5.337
0.216,0.065,0.287,-5.337
0.213,0.063,0.285,-5.337
0.208,0.062,0.284,-5.337
0.192,0.062,0.282,-5.337
0.208,0.064,0.288,-5.337
0.220,0.062,0.291,-5.337
0.273,0.060,0.289,-5.337
0.311,0.056,0.288,-5.337
0.313,0.058,0.286,-5.337
0.294,0.057,0.288,-5.337
0.275,0.062,0.286,-5.337
0.185,0.064,0.282,-5.337
0.114,0.061,0.276,-5.337
0.105,0.061,0.276,-5.337
0.141,0.060,0.285,-5.337
0.140,0.059,0.290,-5.337
0.144,0.060,0.291,-5.337
0.252,0.060,0.290,-5.337
0.237,0.064,0.289,-5.337
0.192,0.066,0.289,-5.337
0.254,0.060,0.287,-5.337
0.243,0.058,0.285,-5.337
0.268,0.055,0.283,-5.337
0.288,0.054,0.281,-5.337
0.245,0.055,0.282,-5.337
0.225,0.052,0.284,-5.337
0.295,0.051,0.287,-5.337
0.333,0.055,0.288,-5.337
0.346,0.054,0.291,-5.337
0.289,0.053,0.290,-5.337
0.159,0.054,0.286,-5.337
0.154,0.056,0.282,-5.337
0.254,0.053,0.284,-5.337
0.293,0.050,0.284,-5.337
0.264,0.054,0.286,-5.337
0.191,0.057,0.292,-5.337
0.170,0.058,0.294,-5.337
0.204,0.055,0.288,-5.337
0.230,0.051,0.285,-5.337
0.208,0.048,0.285,-5.337
0.216,0.048,0.284,-5.337
0.255,0.052,0.285,-5.337
0.217,0.052,0.291,-5.337
0.219,0.051,0.291,-5.337
0.257,0.050,0.285,-5.337
0.262,0.051,0.283,-5.337
0.201,0.054,0.286,-5.337
0.137,0.050,0.289,-5.337
0.181,0.047,0.286,-5.337
0.238,0.048,0.286,-5.337
0.318,0.052,0.292,-5.337
0.307,0.054,0.293,-5.337
0.118,0.053,0.287,-5.337
0.074,0.050,0.284,-5.337
0.149,0.048,0.282,-5.337
0.177,0.049,0.286,-5.337
0.105,0.049,0.288,-5.337
0.048,0.052,0.288,-5.337
0.145,0.053,0.286,-5.337
0.265,0.050,0.289,-5.337
0.270,0.050,0.288,-5.337
0.250,0.051,0.285,-5.337
0.240,0.056,0.285,-5.337
0.306,0.056,0.288,-5.337
0.295,0.052,0.290,-5.337
0.253,0.050,0.290,-5.337
0.249,0.051,0.289,-5.337
0.214,0.052,0.286,-5.337
0.237,0.051,0.284,-5.337
0.274,0.050,0.286,-5.337
0.290,0.047,0.286,-5.337
0.283,0.047,0.289,-5.337
0.265,0.047,0.287,-5.337
0.283,0.045,0.284,-5.337
0.163,0.047,0.287,-5.337
0.191,0.045,0.287,-5.337
0.229,0.042,0.283,-5.337
0.180,0.044,0.281,-5.337
0.195,0.044,0.287,-5.337
0.230,0.043,0.290,-5.337
0.251,0.047,0.294,-5.337
0.256,0.045,0.290,-5.337
0.238,0.047,0.286,-5.337
0.240,0.050,0.285,-5.337
0.280,0.050,0.290,-5.337
0.248,0.048,0.293,-5.337
0.222,0.048,0.289,-5.337
0.209,0.050,0.287,-5.337
0.188,0.047,0.289,-5.337
0.124,0.048,0.285,-5.337
0.113,0.047,0.283,-5.337
0.202,0.042,0.284,-5.337
0.258,0.042,0.289,-5.337
0.267,0.042,0.288,-5.337
0.265,0.042,0.284,-5.337
0.315,0.045,0.282,-5.337
0.333,0.049,0.283,-5.337
0.293,0.048,0.281,-5.337
0.226,0.044,0.282,-5.337
0.183,0.045,0.287,-5.337
0.179,0.043,0.289,-5.337
0.214,0.046,0.291,-5.337
0.254,0.046,0.288,-5.337
0.222,0.046,0.290,-5.337
0.231,0.040,0.289,-5.337
0.280,0.041,0.286,-5.337
0.212,0.042,0.279,-5.337
0.151,0.042,0.278,-5.337
0.104,0.040,0.280,-5.337
0.151,0.042,0.283,-5.337
0.287,0.038,0.287,-5.337
0.331,0.036,0.290,-5.337
0.341,0.038,0.293,-5.337
0.264,0.042,0.290,-5.337
0.289,0.039,0.286,-5.337
0.263,0.040,0.287,-5.337
0.233,0.036,0.285,-5.337
0.338,0.035,0.288,-5.337
0.325,0.039,0.288,-5.337
0.264,0.041,0.285,-5.337
0.242,0.041,0.284,-5.337
0.236,0.041,0.284,-5.337
0.272,0.041,0.288,-5.337
0.261,0.041,0.288,-5.337
0.229,0.041,0.285,-5.337
0.199,0.041,0.281,-5.337
0.187,0.041,0.285,-5.337
0.169,0.044,0.291,-5.337
0.240,0.044,0.291,-5.337
0.305,0.043,0.291,-5.337
0.314,0.039,0.291,-5.337
0.243,0.040,0.290,-5.337
0.174,0.040,0.290,-5.337
0.245,0.037,0.290,-5.337
0.275,0.036,0.287,-5.337
0.228,0.035,0.283,-5.337
0.171,0.037,0.283,-5.337
0.192,0.037,0.286,-5.337
0.224,0.041,0.292,-5.337
0.277,0.038,0.295,-5.337
0.210,0.038,0.291,-5.337
0.205,0.037,0.291,-5.337
0.230,0.041,0.289,-5.337
0.288,0.040,0.290,-5.337
0.315,0.034,0.290,-5.337
0.262,0.035,0.287,-5.337
0.220,0.037,0.283,-5.337
0.211,0.037,0.282,-5.337
0.260,0.035,0.285,-5.337
0.254,0.037,0.288,-5.337
0.283,0.039,0.289,-5.337
0.234,0.041,0.289,-5.337
0.196,0.037,0.288,-5.337
0.268,0.037,0.287,-5.337
0.340,0.036,0.289,-5.337
0.264,0.041,0.290,-5.337
0.212,0.038,0.288,-5.337
0.210,0.035,0.287,-5.337
0.193,0.034,0.283,-5.337
0.219,0.037,0.281,-5.337
0.246,0.036,0.285,-5.337
0.176,0.034,0.290,-5.337
0.205,0.036,0.289,-5.337
0.263,0.039,0.284,-5.337
0.221,0.039,0.283,-5.337
0.183,0.040,0.287,-5.337
0.254,0.039,0.290,-5.337
0.349,0.035,0.286,-5.337
0.373,0.034,0.286,-5.337
0.328,0.036,0.290,-5.337
0.226,0.037,0.290,-5.337
0.242,0.037,0.289,-5.337
0.288,0.033,0.291,-5.337
0.279,0.036,0.289,-5.337
0.239,0.039,0.286,-5.337
0.177,0.039,0.280,-5.337
0.167,0.040,0.283,-5.337
0.188,0.038,0.289,-5.337
0.218,0.034,0.291,-5.337
0.241,0.033,0.294,-5.337
0.178,0.038,0.293,-5.337
0.101,0.038,0.286,-5.337
0.129,0.040,0.283,-5.337
0.198,0.040,0.282,-5.337
0.249,0.040,0.283,-5.337
0.229,0.041,0.285,-5.337
0.226,0.038,0.288,-5.337
0.189,0.039,0.288,-5.337
0.185,0.039,0.288,-5.337
0.144,0.039,0.289,-5.337
0.073,0.039,0.287,-5.337
0.121,0.041,0.288,-5.337
0.210,0.038,0.287,-5.337
0.290,0.032,0.288,-5.337
0.320,0.031,0.285,-5.337
0.292,0.031,0.286,-5.337
0.283,0.034,0.290,-5.337
0.243,0.031,0.293,-5.337
0.228,0.032,0.289,-5.337
0.219,0.037,0.284,-5.337
0.188,0.037,0.281,-5.337
0.232,0.040,0.284,-5.337
0.232,0.040,0.288,-5.337
0.209,0.039,0.292,-5.337
0.257,0.035,0.291,-5.337
0.298,0.036,0.288,-5.337
0.293,0.039,0.287,-5.337
0.283,0.041,0.287,-5.337
0.260,0.042,0.285,-5.337
0.235,0.041,0.285,-5.337
0.237,0.041,0.287,-5.337
0.246,0.044,0.287,-5.337
0.305,0.040,0.288,-5.337
0.351,0.034,0.288,-5.337
0.312,0.036,0.287,-5.337
0.248,0.038,0.287,-5.337
0.204,0.035,0.286,-5.337
0.197,0.035,0.284,-5.337
0.214,0.037,0.288,-5.337
0.205,0.036,0.289,-5.337
0.203,0.037,0.292,-5.337
0.174,0.037,0.292,-5.337
0.165,0.037,0.288,-5.337
0.157,0.040,0.280,-5.337
0.095,0.037,0.279,-5.337
0.089,0.037,0.285,-5.337
0.178,0.035,0.288,-5.337
0.212,0.035,0.290,-5.337
0.202,0.040,0.291,-5.337
0.210,0.040,0.291,-5.337
0.299,0.040,0.291,-5.337
0.322,0.039,0.289,-5.337
0.302,0.039,0.285,-5.337
0.241,0.042,0.284,-5.337
0.227,0.039,0.286,-5.337
0.288,0.036,0.288,-5.337
0.284,0.033,0.287,-5.337
0.312,0.031,0.291,-5.337
0.321,0.034,0.294,-5.337
0.282,0.031,0.293,-5.337
0.250,0.032,0.290,-5.337
0.206,0.034,0.285,-5.337
0.280,0.035,0.281,-5.337
0.315,0.037,0.284,-5.337
0.257,0.035,0.285,-5.337
0.226,0.035,0.290,-5.337
0.274,0.035,0.291,-5.337
0.263,0.039,0.290,-5.337
0.193,0.034,0.285,-5.337
0.253,0.032,0.282,-5.337
0.324,0.032,0.283,-5.337
0.271,0.036,0.283,-5.337
0.173,0.038,0.284,-5.337
0.107,0.039,0.288,-5.337
0.145,0.039,0.290,-5.337
0.189,0.042,0.285,-5.337
0.221,0.044,0.283,-5.337
0.204,0.042,0.286,-5.337
0.203,0.041,0.288,-5.337
0.178,0.040,0.289,-5.337
0.226,0.038,0.293,-5.337
0.253,0.039,0.297,-5.337
0.296,0.036,0.293,-5.337
0.299,0.039,0.284,-5.337
0.275,0.043,0.284,-5.337
0.265,0.043,0.287,-5.337
0.196,0.043,0.288,-5.337
0.192,0.041,0.288,-5.337
0.193,0.046,0.290,-5.337
0.138,0.046,0.288,-5.337
0.095,0.046,0.285,-5.337
0.104,0.047,0.283,-5.337
0.172,0.049,0.287,-5.337
0.274,0.048,0.288,-5.337
0.285,0.046,0.288,-5.337
0.226,0.046,0.289,-5.337
0.221,0.046,0.288,-5.337
0.267,0.043,0.285,-5.337
0.301,0.044,0.285,-5.337
0.270,0.045,0.283,-5.337
0.261,0.047,0.283,-5.337
0.220,0.048,0.289,-5.337
0.224,0.047,0.292,-5.337
0.260,0.046,0.292,-5.337
0.256,0.042,0.288,-5.337
0.214,0.042,0.287,-5.337
0.184,0.041,0.284,-5.337
0.239,0.039,0.286,-5.337
0.249,0.042,0.287,-5.337
0.221,0.042,0.288,-5.337
0.146,0.042,0.286,-5.337
0.216,0.039,0.284,-5.337
0.261,0.038,0.284,-5.337
0.250,0.041,0.287,-5.337
0.304,0.041,0.289,-5.337
0.247,0.044,0.291,-5.337
0.144,0.046,0.288,-5.337
0.210,0.042,0.287,-5.337
0.262,0.042,0.287,-5.337
0.266,0.043,0.284,-5.337
0.240,0.046,0.286,-5.337
0.198,0.051,0.293,-5.337
0.293,0.049,0.292,-5.337
0.281,0.048,0.288,-5.337
0.134,0.049,0.282,-5.337
0.170,0.047,0.280,-5.337
0.335,0.045,0.284,-5.337
0.298,0.047,0.285,-5.337
0.209,0.049,0.283,-5.337
0.139,0.047,0.283,-5.337
0.176,0.042,0.288,-5.337
0.245,0.039,0.288,-5.337
0.219,0.045,0.289,-5.337
0.159,0.045,0.286,-5.337
0.155,0.047,0.290,-5.337
0.108,0.050,0.291,-5.337
0.097,0.050,0.288,-5.337
0.142,0.048,0.286,-5.337
0.242,0.046,0.287,-5.337
0.225,0.046,0.284,-5.337
0.113,0.049,0.283,-5.337
0.117,0.047,0.284,-5.337
0.204,0.047,0.288,-5.337
0.145,0.048,0.287,-5.337
0.116,0.048,0.286,-5.337
0.183,0.048,0.287,-5.337
0.205,0.049,0.289,-5.337
0.164,0.047,0.292,-5.337
0.129,0.049,0.291,-5.337
0.059,0.049,0.289,-5.337
0.156,0.045,0.286,-5.337
0.258,0.046,0.287,-5.337
0.273,0.048,0.283,-5.337
0.215,0.047,0.280,-5.337
0.210,0.047,0.284,-5.337
0.205,0.047,0.290,-5.337
0.267,0.044,0.289,-5.337
0.308,0.046,0.290,-5.337
0.169,0.051,0.286,-5.337
0.097,0.053,0.285,-5.337
0.158,0.049,0.284,-5.337
0.203,0.046,0.285,-5.337
0.167,0.044,0.284,-5.337
0.128,0.050,0.286,-5.337
0.120,0.049,0.286,-5.337
0.192,0.050,0.286,-5.337
0.150,0.053,0.286,-5.337
0.178,0.049,0.287,-5.337
0.240,0.046,0.285,-5.337
0.235,0.051,0.281,-5.337
0.239,0.053,0.281,-5.337
0.219,0.054,0.283,-5.337
0.180,0.054,0.283,-5.337
0.179,0.055,0.284,-5.337
0.244,0.054,0.286,-5.337
0.250,0.053,0.285,-5.337
0.175,0.055,0.286,-5.337
0.127,0.054,0.287,-5.337
0.059,0.054,0.289,-5.337
0.084,0.050,0.286,-5.337
0.141,0.049,0.283,-5.337
0.195,0.052,0.284,-5.337
0.211,0.055,0.286,-5.337
0.178,0.056,0.286,-5.337
0.173,0.056,0.288,-5.337
0.163,0.056,0.289,-5.337
0.080,0.055,0.288,-5.337
0.107,0.056,0.286,-5.337
0.168,0.058,0.286,-5.337
0.229,0.057,0.285,-5.337
0.265,0.054,0.285,-5.337
0.283,0.055,0.284,-5.337
0.187,0.058,0.287,-5.337
0.181,0.056,0.287,-5.337
0.253,0.056,0.289,-5.337
0.241,0.057,0.288,-5.337
0.203,0.062,0.285,-5.337
0.167,0.062,0.284,-5.337
0.230,0.059,0.286,-5.337
0.244,0.057,0.289,-5.337
0.215,0.059,0.287,-5.337
0.197,0.056,0.286,-5.337
0.193,0.058,0.286,-5.337
0.207,0.059,0.289,-5.337
0.239,0.058,0.290,-5.337
0.301,0.060,0.287,-5.337
0.258,0.060,0.282,-5.337
0.171,0.063,0.279,-5.337
0.136,0.063,0.282,-5.337
0.046,0.059,0.286,-5.337
0.052,0.057,0.285,-5.337
0.139,0.055,0.285,-5.337
0.239,0.053,0.286,-5.337
0.275,0.054,0.288,-5.337
0.204,0.054,0.289,-5.337
0.168,0.055,0.289,-5.337
0.241,0.052,0.285,-5.337
0.284,0.051,0.283,-5.337
0.295,0.055,0.284,-5.337
0.193,0.056,0.288,-5.337
0.213,0.058,0.292,-5.337
0.291,0.056,0.289,-5.337
0.326,0.051,0.288,-5.337
0.285,0.051,0.287,-5.337
0.280,0.053,0.286,-5.337
0.268,0.057,0.285,-5.337
0.186,0.060,0.289,-5.337
0.176,0.059,0.287,-5.337
0.252,0.058,0.286,-5.337
0.213,0.057,0.284,-5.337
0.202,0.058,0.286,-5.337
0.198,0.055,0.289,-5.337
0.156,0.053,0.289,-5.337
0.174,0.054,0.286,-5.337
0.236,0.055,0.284,-5.337
0.219,0.056,0.285,-5.337
0.209,0.057,0.285,-5.337
0.178,0.058,0.284,-5.337
0.176,0.056,0.284,-5.337
0.223,0.054,0.286,-5.337
0.268,0.055,0.287,-5.337
0.204,0.055,0.284,-5.337
0.169,0.059,0.281,-5.337
0.217,0.060,0.284,-5.337
0.173,0.059,0.286,-5.337
0.167,0.062,0.287,-5.337
0.194,0.061,0.284,-5.337
0.229,0.059,0.283,-5.337
0.284,0.055,0.285,-5.337
0.303,0.058,0.292,-5.337
0.164,0.064,0.292,-5.337
0.133,0.065,0.293,-5.337
0.192,0.061,0.292,-5.337
0.228,0.060,0.289,-5.337
0.255,0.060,0.284,-5.337
0.236,0.059,0.283,-5.337
0.203,0.059,0.288,-5.337
0.219,0.064,0.293,-5.337
0.243,0.064,0.289,-5.337
0.330,0.064,0.285,-5.337
0.223,0.065,0.286,-5.337
0.072,0.067,0.290,-5.337
0.053,0.066,0.290,-5.337
0.114,0.067,0.288,-5.337
0.088,0.068,0.289,-5.337
0.098,0.065,0.286,-5.337
0.177,0.061,0.282,-5.337
0.249,0.059,0.281,-5.337
0.257,0.061,0.285,-5.337
0.224,0.061,0.288,-5.337
0.141,0.062,0.289,-5.337
0.154,0.061,0.286,-5.337
0.121,0.061,0.284,-5.337
0.109,0.065,0.289,-5.337
0.160,0.063,0.293,-5.337
0.165,0.060,0.291,-5.337
0.052,0.065,0.287,-5.337
0.059,0.064,0.284,-5.337
0.193,0.064,0.284,-5.337
0.230,0.065,0.288,-5.337
0.272,0.063,0.291,-5.337
0.323,0.063,0.289,-5.337
0.300,0.060,0.288,-5.337
0.264,0.061,0.288,-5.337
0.283,0.061,0.288,-5.337
0.267,0.059,0.288,-5.337
0.205,0.060,0.285,-5.337
0.128,0.059,0.282,-5.337
0.128,0.062,0.284,-5.337
0.182,0.059,0.286,-5.337
0.209,0.063,0.287,-5.337
0.235,0.062,0.288,-5.337
0.267,0.060,0.289,-5.337
0.167,0.062,0.288,-5.337
0.106,0.064,0.286,-5.337
0.164,0.062,0.288,-5.337
0.213,0.063,0.289,-5.337
0.278,0.065,0.289,-5.337
0.278,0.059,0.286,-5.337
0.287,0.057,0.289,-5.337
0.317,0.059,0.290,-5.337
0.335,0.057,0.292,-5.337
0.289,0.058,0.293,-5.337
0.202,0.058,0.289,-5.337
0.170,0.064,0.284,-5.337
0.179,0.067,0.283,-5.337
0.159,0.063,0.283,-5.337
0.156,0.063,0.282,-5.337
0.110,0.065,0.282,-5.337
0.114,0.065,0.285,-5.337
0.144,0.069,0.287,-5.337
0.186,0.069,0.287,-5.337
0.249,0.066,0.286,-5.337
0.248,0.063,0.286,-5.337
0.265,0.065,0.286,-5.337
0.245,0.064,0.287,-5.337
0.303,0.062,0.292,-5.337
0.285,0.063,0.291,-5.337
0.262,0.062,0.290,-5.337
0.209,0.063,0.289,-5.337
0.143,0.061,0.290,-5.337
0.199,0.060,0.290,-5.337
0.183,0.063,0.287,-5.337
0.167,0.062,0.284,-5.337
0.232,0.062,0.287,-5.337
0.239,0.060,0.286,-5.337
0.278,0.058,0.284,-5.337
0.345,0.057,0.283,-5.337
0.276,0.057,0.290,-5.337
0.224,0.058,0.290,-5.337
0.251,0.058,0.288,-5.337
0.238,0.060,0.285,-5.337
0.207,0.059,0.288,-5.337
0.218,0.058,0.288,-5.337
0.197,0.058,0.285,-5.337
0.182,0.058,0.286,-5.337
0.162,0.060,0.285,-5.337
0.196,0.057,0.285,-5.337
0.228,0.057,0.283,-5.337
0.196,0.055,0.288,-5.337
0.195,0.056,0.292,-5.337
0.207,0.058,0.295,-5.337
0.161,0.059,0.293,-5.337
0.167,0.057,0.291,-5.337
0.170,0.055,0.285,-5.337
0.203,0.057,0.283,-5.337
0.248,0.056,0.281,-5.337
0.261,0.057,0.283,-5.337
0.283,0.053,0.286,-5.337
0.330,0.055,0.287,-5.337
0.304,0.058,0.288,-5.337
0.259,0.057,0.286,-5.337
0.228,0.053,0.285,-5.337
0.242,0.052,0.284,-5.337
0.189,0.052,0.287,-5.337
0.185,0.050,0.286,-5.337
0.218,0.047,0.284,-5.337
0.207,0.051,0.286,-5.337
0.152,0.052,0.289,-5.337
0.156,0.052,0.294,-5.337
0.240,0.052,0.293,-5.337
0.300,0.052,0.288,-5.337
0.287,0.054,0.287,-5.337
0.254,0.055,0.286,-5.337
0.183,0.057,0.288,-5.337
0.170,0.054,0.288,-5.337
0.246,0.054,0.289,-5.337
0.247,0.053,0.292,-5.337
0.237,0.051,0.290,-5.337
0.239,0.053,0.289,-5.337
0.211,0.052,0.287,-5.337
0.234,0.050,0.288,-5.337
0.213,0.052,0.289,-5.337
0.240,0.052,0.289,-5.337
0.297,0.055,0.286,-5.337
0.249,0.056,0.287,-5.337
0.241,0.056,0.289,-5.337
0.248,0.055,0.288,-5.337
0.269,0.054,0.286,-5.337
0.242,0.054,0.290,-5.337
0.144,0.054,0.290,-5.337
0.172,0.050,0.287,-5.337
0.277,0.047,0.283,-5.337
0.259,0.049,0.286,-5.337
0.271,0.048,0.288,-5.337
0.340,0.045,0.288,-5.337
0.368,0.047,0.286,-5.337
0.190,0.051,0.288,-5.337
0.116,0.051,0.289,-5.337
0.224,0.051,0.287,-5.337
0.238,0.049,0.287,-5.337
0.207,0.049,0.291,-5.337
0.218,0.045,0.291,-5.337
0.216,0.041,0.288,-5.337
0.169,0.043,0.288,-5.337
0.173,0.044,0.286,-5.337
0.228,0.047,0.287,-5.337
0.214,0.050,0.288,-5.337
0.227,0.049,0.289,-5.337
0.230,0.052,0.290,-5.337
0.174,0.054,0.288,-5.337
0.201,0.056,0.283,-5.337
0.234,0.055,0.283,-5.337
0.259,0.056,0.286,-5.337
0.209,0.053,0.289,-5.337
0.202,0.049,0.288,-5.337
0.233,0.050,0.285,-5.337
0.272,0.046,0.287,-5.337
0.275,0.047,0.293,-5.337
0.159,0.050,0.291,-5.337
0.110,0.049,0.288,-5.337
0.203,0.047,0.286,-5.337
0.241,0.049,0.284,-5.337
0.273,0.045,0.281,-5.337
0.260,0.046,0.283,-5.337
0.178,0.048,0.284,-5.337
0.139,0.049,0.283,-5.337
0.176,0.046,0.287,-5.337
0.195,0.044,0.288,-5.337
0.166,0.044,0.282,-5.337
0.193,0.044,0.283,-5.337
0.274,0.041,0.288,-5.337
0.286,0.042,0.288,-5.337
0.286,0.039,0.284,-5.337
0.272,0.039,0.283,-5.337
0.268,0.041,0.287,-5.337
0.290,0.039,0.290,-5.337
0.248,0.040,0.291,-5.337
0.256,0.046,0.289,-5.337
0.250,0.043,0.290,-5.337
0.269,0.039,0.290,-5.337
0.270,0.040,0.290,-5.337
0.237,0.039,0.288,-5.337
0.242,0.037,0.284,-5.337
0.231,0.037,0.282,-5.337
0.239,0.038,0.285,-5.337
0.251,0.040,0.286,-5.337
0.185,0.041,0.287,-5.337
0.169,0.039,0.285,-5.337
0.222,0.039,0.282,-5.337
0.221,0.040,0.283,-5.337
0.216,0.042,0.284,-5.337
0.229,0.038,0.285,-5.337
0.194,0.037,0.288,-5.337
0.128,0.035,0.291,-5.337
0.181,0.035,0.290,-5.337
0.317,0.037,0.288,-5.337
0.270,0.042,0.289,-5.337
0.190,0.040,0.288,-5.337
0.138,0.041,0.288,-5.337
0.126,0.040,0.290,-5.337
0.214,0.041,0.288,-5.337
0.289,0.039,0.286,-5.337
0.236,0.042,0.286,-5.337
0.149,0.045,0.288,-5.337
0.223,0.043,0.288,-5.337
0.304,0.041,0.291,-5.337
0.248,0.044,0.288,-5.337
0.193,0.043,0.288,-5.337
0.195,0.042,0.286,-5.337
0.244,0.042,0.286,-5.337
0.334,0.038,0.289,-5.337
0.332,0.039,0.287,-5.337
0.318,0.040,0.285,-5.337
0.321,0.041,0.283,-5.337
0.329,0.040,0.282,-5.337
0.264,0.043,0.284,-5.337
0.160,0.045,0.287,-5.337
0.174,0.043,0.292,-5.337
0.221,0.044,0.292,-5.337
0.273,0.038,0.286,-5.337
0.291,0.036,0.284,-5.337
0.243,0.040,0.283,-5.337
0.213,0.040,0.286,-5.337
0.219,0.042,0.287,-5.337
0.173,0.039,0.287,-5.337
0.148,0.039,0.286,-5.337
0.155,0.043,0.284,-5.337
0.213,0.043,0.284,-5.337
0.264,0.040,0.288,-5.337
0.227,0.039,0.285,-5.337
0.141,0.039,0.283,-5.337
0.163,0.037,0.286,-5.337
0.220,0.038,0.290,-5.337
0.242,0.038,0.289,-5.337
0.223,0.036,0.286,-5.337
0.231,0.031,0.286,-5.337
0.268,0.037,0.287,-5.337
0.297,0.041,0.288,-5.337
0.234,0.042,0.289,-5.337
0.209,0.038,0.291,-5.337
0.320,0.034,0.290,-5.337
0.358,0.039,0.288,-5.337
0.270,0.044,0.288,-5.337
0.284,0.043,0.290,-5.337
0.291,0.037,0.286,-5.337
0.312,0.035,0.283,-5.337
0.307,0.036,0.283,-5.337
0.257,0.038,0.285,-5.337
0.157,0.040,0.285,-5.337
0.128,0.040,0.289,-5.337
0.195,0.039,0.290,-5.337
0.247,0.040,0.294,-5.337
0.201,0.045,0.292,-5.337
0.201,0.041,0.288,-5.337
0.227,0.039,0.286,-5.337
0.255,0.037,0.285,-5.337
0.248,0.035,0.284,-5.337
0.266,0.040,0.285,-5.337
0.249,0.041,0.286,-5.337
0.208,0.045,0.286,-5.337
0.178,0.043,0.284,-5.337
0.194,0.038,0.286,-5.337
0.227,0.038,0.285,-5.337
0.217,0.042,0.286,-5.337
0.243,0.042,0.287,-5.337
0.291,0.036,0.291,-5.337
0.272,0.038,0.292,-5.337
0.295,0.039,0.290,-5.337
0.324,0.037,0.290,-5.337
0.254,0.039,0.291,-5.337
0.140,0.041,0.291,-5.337
0.153,0.039,0.287,-5.337
0.194,0.039,0.282,-5.337
0.201,0.041,0.283,-5.337
0.207,0.038,0.287,-5.337
0.206,0.036,0.287,-5.337
0.220,0.035,0.285,-5.337
0.201,0.038,0.283,-5.337
0.217,0.039,0.287,-5.337
0.266,0.040,0.289,-5.337
0.294,0.045,0.291,-5.337
0.284,0.045,0.287,-5.337
0.262,0.042,0.286,-5.337
0.276,0.042,0.289,-5.337
0.277,0.040,0.289,-5.337
0.226,0.036,0.287,-5.337
0.260,0.038,0.287,-5.337
0.292,0.042,0.284,-5.337
0.285,0.041,0.287,-5.337
0.247,0.039,0.291,-5.337
0.170,0.041,0.292,-5.337
0.129,0.042,0.288,-5.337
0.097,0.044,0.286,-5.337
0.180,0.038,0.288,-5.337
0.241,0.035,0.290,-5.337
0.192,0.036,0.293,-5.337
0.172,0.037,0.290,-5.337
0.168,0.037,0.287,-5.337
0.189,0.038,0.287,-5.337
0.247,0.038,0.288,-5.337
0.285,0.038,0.288,-5.337
0.222,0.040,0.286,-5.337
0.155,0.045,0.282,-5.337
0.208,0.042,0.283,-5.337
0.233,0.039,0.285,-5.337
0.205,0.042,0.287,-5.337
0.161,0.042,0.289,-5.337
0.163,0.041,0.292,-5.337
0.263,0.038,0.289,-5.337
0.279,0.038,0.286,-5.337
0.183,0.041,0.284,-5.337
0.142,0.040,0.283,-5.337
0.231,0.035,0.286,-5.337
0.266,0.034,0.290,-5.337
0.257,0.037,0.291,-5.337
0.238,0.040,0.293,-5.337
0.241,0.038,0.294,-5.337
0.228,0.037,0.290,-5.337
0.233,0.038,0.284,-5.337
0.273,0.038,0.282,-5.337
0.224,0.040,0.285,-5.337
0.211,0.040,0.285,-5.337
0.214,0.037,0.286,-5.337
0.212,0.033,0.284,-5.337
0.225,0.035,0.288,-5.337
0.273,0.037,0.291,-5.337
0.263,0.039,0.291,-5.337
0.223,0.039,0.290,-5.337
0.223,0.039,0.288,-5.337
0.296,0.039,0.291,-5.337
0.311,0.040,0.291,-5.337
0.250,0.042,0.289,-5.337
0.186,0.040,0.288,-5.337
0.223,0.040,0.286,-5.337
0.232,0.042,0.286,-5.337
0.217,0.040,0.285,-5.337
0.197,0.041,0.284,-5.337
0.161,0.043,0.284,-5.337
0.149,0.043,0.288,-5.337
0.191,0.045,0.290,-5.337
0.215,0.045,0.291,-5.337
0.205,0.043,0.289,-5.337
0.208,0.041,0.287,-5.337
0.178,0.042,0.289,-5.337
0.182,0.042,0.289,-5.337
0.171,0.045,0.289,-5.337
0.118,0.046,0.288,-5.337
0.115,0.049,0.290,-5.337
0.141,0.048,0.287,-5.337
0.145,0.045,0.285,-5.337
0.159,0.045,0.285,-5.337
0.213,0.046,0.288,-5.337
0.231,0.044,0.291,-5.337
0.235,0.043,0.291,-5.337
0.218,0.045,0.288,-5.337
0.261,0.046,0.288,-5.337
0.300,0.046,0.285,-5.337
0.282,0.046,0.284,-5.337
0.180,0.045,0.285,-5.337
0.287,0.044,0.286,-5.337
0.334,0.047,0.286,-5.337
0.214,0.048,0.288,-5.337
0.195,0.043,0.291,-5.337
0.154,0.044,0.290,-5.337
0.142,0.047,0.287,-5.337
0.128,0.046,0.287,-5.337
0.203,0.047,0.290,-5.337
0.267,0.043,0.287,-5.337
0.236,0.044,0.290,-5.337
0.164,0.045,0.289,-5.337
0.181,0.050,0.288,-5.337
0.169,0.052,0.288,-5.337
0.184,0.047,0.290,-5.337
0.145,0.044,0.290,-5.337
0.125,0.043,0.286,-5.337
0.127,0.040,0.285,-5.337
0.222,0.041,0.286,-5.337
0.241,0.042,0.287,-5.337
0.133,0.047,0.289,-5.337
0.116,0.046,0.291,-5.337
0.180,0.048,0.293,-5.337
0.178,0.049,0.289,-5.337
0.175,0.047,0.285,-5.337
0.213,0.043,0.288,-5.337
0.258,0.043,0.287,-5.337
0.195,0.046,0.289,-5.337
0.180,0.044,0.290,-5.337
0.216,0.040,0.286,-5.337
0.247,0.043,0.281,-5.337
0.188,0.047,0.283,-5.337
0.182,0.049,0.287,-5.337
0.267,0.046,0.289,-5.337
0.287,0.045,0.288,-5.337
0.302,0.045,0.288,-5.337
0.256,0.048,0.288,-5.337
0.196,0.052,0.291,-5.337
0.263,0.053,0.290,-5.337
0.276,0.051,0.287,-5.337
0.279,0.048,0.288,-5.337
0.300,0.045,0.287,-5.337
0.321,0.045,0.284,-5.337
0.265,0.050,0.285,-5.337
0.158,0.054,0.285,-5.337
0.121,0.052,0.289,-5.337
0.098,0.051,0.287,-5.337
0.048,0.051,0.287,-5.337
0.078,0.051,0.288,-5.337
0.119,0.048,0.290,-5.337
0.162,0.046,0.292,-5.337
0.194,0.049,0.290,-5.337
0.198,0.051,0.288,-5.337
0.147,0.050,0.287,-5.337
0.081,0.050,0.288,-5.337
0.131,0.047,0.290,-5.337
0.196,0.048,0.291,-5.337
0.234,0.044,0.290,-5.337
0.223,0.047,0.287,-5.337
0.255,0.046,0.284,-5.337
0.316,0.043,0.284,-5.337
0.286,0.044,0.285,-5.337
0.305,0.049,0.290,-5.337
0.279,0.047,0.290,-5.337
0.202,0.050,0.288,-5.337
0.192,0.050,0.288,-5.337
0.195,0.054,0.289,-5.337
0.173,0.056,0.287,-5.337
0.130,0.057,0.289,-5.337
0.145,0.052,0.289,-5.337
0.145,0.051,0.285,-5.337
0.123,0.052,0.282,-5.337
0.131,0.050,0.283,-5.337
0.148,0.052,0.287,-5.337
0.146,0.054,0.287,-5.337
0.193,0.054,0.284,-5.337
0.214,0.053,0.282,-5.337
0.258,0.054,0.287,-5.337
0.168,0.055,0.287,-5.337
0.106,0.053,0.287,-5.337
0.118,0.053,0.285,-5.337
0.118,0.052,0.286,-5.337
0.073,0.052,0.285,-5.337
0.060,0.055,0.289,-5.337
0.145,0.050,0.291,-5.337
0.158,0.053,0.292,-5.337
0.121,0.053,0.292,-5.337
0.144,0.052,0.291,-5.337
0.208,0.050,0.289,-5.337
0.262,0.051,0.281,-5.337
0.234,0.053,0.279,-5.337
0.208,0.054,0.285,-5.337
0.248,0.050,0.291,-5.337
0.248,0.048,0.291,-5.337
0.203,0.053,0.285,-5.337
0.202,0.057,0.285,-5.337
0.214,0.058,0.289,-5.337
0.204,0.054,0.286,-5.337
0.244,0.052,0.285,-5.337
0.281,0.052,0.281,-5.337
0.246,0.052,0.280,-5.337
0.168,0.057,0.281,-5.337
0.177,0.054,0.285,-5.337
0.222,0.053,0.283,-5.337
0.220,0.056,0.286,-5.337
0.176,0.055,0.290,-5.337
0.254,0.057,0.293,-5.337
0.291,0.057,0.293,-5.337
0.273,0.052,0.292,-5.337
0.256,0.052,0.291,-5.337
0.216,0.055,0.289,-5.337
0.212,0.058,0.289,-5.337
0.213,0.058,0.287,-5.337
0.249,0.055,0.288,-5.337
0.209,0.058,0.287,-5.337
0.174,0.057,0.285,-5.337
0.120,0.059,0.285,-5.337
0.029,0.060,0.284,-5.337
0.109,0.056,0.284,-5.337
0.179,0.053,0.287,-5.337
0.158,0.055,0.287,-5.337
0.126,0.054,0.290,-5.337
0.155,0.057,0.292,-5.337
0.219,0.056,0.291,-5.337
0.212,0.054,0.287,-5.337
0.167,0.056,0.287,-5.337
0.227,0.055,0.284,-5.337
0.197,0.056,0.285,-5.337
0.180,0.053,0.285,-5.337
0.152,0.054,0.285,-5.337
0.113,0.053,0.284,-5.337
0.125,0.055,0.284,-5.337
0.085,0.057,0.281,-5.337
0.104,0.055,0.280,-5.337
0.227,0.049,0.284,-5.337
0.248,0.052,0.289,-5.337
0.245,0.054,0.290,-5.337
0.240,0.055,0.288,-5.337
0.246,0.054,0.288,-5.337
0.240,0.051,0.288,-5.337
0.186,0.052,0.287,-5.337
0.169,0.051,0.287,-5.337
0.174,0.052,0.287,-5.337
0.161,0.048,0.289,-5.337
0.140,0.049,0.292,-5.337
0.122,0.056,0.292,-5.337
0.112,0.059,0.293,-5.337
0.121,0.057,0.289,-5.337
0.205,0.053,0.288,-5.337
0.205,0.053,0.285,-5.337
0.181,0.059,0.282,-5.337
0.242,0.057,0.281,-5.337
0.245,0.057,0.286,-5.337
0.198,0.058,0.286,-5.337
0.152,0.064,0.288,-5.337
0.193,0.061,0.290,-5.337
0.191,0.061,0.290,-5.337
0.143,0.060,0.288,-5.337
0.111,0.059,0.286,-5.337
0.154,0.060,0.283,-5.337
0.187,0.062,0.286,-5.337
0.128,0.062,0.290,-5.337
0.131,0.059,0.291,-5.337
0.213,0.059,0.287,-5.337
0.264,0.058,0.284,-5.337
0.216,0.057,0.287,-5.337
0.225,0.057,0.289,-5.337
0.219,0.057,0.288,-5.337
0.265,0.057,0.285,-5.337
0.290,0.055,0.285,-5.337
0.294,0.053,0.284,-5.337
0.266,0.052,0.289,-5.337
0.169,0.054,0.291,-5.337
0.154,0.056,0.291,-5.337
0.196,0.053,0.287,-5.337
0.245,0.052,0.286,-5.337
0.224,0.054,0.286,-5.337
0.169,0.055,0.285,-5.337
0.184,0.055,0.283,-5.337
0.155,0.056,0.284,-5.337
0.196,0.052,0.288,-5.337
0.192,0.051,0.291,-5.337
0.175,0.052,0.290,-5.337
0.120,0.054,0.286,-5.337
0.142,0.052,0.286,-5.337
0.188,0.051,0.285,-5.337
0.145,0.053,0.288,-5.337
0.122,0.056,0.291,-5.337
0.147,0.058,0.293,-5.337
0.175,0.057,0.290,-5.337
0.162,0.053,0.290,-5.337
0.155,0.054,0.288,-5.337
0.169,0.058,0.287,-5.337
0.166,0.056,0.282,-5.337
0.138,0.052,0.281,-5.337
0.171,0.053,0.284,-5.337
0.171,0.056,0.285,-5.337
0.180,0.057,0.287,-5.337
0.187,0.056,0.290,-5.337
0.174,0.055,0.291,-5.337
0.178,0.059,0.290,-5.337
0.207,0.057,0.285,-5.337
0.187,0.054,0.285,-5.337
0.222,0.049,0.287,-5.337
0.177,0.052,0.289,-5.337
0.242,0.054,0.292,-5.337
0.232,0.054,0.291,-5.337
0.185,0.052,0.289,-5.337
0.259,0.049,0.288,-5.337
0.271,0.051,0.287,-5.337
0.154,0.054,0.285,-5.337
0.155,0.052,0.286,-5.337
0.194,0.051,0.290,-5.337
0.199,0.048,0.294,-5.337
0.243,0.051,0.295,-5.337
0.333,0.051,0.292,-5.337
0.393,0.048,0.285,-5.337
0.336,0.050,0.282,-5.337
0.196,0.050,0.285,-5.337
0.106,0.052,0.291,-5.337
0.178,0.050,0.292,-5.337
0.209,0.048,0.294,-5.337
0.159,0.048,0.292,-5.337
0.215,0.047,0.292,-5.337
0.284,0.047,0.292,-5.337
0.269,0.052,0.290,-5.337
0.137,0.055,0.285,-5.337
0.058,0.052,0.281,-5.337
0.131,0.046,0.284,-5.337
0.226,0.046,0.284,-5.337
0.265,0.046,0.280,-5.337
