[Parameters]
Operating Mode, Feedback
Subject  AA..ZZ, WT
Session  0..99, 42
No. Trials (1..9999), 500
Mouse Number, 1
Pressure Probe Serial Port, \00\00\00\04COM4
Save additional csv file, TRUE
Save using mouse number, FALSE
A/D Monitor Rate (Hz), 30000.000000
A/D Stimulate Rate (Hz), 30000.000000
A/D input range (+/- V), 5
No. Channels to acquire (N), 2
Pre-Stim Acq. time (ms), 100.000000
Post-Stim Acq. time (ms), 900.000000
Analysis window parameters.M-response Start (ms), 1.100000
Analysis window parameters.M-response Duration (ms), 5.500000
Analysis window parameters.H-response Duration (ms), 6.000000
Analysis window parameters.H-response Start (ms), 6.500000
Feedback window, H response
Proportional gain, 0.100000
Target value, 6.700000
Feedback Ch., 1
Stim Channel to Control (1-4), 4
Trial, 23
Wait for EMG Conditions, FALSE
Channel to monitor (0 - N-1), 1
EMG Hi Limit, 2.000000
EMG Lo Limit, 0.001000
Inter-Stim delay (sec), 10.000000
EMG Monitor Mode, Mean
Time to run Long Stim.(sec), 30
Save Long Stim Data?, OFF
BURST Save time (ms), 1000
BURST Save Interval (x above), 10
Long-Stim. Rep. Rate (Hz), 10.000000
Stim type cluster array.<size(s)>, 4
Stim type cluster array 0.Stimulus Output, Electrical
Stim type cluster array 1.Stimulus Output, OFF
Stim type cluster array 2.Stimulus Output, OFF
Stim type cluster array 3.Stimulus Output, Motor Length
Stim specs cluster array.<size(s)>, 4
Stim specs cluster array 0.Initial Stimulus ampl., 0.300000
Stim specs cluster array 0.Maximum Stimulus, 1.120000
Stim specs cluster array 0.#Pulses in train, 4
Stim specs cluster array 0.Peak Level time (ms), 1.000000
Stim specs cluster array 0.Total pulse period (ms), 150.000000
Stim specs cluster array 0.Start Delay (ms), -50.000000
Stim specs cluster array 0.Pulse Shape, Square
Stim specs cluster array 0.Ramp/Rel. time (ms), 0.100000
Stim specs cluster array 0.Peak Amplitude (V), 0.120000
Stim specs cluster array 1.Initial Stimulus ampl., 0.000000
Stim specs cluster array 1.Maximum Stimulus, 0.000000
Stim specs cluster array 1.#Pulses in train, 3
Stim specs cluster array 1.Peak Level time (ms), 29.000000
Stim specs cluster array 1.Total pulse period (ms), 200.000000
Stim specs cluster array 1.Start Delay (ms), 0.000000
Stim specs cluster array 1.Pulse Shape, Square
Stim specs cluster array 1.Ramp/Rel. time (ms), 0.000000
Stim specs cluster array 1.Peak Amplitude (V), 2.000000
Stim specs cluster array 2.Initial Stimulus ampl., 0.000000
Stim specs cluster array 2.Maximum Stimulus, 0.000000
Stim specs cluster array 2.#Pulses in train, 1
Stim specs cluster array 2.Peak Level time (ms), 25.000000
Stim specs cluster array 2.Total pulse period (ms), 200.000000
Stim specs cluster array 2.Start Delay (ms), 0.000000
Stim specs cluster array 2.Pulse Shape, Square
Stim specs cluster array 2.Ramp/Rel. time (ms), 20.000000
Stim specs cluster array 2.Peak Amplitude (V), 10.000000
Stim specs cluster array 3.Initial Stimulus ampl., 0.000000
Stim specs cluster array 3.Maximum Stimulus, 20.000000
Stim specs cluster array 3.#Pulses in train, 25
Stim specs cluster array 3.Peak Level time (ms), 0.100000
Stim specs cluster array 3.Total pulse period (ms), 4.000000
Stim specs cluster array 3.Start Delay (ms), 205.000000
Stim specs cluster array 3.Pulse Shape, Triangle
Stim specs cluster array 3.Ramp/Rel. time (ms), 3.000000
Stim specs cluster array 3.Peak Amplitude (V), 0.500000
Force cal. (mN/Volt), 100.000000
Force Range (mN), 100.000000
Length cal. (mm/Volt), 10.000000
Length Range (mm), 10.000000
Stim. 1, 0.300000
Stim. 2, 0.000000
Stim. 3, 0.000000
Stim. 4, 0.000000
Monitor acquire time (ms), 100.000000
EMG graph Ymax, 0.100000
Travel limit (mm), 20.000000
Use Pressure Probe, FALSE
Pressure goal (g), 100
Speed (mm/sec), 5.000000
Dwell time (ms), 100.000000
Pressure limit (g), 500.000000
Channel amplitude offset, 0.000000

[DATA]

0.131,0.061,0.332,-5.337
0.149,0.059,0.334,-5.337
0.211,0.056,0.338,-5.337
0.250,0.054,0.336,-5.337
0.248,0.054,0.335,-5.337
0.223,0.055,0.333,-5.337
0.250,0.053,0.333,-5.337
0.242,0.054,0.331,-5.337
0.181,0.056,0.329,-5.337
0.203,0.055,0.328,-5.337
0.235,0.056,0.329,-5.337
0.209,0.060,0.331,-5.337
0.155,0.061,0.334,-5.337
0.119,0.058,0.336,-5.337
0.143,0.057,0.339,-5.337
0.177,0.057,0.339,-5.337
0.211,0.057,0.337,-5.337
0.204,0.059,0.334,-5.337
0.153,0.061,0.331,-5.337
0.124,0.060,0.331,-5.337
0.149,0.061,0.331,-5.337
0.205,0.059,0.335,-5.337
0.201,0.056,0.338,-5.337
0.164,0.058,0.335,-5.337
0.097,0.059,0.334,-5.337
0.082,0.063,0.335,-5.337
0.133,0.062,0.337,-5.337
0.214,0.061,0.338,-5.337
0.262,0.060,0.338,-5.337
0.261,0.066,0.337,-5.337
0.168,0.065,0.334,-5.337
0.142,0.064,0.333,-5.337
0.224,0.062,0.331,-5.337
0.177,0.061,0.331,-5.337
0.134,0.060,0.330,-5.337
0.181,0.059,0.333,-5.337
0.204,0.060,0.331,-5.337
0.250,0.058,0.329,-5.337
0.250,0.057,0.328,-5.337
0.180,0.060,0.331,-5.337
0.204,0.057,0.335,-5.337
0.202,0.060,0.333,-5.337
0.241,0.054,0.330,-5.337
0.228,0.055,0.330,-5.337
0.215,0.058,0.331,-5.337
0.243,0.058,0.336,-5.337
0.319,0.058,0.338,-5.337
0.286,0.059,0.338,-5.337
0.239,0.058,0.337,-5.337
0.209,0.057,0.338,-5.337
0.211,0.056,0.337,-5.337
0.197,0.053,0.334,-5.337
0.200,0.052,0.332,-5.337
0.200,0.054,0.331,-5.337
0.192,0.055,0.332,-5.337
0.201,0.054,0.333,-5.337
0.239,0.054,0.336,-5.337
0.219,0.056,0.335,-5.337
0.146,0.057,0.334,-5.337
0.184,0.057,0.330,-5.337
0.213,0.058,0.329,-5.337
0.187,0.059,0.327,-5.337
0.100,0.060,0.328,-5.337
0.057,0.057,0.327,-5.337
0.127,0.058,0.327,-5.337
0.145,0.059,0.330,-5.337
0.114,0.061,0.336,-5.337
0.094,0.059,0.335,-5.337
0.158,0.057,0.332,-5.337
0.230,0.059,0.332,-5.337
0.189,0.065,0.335,-5.337
0.115,0.064,0.340,-5.337
0.152,0.062,0.340,-5.337
0.279,0.059,0.330,-5.337
0.313,0.059,0.326,-5.337
0.268,0.059,0.329,-5.337
0.223,0.056,0.330,-5.337
0.249,0.053,0.330,-5.337
0.209,0.058,0.332,-5.337
0.165,0.061,0.333,-5.337
0.117,0.058,0.333,-5.337
0.149,0.057,0.332,-5.337
0.174,0.058,0.332,-5.337
0.207,0.059,0.332,-5.337
0.255,0.057,0.331,-5.337
0.230,0.058,0.329,-5.337
0.210,0.057,0.326,-5.337
0.236,0.059,0.328,-5.337
0.297,0.058,0.330,-5.337
0.270,0.055,0.333,-5.337
0.204,0.051,0.334,-5.337
0.247,0.051,0.332,-5.337
0.261,0.054,0.328,-5.337
0.167,0.057,0.329,-5.337
0.165,0.052,0.331,-5.337
0.151,0.054,0.332,-5.337
0.145,0.056,0.332,-5.337
0.114,0.062,0.335,-5.337
0.117,0.060,0.334,-5.337
0.111,0.060,0.330,-5.337
0.094,0.061,0.328,-5.337
0.117,0.059,0.329,-5.337
0.109,0.057,0.333,-5.337
0.173,0.055,0.335,-5.337
0.151,0.056,0.333,-5.337
0.126,0.054,0.329,-5.337
0.181,0.055,0.328,-5.337
0.197,0.055,0.333,-5.337
0.221,0.055,0.339,-5.337
0.248,0.052,0.342,-5.337
0.250,0.054,0.344,-5.337
0.216,0.054,0.342,-5.337
0.140,0.057,0.336,-5.337
0.122,0.056,0.330,-5.337
0.159,0.055,0.326,-5.337
0.212,0.054,0.327,-5.337
0.196,0.051,0.330,-5.337
0.150,0.047,0.331,-5.337
0.205,0.048,0.334,-5.337
0.273,0.049,0.334,-5.337
0.292,0.052,0.331,-5.337
0.251,0.055,0.331,-5.337
0.225,0.054,0.335,-5.337
0.253,0.053,0.340,-5.337
0.250,0.054,0.336,-5.337
0.239,0.052,0.331,-5.337
0.231,0.049,0.330,-5.337
0.225,0.054,0.332,-5.337
0.161,0.056,0.336,-5.337
0.162,0.053,0.336,-5.337
0.160,0.051,0.330,-5.337
0.158,0.053,0.329,-5.337
0.177,0.053,0.332,-5.337
0.216,0.053,0.340,-5.337
0.141,0.054,0.344,-5.337
0.111,0.054,0.340,-5.337
0.204,0.051,0.334,-5.337
0.222,0.048,0.332,-5.337
0.196,0.048,0.334,-5.337
0.257,0.050,0.337,-5.337
0.284,0.051,0.338,-5.337
0.203,0.053,0.336,-5.337
0.117,0.050,0.331,-5.337
0.098,0.050,0.332,-5.337
0.139,0.050,0.334,-5.337
0.185,0.049,0.340,-5.337
0.188,0.048,0.340,-5.337
0.125,0.051,0.337,-5.337
0.152,0.054,0.334,-5.337
0.179,0.051,0.334,-5.337
0.220,0.053,0.334,-5.337
0.257,0.053,0.333,-5.337
0.195,0.054,0.335,-5.337
0.182,0.050,0.334,-5.337
0.263,0.049,0.335,-5.337
0.242,0.048,0.332,-5.337
0.195,0.046,0.329,-5.337
0.251,0.047,0.332,-5.337
0.247,0.049,0.339,-5.337
0.106,0.047,0.341,-5.337
0.087,0.044,0.338,-5.337
0.186,0.045,0.333,-5.337
0.217,0.048,0.329,-5.337
0.279,0.045,0.330,-5.337
0.268,0.043,0.335,-5.337
0.239,0.043,0.338,-5.337
0.276,0.044,0.335,-5.337
0.236,0.043,0.336,-5.337
0.216,0.043,0.337,-5.337
0.190,0.042,0.337,-5.337
0.122,0.044,0.334,-5.337
0.135,0.045,0.335,-5.337
0.183,0.046,0.335,-5.337
0.161,0.044,0.333,-5.337
0.194,0.040,0.329,-5.337
0.234,0.043,0.327,-5.337
0.283,0.045,0.329,-5.337
0.279,0.043,0.332,-5.337
0.215,0.043,0.332,-5.337
0.218,0.043,0.330,-5.337
0.216,0.044,0.333,-5.337
0.213,0.046,0.336,-5.337
0.177,0.044,0.334,-5.337
0.162,0.044,0.330,-5.337
0.190,0.046,0.328,-5.337
0.235,0.045,0.334,-5.337
0.165,0.045,0.338,-5.337
0.120,0.042,0.334,-5.337
0.150,0.042,0.334,-5.337
0.233,0.041,0.329,-5.337
0.325,0.041,0.325,-5.337
0.301,0.045,0.329,-5.337
0.237,0.047,0.336,-5.337
0.258,0.041,0.338,-5.337
0.288,0.041,0.335,-5.337
0.289,0.041,0.335,-5.337
0.289,0.043,0.337,-5.337
0.305,0.042,0.333,-5.337
0.260,0.040,0.331,-5.337
0.195,0.038,0.331,-5.337
0.227,0.042,0.334,-5.337
0.185,0.045,0.334,-5.337
0.174,0.044,0.336,-5.337
0.275,0.037,0.337,-5.337
0.247,0.042,0.338,-5.337
0.195,0.043,0.334,-5.337
0.207,0.042,0.328,-5.337
0.217,0.041,0.329,-5.337
0.230,0.045,0.334,-5.337
0.179,0.045,0.335,-5.337
0.144,0.042,0.334,-5.337
0.218,0.039,0.325,-5.337
0.238,0.040,0.323,-5.337
0.155,0.038,0.326,-5.337
0.113,0.040,0.333,-5.337
0.194,0.043,0.338,-5.337
0.208,0.038,0.339,-5.337
0.163,0.039,0.335,-5.337
0.129,0.041,0.332,-5.337
0.094,0.044,0.335,-5.337
0.173,0.043,0.337,-5.337
0.205,0.042,0.337,-5.337
0.236,0.040,0.331,-5.337
0.219,0.041,0.329,-5.337
0.111,0.041,0.330,-5.337
0.176,0.041,0.336,-5.337
0.258,0.038,0.336,-5.337
0.269,0.033,0.332,-5.337
0.282,0.033,0.326,-5.337
0.232,0.036,0.328,-5.337
0.154,0.038,0.335,-5.337
0.168,0.039,0.340,-5.337
0.138,0.037,0.336,-5.337
0.037,0.036,0.330,-5.337
0.086,0.032,0.328,-5.337
0.146,0.039,0.331,-5.337
0.204,0.037,0.331,-5.337
0.224,0.036,0.330,-5.337
0.173,0.040,0.331,-5.337
0.125,0.043,0.332,-5.337
0.151,0.042,0.336,-5.337
0.237,0.036,0.337,-5.337
0.176,0.038,0.337,-5.337
0.108,0.036,0.335,-5.337
0.175,0.033,0.334,-5.337
0.258,0.036,0.331,-5.337
0.263,0.036,0.331,-5.337
0.242,0.038,0.330,-5.337
0.238,0.036,0.330,-5.337
0.230,0.037,0.331,-5.337
0.213,0.037,0.332,-5.337
0.278,0.033,0.330,-5.337
0.301,0.033,0.331,-5.337
0.291,0.034,0.332,-5.337
0.185,0.035,0.334,-5.337
0.181,0.037,0.335,-5.337
0.209,0.036,0.334,-5.337
0.200,0.034,0.333,-5.337
0.223,0.036,0.333,-5.337
0.276,0.037,0.333,-5.337
0.243,0.040,0.332,-5.337
0.229,0.037,0.331,-5.337
0.224,0.035,0.332,-5.337
0.154,0.039,0.334,-5.337
0.144,0.041,0.336,-5.337
0.150,0.036,0.334,-5.337
0.222,0.033,0.329,-5.337
0.220,0.035,0.331,-5.337
0.169,0.032,0.332,-5.337
0.111,0.034,0.332,-5.337
0.122,0.034,0.328,-5.337
0.157,0.037,0.330,-5.337
0.170,0.037,0.333,-5.337
0.129,0.038,0.337,-5.337
0.235,0.035,0.336,-5.337
0.314,0.033,0.331,-5.337
0.287,0.036,0.328,-5.337
0.231,0.037,0.328,-5.337
0.170,0.035,0.330,-5.337
0.219,0.034,0.334,-5.337
0.251,0.035,0.338,-5.337
0.198,0.038,0.340,-5.337
0.152,0.038,0.337,-5.337
0.163,0.036,0.332,-5.337
0.181,0.038,0.333,-5.337
0.173,0.036,0.332,-5.337
0.147,0.034,0.334,-5.337
0.207,0.030,0.335,-5.337
0.236,0.030,0.335,-5.337
0.241,0.032,0.332,-5.337
0.210,0.035,0.335,-5.337
0.195,0.036,0.337,-5.337
0.217,0.034,0.338,-5.337
0.272,0.030,0.337,-5.337
0.344,0.029,0.339,-5.337
0.280,0.034,0.338,-5.337
0.164,0.038,0.336,-5.337
0.167,0.036,0.328,-5.337
0.191,0.035,0.328,-5.337
0.158,0.033,0.330,-5.337
0.148,0.034,0.333,-5.337
0.182,0.033,0.335,-5.337
0.205,0.037,0.336,-5.337
0.184,0.039,0.336,-5.337
0.126,0.038,0.337,-5.337
0.150,0.036,0.338,-5.337
0.195,0.032,0.337,-5.337
0.216,0.031,0.335,-5.337
0.273,0.031,0.330,-5.337
0.296,0.033,0.328,-5.337
0.210,0.037,0.328,-5.337
0.141,0.037,0.332,-5.337
0.232,0.036,0.338,-5.337
0.271,0.035,0.339,-5.337
0.177,0.038,0.336,-5.337
0.116,0.039,0.336,-5.337
0.156,0.034,0.336,-5.337
0.254,0.033,0.334,-5.337
0.254,0.036,0.329,-5.337
0.196,0.039,0.329,-5.337
0.199,0.036,0.331,-5.337
0.200,0.031,0.333,-5.337
0.237,0.029,0.331,-5.337
0.285,0.032,0.331,-5.337
0.213,0.038,0.332,-5.337
0.168,0.037,0.333,-5.337
0.196,0.035,0.337,-5.337
0.243,0.027,0.334,-5.337
0.207,0.028,0.331,-5.337
0.174,0.029,0.328,-5.337
0.159,0.029,0.330,-5.337
0.169,0.031,0.331,-5.337
0.167,0.033,0.334,-5.337
0.135,0.037,0.333,-5.337
0.156,0.040,0.334,-5.337
0.179,0.035,0.337,-5.337
0.152,0.033,0.340,-5.337
0.143,0.033,0.335,-5.337
0.185,0.036,0.331,-5.337
0.161,0.036,0.329,-5.337
0.119,0.037,0.331,-5.337
0.149,0.034,0.334,-5.337
0.192,0.033,0.333,-5.337
0.173,0.034,0.334,-5.337
0.178,0.032,0.334,-5.337
0.218,0.033,0.331,-5.337
0.182,0.035,0.329,-5.337
0.199,0.035,0.330,-5.337
0.177,0.039,0.332,-5.337
0.163,0.038,0.332,-5.337
0.186,0.032,0.331,-5.337
0.202,0.033,0.330,-5.337
0.165,0.034,0.333,-5.337
0.172,0.032,0.336,-5.337
0.221,0.033,0.337,-5.337
0.270,0.034,0.337,-5.337
0.254,0.032,0.331,-5.337
0.182,0.032,0.331,-5.337
0.198,0.030,0.330,-5.337
0.343,0.031,0.330,-5.337
0.314,0.034,0.329,-5.337
0.182,0.038,0.332,-5.337
0.105,0.038,0.335,-5.337
0.163,0.037,0.334,-5.337
0.233,0.039,0.331,-5.337
0.217,0.040,0.330,-5.337
0.176,0.040,0.330,-5.337
0.149,0.042,0.330,-5.337
0.137,0.041,0.331,-5.337
0.132,0.042,0.332,-5.337
0.125,0.041,0.334,-5.337
0.158,0.042,0.335,-5.337
0.146,0.040,0.331,-5.337
0.139,0.042,0.331,-5.337
0.115,0.042,0.331,-5.337
0.167,0.040,0.333,-5.337
0.173,0.041,0.338,-5.337
0.113,0.045,0.338,-5.337
0.143,0.043,0.334,-5.337
0.161,0.039,0.334,-5.337
0.097,0.039,0.336,-5.337
0.150,0.038,0.337,-5.337
0.136,0.038,0.336,-5.337
0.074,0.040,0.333,-5.337
0.085,0.045,0.329,-5.337
0.092,0.048,0.326,-5.337
0.122,0.046,0.325,-5.337
0.154,0.040,0.327,-5.337
0.174,0.042,0.332,-5.337
0.225,0.040,0.333,-5.337
0.208,0.041,0.334,-5.337
0.221,0.037,0.334,-5.337
0.231,0.037,0.332,-5.337
0.230,0.039,0.329,-5.337
0.205,0.038,0.329,-5.337
0.157,0.042,0.332,-5.337
0.093,0.044,0.332,-5.337
0.127,0.042,0.333,-5.337
0.172,0.042,0.332,-5.337
0.209,0.042,0.331,-5.337
0.214,0.045,0.331,-5.337
0.182,0.047,0.332,-5.337
0.269,0.042,0.333,-5.337
0.292,0.043,0.337,-5.337
0.184,0.048,0.342,-5.337
0.147,0.045,0.340,-5.337
0.189,0.045,0.333,-5.337
0.163,0.048,0.328,-5.337
0.119,0.050,0.327,-5.337
0.119,0.048,0.328,-5.337
0.149,0.046,0.330,-5.337
0.162,0.047,0.330,-5.337
0.194,0.050,0.330,-5.337
0.216,0.051,0.332,-5.337
0.210,0.051,0.333,-5.337
0.249,0.047,0.333,-5.337
0.221,0.046,0.334,-5.337
0.172,0.047,0.333,-5.337
0.109,0.049,0.330,-5.337
0.107,0.049,0.330,-5.337
0.182,0.049,0.330,-5.337
0.148,0.051,0.332,-5.337
0.140,0.049,0.333,-5.337
0.115,0.047,0.329,-5.337
0.124,0.047,0.330,-5.337
0.188,0.047,0.330,-5.337
0.198,0.047,0.331,-5.337
0.176,0.047,0.331,-5.337
0.120,0.051,0.333,-5.337
0.075,0.049,0.335,-5.337
0.159,0.049,0.338,-5.337
0.295,0.050,0.338,-5.337
0.216,0.052,0.336,-5.337
0.159,0.046,0.334,-5.337
0.165,0.049,0.331,-5.337
0.155,0.049,0.328,-5.337
0.192,0.052,0.328,-5.337
0.154,0.057,0.329,-5.337
0.107,0.056,0.331,-5.337
0.125,0.055,0.330,-5.337
0.139,0.051,0.327,-5.337
0.154,0.051,0.328,-5.337
0.169,0.049,0.328,-5.337
0.176,0.048,0.327,-5.337
0.240,0.047,0.327,-5.337
0.277,0.047,0.327,-5.337
0.252,0.048,0.328,-5.337
0.267,0.050,0.328,-5.337
0.239,0.052,0.326,-5.337
0.196,0.056,0.327,-5.337
0.105,0.055,0.329,-5.337
0.069,0.054,0.330,-5.337
0.094,0.053,0.332,-5.337
0.120,0.055,0.333,-5.337
0.089,0.055,0.332,-5.337
0.157,0.055,0.328,-5.337
0.160,0.055,0.326,-5.337
0.129,0.058,0.326,-5.337
0.123,0.059,0.325,-5.337
0.159,0.058,0.325,-5.337
0.138,0.059,0.327,-5.337
0.119,0.058,0.330,-5.337
0.151,0.056,0.335,-5.337
0.232,0.054,0.331,-5.337
0.232,0.058,0.324,-5.337
0.239,0.058,0.320,-5.337
0.306,0.055,0.321,-5.337
0.249,0.056,0.323,-5.337
0.183,0.057,0.325,-5.337
0.196,0.058,0.327,-5.337
0.175,0.059,0.331,-5.337
0.127,0.059,0.331,-5.337
0.148,0.059,0.331,-5.337
0.232,0.057,0.328,-5.337
0.263,0.055,0.328,-5.337
0.267,0.052,0.329,-5.337
0.209,0.055,0.330,-5.337
0.173,0.055,0.329,-5.337
0.146,0.057,0.329,-5.337
0.076,0.054,0.330,-5.337
0.026,0.057,0.329,-5.337
0.061,0.057,0.328,-5.337
0.176,0.052,0.324,-5.337
0.124,0.056,0.320,-5.337
0.111,0.055,0.322,-5.337
0.216,0.052,0.323,-5.337
0.217,0.053,0.328,-5.337
0.106,0.055,0.330,-5.337
0.067,0.057,0.329,-5.337
0.123,0.055,0.328,-5.337
0.188,0.055,0.331,-5.337
0.198,0.053,0.333,-5.337
0.171,0.052,0.331,-5.337
0.170,0.052,0.331,-5.337
0.191,0.052,0.329,-5.337
0.159,0.053,0.330,-5.337
0.191,0.051,0.327,-5.337
0.232,0.052,0.324,-5.337
0.193,0.053,0.321,-5.337
0.209,0.054,0.322,-5.337
0.200,0.057,0.324,-5.337
0.130,0.059,0.325,-5.337
0.132,0.054,0.326,-5.337
0.174,0.056,0.326,-5.337
0.162,0.055,0.324,-5.337
0.120,0.061,0.323,-5.337
0.200,0.055,0.324,-5.337
0.229,0.055,0.325,-5.337
0.188,0.055,0.322,-5.337
0.213,0.058,0.321,-5.337
0.176,0.060,0.326,-5.337
0.069,0.060,0.333,-5.337
0.036,0.059,0.335,-5.337
0.126,0.062,0.332,-5.337
0.237,0.062,0.330,-5.337
0.246,0.058,0.329,-5.337
0.208,0.057,0.326,-5.337
0.223,0.058,0.325,-5.337
0.183,0.067,0.328,-5.337
0.128,0.065,0.329,-5.337
0.162,0.060,0.325,-5.337
0.235,0.063,0.322,-5.337
0.165,0.069,0.322,-5.337
0.061,0.066,0.322,-5.337
0.029,0.067,0.325,-5.337
0.112,0.063,0.327,-5.337
0.172,0.064,0.325,-5.337
0.244,0.059,0.326,-5.337
0.305,0.054,0.326,-5.337
0.346,0.055,0.323,-5.337
0.316,0.054,0.323,-5.337
0.246,0.057,0.326,-5.337
0.213,0.059,0.332,-5.337
0.207,0.059,0.333,-5.337
0.185,0.059,0.327,-5.337
0.100,0.061,0.323,-5.337
0.126,0.063,0.326,-5.337
0.202,0.060,0.327,-5.337
0.216,0.058,0.327,-5.337
0.187,0.056,0.327,-5.337
0.179,0.061,0.322,-5.337
0.168,0.066,0.322,-5.337
0.109,0.066,0.325,-5.337
0.117,0.066,0.333,-5.337
0.107,0.066,0.336,-5.337
0.138,0.067,0.334,-5.337
0.258,0.066,0.327,-5.337
0.265,0.061,0.324,-5.337
0.214,0.063,0.325,-5.337
0.194,0.066,0.328,-5.337
0.232,0.065,0.333,-5.337
0.194,0.063,0.331,-5.337
0.191,0.064,0.328,-5.337
0.172,0.066,0.329,-5.337
0.136,0.065,0.326,-5.337
0.122,0.067,0.327,-5.337
0.121,0.069,0.326,-5.337
0.172,0.067,0.323,-5.337
0.216,0.063,0.323,-5.337
0.269,0.059,0.327,-5.337
0.277,0.060,0.330,-5.337
0.269,0.062,0.327,-5.337
0.267,0.062,0.328,-5.337
0.208,0.061,0.329,-5.337
0.153,0.060,0.329,-5.337
0.186,0.062,0.326,-5.337
0.209,0.066,0.327,-5.337
0.136,0.064,0.327,-5.337
0.188,0.064,0.324,-5.337
0.247,0.061,0.325,-5.337
0.234,0.062,0.328,-5.337
0.176,0.062,0.326,-5.337
0.203,0.061,0.323,-5.337
0.290,0.062,0.322,-5.337
0.286,0.065,0.326,-5.337
0.215,0.063,0.325,-5.337
0.190,0.060,0.327,-5.337
0.217,0.060,0.331,-5.337
0.220,0.067,0.330,-5.337
0.165,0.067,0.328,-5.337
0.200,0.061,0.331,-5.337
0.171,0.062,0.335,-5.337
0.085,0.066,0.333,-5.337
0.136,0.067,0.328,-5.337
0.221,0.061,0.324,-5.337
0.268,0.063,0.328,-5.337
0.142,0.064,0.327,-5.337
0.069,0.068,0.327,-5.337
0.167,0.066,0.326,-5.337
0.166,0.066,0.325,-5.337
0.114,0.063,0.325,-5.337
0.149,0.065,0.328,-5.337
0.104,0.066,0.328,-5.337
0.091,0.059,0.326,-5.337
0.060,0.062,0.324,-5.337
0.152,0.064,0.325,-5.337
0.156,0.066,0.326,-5.337
0.169,0.067,0.328,-5.337
0.187,0.064,0.328,-5.337
0.167,0.064,0.325,-5.337
0.079,0.065,0.325,-5.337
0.125,0.062,0.330,-5.337
0.208,0.062,0.331,-5.337
0.158,0.058,0.324,-5.337
0.180,0.053,0.324,-5.337
0.158,0.055,0.324,-5.337
0.069,0.057,0.327,-5.337
0.111,0.056,0.330,-5.337
0.196,0.055,0.328,-5.337
0.220,0.058,0.325,-5.337
0.217,0.057,0.325,-5.337
0.167,0.057,0.325,-5.337
0.122,0.060,0.321,-5.337
0.133,0.058,0.321,-5.337
0.167,0.056,0.322,-5.337
0.240,0.052,0.323,-5.337
0.276,0.052,0.326,-5.337
0.240,0.052,0.327,-5.337
0.234,0.056,0.330,-5.337
0.205,0.056,0.332,-5.337
0.257,0.053,0.328,-5.337
0.263,0.054,0.322,-5.337
0.210,0.057,0.324,-5.337
0.210,0.056,0.327,-5.337
0.171,0.053,0.329,-5.337
0.160,0.055,0.328,-5.337
0.151,0.058,0.325,-5.337
0.145,0.057,0.324,-5.337
0.187,0.055,0.322,-5.337
0.266,0.052,0.326,-5.337
0.284,0.055,0.326,-5.337
0.275,0.057,0.326,-5.337
0.259,0.055,0.324,-5.337
0.265,0.055,0.320,-5.337
0.219,0.056,0.321,-5.337
0.126,0.058,0.326,-5.337
0.048,0.055,0.326,-5.337
0.152,0.052,0.323,-5.337
0.274,0.052,0.325,-5.337
0.248,0.054,0.330,-5.337
0.208,0.055,0.330,-5.337
0.199,0.052,0.327,-5.337
0.170,0.053,0.326,-5.337
0.130,0.052,0.324,-5.337
0.149,0.052,0.323,-5.337
0.103,0.055,0.327,-5.337
0.071,0.055,0.326,-5.337
0.116,0.054,0.325,-5.337
0.158,0.052,0.329,-5.337
0.172,0.051,0.334,-5.337
0.153,0.053,0.336,-5.337
0.205,0.051,0.332,-5.337
0.241,0.049,0.325,-5.337
0.194,0.048,0.322,-5.337
0.161,0.049,0.328,-5.337
0.190,0.052,0.331,-5.337
0.176,0.050,0.330,-5.337
0.160,0.047,0.329,-5.337
0.120,0.049,0.327,-5.337
0.112,0.052,0.326,-5.337
0.191,0.048,0.324,-5.337
0.223,0.048,0.327,-5.337
0.227,0.054,0.331,-5.337
0.200,0.049,0.330,-5.337
0.203,0.045,0.327,-5.337
0.151,0.048,0.323,-5.337
0.150,0.047,0.324,-5.337
0.165,0.044,0.328,-5.337
0.144,0.045,0.331,-5.337
0.213,0.042,0.326,-5.337
0.302,0.042,0.323,-5.337
0.313,0.043,0.324,-5.337
0.270,0.046,0.327,-5.337
0.222,0.044,0.331,-5.337
0.213,0.040,0.334,-5.337
0.191,0.043,0.336,-5.337
0.181,0.048,0.332,-5.337
0.166,0.046,0.325,-5.337
0.185,0.043,0.322,-5.337
0.205,0.041,0.325,-5.337
0.216,0.043,0.328,-5.337
0.252,0.048,0.329,-5.337
0.300,0.044,0.329,-5.337
0.257,0.045,0.328,-5.337
0.200,0.046,0.326,-5.337
0.197,0.047,0.327,-5.337
0.206,0.043,0.330,-5.337
0.256,0.042,0.330,-5.337
0.243,0.040,0.331,-5.337
0.180,0.044,0.331,-5.337
0.114,0.047,0.328,-5.337
0.167,0.046,0.329,-5.337
0.182,0.044,0.331,-5.337
0.176,0.042,0.331,-5.337
0.176,0.045,0.329,-5.337
0.155,0.049,0.327,-5.337
0.157,0.047,0.329,-5.337
0.187,0.043,0.329,-5.337
0.245,0.042,0.329,-5.337
0.211,0.047,0.328,-5.337
0.153,0.047,0.328,-5.337
0.115,0.048,0.325,-5.337
0.137,0.046,0.322,-5.337
0.191,0.047,0.323,-5.337
0.216,0.046,0.328,-5.337
0.241,0.045,0.327,-5.337
0.214,0.046,0.326,-5.337
0.182,0.043,0.327,-5.337
0.167,0.044,0.327,-5.337
0.175,0.043,0.329,-5.337
0.218,0.044,0.333,-5.337
0.285,0.041,0.331,-5.337
0.227,0.042,0.330,-5.337
0.124,0.045,0.326,-5.337
0.151,0.045,0.324,-5.337
0.187,0.047,0.327,-5.337
0.258,0.043,0.328,-5.337
0.310,0.043,0.330,-5.337
0.259,0.043,0.324,-5.337
0.217,0.046,0.324,-5.337
0.129,0.046,0.326,-5.337
0.125,0.040,0.328,-5.337
0.199,0.037,0.325,-5.337
0.283,0.041,0.327,-5.337
0.292,0.043,0.329,-5.337
0.307,0.045,0.334,-5.337
0.281,0.041,0.330,-5.337
0.223,0.039,0.325,-5.337
0.194,0.039,0.327,-5.337
0.210,0.039,0.331,-5.337
0.225,0.037,0.331,-5.337
0.210,0.039,0.331,-5.337
0.224,0.037,0.330,-5.337
0.266,0.040,0.329,-5.337
0.257,0.040,0.330,-5.337
0.292,0.043,0.326,-5.337
0.290,0.049,0.318,-5.337
0.187,0.050,0.320,-5.337
0.064,0.045,0.326,-5.337
0.097,0.043,0.328,-5.337
0.171,0.043,0.327,-5.337
0.169,0.044,0.325,-5.337
0.188,0.045,0.327,-5.337
0.285,0.042,0.328,-5.337
0.325,0.041,0.332,-5.337
0.284,0.043,0.334,-5.337
0.189,0.044,0.332,-5.337
0.143,0.041,0.326,-5.337
0.158,0.042,0.323,-5.337
0.128,0.045,0.320,-5.337
0.118,0.049,0.321,-5.337
0.121,0.046,0.322,-5.337
0.167,0.042,0.328,-5.337
0.152,0.042,0.327,-5.337
0.167,0.042,0.327,-5.337
0.222,0.037,0.327,-5.337
0.250,0.037,0.329,-5.337
0.231,0.037,0.328,-5.337
0.223,0.038,0.324,-5.337
0.225,0.042,0.323,-5.337
0.191,0.041,0.327,-5.337
0.142,0.039,0.327,-5.337
0.157,0.039,0.325,-5.337
0.220,0.040,0.325,-5.337
0.257,0.040,0.327,-5.337
0.280,0.038,0.327,-5.337
0.258,0.043,0.326,-5.337
0.267,0.046,0.328,-5.337
0.257,0.042,0.326,-5.337
0.200,0.041,0.327,-5.337
0.192,0.039,0.330,-5.337
0.171,0.044,0.330,-5.337
0.118,0.044,0.330,-5.337
0.141,0.039,0.328,-5.337
0.222,0.038,0.325,-5.337
0.218,0.040,0.326,-5.337
0.174,0.042,0.333,-5.337
0.147,0.039,0.334,-5.337
0.195,0.034,0.330,-5.337
0.253,0.034,0.324,-5.337
0.207,0.038,0.324,-5.337
0.204,0.039,0.326,-5.337
0.253,0.038,0.325,-5.337
0.248,0.038,0.325,-5.337
0.176,0.037,0.325,-5.337
0.196,0.037,0.326,-5.337
0.182,0.040,0.325,-5.337
0.209,0.038,0.324,-5.337
0.220,0.040,0.327,-5.337
0.147,0.043,0.327,-5.337
0.143,0.042,0.328,-5.337
0.194,0.038,0.325,-5.337
0.210,0.041,0.324,-5.337
0.190,0.044,0.322,-5.337
0.202,0.040,0.327,-5.337
0.273,0.038,0.329,-5.337
0.209,0.041,0.328,-5.337
0.156,0.044,0.327,-5.337
0.201,0.041,0.323,-5.337
0.230,0.041,0.322,-5.337
0.169,0.041,0.325,-5.337
0.139,0.037,0.328,-5.337
0.194,0.036,0.331,-5.337
0.250,0.033,0.329,-5.337
0.222,0.034,0.329,-5.337
0.181,0.035,0.330,-5.337
0.223,0.035,0.331,-5.337
0.171,0.043,0.330,-5.337
0.135,0.041,0.327,-5.337
0.167,0.038,0.324,-5.337
0.149,0.040,0.322,-5.337
0.138,0.039,0.327,-5.337
0.183,0.038,0.327,-5.337
0.223,0.033,0.325,-5.337
0.230,0.033,0.325,-5.337
0.227,0.032,0.326,-5.337
0.234,0.030,0.326,-5.337
0.227,0.030,0.328,-5.337
0.240,0.033,0.326,-5.337
0.201,0.038,0.326,-5.337
0.176,0.037,0.328,-5.337
0.242,0.038,0.330,-5.337
0.256,0.036,0.328,-5.337
0.248,0.038,0.329,-5.337
0.200,0.040,0.331,-5.337
0.226,0.035,0.330,-5.337
0.168,0.038,0.326,-5.337
0.123,0.038,0.322,-5.337
0.134,0.040,0.323,-5.337
0.179,0.035,0.327,-5.337
0.228,0.032,0.332,-5.337
0.241,0.038,0.330,-5.337
0.269,0.039,0.328,-5.337
0.280,0.040,0.329,-5.337
0.220,0.041,0.329,-5.337
0.138,0.042,0.326,-5.337
0.193,0.038,0.326,-5.337
0.174,0.037,0.324,-5.337
0.089,0.037,0.323,-5.337
0.070,0.035,0.324,-5.337
0.128,0.035,0.328,-5.337
0.191,0.033,0.328,-5.337
0.164,0.038,0.328,-5.337
0.167,0.037,0.327,-5.337
0.196,0.034,0.326,-5.337
0.210,0.035,0.325,-5.337
0.141,0.037,0.328,-5.337
0.078,0.039,0.329,-5.337
0.098,0.041,0.330,-5.337
0.159,0.042,0.330,-5.337
0.196,0.039,0.327,-5.337
0.210,0.037,0.325,-5.337
0.219,0.034,0.322,-5.337
0.212,0.036,0.321,-5.337
0.244,0.038,0.323,-5.337
0.204,0.038,0.326,-5.337
0.220,0.036,0.322,-5.337
0.248,0.035,0.325,-5.337
0.234,0.033,0.331,-5.337
0.288,0.036,0.333,-5.337
0.211,0.039,0.330,-5.337
0.167,0.034,0.328,-5.337
0.226,0.035,0.326,-5.337
0.313,0.036,0.327,-5.337
0.241,0.040,0.330,-5.337
0.149,0.040,0.329,-5.337
0.191,0.039,0.328,-5.337
0.256,0.037,0.326,-5.337
0.249,0.037,0.325,-5.337
0.191,0.041,0.325,-5.337
0.215,0.039,0.327,-5.337
0.227,0.038,0.328,-5.337
0.154,0.041,0.327,-5.337
0.107,0.044,0.327,-5.337
0.125,0.044,0.327,-5.337
0.153,0.041,0.325,-5.337
0.198,0.041,0.321,-5.337
0.196,0.045,0.322,-5.337
0.188,0.046,0.329,-5.337
0.243,0.043,0.329,-5.337
0.313,0.041,0.323,-5.337
0.277,0.042,0.322,-5.337
0.218,0.044,0.325,-5.337
0.140,0.044,0.326,-5.337
0.158,0.043,0.327,-5.337
0.109,0.043,0.329,-5.337
0.108,0.044,0.328,-5.337
0.240,0.043,0.329,-5.337
0.259,0.045,0.326,-5.337
0.170,0.046,0.323,-5.337
0.116,0.049,0.323,-5.337
0.118,0.047,0.324,-5.337
0.163,0.042,0.326,-5.337
0.231,0.038,0.324,-5.337
0.222,0.041,0.324,-5.337
0.148,0.042,0.324,-5.337
0.177,0.041,0.324,-5.337
0.227,0.040,0.320,-5.337
0.242,0.042,0.322,-5.337
0.240,0.044,0.325,-5.337
0.211,0.048,0.326,-5.337
0.176,0.046,0.326,-5.337
0.165,0.046,0.328,-5.337
0.169,0.047,0.328,-5.337
0.117,0.051,0.326,-5.337
0.122,0.049,0.323,-5.337
0.134,0.053,0.324,-5.337
0.155,0.053,0.327,-5.337
0.193,0.048,0.330,-5.337
0.183,0.048,0.330,-5.337
0.192,0.053,0.326,-5.337
0.166,0.058,0.324,-5.337
0.136,0.055,0.323,-5.337
0.176,0.052,0.326,-5.337
0.190,0.054,0.328,-5.337
0.150,0.058,0.324,-5.337
0.151,0.053,0.323,-5.337
0.227,0.048,0.326,-5.337
0.221,0.048,0.326,-5.337
0.157,0.050,0.324,-5.337
0.209,0.047,0.327,-5.337
0.218,0.053,0.329,-5.337
0.180,0.052,0.330,-5.337
0.124,0.051,0.329,-5.337
0.160,0.052,0.325,-5.337
0.145,0.051,0.322,-5.337
0.165,0.051,0.325,-5.337
0.206,0.049,0.327,-5.337
0.161,0.045,0.326,-5.337
0.147,0.045,0.325,-5.337
0.211,0.049,0.326,-5.337
0.233,0.048,0.327,-5.337
0.203,0.050,0.330,-5.337
0.174,0.049,0.330,-5.337
0.158,0.050,0.328,-5.337
0.115,0.051,0.329,-5.337
0.104,0.053,0.330,-5.337
0.125,0.053,0.328,-5.337
0.141,0.051,0.326,-5.337
0.130,0.051,0.329,-5.337
0.120,0.051,0.331,-5.337
0.145,0.056,0.330,-5.337
0.147,0.056,0.328,-5.337
0.193,0.053,0.324,-5.337
0.182,0.057,0.321,-5.337
0.124,0.055,0.323,-5.337
0.099,0.054,0.327,-5.337
0.110,0.051,0.328,-5.337
0.181,0.048,0.326,-5.337
0.245,0.048,0.329,-5.337
0.211,0.054,0.328,-5.337
0.088,0.055,0.326,-5.337
0.068,0.050,0.324,-5.337
0.112,0.051,0.326,-5.337
0.187,0.053,0.328,-5.337
0.203,0.056,0.331,-5.337
0.209,0.051,0.329,-5.337
0.173,0.050,0.330,-5.337
0.202,0.050,0.329,-5.337
0.268,0.052,0.328,-5.337
0.273,0.053,0.327,-5.337
0.196,0.054,0.330,-5.337
0.173,0.053,0.333,-5.337
0.188,0.053,0.336,-5.337
0.147,0.051,0.333,-5.337
0.121,0.052,0.326,-5.337
0.173,0.050,0.323,-5.337
0.241,0.047,0.325,-5.337
0.221,0.049,0.326,-5.337
0.166,0.051,0.325,-5.337
0.161,0.054,0.327,-5.337
0.143,0.055,0.328,-5.337
0.116,0.054,0.330,-5.337
0.107,0.053,0.329,-5.337
0.200,0.050,0.326,-5.337
0.289,0.049,0.325,-5.337
0.233,0.051,0.328,-5.337
0.133,0.050,0.329,-5.337
0.085,0.050,0.330,-5.337
0.165,0.049,0.327,-5.337
0.232,0.051,0.320,-5.337
0.264,0.050,0.321,-5.337
0.279,0.051,0.328,-5.337
0.178,0.057,0.332,-5.337
0.054,0.058,0.330,-5.337
0.019,0.059,0.327,-5.337
0.092,0.059,0.326,-5.337
0.184,0.055,0.322,-5.337
0.202,0.053,0.322,-5.337
0.192,0.056,0.323,-5.337
0.192,0.056,0.323,-5.337
0.198,0.053,0.327,-5.337
0.250,0.050,0.328,-5.337
0.245,0.054,0.331,-5.337
0.293,0.053,0.326,-5.337
0.271,0.054,0.324,-5.337
0.247,0.055,0.325,-5.337
0.208,0.053,0.331,-5.337
0.129,0.055,0.329,-5.337
0.184,0.052,0.328,-5.337
0.240,0.054,0.325,-5.337
0.282,0.055,0.324,-5.337
0.279,0.054,0.322,-5.337
0.236,0.054,0.320,-5.337
0.252,0.054,0.319,-5.337
0.125,0.061,0.322,-5.337
0.108,0.059,0.327,-5.337
0.184,0.058,0.327,-5.337
0.167,0.057,0.325,-5.337
0.102,0.058,0.324,-5.337
0.110,0.054,0.323,-5.337
0.181,0.050,0.326,-5.337
0.269,0.054,0.328,-5.337
0.249,0.058,0.329,-5.337
0.202,0.057,0.326,-5.337
0.222,0.055,0.324,-5.337
0.248,0.053,0.327,-5.337
0.180,0.055,0.327,-5.337
0.129,0.056,0.324,-5.337
0.147,0.055,0.325,-5.337
0.176,0.058,0.329,-5.337
0.217,0.061,0.330,-5.337
0.177,0.063,0.330,-5.337
0.143,0.062,0.321,-5.337
0.213,0.058,0.318,-5.337
0.247,0.054,0.320,-5.337
0.215,0.058,0.321,-5.337
0.177,0.064,0.318,-5.337
0.154,0.064,0.319,-5.337
0.123,0.063,0.324,-5.337
0.115,0.061,0.330,-5.337
0.142,0.063,0.332,-5.337
0.167,0.059,0.331,-5.337
0.156,0.055,0.328,-5.337
0.195,0.054,0.325,-5.337
0.193,0.061,0.327,-5.337
0.133,0.064,0.326,-5.337
0.178,0.060,0.323,-5.337
0.175,0.059,0.323,-5.337
0.117,0.061,0.325,-5.337
0.079,0.062,0.330,-5.337
0.093,0.063,0.329,-5.337
0.148,0.059,0.322,-5.337
0.275,0.056,0.320,-5.337
0.279,0.056,0.319,-5.337
0.205,0.063,0.327,-5.337
0.157,0.063,0.331,-5.337
0.183,0.064,0.329,-5.337
0.152,0.062,0.324,-5.337
0.149,0.063,0.324,-5.337
0.187,0.062,0.326,-5.337
0.226,0.061,0.327,-5.337
0.216,0.062,0.325,-5.337
0.208,0.061,0.325,-5.337
0.226,0.057,0.322,-5.337
0.215,0.058,0.319,-5.337
0.192,0.059,0.321,-5.337
0.236,0.059,0.327,-5.337
0.212,0.063,0.330,-5.337
0.157,0.062,0.328,-5.337
0.198,0.060,0.323,-5.337
0.186,0.062,0.324,-5.337
0.145,0.065,0.327,-5.337
0.056,0.064,0.326,-5.337
0.066,0.062,0.326,-5.337
0.101,0.064,0.326,-5.337
0.162,0.062,0.328,-5.337
0.239,0.060,0.327,-5.337
0.214,0.063,0.326,-5.337
0.113,0.068,0.323,-5.337
0.142,0.065,0.325,-5.337
0.128,0.061,0.330,-5.337
0.141,0.053,0.330,-5.337
0.190,0.053,0.329,-5.337
0.172,0.056,0.329,-5.337
0.080,0.061,0.326,-5.337
0.101,0.062,0.324,-5.337
0.152,0.060,0.320,-5.337
0.158,0.058,0.320,-5.337
0.117,0.059,0.318,-5.337
0.115,0.056,0.322,-5.337
0.212,0.059,0.328,-5.337
0.268,0.061,0.333,-5.337
0.189,0.062,0.331,-5.337
0.195,0.057,0.323,-5.337
0.194,0.054,0.324,-5.337
0.241,0.052,0.326,-5.337
0.298,0.050,0.329,-5.337
0.241,0.054,0.329,-5.337
0.163,0.054,0.329,-5.337
0.187,0.055,0.324,-5.337
0.213,0.056,0.323,-5.337
0.164,0.056,0.326,-5.337
0.162,0.057,0.328,-5.337
0.204,0.056,0.325,-5.337
0.197,0.056,0.324,-5.337
0.169,0.054,0.326,-5.337
0.138,0.055,0.330,-5.337
0.180,0.055,0.327,-5.337
0.166,0.056,0.322,-5.337
0.210,0.055,0.320,-5.337
0.214,0.055,0.325,-5.337
0.161,0.053,0.332,-5.337
0.224,0.051,0.330,-5.337
0.163,0.057,0.328,-5.337
0.144,0.057,0.326,-5.337
0.199,0.053,0.326,-5.337
0.174,0.053,0.328,-5.337
0.146,0.054,0.327,-5.337
0.209,0.054,0.325,-5.337
0.219,0.058,0.328,-5.337
0.201,0.055,0.329,-5.337
0.197,0.052,0.328,-5.337
0.113,0.053,0.327,-5.337
0.147,0.054,0.329,-5.337
0.211,0.051,0.327,-5.337
0.102,0.054,0.323,-5.337
0.052,0.055,0.323,-5.337
0.102,0.054,0.329,-5.337
0.214,0.053,0.329,-5.337
0.313,0.053,0.326,-5.337
0.329,0.052,0.322,-5.337
0.233,0.053,0.322,-5.337
0.183,0.051,0.329,-5.337
0.241,0.050,0.330,-5.337
0.260,0.052,0.326,-5.337
0.195,0.053,0.322,-5.337
0.190,0.051,0.323,-5.337
0.172,0.049,0.328,-5.337
0.165,0.046,0.331,-5.337
0.164,0.049,0.329,-5.337
0.232,0.047,0.330,-5.337
0.239,0.046,0.331,-5.337
0.171,0.048,0.331,-5.337
0.137,0.051,0.325,-5.337
0.155,0.056,0.322,-5.337
0.117,0.056,0.325,-5.337
0.173,0.053,0.328,-5.337
0.200,0.047,0.327,-5.337
0.243,0.050,0.328,-5.337
0.214,0.054,0.331,-5.337
0.121,0.053,0.331,-5.337
0.141,0.051,0.329,-5.337
0.172,0.054,0.326,-5.337
0.124,0.051,0.322,-5.337
0.112,0.050,0.319,-5.337
0.070,0.053,0.322,-5.337
0.147,0.052,0.326,-5.337
0.242,0.047,0.326,-5.337
0.209,0.048,0.327,-5.337
0.150,0.048,0.328,-5.337
0.152,0.045,0.325,-5.337
0.122,0.045,0.322,-5.337
0.131,0.050,0.325,-5.337
0.179,0.048,0.330,-5.337
0.221,0.047,0.327,-5.337
0.198,0.048,0.323,-5.337
0.181,0.047,0.323,-5.337
0.196,0.045,0.325,-5.337
0.165,0.046,0.324,-5.337
0.123,0.046,0.326,-5.337
0.114,0.048,0.328,-5.337
0.177,0.049,0.331,-5.337
0.246,0.045,0.328,-5.337
0.177,0.046,0.325,-5.337
0.178,0.043,0.321,-5.337
0.211,0.046,0.320,-5.337
0.209,0.042,0.325,-5.337
0.208,0.041,0.329,-5.337
0.177,0.041,0.327,-5.337
0.220,0.042,0.325,-5.337
0.259,0.042,0.326,-5.337
0.176,0.043,0.326,-5.337
0.177,0.043,0.322,-5.337
0.182,0.046,0.323,-5.337
0.163,0.047,0.324,-5.337
0.193,0.048,0.325,-5.337
0.159,0.044,0.325,-5.337
0.076,0.044,0.322,-5.337
0.126,0.043,0.319,-5.337
0.151,0.045,0.324,-5.337
0.129,0.045,0.328,-5.337
0.115,0.047,0.329,-5.337
0.083,0.049,0.328,-5.337
0.121,0.046,0.324,-5.337
0.180,0.044,0.326,-5.337
0.183,0.044,0.327,-5.337
0.133,0.046,0.326,-5.337
0.242,0.044,0.325,-5.337
0.258,0.046,0.323,-5.337
0.180,0.042,0.325,-5.337
0.157,0.043,0.328,-5.337
0.202,0.043,0.325,-5.337
0.208,0.045,0.326,-5.337
0.146,0.046,0.331,-5.337
0.156,0.042,0.334,-5.337
0.235,0.040,0.331,-5.337
0.235,0.043,0.325,-5.337
0.208,0.042,0.324,-5.337
0.193,0.043,0.323,-5.337
0.177,0.041,0.324,-5.337
0.151,0.041,0.325,-5.337
0.150,0.042,0.327,-5.337
0.142,0.038,0.329,-5.337
0.185,0.038,0.330,-5.337
0.166,0.039,0.328,-5.337
0.148,0.040,0.328,-5.337
0.210,0.038,0.326,-5.337
0.177,0.038,0.327,-5.337
0.214,0.035,0.329,-5.337
0.292,0.036,0.332,-5.337
0.232,0.037,0.332,-5.337
0.197,0.038,0.330,-5.337
0.213,0.035,0.329,-5.337
0.155,0.038,0.330,-5.337
0.128,0.039,0.329,-5.337
0.164,0.036,0.329,-5.337
0.180,0.037,0.329,-5.337
0.243,0.037,0.327,-5.337
0.263,0.037,0.328,-5.337
0.155,0.038,0.328,-5.337
0.151,0.038,0.329,-5.337
0.225,0.039,0.330,-5.337
0.237,0.042,0.327,-5.337
0.228,0.041,0.325,-5.337
0.166,0.043,0.326,-5.337
0.173,0.042,0.327,-5.337
0.237,0.040,0.328,-5.337
0.267,0.042,0.327,-5.337
0.316,0.043,0.326,-5.337
0.305,0.041,0.325,-5.337
0.269,0.042,0.328,-5.337
0.276,0.042,0.332,-5.337
0.177,0.049,0.333,-5.337
0.197,0.045,0.328,-5.337
0.249,0.046,0.324,-5.337
0.215,0.044,0.324,-5.337
0.199,0.040,0.328,-5.337
0.216,0.040,0.328,-5.337
0.255,0.041,0.330,-5.337
0.203,0.044,0.332,-5.337
0.237,0.045,0.326,-5.337
0.259,0.042,0.323,-5.337
0.217,0.047,0.325,-5.337
0.175,0.049,0.328,-5.337
0.107,0.046,0.328,-5.337
0.130,0.042,0.327,-5.337
0.161,0.043,0.328,-5.337
0.168,0.043,0.331,-5.337
0.160,0.044,0.331,-5.337
0.163,0.045,0.331,-5.337
0.164,0.042,0.326,-5.337
0.205,0.042,0.323,-5.337
0.220,0.039,0.321,-5.337
0.228,0.041,0.320,-5.337
0.236,0.037,0.325,-5.337
0.235,0.036,0.329,-5.337
0.240,0.035,0.330,-5.337
0.187,0.038,0.329,-5.337
0.140,0.041,0.327,-5.337
0.160,0.042,0.328,-5.337
0.209,0.040,0.326,-5.337
0.284,0.041,0.324,-5.337
0.211,0.044,0.324,-5.337
0.169,0.040,0.328,-5.337
0.165,0.042,0.327,-5.337
0.103,0.041,0.325,-5.337
0.115,0.040,0.323,-5.337
0.217,0.038,0.323,-5.337
0.275,0.039,0.326,-5.337
0.267,0.042,0.326,-5.337
0.265,0.041,0.328,-5.337
0.249,0.042,0.331,-5.337
0.196,0.042,0.335,-5.337
0.113,0.044,0.331,-5.337
0.125,0.045,0.325,-5.337
0.170,0.042,0.324,-5.337
0.188,0.039,0.325,-5.337
0.196,0.037,0.324,-5.337
0.181,0.040,0.324,-5.337
0.165,0.039,0.327,-5.337
0.167,0.041,0.330,-5.337
0.160,0.037,0.331,-5.337
0.187,0.035,0.331,-5.337
0.107,0.037,0.326,-5.337
0.045,0.037,0.324,-5.337
0.096,0.034,0.325,-5.337
0.202,0.034,0.324,-5.337
0.272,0.035,0.325,-5.337
0.289,0.036,0.326,-5.337
0.200,0.034,0.327,-5.337
0.184,0.034,0.323,-5.337
0.194,0.036,0.322,-5.337
0.210,0.039,0.323,-5.337
0.191,0.039,0.326,-5.337
0.218,0.040,0.321,-5.337
0.240,0.038,0.319,-5.337
0.188,0.039,0.323,-5.337
0.147,0.035,0.330,-5.337
0.200,0.036,0.331,-5.337
0.260,0.037,0.330,-5.337
0.198,0.041,0.327,-5.337
0.133,0.042,0.326,-5.337
0.184,0.038,0.325,-5.337
0.248,0.035,0.325,-5.337
0.192,0.033,0.325,-5.337
0.192,0.033,0.325,-5.337
0.218,0.037,0.325,-5.337
0.188,0.036,0.327,-5.337
0.181,0.037,0.328,-5.337
0.125,0.039,0.326,-5.337
0.125,0.037,0.324,-5.337
0.262,0.036,0.324,-5.337
0.305,0.033,0.324,-5.337
0.275,0.036,0.327,-5.337
0.201,0.040,0.328,-5.337
0.177,0.040,0.325,-5.337
0.233,0.038,0.322,-5.337
0.311,0.034,0.323,-5.337
0.316,0.034,0.325,-5.337
0.245,0.034,0.329,-5.337
0.179,0.031,0.333,-5.337
0.175,0.033,0.331,-5.337
0.181,0.038,0.323,-5.337
0.164,0.037,0.319,-5.337
0.156,0.036,0.322,-5.337
0.141,0.035,0.325,-5.337
0.174,0.034,0.326,-5.337
0.229,0.032,0.330,-5.337
0.159,0.035,0.328,-5.337
0.068,0.036,0.326,-5.337
0.141,0.032,0.328,-5.337
0.162,0.030,0.327,-5.337
0.173,0.030,0.327,-5.337
0.135,0.031,0.327,-5.337
0.071,0.036,0.325,-5.337
0.084,0.036,0.324,-5.337
0.154,0.035,0.323,-5.337
0.175,0.036,0.325,-5.337
0.142,0.035,0.324,-5.337
0.163,0.034,0.325,-5.337
0.163,0.039,0.323,-5.337
0.212,0.039,0.327,-5.337
0.257,0.036,0.326,-5.337
0.270,0.038,0.326,-5.337
0.211,0.041,0.327,-5.337
0.195,0.039,0.325,-5.337
0.206,0.037,0.324,-5.337
0.161,0.038,0.324,-5.337
0.135,0.038,0.326,-5.337
0.161,0.039,0.328,-5.337
0.164,0.040,0.329,-5.337
0.091,0.041,0.328,-5.337
0.134,0.038,0.323,-5.337
0.173,0.041,0.324,-5.337
0.192,0.040,0.327,-5.337
0.171,0.043,0.326,-5.337
0.092,0.041,0.320,-5.337
0.154,0.040,0.317,-5.337
0.252,0.041,0.320,-5.337
0.322,0.037,0.326,-5.337
0.237,0.041,0.329,-5.337
0.175,0.042,0.326,-5.337
0.247,0.038,0.326,-5.337
0.288,0.039,0.331,-5.337
0.199,0.043,0.335,-5.337
0.144,0.043,0.333,-5.337
0.195,0.041,0.327,-5.337
0.136,0.044,0.325,-5.337
0.027,0.048,0.328,-5.337
0.038,0.043,0.331,-5.337
0.120,0.041,0.330,-5.337
0.207,0.039,0.323,-5.337
0.309,0.040,0.320,-5.337
0.291,0.042,0.322,-5.337
0.246,0.042,0.323,-5.337
0.234,0.045,0.323,-5.337
0.242,0.048,0.326,-5.337
0.183,0.049,0.330,-5.337
0.094,0.049,0.327,-5.337
0.099,0.049,0.324,-5.337
0.143,0.047,0.323,-5.337
0.131,0.046,0.327,-5.337
0.161,0.045,0.331,-5.337
0.199,0.043,0.331,-5.337
0.225,0.044,0.329,-5.337
0.260,0.043,0.330,-5.337
0.277,0.043,0.328,-5.337
0.232,0.045,0.324,-5.337
0.164,0.045,0.320,-5.337
0.208,0.047,0.323,-5.337
0.202,0.046,0.325,-5.337
0.147,0.046,0.325,-5.337
0.170,0.047,0.321,-5.337
0.194,0.045,0.324,-5.337
0.203,0.044,0.329,-5.337
0.188,0.042,0.333,-5.337
0.215,0.039,0.333,-5.337
0.281,0.037,0.328,-5.337
0.379,0.038,0.325,-5.337
0.371,0.040,0.328,-5.337
0.299,0.043,0.328,-5.337
0.210,0.045,0.325,-5.337
0.200,0.043,0.329,-5.337
0.221,0.042,0.330,-5.337
0.185,0.044,0.326,-5.337
0.159,0.044,0.320,-5.337
0.133,0.047,0.325,-5.337
0.115,0.049,0.330,-5.337
0.152,0.048,0.335,-5.337
0.126,0.044,0.331,-5.337
0.060,0.047,0.328,-5.337
0.048,0.049,0.329,-5.337
0.041,0.049,0.329,-5.337
0.122,0.050,0.328,-5.337
0.172,0.050,0.327,-5.337
0.170,0.049,0.322,-5.337
0.247,0.049,0.322,-5.337
0.263,0.051,0.325,-5.337
0.219,0.053,0.326,-5.337
0.214,0.053,0.327,-5.337
0.174,0.054,0.327,-5.337
0.161,0.053,0.325,-5.337
0.188,0.049,0.325,-5.337
0.221,0.047,0.324,-5.337
0.216,0.052,0.326,-5.337
0.188,0.054,0.330,-5.337
0.144,0.052,0.330,-5.337
0.183,0.048,0.329,-5.337
0.238,0.048,0.323,-5.337
0.225,0.049,0.321,-5.337
0.188,0.054,0.325,-5.337
0.192,0.052,0.328,-5.337
0.254,0.051,0.327,-5.337
0.251,0.054,0.327,-5.337
0.201,0.057,0.324,-5.337
0.187,0.059,0.324,-5.337
0.161,0.054,0.324,-5.337
0.264,0.051,0.323,-5.337
0.289,0.049,0.323,-5.337
0.195,0.049,0.323,-5.337
0.186,0.049,0.326,-5.337
0.167,0.050,0.325,-5.337
0.226,0.047,0.326,-5.337
0.266,0.050,0.328,-5.337
0.225,0.046,0.329,-5.337
0.154,0.050,0.329,-5.337
0.169,0.053,0.323,-5.337
0.192,0.051,0.320,-5.337
0.171,0.049,0.322,-5.337
0.167,0.046,0.324,-5.337
0.202,0.048,0.324,-5.337
0.228,0.051,0.321,-5.337
0.225,0.054,0.321,-5.337
0.226,0.051,0.322,-5.337
0.294,0.049,0.327,-5.337
0.248,0.056,0.328,-5.337
0.173,0.061,0.326,-5.337
0.114,0.058,0.327,-5.337
0.120,0.058,0.328,-5.337
0.062,0.059,0.326,-5.337
0.062,0.054,0.323,-5.337
0.146,0.057,0.320,-5.337
0.123,0.059,0.319,-5.337
0.134,0.059,0.326,-5.337
0.186,0.058,0.334,-5.337
0.192,0.058,0.334,-5.337
0.171,0.058,0.328,-5.337
0.150,0.060,0.322,-5.337
0.081,0.063,0.325,-5.337
0.105,0.059,0.329,-5.337
0.074,0.060,0.332,-5.337
0.095,0.057,0.329,-5.337
0.140,0.054,0.325,-5.337
0.217,0.053,0.324,-5.337
0.249,0.056,0.323,-5.337
0.180,0.055,0.324,-5.337
0.182,0.050,0.323,-5.337
0.227,0.050,0.326,-5.337
0.200,0.054,0.328,-5.337
0.202,0.056,0.331,-5.337
0.189,0.051,0.330,-5.337
0.240,0.048,0.328,-5.337
0.265,0.052,0.328,-5.337
0.199,0.054,0.323,-5.337
0.175,0.053,0.320,-5.337
0.227,0.052,0.320,-5.337
0.272,0.054,0.325,-5.337
0.247,0.056,0.331,-5.337
0.122,0.056,0.333,-5.337
0.098,0.054,0.330,-5.337
0.198,0.052,0.328,-5.337
0.177,0.053,0.326,-5.337
0.127,0.055,0.326,-5.337
0.176,0.048,0.328,-5.337
0.249,0.048,0.329,-5.337
0.229,0.053,0.326,-5.337
0.168,0.054,0.327,-5.337
0.242,0.054,0.327,-5.337
0.260,0.055,0.329,-5.337
0.224,0.057,0.325,-5.337
0.223,0.057,0.327,-5.337
0.211,0.059,0.332,-5.337
0.215,0.059,0.336,-5.337
0.220,0.058,0.332,-5.337
0.215,0.061,0.328,-5.337
0.180,0.062,0.326,-5.337
0.157,0.063,0.324,-5.337
0.206,0.062,0.321,-5.337
0.211,0.065,0.323,-5.337
0.152,0.064,0.325,-5.337
0.125,0.064,0.328,-5.337
0.126,0.065,0.329,-5.337
0.090,0.067,0.329,-5.337
0.131,0.064,0.326,-5.337
0.189,0.059,0.325,-5.337
0.205,0.057,0.323,-5.337
0.230,0.059,0.322,-5.337
0.219,0.060,0.326,-5.337
0.197,0.059,0.331,-5.337
0.191,0.057,0.331,-5.337
0.201,0.061,0.328,-5.337
0.226,0.059,0.329,-5.337
0.122,0.055,0.325,-5.337
0.079,0.056,0.321,-5.337
0.182,0.056,0.321,-5.337
0.259,0.062,0.326,-5.337
0.237,0.061,0.326,-5.337
0.285,0.057,0.327,-5.337
0.342,0.058,0.325,-5.337
0.319,0.062,0.323,-5.337
0.189,0.062,0.325,-5.337
0.133,0.062,0.328,-5.337
0.219,0.059,0.323,-5.337
0.170,0.065,0.320,-5.337
0.125,0.066,0.322,-5.337
0.208,0.063,0.324,-5.337
0.279,0.060,0.322,-5.337
0.249,0.063,0.323,-5.337
0.103,0.064,0.327,-5.337
0.090,0.059,0.330,-5.337
0.220,0.055,0.328,-5.337
0.182,0.061,0.325,-5.337
0.177,0.060,0.326,-5.337
0.208,0.056,0.328,-5.337
0.237,0.057,0.326,-5.337
0.185,0.059,0.320,-5.337
0.224,0.062,0.322,-5.337
0.200,0.063,0.323,-5.337
0.201,0.060,0.324,-5.337
0.230,0.060,0.322,-5.337
0.206,0.059,0.325,-5.337
0.222,0.059,0.330,-5.337
0.292,0.061,0.331,-5.337
0.262,0.061,0.327,-5.337
0.145,0.061,0.324,-5.337
0.126,0.062,0.321,-5.337
0.109,0.062,0.321,-5.337
0.120,0.061,0.322,-5.337
0.160,0.060,0.322,-5.337
0.139,0.062,0.322,-5.337
0.117,0.063,0.324,-5.337
0.110,0.061,0.330,-5.337
0.184,0.059,0.334,-5.337
0.250,0.058,0.330,-5.337
0.178,0.065,0.321,-5.337
0.092,0.071,0.320,-5.337
0.160,0.068,0.322,-5.337
0.204,0.067,0.324,-5.337
0.232,0.067,0.327,-5.337
0.180,0.067,0.327,-5.337
0.128,0.067,0.324,-5.337
0.189,0.064,0.323,-5.337
0.226,0.068,0.320,-5.337
0.132,0.070,0.320,-5.337
0.142,0.066,0.319,-5.337
0.277,0.064,0.318,-5.337
0.333,0.061,0.318,-5.337
0.196,0.065,0.323,-5.337
0.096,0.065,0.328,-5.337
0.159,0.062,0.331,-5.337
0.217,0.064,0.334,-5.337
0.205,0.066,0.334,-5.337
0.190,0.064,0.329,-5.337
0.205,0.059,0.324,-5.337
0.183,0.058,0.320,-5.337
0.163,0.061,0.319,-5.337
0.148,0.061,0.319,-5.337
0.210,0.062,0.322,-5.337
0.269,0.063,0.326,-5.337
0.296,0.060,0.326,-5.337
0.282,0.058,0.326,-5.337
0.234,0.061,0.323,-5.337
0.178,0.062,0.320,-5.337
0.180,0.058,0.320,-5.337
0.233,0.060,0.325,-5.337
0.236,0.059,0.324,-5.337
0.195,0.057,0.320,-5.337
0.131,0.057,0.318,-5.337
0.120,0.062,0.322,-5.337
0.166,0.062,0.327,-5.337
0.249,0.061,0.332,-5.337
0.255,0.061,0.330,-5.337
0.199,0.063,0.326,-5.337
0.084,0.068,0.325,-5.337
0.044,0.066,0.327,-5.337
0.075,0.063,0.328,-5.337
0.123,0.062,0.324,-5.337
0.191,0.060,0.321,-5.337
0.195,0.064,0.323,-5.337
0.182,0.058,0.324,-5.337
0.160,0.056,0.321,-5.337
0.172,0.056,0.322,-5.337
0.242,0.055,0.323,-5.337
0.308,0.057,0.324,-5.337
0.310,0.054,0.323,-5.337
0.209,0.057,0.321,-5.337
0.161,0.057,0.321,-5.337
0.157,0.058,0.325,-5.337
0.129,0.058,0.324,-5.337
0.125,0.057,0.321,-5.337
0.154,0.055,0.321,-5.337
0.177,0.050,0.325,-5.337
0.246,0.046,0.329,-5.337
0.316,0.046,0.327,-5.337
0.298,0.049,0.325,-5.337
0.217,0.048,0.324,-5.337
0.172,0.048,0.322,-5.337
0.142,0.052,0.323,-5.337
0.225,0.051,0.326,-5.337
0.292,0.050,0.328,-5.337
0.247,0.049,0.326,-5.337
0.247,0.048,0.321,-5.337
0.188,0.050,0.319,-5.337
0.117,0.054,0.322,-5.337
0.097,0.053,0.327,-5.337
0.165,0.053,0.326,-5.337
0.139,0.052,0.326,-5.337
0.123,0.048,0.323,-5.337
0.139,0.049,0.324,-5.337
0.126,0.055,0.322,-5.337
0.137,0.056,0.323,-5.337
0.189,0.051,0.323,-5.337
0.176,0.054,0.324,-5.337
0.248,0.053,0.327,-5.337
0.249,0.051,0.328,-5.337
0.223,0.049,0.328,-5.337
0.235,0.054,0.328,-5.337
0.147,0.055,0.326,-5.337
0.194,0.054,0.323,-5.337
0.344,0.051,0.319,-5.337
0.338,0.054,0.321,-5.337
0.266,0.058,0.326,-5.337
0.261,0.052,0.330,-5.337
0.280,0.050,0.331,-5.337
0.197,0.049,0.332,-5.337
0.192,0.050,0.331,-5.337
0.185,0.052,0.324,-5.337
0.175,0.052,0.321,-5.337
0.173,0.049,0.321,-5.337
0.232,0.049,0.327,-5.337
0.227,0.049,0.327,-5.337
0.241,0.046,0.326,-5.337
0.230,0.048,0.325,-5.337
0.208,0.048,0.327,-5.337
0.169,0.046,0.327,-5.337
0.156,0.042,0.328,-5.337
0.232,0.045,0.326,-5.337
0.226,0.048,0.326,-5.337
0.272,0.044,0.326,-5.337
0.333,0.041,0.328,-5.337
0.273,0.043,0.328,-5.337
0.233,0.044,0.326,-5.337
0.253,0.044,0.325,-5.337
0.193,0.045,0.327,-5.337
0.190,0.042,0.328,-5.337
0.229,0.042,0.329,-5.337
0.133,0.046,0.328,-5.337
0.150,0.047,0.324,-5.337
0.202,0.047,0.320,-5.337
0.197,0.048,0.319,-5.337
0.181,0.046,0.324,-5.337
0.200,0.048,0.327,-5.337
0.205,0.048,0.328,-5.337
0.183,0.046,0.328,-5.337
0.197,0.047,0.329,-5.337
0.233,0.043,0.327,-5.337
0.267,0.046,0.324,-5.337
0.234,0.048,0.319,-5.337
0.187,0.047,0.322,-5.337
0.144,0.049,0.329,-5.337
0.182,0.048,0.329,-5.337
0.251,0.045,0.321,-5.337
0.216,0.047,0.318,-5.337
0.110,0.047,0.323,-5.337
0.172,0.044,0.328,-5.337
0.218,0.042,0.325,-5.337
0.200,0.041,0.326,-5.337
0.231,0.040,0.327,-5.337
0.330,0.044,0.326,-5.337
0.285,0.044,0.327,-5.337
0.252,0.043,0.325,-5.337
0.237,0.044,0.323,-5.337
0.197,0.047,0.323,-5.337
0.163,0.048,0.323,-5.337
0.189,0.047,0.323,-5.337
0.176,0.046,0.324,-5.337
0.159,0.047,0.322,-5.337
0.183,0.045,0.326,-5.337
0.231,0.044,0.326,-5.337
0.225,0.043,0.325,-5.337
0.121,0.043,0.324,-5.337
0.093,0.043,0.323,-5.337
0.175,0.039,0.325,-5.337
0.227,0.041,0.327,-5.337
0.189,0.041,0.324,-5.337
0.190,0.042,0.324,-5.337
0.213,0.042,0.322,-5.337
0.208,0.045,0.324,-5.337
0.225,0.041,0.328,-5.337
0.223,0.039,0.324,-5.337
0.172,0.040,0.318,-5.337
0.179,0.044,0.320,-5.337
0.243,0.041,0.324,-5.337
0.211,0.041,0.325,-5.337
0.194,0.043,0.327,-5.337
0.186,0.042,0.328,-5.337
0.124,0.042,0.329,-5.337
0.181,0.041,0.328,-5.337
0.287,0.042,0.326,-5.337
0.295,0.043,0.322,-5.337
0.238,0.044,0.322,-5.337
0.158,0.044,0.323,-5.337
0.177,0.040,0.321,-5.337
0.175,0.041,0.320,-5.337
0.192,0.039,0.324,-5.337
0.232,0.040,0.326,-5.337
0.223,0.044,0.327,-5.337
0.211,0.041,0.327,-5.337
0.214,0.039,0.326,-5.337
0.242,0.038,0.328,-5.337
0.239,0.038,0.331,-5.337
0.241,0.036,0.332,-5.337
0.283,0.037,0.328,-5.337
0.240,0.042,0.324,-5.337
0.151,0.043,0.323,-5.337
0.139,0.040,0.326,-5.337
0.199,0.038,0.327,-5.337
0.218,0.039,0.329,-5.337
0.186,0.038,0.328,-5.337
0.196,0.036,0.325,-5.337
0.244,0.035,0.321,-5.337
0.226,0.038,0.323,-5.337
0.252,0.039,0.327,-5.337
0.262,0.042,0.330,-5.337
0.231,0.041,0.328,-5.337
0.202,0.041,0.325,-5.337
0.200,0.039,0.326,-5.337
0.160,0.042,0.330,-5.337
0.147,0.041,0.332,-5.337
0.132,0.038,0.329,-5.337
0.187,0.036,0.326,-5.337
0.231,0.039,0.329,-5.337
0.261,0.039,0.330,-5.337
0.197,0.040,0.328,-5.337
0.115,0.040,0.324,-5.337
0.148,0.041,0.322,-5.337
0.168,0.043,0.320,-5.337
0.175,0.042,0.322,-5.337
0.228,0.039,0.325,-5.337
0.244,0.038,0.329,-5.337
0.213,0.043,0.331,-5.337
0.197,0.043,0.327,-5.337
0.230,0.040,0.324,-5.337
0.315,0.035,0.323,-5.337
0.287,0.042,0.325,-5.337
0.141,0.043,0.326,-5.337
0.064,0.045,0.329,-5.337
0.083,0.045,0.332,-5.337
0.129,0.042,0.331,-5.337
0.198,0.040,0.326,-5.337
0.189,0.041,0.324,-5.337
0.188,0.043,0.325,-5.337
0.254,0.038,0.323,-5.337
0.241,0.039,0.320,-5.337
0.181,0.041,0.323,-5.337
0.188,0.038,0.328,-5.337
0.217,0.039,0.332,-5.337
0.235,0.039,0.333,-5.337
0.225,0.039,0.331,-5.337
0.240,0.036,0.325,-5.337
0.239,0.036,0.323,-5.337
0.194,0.038,0.322,-5.337
0.091,0.041,0.320,-5.337
0.094,0.037,0.318,-5.337
0.129,0.038,0.318,-5.337
0.147,0.039,0.324,-5.337
0.235,0.038,0.326,-5.337
0.272,0.039,0.330,-5.337
0.289,0.041,0.329,-5.337
0.326,0.039,0.328,-5.337
0.319,0.037,0.326,-5.337
0.271,0.039,0.325,-5.337
0.206,0.040,0.324,-5.337
0.234,0.038,0.325,-5.337
0.313,0.033,0.326,-5.337
0.309,0.036,0.325,-5.337
0.254,0.037,0.325,-5.337
0.218,0.039,0.326,-5.337
0.204,0.040,0.325,-5.337
0.208,0.042,0.323,-5.337
0.181,0.042,0.323,-5.337
0.209,0.040,0.324,-5.337
0.270,0.044,0.324,-5.337
0.236,0.046,0.328,-5.337
0.201,0.042,0.326,-5.337
0.258,0.040,0.322,-5.337
0.299,0.040,0.321,-5.337
0.222,0.042,0.323,-5.337
0.213,0.039,0.331,-5.337
0.220,0.039,0.335,-5.337
0.222,0.038,0.331,-5.337
0.200,0.041,0.322,-5.337
0.213,0.042,0.321,-5.337
0.204,0.043,0.320,-5.337
0.122,0.043,0.322,-5.337
0.036,0.042,0.322,-5.337
0.028,0.042,0.322,-5.337
0.136,0.040,0.321,-5.337
0.236,0.036,0.320,-5.337
0.253,0.035,0.319,-5.337
0.199,0.038,0.323,-5.337
0.195,0.040,0.330,-5.337
0.217,0.036,0.333,-5.337
0.227,0.035,0.332,-5.337
0.225,0.037,0.327,-5.337
0.186,0.037,0.322,-5.337
0.156,0.034,0.322,-5.337
0.092,0.036,0.321,-5.337
0.075,0.041,0.321,-5.337
0.171,0.040,0.322,-5.337
0.198,0.041,0.322,-5.337
0.242,0.036,0.325,-5.337
0.296,0.033,0.327,-5.337
0.288,0.037,0.324,-5.337
0.236,0.037,0.322,-5.337
0.246,0.036,0.327,-5.337
0.236,0.033,0.328,-5.337
0.259,0.029,0.327,-5.337
0.290,0.032,0.324,-5.337
0.284,0.033,0.323,-5.337
0.264,0.032,0.325,-5.337
0.147,0.035,0.325,-5.337
0.086,0.032,0.323,-5.337
0.153,0.033,0.319,-5.337
0.207,0.038,0.316,-5.337
0.142,0.042,0.317,-5.337
0.119,0.037,0.322,-5.337
0.136,0.036,0.329,-5.337
0.155,0.036,0.331,-5.337
0.143,0.041,0.330,-5.337
0.163,0.043,0.326,-5.337
0.192,0.041,0.322,-5.337
0.218,0.040,0.320,-5.337
0.182,0.040,0.323,-5.337
0.149,0.040,0.325,-5.337
0.236,0.039,0.322,-5.337
0.298,0.039,0.322,-5.337
0.353,0.041,0.326,-5.337
0.280,0.043,0.330,-5.337
0.130,0.042,0.325,-5.337
0.122,0.039,0.320,-5.337
0.245,0.037,0.317,-5.337
0.288,0.041,0.318,-5.337
0.265,0.042,0.321,-5.337
0.245,0.045,0.325,-5.337
0.206,0.047,0.323,-5.337
0.206,0.047,0.320,-5.337
0.174,0.046,0.323,-5.337
0.081,0.049,0.328,-5.337
0.085,0.045,0.327,-5.337
0.239,0.044,0.324,-5.337
0.276,0.047,0.321,-5.337
0.261,0.046,0.321,-5.337
0.203,0.044,0.326,-5.337
0.220,0.044,0.324,-5.337
0.241,0.043,0.320,-5.337
0.162,0.045,0.319,-5.337
0.160,0.040,0.323,-5.337
0.182,0.040,0.324,-5.337
0.179,0.041,0.327,-5.337
0.241,0.042,0.322,-5.337
0.216,0.042,0.321,-5.337
0.207,0.041,0.323,-5.337
0.292,0.042,0.326,-5.337
0.274,0.043,0.326,-5.337
0.170,0.046,0.326,-5.337
0.151,0.045,0.324,-5.337
0.124,0.045,0.323,-5.337
0.113,0.045,0.320,-5.337
0.174,0.042,0.322,-5.337
0.204,0.043,0.326,-5.337
0.181,0.045,0.327,-5.337
0.168,0.047,0.327,-5.337
0.190,0.048,0.326,-5.337
0.172,0.048,0.326,-5.337
0.159,0.048,0.325,-5.337
0.214,0.047,0.323,-5.337
0.208,0.047,0.321,-5.337
0.120,0.049,0.322,-5.337
0.110,0.048,0.325,-5.337
0.180,0.046,0.321,-5.337
0.216,0.044,0.319,-5.337
0.185,0.044,0.321,-5.337
0.196,0.042,0.323,-5.337
0.182,0.050,0.328,-5.337
0.177,0.049,0.328,-5.337
0.202,0.047,0.326,-5.337
0.182,0.046,0.319,-5.337
0.203,0.043,0.318,-5.337
0.271,0.042,0.321,-5.337
0.256,0.042,0.324,-5.337
0.207,0.043,0.326,-5.337
0.211,0.042,0.331,-5.337
0.136,0.050,0.331,-5.337
0.084,0.053,0.326,-5.337
0.141,0.052,0.323,-5.337
0.179,0.051,0.322,-5.337
0.198,0.051,0.321,-5.337
0.206,0.053,0.318,-5.337
0.231,0.052,0.321,-5.337
0.219,0.050,0.323,-5.337
0.174,0.050,0.324,-5.337
0.151,0.046,0.326,-5.337
0.171,0.046,0.328,-5.337
0.148,0.051,0.327,-5.337
0.117,0.049,0.324,-5.337
0.164,0.049,0.321,-5.337
0.193,0.050,0.323,-5.337
0.202,0.053,0.325,-5.337
0.175,0.054,0.328,-5.337
0.222,0.047,0.325,-5.337
0.276,0.046,0.321,-5.337
0.237,0.049,0.322,-5.337
0.179,0.051,0.325,-5.337
0.182,0.050,0.328,-5.337
0.246,0.050,0.326,-5.337
0.328,0.049,0.322,-5.337
0.354,0.052,0.321,-5.337
0.237,0.052,0.323,-5.337
0.165,0.051,0.327,-5.337
0.114,0.055,0.326,-5.337
0.098,0.057,0.324,-5.337
0.121,0.053,0.324,-5.337
0.113,0.052,0.323,-5.337
0.178,0.051,0.326,-5.337
0.225,0.051,0.325,-5.337
0.215,0.051,0.325,-5.337
0.203,0.049,0.326,-5.337
0.168,0.048,0.324,-5.337
0.229,0.047,0.321,-5.337
0.211,0.054,0.324,-5.337
0.180,0.054,0.325,-5.337
0.224,0.053,0.324,-5.337
0.239,0.048,0.323,-5.337
0.253,0.045,0.324,-5.337
0.167,0.048,0.323,-5.337
0.169,0.049,0.322,-5.337
0.300,0.049,0.323,-5.337
0.295,0.052,0.325,-5.337
0.240,0.048,0.327,-5.337
0.196,0.053,0.327,-5.337
0.152,0.054,0.325,-5.337
0.167,0.049,0.324,-5.337
0.148,0.051,0.325,-5.337
0.136,0.050,0.325,-5.337
0.176,0.051,0.320,-5.337
0.218,0.053,0.320,-5.337
0.170,0.052,0.322,-5.337
0.096,0.050,0.322,-5.337
0.068,0.051,0.320,-5.337
0.057,0.053,0.319,-5.337
0.084,0.053,0.321,-5.337
0.164,0.052,0.325,-5.337
0.201,0.052,0.332,-5.337
0.152,0.053,0.328,-5.337
0.131,0.052,0.320,-5.337
0.174,0.052,0.317,-5.337
0.191,0.055,0.319,-5.337
0.157,0.055,0.325,-5.337
0.068,0.057,0.327,-5.337
0.086,0.058,0.323,-5.337
0.188,0.057,0.321,-5.337
0.245,0.050,0.322,-5.337
0.280,0.050,0.324,-5.337
0.351,0.050,0.321,-5.337
0.295,0.053,0.322,-5.337
0.205,0.054,0.325,-5.337
0.166,0.054,0.328,-5.337
0.161,0.056,0.331,-5.337
0.199,0.054,0.329,-5.337
0.272,0.055,0.328,-5.337
0.297,0.052,0.324,-5.337
0.255,0.052,0.319,-5.337
0.227,0.055,0.317,-5.337
0.218,0.059,0.320,-5.337
0.215,0.060,0.320,-5.337
0.181,0.056,0.323,-5.337
0.212,0.055,0.326,-5.337
0.213,0.056,0.329,-5.337
0.163,0.058,0.329,-5.337
0.089,0.059,0.326,-5.337
0.126,0.058,0.322,-5.337
0.185,0.055,0.322,-5.337
0.156,0.055,0.325,-5.337
0.067,0.057,0.327,-5.337
0.063,0.058,0.325,-5.337
0.106,0.058,0.323,-5.337
0.126,0.057,0.322,-5.337
0.223,0.053,0.321,-5.337
0.265,0.056,0.322,-5.337
0.194,0.059,0.325,-5.337
0.145,0.056,0.326,-5.337
0.202,0.051,0.326,-5.337
0.266,0.050,0.328,-5.337
0.217,0.052,0.331,-5.337
0.193,0.053,0.332,-5.337
0.204,0.052,0.327,-5.337
0.244,0.052,0.324,-5.337
0.282,0.052,0.327,-5.337
0.264,0.057,0.329,-5.337
0.184,0.054,0.325,-5.337
0.170,0.056,0.323,-5.337
0.209,0.060,0.325,-5.337
0.217,0.060,0.325,-5.337
0.210,0.058,0.326,-5.337
0.205,0.059,0.325,-5.337
0.202,0.065,0.324,-5.337
0.202,0.066,0.325,-5.337
0.214,0.063,0.324,-5.337
0.216,0.064,0.327,-5.337
0.225,0.064,0.327,-5.337
0.221,0.065,0.324,-5.337
0.220,0.063,0.319,-5.337
0.212,0.061,0.325,-5.337
0.178,0.060,0.330,-5.337
0.189,0.060,0.333,-5.337
0.228,0.059,0.332,-5.337
0.270,0.059,0.325,-5.337
0.218,0.060,0.320,-5.337
0.120,0.060,0.318,-5.337
0.139,0.056,0.322,-5.337
0.244,0.052,0.322,-5.337
0.186,0.055,0.323,-5.337
0.140,0.058,0.325,-5.337
0.164,0.058,0.326,-5.337
0.167,0.062,0.326,-5.337
0.136,0.064,0.328,-5.337
0.179,0.062,0.330,-5.337
0.224,0.062,0.329,-5.337
0.190,0.064,0.322,-5.337
0.183,0.062,0.320,-5.337
0.230,0.058,0.322,-5.337
0.255,0.063,0.327,-5.337
0.226,0.061,0.327,-5.337
0.216,0.057,0.323,-5.337
0.208,0.055,0.322,-5.337
0.141,0.057,0.324,-5.337
0.169,0.061,0.328,-5.337
0.208,0.059,0.329,-5.337
0.203,0.061,0.327,-5.337
0.160,0.062,0.322,-5.337
0.170,0.061,0.321,-5.337
0.179,0.061,0.321,-5.337
0.226,0.060,0.324,-5.337
0.230,0.058,0.325,-5.337
0.232,0.057,0.325,-5.337
0.275,0.059,0.327,-5.337
0.288,0.058,0.326,-5.337
0.205,0.059,0.320,-5.337
0.118,0.056,0.320,-5.337
0.144,0.054,0.326,-5.337
0.118,0.062,0.329,-5.337
0.091,0.058,0.324,-5.337
0.125,0.056,0.322,-5.337
0.102,0.058,0.322,-5.337
0.087,0.058,0.322,-5.337
0.130,0.057,0.322,-5.337
0.185,0.059,0.323,-5.337
0.198,0.060,0.324,-5.337
0.207,0.056,0.325,-5.337
0.192,0.056,0.324,-5.337
0.165,0.059,0.317,-5.337
0.138,0.061,0.319,-5.337
0.187,0.059,0.326,-5.337
0.224,0.056,0.328,-5.337
0.217,0.055,0.325,-5.337
0.175,0.057,0.322,-5.337
0.169,0.060,0.319,-5.337
0.197,0.058,0.319,-5.337
0.218,0.056,0.321,-5.337
0.205,0.055,0.325,-5.337
0.175,0.054,0.323,-5.337
0.186,0.056,0.324,-5.337
0.175,0.055,0.325,-5.337
0.167,0.055,0.326,-5.337
0.187,0.051,0.325,-5.337
0.193,0.052,0.325,-5.337
0.193,0.054,0.323,-5.337
0.269,0.051,0.321,-5.337
0.214,0.052,0.324,-5.337
0.168,0.053,0.325,-5.337
0.184,0.055,0.325,-5.337
0.244,0.054,0.324,-5.337
0.192,0.051,0.324,-5.337
0.139,0.050,0.326,-5.337
0.154,0.050,0.324,-5.337
0.198,0.050,0.318,-5.337
0.247,0.049,0.316,-5.337
0.232,0.050,0.317,-5.337
0.226,0.051,0.323,-5.337
0.246,0.049,0.326,-5.337
0.195,0.049,0.327,-5.337
0.171,0.047,0.324,-5.337
0.235,0.046,0.325,-5.337
0.244,0.046,0.327,-5.337
0.178,0.047,0.325,-5.337
0.178,0.043,0.320,-5.337
0.179,0.044,0.320,-5.337
0.119,0.046,0.324,-5.337
0.211,0.046,0.326,-5.337
0.220,0.044,0.323,-5.337
0.214,0.044,0.322,-5.337
0.170,0.046,0.324,-5.337
0.076,0.050,0.327,-5.337
0.117,0.049,0.327,-5.337
0.244,0.048,0.326,-5.337
0.194,0.048,0.324,-5.337
0.133,0.050,0.321,-5.337
0.134,0.049,0.316,-5.337
0.153,0.052,0.317,-5.337
0.123,0.052,0.329,-5.337
0.194,0.051,0.332,-5.337
0.242,0.053,0.329,-5.337
0.268,0.053,0.321,-5.337
0.299,0.046,0.319,-5.337
0.284,0.045,0.321,-5.337
0.255,0.044,0.323,-5.337
0.253,0.041,0.323,-5.337
0.255,0.046,0.318,-5.337
0.149,0.048,0.316,-5.337
0.050,0.052,0.317,-5.337
0.095,0.047,0.321,-5.337
0.160,0.044,0.325,-5.337
0.205,0.043,0.326,-5.337
0.218,0.044,0.327,-5.337
0.158,0.043,0.328,-5.337
0.187,0.043,0.326,-5.337
0.204,0.044,0.323,-5.337
0.192,0.044,0.320,-5.337
0.189,0.043,0.322,-5.337
0.237,0.041,0.326,-5.337
0.281,0.043,0.329,-5.337
0.212,0.042,0.325,-5.337
0.162,0.039,0.323,-5.337
0.157,0.042,0.322,-5.337
0.180,0.045,0.323,-5.337
0.192,0.045,0.321,-5.337
0.221,0.046,0.321,-5.337
0.226,0.045,0.323,-5.337
0.151,0.047,0.321,-5.337
0.178,0.046,0.321,-5.337
0.158,0.048,0.319,-5.337
0.103,0.047,0.321,-5.337
0.146,0.049,0.324,-5.337
0.258,0.047,0.322,-5.337
0.255,0.046,0.320,-5.337
0.186,0.043,0.319,-5.337
0.208,0.040,0.317,-5.337
0.264,0.039,0.320,-5.337
0.242,0.042,0.325,-5.337
0.282,0.042,0.329,-5.337
0.243,0.041,0.325,-5.337
0.205,0.042,0.325,-5.337
0.251,0.043,0.326,-5.337
0.225,0.044,0.328,-5.337
0.133,0.042,0.325,-5.337
0.161,0.042,0.319,-5.337
0.174,0.040,0.318,-5.337
0.221,0.039,0.323,-5.337
0.211,0.039,0.326,-5.337
0.156,0.041,0.326,-5.337
0.202,0.042,0.324,-5.337
0.202,0.042,0.322,-5.337
0.148,0.040,0.323,-5.337
0.086,0.042,0.326,-5.337
0.151,0.038,0.327,-5.337
0.227,0.040,0.327,-5.337
0.196,0.041,0.327,-5.337
0.170,0.040,0.322,-5.337
0.182,0.040,0.317,-5.337
0.230,0.040,0.318,-5.337
0.278,0.038,0.324,-5.337
0.296,0.036,0.326,-5.337
0.266,0.039,0.323,-5.337
0.227,0.040,0.323,-5.337
0.226,0.041,0.325,-5.337
0.171,0.045,0.324,-5.337
0.114,0.043,0.323,-5.337
0.112,0.038,0.320,-5.337
0.143,0.037,0.324,-5.337
0.241,0.037,0.328,-5.337
0.298,0.040,0.330,-5.337
0.267,0.041,0.325,-5.337
0.232,0.041,0.324,-5.337
0.154,0.040,0.325,-5.337
0.118,0.042,0.326,-5.337
0.173,0.040,0.324,-5.337
0.181,0.040,0.323,-5.337
0.211,0.036,0.321,-5.337
0.215,0.035,0.323,-5.337
0.217,0.036,0.325,-5.337
0.206,0.034,0.325,-5.337
0.277,0.033,0.326,-5.337
0.265,0.033,0.325,-5.337
0.272,0.033,0.323,-5.337
0.279,0.038,0.324,-5.337
0.229,0.040,0.325,-5.337
0.149,0.040,0.327,-5.337
0.190,0.037,0.326,-5.337
0.243,0.033,0.325,-5.337
0.208,0.032,0.326,-5.337
0.243,0.036,0.329,-5.337
0.212,0.036,0.331,-5.337
0.220,0.032,0.326,-5.337
0.254,0.030,0.329,-5.337
0.321,0.034,0.326,-5.337
0.219,0.038,0.321,-5.337
0.152,0.036,0.321,-5.337
0.196,0.034,0.323,-5.337
0.207,0.033,0.320,-5.337
0.194,0.035,0.321,-5.337
0.174,0.032,0.326,-5.337
0.194,0.029,0.330,-5.337
0.237,0.029,0.327,-5.337
0.177,0.032,0.321,-5.337
0.196,0.032,0.320,-5.337
0.214,0.035,0.323,-5.337
0.234,0.034,0.324,-5.337
0.191,0.035,0.327,-5.337
0.132,0.035,0.327,-5.337
0.078,0.040,0.323,-5.337
0.062,0.041,0.320,-5.337
0.133,0.035,0.323,-5.337
0.176,0.031,0.324,-5.337
0.232,0.033,0.319,-5.337
0.209,0.040,0.317,-5.337
0.188,0.039,0.320,-5.337
0.186,0.036,0.326,-5.337
0.169,0.035,0.328,-5.337
0.189,0.034,0.328,-5.337
0.169,0.034,0.326,-5.337
0.135,0.032,0.323,-5.337
0.124,0.032,0.319,-5.337
0.189,0.035,0.318,-5.337
0.262,0.033,0.325,-5.337
0.282,0.033,0.334,-5.337
0.284,0.032,0.332,-5.337
0.192,0.035,0.325,-5.337
0.156,0.034,0.319,-5.337
0.221,0.036,0.324,-5.337
0.239,0.034,0.324,-5.337
0.240,0.030,0.320,-5.337
0.227,0.033,0.321,-5.337
0.199,0.035,0.325,-5.337
0.230,0.034,0.328,-5.337
0.245,0.032,0.325,-5.337
0.208,0.033,0.321,-5.337
0.193,0.031,0.323,-5.337
0.206,0.032,0.329,-5.337
0.177,0.036,0.328,-5.337
0.170,0.035,0.324,-5.337
0.118,0.040,0.321,-5.337
0.150,0.039,0.322,-5.337
0.225,0.032,0.322,-5.337
0.244,0.034,0.322,-5.337
0.196,0.034,0.326,-5.337
0.188,0.035,0.331,-5.337
0.257,0.031,0.330,-5.337
0.268,0.032,0.325,-5.337
0.164,0.032,0.323,-5.337
0.156,0.032,0.325,-5.337
0.212,0.038,0.328,-5.337
0.147,0.036,0.326,-5.337
0.137,0.031,0.322,-5.337
0.120,0.030,0.323,-5.337
0.107,0.032,0.323,-5.337
0.156,0.030,0.323,-5.337
0.268,0.027,0.324,-5.337
0.292,0.025,0.328,-5.337
0.283,0.025,0.330,-5.337
0.271,0.028,0.330,-5.337
0.159,0.033,0.331,-5.337
0.146,0.030,0.331,-5.337
0.224,0.026,0.329,-5.337
0.266,0.024,0.327,-5.337
0.231,0.029,0.327,-5.337
0.273,0.029,0.328,-5.337
0.292,0.031,0.325,-5.337
0.298,0.029,0.321,-5.337
0.309,0.033,0.322,-5.337
0.322,0.031,0.325,-5.337
0.323,0.027,0.326,-5.337
0.299,0.026,0.328,-5.337
0.299,0.029,0.328,-5.337
0.178,0.033,0.324,-5.337
0.162,0.035,0.322,-5.337
0.185,0.035,0.326,-5.337
0.229,0.035,0.329,-5.337
0.232,0.036,0.325,-5.337
0.204,0.035,0.323,-5.337
0.243,0.032,0.324,-5.337
0.156,0.033,0.326,-5.337
0.119,0.035,0.327,-5.337
0.178,0.036,0.326,-5.337
0.193,0.034,0.327,-5.337
0.174,0.032,0.328,-5.337
0.194,0.031,0.327,-5.337
0.274,0.028,0.324,-5.337
0.318,0.029,0.323,-5.337
0.285,0.028,0.326,-5.337
0.246,0.024,0.326,-5.337
0.215,0.028,0.322,-5.337
0.217,0.033,0.320,-5.337
0.224,0.033,0.321,-5.337
0.178,0.031,0.321,-5.337
0.140,0.033,0.325,-5.337
0.181,0.031,0.329,-5.337
0.241,0.029,0.328,-5.337
0.164,0.029,0.327,-5.337
0.127,0.026,0.324,-5.337
0.232,0.026,0.321,-5.337
0.355,0.028,0.325,-5.337
0.309,0.028,0.329,-5.337
0.271,0.028,0.328,-5.337
0.203,0.028,0.325,-5.337
0.199,0.027,0.325,-5.337
0.252,0.024,0.325,-5.337
0.253,0.033,0.328,-5.337
0.243,0.035,0.323,-5.337
0.236,0.034,0.324,-5.337
0.234,0.033,0.324,-5.337
0.218,0.033,0.326,-5.337
0.228,0.031,0.324,-5.337
0.170,0.031,0.322,-5.337
0.165,0.030,0.321,-5.337
0.210,0.030,0.322,-5.337
0.223,0.031,0.324,-5.337
0.186,0.036,0.324,-5.337
0.109,0.036,0.323,-5.337
0.117,0.033,0.325,-5.337
0.176,0.030,0.328,-5.337
0.170,0.028,0.328,-5.337
0.138,0.027,0.324,-5.337
0.114,0.028,0.322,-5.337
0.214,0.026,0.323,-5.337
0.287,0.025,0.322,-5.337
0.276,0.028,0.322,-5.337
0.203,0.032,0.321,-5.337
0.154,0.030,0.321,-5.337
0.179,0.030,0.322,-5.337
0.158,0.032,0.323,-5.337
0.193,0.033,0.324,-5.337
0.182,0.035,0.325,-5.337
0.204,0.033,0.322,-5.337
0.259,0.035,0.325,-5.337
0.202,0.036,0.324,-5.337
0.112,0.039,0.321,-5.337
0.057,0.040,0.320,-5.337
0.064,0.043,0.324,-5.337
0.112,0.038,0.323,-5.337
0.147,0.039,0.322,-5.337
0.145,0.038,0.323,-5.337
0.222,0.033,0.323,-5.337
0.300,0.034,0.322,-5.337
0.281,0.036,0.321,-5.337
0.254,0.034,0.321,-5.337
0.221,0.037,0.321,-5.337
0.152,0.038,0.319,-5.337
0.114,0.041,0.323,-5.337
0.056,0.040,0.326,-5.337
0.106,0.036,0.323,-5.337
0.164,0.031,0.323,-5.337
0.218,0.031,0.326,-5.337
0.248,0.033,0.331,-5.337
0.204,0.032,0.329,-5.337
0.137,0.034,0.328,-5.337
0.119,0.037,0.325,-5.337
0.146,0.033,0.326,-5.337
0.170,0.030,0.326,-5.337
0.177,0.031,0.321,-5.337
0.250,0.032,0.317,-5.337
0.253,0.034,0.318,-5.337
0.217,0.029,0.322,-5.337
0.254,0.028,0.325,-5.337
0.293,0.030,0.327,-5.337
0.301,0.036,0.328,-5.337
0.307,0.035,0.328,-5.337
0.254,0.034,0.330,-5.337
0.195,0.035,0.326,-5.337
0.138,0.035,0.321,-5.337
0.074,0.038,0.323,-5.337
0.134,0.038,0.323,-5.337
0.163,0.041,0.323,-5.337
0.117,0.040,0.324,-5.337
0.102,0.039,0.324,-5.337
0.093,0.043,0.323,-5.337
0.117,0.041,0.324,-5.337
0.098,0.040,0.324,-5.337
0.199,0.039,0.323,-5.337
0.294,0.039,0.321,-5.337
0.302,0.040,0.323,-5.337
0.265,0.040,0.324,-5.337
0.272,0.040,0.323,-5.337
0.168,0.041,0.320,-5.337
0.073,0.039,0.320,-5.337
0.086,0.038,0.322,-5.337
0.176,0.039,0.326,-5.337
0.221,0.041,0.323,-5.337
0.236,0.044,0.319,-5.337
0.225,0.042,0.322,-5.337
0.164,0.042,0.324,-5.337
0.216,0.039,0.320,-5.337
0.336,0.038,0.320,-5.337
0.331,0.040,0.322,-5.337
0.239,0.046,0.324,-5.337
0.195,0.047,0.327,-5.337
0.175,0.047,0.325,-5.337
0.173,0.043,0.326,-5.337
0.224,0.038,0.323,-5.337
0.296,0.040,0.326,-5.337
0.338,0.042,0.327,-5.337
0.311,0.047,0.329,-5.337
0.248,0.042,0.323,-5.337
0.231,0.043,0.316,-5.337
0.213,0.044,0.317,-5.337
0.175,0.047,0.322,-5.337
0.250,0.042,0.326,-5.337
0.253,0.040,0.325,-5.337
0.135,0.042,0.323,-5.337
0.119,0.044,0.326,-5.337
0.186,0.044,0.328,-5.337
0.172,0.045,0.322,-5.337
0.161,0.046,0.316,-5.337
0.212,0.044,0.318,-5.337
0.251,0.044,0.323,-5.337
0.249,0.042,0.321,-5.337
0.155,0.045,0.320,-5.337
0.096,0.046,0.322,-5.337
0.207,0.046,0.328,-5.337
0.227,0.046,0.328,-5.337
0.150,0.047,0.328,-5.337
0.140,0.045,0.325,-5.337
0.184,0.047,0.323,-5.337
0.216,0.048,0.323,-5.337
0.191,0.049,0.325,-5.337
0.179,0.047,0.322,-5.337
0.192,0.049,0.317,-5.337
0.177,0.047,0.318,-5.337
0.231,0.045,0.323,-5.337
0.220,0.046,0.323,-5.337
0.247,0.044,0.322,-5.337
0.251,0.043,0.324,-5.337
0.192,0.042,0.325,-5.337
0.136,0.040,0.325,-5.337
0.064,0.044,0.325,-5.337
0.064,0.046,0.327,-5.337
0.133,0.047,0.331,-5.337
0.185,0.049,0.326,-5.337
0.133,0.050,0.320,-5.337
0.149,0.046,0.321,-5.337
0.239,0.046,0.325,-5.337
0.275,0.049,0.329,-5.337
0.227,0.049,0.328,-5.337
0.188,0.041,0.324,-5.337
0.174,0.043,0.318,-5.337
0.160,0.050,0.315,-5.337
0.179,0.050,0.316,-5.337
0.208,0.050,0.320,-5.337
0.176,0.049,0.323,-5.337
0.198,0.048,0.328,-5.337
0.189,0.048,0.327,-5.337
0.141,0.045,0.324,-5.337
0.217,0.042,0.320,-5.337
0.223,0.045,0.321,-5.337
0.148,0.045,0.324,-5.337
0.154,0.042,0.327,-5.337
0.191,0.044,0.325,-5.337
0.182,0.048,0.322,-5.337
0.126,0.047,0.324,-5.337
0.106,0.047,0.324,-5.337
0.152,0.046,0.325,-5.337
0.168,0.045,0.328,-5.337
0.230,0.047,0.326,-5.337
0.261,0.048,0.321,-5.337
0.235,0.047,0.321,-5.337
0.167,0.045,0.320,-5.337
0.137,0.044,0.321,-5.337
0.138,0.045,0.321,-5.337
0.109,0.050,0.325,-5.337
0.100,0.047,0.324,-5.337
0.179,0.046,0.323,-5.337
0.205,0.045,0.323,-5.337
0.155,0.049,0.323,-5.337
0.179,0.051,0.326,-5.337
0.175,0.050,0.324,-5.337
0.175,0.053,0.322,-5.337
0.189,0.052,0.322,-5.337
0.173,0.050,0.321,-5.337
0.147,0.050,0.322,-5.337
0.264,0.048,0.322,-5.337
0.198,0.055,0.324,-5.337
0.145,0.057,0.323,-5.337
0.159,0.055,0.320,-5.337
0.252,0.048,0.319,-5.337
0.248,0.051,0.320,-5.337
0.132,0.056,0.323,-5.337
0.128,0.056,0.324,-5.337
0.193,0.052,0.324,-5.337
0.279,0.050,0.320,-5.337
0.302,0.052,0.319,-5.337
0.203,0.057,0.319,-5.337
0.177,0.056,0.326,-5.337
0.236,0.052,0.326,-5.337
0.305,0.054,0.323,-5.337
0.219,0.057,0.322,-5.337
0.151,0.056,0.324,-5.337
0.191,0.049,0.324,-5.337
0.241,0.051,0.324,-5.337
0.181,0.052,0.325,-5.337
0.214,0.051,0.328,-5.337
0.282,0.051,0.324,-5.337
0.229,0.056,0.318,-5.337
0.161,0.057,0.317,-5.337
0.136,0.056,0.320,-5.337
0.119,0.058,0.324,-5.337
0.164,0.056,0.325,-5.337
0.225,0.056,0.326,-5.337
0.261,0.054,0.327,-5.337
0.232,0.053,0.326,-5.337
0.162,0.056,0.324,-5.337
0.143,0.057,0.324,-5.337
0.151,0.056,0.324,-5.337
0.160,0.054,0.326,-5.337
0.103,0.055,0.326,-5.337
0.076,0.057,0.328,-5.337
0.158,0.058,0.329,-5.337
0.125,0.060,0.329,-5.337
0.083,0.057,0.322,-5.337
0.133,0.057,0.319,-5.337
0.153,0.057,0.318,-5.337
0.193,0.055,0.318,-5.337
0.178,0.054,0.323,-5.337
0.163,0.053,0.327,-5.337
0.268,0.050,0.324,-5.337
0.313,0.052,0.321,-5.337
0.293,0.053,0.321,-5.337
0.218,0.053,0.323,-5.337
0.155,0.050,0.321,-5.337
0.217,0.050,0.322,-5.337
0.261,0.053,0.325,-5.337
0.225,0.053,0.328,-5.337
0.237,0.050,0.329,-5.337
0.289,0.052,0.323,-5.337
0.244,0.053,0.321,-5.337
0.169,0.054,0.322,-5.337
0.150,0.053,0.324,-5.337
0.159,0.055,0.322,-5.337
0.181,0.055,0.322,-5.337
0.236,0.051,0.324,-5.337
0.261,0.051,0.328,-5.337
0.212,0.056,0.328,-5.337
0.150,0.060,0.325,-5.337
0.154,0.057,0.325,-5.337
0.241,0.051,0.326,-5.337
0.259,0.048,0.325,-5.337
0.239,0.051,0.324,-5.337
0.194,0.055,0.326,-5.337
0.192,0.054,0.325,-5.337
0.237,0.053,0.324,-5.337
0.161,0.056,0.321,-5.337
0.140,0.057,0.321,-5.337
0.241,0.054,0.323,-5.337
0.294,0.051,0.325,-5.337
0.214,0.053,0.325,-5.337
0.103,0.055,0.324,-5.337
0.082,0.056,0.323,-5.337
0.087,0.055,0.329,-5.337
0.177,0.053,0.331,-5.337
0.169,0.053,0.328,-5.337
0.120,0.052,0.320,-5.337
0.140,0.054,0.318,-5.337
0.185,0.054,0.321,-5.337
0.204,0.052,0.324,-5.337
0.163,0.053,0.322,-5.337
0.158,0.054,0.322,-5.337
0.208,0.051,0.327,-5.337
0.260,0.049,0.326,-5.337
0.251,0.048,0.322,-5.337
0.222,0.052,0.320,-5.337
0.228,0.051,0.321,-5.337
0.230,0.050,0.322,-5.337
0.208,0.055,0.320,-5.337
0.136,0.055,0.322,-5.337
0.181,0.052,0.325,-5.337
0.250,0.050,0.324,-5.337
0.194,0.049,0.322,-5.337
0.154,0.046,0.319,-5.337
0.199,0.041,0.321,-5.337
0.237,0.044,0.323,-5.337
0.213,0.047,0.327,-5.337
0.216,0.046,0.326,-5.337
0.280,0.046,0.324,-5.337
0.269,0.046,0.326,-5.337
0.266,0.044,0.326,-5.337
0.241,0.043,0.321,-5.337
0.191,0.046,0.320,-5.337
0.165,0.043,0.323,-5.337
0.233,0.042,0.326,-5.337
0.273,0.044,0.322,-5.337
0.299,0.047,0.318,-5.337
0.303,0.048,0.317,-5.337
0.288,0.048,0.321,-5.337
0.215,0.046,0.322,-5.337
0.183,0.044,0.325,-5.337
0.193,0.046,0.326,-5.337
0.167,0.046,0.323,-5.337
0.176,0.041,0.321,-5.337
0.115,0.043,0.322,-5.337
0.100,0.042,0.326,-5.337
0.189,0.043,0.328,-5.337
0.253,0.038,0.327,-5.337
0.300,0.036,0.322,-5.337
0.296,0.038,0.321,-5.337
0.254,0.041,0.325,-5.337
0.211,0.042,0.325,-5.337
0.153,0.040,0.320,-5.337
0.137,0.043,0.317,-5.337
0.143,0.043,0.317,-5.337
0.187,0.045,0.318,-5.337
0.146,0.041,0.319,-5.337
0.131,0.040,0.319,-5.337
0.239,0.039,0.321,-5.337
0.255,0.042,0.320,-5.337
0.166,0.041,0.319,-5.337
0.107,0.039,0.321,-5.337
0.147,0.036,0.324,-5.337
0.209,0.034,0.324,-5.337
0.238,0.034,0.323,-5.337
0.175,0.036,0.327,-5.337
0.127,0.037,0.329,-5.337
0.243,0.038,0.327,-5.337
0.280,0.041,0.326,-5.337
0.218,0.042,0.326,-5.337
0.261,0.039,0.329,-5.337
0.305,0.034,0.331,-5.337
0.299,0.039,0.327,-5.337
0.260,0.042,0.323,-5.337
0.182,0.043,0.324,-5.337
0.209,0.041,0.322,-5.337
0.255,0.040,0.320,-5.337
0.206,0.044,0.319,-5.337
0.182,0.044,0.320,-5.337
0.232,0.037,0.320,-5.337
0.205,0.038,0.321,-5.337
0.133,0.041,0.322,-5.337
0.177,0.042,0.322,-5.337
0.243,0.037,0.318,-5.337
0.247,0.036,0.316,-5.337
0.193,0.037,0.319,-5.337
0.209,0.038,0.323,-5.337
0.190,0.040,0.324,-5.337
0.301,0.036,0.323,-5.337
0.280,0.038,0.323,-5.337
0.218,0.039,0.323,-5.337
0.153,0.040,0.323,-5.337
0.143,0.041,0.322,-5.337
0.238,0.041,0.323,-5.337
0.241,0.040,0.328,-5.337
0.267,0.039,0.330,-5.337
0.253,0.038,0.325,-5.337
0.190,0.038,0.322,-5.337
0.119,0.040,0.321,-5.337
0.083,0.037,0.323,-5.337
0.085,0.038,0.322,-5.337
0.180,0.039,0.323,-5.337
0.233,0.041,0.323,-5.337
0.192,0.041,0.323,-5.337
0.184,0.038,0.321,-5.337
0.147,0.043,0.321,-5.337
0.160,0.044,0.317,-5.337
0.217,0.042,0.316,-5.337
0.232,0.041,0.318,-5.337
0.228,0.043,0.323,-5.337
0.218,0.044,0.322,-5.337
0.228,0.044,0.324,-5.337
0.181,0.043,0.324,-5.337
0.147,0.042,0.323,-5.337
0.180,0.041,0.322,-5.337
0.220,0.036,0.320,-5.337
0.264,0.039,0.318,-5.337
0.331,0.038,0.320,-5.337
0.328,0.040,0.323,-5.337
0.231,0.038,0.322,-5.337
0.212,0.038,0.322,-5.337
0.167,0.041,0.321,-5.337
0.148,0.041,0.325,-5.337
0.212,0.037,0.330,-5.337
0.292,0.034,0.330,-5.337
0.313,0.036,0.322,-5.337
0.231,0.039,0.319,-5.337
0.164,0.037,0.321,-5.337
0.232,0.036,0.324,-5.337
0.248,0.038,0.322,-5.337
0.121,0.040,0.319,-5.337
0.038,0.041,0.318,-5.337
0.112,0.040,0.321,-5.337
0.178,0.040,0.326,-5.337
0.175,0.044,0.326,-5.337
0.182,0.040,0.321,-5.337
0.220,0.036,0.317,-5.337
0.279,0.029,0.320,-5.337
0.255,0.033,0.324,-5.337
0.216,0.036,0.326,-5.337
0.192,0.035,0.326,-5.337
0.198,0.039,0.327,-5.337
0.205,0.041,0.325,-5.337
0.184,0.040,0.324,-5.337
0.183,0.036,0.320,-5.337
0.212,0.033,0.321,-5.337
0.235,0.036,0.323,-5.337
0.271,0.040,0.324,-5.337
0.293,0.038,0.324,-5.337
0.255,0.040,0.325,-5.337
0.247,0.038,0.323,-5.337
0.277,0.038,0.319,-5.337
0.231,0.038,0.315,-5.337
0.256,0.035,0.321,-5.337
0.341,0.032,0.325,-5.337
0.273,0.035,0.325,-5.337
0.134,0.038,0.322,-5.337
0.188,0.034,0.323,-5.337
0.196,0.030,0.324,-5.337
0.156,0.032,0.322,-5.337
0.183,0.036,0.323,-5.337
0.172,0.039,0.322,-5.337
0.183,0.037,0.321,-5.337
0.227,0.030,0.320,-5.337
0.319,0.028,0.325,-5.337
0.292,0.033,0.325,-5.337
0.194,0.035,0.325,-5.337
0.137,0.037,0.325,-5.337
0.167,0.033,0.328,-5.337
0.267,0.030,0.328,-5.337
0.204,0.031,0.329,-5.337
0.134,0.034,0.326,-5.337
0.109,0.037,0.322,-5.337
0.151,0.038,0.317,-5.337
0.259,0.035,0.319,-5.337
0.331,0.033,0.323,-5.337
0.332,0.035,0.324,-5.337
0.278,0.038,0.324,-5.337
0.223,0.035,0.323,-5.337
0.220,0.031,0.327,-5.337
0.234,0.034,0.332,-5.337
0.176,0.037,0.332,-5.337
0.171,0.036,0.330,-5.337
0.196,0.035,0.327,-5.337
0.192,0.036,0.325,-5.337
0.184,0.035,0.324,-5.337
0.140,0.038,0.320,-5.337
0.202,0.038,0.316,-5.337
0.256,0.038,0.314,-5.337
0.271,0.038,0.318,-5.337
0.261,0.038,0.321,-5.337
0.228,0.040,0.326,-5.337
0.251,0.037,0.324,-5.337
0.297,0.037,0.319,-5.337
0.343,0.037,0.318,-5.337
0.331,0.036,0.324,-5.337
0.228,0.037,0.327,-5.337
0.216,0.037,0.330,-5.337
0.253,0.034,0.327,-5.337
0.291,0.034,0.323,-5.337
0.294,0.033,0.321,-5.337
0.282,0.037,0.323,-5.337
0.261,0.037,0.323,-5.337
0.168,0.040,0.323,-5.337
0.173,0.040,0.323,-5.337
0.178,0.036,0.325,-5.337
0.128,0.035,0.325,-5.337
0.200,0.035,0.324,-5.337
0.228,0.041,0.322,-5.337
0.215,0.041,0.324,-5.337
0.271,0.035,0.327,-5.337
0.267,0.037,0.328,-5.337
0.247,0.040,0.329,-5.337
0.222,0.044,0.323,-5.337
0.187,0.041,0.320,-5.337
0.165,0.039,0.317,-5.337
0.176,0.040,0.318,-5.337
0.165,0.036,0.318,-5.337
0.184,0.035,0.320,-5.337
0.229,0.033,0.321,-5.337
0.256,0.033,0.322,-5.337
0.222,0.033,0.321,-5.337
0.204,0.035,0.323,-5.337
0.255,0.033,0.328,-5.337
0.257,0.034,0.330,-5.337
0.154,0.036,0.324,-5.337
0.032,0.040,0.323,-5.337
0.099,0.039,0.324,-5.337
0.182,0.036,0.324,-5.337
0.167,0.037,0.325,-5.337
0.155,0.040,0.325,-5.337
0.126,0.040,0.325,-5.337
0.221,0.038,0.323,-5.337
0.309,0.035,0.323,-5.337
0.404,0.038,0.321,-5.337
0.387,0.038,0.320,-5.337
0.226,0.037,0.319,-5.337
0.208,0.035,0.324,-5.337
0.270,0.030,0.325,-5.337
0.282,0.035,0.323,-5.337
0.205,0.038,0.323,-5.337
0.188,0.037,0.327,-5.337
0.201,0.034,0.329,-5.337
0.220,0.032,0.330,-5.337
0.211,0.032,0.330,-5.337
0.220,0.034,0.326,-5.337
0.255,0.032,0.322,-5.337
0.342,0.030,0.321,-5.337
0.203,0.033,0.322,-5.337
0.154,0.035,0.323,-5.337
0.180,0.036,0.323,-5.337
0.179,0.034,0.323,-5.337
0.170,0.033,0.321,-5.337
0.233,0.033,0.323,-5.337
0.259,0.034,0.326,-5.337
0.260,0.031,0.322,-5.337
0.289,0.033,0.319,-5.337
0.236,0.038,0.318,-5.337
0.196,0.041,0.326,-5.337
0.200,0.038,0.325,-5.337
0.201,0.041,0.320,-5.337
0.257,0.036,0.321,-5.337
0.261,0.038,0.327,-5.337
0.246,0.040,0.325,-5.337
0.189,0.040,0.325,-5.337
0.205,0.040,0.325,-5.337
0.235,0.041,0.323,-5.337
0.248,0.040,0.323,-5.337
0.238,0.041,0.322,-5.337
0.175,0.038,0.321,-5.337
0.137,0.043,0.323,-5.337
0.119,0.044,0.322,-5.337
0.109,0.043,0.323,-5.337
0.101,0.041,0.324,-5.337
0.140,0.040,0.322,-5.337
0.206,0.042,0.321,-5.337
0.233,0.042,0.322,-5.337
0.208,0.040,0.324,-5.337
0.109,0.041,0.324,-5.337
0.189,0.042,0.322,-5.337
0.272,0.041,0.320,-5.337
0.265,0.042,0.318,-5.337
0.308,0.042,0.319,-5.337
0.286,0.045,0.323,-5.337
0.209,0.045,0.326,-5.337
0.168,0.044,0.327,-5.337
0.195,0.041,0.325,-5.337
0.239,0.042,0.322,-5.337
0.152,0.044,0.320,-5.337
0.171,0.042,0.321,-5.337
0.248,0.039,0.319,-5.337
0.212,0.041,0.320,-5.337
0.205,0.043,0.323,-5.337
0.214,0.042,0.324,-5.337
0.260,0.042,0.322,-5.337
0.275,0.040,0.319,-5.337
0.268,0.039,0.318,-5.337
0.262,0.042,0.323,-5.337
0.184,0.043,0.328,-5.337
0.218,0.041,0.330,-5.337
0.296,0.038,0.328,-5.337
0.278,0.044,0.325,-5.337
0.216,0.042,0.323,-5.337
0.252,0.042,0.321,-5.337
0.267,0.042,0.320,-5.337
0.275,0.040,0.320,-5.337
0.217,0.043,0.322,-5.337
0.140,0.044,0.319,-5.337
0.105,0.047,0.319,-5.337
0.121,0.050,0.320,-5.337
0.193,0.048,0.321,-5.337
0.211,0.047,0.320,-5.337
0.207,0.044,0.322,-5.337
0.232,0.041,0.323,-5.337
0.262,0.041,0.321,-5.337
0.246,0.043,0.318,-5.337
0.238,0.043,0.321,-5.337
0.206,0.046,0.323,-5.337
0.242,0.043,0.321,-5.337
0.245,0.044,0.320,-5.337
0.219,0.050,0.324,-5.337
0.203,0.049,0.325,-5.337
0.188,0.047,0.324,-5.337
0.231,0.045,0.320,-5.337
0.189,0.045,0.316,-5.337
0.142,0.043,0.317,-5.337
0.164,0.043,0.322,-5.337
0.195,0.047,0.328,-5.337
0.163,0.047,0.326,-5.337
0.167,0.046,0.323,-5.337
0.170,0.045,0.318,-5.337
0.214,0.043,0.317,-5.337
0.262,0.043,0.318,-5.337
0.285,0.045,0.324,-5.337
0.210,0.048,0.327,-5.337
0.149,0.050,0.325,-5.337
0.196,0.044,0.321,-5.337
0.301,0.045,0.320,-5.337
0.318,0.050,0.320,-5.337
0.182,0.051,0.320,-5.337
0.129,0.056,0.319,-5.337
0.156,0.056,0.321,-5.337
0.167,0.052,0.322,-5.337
0.089,0.054,0.322,-5.337
0.102,0.056,0.324,-5.337
0.155,0.057,0.319,-5.337
0.250,0.052,0.319,-5.337
0.226,0.048,0.322,-5.337
0.174,0.050,0.325,-5.337
0.162,0.052,0.323,-5.337
0.237,0.051,0.325,-5.337
0.210,0.050,0.323,-5.337
0.167,0.050,0.323,-5.337
0.216,0.052,0.321,-5.337
0.236,0.053,0.321,-5.337
0.145,0.051,0.320,-5.337
0.098,0.054,0.322,-5.337
0.146,0.053,0.319,-5.337
0.196,0.053,0.313,-5.337
0.176,0.053,0.312,-5.337
0.119,0.055,0.315,-5.337
0.141,0.058,0.321,-5.337
0.132,0.060,0.324,-5.337
0.106,0.056,0.324,-5.337
0.127,0.054,0.326,-5.337
0.137,0.051,0.326,-5.337
0.125,0.053,0.325,-5.337
0.193,0.053,0.323,-5.337
0.185,0.056,0.321,-5.337
0.134,0.057,0.319,-5.337
0.123,0.054,0.318,-5.337
0.156,0.051,0.320,-5.337
0.199,0.051,0.320,-5.337
0.209,0.051,0.323,-5.337
0.133,0.054,0.325,-5.337
0.132,0.056,0.324,-5.337
0.151,0.056,0.323,-5.337
0.189,0.056,0.323,-5.337
0.141,0.055,0.323,-5.337
0.192,0.055,0.321,-5.337
0.241,0.055,0.318,-5.337
0.244,0.052,0.316,-5.337
0.248,0.051,0.314,-5.337
0.225,0.054,0.317,-5.337
0.211,0.056,0.322,-5.337
0.234,0.055,0.323,-5.337
0.244,0.051,0.319,-5.337
0.338,0.046,0.319,-5.337
0.273,0.049,0.320,-5.337
0.227,0.052,0.322,-5.337
0.193,0.052,0.325,-5.337
0.194,0.054,0.324,-5.337
0.146,0.054,0.322,-5.337
0.171,0.052,0.318,-5.337
0.193,0.054,0.319,-5.337
0.140,0.055,0.319,-5.337
0.177,0.053,0.321,-5.337
0.263,0.052,0.320,-5.337
0.262,0.054,0.320,-5.337
0.229,0.055,0.320,-5.337
0.229,0.052,0.321,-5.337
0.189,0.049,0.323,-5.337
0.104,0.051,0.323,-5.337
0.166,0.049,0.320,-5.337
0.214,0.050,0.318,-5.337
0.154,0.052,0.321,-5.337
0.163,0.050,0.323,-5.337
0.208,0.047,0.320,-5.337
0.267,0.046,0.318,-5.337
0.277,0.046,0.319,-5.337
0.239,0.047,0.322,-5.337
0.213,0.047,0.324,-5.337
0.173,0.049,0.321,-5.337
0.189,0.048,0.322,-5.337
0.190,0.050,0.322,-5.337
0.197,0.055,0.321,-5.337
0.199,0.055,0.319,-5.337
0.186,0.054,0.318,-5.337
0.219,0.051,0.317,-5.337
0.198,0.053,0.318,-5.337
0.152,0.058,0.321,-5.337
0.214,0.060,0.322,-5.337
0.274,0.054,0.322,-5.337
0.237,0.058,0.326,-5.337
0.179,0.056,0.321,-5.337
0.171,0.058,0.319,-5.337
0.143,0.058,0.319,-5.337
0.142,0.058,0.322,-5.337
0.110,0.056,0.322,-5.337
0.129,0.055,0.318,-5.337
0.186,0.058,0.317,-5.337
0.177,0.056,0.321,-5.337
0.201,0.057,0.320,-5.337
0.295,0.058,0.319,-5.337
0.279,0.059,0.323,-5.337
0.234,0.061,0.327,-5.337
0.216,0.059,0.327,-5.337
0.203,0.058,0.323,-5.337
0.244,0.054,0.319,-5.337
0.349,0.053,0.316,-5.337
0.366,0.054,0.318,-5.337
0.290,0.052,0.320,-5.337
0.218,0.051,0.322,-5.337
0.238,0.051,0.321,-5.337
0.239,0.049,0.322,-5.337
0.181,0.049,0.321,-5.337
0.213,0.053,0.323,-5.337
0.242,0.055,0.321,-5.337
0.245,0.056,0.317,-5.337
0.201,0.054,0.316,-5.337
0.197,0.056,0.317,-5.337
0.232,0.058,0.322,-5.337
0.239,0.056,0.327,-5.337
0.307,0.052,0.327,-5.337
0.319,0.054,0.324,-5.337
0.270,0.060,0.321,-5.337
0.157,0.063,0.319,-5.337
0.095,0.064,0.320,-5.337
0.112,0.063,0.321,-5.337
0.143,0.060,0.321,-5.337
0.198,0.056,0.322,-5.337
0.248,0.056,0.322,-5.337
0.160,0.063,0.320,-5.337
0.126,0.060,0.321,-5.337
0.149,0.056,0.322,-5.337
0.144,0.056,0.323,-5.337
0.093,0.059,0.322,-5.337
0.079,0.057,0.324,-5.337
0.112,0.059,0.326,-5.337
0.196,0.060,0.326,-5.337
0.269,0.058,0.321,-5.337
0.181,0.059,0.322,-5.337
0.108,0.057,0.320,-5.337
0.148,0.059,0.321,-5.337
0.225,0.058,0.323,-5.337
0.200,0.059,0.325,-5.337
0.142,0.058,0.324,-5.337
0.170,0.058,0.325,-5.337
0.295,0.057,0.324,-5.337
0.277,0.058,0.321,-5.337
0.190,0.057,0.320,-5.337
0.146,0.055,0.319,-5.337
0.219,0.054,0.319,-5.337
0.274,0.057,0.317,-5.337
0.262,0.056,0.317,-5.337
0.242,0.056,0.318,-5.337
0.239,0.055,0.322,-5.337
0.191,0.057,0.323,-5.337
0.186,0.053,0.325,-5.337
0.187,0.055,0.323,-5.337
0.114,0.056,0.322,-5.337
0.140,0.054,0.323,-5.337
0.199,0.054,0.324,-5.337
0.308,0.048,0.322,-5.337
0.358,0.052,0.320,-5.337
0.279,0.053,0.321,-5.337
0.178,0.054,0.322,-5.337
0.177,0.052,0.320,-5.337
0.163,0.053,0.318,-5.337
0.143,0.054,0.322,-5.337
0.152,0.052,0.327,-5.337
0.249,0.049,0.329,-5.337
0.270,0.053,0.325,-5.337
0.246,0.055,0.323,-5.337
0.210,0.054,0.322,-5.337
0.200,0.055,0.320,-5.337
0.208,0.053,0.317,-5.337
0.237,0.050,0.319,-5.337
0.217,0.053,0.324,-5.337
0.195,0.055,0.325,-5.337
0.171,0.054,0.321,-5.337
0.085,0.052,0.320,-5.337
0.061,0.053,0.321,-5.337
0.099,0.052,0.326,-5.337
0.134,0.049,0.326,-5.337
0.134,0.050,0.327,-5.337
0.234,0.051,0.326,-5.337
0.204,0.057,0.319,-5.337
0.086,0.060,0.316,-5.337
0.099,0.055,0.318,-5.337
0.284,0.050,0.319,-5.337
0.351,0.051,0.318,-5.337
0.200,0.055,0.319,-5.337
0.188,0.051,0.321,-5.337
0.244,0.045,0.320,-5.337
0.202,0.051,0.319,-5.337
0.185,0.054,0.319,-5.337
0.264,0.052,0.321,-5.337
0.312,0.049,0.322,-5.337
0.282,0.049,0.322,-5.337
0.201,0.051,0.323,-5.337
0.143,0.051,0.322,-5.337
0.151,0.052,0.324,-5.337
0.147,0.052,0.326,-5.337
0.212,0.049,0.324,-5.337
0.294,0.046,0.321,-5.337
0.338,0.044,0.321,-5.337
0.239,0.043,0.321,-5.337
0.202,0.048,0.324,-5.337
0.204,0.048,0.324,-5.337
0.126,0.049,0.320,-5.337
0.119,0.048,0.317,-5.337
0.183,0.048,0.319,-5.337
0.157,0.051,0.322,-5.337
0.136,0.051,0.328,-5.337
0.201,0.046,0.328,-5.337
0.268,0.046,0.322,-5.337
0.228,0.049,0.320,-5.337
0.150,0.048,0.318,-5.337
0.163,0.043,0.318,-5.337
0.195,0.044,0.318,-5.337
0.209,0.048,0.321,-5.337
0.156,0.049,0.323,-5.337
0.161,0.045,0.326,-5.337
0.194,0.045,0.327,-5.337
0.280,0.046,0.325,-5.337
0.295,0.048,0.323,-5.337
0.142,0.051,0.323,-5.337
0.144,0.047,0.320,-5.337
0.162,0.048,0.319,-5.337
0.168,0.047,0.321,-5.337
0.179,0.044,0.323,-5.337
0.199,0.042,0.324,-5.337
0.271,0.043,0.322,-5.337
0.186,0.043,0.321,-5.337
0.122,0.044,0.321,-5.337
0.229,0.042,0.320,-5.337
0.272,0.044,0.319,-5.337
0.227,0.047,0.322,-5.337
0.180,0.045,0.327,-5.337
0.177,0.045,0.325,-5.337
0.196,0.045,0.321,-5.337
0.196,0.042,0.322,-5.337
0.109,0.042,0.322,-5.337
0.050,0.043,0.320,-5.337
0.193,0.042,0.316,-5.337
0.292,0.039,0.320,-5.337
0.216,0.042,0.325,-5.337
0.188,0.038,0.327,-5.337
0.193,0.035,0.327,-5.337
0.235,0.039,0.325,-5.337
0.277,0.042,0.322,-5.337
0.236,0.048,0.318,-5.337
0.239,0.043,0.315,-5.337
0.199,0.042,0.315,-5.337
0.208,0.043,0.319,-5.337
0.217,0.046,0.322,-5.337
0.143,0.045,0.318,-5.337
0.168,0.042,0.318,-5.337
0.274,0.036,0.319,-5.337
0.287,0.039,0.318,-5.337
0.193,0.037,0.319,-5.337
0.232,0.035,0.325,-5.337
0.266,0.037,0.326,-5.337
0.179,0.039,0.325,-5.337
0.099,0.039,0.322,-5.337
0.071,0.040,0.320,-5.337
0.095,0.037,0.324,-5.337
0.159,0.038,0.326,-5.337
0.194,0.036,0.324,-5.337
0.206,0.035,0.320,-5.337
0.198,0.034,0.317,-5.337
0.156,0.036,0.317,-5.337
0.177,0.034,0.322,-5.337
0.247,0.034,0.322,-5.337
0.213,0.034,0.322,-5.337
0.182,0.037,0.319,-5.337
0.166,0.039,0.318,-5.337
0.241,0.035,0.319,-5.337
0.269,0.035,0.322,-5.337
0.222,0.035,0.323,-5.337
0.206,0.038,0.324,-5.337
0.208,0.038,0.324,-5.337
0.240,0.035,0.323,-5.337
0.215,0.034,0.321,-5.337
0.195,0.038,0.320,-5.337
0.249,0.038,0.317,-5.337
0.237,0.041,0.319,-5.337
0.179,0.040,0.323,-5.337
0.185,0.037,0.325,-5.337
0.204,0.035,0.325,-5.337
0.194,0.038,0.320,-5.337
0.217,0.037,0.320,-5.337
0.312,0.036,0.320,-5.337
0.276,0.038,0.320,-5.337
0.190,0.036,0.317,-5.337
0.267,0.036,0.316,-5.337
0.276,0.034,0.318,-5.337
0.182,0.035,0.320,-5.337
0.164,0.037,0.321,-5.337
0.204,0.036,0.326,-5.337
0.168,0.034,0.330,-5.337
0.101,0.032,0.326,-5.337
0.136,0.031,0.319,-5.337
0.244,0.035,0.317,-5.337
0.276,0.042,0.318,-5.337
0.184,0.040,0.322,-5.337
0.172,0.036,0.322,-5.337
0.214,0.037,0.324,-5.337
0.215,0.036,0.324,-5.337
0.149,0.039,0.320,-5.337
0.140,0.037,0.317,-5.337
0.211,0.034,0.318,-5.337
0.256,0.032,0.319,-5.337
0.315,0.031,0.320,-5.337
0.242,0.036,0.326,-5.337
0.190,0.034,0.328,-5.337
0.240,0.033,0.324,-5.337
0.251,0.035,0.318,-5.337
0.218,0.037,0.319,-5.337
0.144,0.037,0.321,-5.337
0.157,0.035,0.323,-5.337
0.198,0.033,0.321,-5.337
0.205,0.033,0.319,-5.337
0.182,0.033,0.318,-5.337
0.160,0.035,0.317,-5.337
0.172,0.037,0.319,-5.337
0.235,0.037,0.324,-5.337
0.210,0.038,0.324,-5.337
0.208,0.038,0.324,-5.337
0.170,0.034,0.322,-5.337
0.215,0.039,0.318,-5.337
0.273,0.038,0.317,-5.337
0.223,0.037,0.320,-5.337
0.165,0.038,0.324,-5.337
0.224,0.037,0.324,-5.337
0.278,0.039,0.323,-5.337
0.248,0.037,0.322,-5.337
0.264,0.036,0.325,-5.337
0.231,0.038,0.322,-5.337
0.186,0.038,0.320,-5.337
0.190,0.036,0.318,-5.337
0.228,0.036,0.319,-5.337
0.233,0.036,0.319,-5.337
0.139,0.041,0.323,-5.337
0.115,0.042,0.324,-5.337
0.213,0.040,0.324,-5.337
0.269,0.037,0.323,-5.337
0.303,0.038,0.320,-5.337
0.273,0.038,0.318,-5.337
0.249,0.035,0.320,-5.337
0.240,0.038,0.318,-5.337
0.276,0.041,0.320,-5.337
0.223,0.041,0.324,-5.337
0.123,0.043,0.325,-5.337
0.145,0.041,0.326,-5.337
0.184,0.038,0.327,-5.337
0.191,0.037,0.323,-5.337
0.198,0.041,0.317,-5.337
0.280,0.038,0.317,-5.337
0.319,0.034,0.321,-5.337
0.294,0.032,0.322,-5.337
0.184,0.034,0.321,-5.337
0.173,0.035,0.319,-5.337
0.183,0.034,0.319,-5.337
0.186,0.036,0.320,-5.337
0.160,0.034,0.324,-5.337
0.160,0.035,0.325,-5.337
0.214,0.033,0.323,-5.337
0.237,0.037,0.323,-5.337
0.177,0.037,0.321,-5.337
0.141,0.037,0.321,-5.337
0.223,0.033,0.321,-5.337
0.287,0.033,0.317,-5.337
0.288,0.031,0.316,-5.337
0.208,0.032,0.319,-5.337
0.221,0.032,0.324,-5.337
0.265,0.030,0.328,-5.337
0.221,0.031,0.327,-5.337
0.188,0.030,0.321,-5.337
0.253,0.029,0.320,-5.337
0.245,0.034,0.324,-5.337
0.089,0.033,0.327,-5.337
0.091,0.033,0.324,-5.337
0.126,0.032,0.323,-5.337
0.191,0.031,0.322,-5.337
0.208,0.034,0.324,-5.337
0.139,0.036,0.322,-5.337
0.182,0.035,0.323,-5.337
0.239,0.036,0.325,-5.337
0.226,0.032,0.326,-5.337
0.281,0.032,0.322,-5.337
0.232,0.036,0.319,-5.337
0.188,0.036,0.319,-5.337
0.190,0.033,0.318,-5.337
0.207,0.032,0.317,-5.337
0.234,0.032,0.320,-5.337
0.200,0.029,0.322,-5.337
0.187,0.034,0.323,-5.337
0.244,0.034,0.323,-5.337
0.234,0.028,0.324,-5.337
0.216,0.028,0.321,-5.337
0.197,0.029,0.323,-5.337
0.206,0.033,0.325,-5.337
0.186,0.031,0.323,-5.337
0.245,0.031,0.324,-5.337
0.292,0.032,0.323,-5.337
0.288,0.032,0.322,-5.337
0.286,0.031,0.321,-5.337
0.234,0.031,0.323,-5.337
0.195,0.034,0.323,-5.337
0.140,0.034,0.323,-5.337
0.141,0.029,0.325,-5.337
0.181,0.032,0.325,-5.337
0.187,0.034,0.324,-5.337
0.189,0.037,0.322,-5.337
0.210,0.035,0.319,-5.337
0.217,0.033,0.319,-5.337
0.224,0.033,0.316,-5.337
0.205,0.037,0.318,-5.337
0.164,0.037,0.320,-5.337
0.173,0.038,0.323,-5.337
0.126,0.036,0.323,-5.337
0.124,0.031,0.321,-5.337
0.170,0.031,0.317,-5.337
0.149,0.036,0.319,-5.337
0.150,0.035,0.320,-5.337
0.232,0.032,0.321,-5.337
0.298,0.029,0.324,-5.337
0.248,0.030,0.326,-5.337
0.175,0.035,0.325,-5.337
0.192,0.035,0.322,-5.337
0.283,0.036,0.323,-5.337
0.280,0.035,0.320,-5.337
0.253,0.036,0.321,-5.337
0.215,0.032,0.326,-5.337
0.198,0.029,0.331,-5.337
0.238,0.033,0.327,-5.337
0.220,0.034,0.319,-5.337
0.229,0.033,0.318,-5.337
0.258,0.032,0.323,-5.337
0.293,0.031,0.325,-5.337
0.289,0.031,0.322,-5.337
0.173,0.037,0.318,-5.337
0.093,0.039,0.314,-5.337
0.180,0.035,0.313,-5.337
0.261,0.033,0.316,-5.337
0.299,0.033,0.320,-5.337
0.246,0.039,0.325,-5.337
0.154,0.038,0.327,-5.337
0.204,0.035,0.323,-5.337
0.286,0.034,0.320,-5.337
0.294,0.036,0.318,-5.337
0.267,0.037,0.321,-5.337
0.329,0.036,0.323,-5.337
0.245,0.041,0.325,-5.337
0.092,0.043,0.324,-5.337
0.060,0.043,0.324,-5.337
0.104,0.041,0.320,-5.337
0.166,0.042,0.321,-5.337
0.216,0.039,0.324,-5.337
0.270,0.035,0.324,-5.337
0.271,0.031,0.325,-5.337
0.216,0.029,0.322,-5.337
0.267,0.032,0.319,-5.337
0.290,0.037,0.319,-5.337
0.197,0.038,0.319,-5.337
0.157,0.037,0.320,-5.337
0.179,0.036,0.318,-5.337
0.170,0.036,0.318,-5.337
0.147,0.037,0.321,-5.337
0.167,0.039,0.323,-5.337
0.195,0.039,0.322,-5.337
0.133,0.040,0.319,-5.337
0.061,0.040,0.322,-5.337
0.091,0.034,0.322,-5.337
0.184,0.034,0.321,-5.337
0.193,0.036,0.318,-5.337
0.179,0.035,0.319,-5.337
0.221,0.035,0.321,-5.337
0.243,0.036,0.321,-5.337
0.189,0.036,0.323,-5.337
0.146,0.040,0.324,-5.337
0.139,0.040,0.320,-5.337
0.193,0.038,0.318,-5.337
0.203,0.037,0.319,-5.337
0.164,0.041,0.319,-5.337
0.063,0.043,0.320,-5.337
0.097,0.042,0.323,-5.337
0.190,0.042,0.322,-5.337
0.211,0.039,0.319,-5.337
0.170,0.040,0.318,-5.337
0.134,0.040,0.321,-5.337
0.168,0.037,0.322,-5.337
0.177,0.036,0.322,-5.337
0.129,0.036,0.323,-5.337
0.206,0.038,0.323,-5.337
0.272,0.043,0.323,-5.337
0.252,0.042,0.321,-5.337
0.199,0.042,0.322,-5.337
0.203,0.040,0.320,-5.337
0.204,0.040,0.322,-5.337
0.166,0.040,0.323,-5.337
0.179,0.040,0.323,-5.337
0.172,0.042,0.319,-5.337
0.232,0.047,0.321,-5.337
0.245,0.046,0.322,-5.337
0.229,0.044,0.322,-5.337
0.263,0.041,0.322,-5.337
0.270,0.044,0.320,-5.337
0.242,0.046,0.316,-5.337
0.276,0.047,0.316,-5.337
0.229,0.045,0.318,-5.337
0.177,0.042,0.322,-5.337
0.170,0.040,0.326,-5.337
0.149,0.044,0.323,-5.337
0.142,0.045,0.321,-5.337
0.125,0.045,0.323,-5.337
0.109,0.045,0.325,-5.337
0.149,0.044,0.324,-5.337
0.220,0.042,0.320,-5.337
0.211,0.046,0.318,-5.337
0.152,0.045,0.320,-5.337
0.113,0.045,0.315,-5.337
0.066,0.046,0.317,-5.337
0.116,0.044,0.321,-5.337
0.175,0.045,0.323,-5.337
0.178,0.042,0.321,-5.337
0.179,0.041,0.319,-5.337
0.234,0.044,0.319,-5.337
0.296,0.045,0.320,-5.337
0.230,0.043,0.322,-5.337
0.166,0.042,0.319,-5.337
0.110,0.044,0.318,-5.337
0.105,0.045,0.320,-5.337
0.205,0.043,0.320,-5.337
0.265,0.041,0.320,-5.337
0.307,0.037,0.321,-5.337
0.282,0.041,0.321,-5.337
0.208,0.046,0.321,-5.337
0.115,0.050,0.321,-5.337
0.104,0.048,0.319,-5.337
0.122,0.045,0.319,-5.337
0.183,0.045,0.320,-5.337
0.192,0.044,0.318,-5.337
0.267,0.045,0.318,-5.337
0.246,0.048,0.320,-5.337
0.111,0.052,0.323,-5.337
0.099,0.052,0.321,-5.337
0.227,0.052,0.321,-5.337
0.249,0.049,0.322,-5.337
0.179,0.052,0.323,-5.337
0.138,0.050,0.322,-5.337
0.204,0.046,0.319,-5.337
0.204,0.044,0.318,-5.337
0.111,0.048,0.317,-5.337
0.123,0.046,0.317,-5.337
0.183,0.045,0.318,-5.337
0.219,0.046,0.320,-5.337
0.197,0.045,0.320,-5.337
0.215,0.045,0.319,-5.337
0.224,0.046,0.318,-5.337
0.194,0.044,0.315,-5.337
0.205,0.043,0.314,-5.337
0.200,0.043,0.313,-5.337
0.173,0.045,0.317,-5.337
0.117,0.044,0.323,-5.337
0.138,0.045,0.323,-5.337
0.129,0.049,0.321,-5.337
0.186,0.045,0.320,-5.337
0.259,0.042,0.322,-5.337
0.243,0.045,0.319,-5.337
0.164,0.048,0.319,-5.337
0.170,0.045,0.322,-5.337
0.197,0.048,0.323,-5.337
0.184,0.048,0.318,-5.337
0.203,0.049,0.315,-5.337
0.177,0.050,0.317,-5.337
0.152,0.052,0.319,-5.337
0.135,0.052,0.317,-5.337
0.066,0.054,0.319,-5.337
0.045,0.052,0.319,-5.337
0.129,0.052,0.321,-5.337
0.164,0.051,0.323,-5.337
0.193,0.047,0.320,-5.337
0.232,0.050,0.319,-5.337
0.207,0.051,0.320,-5.337
0.240,0.048,0.324,-5.337
0.227,0.048,0.321,-5.337
0.136,0.050,0.321,-5.337
0.114,0.055,0.319,-5.337
0.123,0.053,0.320,-5.337
0.128,0.047,0.317,-5.337
0.164,0.047,0.317,-5.337
0.221,0.049,0.319,-5.337
0.259,0.049,0.319,-5.337
0.255,0.047,0.317,-5.337
0.170,0.047,0.317,-5.337
0.173,0.045,0.320,-5.337
0.239,0.048,0.320,-5.337
0.252,0.048,0.319,-5.337
0.229,0.050,0.318,-5.337
0.155,0.052,0.317,-5.337
0.142,0.050,0.319,-5.337
0.130,0.052,0.319,-5.337
0.129,0.050,0.320,-5.337
0.182,0.051,0.321,-5.337
0.235,0.053,0.322,-5.337
0.201,0.051,0.321,-5.337
0.162,0.048,0.318,-5.337
0.223,0.045,0.318,-5.337
0.259,0.051,0.318,-5.337
0.222,0.052,0.320,-5.337
0.236,0.048,0.320,-5.337
0.212,0.050,0.323,-5.337
0.049,0.053,0.324,-5.337
0.005,0.056,0.321,-5.337
0.077,0.054,0.318,-5.337
0.121,0.053,0.316,-5.337
0.050,0.054,0.316,-5.337
0.070,0.055,0.317,-5.337
0.155,0.055,0.318,-5.337
0.137,0.055,0.316,-5.337
0.123,0.057,0.315,-5.337
0.120,0.057,0.316,-5.337
0.128,0.056,0.318,-5.337
0.204,0.055,0.321,-5.337
0.270,0.051,0.321,-5.337
0.245,0.052,0.319,-5.337
0.174,0.054,0.321,-5.337
0.156,0.055,0.327,-5.337
0.185,0.052,0.324,-5.337
0.220,0.052,0.320,-5.337
0.239,0.048,0.321,-5.337
0.234,0.051,0.324,-5.337
0.145,0.055,0.323,-5.337
0.129,0.054,0.318,-5.337
0.195,0.057,0.315,-5.337
0.169,0.062,0.313,-5.337
0.093,0.062,0.317,-5.337
0.193,0.057,0.318,-5.337
0.242,0.058,0.320,-5.337
0.116,0.060,0.324,-5.337
0.089,0.063,0.321,-5.337
0.073,0.062,0.317,-5.337
0.113,0.061,0.318,-5.337
0.151,0.057,0.322,-5.337
0.158,0.058,0.323,-5.337
0.179,0.056,0.323,-5.337
0.165,0.057,0.321,-5.337
0.241,0.051,0.318,-5.337
0.260,0.052,0.320,-5.337
0.227,0.054,0.323,-5.337
0.207,0.056,0.320,-5.337
0.230,0.054,0.319,-5.337
0.228,0.051,0.321,-5.337
0.196,0.053,0.322,-5.337
0.222,0.053,0.320,-5.337
0.235,0.051,0.318,-5.337
0.184,0.055,0.319,-5.337
0.098,0.057,0.322,-5.337
0.066,0.057,0.323,-5.337
0.127,0.056,0.323,-5.337
0.201,0.055,0.321,-5.337
0.200,0.055,0.322,-5.337
0.184,0.057,0.323,-5.337
0.167,0.060,0.321,-5.337
0.205,0.056,0.319,-5.337
0.229,0.059,0.318,-5.337
0.281,0.057,0.314,-5.337
0.170,0.055,0.314,-5.337
0.103,0.059,0.318,-5.337
0.146,0.060,0.322,-5.337
0.213,0.057,0.322,-5.337
0.226,0.054,0.324,-5.337
0.208,0.053,0.324,-5.337
0.207,0.055,0.322,-5.337
0.288,0.052,0.321,-5.337
0.247,0.056,0.321,-5.337
0.156,0.057,0.322,-5.337
0.118,0.052,0.320,-5.337
0.135,0.052,0.317,-5.337
0.156,0.053,0.317,-5.337
0.148,0.055,0.317,-5.337
0.166,0.051,0.316,-5.337
0.116,0.049,0.318,-5.337
0.151,0.050,0.320,-5.337
0.190,0.050,0.325,-5.337
0.124,0.048,0.327,-5.337
0.139,0.045,0.323,-5.337
0.195,0.042,0.320,-5.337
0.173,0.047,0.321,-5.337
0.203,0.048,0.323,-5.337
0.276,0.046,0.322,-5.337
0.319,0.046,0.321,-5.337
0.333,0.046,0.324,-5.337
0.224,0.045,0.328,-5.337
0.165,0.043,0.326,-5.337
0.232,0.043,0.322,-5.337
0.233,0.049,0.319,-5.337
0.183,0.051,0.317,-5.337
0.164,0.048,0.317,-5.337
0.179,0.050,0.319,-5.337
0.226,0.047,0.319,-5.337
0.242,0.051,0.323,-5.337
0.221,0.050,0.324,-5.337
0.180,0.051,0.324,-5.337
0.161,0.049,0.321,-5.337
0.215,0.048,0.320,-5.337
0.234,0.051,0.319,-5.337
0.154,0.052,0.319,-5.337
0.157,0.045,0.320,-5.337
0.203,0.047,0.319,-5.337
0.188,0.049,0.320,-5.337
0.177,0.048,0.321,-5.337
0.232,0.042,0.318,-5.337
0.226,0.045,0.317,-5.337
0.174,0.046,0.318,-5.337
0.097,0.047,0.322,-5.337
0.075,0.046,0.322,-5.337
0.089,0.046,0.326,-5.337
0.164,0.046,0.325,-5.337
0.270,0.042,0.321,-5.337
0.313,0.041,0.323,-5.337
0.300,0.040,0.324,-5.337
0.256,0.041,0.324,-5.337
0.221,0.045,0.320,-5.337
0.159,0.046,0.319,-5.337
0.133,0.040,0.319,-5.337
0.208,0.039,0.324,-5.337
0.221,0.040,0.324,-5.337
0.251,0.038,0.319,-5.337
0.250,0.035,0.315,-5.337
0.226,0.039,0.314,-5.337
0.235,0.042,0.315,-5.337
0.248,0.041,0.318,-5.337
0.254,0.036,0.323,-5.337
0.343,0.034,0.327,-5.337
0.310,0.039,0.325,-5.337
0.307,0.038,0.318,-5.337
0.283,0.041,0.318,-5.337
0.216,0.038,0.320,-5.337
0.237,0.037,0.321,-5.337
0.228,0.038,0.318,-5.337
0.145,0.040,0.320,-5.337
0.091,0.042,0.321,-5.337
0.086,0.043,0.321,-5.337
0.061,0.042,0.320,-5.337
0.083,0.042,0.318,-5.337
0.139,0.040,0.320,-5.337
0.268,0.036,0.322,-5.337
0.313,0.037,0.321,-5.337
0.207,0.040,0.323,-5.337
0.162,0.039,0.321,-5.337
0.157,0.037,0.324,-5.337
0.132,0.034,0.328,-5.337
0.192,0.036,0.325,-5.337
0.176,0.036,0.319,-5.337
0.184,0.038,0.317,-5.337
0.218,0.032,0.319,-5.337
0.253,0.033,0.321,-5.337
0.247,0.032,0.321,-5.337
0.214,0.033,0.319,-5.337
0.143,0.037,0.316,-5.337
0.127,0.037,0.318,-5.337
0.160,0.037,0.321,-5.337
0.195,0.040,0.320,-5.337
0.178,0.042,0.320,-5.337
0.246,0.037,0.320,-5.337
0.309,0.036,0.324,-5.337
0.245,0.035,0.320,-5.337
0.221,0.034,0.318,-5.337
0.179,0.036,0.316,-5.337
0.175,0.035,0.319,-5.337
0.163,0.036,0.324,-5.337
0.180,0.037,0.327,-5.337
0.248,0.033,0.323,-5.337
0.226,0.031,0.322,-5.337
0.165,0.032,0.320,-5.337
0.173,0.032,0.317,-5.337
0.112,0.037,0.315,-5.337
0.074,0.039,0.319,-5.337
0.110,0.033,0.320,-5.337
0.098,0.034,0.317,-5.337
0.159,0.032,0.316,-5.337
0.262,0.031,0.319,-5.337
0.185,0.032,0.325,-5.337
0.128,0.037,0.326,-5.337
0.120,0.038,0.321,-5.337
0.197,0.033,0.319,-5.337
0.217,0.035,0.320,-5.337
0.202,0.037,0.319,-5.337
0.155,0.037,0.318,-5.337
0.203,0.035,0.320,-5.337
0.189,0.035,0.322,-5.337
0.201,0.030,0.320,-5.337
0.215,0.028,0.324,-5.337
0.255,0.034,0.326,-5.337
0.213,0.035,0.326,-5.337
0.229,0.033,0.322,-5.337
0.259,0.031,0.318,-5.337
0.218,0.035,0.316,-5.337
0.163,0.036,0.317,-5.337
0.211,0.033,0.317,-5.337
0.237,0.037,0.320,-5.337
0.221,0.035,0.325,-5.337
0.207,0.034,0.327,-5.337
0.254,0.033,0.322,-5.337
0.330,0.036,0.318,-5.337
0.258,0.038,0.314,-5.337
0.188,0.038,0.315,-5.337
0.207,0.034,0.321,-5.337
0.215,0.032,0.323,-5.337
0.252,0.029,0.324,-5.337
0.238,0.036,0.324,-5.337
0.183,0.036,0.320,-5.337
0.212,0.033,0.319,-5.337
0.271,0.033,0.321,-5.337
0.186,0.035,0.320,-5.337
0.113,0.037,0.318,-5.337
0.185,0.036,0.318,-5.337
0.207,0.035,0.319,-5.337
0.161,0.036,0.318,-5.337
0.120,0.041,0.321,-5.337
0.112,0.041,0.320,-5.337
0.131,0.035,0.321,-5.337
0.209,0.032,0.318,-5.337
0.233,0.035,0.316,-5.337
0.273,0.037,0.319,-5.337
0.289,0.035,0.321,-5.337
0.228,0.032,0.321,-5.337
0.201,0.033,0.322,-5.337
0.205,0.031,0.320,-5.337
0.231,0.033,0.317,-5.337
0.250,0.030,0.316,-5.337
0.283,0.029,0.319,-5.337
0.283,0.031,0.323,-5.337
0.168,0.033,0.324,-5.337
0.130,0.033,0.324,-5.337
0.179,0.036,0.319,-5.337
0.144,0.041,0.317,-5.337
0.139,0.035,0.318,-5.337
0.193,0.029,0.319,-5.337
0.180,0.033,0.316,-5.337
0.182,0.037,0.319,-5.337
0.216,0.037,0.321,-5.337
0.210,0.034,0.321,-5.337
0.197,0.029,0.318,-5.337
0.189,0.029,0.318,-5.337
0.142,0.034,0.320,-5.337
0.079,0.037,0.320,-5.337
0.124,0.032,0.319,-5.337
0.239,0.029,0.321,-5.337
0.256,0.028,0.320,-5.337
0.222,0.029,0.323,-5.337
0.294,0.031,0.325,-5.337
0.305,0.033,0.322,-5.337
0.190,0.035,0.319,-5.337
0.175,0.033,0.319,-5.337
0.208,0.035,0.320,-5.337
0.204,0.034,0.322,-5.337
0.236,0.034,0.324,-5.337
0.225,0.034,0.321,-5.337
0.182,0.037,0.322,-5.337
0.156,0.032,0.320,-5.337
0.193,0.028,0.315,-5.337
0.229,0.028,0.311,-5.337
0.199,0.032,0.315,-5.337
0.154,0.031,0.317,-5.337
0.199,0.029,0.320,-5.337
0.232,0.029,0.323,-5.337
0.182,0.035,0.326,-5.337
0.194,0.030,0.326,-5.337
0.276,0.029,0.326,-5.337
0.315,0.029,0.323,-5.337
0.332,0.031,0.322,-5.337
0.237,0.034,0.320,-5.337
0.161,0.035,0.318,-5.337
0.124,0.036,0.319,-5.337
0.172,0.035,0.322,-5.337
0.216,0.035,0.324,-5.337
0.195,0.034,0.323,-5.337
0.172,0.033,0.322,-5.337
0.165,0.036,0.322,-5.337
0.210,0.033,0.318,-5.337
0.267,0.029,0.316,-5.337
0.256,0.030,0.319,-5.337
0.191,0.032,0.320,-5.337
0.116,0.032,0.320,-5.337
0.077,0.031,0.317,-5.337
0.106,0.032,0.318,-5.337
0.154,0.030,0.315,-5.337
0.171,0.028,0.313,-5.337
0.178,0.028,0.312,-5.337
0.178,0.031,0.314,-5.337
0.194,0.031,0.319,-5.337
0.185,0.029,0.317,-5.337
0.195,0.032,0.317,-5.337
0.196,0.031,0.323,-5.337
0.252,0.030,0.327,-5.337
0.290,0.029,0.326,-5.337
0.213,0.030,0.322,-5.337
0.170,0.034,0.323,-5.337
0.133,0.038,0.321,-5.337
0.064,0.040,0.316,-5.337
0.071,0.037,0.315,-5.337
0.167,0.034,0.316,-5.337
0.177,0.035,0.322,-5.337
0.195,0.033,0.323,-5.337
0.270,0.030,0.322,-5.337
0.316,0.032,0.317,-5.337
0.262,0.035,0.315,-5.337
0.205,0.034,0.318,-5.337
0.165,0.032,0.323,-5.337
0.169,0.031,0.323,-5.337
0.121,0.034,0.319,-5.337
0.125,0.034,0.318,-5.337
0.235,0.034,0.320,-5.337
0.291,0.032,0.320,-5.337
0.217,0.030,0.322,-5.337
0.167,0.031,0.321,-5.337
0.169,0.035,0.321,-5.337
0.171,0.031,0.322,-5.337
0.256,0.026,0.324,-5.337
0.308,0.026,0.324,-5.337
0.247,0.026,0.322,-5.337
0.201,0.027,0.319,-5.337
0.226,0.024,0.319,-5.337
0.247,0.026,0.319,-5.337
0.195,0.028,0.320,-5.337
0.146,0.029,0.323,-5.337
0.106,0.031,0.319,-5.337
0.110,0.032,0.317,-5.337
0.150,0.033,0.319,-5.337
0.242,0.030,0.321,-5.337
0.219,0.029,0.321,-5.337
0.227,0.027,0.321,-5.337
0.245,0.028,0.317,-5.337
0.242,0.029,0.317,-5.337
0.251,0.032,0.320,-5.337
0.211,0.033,0.323,-5.337
0.273,0.028,0.320,-5.337
0.248,0.031,0.318,-5.337
0.185,0.035,0.317,-5.337
0.220,0.030,0.319,-5.337
0.282,0.029,0.319,-5.337
0.261,0.036,0.320,-5.337
0.186,0.039,0.322,-5.337
0.174,0.038,0.324,-5.337
0.173,0.034,0.322,-5.337
0.200,0.039,0.320,-5.337
0.134,0.042,0.319,-5.337
0.130,0.039,0.322,-5.337
0.153,0.038,0.322,-5.337
0.219,0.033,0.319,-5.337
0.279,0.034,0.320,-5.337
0.199,0.034,0.321,-5.337
0.177,0.031,0.322,-5.337
0.248,0.030,0.317,-5.337
0.221,0.034,0.316,-5.337
0.129,0.040,0.320,-5.337
0.073,0.043,0.327,-5.337
0.165,0.038,0.331,-5.337
0.237,0.036,0.327,-5.337
0.184,0.037,0.322,-5.337
0.140,0.040,0.318,-5.337
0.124,0.040,0.319,-5.337
0.188,0.037,0.320,-5.337
0.209,0.036,0.320,-5.337
0.127,0.040,0.321,-5.337
0.139,0.042,0.325,-5.337
0.252,0.040,0.325,-5.337
0.204,0.045,0.322,-5.337
0.199,0.045,0.319,-5.337
0.255,0.050,0.321,-5.337
0.268,0.047,0.324,-5.337
0.227,0.043,0.325,-5.337
0.157,0.045,0.322,-5.337
0.165,0.044,0.321,-5.337
0.249,0.042,0.321,-5.337
0.251,0.037,0.321,-5.337
0.218,0.037,0.319,-5.337
0.223,0.044,0.319,-5.337
0.227,0.045,0.322,-5.337
0.187,0.043,0.325,-5.337
0.191,0.043,0.322,-5.337
0.182,0.044,0.319,-5.337
0.129,0.043,0.318,-5.337
0.141,0.048,0.320,-5.337
0.122,0.048,0.321,-5.337
0.132,0.047,0.322,-5.337
0.191,0.049,0.325,-5.337
0.160,0.048,0.329,-5.337
0.090,0.047,0.325,-5.337
0.083,0.045,0.318,-5.337
0.128,0.047,0.316,-5.337
0.154,0.046,0.316,-5.337
0.172,0.047,0.319,-5.337
0.161,0.049,0.318,-5.337
0.159,0.047,0.316,-5.337
0.170,0.048,0.316,-5.337
0.194,0.046,0.321,-5.337
0.215,0.043,0.320,-5.337
0.232,0.044,0.322,-5.337
0.226,0.044,0.324,-5.337
0.250,0.045,0.325,-5.337
0.302,0.043,0.320,-5.337
0.250,0.044,0.315,-5.337
0.182,0.049,0.318,-5.337
0.153,0.051,0.320,-5.337
0.206,0.050,0.321,-5.337
0.203,0.048,0.321,-5.337
0.170,0.048,0.320,-5.337
0.214,0.050,0.320,-5.337
0.244,0.048,0.320,-5.337
0.271,0.050,0.323,-5.337
0.251,0.049,0.325,-5.337
0.217,0.046,0.326,-5.337
0.275,0.047,0.322,-5.337
0.242,0.049,0.317,-5.337
0.183,0.048,0.318,-5.337
0.119,0.050,0.319,-5.337
0.135,0.046,0.320,-5.337
0.217,0.044,0.319,-5.337
0.208,0.047,0.320,-5.337
0.208,0.048,0.320,-5.337
0.233,0.048,0.322,-5.337
0.213,0.050,0.319,-5.337
0.184,0.050,0.318,-5.337
0.143,0.048,0.320,-5.337
0.189,0.047,0.320,-5.337
0.259,0.042,0.319,-5.337
0.276,0.044,0.321,-5.337
0.277,0.044,0.327,-5.337
0.308,0.046,0.326,-5.337
0.241,0.047,0.321,-5.337
0.142,0.047,0.318,-5.337
0.167,0.046,0.317,-5.337
0.205,0.045,0.318,-5.337
0.168,0.049,0.314,-5.337
0.156,0.048,0.315,-5.337
0.176,0.043,0.318,-5.337
0.120,0.045,0.318,-5.337
0.081,0.047,0.315,-5.337
0.131,0.050,0.317,-5.337
0.131,0.051,0.322,-5.337
0.062,0.051,0.322,-5.337
0.041,0.053,0.322,-5.337
0.117,0.048,0.318,-5.337
0.180,0.048,0.318,-5.337
0.169,0.051,0.320,-5.337
0.202,0.050,0.324,-5.337
0.240,0.049,0.326,-5.337
0.186,0.051,0.326,-5.337
0.171,0.050,0.322,-5.337
0.161,0.046,0.321,-5.337
0.211,0.045,0.321,-5.337
0.187,0.048,0.320,-5.337
0.180,0.051,0.319,-5.337
0.178,0.049,0.317,-5.337
0.230,0.047,0.318,-5.337
0.233,0.048,0.321,-5.337
0.136,0.049,0.320,-5.337
0.120,0.048,0.322,-5.337
0.232,0.049,0.322,-5.337
0.267,0.052,0.321,-5.337
0.247,0.054,0.321,-5.337
0.218,0.053,0.319,-5.337
0.243,0.049,0.319,-5.337
0.230,0.053,0.317,-5.337
0.159,0.055,0.317,-5.337
0.155,0.055,0.320,-5.337
0.188,0.055,0.320,-5.337
0.264,0.053,0.316,-5.337
0.274,0.049,0.315,-5.337
0.210,0.050,0.316,-5.337
0.145,0.054,0.319,-5.337
0.086,0.055,0.324,-5.337
0.148,0.049,0.324,-5.337
0.173,0.050,0.320,-5.337
0.149,0.050,0.320,-5.337
0.153,0.050,0.319,-5.337
0.154,0.052,0.318,-5.337
0.135,0.052,0.319,-5.337
0.098,0.053,0.319,-5.337
0.141,0.057,0.318,-5.337
0.188,0.057,0.321,-5.337
0.158,0.056,0.326,-5.337
0.135,0.056,0.324,-5.337
0.231,0.053,0.322,-5.337
0.234,0.054,0.317,-5.337
0.155,0.056,0.316,-5.337
0.146,0.055,0.317,-5.337
0.213,0.053,0.318,-5.337
0.205,0.054,0.316,-5.337
0.109,0.056,0.316,-5.337
0.053,0.054,0.317,-5.337
0.152,0.051,0.321,-5.337
0.201,0.055,0.324,-5.337
0.194,0.057,0.322,-5.337
0.207,0.055,0.318,-5.337
0.261,0.055,0.318,-5.337
0.258,0.053,0.318,-5.337
0.192,0.054,0.320,-5.337
0.177,0.052,0.319,-5.337
0.201,0.052,0.318,-5.337
0.255,0.051,0.317,-5.337
0.272,0.048,0.319,-5.337
0.216,0.051,0.319,-5.337
0.228,0.057,0.315,-5.337
0.242,0.062,0.315,-5.337
0.249,0.060,0.316,-5.337
0.190,0.060,0.317,-5.337
0.195,0.054,0.317,-5.337
0.238,0.052,0.318,-5.337
0.247,0.054,0.319,-5.337
0.288,0.052,0.323,-5.337
0.259,0.053,0.322,-5.337
0.159,0.054,0.322,-5.337
0.108,0.054,0.320,-5.337
0.137,0.056,0.321,-5.337
0.140,0.054,0.319,-5.337
0.138,0.055,0.321,-5.337
0.128,0.055,0.320,-5.337
0.146,0.058,0.320,-5.337
0.165,0.057,0.321,-5.337
0.180,0.059,0.318,-5.337
0.114,0.056,0.319,-5.337
0.139,0.055,0.318,-5.337
0.179,0.055,0.318,-5.337
0.176,0.055,0.322,-5.337
0.116,0.056,0.323,-5.337
0.132,0.055,0.326,-5.337
0.169,0.057,0.324,-5.337
0.162,0.059,0.322,-5.337
0.169,0.058,0.317,-5.337
0.211,0.055,0.312,-5.337
0.250,0.053,0.313,-5.337
0.273,0.050,0.317,-5.337
0.215,0.056,0.321,-5.337
0.146,0.053,0.319,-5.337
0.167,0.053,0.318,-5.337
0.169,0.054,0.317,-5.337
0.161,0.053,0.321,-5.337
0.219,0.050,0.323,-5.337
0.206,0.053,0.322,-5.337
0.208,0.055,0.321,-5.337
0.171,0.057,0.322,-5.337
0.124,0.055,0.328,-5.337
0.165,0.054,0.326,-5.337
0.266,0.055,0.322,-5.337
0.286,0.057,0.317,-5.337
0.186,0.055,0.312,-5.337
0.084,0.056,0.314,-5.337
0.094,0.057,0.317,-5.337
0.222,0.057,0.319,-5.337
0.268,0.055,0.320,-5.337
0.226,0.053,0.317,-5.337
0.234,0.051,0.317,-5.337
0.262,0.049,0.318,-5.337
0.265,0.052,0.316,-5.337
0.193,0.054,0.312,-5.337
0.133,0.055,0.317,-5.337
0.143,0.054,0.321,-5.337
0.150,0.054,0.324,-5.337
0.130,0.049,0.321,-5.337
0.195,0.045,0.316,-5.337
0.243,0.051,0.317,-5.337
0.249,0.055,0.318,-5.337
0.132,0.053,0.322,-5.337
0.156,0.049,0.324,-5.337
0.187,0.048,0.320,-5.337
0.223,0.049,0.314,-5.337
0.228,0.052,0.313,-5.337
0.144,0.052,0.315,-5.337
0.106,0.049,0.318,-5.337
0.172,0.050,0.319,-5.337
0.215,0.049,0.318,-5.337
0.240,0.052,0.318,-5.337
0.191,0.051,0.318,-5.337
0.132,0.051,0.320,-5.337
0.108,0.051,0.324,-5.337
0.221,0.050,0.322,-5.337
0.266,0.046,0.319,-5.337
0.180,0.048,0.316,-5.337
0.121,0.048,0.317,-5.337
0.138,0.050,0.319,-5.337
0.151,0.051,0.320,-5.337
0.137,0.051,0.316,-5.337
0.247,0.048,0.315,-5.337
0.267,0.049,0.317,-5.337
0.233,0.051,0.322,-5.337
0.202,0.048,0.321,-5.337
0.088,0.046,0.321,-5.337
0.106,0.042,0.318,-5.337
0.201,0.043,0.317,-5.337
0.216,0.043,0.317,-5.337
0.202,0.042,0.319,-5.337
0.281,0.038,0.323,-5.337
0.307,0.039,0.325,-5.337
0.233,0.042,0.323,-5.337
0.255,0.043,0.320,-5.337
0.269,0.044,0.314,-5.337
0.198,0.046,0.315,-5.337
0.217,0.042,0.319,-5.337
0.258,0.041,0.324,-5.337
0.250,0.042,0.324,-5.337
0.210,0.047,0.320,-5.337
0.193,0.047,0.317,-5.337
0.164,0.043,0.318,-5.337
0.186,0.040,0.320,-5.337
0.164,0.042,0.320,-5.337
0.184,0.040,0.324,-5.337
0.242,0.038,0.327,-5.337
0.258,0.040,0.327,-5.337
0.234,0.040,0.322,-5.337
0.201,0.042,0.318,-5.337
0.235,0.037,0.321,-5.337
0.224,0.037,0.323,-5.337
0.171,0.040,0.323,-5.337
0.210,0.037,0.321,-5.337
0.230,0.033,0.318,-5.337
0.225,0.034,0.320,-5.337
0.212,0.035,0.323,-5.337
0.202,0.039,0.324,-5.337
0.145,0.043,0.323,-5.337
0.103,0.039,0.322,-5.337
0.156,0.038,0.322,-5.337
0.206,0.040,0.319,-5.337
0.179,0.044,0.316,-5.337
0.180,0.042,0.319,-5.337
0.231,0.039,0.326,-5.337
0.219,0.041,0.324,-5.337
0.169,0.042,0.322,-5.337
0.275,0.039,0.321,-5.337
0.352,0.036,0.324,-5.337
0.277,0.035,0.323,-5.337
0.254,0.037,0.320,-5.337
0.247,0.039,0.320,-5.337
0.243,0.039,0.322,-5.337
0.237,0.037,0.319,-5.337
0.221,0.040,0.317,-5.337
0.168,0.042,0.322,-5.337
0.205,0.043,0.324,-5.337
0.232,0.044,0.324,-5.337
0.230,0.044,0.321,-5.337
0.195,0.047,0.320,-5.337
0.148,0.043,0.321,-5.337
0.154,0.042,0.324,-5.337
0.153,0.041,0.325,-5.337
0.190,0.040,0.328,-5.337
0.232,0.040,0.329,-5.337
0.164,0.042,0.326,-5.337
0.103,0.040,0.320,-5.337
0.146,0.035,0.319,-5.337
0.176,0.036,0.318,-5.337
0.129,0.040,0.319,-5.337
0.159,0.038,0.318,-5.337
0.241,0.035,0.322,-5.337
0.302,0.033,0.323,-5.337
0.342,0.037,0.323,-5.337
0.334,0.039,0.322,-5.337
0.294,0.040,0.321,-5.337
0.296,0.041,0.319,-5.337
0.289,0.041,0.318,-5.337
0.252,0.041,0.320,-5.337
0.240,0.044,0.323,-5.337
0.223,0.049,0.319,-5.337
0.257,0.049,0.316,-5.337
0.229,0.049,0.318,-5.337
0.153,0.048,0.321,-5.337
0.206,0.045,0.322,-5.337
0.254,0.043,0.320,-5.337
0.181,0.045,0.320,-5.337
0.233,0.041,0.319,-5.337
0.251,0.038,0.319,-5.337
0.214,0.039,0.321,-5.337
0.156,0.041,0.321,-5.337
0.115,0.039,0.317,-5.337
0.182,0.035,0.316,-5.337
0.230,0.035,0.315,-5.337
0.245,0.035,0.317,-5.337
0.236,0.035,0.319,-5.337
0.235,0.035,0.319,-5.337
0.198,0.037,0.322,-5.337
0.189,0.036,0.322,-5.337
0.236,0.033,0.318,-5.337
0.243,0.037,0.317,-5.337
0.172,0.038,0.321,-5.337
0.132,0.036,0.324,-5.337
0.168,0.032,0.324,-5.337
0.252,0.032,0.322,-5.337
0.262,0.031,0.321,-5.337
0.229,0.032,0.318,-5.337
0.230,0.030,0.314,-5.337
0.293,0.032,0.312,-5.337
0.289,0.031,0.316,-5.337
0.297,0.029,0.321,-5.337
0.186,0.029,0.323,-5.337
0.135,0.031,0.319,-5.337
0.115,0.033,0.318,-5.337
0.161,0.030,0.319,-5.337
0.185,0.032,0.324,-5.337
0.185,0.035,0.325,-5.337
0.195,0.034,0.323,-5.337
0.159,0.036,0.320,-5.337
0.102,0.033,0.314,-5.337
0.154,0.034,0.311,-5.337
0.212,0.035,0.315,-5.337
0.214,0.030,0.323,-5.337
0.228,0.027,0.324,-5.337
0.233,0.027,0.322,-5.337
0.222,0.032,0.321,-5.337
0.251,0.034,0.321,-5.337
0.273,0.035,0.323,-5.337
0.203,0.034,0.322,-5.337
0.212,0.034,0.319,-5.337
0.264,0.036,0.320,-5.337
0.302,0.034,0.318,-5.337
0.186,0.032,0.314,-5.337
0.169,0.032,0.313,-5.337
0.193,0.039,0.319,-5.337
0.150,0.037,0.326,-5.337
0.156,0.032,0.327,-5.337
0.190,0.032,0.320,-5.337
0.169,0.035,0.319,-5.337
0.104,0.033,0.323,-5.337
0.121,0.033,0.326,-5.337
0.146,0.032,0.322,-5.337
0.209,0.031,0.319,-5.337
0.206,0.034,0.320,-5.337
0.128,0.035,0.319,-5.337
0.164,0.030,0.318,-5.337
0.172,0.031,0.318,-5.337
0.159,0.032,0.320,-5.337
0.232,0.029,0.322,-5.337
0.257,0.029,0.323,-5.337
0.237,0.029,0.323,-5.337
0.282,0.026,0.322,-5.337
0.303,0.028,0.322,-5.337
0.213,0.029,0.321,-5.337
0.171,0.029,0.319,-5.337
0.184,0.033,0.319,-5.337
0.216,0.033,0.320,-5.337
0.184,0.033,0.322,-5.337
0.187,0.034,0.320,-5.337
0.218,0.034,0.320,-5.337
0.220,0.033,0.321,-5.337
0.170,0.037,0.325,-5.337
0.196,0.035,0.324,-5.337
0.210,0.033,0.323,-5.337
0.136,0.034,0.321,-5.337
0.104,0.033,0.318,-5.337
0.156,0.034,0.317,-5.337
0.252,0.035,0.320,-5.337
0.230,0.038,0.320,-5.337
0.201,0.040,0.316,-5.337
0.154,0.035,0.314,-5.337
0.171,0.034,0.315,-5.337
0.216,0.033,0.315,-5.337
0.252,0.036,0.319,-5.337
0.224,0.038,0.324,-5.337
0.169,0.037,0.327,-5.337
0.195,0.032,0.323,-5.337
0.256,0.033,0.316,-5.337
0.260,0.036,0.316,-5.337
0.184,0.037,0.320,-5.337
0.195,0.033,0.327,-5.337
0.209,0.034,0.324,-5.337
0.210,0.036,0.317,-5.337
0.241,0.037,0.316,-5.337
0.220,0.039,0.319,-5.337
0.191,0.036,0.318,-5.337
0.203,0.032,0.317,-5.337
0.304,0.029,0.317,-5.337
0.284,0.028,0.319,-5.337
0.197,0.029,0.320,-5.337
0.143,0.034,0.319,-5.337
0.112,0.033,0.319,-5.337
0.193,0.034,0.320,-5.337
0.311,0.029,0.315,-5.337
0.358,0.032,0.315,-5.337
0.262,0.034,0.317,-5.337
0.205,0.038,0.317,-5.337
0.162,0.038,0.316,-5.337
0.177,0.031,0.320,-5.337
0.208,0.029,0.323,-5.337
0.228,0.027,0.322,-5.337
0.174,0.028,0.320,-5.337
0.213,0.029,0.323,-5.337
0.228,0.030,0.324,-5.337
0.187,0.033,0.322,-5.337
0.131,0.032,0.317,-5.337
0.152,0.029,0.314,-5.337
0.200,0.031,0.317,-5.337
0.239,0.034,0.318,-5.337
0.250,0.039,0.322,-5.337
0.241,0.040,0.321,-5.337
0.170,0.037,0.321,-5.337
0.151,0.034,0.318,-5.337
0.153,0.031,0.317,-5.337
0.216,0.032,0.317,-5.337
0.183,0.035,0.320,-5.337
0.154,0.034,0.322,-5.337
0.201,0.031,0.319,-5.337
0.225,0.033,0.318,-5.337
0.217,0.032,0.315,-5.337
0.195,0.029,0.319,-5.337
0.157,0.029,0.322,-5.337
0.112,0.031,0.321,-5.337
0.133,0.033,0.319,-5.337
0.235,0.026,0.320,-5.337
0.240,0.024,0.323,-5.337
0.201,0.028,0.325,-5.337
0.206,0.032,0.318,-5.337
0.234,0.033,0.315,-5.337
0.231,0.031,0.313,-5.337
0.184,0.028,0.314,-5.337
0.227,0.027,0.314,-5.337
0.246,0.029,0.322,-5.337
0.240,0.028,0.323,-5.337
0.228,0.028,0.316,-5.337
0.165,0.030,0.312,-5.337
0.133,0.029,0.313,-5.337
0.133,0.030,0.316,-5.337
0.170,0.030,0.318,-5.337
0.225,0.031,0.320,-5.337
0.230,0.031,0.324,-5.337
0.222,0.028,0.322,-5.337
0.209,0.031,0.318,-5.337
0.206,0.037,0.318,-5.337
0.192,0.038,0.320,-5.337
0.174,0.036,0.320,-5.337
0.188,0.032,0.322,-5.337
0.239,0.031,0.325,-5.337
0.162,0.035,0.321,-5.337
0.159,0.036,0.322,-5.337
0.198,0.033,0.319,-5.337
0.164,0.032,0.315,-5.337
0.166,0.031,0.314,-5.337
0.205,0.032,0.317,-5.337
0.159,0.034,0.316,-5.337
0.194,0.032,0.316,-5.337
0.194,0.034,0.316,-5.337
0.237,0.036,0.317,-5.337
0.318,0.034,0.320,-5.337
0.254,0.034,0.318,-5.337
0.135,0.034,0.314,-5.337
0.182,0.034,0.314,-5.337
0.232,0.035,0.315,-5.337
0.220,0.033,0.318,-5.337
0.206,0.033,0.319,-5.337
0.131,0.036,0.319,-5.337
0.074,0.037,0.320,-5.337
0.125,0.036,0.322,-5.337
0.170,0.035,0.321,-5.337
0.165,0.038,0.313,-5.337
0.117,0.040,0.313,-5.337
0.163,0.040,0.318,-5.337
0.187,0.037,0.322,-5.337
0.173,0.036,0.324,-5.337
0.184,0.032,0.322,-5.337
0.194,0.031,0.317,-5.337
0.191,0.033,0.314,-5.337
0.236,0.031,0.317,-5.337
0.251,0.031,0.320,-5.337
0.218,0.032,0.320,-5.337
0.207,0.036,0.322,-5.337
0.193,0.032,0.323,-5.337
0.173,0.033,0.325,-5.337
0.222,0.029,0.323,-5.337
0.303,0.032,0.319,-5.337
0.255,0.034,0.319,-5.337
0.204,0.033,0.320,-5.337
0.189,0.034,0.315,-5.337
0.204,0.036,0.314,-5.337
0.108,0.036,0.316,-5.337
0.089,0.039,0.319,-5.337
0.137,0.041,0.318,-5.337
0.185,0.045,0.318,-5.337
0.164,0.046,0.320,-5.337
0.160,0.043,0.323,-5.337
0.124,0.041,0.327,-5.337
0.082,0.041,0.324,-5.337
0.130,0.040,0.321,-5.337
0.232,0.041,0.321,-5.337
0.220,0.042,0.322,-5.337
0.164,0.041,0.321,-5.337
0.170,0.038,0.323,-5.337
0.125,0.042,0.323,-5.337
0.081,0.042,0.321,-5.337
0.144,0.040,0.318,-5.337
0.196,0.039,0.315,-5.337
0.188,0.038,0.313,-5.337
0.239,0.040,0.316,-5.337
0.276,0.040,0.319,-5.337
0.279,0.040,0.323,-5.337
0.290,0.041,0.325,-5.337
0.251,0.042,0.325,-5.337
0.180,0.043,0.321,-5.337
0.127,0.042,0.318,-5.337
0.117,0.044,0.319,-5.337
0.141,0.043,0.317,-5.337
0.162,0.045,0.322,-5.337
0.177,0.045,0.327,-5.337
0.197,0.043,0.326,-5.337
0.218,0.043,0.320,-5.337
0.187,0.042,0.323,-5.337
0.184,0.042,0.328,-5.337
0.253,0.041,0.328,-5.337
0.283,0.039,0.321,-5.337
0.256,0.039,0.314,-5.337
0.248,0.039,0.310,-5.337
0.272,0.042,0.312,-5.337
0.276,0.045,0.315,-5.337
0.261,0.046,0.316,-5.337
0.199,0.044,0.316,-5.337
0.193,0.042,0.319,-5.337
0.268,0.041,0.321,-5.337
0.242,0.047,0.323,-5.337
0.185,0.047,0.325,-5.337
0.205,0.043,0.326,-5.337
0.257,0.041,0.325,-5.337
0.279,0.044,0.321,-5.337
0.230,0.048,0.320,-5.337
0.166,0.050,0.314,-5.337
0.192,0.049,0.314,-5.337
0.258,0.048,0.318,-5.337
0.280,0.049,0.320,-5.337
0.250,0.050,0.318,-5.337
0.185,0.052,0.318,-5.337
0.134,0.053,0.318,-5.337
0.137,0.055,0.320,-5.337
0.148,0.052,0.320,-5.337
0.119,0.049,0.317,-5.337
0.182,0.047,0.315,-5.337
0.153,0.051,0.315,-5.337
0.165,0.052,0.318,-5.337
0.189,0.050,0.319,-5.337
0.168,0.049,0.321,-5.337
0.092,0.049,0.324,-5.337
0.038,0.051,0.319,-5.337
0.104,0.052,0.317,-5.337
0.208,0.051,0.316,-5.337
0.184,0.053,0.319,-5.337
0.156,0.049,0.322,-5.337
0.155,0.048,0.321,-5.337
0.158,0.048,0.320,-5.337
0.131,0.050,0.319,-5.337
0.126,0.048,0.318,-5.337
0.202,0.045,0.317,-5.337
0.181,0.046,0.317,-5.337
0.171,0.047,0.317,-5.337
0.146,0.048,0.318,-5.337
0.171,0.047,0.317,-5.337
0.194,0.050,0.316,-5.337
0.212,0.051,0.314,-5.337
0.193,0.051,0.317,-5.337
0.204,0.052,0.322,-5.337
0.150,0.055,0.318,-5.337
0.141,0.052,0.317,-5.337
0.210,0.050,0.318,-5.337
0.345,0.046,0.318,-5.337
0.314,0.047,0.319,-5.337
0.219,0.044,0.319,-5.337
0.172,0.047,0.318,-5.337
0.159,0.050,0.315,-5.337
0.201,0.053,0.316,-5.337
0.200,0.053,0.317,-5.337
0.118,0.052,0.319,-5.337
0.151,0.052,0.322,-5.337
0.209,0.055,0.321,-5.337
0.214,0.054,0.317,-5.337
0.212,0.052,0.316,-5.337
0.238,0.052,0.318,-5.337
0.263,0.052,0.320,-5.337
0.272,0.052,0.322,-5.337
0.204,0.055,0.321,-5.337
0.153,0.055,0.317,-5.337
0.186,0.053,0.314,-5.337
0.195,0.051,0.315,-5.337
0.201,0.050,0.314,-5.337
0.198,0.053,0.317,-5.337
0.185,0.052,0.320,-5.337
0.181,0.051,0.319,-5.337
0.174,0.052,0.321,-5.337
0.219,0.054,0.324,-5.337
0.224,0.052,0.326,-5.337
0.228,0.052,0.324,-5.337
0.265,0.051,0.319,-5.337
0.253,0.054,0.318,-5.337
0.192,0.056,0.316,-5.337
0.206,0.055,0.317,-5.337
0.155,0.056,0.317,-5.337
0.117,0.057,0.317,-5.337
0.136,0.056,0.319,-5.337
0.193,0.059,0.323,-5.337
0.173,0.057,0.325,-5.337
0.157,0.054,0.320,-5.337
0.203,0.054,0.316,-5.337
0.185,0.054,0.315,-5.337
0.238,0.054,0.319,-5.337
0.219,0.056,0.319,-5.337
0.141,0.055,0.317,-5.337
0.146,0.053,0.318,-5.337
0.200,0.052,0.323,-5.337
0.169,0.052,0.325,-5.337
0.091,0.053,0.322,-5.337
0.071,0.051,0.320,-5.337
0.123,0.055,0.321,-5.337
0.119,0.055,0.321,-5.337
0.120,0.058,0.321,-5.337
0.166,0.056,0.317,-5.337
0.247,0.055,0.317,-5.337
0.264,0.055,0.315,-5.337
0.244,0.057,0.315,-5.337
0.231,0.060,0.319,-5.337
0.214,0.061,0.320,-5.337
0.199,0.061,0.319,-5.337
0.145,0.058,0.317,-5.337
0.157,0.059,0.318,-5.337
0.207,0.058,0.318,-5.337
0.223,0.056,0.322,-5.337
0.210,0.056,0.322,-5.337
0.229,0.054,0.321,-5.337
0.228,0.057,0.319,-5.337
0.204,0.061,0.317,-5.337
0.226,0.057,0.316,-5.337
0.204,0.057,0.321,-5.337
0.152,0.056,0.323,-5.337
0.181,0.057,0.324,-5.337
0.189,0.056,0.321,-5.337
0.161,0.057,0.317,-5.337
0.123,0.056,0.316,-5.337
0.082,0.054,0.320,-5.337
0.104,0.054,0.321,-5.337
0.134,0.054,0.318,-5.337
0.164,0.055,0.318,-5.337
0.168,0.055,0.315,-5.337
0.105,0.057,0.311,-5.337
0.095,0.061,0.311,-5.337
0.202,0.058,0.318,-5.337
0.206,0.058,0.323,-5.337
0.194,0.061,0.324,-5.337
0.205,0.061,0.323,-5.337
0.169,0.059,0.321,-5.337
0.138,0.060,0.317,-5.337
0.192,0.060,0.318,-5.337
0.228,0.059,0.318,-5.337
0.255,0.060,0.318,-5.337
0.171,0.061,0.316,-5.337
0.127,0.063,0.317,-5.337
0.194,0.064,0.319,-5.337
0.158,0.063,0.321,-5.337
0.167,0.058,0.316,-5.337
0.238,0.058,0.312,-5.337
0.265,0.055,0.314,-5.337
0.245,0.055,0.317,-5.337
0.264,0.053,0.317,-5.337
0.262,0.056,0.317,-5.337
0.151,0.056,0.317,-5.337
0.069,0.057,0.318,-5.337
0.112,0.057,0.319,-5.337
0.223,0.055,0.317,-5.337
0.273,0.053,0.314,-5.337
0.314,0.052,0.315,-5.337
0.317,0.052,0.317,-5.337
0.246,0.054,0.318,-5.337
0.193,0.054,0.324,-5.337
0.177,0.051,0.328,-5.337
0.238,0.046,0.325,-5.337
0.227,0.044,0.314,-5.337
0.205,0.049,0.311,-5.337
0.230,0.045,0.313,-5.337
0.251,0.044,0.317,-5.337
0.236,0.049,0.320,-5.337
0.217,0.051,0.321,-5.337
0.252,0.049,0.321,-5.337
0.259,0.049,0.323,-5.337
0.308,0.048,0.318,-5.337
0.261,0.050,0.311,-5.337
0.243,0.047,0.312,-5.337
0.210,0.049,0.316,-5.337
0.150,0.051,0.319,-5.337
0.151,0.052,0.320,-5.337
0.164,0.052,0.321,-5.337
0.188,0.050,0.319,-5.337
0.212,0.053,0.319,-5.337
0.208,0.052,0.316,-5.337
0.215,0.051,0.315,-5.337
0.235,0.048,0.312,-5.337
0.212,0.049,0.317,-5.337
0.151,0.051,0.321,-5.337
0.126,0.048,0.323,-5.337
0.253,0.046,0.322,-5.337
0.315,0.047,0.319,-5.337
0.271,0.045,0.316,-5.337
0.218,0.049,0.314,-5.337
0.245,0.049,0.316,-5.337
0.297,0.048,0.319,-5.337
0.289,0.046,0.322,-5.337
0.295,0.046,0.323,-5.337
0.242,0.047,0.319,-5.337
0.251,0.049,0.316,-5.337
0.284,0.048,0.313,-5.337
0.256,0.050,0.315,-5.337
0.180,0.052,0.318,-5.337
0.159,0.052,0.318,-5.337
0.096,0.053,0.315,-5.337
0.053,0.053,0.314,-5.337
0.095,0.051,0.318,-5.337
0.174,0.050,0.317,-5.337
0.211,0.049,0.320,-5.337
0.192,0.049,0.317,-5.337
0.147,0.050,0.316,-5.337
0.133,0.049,0.317,-5.337
0.167,0.049,0.322,-5.337
0.184,0.045,0.324,-5.337
0.166,0.047,0.322,-5.337
0.225,0.047,0.319,-5.337
0.322,0.048,0.315,-5.337
