[Parameters]
Operating Mode, Feedback
Subject  AA..ZZ, WT
Session  0..99, 42
No. Trials (1..9999), 500
Mouse Number, 1
Pressure Probe Serial Port, \00\00\00\04COM4
Save additional csv file, TRUE
Save using mouse number, FALSE
A/D Monitor Rate (Hz), 30000.000000
A/D Stimulate Rate (Hz), 30000.000000
A/D input range (+/- V), 5
No. Channels to acquire (N), 2
Pre-Stim Acq. time (ms), 100.000000
Post-Stim Acq. time (ms), 900.000000
Analysis window parameters.M-response Start (ms), 1.100000
Analysis window parameters.M-response Duration (ms), 5.500000
Analysis window parameters.H-response Duration (ms), 6.000000
Analysis window parameters.H-response Start (ms), 6.500000
Feedback window, H response
Proportional gain, 0.100000
Target value, 6.700000
Feedback Ch., 1
Stim Channel to Control (1-4), 4
Trial, 23
Wait for EMG Conditions, FALSE
Channel to monitor (0 - N-1), 1
EMG Hi Limit, 2.000000
EMG Lo Limit, 0.001000
Inter-Stim delay (sec), 10.000000
EMG Monitor Mode, Mean
Time to run Long Stim.(sec), 30
Save Long Stim Data?, OFF
BURST Save time (ms), 1000
BURST Save Interval (x above), 10
Long-Stim. Rep. Rate (Hz), 10.000000
Stim type cluster array.<size(s)>, 4
Stim type cluster array 0.Stimulus Output, Electrical
Stim type cluster array 1.Stimulus Output, OFF
Stim type cluster array 2.Stimulus Output, OFF
Stim type cluster array 3.Stimulus Output, Motor Length
Stim specs cluster array.<size(s)>, 4
Stim specs cluster array 0.Initial Stimulus ampl., 0.300000
Stim specs cluster array 0.Maximum Stimulus, 1.120000
Stim specs cluster array 0.#Pulses in train, 4
Stim specs cluster array 0.Peak Level time (ms), 1.000000
Stim specs cluster array 0.Total pulse period (ms), 150.000000
Stim specs cluster array 0.Start Delay (ms), -50.000000
Stim specs cluster array 0.Pulse Shape, Square
Stim specs cluster array 0.Ramp/Rel. time (ms), 0.100000
Stim specs cluster array 0.Peak Amplitude (V), 0.120000
Stim specs cluster array 1.Initial Stimulus ampl., 0.000000
Stim specs cluster array 1.Maximum Stimulus, 0.000000
Stim specs cluster array 1.#Pulses in train, 3
Stim specs cluster array 1.Peak Level time (ms), 29.000000
Stim specs cluster array 1.Total pulse period (ms), 200.000000
Stim specs cluster array 1.Start Delay (ms), 0.000000
Stim specs cluster array 1.Pulse Shape, Square
Stim specs cluster array 1.Ramp/Rel. time (ms), 0.000000
Stim specs cluster array 1.Peak Amplitude (V), 2.000000
Stim specs cluster array 2.Initial Stimulus ampl., 0.000000
Stim specs cluster array 2.Maximum Stimulus, 0.000000
Stim specs cluster array 2.#Pulses in train, 1
Stim specs cluster array 2.Peak Level time (ms), 25.000000
Stim specs cluster array 2.Total pulse period (ms), 200.000000
Stim specs cluster array 2.Start Delay (ms), 0.000000
Stim specs cluster array 2.Pulse Shape, Square
Stim specs cluster array 2.Ramp/Rel. time (ms), 20.000000
Stim specs cluster array 2.Peak Amplitude (V), 10.000000
Stim specs cluster array 3.Initial Stimulus ampl., 0.000000
Stim specs cluster array 3.Maximum Stimulus, 20.000000
Stim specs cluster array 3.#Pulses in train, 25
Stim specs cluster array 3.Peak Level time (ms), 0.100000
Stim specs cluster array 3.Total pulse period (ms), 4.000000
Stim specs cluster array 3.Start Delay (ms), 205.000000
Stim specs cluster array 3.Pulse Shape, Triangle
Stim specs cluster array 3.Ramp/Rel. time (ms), 3.000000
Stim specs cluster array 3.Peak Amplitude (V), 0.500000
Force cal. (mN/Volt), 100.000000
Force Range (mN), 100.000000
Length cal. (mm/Volt), 10.000000
Length Range (mm), 10.000000
Stim. 1, 0.300000
Stim. 2, 0.000000
Stim. 3, 0.000000
Stim. 4, 0.000000
Monitor acquire time (ms), 100.000000
EMG graph Ymax, 0.100000
Travel limit (mm), 20.000000
Use Pressure Probe, FALSE
Pressure goal (g), 100
Speed (mm/sec), 5.000000
Dwell time (ms), 100.000000
Pressure limit (g), 500.000000
Channel amplitude offset, 0.000000

[DATA]

0.215,0.042,0.353,-5.337
0.284,0.041,0.353,-5.337
0.289,0.049,0.353,-5.337
0.155,0.052,0.354,-5.337
0.157,0.049,0.352,-5.337
0.232,0.049,0.354,-5.337
0.241,0.052,0.353,-5.337
0.219,0.055,0.353,-5.337
0.204,0.052,0.355,-5.337
0.157,0.053,0.355,-5.337
0.118,0.054,0.355,-5.337
0.097,0.051,0.354,-5.337
0.160,0.049,0.354,-5.337
0.182,0.048,0.354,-5.337
0.153,0.045,0.355,-5.337
0.141,0.047,0.355,-5.337
0.168,0.046,0.354,-5.337
0.204,0.042,0.352,-5.337
0.205,0.043,0.350,-5.337
0.223,0.041,0.351,-5.337
0.273,0.042,0.354,-5.337
0.224,0.044,0.353,-5.337
0.153,0.048,0.351,-5.337
0.202,0.047,0.351,-5.337
0.258,0.047,0.353,-5.337
0.223,0.047,0.353,-5.337
0.071,0.051,0.356,-5.337
0.155,0.050,0.357,-5.337
0.250,0.050,0.356,-5.337
0.200,0.048,0.358,-5.337
0.100,0.045,0.354,-5.337
0.113,0.048,0.351,-5.337
0.176,0.049,0.350,-5.337
0.167,0.048,0.350,-5.337
0.152,0.046,0.351,-5.337
0.144,0.049,0.354,-5.337
0.128,0.049,0.354,-5.337
0.135,0.047,0.354,-5.337
0.173,0.049,0.354,-5.337
0.197,0.049,0.353,-5.337
0.210,0.046,0.349,-5.337
0.205,0.049,0.348,-5.337
0.201,0.050,0.350,-5.337
0.201,0.046,0.354,-5.337
0.305,0.041,0.356,-5.337
0.361,0.044,0.357,-5.337
0.287,0.047,0.355,-5.337
0.269,0.047,0.352,-5.337
0.262,0.046,0.349,-5.337
0.249,0.051,0.351,-5.337
0.177,0.051,0.351,-5.337
0.175,0.050,0.352,-5.337
0.162,0.053,0.347,-5.337
0.215,0.053,0.347,-5.337
0.249,0.053,0.350,-5.337
0.145,0.054,0.356,-5.337
0.059,0.057,0.359,-5.337
0.061,0.057,0.356,-5.337
0.102,0.054,0.354,-5.337
0.079,0.053,0.354,-5.337
0.145,0.053,0.356,-5.337
0.195,0.054,0.355,-5.337
0.279,0.051,0.353,-5.337
0.279,0.054,0.350,-5.337
0.167,0.060,0.350,-5.337
0.053,0.058,0.353,-5.337
0.075,0.057,0.355,-5.337
0.190,0.055,0.354,-5.337
0.259,0.053,0.350,-5.337
0.219,0.056,0.348,-5.337
0.211,0.058,0.351,-5.337
0.201,0.060,0.355,-5.337
0.219,0.060,0.357,-5.337
0.223,0.058,0.356,-5.337
0.238,0.057,0.355,-5.337
0.261,0.056,0.353,-5.337
0.244,0.055,0.353,-5.337
0.161,0.058,0.354,-5.337
0.193,0.057,0.357,-5.337
0.256,0.058,0.359,-5.337
0.222,0.054,0.356,-5.337
0.264,0.053,0.350,-5.337
0.215,0.056,0.344,-5.337
0.158,0.056,0.349,-5.337
0.170,0.055,0.352,-5.337
0.227,0.055,0.356,-5.337
0.247,0.056,0.356,-5.337
0.153,0.060,0.355,-5.337
0.055,0.061,0.351,-5.337
0.089,0.058,0.349,-5.337
0.204,0.055,0.351,-5.337
0.222,0.056,0.354,-5.337
0.200,0.058,0.354,-5.337
0.193,0.057,0.350,-5.337
0.189,0.056,0.347,-5.337
0.169,0.058,0.350,-5.337
0.132,0.060,0.352,-5.337
0.166,0.061,0.350,-5.337
0.202,0.061,0.348,-5.337
0.195,0.056,0.349,-5.337
0.228,0.055,0.351,-5.337
0.235,0.059,0.352,-5.337
0.227,0.059,0.355,-5.337
0.212,0.058,0.356,-5.337
0.177,0.055,0.356,-5.337
0.217,0.052,0.352,-5.337
0.200,0.051,0.352,-5.337
0.162,0.053,0.352,-5.337
0.135,0.056,0.353,-5.337
0.204,0.052,0.352,-5.337
0.263,0.051,0.351,-5.337
0.248,0.051,0.352,-5.337
0.230,0.055,0.351,-5.337
0.195,0.060,0.351,-5.337
0.200,0.061,0.354,-5.337
0.241,0.059,0.355,-5.337
0.208,0.058,0.350,-5.337
0.119,0.058,0.346,-5.337
0.121,0.058,0.347,-5.337
0.199,0.056,0.350,-5.337
0.206,0.056,0.352,-5.337
0.149,0.058,0.354,-5.337
0.191,0.055,0.357,-5.337
0.235,0.057,0.354,-5.337
0.249,0.059,0.350,-5.337
0.232,0.056,0.352,-5.337
0.167,0.055,0.355,-5.337
0.229,0.054,0.356,-5.337
0.319,0.055,0.352,-5.337
0.329,0.057,0.348,-5.337
0.180,0.060,0.347,-5.337
0.104,0.061,0.350,-5.337
0.133,0.062,0.354,-5.337
0.153,0.062,0.357,-5.337
0.227,0.057,0.357,-5.337
0.236,0.056,0.355,-5.337
0.238,0.058,0.352,-5.337
0.233,0.058,0.355,-5.337
0.279,0.056,0.359,-5.337
0.205,0.058,0.358,-5.337
0.151,0.060,0.354,-5.337
0.097,0.063,0.350,-5.337
0.044,0.061,0.351,-5.337
0.075,0.060,0.352,-5.337
0.194,0.057,0.353,-5.337
0.209,0.060,0.349,-5.337
0.152,0.063,0.353,-5.337
0.105,0.060,0.354,-5.337
0.155,0.057,0.354,-5.337
0.199,0.057,0.351,-5.337
0.268,0.059,0.351,-5.337
0.266,0.058,0.349,-5.337
0.192,0.057,0.350,-5.337
0.136,0.057,0.351,-5.337
0.135,0.063,0.352,-5.337
0.115,0.062,0.351,-5.337
0.101,0.061,0.349,-5.337
0.116,0.056,0.350,-5.337
0.142,0.057,0.353,-5.337
0.199,0.059,0.354,-5.337
0.215,0.059,0.355,-5.337
0.232,0.060,0.353,-5.337
0.222,0.060,0.352,-5.337
0.229,0.061,0.351,-5.337
0.277,0.059,0.349,-5.337
0.285,0.057,0.348,-5.337
0.232,0.058,0.350,-5.337
0.207,0.056,0.353,-5.337
0.203,0.057,0.353,-5.337
0.245,0.053,0.349,-5.337
0.274,0.054,0.345,-5.337
0.261,0.056,0.348,-5.337
0.234,0.058,0.354,-5.337
0.190,0.059,0.355,-5.337
0.195,0.057,0.353,-5.337
0.224,0.058,0.352,-5.337
0.229,0.060,0.350,-5.337
0.222,0.055,0.350,-5.337
0.173,0.054,0.352,-5.337
0.110,0.056,0.355,-5.337
0.146,0.055,0.355,-5.337
0.196,0.056,0.356,-5.337
0.221,0.055,0.353,-5.337
0.166,0.056,0.353,-5.337
0.122,0.056,0.352,-5.337
0.152,0.060,0.351,-5.337
0.181,0.059,0.351,-5.337
0.228,0.057,0.353,-5.337
0.185,0.058,0.353,-5.337
0.136,0.058,0.351,-5.337
0.105,0.061,0.349,-5.337
0.121,0.059,0.345,-5.337
0.230,0.059,0.349,-5.337
0.241,0.061,0.351,-5.337
0.257,0.061,0.354,-5.337
0.258,0.062,0.352,-5.337
0.285,0.061,0.351,-5.337
0.281,0.060,0.352,-5.337
0.256,0.059,0.352,-5.337
0.239,0.061,0.352,-5.337
0.245,0.061,0.350,-5.337
0.264,0.059,0.350,-5.337
0.250,0.058,0.352,-5.337
0.142,0.057,0.352,-5.337
0.132,0.059,0.350,-5.337
0.205,0.061,0.350,-5.337
0.182,0.059,0.352,-5.337
0.199,0.055,0.354,-5.337
0.239,0.057,0.350,-5.337
0.236,0.058,0.347,-5.337
0.226,0.057,0.348,-5.337
0.199,0.062,0.352,-5.337
0.196,0.061,0.353,-5.337
0.274,0.056,0.353,-5.337
0.326,0.056,0.352,-5.337
0.308,0.060,0.351,-5.337
0.297,0.056,0.353,-5.337
0.305,0.054,0.357,-5.337
0.165,0.055,0.356,-5.337
0.065,0.058,0.355,-5.337
0.138,0.057,0.354,-5.337
0.182,0.056,0.355,-5.337
0.163,0.056,0.352,-5.337
0.177,0.059,0.350,-5.337
0.194,0.060,0.352,-5.337
0.217,0.060,0.351,-5.337
0.215,0.059,0.354,-5.337
0.191,0.061,0.354,-5.337
0.208,0.060,0.351,-5.337
0.218,0.061,0.351,-5.337
0.278,0.058,0.351,-5.337
0.318,0.057,0.351,-5.337
0.270,0.060,0.347,-5.337
0.185,0.061,0.345,-5.337
0.200,0.060,0.347,-5.337
0.198,0.064,0.349,-5.337
0.172,0.065,0.356,-5.337
0.183,0.063,0.357,-5.337
0.192,0.064,0.354,-5.337
0.237,0.062,0.351,-5.337
0.295,0.062,0.352,-5.337
0.325,0.061,0.354,-5.337
0.264,0.060,0.356,-5.337
0.240,0.061,0.352,-5.337
0.242,0.060,0.351,-5.337
0.189,0.058,0.353,-5.337
0.120,0.061,0.351,-5.337
0.074,0.060,0.350,-5.337
0.042,0.063,0.355,-5.337
-0.004,0.064,0.355,-5.337
0.060,0.062,0.349,-5.337
0.149,0.057,0.344,-5.337
0.249,0.056,0.348,-5.337
0.293,0.056,0.354,-5.337
0.219,0.060,0.354,-5.337
0.162,0.059,0.349,-5.337
0.198,0.055,0.346,-5.337
0.210,0.058,0.348,-5.337
0.227,0.060,0.353,-5.337
0.257,0.059,0.355,-5.337
0.271,0.054,0.353,-5.337
0.286,0.052,0.351,-5.337
0.252,0.054,0.354,-5.337
0.171,0.052,0.353,-5.337
0.161,0.055,0.351,-5.337
0.123,0.055,0.352,-5.337
0.112,0.053,0.352,-5.337
0.181,0.050,0.355,-5.337
0.265,0.043,0.354,-5.337
0.268,0.044,0.350,-5.337
0.173,0.046,0.347,-5.337
0.127,0.047,0.351,-5.337
0.129,0.050,0.352,-5.337
0.123,0.051,0.351,-5.337
0.161,0.052,0.348,-5.337
0.191,0.052,0.347,-5.337
0.170,0.051,0.353,-5.337
0.265,0.048,0.354,-5.337
0.304,0.051,0.353,-5.337
0.248,0.057,0.351,-5.337
0.203,0.054,0.351,-5.337
0.169,0.051,0.351,-5.337
0.236,0.053,0.350,-5.337
0.257,0.054,0.351,-5.337
0.146,0.057,0.356,-5.337
0.055,0.055,0.355,-5.337
0.135,0.052,0.352,-5.337
0.214,0.050,0.351,-5.337
0.166,0.054,0.353,-5.337
0.093,0.050,0.356,-5.337
0.114,0.050,0.355,-5.337
0.111,0.052,0.349,-5.337
0.119,0.049,0.349,-5.337
0.165,0.047,0.353,-5.337
0.125,0.047,0.355,-5.337
0.074,0.047,0.353,-5.337
0.155,0.043,0.353,-5.337
0.286,0.044,0.355,-5.337
0.294,0.047,0.352,-5.337
0.186,0.050,0.350,-5.337
0.222,0.049,0.349,-5.337
0.330,0.047,0.350,-5.337
0.314,0.049,0.354,-5.337
0.225,0.048,0.355,-5.337
0.242,0.045,0.354,-5.337
0.308,0.046,0.352,-5.337
0.264,0.047,0.351,-5.337
0.229,0.047,0.354,-5.337
0.229,0.048,0.355,-5.337
0.241,0.047,0.356,-5.337
0.288,0.047,0.355,-5.337
0.282,0.049,0.355,-5.337
0.199,0.049,0.354,-5.337
0.181,0.050,0.351,-5.337
0.284,0.047,0.352,-5.337
0.268,0.052,0.356,-5.337
0.184,0.050,0.355,-5.337
0.156,0.046,0.353,-5.337
0.228,0.045,0.352,-5.337
0.229,0.049,0.352,-5.337
0.190,0.047,0.351,-5.337
0.229,0.042,0.349,-5.337
0.152,0.043,0.350,-5.337
0.119,0.043,0.349,-5.337
0.131,0.043,0.349,-5.337
0.120,0.046,0.351,-5.337
0.075,0.049,0.357,-5.337
0.018,0.051,0.358,-5.337
0.067,0.049,0.355,-5.337
0.088,0.048,0.354,-5.337
0.147,0.049,0.354,-5.337
0.166,0.048,0.353,-5.337
0.145,0.048,0.353,-5.337
0.200,0.045,0.354,-5.337
0.190,0.044,0.353,-5.337
0.158,0.047,0.352,-5.337
0.167,0.047,0.349,-5.337
0.218,0.047,0.351,-5.337
0.255,0.048,0.358,-5.337
0.278,0.043,0.360,-5.337
0.292,0.045,0.357,-5.337
0.277,0.046,0.354,-5.337
0.235,0.044,0.350,-5.337
0.263,0.046,0.347,-5.337
0.287,0.049,0.348,-5.337
0.251,0.049,0.351,-5.337
0.160,0.045,0.351,-5.337
0.122,0.044,0.352,-5.337
0.168,0.043,0.355,-5.337
0.153,0.046,0.358,-5.337
0.097,0.045,0.355,-5.337
0.085,0.044,0.353,-5.337
0.150,0.043,0.349,-5.337
0.243,0.043,0.351,-5.337
0.255,0.043,0.351,-5.337
0.193,0.042,0.352,-5.337
0.206,0.041,0.352,-5.337
0.224,0.042,0.350,-5.337
0.239,0.045,0.349,-5.337
0.252,0.049,0.352,-5.337
0.226,0.044,0.355,-5.337
0.232,0.044,0.357,-5.337
0.304,0.044,0.359,-5.337
0.255,0.045,0.359,-5.337
0.147,0.045,0.356,-5.337
0.217,0.043,0.350,-5.337
0.237,0.042,0.348,-5.337
0.221,0.038,0.353,-5.337
0.166,0.041,0.357,-5.337
0.240,0.042,0.359,-5.337
0.260,0.044,0.355,-5.337
0.170,0.046,0.353,-5.337
0.153,0.044,0.356,-5.337
0.200,0.043,0.356,-5.337
0.179,0.044,0.355,-5.337
0.166,0.042,0.351,-5.337
0.149,0.045,0.351,-5.337
0.170,0.043,0.353,-5.337
0.183,0.043,0.353,-5.337
0.178,0.043,0.351,-5.337
0.138,0.042,0.350,-5.337
0.180,0.040,0.351,-5.337
0.255,0.038,0.347,-5.337
0.237,0.039,0.350,-5.337
0.161,0.040,0.355,-5.337
0.101,0.045,0.356,-5.337
0.161,0.046,0.353,-5.337
0.268,0.043,0.349,-5.337
0.270,0.042,0.348,-5.337
0.205,0.042,0.349,-5.337
0.170,0.040,0.353,-5.337
0.233,0.040,0.356,-5.337
0.270,0.039,0.356,-5.337
0.252,0.037,0.359,-5.337
0.284,0.035,0.356,-5.337
0.263,0.037,0.353,-5.337
0.312,0.037,0.352,-5.337
0.307,0.039,0.354,-5.337
0.282,0.040,0.354,-5.337
0.274,0.039,0.355,-5.337
0.284,0.040,0.350,-5.337
0.236,0.043,0.349,-5.337
0.148,0.043,0.352,-5.337
0.129,0.041,0.353,-5.337
0.214,0.036,0.354,-5.337
0.240,0.041,0.354,-5.337
0.175,0.042,0.355,-5.337
0.103,0.042,0.354,-5.337
0.076,0.041,0.350,-5.337
0.159,0.039,0.348,-5.337
0.248,0.038,0.351,-5.337
0.226,0.036,0.352,-5.337
0.198,0.036,0.350,-5.337
0.199,0.038,0.347,-5.337
0.147,0.040,0.352,-5.337
0.195,0.041,0.353,-5.337
0.267,0.041,0.350,-5.337
0.258,0.042,0.348,-5.337
0.217,0.043,0.349,-5.337
0.185,0.044,0.351,-5.337
0.183,0.042,0.351,-5.337
0.208,0.040,0.352,-5.337
0.251,0.041,0.354,-5.337
0.172,0.044,0.355,-5.337
0.091,0.048,0.355,-5.337
0.103,0.046,0.352,-5.337
0.151,0.047,0.350,-5.337
0.203,0.042,0.350,-5.337
0.196,0.039,0.352,-5.337
0.190,0.039,0.351,-5.337
0.254,0.041,0.350,-5.337
0.273,0.043,0.348,-5.337
0.264,0.041,0.348,-5.337
0.275,0.038,0.347,-5.337
0.248,0.039,0.347,-5.337
0.261,0.041,0.348,-5.337
0.304,0.039,0.348,-5.337
0.224,0.043,0.351,-5.337
0.154,0.044,0.354,-5.337
0.128,0.046,0.352,-5.337
0.180,0.044,0.346,-5.337
0.189,0.041,0.348,-5.337
0.154,0.043,0.352,-5.337
0.151,0.046,0.355,-5.337
0.131,0.043,0.353,-5.337
0.070,0.046,0.351,-5.337
0.083,0.043,0.347,-5.337
0.160,0.043,0.347,-5.337
0.201,0.039,0.349,-5.337
0.172,0.040,0.351,-5.337
0.132,0.040,0.347,-5.337
0.230,0.045,0.347,-5.337
0.303,0.045,0.348,-5.337
0.299,0.045,0.346,-5.337
0.266,0.043,0.345,-5.337
0.229,0.044,0.347,-5.337
0.213,0.046,0.351,-5.337
0.173,0.049,0.358,-5.337
0.201,0.046,0.357,-5.337
0.193,0.046,0.348,-5.337
0.197,0.049,0.341,-5.337
0.179,0.049,0.339,-5.337
0.156,0.050,0.344,-5.337
0.181,0.047,0.351,-5.337
0.195,0.044,0.355,-5.337
0.172,0.041,0.355,-5.337
0.148,0.043,0.356,-5.337
0.201,0.041,0.354,-5.337
0.238,0.042,0.351,-5.337
0.183,0.042,0.345,-5.337
0.081,0.044,0.343,-5.337
0.102,0.043,0.346,-5.337
0.215,0.041,0.348,-5.337
0.233,0.038,0.348,-5.337
0.236,0.038,0.345,-5.337
0.178,0.040,0.346,-5.337
0.173,0.042,0.350,-5.337
0.199,0.038,0.353,-5.337
0.223,0.041,0.351,-5.337
0.194,0.042,0.347,-5.337
0.182,0.043,0.348,-5.337
0.193,0.045,0.350,-5.337
0.225,0.041,0.352,-5.337
0.146,0.043,0.356,-5.337
0.100,0.043,0.356,-5.337
0.118,0.044,0.353,-5.337
0.187,0.042,0.350,-5.337
0.257,0.040,0.348,-5.337
0.228,0.040,0.346,-5.337
0.209,0.041,0.344,-5.337
0.239,0.040,0.344,-5.337
0.242,0.041,0.348,-5.337
0.150,0.042,0.348,-5.337
0.138,0.042,0.346,-5.337
0.164,0.038,0.344,-5.337
0.203,0.037,0.347,-5.337
0.218,0.037,0.348,-5.337
0.167,0.041,0.352,-5.337
0.142,0.040,0.351,-5.337
0.147,0.044,0.351,-5.337
0.222,0.042,0.351,-5.337
0.249,0.044,0.348,-5.337
0.204,0.048,0.348,-5.337
0.240,0.044,0.349,-5.337
0.282,0.045,0.353,-5.337
0.268,0.045,0.349,-5.337
0.242,0.043,0.348,-5.337
0.198,0.044,0.348,-5.337
0.228,0.043,0.347,-5.337
0.292,0.046,0.348,-5.337
0.170,0.049,0.353,-5.337
0.008,0.049,0.352,-5.337
0.007,0.050,0.351,-5.337
0.105,0.053,0.353,-5.337
0.193,0.050,0.351,-5.337
0.233,0.043,0.344,-5.337
0.264,0.042,0.344,-5.337
0.214,0.040,0.346,-5.337
0.193,0.043,0.347,-5.337
0.203,0.043,0.346,-5.337
0.204,0.044,0.347,-5.337
0.170,0.047,0.347,-5.337
0.121,0.049,0.348,-5.337
0.063,0.047,0.347,-5.337
0.099,0.048,0.348,-5.337
0.157,0.050,0.348,-5.337
0.180,0.047,0.348,-5.337
0.158,0.047,0.352,-5.337
0.098,0.044,0.350,-5.337
0.136,0.047,0.351,-5.337
0.232,0.051,0.351,-5.337
0.307,0.048,0.351,-5.337
0.248,0.047,0.351,-5.337
0.189,0.051,0.349,-5.337
0.211,0.050,0.341,-5.337
0.231,0.051,0.342,-5.337
0.240,0.050,0.347,-5.337
0.206,0.050,0.351,-5.337
0.187,0.049,0.350,-5.337
0.254,0.047,0.345,-5.337
0.296,0.048,0.347,-5.337
0.208,0.050,0.349,-5.337
0.202,0.046,0.349,-5.337
0.245,0.047,0.344,-5.337
0.173,0.050,0.344,-5.337
0.176,0.050,0.347,-5.337
0.190,0.050,0.350,-5.337
0.163,0.051,0.349,-5.337
0.136,0.050,0.349,-5.337
0.140,0.051,0.348,-5.337
0.140,0.049,0.346,-5.337
0.215,0.047,0.343,-5.337
0.240,0.049,0.343,-5.337
0.249,0.048,0.348,-5.337
0.270,0.048,0.352,-5.337
0.264,0.047,0.351,-5.337
0.150,0.050,0.351,-5.337
0.111,0.048,0.350,-5.337
0.045,0.053,0.350,-5.337
0.081,0.051,0.347,-5.337
0.253,0.048,0.344,-5.337
0.280,0.050,0.346,-5.337
0.207,0.053,0.350,-5.337
0.163,0.051,0.352,-5.337
0.148,0.052,0.352,-5.337
0.180,0.051,0.347,-5.337
0.166,0.054,0.341,-5.337
0.192,0.054,0.341,-5.337
0.157,0.054,0.345,-5.337
0.149,0.054,0.347,-5.337
0.163,0.053,0.351,-5.337
0.134,0.054,0.352,-5.337
0.149,0.051,0.354,-5.337
0.201,0.053,0.356,-5.337
0.155,0.056,0.356,-5.337
0.118,0.054,0.356,-5.337
0.161,0.053,0.353,-5.337
0.155,0.054,0.352,-5.337
0.115,0.055,0.350,-5.337
0.128,0.053,0.346,-5.337
0.217,0.050,0.345,-5.337
0.244,0.050,0.348,-5.337
0.166,0.051,0.346,-5.337
0.144,0.053,0.341,-5.337
0.129,0.053,0.342,-5.337
0.153,0.050,0.344,-5.337
0.222,0.048,0.345,-5.337
0.197,0.053,0.346,-5.337
0.177,0.054,0.349,-5.337
0.144,0.059,0.355,-5.337
0.133,0.060,0.356,-5.337
0.089,0.061,0.354,-5.337
0.130,0.060,0.352,-5.337
0.193,0.058,0.351,-5.337
0.237,0.056,0.350,-5.337
0.200,0.055,0.346,-5.337
0.097,0.056,0.344,-5.337
0.107,0.056,0.345,-5.337
0.191,0.055,0.348,-5.337
0.167,0.054,0.349,-5.337
0.105,0.056,0.347,-5.337
0.088,0.059,0.344,-5.337
0.120,0.058,0.350,-5.337
0.142,0.057,0.353,-5.337
0.202,0.055,0.354,-5.337
0.153,0.056,0.351,-5.337
0.105,0.058,0.347,-5.337
0.136,0.062,0.349,-5.337
0.131,0.061,0.351,-5.337
0.216,0.054,0.350,-5.337
0.266,0.053,0.349,-5.337
0.215,0.056,0.350,-5.337
0.203,0.056,0.350,-5.337
0.188,0.058,0.350,-5.337
0.197,0.058,0.349,-5.337
0.178,0.059,0.348,-5.337
0.179,0.057,0.347,-5.337
0.137,0.057,0.345,-5.337
0.108,0.055,0.345,-5.337
0.159,0.052,0.346,-5.337
0.179,0.057,0.347,-5.337
0.127,0.055,0.348,-5.337
0.111,0.053,0.352,-5.337
0.115,0.055,0.357,-5.337
0.109,0.056,0.353,-5.337
0.120,0.059,0.349,-5.337
0.166,0.060,0.350,-5.337
0.200,0.063,0.351,-5.337
0.245,0.059,0.348,-5.337
0.263,0.059,0.348,-5.337
0.259,0.060,0.347,-5.337
0.319,0.057,0.347,-5.337
0.350,0.054,0.355,-5.337
0.289,0.057,0.357,-5.337
0.237,0.058,0.351,-5.337
0.366,0.055,0.346,-5.337
0.348,0.054,0.347,-5.337
0.233,0.057,0.347,-5.337
0.163,0.057,0.349,-5.337
0.149,0.061,0.351,-5.337
0.092,0.064,0.349,-5.337
0.025,0.062,0.345,-5.337
0.152,0.058,0.346,-5.337
0.170,0.057,0.348,-5.337
0.155,0.056,0.347,-5.337
0.169,0.058,0.347,-5.337
0.112,0.060,0.349,-5.337
0.196,0.060,0.350,-5.337
0.224,0.060,0.351,-5.337
0.233,0.061,0.352,-5.337
0.237,0.061,0.348,-5.337
0.158,0.064,0.346,-5.337
0.142,0.064,0.347,-5.337
0.141,0.064,0.351,-5.337
0.216,0.064,0.352,-5.337
0.297,0.058,0.350,-5.337
0.237,0.061,0.346,-5.337
0.040,0.065,0.347,-5.337
0.040,0.063,0.348,-5.337
0.187,0.062,0.350,-5.337
0.217,0.063,0.350,-5.337
0.191,0.060,0.350,-5.337
0.266,0.055,0.352,-5.337
0.249,0.054,0.351,-5.337
0.104,0.061,0.348,-5.337
0.078,0.063,0.347,-5.337
0.158,0.063,0.345,-5.337
0.184,0.062,0.346,-5.337
0.178,0.061,0.347,-5.337
0.196,0.064,0.349,-5.337
0.158,0.067,0.349,-5.337
0.170,0.069,0.348,-5.337
0.157,0.071,0.349,-5.337
0.131,0.071,0.348,-5.337
0.132,0.067,0.349,-5.337
0.165,0.069,0.352,-5.337
0.211,0.067,0.350,-5.337
0.226,0.066,0.348,-5.337
0.173,0.068,0.349,-5.337
0.161,0.068,0.350,-5.337
0.215,0.064,0.350,-5.337
0.184,0.064,0.348,-5.337
0.167,0.065,0.346,-5.337
0.179,0.067,0.346,-5.337
0.198,0.068,0.348,-5.337
0.237,0.070,0.351,-5.337
0.211,0.070,0.354,-5.337
0.169,0.068,0.355,-5.337
0.240,0.066,0.348,-5.337
0.212,0.068,0.345,-5.337
0.201,0.069,0.345,-5.337
0.271,0.066,0.347,-5.337
0.265,0.065,0.351,-5.337
0.237,0.064,0.354,-5.337
0.254,0.065,0.349,-5.337
0.247,0.064,0.341,-5.337
0.269,0.064,0.341,-5.337
0.266,0.061,0.345,-5.337
0.269,0.062,0.348,-5.337
0.338,0.058,0.346,-5.337
0.356,0.060,0.346,-5.337
0.282,0.063,0.347,-5.337
0.187,0.066,0.349,-5.337
0.169,0.067,0.350,-5.337
0.182,0.065,0.348,-5.337
0.213,0.058,0.348,-5.337
0.244,0.057,0.348,-5.337
0.223,0.062,0.348,-5.337
0.179,0.068,0.348,-5.337
0.173,0.066,0.353,-5.337
0.193,0.063,0.353,-5.337
0.173,0.065,0.349,-5.337
0.098,0.066,0.343,-5.337
0.021,0.067,0.340,-5.337
0.073,0.070,0.338,-5.337
0.163,0.068,0.343,-5.337
0.217,0.066,0.348,-5.337
0.235,0.068,0.353,-5.337
0.232,0.068,0.355,-5.337
0.185,0.070,0.355,-5.337
0.152,0.067,0.354,-5.337
0.183,0.065,0.353,-5.337
0.156,0.067,0.348,-5.337
0.175,0.067,0.342,-5.337
0.160,0.069,0.341,-5.337
0.089,0.071,0.343,-5.337
0.137,0.067,0.343,-5.337
0.151,0.066,0.341,-5.337
0.139,0.066,0.343,-5.337
0.132,0.065,0.347,-5.337
0.123,0.066,0.349,-5.337
0.195,0.065,0.348,-5.337
0.226,0.063,0.347,-5.337
0.188,0.065,0.348,-5.337
0.121,0.065,0.351,-5.337
0.159,0.062,0.351,-5.337
0.307,0.060,0.351,-5.337
0.329,0.060,0.348,-5.337
0.229,0.062,0.345,-5.337
0.142,0.061,0.342,-5.337
0.170,0.065,0.345,-5.337
0.255,0.062,0.349,-5.337
0.288,0.064,0.353,-5.337
0.180,0.066,0.351,-5.337
0.114,0.066,0.349,-5.337
0.136,0.062,0.350,-5.337
0.189,0.061,0.353,-5.337
0.195,0.062,0.354,-5.337
0.120,0.061,0.352,-5.337
0.174,0.064,0.350,-5.337
0.169,0.069,0.346,-5.337
0.206,0.064,0.344,-5.337
0.246,0.059,0.344,-5.337
0.210,0.060,0.346,-5.337
0.188,0.062,0.347,-5.337
0.197,0.063,0.345,-5.337
0.134,0.063,0.342,-5.337
0.192,0.059,0.348,-5.337
0.256,0.058,0.349,-5.337
0.277,0.060,0.351,-5.337
0.228,0.061,0.350,-5.337
0.129,0.062,0.349,-5.337
0.168,0.057,0.348,-5.337
0.239,0.058,0.350,-5.337
0.229,0.057,0.351,-5.337
0.159,0.053,0.351,-5.337
0.172,0.053,0.352,-5.337
0.201,0.055,0.355,-5.337
0.221,0.053,0.354,-5.337
0.222,0.052,0.348,-5.337
0.242,0.048,0.342,-5.337
0.193,0.056,0.343,-5.337
0.147,0.059,0.347,-5.337
0.201,0.055,0.350,-5.337
0.209,0.052,0.356,-5.337
0.218,0.051,0.359,-5.337
0.224,0.053,0.358,-5.337
0.199,0.055,0.352,-5.337
0.197,0.054,0.344,-5.337
0.162,0.055,0.341,-5.337
0.120,0.053,0.346,-5.337
0.142,0.052,0.349,-5.337
0.194,0.052,0.348,-5.337
0.239,0.052,0.348,-5.337
0.213,0.056,0.350,-5.337
0.118,0.059,0.355,-5.337
0.039,0.058,0.352,-5.337
0.116,0.053,0.346,-5.337
0.227,0.052,0.345,-5.337
0.221,0.051,0.345,-5.337
0.168,0.051,0.345,-5.337
0.181,0.051,0.347,-5.337
0.200,0.053,0.347,-5.337
0.203,0.052,0.349,-5.337
0.195,0.050,0.352,-5.337
0.225,0.048,0.348,-5.337
0.162,0.053,0.342,-5.337
0.144,0.053,0.346,-5.337
0.237,0.046,0.346,-5.337
0.257,0.046,0.346,-5.337
0.162,0.049,0.349,-5.337
0.180,0.052,0.355,-5.337
0.187,0.052,0.352,-5.337
0.229,0.049,0.349,-5.337
0.291,0.050,0.348,-5.337
0.224,0.055,0.352,-5.337
0.190,0.056,0.356,-5.337
0.249,0.051,0.352,-5.337
0.235,0.050,0.345,-5.337
0.218,0.051,0.346,-5.337
0.235,0.051,0.346,-5.337
0.220,0.053,0.348,-5.337
0.214,0.051,0.348,-5.337
0.248,0.052,0.349,-5.337
0.251,0.052,0.351,-5.337
0.268,0.051,0.351,-5.337
0.256,0.050,0.348,-5.337
0.222,0.048,0.347,-5.337
0.212,0.045,0.348,-5.337
0.248,0.043,0.349,-5.337
0.230,0.047,0.349,-5.337
0.195,0.047,0.346,-5.337
0.205,0.048,0.344,-5.337
0.237,0.046,0.341,-5.337
0.232,0.042,0.343,-5.337
0.259,0.040,0.345,-5.337
0.317,0.042,0.350,-5.337
0.214,0.046,0.351,-5.337
0.102,0.047,0.353,-5.337
0.156,0.045,0.351,-5.337
0.185,0.045,0.348,-5.337
0.187,0.044,0.346,-5.337
0.167,0.043,0.345,-5.337
0.117,0.044,0.347,-5.337
0.151,0.045,0.350,-5.337
0.148,0.049,0.353,-5.337
0.108,0.049,0.352,-5.337
0.193,0.047,0.346,-5.337
0.286,0.047,0.344,-5.337
0.245,0.049,0.348,-5.337
0.170,0.048,0.351,-5.337
0.241,0.045,0.348,-5.337
0.266,0.049,0.347,-5.337
0.230,0.048,0.345,-5.337
0.151,0.048,0.347,-5.337
0.122,0.052,0.355,-5.337
0.145,0.051,0.358,-5.337
0.201,0.048,0.352,-5.337
0.180,0.050,0.341,-5.337
0.173,0.048,0.339,-5.337
0.227,0.045,0.342,-5.337
0.284,0.045,0.346,-5.337
0.240,0.049,0.347,-5.337
0.247,0.049,0.352,-5.337
0.288,0.041,0.354,-5.337
0.338,0.043,0.351,-5.337
0.242,0.047,0.351,-5.337
0.211,0.049,0.349,-5.337
0.251,0.045,0.350,-5.337
0.241,0.048,0.351,-5.337
0.154,0.054,0.350,-5.337
0.146,0.051,0.347,-5.337
0.286,0.043,0.347,-5.337
0.341,0.042,0.349,-5.337
0.368,0.044,0.347,-5.337
0.335,0.045,0.347,-5.337
0.265,0.046,0.348,-5.337
0.262,0.044,0.346,-5.337
0.295,0.043,0.349,-5.337
0.251,0.045,0.352,-5.337
0.179,0.051,0.356,-5.337
0.107,0.054,0.353,-5.337
0.117,0.049,0.351,-5.337
0.200,0.045,0.349,-5.337
0.263,0.045,0.346,-5.337
0.192,0.046,0.344,-5.337
0.132,0.050,0.346,-5.337
0.160,0.050,0.347,-5.337
0.205,0.051,0.346,-5.337
0.161,0.049,0.345,-5.337
0.133,0.047,0.346,-5.337
0.198,0.045,0.350,-5.337
0.152,0.046,0.354,-5.337
0.127,0.045,0.353,-5.337
0.198,0.044,0.352,-5.337
0.235,0.040,0.351,-5.337
0.258,0.038,0.350,-5.337
0.288,0.041,0.347,-5.337
0.217,0.046,0.346,-5.337
0.139,0.049,0.347,-5.337
0.093,0.047,0.346,-5.337
0.107,0.044,0.345,-5.337
0.161,0.041,0.344,-5.337
0.180,0.037,0.348,-5.337
0.191,0.037,0.349,-5.337
0.197,0.035,0.349,-5.337
0.187,0.035,0.350,-5.337
0.215,0.035,0.351,-5.337
0.245,0.037,0.347,-5.337
0.228,0.038,0.347,-5.337
0.209,0.038,0.349,-5.337
0.213,0.041,0.350,-5.337
0.227,0.044,0.348,-5.337
0.168,0.047,0.349,-5.337
0.166,0.043,0.353,-5.337
0.245,0.041,0.355,-5.337
0.292,0.042,0.353,-5.337
0.310,0.042,0.350,-5.337
0.288,0.041,0.344,-5.337
0.240,0.045,0.343,-5.337
0.197,0.042,0.349,-5.337
0.132,0.044,0.353,-5.337
0.144,0.041,0.353,-5.337
0.212,0.040,0.353,-5.337
0.257,0.039,0.351,-5.337
0.252,0.043,0.347,-5.337
0.241,0.045,0.349,-5.337
0.200,0.044,0.348,-5.337
0.116,0.042,0.351,-5.337
0.136,0.036,0.353,-5.337
0.185,0.041,0.353,-5.337
0.211,0.042,0.349,-5.337
0.260,0.038,0.345,-5.337
0.279,0.041,0.346,-5.337
0.170,0.049,0.350,-5.337
0.106,0.049,0.353,-5.337
0.158,0.043,0.350,-5.337
0.223,0.041,0.346,-5.337
0.252,0.041,0.343,-5.337
0.261,0.040,0.345,-5.337
0.264,0.040,0.349,-5.337
0.260,0.037,0.355,-5.337
0.287,0.036,0.355,-5.337
0.278,0.034,0.354,-5.337
0.199,0.038,0.350,-5.337
0.175,0.043,0.350,-5.337
0.222,0.040,0.349,-5.337
0.232,0.037,0.351,-5.337
0.161,0.037,0.351,-5.337
0.216,0.038,0.351,-5.337
0.198,0.036,0.347,-5.337
0.179,0.038,0.348,-5.337
0.193,0.038,0.349,-5.337
0.157,0.041,0.352,-5.337
0.131,0.042,0.353,-5.337
0.134,0.041,0.352,-5.337
0.182,0.040,0.349,-5.337
0.187,0.044,0.347,-5.337
0.200,0.047,0.347,-5.337
0.165,0.046,0.348,-5.337
0.156,0.046,0.345,-5.337
0.226,0.044,0.344,-5.337
0.250,0.043,0.347,-5.337
0.243,0.041,0.353,-5.337
0.244,0.037,0.356,-5.337
0.194,0.040,0.355,-5.337
0.164,0.042,0.354,-5.337
0.164,0.040,0.349,-5.337
0.123,0.045,0.344,-5.337
0.084,0.044,0.343,-5.337
0.126,0.043,0.344,-5.337
0.204,0.040,0.347,-5.337
0.169,0.043,0.352,-5.337
0.131,0.045,0.348,-5.337
0.105,0.047,0.346,-5.337
0.140,0.046,0.347,-5.337
0.179,0.043,0.347,-5.337
0.195,0.039,0.345,-5.337
0.212,0.040,0.343,-5.337
0.257,0.037,0.347,-5.337
0.236,0.038,0.352,-5.337
0.242,0.035,0.351,-5.337
0.236,0.032,0.349,-5.337
0.229,0.034,0.349,-5.337
0.234,0.037,0.350,-5.337
0.255,0.039,0.347,-5.337
0.271,0.037,0.347,-5.337
0.329,0.035,0.349,-5.337
0.241,0.039,0.348,-5.337
0.161,0.041,0.347,-5.337
0.243,0.039,0.343,-5.337
0.309,0.038,0.345,-5.337
0.282,0.039,0.346,-5.337
0.247,0.041,0.349,-5.337
0.231,0.042,0.351,-5.337
0.273,0.040,0.349,-5.337
0.315,0.038,0.342,-5.337
0.271,0.039,0.340,-5.337
0.264,0.037,0.340,-5.337
0.246,0.039,0.345,-5.337
0.211,0.037,0.351,-5.337
0.223,0.040,0.349,-5.337
0.281,0.039,0.347,-5.337
0.269,0.039,0.348,-5.337
0.215,0.038,0.347,-5.337
0.166,0.037,0.347,-5.337
0.199,0.038,0.345,-5.337
0.198,0.040,0.347,-5.337
0.144,0.041,0.348,-5.337
0.122,0.041,0.344,-5.337
0.167,0.041,0.349,-5.337
0.239,0.040,0.353,-5.337
0.340,0.037,0.353,-5.337
0.300,0.042,0.348,-5.337
0.223,0.044,0.347,-5.337
0.237,0.044,0.347,-5.337
0.156,0.049,0.349,-5.337
0.134,0.049,0.349,-5.337
0.203,0.053,0.352,-5.337
0.220,0.054,0.347,-5.337
0.159,0.055,0.348,-5.337
0.168,0.048,0.352,-5.337
0.216,0.049,0.350,-5.337
0.234,0.048,0.345,-5.337
0.286,0.045,0.343,-5.337
0.302,0.043,0.348,-5.337
0.191,0.047,0.349,-5.337
0.116,0.049,0.346,-5.337
0.131,0.049,0.342,-5.337
0.158,0.045,0.343,-5.337
0.145,0.047,0.348,-5.337
0.133,0.051,0.356,-5.337
0.104,0.053,0.357,-5.337
0.162,0.049,0.353,-5.337
0.235,0.048,0.350,-5.337
0.234,0.047,0.347,-5.337
0.166,0.048,0.348,-5.337
0.135,0.046,0.349,-5.337
0.173,0.042,0.347,-5.337
0.211,0.040,0.345,-5.337
0.243,0.040,0.342,-5.337
0.198,0.042,0.347,-5.337
0.112,0.042,0.351,-5.337
0.128,0.041,0.351,-5.337
0.159,0.043,0.349,-5.337
0.183,0.042,0.351,-5.337
0.216,0.041,0.351,-5.337
0.198,0.043,0.349,-5.337
0.194,0.044,0.348,-5.337
0.189,0.045,0.348,-5.337
0.156,0.046,0.348,-5.337
0.124,0.045,0.348,-5.337
0.137,0.045,0.348,-5.337
0.164,0.047,0.349,-5.337
0.195,0.048,0.350,-5.337
0.217,0.048,0.351,-5.337
0.226,0.046,0.351,-5.337
0.218,0.045,0.347,-5.337
0.193,0.047,0.345,-5.337
0.192,0.049,0.345,-5.337
0.213,0.049,0.346,-5.337
0.234,0.051,0.342,-5.337
0.239,0.052,0.344,-5.337
0.175,0.048,0.348,-5.337
0.164,0.048,0.350,-5.337
0.232,0.049,0.351,-5.337
0.279,0.052,0.350,-5.337
0.312,0.051,0.351,-5.337
0.268,0.051,0.354,-5.337
0.230,0.051,0.351,-5.337
0.143,0.055,0.348,-5.337
0.116,0.055,0.346,-5.337
0.147,0.056,0.350,-5.337
0.147,0.055,0.352,-5.337
0.157,0.055,0.350,-5.337
0.142,0.054,0.352,-5.337
0.134,0.051,0.353,-5.337
0.171,0.051,0.353,-5.337
0.214,0.050,0.348,-5.337
0.240,0.052,0.344,-5.337
0.205,0.052,0.344,-5.337
0.210,0.053,0.345,-5.337
0.179,0.054,0.347,-5.337
0.141,0.052,0.351,-5.337
0.173,0.050,0.348,-5.337
0.204,0.050,0.346,-5.337
0.232,0.054,0.343,-5.337
0.254,0.057,0.344,-5.337
0.202,0.055,0.347,-5.337
0.183,0.053,0.350,-5.337
0.205,0.052,0.351,-5.337
0.240,0.055,0.348,-5.337
0.172,0.057,0.348,-5.337
0.088,0.060,0.349,-5.337
0.169,0.056,0.349,-5.337
0.244,0.049,0.347,-5.337
0.280,0.050,0.343,-5.337
0.240,0.049,0.342,-5.337
0.233,0.051,0.344,-5.337
0.198,0.053,0.349,-5.337
0.221,0.052,0.353,-5.337
0.225,0.056,0.350,-5.337
0.168,0.060,0.346,-5.337
0.167,0.061,0.343,-5.337
0.182,0.061,0.345,-5.337
0.166,0.063,0.347,-5.337
0.139,0.063,0.351,-5.337
0.215,0.061,0.349,-5.337
0.260,0.061,0.346,-5.337
0.257,0.062,0.343,-5.337
0.238,0.066,0.347,-5.337
0.285,0.063,0.351,-5.337
0.308,0.061,0.351,-5.337
0.159,0.065,0.350,-5.337
0.141,0.066,0.348,-5.337
0.187,0.063,0.346,-5.337
0.225,0.063,0.348,-5.337
0.218,0.061,0.348,-5.337
0.215,0.059,0.347,-5.337
0.161,0.063,0.346,-5.337
0.112,0.063,0.348,-5.337
0.072,0.064,0.351,-5.337
0.129,0.062,0.351,-5.337
0.228,0.060,0.348,-5.337
0.177,0.062,0.345,-5.337
0.185,0.061,0.344,-5.337
0.258,0.061,0.344,-5.337
0.261,0.063,0.348,-5.337
0.217,0.064,0.349,-5.337
0.192,0.063,0.350,-5.337
0.226,0.062,0.348,-5.337
0.167,0.067,0.344,-5.337
0.116,0.065,0.343,-5.337
0.100,0.063,0.345,-5.337
0.181,0.060,0.346,-5.337
0.256,0.061,0.348,-5.337
0.257,0.061,0.352,-5.337
0.297,0.061,0.352,-5.337
0.274,0.062,0.351,-5.337
0.226,0.061,0.350,-5.337
0.222,0.063,0.348,-5.337
0.272,0.064,0.348,-5.337
0.263,0.067,0.347,-5.337
0.105,0.071,0.345,-5.337
0.066,0.069,0.346,-5.337
0.117,0.071,0.350,-5.337
0.131,0.069,0.351,-5.337
0.154,0.068,0.349,-5.337
0.158,0.069,0.349,-5.337
0.207,0.069,0.348,-5.337
0.223,0.068,0.347,-5.337
0.155,0.067,0.344,-5.337
0.221,0.067,0.346,-5.337
0.248,0.068,0.345,-5.337
0.195,0.067,0.349,-5.337
0.179,0.071,0.350,-5.337
0.190,0.072,0.350,-5.337
0.196,0.070,0.350,-5.337
0.184,0.071,0.350,-5.337
0.176,0.067,0.353,-5.337
0.149,0.066,0.352,-5.337
0.124,0.061,0.347,-5.337
0.200,0.061,0.347,-5.337
0.230,0.061,0.345,-5.337
0.195,0.065,0.345,-5.337
0.215,0.063,0.351,-5.337
0.233,0.062,0.353,-5.337
0.250,0.063,0.352,-5.337
0.301,0.061,0.347,-5.337
0.353,0.063,0.343,-5.337
0.331,0.066,0.342,-5.337
0.280,0.069,0.345,-5.337
0.271,0.066,0.346,-5.337
0.238,0.064,0.350,-5.337
0.226,0.067,0.350,-5.337
0.241,0.066,0.350,-5.337
0.211,0.065,0.345,-5.337
0.172,0.067,0.343,-5.337
0.097,0.068,0.347,-5.337
0.111,0.067,0.346,-5.337
0.153,0.066,0.345,-5.337
0.171,0.066,0.346,-5.337
0.121,0.068,0.346,-5.337
0.042,0.067,0.344,-5.337
0.104,0.063,0.344,-5.337
0.198,0.066,0.347,-5.337
0.183,0.069,0.349,-5.337
0.197,0.067,0.351,-5.337
0.238,0.066,0.354,-5.337
0.233,0.067,0.357,-5.337
0.231,0.070,0.357,-5.337
0.278,0.073,0.350,-5.337
0.228,0.077,0.344,-5.337
0.124,0.079,0.341,-5.337
0.109,0.076,0.345,-5.337
0.235,0.073,0.346,-5.337
0.335,0.070,0.349,-5.337
0.263,0.073,0.350,-5.337
0.166,0.073,0.350,-5.337
0.199,0.071,0.351,-5.337
0.184,0.073,0.353,-5.337
0.194,0.069,0.351,-5.337
0.258,0.070,0.347,-5.337
0.238,0.068,0.344,-5.337
0.199,0.068,0.343,-5.337
0.170,0.071,0.341,-5.337
0.157,0.068,0.342,-5.337
0.197,0.067,0.346,-5.337
0.244,0.067,0.347,-5.337
0.139,0.074,0.351,-5.337
0.079,0.073,0.352,-5.337
0.175,0.066,0.352,-5.337
0.218,0.069,0.348,-5.337
0.083,0.074,0.347,-5.337
0.101,0.074,0.351,-5.337
0.226,0.067,0.353,-5.337
0.280,0.065,0.349,-5.337
0.193,0.070,0.350,-5.337
0.146,0.069,0.348,-5.337
0.151,0.070,0.346,-5.337
0.183,0.066,0.345,-5.337
0.198,0.067,0.347,-5.337
0.226,0.068,0.347,-5.337
0.255,0.066,0.346,-5.337
0.263,0.065,0.347,-5.337
0.160,0.070,0.348,-5.337
0.149,0.067,0.347,-5.337
0.212,0.062,0.347,-5.337
0.190,0.062,0.349,-5.337
0.248,0.064,0.348,-5.337
0.219,0.068,0.344,-5.337
0.202,0.067,0.342,-5.337
0.241,0.065,0.346,-5.337
0.246,0.066,0.352,-5.337
0.241,0.067,0.353,-5.337
0.210,0.066,0.350,-5.337
0.193,0.061,0.348,-5.337
0.209,0.065,0.344,-5.337
0.227,0.067,0.345,-5.337
0.251,0.067,0.343,-5.337
0.204,0.065,0.347,-5.337
0.213,0.057,0.347,-5.337
0.226,0.055,0.348,-5.337
0.230,0.056,0.350,-5.337
0.176,0.062,0.350,-5.337
0.120,0.062,0.347,-5.337
0.211,0.059,0.347,-5.337
0.224,0.063,0.346,-5.337
0.145,0.067,0.347,-5.337
0.189,0.065,0.349,-5.337
0.233,0.060,0.347,-5.337
0.273,0.064,0.346,-5.337
0.263,0.068,0.348,-5.337
0.201,0.065,0.345,-5.337
0.168,0.060,0.342,-5.337
0.182,0.061,0.343,-5.337
0.247,0.061,0.345,-5.337
0.251,0.059,0.348,-5.337
0.226,0.060,0.349,-5.337
0.241,0.060,0.350,-5.337
0.248,0.062,0.348,-5.337
0.240,0.063,0.348,-5.337
0.231,0.064,0.342,-5.337
0.226,0.065,0.342,-5.337
0.206,0.067,0.343,-5.337
0.177,0.063,0.344,-5.337
0.258,0.062,0.347,-5.337
0.307,0.063,0.349,-5.337
0.300,0.062,0.348,-5.337
0.239,0.062,0.346,-5.337
0.230,0.059,0.345,-5.337
0.242,0.059,0.345,-5.337
0.261,0.060,0.349,-5.337
0.245,0.065,0.351,-5.337
0.265,0.063,0.348,-5.337
0.237,0.061,0.348,-5.337
0.189,0.061,0.350,-5.337
0.202,0.059,0.357,-5.337
0.158,0.062,0.357,-5.337
0.126,0.062,0.351,-5.337
0.147,0.063,0.343,-5.337
0.149,0.063,0.340,-5.337
0.165,0.061,0.346,-5.337
0.203,0.059,0.348,-5.337
0.244,0.056,0.346,-5.337
0.216,0.060,0.341,-5.337
0.220,0.058,0.341,-5.337
0.186,0.055,0.343,-5.337
0.135,0.056,0.348,-5.337
0.159,0.055,0.346,-5.337
0.147,0.059,0.345,-5.337
0.151,0.054,0.348,-5.337
0.238,0.050,0.352,-5.337
0.248,0.048,0.351,-5.337
0.241,0.053,0.350,-5.337
0.224,0.048,0.347,-5.337
0.190,0.047,0.345,-5.337
0.226,0.049,0.348,-5.337
0.224,0.053,0.352,-5.337
0.220,0.054,0.347,-5.337
0.279,0.049,0.342,-5.337
0.282,0.049,0.341,-5.337
0.206,0.048,0.344,-5.337
0.194,0.050,0.350,-5.337
0.123,0.052,0.353,-5.337
0.095,0.054,0.351,-5.337
0.124,0.054,0.352,-5.337
0.180,0.052,0.355,-5.337
0.191,0.048,0.352,-5.337
0.190,0.048,0.351,-5.337
0.195,0.053,0.348,-5.337
0.207,0.057,0.346,-5.337
0.192,0.054,0.344,-5.337
0.222,0.052,0.346,-5.337
0.265,0.047,0.345,-5.337
0.282,0.049,0.343,-5.337
0.269,0.050,0.341,-5.337
0.267,0.049,0.345,-5.337
0.175,0.049,0.348,-5.337
0.132,0.047,0.348,-5.337
0.145,0.049,0.350,-5.337
0.129,0.051,0.354,-5.337
0.138,0.047,0.355,-5.337
0.202,0.045,0.355,-5.337
0.228,0.046,0.354,-5.337
0.219,0.049,0.352,-5.337
0.255,0.047,0.353,-5.337
0.235,0.050,0.352,-5.337
0.140,0.052,0.350,-5.337
0.098,0.051,0.348,-5.337
0.188,0.047,0.346,-5.337
0.218,0.048,0.344,-5.337
0.166,0.049,0.347,-5.337
0.202,0.048,0.352,-5.337
0.214,0.046,0.352,-5.337
0.231,0.044,0.350,-5.337
0.278,0.043,0.349,-5.337
0.267,0.045,0.348,-5.337
0.238,0.048,0.349,-5.337
0.251,0.047,0.348,-5.337
0.196,0.050,0.347,-5.337
0.113,0.050,0.348,-5.337
0.113,0.049,0.350,-5.337
0.142,0.050,0.347,-5.337
0.167,0.048,0.345,-5.337
0.217,0.047,0.347,-5.337
0.260,0.047,0.350,-5.337
0.267,0.049,0.350,-5.337
0.244,0.049,0.349,-5.337
0.232,0.047,0.349,-5.337
0.308,0.045,0.346,-5.337
0.357,0.047,0.346,-5.337
0.279,0.048,0.345,-5.337
0.257,0.049,0.347,-5.337
0.250,0.051,0.345,-5.337
0.186,0.055,0.345,-5.337
0.176,0.050,0.343,-5.337
0.209,0.051,0.348,-5.337
0.206,0.047,0.349,-5.337
0.265,0.047,0.347,-5.337
0.298,0.042,0.346,-5.337
0.240,0.045,0.349,-5.337
0.153,0.047,0.348,-5.337
0.162,0.044,0.347,-5.337
0.203,0.044,0.346,-5.337
0.210,0.047,0.348,-5.337
0.205,0.046,0.348,-5.337
0.206,0.044,0.344,-5.337
0.222,0.042,0.344,-5.337
0.279,0.045,0.346,-5.337
0.272,0.046,0.349,-5.337
0.223,0.046,0.351,-5.337
0.232,0.043,0.353,-5.337
0.229,0.041,0.351,-5.337
0.234,0.046,0.350,-5.337
0.221,0.050,0.350,-5.337
0.184,0.048,0.349,-5.337
0.136,0.049,0.347,-5.337
0.180,0.046,0.348,-5.337
0.200,0.045,0.347,-5.337
0.188,0.043,0.346,-5.337
0.209,0.042,0.343,-5.337
0.274,0.042,0.343,-5.337
0.308,0.040,0.344,-5.337
0.284,0.043,0.346,-5.337
0.275,0.045,0.348,-5.337
0.280,0.047,0.349,-5.337
0.200,0.050,0.351,-5.337
0.146,0.050,0.350,-5.337
0.162,0.048,0.346,-5.337
0.206,0.046,0.345,-5.337
0.160,0.044,0.348,-5.337
0.148,0.044,0.348,-5.337
0.216,0.043,0.347,-5.337
0.318,0.042,0.349,-5.337
0.357,0.038,0.351,-5.337
0.300,0.038,0.351,-5.337
0.323,0.038,0.353,-5.337
0.353,0.036,0.352,-5.337
0.294,0.041,0.355,-5.337
0.288,0.039,0.353,-5.337
0.265,0.038,0.350,-5.337
0.254,0.037,0.346,-5.337
0.260,0.038,0.349,-5.337
0.188,0.040,0.345,-5.337
0.131,0.043,0.342,-5.337
0.204,0.041,0.345,-5.337
0.203,0.042,0.350,-5.337
0.218,0.046,0.352,-5.337
0.257,0.047,0.352,-5.337
0.250,0.046,0.349,-5.337
0.228,0.045,0.347,-5.337
0.192,0.043,0.344,-5.337
0.174,0.046,0.345,-5.337
0.211,0.044,0.346,-5.337
0.261,0.043,0.345,-5.337
0.192,0.044,0.348,-5.337
0.094,0.046,0.351,-5.337
0.147,0.045,0.355,-5.337
0.242,0.044,0.355,-5.337
0.310,0.044,0.353,-5.337
0.241,0.046,0.349,-5.337
0.152,0.048,0.348,-5.337
0.204,0.045,0.347,-5.337
0.217,0.044,0.350,-5.337
0.188,0.045,0.350,-5.337
0.092,0.049,0.345,-5.337
0.093,0.048,0.339,-5.337
0.182,0.049,0.339,-5.337
0.171,0.050,0.346,-5.337
0.190,0.049,0.352,-5.337
0.285,0.045,0.351,-5.337
0.262,0.044,0.353,-5.337
0.221,0.044,0.352,-5.337
0.228,0.043,0.352,-5.337
0.312,0.039,0.348,-5.337
0.294,0.041,0.347,-5.337
0.292,0.041,0.352,-5.337
0.281,0.043,0.353,-5.337
0.269,0.041,0.350,-5.337
0.247,0.040,0.345,-5.337
0.210,0.045,0.346,-5.337
0.198,0.043,0.348,-5.337
0.209,0.042,0.353,-5.337
0.246,0.039,0.354,-5.337
0.307,0.037,0.350,-5.337
0.311,0.041,0.345,-5.337
0.251,0.041,0.345,-5.337
0.227,0.040,0.346,-5.337
0.219,0.041,0.349,-5.337
0.202,0.043,0.351,-5.337
0.252,0.040,0.348,-5.337
0.314,0.037,0.343,-5.337
0.344,0.035,0.342,-5.337
0.315,0.037,0.345,-5.337
0.294,0.039,0.348,-5.337
0.296,0.037,0.349,-5.337
0.249,0.040,0.353,-5.337
0.256,0.042,0.355,-5.337
0.285,0.042,0.354,-5.337
0.261,0.040,0.350,-5.337
0.217,0.040,0.342,-5.337
0.190,0.041,0.342,-5.337
0.182,0.042,0.346,-5.337
0.196,0.044,0.353,-5.337
0.222,0.044,0.351,-5.337
0.220,0.044,0.350,-5.337
0.238,0.044,0.351,-5.337
0.180,0.046,0.353,-5.337
0.146,0.042,0.349,-5.337
0.269,0.042,0.347,-5.337
0.287,0.042,0.347,-5.337
0.230,0.045,0.347,-5.337
0.196,0.041,0.346,-5.337
0.231,0.038,0.348,-5.337
0.239,0.037,0.350,-5.337
0.285,0.036,0.352,-5.337
0.260,0.036,0.350,-5.337
0.229,0.037,0.348,-5.337
0.216,0.033,0.349,-5.337
0.161,0.032,0.352,-5.337
0.166,0.032,0.354,-5.337
0.304,0.031,0.351,-5.337
0.295,0.032,0.348,-5.337
0.236,0.033,0.346,-5.337
0.194,0.035,0.349,-5.337
0.230,0.038,0.351,-5.337
0.221,0.041,0.349,-5.337
0.192,0.043,0.344,-5.337
0.190,0.044,0.349,-5.337
0.252,0.040,0.353,-5.337
0.253,0.041,0.353,-5.337
0.227,0.040,0.349,-5.337
0.242,0.042,0.344,-5.337
0.175,0.043,0.342,-5.337
0.111,0.043,0.347,-5.337
0.190,0.038,0.347,-5.337
0.262,0.039,0.349,-5.337
0.243,0.040,0.353,-5.337
0.262,0.042,0.350,-5.337
0.236,0.040,0.343,-5.337
0.223,0.041,0.343,-5.337
0.248,0.041,0.348,-5.337
0.205,0.044,0.346,-5.337
0.210,0.045,0.345,-5.337
0.212,0.046,0.349,-5.337
0.167,0.052,0.352,-5.337
0.146,0.053,0.349,-5.337
0.143,0.051,0.346,-5.337
0.186,0.049,0.345,-5.337
0.293,0.043,0.349,-5.337
0.264,0.043,0.350,-5.337
0.135,0.047,0.348,-5.337
0.134,0.047,0.344,-5.337
0.166,0.047,0.343,-5.337
0.192,0.043,0.346,-5.337
0.264,0.039,0.349,-5.337
0.334,0.040,0.345,-5.337
0.306,0.042,0.343,-5.337
0.196,0.044,0.346,-5.337
0.150,0.041,0.348,-5.337
0.205,0.040,0.347,-5.337
0.193,0.046,0.344,-5.337
0.173,0.049,0.347,-5.337
0.232,0.047,0.352,-5.337
0.210,0.044,0.353,-5.337
0.170,0.046,0.351,-5.337
0.139,0.043,0.350,-5.337
0.144,0.045,0.347,-5.337
0.194,0.043,0.344,-5.337
0.284,0.042,0.343,-5.337
0.305,0.044,0.344,-5.337
0.261,0.043,0.345,-5.337
0.195,0.048,0.345,-5.337
0.280,0.045,0.344,-5.337
0.295,0.045,0.348,-5.337
0.313,0.044,0.349,-5.337
0.295,0.046,0.351,-5.337
0.293,0.046,0.349,-5.337
0.231,0.044,0.345,-5.337
0.227,0.042,0.344,-5.337
0.205,0.047,0.346,-5.337
0.128,0.052,0.348,-5.337
0.126,0.052,0.346,-5.337
0.164,0.048,0.344,-5.337
0.221,0.045,0.345,-5.337
0.187,0.047,0.349,-5.337
0.152,0.049,0.348,-5.337
0.198,0.049,0.346,-5.337
0.205,0.047,0.346,-5.337
0.177,0.049,0.346,-5.337
0.183,0.049,0.348,-5.337
0.244,0.050,0.346,-5.337
0.276,0.049,0.344,-5.337
0.277,0.044,0.346,-5.337
0.286,0.043,0.345,-5.337
0.241,0.049,0.345,-5.337
0.146,0.052,0.347,-5.337
0.204,0.047,0.352,-5.337
0.275,0.047,0.352,-5.337
0.284,0.049,0.347,-5.337
0.193,0.050,0.340,-5.337
0.146,0.053,0.344,-5.337
0.150,0.053,0.348,-5.337
0.168,0.054,0.352,-5.337
0.204,0.050,0.347,-5.337
0.162,0.050,0.346,-5.337
0.159,0.048,0.348,-5.337
0.174,0.048,0.346,-5.337
0.185,0.045,0.346,-5.337
0.193,0.044,0.347,-5.337
0.143,0.049,0.350,-5.337
0.156,0.051,0.349,-5.337
0.218,0.048,0.346,-5.337
0.253,0.044,0.340,-5.337
0.204,0.046,0.339,-5.337
0.109,0.053,0.345,-5.337
0.126,0.050,0.353,-5.337
0.204,0.047,0.351,-5.337
0.236,0.046,0.352,-5.337
0.251,0.048,0.352,-5.337
0.226,0.048,0.350,-5.337
0.244,0.050,0.348,-5.337
0.260,0.050,0.348,-5.337
0.208,0.054,0.349,-5.337
0.151,0.057,0.348,-5.337
0.122,0.052,0.345,-5.337
0.211,0.049,0.346,-5.337
0.257,0.047,0.347,-5.337
0.240,0.046,0.347,-5.337
0.235,0.046,0.347,-5.337
0.209,0.050,0.348,-5.337
0.144,0.052,0.350,-5.337
0.238,0.052,0.349,-5.337
0.305,0.051,0.348,-5.337
0.290,0.049,0.346,-5.337
0.295,0.047,0.347,-5.337
0.226,0.051,0.349,-5.337
0.115,0.054,0.350,-5.337
0.048,0.055,0.348,-5.337
0.086,0.052,0.343,-5.337
0.169,0.050,0.341,-5.337
0.165,0.053,0.347,-5.337
0.165,0.052,0.348,-5.337
0.220,0.049,0.349,-5.337
0.241,0.052,0.348,-5.337
0.230,0.051,0.348,-5.337
0.226,0.050,0.347,-5.337
0.197,0.051,0.349,-5.337
0.243,0.050,0.350,-5.337
0.191,0.054,0.349,-5.337
0.199,0.055,0.350,-5.337
0.210,0.052,0.354,-5.337
0.214,0.048,0.352,-5.337
0.231,0.050,0.347,-5.337
0.205,0.055,0.346,-5.337
0.194,0.057,0.349,-5.337
0.143,0.055,0.349,-5.337
0.107,0.053,0.347,-5.337
0.160,0.050,0.347,-5.337
0.224,0.051,0.345,-5.337
0.299,0.054,0.348,-5.337
0.334,0.059,0.351,-5.337
0.291,0.060,0.354,-5.337
0.303,0.054,0.350,-5.337
0.299,0.054,0.346,-5.337
0.282,0.054,0.344,-5.337
0.150,0.060,0.348,-5.337
0.099,0.059,0.348,-5.337
0.221,0.053,0.346,-5.337
0.238,0.055,0.350,-5.337
0.223,0.056,0.352,-5.337
0.260,0.054,0.352,-5.337
0.288,0.056,0.348,-5.337
0.269,0.057,0.344,-5.337
0.183,0.061,0.345,-5.337
0.113,0.062,0.347,-5.337
0.098,0.059,0.346,-5.337
0.133,0.059,0.348,-5.337
0.225,0.057,0.347,-5.337
0.249,0.059,0.344,-5.337
0.208,0.056,0.340,-5.337
0.177,0.054,0.341,-5.337
0.140,0.055,0.343,-5.337
0.159,0.054,0.346,-5.337
0.149,0.057,0.348,-5.337
0.165,0.059,0.353,-5.337
0.233,0.057,0.350,-5.337
0.181,0.061,0.347,-5.337
0.172,0.059,0.347,-5.337
0.195,0.060,0.345,-5.337
0.185,0.057,0.345,-5.337
0.223,0.056,0.345,-5.337
0.272,0.054,0.346,-5.337
0.269,0.056,0.348,-5.337
0.281,0.055,0.348,-5.337
0.241,0.060,0.345,-5.337
0.251,0.060,0.344,-5.337
0.271,0.059,0.349,-5.337
0.340,0.056,0.349,-5.337
0.281,0.056,0.349,-5.337
0.235,0.057,0.348,-5.337
0.252,0.058,0.346,-5.337
0.287,0.060,0.346,-5.337
0.317,0.060,0.344,-5.337
0.256,0.062,0.346,-5.337
0.199,0.063,0.349,-5.337
0.130,0.063,0.351,-5.337
0.167,0.060,0.350,-5.337
0.244,0.060,0.345,-5.337
0.208,0.063,0.343,-5.337
0.134,0.067,0.345,-5.337
0.096,0.067,0.345,-5.337
0.136,0.065,0.347,-5.337
0.212,0.060,0.345,-5.337
0.248,0.061,0.343,-5.337
0.218,0.063,0.346,-5.337
0.233,0.060,0.350,-5.337
0.241,0.058,0.352,-5.337
0.211,0.059,0.354,-5.337
0.214,0.057,0.352,-5.337
0.219,0.058,0.348,-5.337
0.231,0.061,0.347,-5.337
0.255,0.065,0.350,-5.337
0.234,0.063,0.349,-5.337
0.184,0.065,0.348,-5.337
0.133,0.064,0.347,-5.337
0.178,0.065,0.345,-5.337
0.209,0.065,0.346,-5.337
0.168,0.065,0.347,-5.337
0.109,0.065,0.349,-5.337
0.213,0.062,0.347,-5.337
0.270,0.062,0.349,-5.337
0.288,0.062,0.348,-5.337
0.280,0.060,0.346,-5.337
0.318,0.056,0.345,-5.337
0.355,0.054,0.344,-5.337
0.321,0.059,0.342,-5.337
0.256,0.061,0.343,-5.337
0.234,0.061,0.347,-5.337
0.184,0.061,0.349,-5.337
0.159,0.062,0.350,-5.337
0.143,0.066,0.349,-5.337
0.108,0.066,0.345,-5.337
0.178,0.061,0.343,-5.337
0.267,0.059,0.342,-5.337
0.212,0.064,0.349,-5.337
0.202,0.062,0.349,-5.337
0.251,0.057,0.346,-5.337
0.265,0.059,0.346,-5.337
0.261,0.062,0.348,-5.337
0.205,0.063,0.350,-5.337
0.177,0.061,0.346,-5.337
0.215,0.062,0.346,-5.337
0.260,0.062,0.349,-5.337
0.233,0.063,0.349,-5.337
0.234,0.063,0.347,-5.337
0.272,0.059,0.350,-5.337
0.283,0.062,0.350,-5.337
0.238,0.063,0.352,-5.337
0.205,0.063,0.352,-5.337
0.144,0.066,0.348,-5.337
0.248,0.062,0.346,-5.337
0.314,0.064,0.345,-5.337
0.263,0.065,0.349,-5.337
0.226,0.065,0.350,-5.337
0.230,0.064,0.344,-5.337
0.279,0.063,0.345,-5.337
0.294,0.064,0.348,-5.337
0.217,0.062,0.353,-5.337
0.155,0.062,0.355,-5.337
0.104,0.064,0.355,-5.337
0.117,0.063,0.354,-5.337
0.241,0.060,0.347,-5.337
0.272,0.056,0.342,-5.337
0.252,0.054,0.342,-5.337
0.199,0.057,0.347,-5.337
0.190,0.060,0.352,-5.337
0.257,0.058,0.354,-5.337
0.239,0.058,0.349,-5.337
0.253,0.056,0.347,-5.337
0.199,0.057,0.351,-5.337
0.186,0.060,0.355,-5.337
0.210,0.059,0.353,-5.337
0.192,0.059,0.347,-5.337
0.274,0.054,0.345,-5.337
0.281,0.054,0.347,-5.337
0.225,0.056,0.349,-5.337
0.182,0.055,0.351,-5.337
0.201,0.058,0.352,-5.337
0.197,0.059,0.355,-5.337
0.163,0.059,0.355,-5.337
0.147,0.058,0.352,-5.337
0.121,0.055,0.350,-5.337
0.183,0.056,0.349,-5.337
0.239,0.056,0.344,-5.337
0.200,0.055,0.342,-5.337
0.185,0.057,0.346,-5.337
0.183,0.059,0.347,-5.337
0.199,0.055,0.346,-5.337
0.264,0.048,0.342,-5.337
0.300,0.049,0.343,-5.337
0.186,0.054,0.347,-5.337
0.062,0.055,0.352,-5.337
0.091,0.056,0.353,-5.337
0.202,0.056,0.352,-5.337
0.300,0.056,0.353,-5.337
0.284,0.052,0.352,-5.337
0.292,0.048,0.348,-5.337
0.254,0.051,0.346,-5.337
0.225,0.054,0.345,-5.337
0.232,0.053,0.345,-5.337
0.259,0.055,0.347,-5.337
0.234,0.057,0.346,-5.337
0.125,0.056,0.349,-5.337
0.143,0.056,0.354,-5.337
0.271,0.052,0.353,-5.337
0.329,0.052,0.345,-5.337
0.278,0.050,0.343,-5.337
0.229,0.050,0.347,-5.337
0.193,0.050,0.350,-5.337
0.195,0.052,0.347,-5.337
0.205,0.051,0.347,-5.337
0.220,0.049,0.348,-5.337
0.253,0.047,0.348,-5.337
0.322,0.043,0.343,-5.337
0.305,0.048,0.340,-5.337
0.314,0.049,0.342,-5.337
0.283,0.049,0.345,-5.337
0.178,0.051,0.349,-5.337
0.146,0.047,0.351,-5.337
0.231,0.045,0.354,-5.337
0.303,0.048,0.354,-5.337
0.252,0.053,0.347,-5.337
0.165,0.056,0.345,-5.337
0.126,0.055,0.345,-5.337
0.110,0.056,0.348,-5.337
0.111,0.054,0.345,-5.337
0.158,0.051,0.347,-5.337
0.196,0.051,0.348,-5.337
0.173,0.051,0.347,-5.337
0.176,0.048,0.349,-5.337
0.272,0.044,0.349,-5.337
0.316,0.047,0.348,-5.337
0.213,0.051,0.349,-5.337
0.109,0.052,0.351,-5.337
0.137,0.050,0.346,-5.337
0.277,0.047,0.346,-5.337
0.277,0.049,0.346,-5.337
0.227,0.048,0.350,-5.337
0.228,0.046,0.350,-5.337
0.286,0.044,0.348,-5.337
0.339,0.043,0.348,-5.337
0.328,0.044,0.347,-5.337
0.322,0.042,0.347,-5.337
0.357,0.043,0.349,-5.337
0.266,0.047,0.349,-5.337
0.189,0.051,0.347,-5.337
0.212,0.049,0.344,-5.337
0.264,0.050,0.344,-5.337
0.220,0.051,0.346,-5.337
0.203,0.051,0.350,-5.337
0.179,0.050,0.349,-5.337
0.205,0.048,0.345,-5.337
0.257,0.049,0.344,-5.337
0.269,0.046,0.342,-5.337
0.208,0.046,0.346,-5.337
0.167,0.045,0.350,-5.337
0.129,0.045,0.352,-5.337
0.112,0.048,0.347,-5.337
0.155,0.048,0.345,-5.337
0.229,0.047,0.345,-5.337
0.237,0.051,0.348,-5.337
0.150,0.049,0.347,-5.337
0.230,0.044,0.346,-5.337
0.279,0.041,0.347,-5.337
0.255,0.043,0.350,-5.337
0.240,0.045,0.351,-5.337
0.240,0.047,0.351,-5.337
0.255,0.043,0.351,-5.337
0.197,0.042,0.348,-5.337
0.156,0.042,0.347,-5.337
0.155,0.047,0.351,-5.337
0.119,0.049,0.352,-5.337
0.226,0.044,0.351,-5.337
0.325,0.044,0.351,-5.337
0.250,0.043,0.349,-5.337
0.156,0.043,0.350,-5.337
0.146,0.046,0.348,-5.337
0.145,0.047,0.349,-5.337
0.209,0.042,0.348,-5.337
0.263,0.042,0.348,-5.337
0.270,0.041,0.346,-5.337
0.274,0.043,0.344,-5.337
0.204,0.043,0.344,-5.337
0.169,0.043,0.349,-5.337
0.208,0.041,0.350,-5.337
0.208,0.040,0.354,-5.337
0.183,0.040,0.353,-5.337
0.152,0.042,0.348,-5.337
0.230,0.041,0.346,-5.337
0.234,0.039,0.345,-5.337
0.208,0.038,0.346,-5.337
0.199,0.041,0.348,-5.337
0.170,0.045,0.349,-5.337
0.157,0.052,0.352,-5.337
0.120,0.050,0.353,-5.337
0.131,0.045,0.350,-5.337
0.131,0.046,0.347,-5.337
0.207,0.048,0.346,-5.337
0.258,0.048,0.348,-5.337
0.243,0.047,0.349,-5.337
0.181,0.046,0.348,-5.337
0.182,0.042,0.348,-5.337
0.222,0.042,0.347,-5.337
0.175,0.048,0.349,-5.337
0.176,0.046,0.350,-5.337
0.290,0.040,0.348,-5.337
0.338,0.039,0.345,-5.337
0.226,0.041,0.343,-5.337
0.222,0.040,0.349,-5.337
0.252,0.039,0.353,-5.337
0.226,0.042,0.347,-5.337
0.182,0.042,0.345,-5.337
0.222,0.041,0.352,-5.337
0.256,0.042,0.358,-5.337
0.220,0.043,0.358,-5.337
0.200,0.039,0.353,-5.337
0.237,0.041,0.348,-5.337
0.264,0.042,0.344,-5.337
0.228,0.044,0.345,-5.337
0.214,0.041,0.347,-5.337
0.238,0.041,0.348,-5.337
0.284,0.039,0.350,-5.337
0.342,0.039,0.347,-5.337
0.280,0.042,0.349,-5.337
0.182,0.043,0.346,-5.337
0.128,0.047,0.346,-5.337
0.140,0.045,0.345,-5.337
0.167,0.045,0.348,-5.337
0.132,0.045,0.350,-5.337
0.101,0.042,0.351,-5.337
0.150,0.041,0.353,-5.337
0.170,0.044,0.351,-5.337
0.130,0.044,0.345,-5.337
0.142,0.038,0.342,-5.337
0.221,0.037,0.345,-5.337
0.175,0.042,0.350,-5.337
0.150,0.045,0.348,-5.337
0.184,0.046,0.344,-5.337
0.157,0.044,0.343,-5.337
0.173,0.042,0.346,-5.337
0.141,0.042,0.352,-5.337
0.155,0.041,0.351,-5.337
0.195,0.039,0.350,-5.337
0.190,0.041,0.346,-5.337
0.195,0.041,0.344,-5.337
0.269,0.037,0.345,-5.337
0.255,0.039,0.352,-5.337
0.143,0.041,0.353,-5.337
0.096,0.040,0.351,-5.337
0.184,0.039,0.351,-5.337
0.161,0.038,0.351,-5.337
0.087,0.040,0.350,-5.337
0.106,0.042,0.348,-5.337
0.188,0.040,0.347,-5.337
0.105,0.041,0.350,-5.337
0.084,0.038,0.353,-5.337
0.193,0.037,0.353,-5.337
0.262,0.036,0.350,-5.337
0.269,0.032,0.343,-5.337
0.221,0.033,0.337,-5.337
0.180,0.038,0.342,-5.337
0.240,0.038,0.348,-5.337
0.277,0.035,0.348,-5.337
0.283,0.033,0.347,-5.337
0.214,0.038,0.347,-5.337
0.210,0.039,0.351,-5.337
0.230,0.036,0.353,-5.337
0.228,0.038,0.350,-5.337
0.224,0.038,0.344,-5.337
0.223,0.041,0.344,-5.337
0.182,0.041,0.344,-5.337
0.198,0.038,0.349,-5.337
0.211,0.039,0.353,-5.337
0.193,0.042,0.355,-5.337
0.115,0.040,0.350,-5.337
0.123,0.038,0.344,-5.337
0.215,0.035,0.342,-5.337
0.250,0.040,0.345,-5.337
0.273,0.039,0.349,-5.337
0.202,0.036,0.351,-5.337
0.138,0.033,0.350,-5.337
0.146,0.036,0.350,-5.337
0.240,0.036,0.350,-5.337
0.283,0.035,0.350,-5.337
0.213,0.041,0.347,-5.337
0.144,0.043,0.347,-5.337
0.185,0.040,0.349,-5.337
0.117,0.042,0.349,-5.337
0.094,0.041,0.345,-5.337
0.193,0.039,0.342,-5.337
0.288,0.033,0.342,-5.337
0.268,0.032,0.346,-5.337
0.227,0.036,0.352,-5.337
0.258,0.039,0.353,-5.337
0.214,0.039,0.351,-5.337
0.143,0.034,0.348,-5.337
0.189,0.030,0.348,-5.337
0.214,0.031,0.350,-5.337
0.160,0.041,0.350,-5.337
0.087,0.040,0.350,-5.337
0.104,0.041,0.352,-5.337
0.130,0.038,0.353,-5.337
0.154,0.037,0.353,-5.337
0.184,0.039,0.349,-5.337
0.146,0.040,0.347,-5.337
0.174,0.038,0.346,-5.337
0.245,0.039,0.351,-5.337
0.299,0.040,0.349,-5.337
0.274,0.040,0.349,-5.337
0.243,0.036,0.351,-5.337
0.308,0.035,0.349,-5.337
0.287,0.038,0.348,-5.337
0.247,0.038,0.349,-5.337
0.212,0.036,0.350,-5.337
0.270,0.030,0.349,-5.337
0.299,0.030,0.350,-5.337
0.294,0.032,0.347,-5.337
0.259,0.036,0.347,-5.337
0.240,0.039,0.344,-5.337
0.188,0.039,0.347,-5.337
0.188,0.037,0.348,-5.337
0.250,0.035,0.351,-5.337
0.289,0.038,0.352,-5.337
0.227,0.040,0.349,-5.337
0.181,0.038,0.346,-5.337
0.168,0.037,0.348,-5.337
0.203,0.037,0.351,-5.337
0.219,0.041,0.349,-5.337
0.175,0.042,0.346,-5.337
0.146,0.041,0.347,-5.337
0.132,0.041,0.353,-5.337
0.176,0.040,0.355,-5.337
0.208,0.041,0.351,-5.337
0.266,0.042,0.347,-5.337
0.265,0.043,0.348,-5.337
0.244,0.042,0.348,-5.337
0.238,0.044,0.353,-5.337
0.247,0.042,0.354,-5.337
0.219,0.044,0.356,-5.337
0.214,0.044,0.352,-5.337
0.242,0.044,0.350,-5.337
0.264,0.043,0.351,-5.337
0.268,0.047,0.352,-5.337
0.179,0.050,0.350,-5.337
0.171,0.050,0.346,-5.337
0.205,0.047,0.349,-5.337
0.192,0.049,0.355,-5.337
0.125,0.046,0.355,-5.337
0.184,0.045,0.353,-5.337
0.230,0.043,0.349,-5.337
0.247,0.043,0.350,-5.337
0.204,0.046,0.350,-5.337
0.196,0.046,0.347,-5.337
0.199,0.047,0.345,-5.337
0.211,0.044,0.347,-5.337
0.187,0.042,0.351,-5.337
0.172,0.043,0.352,-5.337
0.152,0.045,0.351,-5.337
0.168,0.043,0.345,-5.337
0.217,0.043,0.342,-5.337
0.157,0.045,0.346,-5.337
0.155,0.046,0.350,-5.337
0.197,0.046,0.346,-5.337
0.142,0.049,0.345,-5.337
0.116,0.049,0.349,-5.337
0.177,0.052,0.351,-5.337
0.115,0.051,0.351,-5.337
0.095,0.052,0.351,-5.337
0.091,0.052,0.349,-5.337
0.129,0.054,0.345,-5.337
0.174,0.054,0.347,-5.337
0.184,0.051,0.348,-5.337
0.228,0.055,0.346,-5.337
0.163,0.052,0.342,-5.337
0.216,0.046,0.346,-5.337
0.233,0.044,0.347,-5.337
0.220,0.046,0.348,-5.337
0.220,0.046,0.347,-5.337
0.282,0.046,0.347,-5.337
0.267,0.046,0.345,-5.337
0.144,0.047,0.346,-5.337
0.132,0.048,0.348,-5.337
0.164,0.046,0.353,-5.337
0.117,0.049,0.356,-5.337
0.095,0.049,0.355,-5.337
0.114,0.047,0.347,-5.337
0.127,0.048,0.346,-5.337
0.092,0.050,0.347,-5.337
0.162,0.048,0.349,-5.337
0.184,0.048,0.345,-5.337
0.165,0.049,0.348,-5.337
0.171,0.050,0.351,-5.337
0.224,0.050,0.348,-5.337
0.214,0.052,0.343,-5.337
0.180,0.050,0.344,-5.337
0.155,0.048,0.345,-5.337
0.137,0.048,0.348,-5.337
0.125,0.049,0.349,-5.337
0.182,0.047,0.349,-5.337
0.172,0.047,0.347,-5.337
0.170,0.049,0.344,-5.337
0.197,0.048,0.345,-5.337
0.250,0.049,0.345,-5.337
0.317,0.050,0.348,-5.337
0.248,0.052,0.346,-5.337
0.149,0.055,0.349,-5.337
0.169,0.053,0.347,-5.337
0.203,0.052,0.346,-5.337
0.181,0.054,0.345,-5.337
0.241,0.052,0.346,-5.337
0.216,0.049,0.345,-5.337
0.151,0.050,0.345,-5.337
0.128,0.049,0.345,-5.337
0.143,0.047,0.348,-5.337
0.127,0.044,0.348,-5.337
0.190,0.047,0.348,-5.337
0.204,0.048,0.344,-5.337
0.151,0.052,0.346,-5.337
0.127,0.053,0.346,-5.337
0.106,0.056,0.348,-5.337
0.102,0.054,0.347,-5.337
0.130,0.060,0.345,-5.337
0.070,0.060,0.347,-5.337
0.096,0.056,0.352,-5.337
0.148,0.058,0.350,-5.337
0.233,0.056,0.346,-5.337
0.264,0.059,0.347,-5.337
0.240,0.060,0.351,-5.337
0.197,0.059,0.354,-5.337
0.159,0.056,0.351,-5.337
0.172,0.053,0.348,-5.337
0.147,0.060,0.342,-5.337
0.130,0.065,0.341,-5.337
0.163,0.060,0.343,-5.337
0.159,0.057,0.346,-5.337
0.220,0.055,0.351,-5.337
0.253,0.058,0.350,-5.337
0.228,0.058,0.349,-5.337
0.190,0.056,0.349,-5.337
0.206,0.055,0.348,-5.337
0.213,0.052,0.345,-5.337
0.142,0.056,0.346,-5.337
0.176,0.060,0.348,-5.337
0.176,0.060,0.349,-5.337
0.193,0.056,0.349,-5.337
0.204,0.056,0.346,-5.337
0.157,0.060,0.340,-5.337
0.151,0.057,0.341,-5.337
0.189,0.054,0.347,-5.337
0.224,0.056,0.349,-5.337
0.235,0.053,0.345,-5.337
0.237,0.054,0.345,-5.337
0.244,0.055,0.347,-5.337
0.231,0.057,0.346,-5.337
0.191,0.057,0.348,-5.337
0.178,0.056,0.351,-5.337
0.189,0.053,0.350,-5.337
0.219,0.053,0.350,-5.337
0.240,0.052,0.351,-5.337
0.276,0.057,0.352,-5.337
0.240,0.059,0.350,-5.337
0.224,0.059,0.347,-5.337
0.232,0.056,0.345,-5.337
0.233,0.058,0.347,-5.337
0.275,0.059,0.349,-5.337
0.246,0.057,0.350,-5.337
0.251,0.052,0.351,-5.337
0.257,0.055,0.348,-5.337
0.173,0.060,0.343,-5.337
0.189,0.060,0.346,-5.337
0.209,0.053,0.350,-5.337
0.252,0.053,0.350,-5.337
0.224,0.059,0.349,-5.337
0.183,0.060,0.343,-5.337
0.188,0.060,0.344,-5.337
0.145,0.056,0.344,-5.337
0.175,0.057,0.342,-5.337
0.164,0.060,0.342,-5.337
0.103,0.062,0.346,-5.337
0.100,0.061,0.349,-5.337
0.093,0.061,0.351,-5.337
0.115,0.057,0.355,-5.337
0.183,0.054,0.356,-5.337
0.197,0.057,0.352,-5.337
0.188,0.060,0.347,-5.337
0.136,0.062,0.346,-5.337
0.134,0.061,0.347,-5.337
0.103,0.060,0.350,-5.337
0.118,0.056,0.351,-5.337
0.145,0.056,0.347,-5.337
0.115,0.056,0.349,-5.337
0.201,0.057,0.354,-5.337
0.255,0.060,0.353,-5.337
0.217,0.064,0.348,-5.337
0.095,0.063,0.342,-5.337
0.117,0.061,0.342,-5.337
0.221,0.062,0.343,-5.337
0.217,0.064,0.346,-5.337
0.123,0.065,0.349,-5.337
0.110,0.062,0.347,-5.337
0.204,0.059,0.346,-5.337
0.179,0.059,0.349,-5.337
0.164,0.062,0.348,-5.337
0.160,0.063,0.345,-5.337
0.208,0.060,0.347,-5.337
0.306,0.058,0.351,-5.337
0.228,0.061,0.351,-5.337
0.176,0.062,0.349,-5.337
0.216,0.063,0.346,-5.337
0.207,0.064,0.346,-5.337
0.216,0.063,0.349,-5.337
0.230,0.063,0.351,-5.337
0.152,0.065,0.352,-5.337
0.133,0.065,0.351,-5.337
0.128,0.062,0.350,-5.337
0.059,0.065,0.340,-5.337
0.089,0.064,0.340,-5.337
0.174,0.063,0.343,-5.337
0.209,0.062,0.348,-5.337
0.241,0.062,0.346,-5.337
0.244,0.063,0.344,-5.337
0.223,0.063,0.343,-5.337
0.167,0.062,0.345,-5.337
0.168,0.062,0.348,-5.337
0.171,0.062,0.350,-5.337
0.175,0.057,0.350,-5.337
0.188,0.060,0.348,-5.337
0.181,0.059,0.344,-5.337
0.198,0.059,0.343,-5.337
0.167,0.057,0.344,-5.337
0.191,0.056,0.347,-5.337
0.241,0.055,0.348,-5.337
0.251,0.060,0.346,-5.337
0.142,0.062,0.344,-5.337
0.116,0.062,0.347,-5.337
0.099,0.059,0.349,-5.337
0.085,0.061,0.346,-5.337
0.160,0.061,0.344,-5.337
0.189,0.063,0.343,-5.337
0.200,0.061,0.342,-5.337
0.186,0.066,0.340,-5.337
0.080,0.068,0.343,-5.337
0.106,0.062,0.346,-5.337
0.246,0.054,0.350,-5.337
0.305,0.054,0.353,-5.337
0.198,0.063,0.351,-5.337
0.128,0.064,0.348,-5.337
0.176,0.064,0.347,-5.337
0.177,0.061,0.343,-5.337
0.181,0.061,0.341,-5.337
0.143,0.064,0.343,-5.337
0.079,0.063,0.345,-5.337
0.170,0.059,0.347,-5.337
0.198,0.063,0.349,-5.337
0.153,0.066,0.350,-5.337
0.187,0.066,0.352,-5.337
0.214,0.066,0.353,-5.337
0.291,0.063,0.345,-5.337
0.271,0.063,0.342,-5.337
0.176,0.062,0.344,-5.337
0.207,0.064,0.350,-5.337
0.229,0.065,0.349,-5.337
0.190,0.065,0.346,-5.337
0.159,0.063,0.346,-5.337
0.167,0.061,0.344,-5.337
0.110,0.068,0.342,-5.337
0.059,0.068,0.349,-5.337
0.140,0.060,0.355,-5.337
0.232,0.059,0.352,-5.337
0.276,0.059,0.345,-5.337
0.253,0.063,0.345,-5.337
0.178,0.063,0.350,-5.337
0.131,0.065,0.352,-5.337
0.121,0.067,0.348,-5.337
0.081,0.064,0.350,-5.337
0.145,0.061,0.348,-5.337
0.235,0.061,0.348,-5.337
0.242,0.061,0.349,-5.337
0.167,0.062,0.349,-5.337
0.108,0.063,0.348,-5.337
0.101,0.064,0.347,-5.337
0.122,0.061,0.348,-5.337
0.189,0.057,0.348,-5.337
0.176,0.060,0.346,-5.337
0.222,0.062,0.346,-5.337
0.233,0.057,0.348,-5.337
0.247,0.055,0.346,-5.337
0.290,0.053,0.349,-5.337
0.285,0.055,0.349,-5.337
0.203,0.061,0.349,-5.337
0.089,0.060,0.350,-5.337
0.124,0.060,0.349,-5.337
0.235,0.059,0.347,-5.337
0.249,0.056,0.347,-5.337
0.174,0.056,0.350,-5.337
0.178,0.058,0.350,-5.337
0.253,0.058,0.351,-5.337
0.184,0.058,0.352,-5.337
0.042,0.057,0.351,-5.337
0.148,0.053,0.348,-5.337
0.274,0.051,0.346,-5.337
0.187,0.054,0.348,-5.337
0.212,0.050,0.351,-5.337
0.289,0.047,0.353,-5.337
0.317,0.048,0.351,-5.337
0.246,0.051,0.345,-5.337
0.196,0.055,0.346,-5.337
0.170,0.055,0.345,-5.337
0.196,0.055,0.347,-5.337
0.190,0.055,0.348,-5.337
0.212,0.055,0.351,-5.337
0.185,0.054,0.353,-5.337
0.239,0.052,0.351,-5.337
0.271,0.049,0.350,-5.337
0.316,0.050,0.350,-5.337
0.270,0.052,0.350,-5.337
0.222,0.050,0.348,-5.337
0.173,0.051,0.349,-5.337
0.125,0.053,0.348,-5.337
0.161,0.053,0.350,-5.337
0.192,0.052,0.350,-5.337
0.230,0.049,0.350,-5.337
0.229,0.050,0.350,-5.337
0.164,0.051,0.352,-5.337
0.139,0.052,0.351,-5.337
0.158,0.052,0.351,-5.337
0.169,0.049,0.346,-5.337
0.129,0.052,0.344,-5.337
0.189,0.057,0.343,-5.337
0.281,0.051,0.345,-5.337
0.300,0.044,0.345,-5.337
0.252,0.044,0.348,-5.337
0.213,0.049,0.350,-5.337
0.205,0.049,0.353,-5.337
0.176,0.046,0.353,-5.337
0.129,0.046,0.350,-5.337
0.115,0.046,0.350,-5.337
0.190,0.050,0.350,-5.337
0.185,0.049,0.350,-5.337
0.147,0.046,0.349,-5.337
0.107,0.047,0.346,-5.337
0.153,0.045,0.349,-5.337
0.188,0.047,0.347,-5.337
0.185,0.048,0.346,-5.337
0.203,0.045,0.345,-5.337
0.204,0.045,0.345,-5.337
0.176,0.047,0.348,-5.337
0.167,0.045,0.349,-5.337
0.170,0.044,0.350,-5.337
0.232,0.042,0.351,-5.337
0.228,0.043,0.352,-5.337
0.208,0.044,0.348,-5.337
0.169,0.044,0.343,-5.337
0.226,0.042,0.340,-5.337
0.285,0.042,0.342,-5.337
0.291,0.041,0.343,-5.337
0.195,0.047,0.346,-5.337
0.097,0.047,0.348,-5.337
0.096,0.048,0.351,-5.337
0.214,0.043,0.349,-5.337
0.285,0.041,0.347,-5.337
0.119,0.044,0.350,-5.337
0.087,0.044,0.353,-5.337
0.145,0.043,0.353,-5.337
0.171,0.041,0.352,-5.337
0.161,0.041,0.351,-5.337
0.159,0.044,0.350,-5.337
0.218,0.041,0.349,-5.337
0.242,0.039,0.347,-5.337
0.191,0.042,0.347,-5.337
0.122,0.047,0.349,-5.337
0.141,0.048,0.351,-5.337
0.209,0.045,0.349,-5.337
0.253,0.043,0.349,-5.337
0.262,0.039,0.348,-5.337
0.236,0.040,0.349,-5.337
0.262,0.040,0.347,-5.337
0.292,0.043,0.348,-5.337
0.255,0.042,0.346,-5.337
0.289,0.037,0.344,-5.337
0.334,0.036,0.342,-5.337
0.224,0.042,0.345,-5.337
0.231,0.040,0.349,-5.337
0.368,0.034,0.351,-5.337
0.297,0.036,0.350,-5.337
0.195,0.042,0.349,-5.337
0.223,0.040,0.347,-5.337
0.258,0.041,0.351,-5.337
0.198,0.042,0.352,-5.337
0.164,0.041,0.350,-5.337
0.204,0.041,0.349,-5.337
0.217,0.041,0.349,-5.337
0.268,0.040,0.347,-5.337
0.198,0.042,0.344,-5.337
0.151,0.040,0.345,-5.337
0.143,0.040,0.347,-5.337
0.098,0.040,0.346,-5.337
0.085,0.040,0.345,-5.337
0.127,0.043,0.350,-5.337
0.251,0.040,0.350,-5.337
0.267,0.041,0.348,-5.337
0.222,0.038,0.345,-5.337
0.218,0.038,0.347,-5.337
0.181,0.037,0.350,-5.337
0.191,0.041,0.355,-5.337
0.276,0.037,0.356,-5.337
0.419,0.034,0.352,-5.337
0.362,0.034,0.346,-5.337
0.197,0.035,0.343,-5.337
0.094,0.039,0.340,-5.337
0.119,0.043,0.345,-5.337
0.183,0.040,0.351,-5.337
0.269,0.038,0.353,-5.337
0.302,0.038,0.349,-5.337
0.289,0.036,0.347,-5.337
0.227,0.038,0.350,-5.337
0.178,0.039,0.352,-5.337
0.143,0.043,0.348,-5.337
0.121,0.043,0.346,-5.337
0.179,0.043,0.347,-5.337
0.243,0.042,0.345,-5.337
0.255,0.041,0.347,-5.337
0.219,0.040,0.350,-5.337
0.168,0.041,0.353,-5.337
0.132,0.040,0.353,-5.337
0.133,0.038,0.352,-5.337
0.182,0.036,0.348,-5.337
0.220,0.041,0.350,-5.337
0.321,0.042,0.353,-5.337
0.261,0.041,0.353,-5.337
0.163,0.036,0.348,-5.337
0.159,0.039,0.343,-5.337
0.213,0.041,0.347,-5.337
0.203,0.041,0.348,-5.337
0.142,0.044,0.348,-5.337
0.168,0.044,0.350,-5.337
0.173,0.043,0.355,-5.337
0.200,0.041,0.354,-5.337
0.216,0.042,0.348,-5.337
0.230,0.043,0.346,-5.337
0.264,0.044,0.349,-5.337
0.212,0.042,0.350,-5.337
0.184,0.040,0.351,-5.337
0.259,0.041,0.349,-5.337
0.262,0.047,0.347,-5.337
0.145,0.049,0.347,-5.337
0.187,0.048,0.349,-5.337
0.276,0.046,0.347,-5.337
0.244,0.043,0.343,-5.337
0.222,0.042,0.344,-5.337
0.160,0.044,0.349,-5.337
0.137,0.046,0.355,-5.337
0.117,0.047,0.356,-5.337
0.076,0.050,0.355,-5.337
0.126,0.044,0.355,-5.337
0.213,0.040,0.351,-5.337
0.279,0.041,0.349,-5.337
0.276,0.042,0.351,-5.337
0.210,0.039,0.350,-5.337
0.206,0.041,0.350,-5.337
0.143,0.043,0.350,-5.337
0.144,0.040,0.350,-5.337
0.250,0.041,0.349,-5.337
0.348,0.041,0.353,-5.337
0.306,0.038,0.352,-5.337
0.268,0.038,0.351,-5.337
0.276,0.041,0.346,-5.337
0.284,0.038,0.344,-5.337
0.255,0.037,0.342,-5.337
0.200,0.042,0.340,-5.337
0.177,0.045,0.341,-5.337
0.123,0.044,0.344,-5.337
0.113,0.041,0.347,-5.337
0.132,0.045,0.349,-5.337
0.186,0.042,0.352,-5.337
0.201,0.037,0.354,-5.337
0.221,0.037,0.354,-5.337
0.205,0.041,0.353,-5.337
0.196,0.043,0.348,-5.337
0.214,0.043,0.345,-5.337
0.186,0.042,0.347,-5.337
0.174,0.043,0.352,-5.337
0.204,0.046,0.355,-5.337
0.180,0.044,0.352,-5.337
0.211,0.040,0.349,-5.337
0.280,0.040,0.349,-5.337
0.246,0.041,0.349,-5.337
0.208,0.041,0.343,-5.337
0.244,0.041,0.346,-5.337
0.311,0.041,0.349,-5.337
0.239,0.045,0.353,-5.337
0.224,0.043,0.350,-5.337
0.261,0.044,0.346,-5.337
0.213,0.045,0.346,-5.337
0.224,0.044,0.344,-5.337
0.240,0.043,0.345,-5.337
0.246,0.045,0.351,-5.337
0.232,0.045,0.354,-5.337
0.156,0.047,0.351,-5.337
0.102,0.042,0.344,-5.337
0.184,0.043,0.339,-5.337
0.233,0.045,0.342,-5.337
0.167,0.044,0.343,-5.337
0.092,0.045,0.345,-5.337
0.110,0.043,0.350,-5.337
0.213,0.043,0.354,-5.337
0.213,0.043,0.353,-5.337
0.162,0.041,0.351,-5.337
0.141,0.044,0.350,-5.337
0.204,0.039,0.349,-5.337
0.227,0.041,0.349,-5.337
0.197,0.041,0.353,-5.337
0.206,0.044,0.351,-5.337
0.164,0.044,0.348,-5.337
0.181,0.043,0.349,-5.337
0.287,0.038,0.349,-5.337
0.304,0.039,0.346,-5.337
0.212,0.041,0.343,-5.337
0.140,0.042,0.342,-5.337
0.143,0.046,0.348,-5.337
0.173,0.045,0.353,-5.337
0.178,0.044,0.352,-5.337
0.176,0.040,0.354,-5.337
0.105,0.041,0.353,-5.337
0.100,0.040,0.346,-5.337
0.131,0.044,0.340,-5.337
0.176,0.043,0.339,-5.337
0.200,0.042,0.342,-5.337
0.103,0.046,0.349,-5.337
0.114,0.046,0.353,-5.337
0.236,0.044,0.354,-5.337
0.264,0.040,0.350,-5.337
0.131,0.043,0.350,-5.337
0.080,0.046,0.350,-5.337
0.084,0.045,0.349,-5.337
0.106,0.045,0.348,-5.337
0.134,0.044,0.349,-5.337
0.158,0.044,0.351,-5.337
0.181,0.045,0.351,-5.337
0.139,0.047,0.348,-5.337
0.106,0.048,0.350,-5.337
0.178,0.043,0.349,-5.337
0.260,0.046,0.347,-5.337
0.279,0.048,0.347,-5.337
0.261,0.047,0.348,-5.337
0.212,0.046,0.345,-5.337
0.157,0.045,0.344,-5.337
0.195,0.043,0.345,-5.337
0.206,0.041,0.345,-5.337
0.135,0.045,0.347,-5.337
0.097,0.047,0.349,-5.337
0.180,0.042,0.350,-5.337
0.183,0.042,0.353,-5.337
0.102,0.047,0.353,-5.337
0.191,0.049,0.351,-5.337
0.204,0.045,0.351,-5.337
0.179,0.040,0.354,-5.337
0.198,0.042,0.357,-5.337
0.179,0.046,0.351,-5.337
0.210,0.048,0.347,-5.337
0.179,0.050,0.343,-5.337
0.081,0.051,0.348,-5.337
0.148,0.045,0.352,-5.337
0.220,0.043,0.352,-5.337
0.280,0.040,0.349,-5.337
0.262,0.040,0.349,-5.337
0.252,0.043,0.350,-5.337
0.268,0.048,0.348,-5.337
0.220,0.049,0.347,-5.337
0.197,0.045,0.349,-5.337
0.156,0.048,0.344,-5.337
0.118,0.052,0.348,-5.337
0.226,0.049,0.351,-5.337
0.300,0.049,0.349,-5.337
0.208,0.052,0.351,-5.337
0.132,0.053,0.354,-5.337
0.132,0.051,0.355,-5.337
0.165,0.051,0.349,-5.337
0.150,0.053,0.349,-5.337
0.109,0.053,0.349,-5.337
0.152,0.053,0.351,-5.337
0.198,0.052,0.353,-5.337
0.172,0.055,0.352,-5.337
0.087,0.057,0.347,-5.337
0.056,0.057,0.345,-5.337
0.077,0.058,0.348,-5.337
0.193,0.055,0.349,-5.337
0.232,0.053,0.347,-5.337
0.199,0.056,0.349,-5.337
0.205,0.058,0.352,-5.337
0.206,0.056,0.352,-5.337
0.212,0.057,0.346,-5.337
0.147,0.060,0.344,-5.337
0.107,0.059,0.347,-5.337
0.123,0.060,0.352,-5.337
0.156,0.059,0.352,-5.337
0.219,0.053,0.349,-5.337
0.153,0.054,0.347,-5.337
0.120,0.058,0.346,-5.337
0.119,0.057,0.347,-5.337
0.120,0.055,0.348,-5.337
0.142,0.055,0.353,-5.337
0.153,0.055,0.352,-5.337
0.196,0.054,0.351,-5.337
0.271,0.053,0.348,-5.337
0.328,0.052,0.346,-5.337
0.287,0.054,0.345,-5.337
0.157,0.060,0.348,-5.337
0.129,0.056,0.352,-5.337
0.282,0.053,0.353,-5.337
0.276,0.055,0.349,-5.337
0.167,0.062,0.343,-5.337
0.065,0.061,0.339,-5.337
0.113,0.057,0.342,-5.337
0.212,0.055,0.346,-5.337
0.203,0.057,0.350,-5.337
0.153,0.061,0.351,-5.337
0.069,0.065,0.347,-5.337
0.097,0.061,0.346,-5.337
0.130,0.061,0.346,-5.337
0.150,0.061,0.346,-5.337
0.178,0.062,0.345,-5.337
0.219,0.062,0.347,-5.337
0.167,0.066,0.348,-5.337
0.126,0.064,0.351,-5.337
0.167,0.063,0.353,-5.337
0.204,0.063,0.355,-5.337
0.219,0.060,0.351,-5.337
0.176,0.065,0.345,-5.337
0.117,0.065,0.342,-5.337
0.097,0.066,0.343,-5.337
0.100,0.068,0.347,-5.337
0.163,0.065,0.351,-5.337
0.159,0.062,0.351,-5.337
0.225,0.059,0.349,-5.337
0.154,0.060,0.348,-5.337
0.128,0.061,0.349,-5.337
0.154,0.062,0.347,-5.337
0.194,0.064,0.344,-5.337
0.214,0.061,0.346,-5.337
0.229,0.059,0.343,-5.337
0.173,0.062,0.342,-5.337
0.105,0.062,0.346,-5.337
0.086,0.060,0.351,-5.337
0.137,0.054,0.350,-5.337
0.182,0.055,0.347,-5.337
0.150,0.060,0.343,-5.337
0.207,0.062,0.344,-5.337
0.210,0.060,0.344,-5.337
0.221,0.058,0.349,-5.337
0.203,0.060,0.352,-5.337
0.117,0.060,0.353,-5.337
0.134,0.059,0.349,-5.337
0.146,0.061,0.344,-5.337
0.091,0.061,0.346,-5.337
0.118,0.055,0.349,-5.337
0.228,0.054,0.352,-5.337
0.288,0.055,0.351,-5.337
0.254,0.057,0.347,-5.337
0.192,0.058,0.342,-5.337
0.151,0.060,0.341,-5.337
0.152,0.059,0.345,-5.337
0.190,0.059,0.346,-5.337
0.173,0.059,0.343,-5.337
0.190,0.058,0.342,-5.337
0.206,0.054,0.344,-5.337
0.207,0.055,0.352,-5.337
0.293,0.054,0.353,-5.337
0.326,0.054,0.352,-5.337
0.233,0.057,0.349,-5.337
0.170,0.060,0.345,-5.337
0.140,0.064,0.342,-5.337
0.178,0.062,0.342,-5.337
0.311,0.055,0.345,-5.337
0.314,0.056,0.350,-5.337
0.269,0.061,0.352,-5.337
0.224,0.064,0.349,-5.337
0.199,0.063,0.345,-5.337
0.204,0.062,0.346,-5.337
0.204,0.061,0.349,-5.337
0.160,0.063,0.348,-5.337
0.176,0.066,0.345,-5.337
0.182,0.066,0.344,-5.337
0.136,0.065,0.345,-5.337
0.148,0.063,0.347,-5.337
0.199,0.060,0.348,-5.337
0.216,0.061,0.349,-5.337
0.216,0.061,0.353,-5.337
0.173,0.063,0.353,-5.337
0.176,0.060,0.349,-5.337
0.237,0.060,0.347,-5.337
0.247,0.061,0.348,-5.337
0.262,0.059,0.348,-5.337
0.216,0.059,0.349,-5.337
0.263,0.060,0.349,-5.337
0.213,0.059,0.346,-5.337
0.092,0.056,0.344,-5.337
0.084,0.060,0.347,-5.337
0.077,0.064,0.350,-5.337
0.116,0.061,0.349,-5.337
0.086,0.061,0.347,-5.337
0.098,0.060,0.342,-5.337
0.137,0.059,0.342,-5.337
0.156,0.055,0.347,-5.337
0.180,0.056,0.349,-5.337
0.229,0.057,0.351,-5.337
0.184,0.057,0.351,-5.337
0.158,0.057,0.353,-5.337
0.205,0.054,0.354,-5.337
0.259,0.059,0.351,-5.337
0.256,0.061,0.349,-5.337
0.187,0.061,0.348,-5.337
0.150,0.062,0.350,-5.337
0.116,0.063,0.347,-5.337
0.193,0.065,0.346,-5.337
0.197,0.064,0.346,-5.337
0.194,0.062,0.348,-5.337
0.176,0.060,0.345,-5.337
0.186,0.060,0.345,-5.337
0.222,0.060,0.347,-5.337
0.275,0.059,0.351,-5.337
0.205,0.061,0.350,-5.337
0.188,0.061,0.347,-5.337
0.234,0.059,0.347,-5.337
0.224,0.063,0.348,-5.337
0.127,0.065,0.349,-5.337
0.137,0.061,0.350,-5.337
0.205,0.061,0.349,-5.337
0.146,0.065,0.349,-5.337
0.129,0.063,0.349,-5.337
0.163,0.065,0.349,-5.337
0.195,0.061,0.349,-5.337
0.222,0.058,0.345,-5.337
0.216,0.062,0.347,-5.337
0.192,0.061,0.348,-5.337
0.247,0.056,0.350,-5.337
0.308,0.053,0.352,-5.337
0.277,0.058,0.354,-5.337
0.182,0.061,0.352,-5.337
0.126,0.060,0.350,-5.337
0.144,0.057,0.348,-5.337
0.211,0.060,0.346,-5.337
0.228,0.060,0.348,-5.337
0.182,0.063,0.348,-5.337
0.135,0.064,0.347,-5.337
0.150,0.062,0.346,-5.337
0.163,0.059,0.347,-5.337
0.184,0.059,0.349,-5.337
0.138,0.062,0.348,-5.337
0.144,0.065,0.348,-5.337
0.153,0.063,0.346,-5.337
0.131,0.065,0.347,-5.337
0.146,0.064,0.352,-5.337
0.146,0.064,0.350,-5.337
0.160,0.062,0.348,-5.337
0.137,0.061,0.345,-5.337
0.176,0.061,0.343,-5.337
0.259,0.061,0.343,-5.337
0.245,0.061,0.347,-5.337
0.172,0.060,0.348,-5.337
0.072,0.065,0.348,-5.337
0.122,0.065,0.342,-5.337
0.197,0.064,0.342,-5.337
0.186,0.062,0.347,-5.337
0.176,0.061,0.348,-5.337
0.239,0.059,0.347,-5.337
0.204,0.063,0.346,-5.337
0.154,0.062,0.347,-5.337
0.132,0.062,0.350,-5.337
0.149,0.061,0.349,-5.337
0.168,0.060,0.345,-5.337
0.194,0.061,0.343,-5.337
0.147,0.063,0.345,-5.337
0.066,0.062,0.346,-5.337
0.100,0.061,0.348,-5.337
0.180,0.058,0.351,-5.337
0.225,0.060,0.351,-5.337
0.226,0.059,0.351,-5.337
0.190,0.058,0.349,-5.337
0.148,0.057,0.349,-5.337
0.236,0.053,0.345,-5.337
0.267,0.054,0.342,-5.337
0.209,0.056,0.340,-5.337
0.157,0.056,0.343,-5.337
0.218,0.051,0.346,-5.337
0.270,0.055,0.350,-5.337
0.205,0.057,0.347,-5.337
0.146,0.056,0.346,-5.337
0.155,0.050,0.349,-5.337
0.143,0.050,0.350,-5.337
0.084,0.050,0.345,-5.337
0.162,0.047,0.343,-5.337
0.192,0.048,0.346,-5.337
0.134,0.051,0.351,-5.337
0.108,0.051,0.349,-5.337
0.167,0.051,0.346,-5.337
0.247,0.049,0.346,-5.337
0.193,0.051,0.345,-5.337
0.241,0.045,0.344,-5.337
0.292,0.047,0.346,-5.337
0.211,0.049,0.351,-5.337
0.156,0.049,0.351,-5.337
0.222,0.046,0.347,-5.337
0.194,0.044,0.345,-5.337
0.110,0.048,0.346,-5.337
0.028,0.053,0.344,-5.337
0.063,0.055,0.347,-5.337
0.080,0.052,0.349,-5.337
0.064,0.052,0.352,-5.337
0.088,0.051,0.352,-5.337
0.207,0.048,0.351,-5.337
0.281,0.047,0.350,-5.337
0.154,0.050,0.349,-5.337
0.039,0.050,0.349,-5.337
0.155,0.047,0.348,-5.337
0.162,0.044,0.348,-5.337
0.109,0.048,0.348,-5.337
0.149,0.046,0.350,-5.337
0.249,0.042,0.350,-5.337
0.261,0.044,0.345,-5.337
0.232,0.044,0.343,-5.337
0.156,0.045,0.344,-5.337
0.148,0.044,0.348,-5.337
0.155,0.045,0.351,-5.337
0.122,0.046,0.351,-5.337
0.186,0.045,0.351,-5.337
0.286,0.042,0.345,-5.337
0.277,0.042,0.341,-5.337
0.257,0.045,0.342,-5.337
0.189,0.046,0.346,-5.337
0.180,0.044,0.349,-5.337
0.190,0.046,0.352,-5.337
0.146,0.048,0.356,-5.337
0.081,0.048,0.354,-5.337
0.121,0.049,0.352,-5.337
0.156,0.043,0.351,-5.337
0.155,0.041,0.351,-5.337
0.104,0.039,0.352,-5.337
0.089,0.044,0.352,-5.337
0.129,0.046,0.347,-5.337
0.149,0.046,0.345,-5.337
0.140,0.042,0.350,-5.337
0.100,0.045,0.353,-5.337
0.036,0.046,0.356,-5.337
0.142,0.042,0.354,-5.337
0.251,0.042,0.351,-5.337
0.317,0.039,0.347,-5.337
0.303,0.038,0.345,-5.337
0.263,0.042,0.345,-5.337
0.285,0.041,0.346,-5.337
0.268,0.042,0.348,-5.337
0.220,0.044,0.349,-5.337
0.240,0.045,0.349,-5.337
0.262,0.043,0.351,-5.337
0.219,0.041,0.354,-5.337
0.145,0.041,0.352,-5.337
0.152,0.042,0.351,-5.337
0.219,0.042,0.347,-5.337
0.197,0.042,0.345,-5.337
0.203,0.039,0.348,-5.337
0.253,0.036,0.355,-5.337
0.231,0.041,0.357,-5.337
0.172,0.042,0.349,-5.337
0.211,0.037,0.344,-5.337
0.140,0.043,0.347,-5.337
0.110,0.043,0.348,-5.337
0.130,0.041,0.346,-5.337
0.163,0.038,0.348,-5.337
0.178,0.041,0.352,-5.337
0.111,0.046,0.358,-5.337
0.134,0.044,0.357,-5.337
0.172,0.040,0.353,-5.337
0.150,0.039,0.352,-5.337
0.199,0.037,0.351,-5.337
0.206,0.035,0.350,-5.337
0.176,0.035,0.348,-5.337
0.189,0.035,0.346,-5.337
0.110,0.040,0.346,-5.337
0.111,0.037,0.345,-5.337
0.192,0.037,0.346,-5.337
0.251,0.035,0.344,-5.337
0.252,0.032,0.344,-5.337
0.193,0.034,0.349,-5.337
0.138,0.036,0.353,-5.337
0.146,0.036,0.353,-5.337
0.133,0.037,0.347,-5.337
0.129,0.038,0.348,-5.337
0.113,0.036,0.351,-5.337
0.193,0.034,0.352,-5.337
0.226,0.034,0.349,-5.337
0.246,0.033,0.347,-5.337
0.237,0.033,0.348,-5.337
0.220,0.034,0.350,-5.337
0.277,0.034,0.346,-5.337
0.273,0.035,0.343,-5.337
0.249,0.033,0.344,-5.337
0.237,0.035,0.351,-5.337
0.226,0.037,0.352,-5.337
0.240,0.041,0.348,-5.337
0.265,0.036,0.344,-5.337
0.250,0.036,0.344,-5.337
0.205,0.037,0.343,-5.337
0.124,0.041,0.347,-5.337
0.116,0.041,0.353,-5.337
0.153,0.039,0.355,-5.337
0.123,0.038,0.353,-5.337
0.061,0.036,0.352,-5.337
0.145,0.036,0.349,-5.337
0.262,0.036,0.346,-5.337
0.198,0.041,0.346,-5.337
0.135,0.040,0.348,-5.337
0.112,0.040,0.350,-5.337
0.107,0.044,0.348,-5.337
0.134,0.042,0.347,-5.337
0.135,0.035,0.346,-5.337
0.154,0.035,0.349,-5.337
0.120,0.039,0.352,-5.337
0.164,0.037,0.351,-5.337
0.275,0.035,0.350,-5.337
0.256,0.033,0.349,-5.337
0.215,0.034,0.352,-5.337
0.180,0.034,0.350,-5.337
0.173,0.037,0.346,-5.337
0.139,0.037,0.347,-5.337
0.133,0.034,0.350,-5.337
0.185,0.034,0.350,-5.337
0.228,0.031,0.342,-5.337
0.167,0.037,0.341,-5.337
0.120,0.038,0.345,-5.337
0.141,0.041,0.349,-5.337
0.156,0.037,0.352,-5.337
0.201,0.033,0.354,-5.337
0.254,0.033,0.352,-5.337
0.227,0.030,0.347,-5.337
0.182,0.034,0.347,-5.337
0.131,0.037,0.349,-5.337
0.135,0.034,0.350,-5.337
0.136,0.033,0.342,-5.337
0.181,0.030,0.343,-5.337
0.226,0.033,0.345,-5.337
0.221,0.034,0.350,-5.337
0.197,0.031,0.353,-5.337
0.140,0.036,0.350,-5.337
0.123,0.038,0.347,-5.337
0.219,0.035,0.348,-5.337
0.223,0.036,0.347,-5.337
0.200,0.034,0.349,-5.337
0.243,0.034,0.351,-5.337
0.307,0.033,0.351,-5.337
0.292,0.033,0.349,-5.337
0.242,0.036,0.348,-5.337
0.179,0.037,0.346,-5.337
0.189,0.034,0.344,-5.337
0.232,0.035,0.343,-5.337
0.241,0.037,0.344,-5.337
0.216,0.040,0.345,-5.337
0.247,0.036,0.349,-5.337
0.273,0.032,0.352,-5.337
0.247,0.038,0.354,-5.337
0.133,0.041,0.353,-5.337
0.148,0.037,0.349,-5.337
0.213,0.033,0.348,-5.337
0.208,0.033,0.345,-5.337
0.184,0.035,0.347,-5.337
0.142,0.034,0.352,-5.337
0.135,0.035,0.355,-5.337
0.151,0.032,0.352,-5.337
0.162,0.034,0.349,-5.337
0.107,0.038,0.351,-5.337
0.200,0.036,0.353,-5.337
0.274,0.033,0.351,-5.337
0.253,0.039,0.346,-5.337
0.277,0.039,0.344,-5.337
0.327,0.036,0.349,-5.337
0.332,0.030,0.352,-5.337
0.253,0.034,0.353,-5.337
0.199,0.036,0.350,-5.337
0.196,0.035,0.348,-5.337
0.232,0.031,0.348,-5.337
0.237,0.032,0.351,-5.337
0.173,0.035,0.353,-5.337
0.122,0.034,0.353,-5.337
0.152,0.034,0.355,-5.337
0.192,0.035,0.352,-5.337
0.189,0.037,0.350,-5.337
0.244,0.033,0.346,-5.337
0.148,0.035,0.345,-5.337
0.121,0.034,0.347,-5.337
0.142,0.035,0.348,-5.337
0.170,0.035,0.348,-5.337
0.186,0.032,0.350,-5.337
0.242,0.031,0.352,-5.337
0.323,0.032,0.355,-5.337
0.262,0.033,0.354,-5.337
0.172,0.036,0.352,-5.337
0.106,0.033,0.349,-5.337
0.113,0.033,0.347,-5.337
0.114,0.037,0.347,-5.337
0.121,0.035,0.346,-5.337
0.148,0.031,0.348,-5.337
0.165,0.029,0.345,-5.337
0.252,0.029,0.346,-5.337
0.288,0.029,0.348,-5.337
0.259,0.035,0.351,-5.337
0.147,0.037,0.347,-5.337
0.088,0.040,0.345,-5.337
0.151,0.037,0.344,-5.337
0.136,0.035,0.349,-5.337
0.090,0.035,0.351,-5.337
0.111,0.033,0.348,-5.337
0.212,0.030,0.345,-5.337
0.269,0.033,0.348,-5.337
0.217,0.033,0.352,-5.337
0.232,0.032,0.356,-5.337
0.191,0.035,0.356,-5.337
0.209,0.035,0.352,-5.337
0.338,0.032,0.350,-5.337
0.293,0.038,0.350,-5.337
0.171,0.038,0.348,-5.337
0.180,0.035,0.344,-5.337
0.222,0.036,0.345,-5.337
0.207,0.037,0.350,-5.337
0.176,0.037,0.353,-5.337
0.162,0.039,0.345,-5.337
0.167,0.038,0.341,-5.337
0.136,0.039,0.344,-5.337
0.092,0.040,0.349,-5.337
0.138,0.034,0.345,-5.337
0.123,0.032,0.344,-5.337
0.092,0.035,0.350,-5.337
0.129,0.037,0.353,-5.337
0.180,0.037,0.349,-5.337
0.183,0.041,0.350,-5.337
0.186,0.041,0.350,-5.337
0.155,0.042,0.353,-5.337
0.158,0.041,0.353,-5.337
0.168,0.043,0.352,-5.337
0.157,0.046,0.351,-5.337
0.122,0.047,0.350,-5.337
0.123,0.045,0.349,-5.337
0.111,0.048,0.342,-5.337
0.057,0.048,0.340,-5.337
0.079,0.046,0.343,-5.337
0.154,0.044,0.346,-5.337
0.183,0.044,0.351,-5.337
0.174,0.041,0.352,-5.337
0.151,0.041,0.353,-5.337
0.168,0.041,0.355,-5.337
0.252,0.040,0.355,-5.337
0.267,0.040,0.351,-5.337
0.228,0.045,0.343,-5.337
0.256,0.043,0.343,-5.337
0.258,0.042,0.346,-5.337
0.208,0.045,0.349,-5.337
0.162,0.044,0.348,-5.337
0.192,0.044,0.346,-5.337
0.212,0.044,0.343,-5.337
0.257,0.043,0.342,-5.337
0.259,0.042,0.344,-5.337
0.219,0.043,0.348,-5.337
0.218,0.043,0.350,-5.337
0.204,0.042,0.349,-5.337
0.110,0.042,0.349,-5.337
0.116,0.045,0.349,-5.337
0.128,0.047,0.350,-5.337
0.150,0.043,0.346,-5.337
0.127,0.045,0.343,-5.337
0.127,0.047,0.343,-5.337
0.146,0.048,0.347,-5.337
0.220,0.045,0.351,-5.337
0.231,0.043,0.353,-5.337
0.182,0.045,0.346,-5.337
0.145,0.046,0.346,-5.337
0.185,0.049,0.348,-5.337
0.158,0.049,0.350,-5.337
0.170,0.046,0.350,-5.337
0.167,0.047,0.351,-5.337
0.165,0.044,0.347,-5.337
0.199,0.047,0.345,-5.337
0.202,0.052,0.347,-5.337
0.228,0.049,0.351,-5.337
0.151,0.047,0.352,-5.337
0.069,0.050,0.352,-5.337
0.071,0.048,0.350,-5.337
0.158,0.047,0.346,-5.337
0.252,0.042,0.350,-5.337
0.255,0.041,0.352,-5.337
0.204,0.042,0.348,-5.337
0.255,0.046,0.345,-5.337
0.261,0.049,0.346,-5.337
0.177,0.049,0.350,-5.337
0.128,0.048,0.353,-5.337
0.161,0.050,0.348,-5.337
0.191,0.050,0.347,-5.337
0.176,0.052,0.352,-5.337
0.190,0.050,0.356,-5.337
0.141,0.048,0.351,-5.337
0.102,0.052,0.349,-5.337
0.099,0.058,0.352,-5.337
0.118,0.055,0.354,-5.337
0.070,0.051,0.352,-5.337
0.099,0.051,0.352,-5.337
0.114,0.051,0.347,-5.337
0.094,0.051,0.344,-5.337
0.117,0.050,0.348,-5.337
0.138,0.050,0.353,-5.337
0.111,0.049,0.354,-5.337
0.102,0.047,0.351,-5.337
0.106,0.047,0.348,-5.337
0.159,0.048,0.347,-5.337
0.197,0.047,0.347,-5.337
0.170,0.048,0.350,-5.337
0.064,0.052,0.350,-5.337
0.031,0.051,0.350,-5.337
0.119,0.049,0.349,-5.337
0.180,0.051,0.351,-5.337
0.182,0.049,0.354,-5.337
0.196,0.052,0.349,-5.337
0.247,0.052,0.347,-5.337
0.309,0.052,0.345,-5.337
0.193,0.054,0.348,-5.337
0.160,0.054,0.350,-5.337
0.235,0.054,0.349,-5.337
0.236,0.053,0.346,-5.337
0.139,0.054,0.349,-5.337
0.165,0.050,0.354,-5.337
0.207,0.050,0.354,-5.337
0.198,0.052,0.352,-5.337
0.151,0.050,0.349,-5.337
0.146,0.052,0.346,-5.337
0.224,0.057,0.347,-5.337
0.305,0.054,0.348,-5.337
0.346,0.050,0.352,-5.337
0.298,0.051,0.353,-5.337
0.211,0.052,0.351,-5.337
0.159,0.054,0.351,-5.337
0.191,0.056,0.348,-5.337
0.238,0.059,0.346,-5.337
0.236,0.060,0.343,-5.337
0.211,0.057,0.346,-5.337
0.227,0.057,0.349,-5.337
0.198,0.060,0.351,-5.337
0.136,0.061,0.351,-5.337
0.127,0.061,0.353,-5.337
0.143,0.061,0.350,-5.337
0.140,0.060,0.349,-5.337
0.098,0.062,0.345,-5.337
0.076,0.065,0.346,-5.337
0.202,0.059,0.349,-5.337
0.262,0.056,0.351,-5.337
0.194,0.054,0.351,-5.337
0.183,0.057,0.349,-5.337
0.188,0.058,0.346,-5.337
0.157,0.060,0.344,-5.337
0.189,0.055,0.345,-5.337
0.215,0.054,0.346,-5.337
0.214,0.059,0.347,-5.337
0.174,0.059,0.348,-5.337
0.184,0.058,0.351,-5.337
0.214,0.057,0.352,-5.337
0.171,0.057,0.354,-5.337
0.126,0.056,0.352,-5.337
0.206,0.056,0.348,-5.337
0.231,0.060,0.344,-5.337
0.177,0.058,0.342,-5.337
0.115,0.055,0.342,-5.337
0.095,0.056,0.346,-5.337
0.144,0.054,0.345,-5.337
0.211,0.059,0.346,-5.337
0.166,0.064,0.347,-5.337
0.091,0.064,0.347,-5.337
0.127,0.059,0.344,-5.337
0.194,0.058,0.343,-5.337
0.269,0.059,0.347,-5.337
0.251,0.061,0.345,-5.337
0.191,0.061,0.346,-5.337
0.220,0.063,0.350,-5.337
0.236,0.064,0.352,-5.337
0.213,0.063,0.349,-5.337
0.109,0.060,0.347,-5.337
0.095,0.061,0.344,-5.337
0.161,0.062,0.344,-5.337
0.161,0.062,0.347,-5.337
0.174,0.060,0.347,-5.337
0.174,0.060,0.348,-5.337
0.196,0.060,0.350,-5.337
0.150,0.062,0.350,-5.337
0.100,0.062,0.351,-5.337
0.149,0.058,0.352,-5.337
0.180,0.058,0.354,-5.337
0.213,0.059,0.349,-5.337
0.229,0.062,0.348,-5.337
0.213,0.062,0.348,-5.337
0.172,0.059,0.350,-5.337
0.106,0.062,0.350,-5.337
0.160,0.063,0.349,-5.337
0.182,0.061,0.346,-5.337
0.231,0.056,0.348,-5.337
0.312,0.053,0.347,-5.337
0.280,0.057,0.346,-5.337
0.188,0.061,0.343,-5.337
0.120,0.061,0.345,-5.337
0.138,0.064,0.347,-5.337
0.169,0.062,0.347,-5.337
0.117,0.064,0.350,-5.337
0.033,0.064,0.351,-5.337
0.017,0.058,0.350,-5.337
0.055,0.058,0.348,-5.337
0.128,0.061,0.348,-5.337
0.177,0.059,0.344,-5.337
0.193,0.057,0.343,-5.337
0.183,0.056,0.345,-5.337
0.177,0.057,0.348,-5.337
0.138,0.061,0.347,-5.337
0.140,0.063,0.344,-5.337
0.165,0.063,0.342,-5.337
0.199,0.061,0.346,-5.337
0.173,0.059,0.351,-5.337
0.250,0.055,0.351,-5.337
0.217,0.056,0.346,-5.337
0.172,0.057,0.345,-5.337
0.302,0.055,0.348,-5.337
0.268,0.057,0.348,-5.337
0.116,0.061,0.345,-5.337
0.048,0.061,0.345,-5.337
0.125,0.059,0.346,-5.337
0.165,0.057,0.348,-5.337
0.185,0.056,0.350,-5.337
0.194,0.061,0.349,-5.337
0.132,0.065,0.348,-5.337
0.129,0.067,0.350,-5.337
0.165,0.066,0.350,-5.337
0.202,0.062,0.348,-5.337
0.155,0.063,0.344,-5.337
0.086,0.064,0.345,-5.337
0.096,0.061,0.348,-5.337
0.123,0.064,0.347,-5.337
0.156,0.065,0.350,-5.337
0.184,0.062,0.351,-5.337
0.145,0.064,0.350,-5.337
0.121,0.062,0.347,-5.337
0.146,0.066,0.345,-5.337
0.175,0.064,0.344,-5.337
0.205,0.062,0.344,-5.337
0.255,0.063,0.348,-5.337
0.261,0.068,0.349,-5.337
0.181,0.070,0.349,-5.337
0.140,0.066,0.352,-5.337
0.135,0.063,0.353,-5.337
0.163,0.063,0.348,-5.337
0.183,0.066,0.347,-5.337
0.171,0.066,0.350,-5.337
0.199,0.063,0.353,-5.337
0.228,0.062,0.353,-5.337
0.200,0.065,0.348,-5.337
0.085,0.067,0.347,-5.337
0.096,0.066,0.351,-5.337
0.156,0.065,0.351,-5.337
0.186,0.065,0.349,-5.337
0.218,0.060,0.350,-5.337
0.262,0.061,0.350,-5.337
0.284,0.059,0.348,-5.337
0.258,0.056,0.347,-5.337
0.203,0.060,0.347,-5.337
0.195,0.060,0.348,-5.337
0.198,0.062,0.344,-5.337
0.198,0.061,0.345,-5.337
0.171,0.063,0.350,-5.337
0.140,0.063,0.350,-5.337
0.134,0.060,0.347,-5.337
0.233,0.058,0.348,-5.337
0.253,0.056,0.351,-5.337
0.180,0.058,0.351,-5.337
0.122,0.062,0.351,-5.337
0.185,0.060,0.347,-5.337
0.261,0.060,0.350,-5.337
0.201,0.060,0.351,-5.337
0.070,0.065,0.351,-5.337
0.093,0.062,0.352,-5.337
0.163,0.059,0.354,-5.337
0.164,0.059,0.348,-5.337
0.098,0.061,0.344,-5.337
0.093,0.060,0.346,-5.337
0.147,0.057,0.350,-5.337
0.183,0.055,0.350,-5.337
0.171,0.055,0.351,-5.337
0.188,0.057,0.352,-5.337
0.233,0.060,0.351,-5.337
0.252,0.058,0.345,-5.337
0.268,0.056,0.344,-5.337
0.218,0.060,0.345,-5.337
0.176,0.059,0.347,-5.337
0.174,0.059,0.347,-5.337
0.176,0.065,0.344,-5.337
0.179,0.065,0.347,-5.337
0.191,0.059,0.346,-5.337
0.248,0.054,0.346,-5.337
0.244,0.056,0.345,-5.337
0.185,0.061,0.347,-5.337
0.222,0.057,0.346,-5.337
0.272,0.057,0.345,-5.337
0.202,0.056,0.344,-5.337
0.163,0.055,0.346,-5.337
0.175,0.059,0.348,-5.337
0.207,0.060,0.349,-5.337
0.304,0.054,0.348,-5.337
0.252,0.058,0.347,-5.337
0.162,0.057,0.350,-5.337
0.169,0.057,0.352,-5.337
0.149,0.058,0.353,-5.337
0.145,0.055,0.351,-5.337
0.109,0.053,0.344,-5.337
0.144,0.054,0.341,-5.337
0.200,0.054,0.343,-5.337
0.160,0.054,0.350,-5.337
0.106,0.052,0.350,-5.337
0.138,0.053,0.348,-5.337
0.170,0.054,0.347,-5.337
0.142,0.052,0.343,-5.337
0.102,0.051,0.342,-5.337
0.167,0.051,0.342,-5.337
0.185,0.050,0.345,-5.337
0.239,0.050,0.347,-5.337
0.259,0.056,0.351,-5.337
0.155,0.060,0.350,-5.337
0.117,0.055,0.348,-5.337
0.171,0.052,0.348,-5.337
0.193,0.054,0.346,-5.337
0.164,0.057,0.343,-5.337
0.180,0.057,0.342,-5.337
0.188,0.058,0.342,-5.337
0.253,0.055,0.345,-5.337
0.251,0.056,0.347,-5.337
0.211,0.057,0.348,-5.337
0.193,0.053,0.347,-5.337
0.187,0.051,0.347,-5.337
0.231,0.051,0.347,-5.337
0.243,0.053,0.347,-5.337
0.268,0.052,0.347,-5.337
0.273,0.052,0.347,-5.337
0.158,0.055,0.347,-5.337
0.026,0.055,0.348,-5.337
0.099,0.052,0.352,-5.337
0.166,0.051,0.353,-5.337
0.141,0.047,0.351,-5.337
0.134,0.049,0.347,-5.337
0.155,0.046,0.348,-5.337
0.228,0.040,0.347,-5.337
0.303,0.041,0.346,-5.337
0.322,0.044,0.343,-5.337
0.281,0.051,0.345,-5.337
0.194,0.050,0.345,-5.337
0.096,0.051,0.348,-5.337
0.073,0.051,0.349,-5.337
0.167,0.052,0.352,-5.337
0.120,0.055,0.350,-5.337
0.135,0.052,0.348,-5.337
0.208,0.045,0.346,-5.337
0.276,0.045,0.347,-5.337
0.254,0.045,0.348,-5.337
0.252,0.046,0.349,-5.337
0.264,0.042,0.350,-5.337
0.294,0.041,0.349,-5.337
0.255,0.044,0.352,-5.337
0.260,0.042,0.349,-5.337
0.257,0.044,0.348,-5.337
0.218,0.046,0.349,-5.337
0.197,0.046,0.348,-5.337
0.179,0.050,0.350,-5.337
0.113,0.049,0.352,-5.337
0.089,0.049,0.351,-5.337
0.095,0.050,0.353,-5.337
0.085,0.046,0.350,-5.337
0.086,0.045,0.347,-5.337
0.098,0.048,0.344,-5.337
0.133,0.045,0.348,-5.337
0.201,0.042,0.352,-5.337
0.256,0.043,0.352,-5.337
0.191,0.044,0.350,-5.337
0.138,0.050,0.352,-5.337
0.115,0.050,0.351,-5.337
0.223,0.047,0.352,-5.337
0.239,0.045,0.350,-5.337
0.244,0.044,0.347,-5.337
0.287,0.043,0.347,-5.337
0.220,0.046,0.351,-5.337
0.141,0.046,0.354,-5.337
0.163,0.046,0.354,-5.337
0.205,0.045,0.351,-5.337
0.231,0.044,0.346,-5.337
0.236,0.043,0.348,-5.337
0.164,0.044,0.352,-5.337
0.114,0.046,0.356,-5.337
0.100,0.042,0.357,-5.337
0.164,0.042,0.354,-5.337
0.189,0.044,0.351,-5.337
0.190,0.043,0.350,-5.337
0.232,0.041,0.352,-5.337
0.263,0.042,0.350,-5.337
0.182,0.045,0.344,-5.337
0.207,0.046,0.343,-5.337
0.269,0.048,0.348,-5.337
0.252,0.048,0.352,-5.337
0.181,0.047,0.348,-5.337
0.240,0.046,0.348,-5.337
0.297,0.047,0.351,-5.337
0.228,0.046,0.349,-5.337
0.185,0.045,0.342,-5.337
0.201,0.046,0.340,-5.337
0.206,0.046,0.343,-5.337
0.214,0.043,0.345,-5.337
0.251,0.046,0.346,-5.337
0.208,0.048,0.346,-5.337
0.193,0.045,0.349,-5.337
0.154,0.046,0.348,-5.337
0.137,0.050,0.348,-5.337
0.063,0.049,0.349,-5.337
0.112,0.047,0.352,-5.337
0.182,0.047,0.353,-5.337
0.182,0.049,0.351,-5.337
0.202,0.048,0.349,-5.337
0.210,0.046,0.351,-5.337
0.296,0.043,0.351,-5.337
0.287,0.042,0.348,-5.337
0.231,0.044,0.344,-5.337
0.216,0.044,0.345,-5.337
0.215,0.041,0.346,-5.337
0.289,0.040,0.350,-5.337
0.297,0.039,0.352,-5.337
0.248,0.043,0.351,-5.337
0.188,0.043,0.350,-5.337
0.160,0.046,0.349,-5.337
0.164,0.043,0.347,-5.337
0.229,0.038,0.344,-5.337
0.266,0.039,0.345,-5.337
0.249,0.040,0.345,-5.337
0.267,0.039,0.345,-5.337
0.229,0.039,0.342,-5.337
0.188,0.044,0.345,-5.337
0.121,0.043,0.345,-5.337
0.101,0.043,0.349,-5.337
0.134,0.042,0.348,-5.337
0.195,0.042,0.345,-5.337
0.293,0.040,0.343,-5.337
0.225,0.039,0.342,-5.337
0.206,0.038,0.346,-5.337
0.253,0.036,0.347,-5.337
0.267,0.034,0.346,-5.337
0.226,0.037,0.346,-5.337
0.171,0.038,0.347,-5.337
0.147,0.038,0.349,-5.337
0.111,0.039,0.351,-5.337
0.174,0.039,0.350,-5.337
0.189,0.043,0.349,-5.337
0.182,0.040,0.351,-5.337
0.207,0.036,0.350,-5.337
0.194,0.037,0.348,-5.337
0.132,0.034,0.349,-5.337
0.130,0.032,0.345,-5.337
0.181,0.031,0.342,-5.337
0.199,0.036,0.343,-5.337
0.186,0.040,0.344,-5.337
0.191,0.040,0.345,-5.337
0.228,0.039,0.348,-5.337
0.179,0.040,0.348,-5.337
0.176,0.035,0.348,-5.337
0.225,0.038,0.348,-5.337
0.200,0.041,0.345,-5.337
0.221,0.037,0.342,-5.337
0.279,0.036,0.342,-5.337
0.223,0.038,0.345,-5.337
0.227,0.039,0.350,-5.337
0.268,0.036,0.350,-5.337
0.233,0.034,0.350,-5.337
0.196,0.031,0.349,-5.337
0.230,0.033,0.347,-5.337
0.233,0.039,0.346,-5.337
0.274,0.038,0.344,-5.337
0.258,0.034,0.347,-5.337
0.267,0.033,0.349,-5.337
0.209,0.037,0.353,-5.337
0.172,0.040,0.348,-5.337
0.267,0.038,0.348,-5.337
0.232,0.037,0.348,-5.337
0.188,0.041,0.350,-5.337
0.243,0.040,0.350,-5.337
0.288,0.037,0.347,-5.337
0.289,0.035,0.344,-5.337
0.251,0.036,0.347,-5.337
0.147,0.035,0.348,-5.337
0.150,0.038,0.348,-5.337
0.202,0.039,0.346,-5.337
0.250,0.037,0.344,-5.337
0.260,0.037,0.343,-5.337
0.266,0.039,0.344,-5.337
0.238,0.040,0.345,-5.337
0.165,0.040,0.344,-5.337
0.127,0.043,0.346,-5.337
0.092,0.043,0.347,-5.337
0.074,0.040,0.352,-5.337
0.107,0.041,0.351,-5.337
0.123,0.040,0.349,-5.337
0.134,0.040,0.345,-5.337
0.157,0.038,0.346,-5.337
0.200,0.037,0.345,-5.337
0.218,0.041,0.345,-5.337
0.194,0.039,0.346,-5.337
0.219,0.038,0.349,-5.337
0.226,0.036,0.344,-5.337
0.194,0.034,0.340,-5.337
0.193,0.032,0.342,-5.337
0.222,0.033,0.347,-5.337
0.238,0.035,0.347,-5.337
0.226,0.035,0.348,-5.337
0.252,0.034,0.348,-5.337
0.288,0.033,0.348,-5.337
0.275,0.037,0.351,-5.337
0.291,0.038,0.352,-5.337
0.299,0.037,0.351,-5.337
0.181,0.042,0.349,-5.337
0.133,0.042,0.347,-5.337
0.238,0.042,0.345,-5.337
0.250,0.041,0.343,-5.337
0.195,0.040,0.343,-5.337
0.146,0.039,0.345,-5.337
0.109,0.039,0.348,-5.337
0.114,0.038,0.350,-5.337
0.173,0.036,0.349,-5.337
0.192,0.038,0.347,-5.337
0.181,0.037,0.340,-5.337
0.187,0.040,0.338,-5.337
0.214,0.041,0.344,-5.337
0.286,0.038,0.350,-5.337
0.217,0.043,0.355,-5.337
0.176,0.044,0.357,-5.337
0.206,0.044,0.353,-5.337
0.174,0.042,0.347,-5.337
0.136,0.044,0.347,-5.337
0.095,0.046,0.352,-5.337
0.107,0.045,0.353,-5.337
0.188,0.042,0.348,-5.337
0.207,0.042,0.345,-5.337
0.234,0.044,0.346,-5.337
0.186,0.047,0.348,-5.337
0.099,0.046,0.344,-5.337
0.069,0.042,0.345,-5.337
0.190,0.041,0.345,-5.337
0.182,0.045,0.346,-5.337
0.197,0.043,0.345,-5.337
0.190,0.044,0.346,-5.337
0.210,0.039,0.348,-5.337
0.186,0.039,0.345,-5.337
0.273,0.037,0.344,-5.337
0.315,0.039,0.345,-5.337
0.272,0.041,0.348,-5.337
0.224,0.040,0.350,-5.337
0.198,0.041,0.351,-5.337
0.194,0.039,0.349,-5.337
0.222,0.038,0.344,-5.337
0.250,0.039,0.345,-5.337
0.219,0.043,0.345,-5.337
0.141,0.045,0.349,-5.337
0.095,0.043,0.351,-5.337
0.176,0.042,0.351,-5.337
0.201,0.048,0.351,-5.337
0.191,0.049,0.351,-5.337
0.165,0.045,0.348,-5.337
0.199,0.043,0.346,-5.337
0.283,0.041,0.347,-5.337
0.238,0.042,0.345,-5.337
0.145,0.042,0.347,-5.337
0.200,0.040,0.346,-5.337
0.249,0.041,0.347,-5.337
0.221,0.044,0.349,-5.337
0.207,0.044,0.348,-5.337
0.195,0.047,0.342,-5.337
0.188,0.051,0.342,-5.337
0.234,0.051,0.346,-5.337
0.219,0.052,0.349,-5.337
0.207,0.046,0.346,-5.337
0.175,0.048,0.341,-5.337
0.101,0.051,0.338,-5.337
0.134,0.050,0.341,-5.337
0.150,0.053,0.344,-5.337
0.127,0.053,0.344,-5.337
0.138,0.055,0.345,-5.337
0.088,0.054,0.345,-5.337
0.122,0.049,0.342,-5.337
0.258,0.044,0.346,-5.337
0.366,0.040,0.353,-5.337
0.350,0.042,0.354,-5.337
0.325,0.043,0.351,-5.337
0.305,0.046,0.349,-5.337
0.188,0.050,0.346,-5.337
0.167,0.049,0.344,-5.337
0.165,0.047,0.342,-5.337
0.147,0.047,0.342,-5.337
0.182,0.043,0.347,-5.337
0.179,0.042,0.349,-5.337
0.127,0.047,0.347,-5.337
0.136,0.048,0.346,-5.337
0.166,0.047,0.345,-5.337
0.145,0.045,0.343,-5.337
0.158,0.047,0.343,-5.337
0.139,0.049,0.346,-5.337
0.142,0.050,0.345,-5.337
0.172,0.050,0.344,-5.337
0.201,0.050,0.345,-5.337
0.274,0.046,0.340,-5.337
0.264,0.048,0.341,-5.337
0.311,0.047,0.343,-5.337
0.328,0.046,0.346,-5.337
0.277,0.048,0.350,-5.337
0.216,0.050,0.347,-5.337
0.201,0.050,0.348,-5.337
0.171,0.054,0.349,-5.337
0.147,0.056,0.347,-5.337
0.150,0.052,0.343,-5.337
0.173,0.052,0.345,-5.337
0.208,0.052,0.349,-5.337
0.217,0.054,0.350,-5.337
0.080,0.055,0.343,-5.337
0.079,0.051,0.344,-5.337
0.075,0.053,0.347,-5.337
0.155,0.052,0.348,-5.337
0.231,0.051,0.347,-5.337
0.253,0.055,0.348,-5.337
0.211,0.053,0.346,-5.337
0.196,0.053,0.348,-5.337
0.270,0.051,0.348,-5.337
0.277,0.052,0.343,-5.337
0.202,0.051,0.343,-5.337
0.192,0.055,0.345,-5.337
0.133,0.053,0.349,-5.337
0.071,0.051,0.349,-5.337
0.003,0.055,0.348,-5.337
0.092,0.051,0.349,-5.337
0.264,0.046,0.350,-5.337
0.252,0.051,0.350,-5.337
0.181,0.051,0.347,-5.337
0.137,0.049,0.341,-5.337
0.143,0.050,0.340,-5.337
0.171,0.052,0.344,-5.337
0.217,0.051,0.349,-5.337
0.229,0.051,0.349,-5.337
0.227,0.052,0.346,-5.337
0.267,0.050,0.345,-5.337
0.252,0.050,0.347,-5.337
0.186,0.051,0.349,-5.337
0.141,0.053,0.349,-5.337
0.098,0.055,0.350,-5.337
0.057,0.052,0.348,-5.337
0.171,0.052,0.345,-5.337
0.170,0.054,0.344,-5.337
0.195,0.054,0.347,-5.337
0.284,0.050,0.349,-5.337
0.241,0.051,0.350,-5.337
0.185,0.054,0.351,-5.337
0.319,0.052,0.354,-5.337
0.345,0.053,0.350,-5.337
0.200,0.057,0.352,-5.337
0.155,0.057,0.353,-5.337
0.222,0.051,0.350,-5.337
0.227,0.052,0.349,-5.337
0.173,0.054,0.350,-5.337
0.186,0.052,0.349,-5.337
0.218,0.053,0.348,-5.337
0.226,0.053,0.349,-5.337
0.177,0.054,0.349,-5.337
0.093,0.057,0.347,-5.337
0.135,0.053,0.345,-5.337
0.242,0.055,0.342,-5.337
0.251,0.059,0.342,-5.337
0.238,0.059,0.346,-5.337
0.222,0.061,0.346,-5.337
0.172,0.058,0.341,-5.337
0.121,0.059,0.339,-5.337
0.146,0.057,0.345,-5.337
0.169,0.058,0.351,-5.337
0.208,0.056,0.351,-5.337
0.188,0.054,0.351,-5.337
0.186,0.057,0.349,-5.337
0.152,0.061,0.346,-5.337
0.116,0.059,0.347,-5.337
0.128,0.056,0.345,-5.337
0.127,0.059,0.348,-5.337
0.140,0.055,0.351,-5.337
0.115,0.057,0.348,-5.337
0.108,0.056,0.344,-5.337
0.189,0.056,0.344,-5.337
0.274,0.057,0.346,-5.337
0.264,0.057,0.348,-5.337
0.209,0.055,0.347,-5.337
0.246,0.057,0.349,-5.337
0.207,0.059,0.351,-5.337
0.245,0.056,0.350,-5.337
0.274,0.052,0.347,-5.337
0.337,0.053,0.345,-5.337
0.285,0.060,0.345,-5.337
0.163,0.063,0.347,-5.337
0.201,0.059,0.346,-5.337
0.198,0.059,0.341,-5.337
0.174,0.061,0.341,-5.337
0.194,0.058,0.343,-5.337
0.186,0.059,0.345,-5.337
0.192,0.059,0.348,-5.337
0.165,0.061,0.350,-5.337
0.202,0.061,0.348,-5.337
0.205,0.059,0.348,-5.337
0.229,0.056,0.345,-5.337
0.268,0.056,0.343,-5.337
0.229,0.058,0.339,-5.337
0.158,0.063,0.341,-5.337
0.144,0.061,0.348,-5.337
0.183,0.057,0.350,-5.337
0.220,0.054,0.350,-5.337
0.227,0.055,0.347,-5.337
0.176,0.055,0.344,-5.337
0.203,0.054,0.347,-5.337
0.227,0.056,0.349,-5.337
0.232,0.057,0.346,-5.337
0.226,0.058,0.346,-5.337
0.193,0.060,0.345,-5.337
0.194,0.060,0.345,-5.337
0.196,0.060,0.344,-5.337
0.186,0.059,0.345,-5.337
0.204,0.060,0.346,-5.337
0.166,0.062,0.344,-5.337
0.179,0.061,0.342,-5.337
0.166,0.058,0.345,-5.337
0.119,0.058,0.344,-5.337
0.164,0.058,0.346,-5.337
0.128,0.061,0.347,-5.337
0.135,0.059,0.348,-5.337
0.210,0.054,0.347,-5.337
0.128,0.057,0.348,-5.337
0.184,0.054,0.351,-5.337
0.266,0.054,0.353,-5.337
0.268,0.059,0.352,-5.337
0.201,0.057,0.348,-5.337
0.195,0.056,0.347,-5.337
0.250,0.055,0.345,-5.337
0.350,0.055,0.342,-5.337
0.351,0.056,0.343,-5.337
0.288,0.059,0.348,-5.337
0.213,0.059,0.351,-5.337
0.164,0.060,0.350,-5.337
0.205,0.061,0.348,-5.337
0.249,0.059,0.343,-5.337
0.180,0.059,0.341,-5.337
0.112,0.059,0.342,-5.337
0.097,0.063,0.346,-5.337
0.112,0.063,0.348,-5.337
0.121,0.060,0.347,-5.337
0.165,0.059,0.346,-5.337
0.199,0.062,0.346,-5.337
0.174,0.065,0.347,-5.337
0.108,0.065,0.346,-5.337
0.092,0.067,0.349,-5.337
0.119,0.062,0.350,-5.337
0.135,0.059,0.351,-5.337
0.152,0.059,0.350,-5.337
0.159,0.062,0.347,-5.337
0.203,0.063,0.343,-5.337
0.174,0.062,0.341,-5.337
0.148,0.060,0.343,-5.337
0.169,0.059,0.344,-5.337
0.228,0.060,0.349,-5.337
0.235,0.064,0.351,-5.337
0.164,0.061,0.350,-5.337
0.161,0.056,0.346,-5.337
0.255,0.052,0.345,-5.337
0.302,0.059,0.348,-5.337
0.241,0.064,0.350,-5.337
0.181,0.061,0.344,-5.337
0.242,0.056,0.345,-5.337
0.326,0.058,0.347,-5.337
0.290,0.062,0.350,-5.337
0.224,0.060,0.348,-5.337
0.062,0.062,0.344,-5.337
0.116,0.057,0.343,-5.337
0.270,0.058,0.345,-5.337
0.223,0.061,0.349,-5.337
0.117,0.060,0.350,-5.337
0.132,0.058,0.349,-5.337
0.163,0.060,0.345,-5.337
0.182,0.061,0.347,-5.337
0.206,0.057,0.351,-5.337
0.176,0.056,0.351,-5.337
0.177,0.056,0.347,-5.337
0.108,0.058,0.345,-5.337
0.132,0.054,0.345,-5.337
0.237,0.053,0.346,-5.337
0.275,0.051,0.344,-5.337
0.257,0.053,0.344,-5.337
0.209,0.055,0.346,-5.337
0.249,0.054,0.350,-5.337
0.266,0.056,0.349,-5.337
0.264,0.057,0.347,-5.337
0.177,0.060,0.347,-5.337
0.175,0.059,0.347,-5.337
0.271,0.056,0.348,-5.337
0.245,0.061,0.350,-5.337
0.167,0.060,0.351,-5.337
0.198,0.054,0.350,-5.337
0.233,0.053,0.346,-5.337
0.192,0.059,0.342,-5.337
0.125,0.061,0.342,-5.337
0.163,0.053,0.347,-5.337
0.229,0.048,0.351,-5.337
0.247,0.046,0.353,-5.337
0.172,0.049,0.351,-5.337
0.141,0.051,0.350,-5.337
0.125,0.052,0.348,-5.337
0.129,0.053,0.345,-5.337
0.184,0.054,0.348,-5.337
0.275,0.052,0.349,-5.337
0.292,0.049,0.349,-5.337
0.317,0.051,0.348,-5.337
0.280,0.054,0.347,-5.337
0.246,0.052,0.343,-5.337
0.205,0.052,0.344,-5.337
0.196,0.048,0.346,-5.337
0.206,0.053,0.351,-5.337
0.148,0.055,0.351,-5.337
0.158,0.058,0.350,-5.337
0.194,0.052,0.351,-5.337
0.193,0.050,0.352,-5.337
0.173,0.052,0.350,-5.337
0.198,0.053,0.347,-5.337
0.220,0.055,0.348,-5.337
0.218,0.052,0.348,-5.337
0.232,0.049,0.347,-5.337
0.225,0.051,0.344,-5.337
0.255,0.051,0.348,-5.337
0.226,0.052,0.353,-5.337
0.236,0.050,0.355,-5.337
0.242,0.045,0.351,-5.337
0.251,0.048,0.347,-5.337
0.263,0.049,0.345,-5.337
0.268,0.049,0.343,-5.337
0.248,0.047,0.343,-5.337
0.245,0.047,0.348,-5.337
0.271,0.045,0.348,-5.337
0.284,0.047,0.347,-5.337
0.315,0.046,0.344,-5.337
0.268,0.048,0.342,-5.337
0.233,0.052,0.346,-5.337
0.217,0.051,0.347,-5.337
0.246,0.047,0.346,-5.337
0.237,0.045,0.347,-5.337
0.207,0.044,0.348,-5.337
0.208,0.045,0.348,-5.337
0.227,0.044,0.348,-5.337
0.188,0.048,0.353,-5.337
0.206,0.047,0.349,-5.337
0.223,0.050,0.343,-5.337
0.211,0.048,0.343,-5.337
0.195,0.051,0.347,-5.337
0.150,0.052,0.352,-5.337
0.180,0.047,0.352,-5.337
0.099,0.047,0.352,-5.337
0.091,0.045,0.345,-5.337
0.127,0.046,0.344,-5.337
0.182,0.049,0.343,-5.337
0.219,0.050,0.346,-5.337
0.238,0.047,0.349,-5.337
0.194,0.047,0.352,-5.337
0.153,0.046,0.351,-5.337
0.160,0.048,0.350,-5.337
0.254,0.045,0.350,-5.337
0.344,0.041,0.350,-5.337
0.347,0.039,0.347,-5.337
0.273,0.041,0.344,-5.337
0.178,0.045,0.346,-5.337
0.180,0.048,0.350,-5.337
0.249,0.041,0.350,-5.337
0.269,0.039,0.349,-5.337
0.200,0.040,0.344,-5.337
0.166,0.038,0.340,-5.337
0.197,0.038,0.344,-5.337
0.223,0.040,0.348,-5.337
0.256,0.043,0.352,-5.337
0.251,0.042,0.351,-5.337
0.288,0.039,0.351,-5.337
0.315,0.041,0.350,-5.337
0.241,0.046,0.349,-5.337
0.152,0.045,0.349,-5.337
0.115,0.044,0.348,-5.337
0.144,0.043,0.347,-5.337
0.188,0.046,0.349,-5.337
0.194,0.045,0.349,-5.337
0.182,0.042,0.347,-5.337
0.179,0.041,0.347,-5.337
0.185,0.042,0.347,-5.337
0.143,0.047,0.346,-5.337
0.147,0.046,0.345,-5.337
0.185,0.043,0.345,-5.337
0.202,0.045,0.346,-5.337
0.245,0.042,0.350,-5.337
0.316,0.042,0.352,-5.337
0.251,0.043,0.350,-5.337
0.293,0.043,0.347,-5.337
0.273,0.044,0.345,-5.337
0.187,0.044,0.345,-5.337
0.169,0.044,0.346,-5.337
0.217,0.043,0.347,-5.337
0.202,0.041,0.351,-5.337
0.162,0.044,0.355,-5.337
0.192,0.042,0.356,-5.337
0.231,0.040,0.354,-5.337
0.280,0.039,0.351,-5.337
0.264,0.040,0.348,-5.337
0.215,0.038,0.349,-5.337
0.163,0.036,0.350,-5.337
0.191,0.037,0.351,-5.337
0.193,0.038,0.352,-5.337
0.233,0.034,0.351,-5.337
0.244,0.033,0.350,-5.337
0.249,0.032,0.348,-5.337
0.322,0.032,0.349,-5.337
0.291,0.034,0.352,-5.337
0.244,0.034,0.352,-5.337
0.269,0.036,0.350,-5.337
0.290,0.037,0.349,-5.337
0.235,0.040,0.353,-5.337
0.192,0.041,0.357,-5.337
0.132,0.042,0.353,-5.337
0.164,0.041,0.348,-5.337
0.254,0.045,0.347,-5.337
0.250,0.047,0.350,-5.337
0.204,0.043,0.349,-5.337
0.121,0.043,0.349,-5.337
0.105,0.041,0.347,-5.337
0.132,0.041,0.348,-5.337
0.151,0.038,0.347,-5.337
0.235,0.040,0.348,-5.337
0.213,0.041,0.355,-5.337
0.262,0.040,0.361,-5.337
0.274,0.042,0.355,-5.337
0.177,0.042,0.347,-5.337
0.121,0.043,0.342,-5.337
0.106,0.046,0.344,-5.337
0.106,0.044,0.349,-5.337
0.162,0.042,0.349,-5.337
0.218,0.039,0.350,-5.337
0.277,0.042,0.351,-5.337
0.266,0.044,0.351,-5.337
0.199,0.043,0.350,-5.337
0.185,0.041,0.350,-5.337
0.296,0.039,0.348,-5.337
0.270,0.039,0.347,-5.337
0.218,0.040,0.345,-5.337
0.208,0.040,0.346,-5.337
0.287,0.040,0.345,-5.337
0.246,0.043,0.348,-5.337
0.192,0.040,0.350,-5.337
0.273,0.036,0.353,-5.337
0.263,0.039,0.353,-5.337
0.190,0.041,0.348,-5.337
0.132,0.044,0.346,-5.337
0.111,0.043,0.347,-5.337
0.173,0.039,0.346,-5.337
0.242,0.040,0.344,-5.337
0.255,0.042,0.344,-5.337
0.280,0.042,0.346,-5.337
0.291,0.041,0.348,-5.337
0.313,0.042,0.349,-5.337
0.263,0.040,0.350,-5.337
0.233,0.041,0.350,-5.337
0.245,0.040,0.346,-5.337
0.284,0.039,0.341,-5.337
0.275,0.043,0.342,-5.337
0.282,0.040,0.348,-5.337
0.307,0.037,0.353,-5.337
0.316,0.037,0.351,-5.337
0.209,0.042,0.349,-5.337
0.178,0.039,0.348,-5.337
0.205,0.037,0.345,-5.337
0.145,0.037,0.347,-5.337
0.154,0.038,0.351,-5.337
0.219,0.037,0.350,-5.337
0.230,0.037,0.345,-5.337
0.242,0.038,0.342,-5.337
0.185,0.042,0.343,-5.337
0.194,0.040,0.347,-5.337
0.247,0.039,0.350,-5.337
0.242,0.039,0.346,-5.337
0.109,0.043,0.345,-5.337
0.060,0.046,0.347,-5.337
0.108,0.042,0.350,-5.337
0.219,0.040,0.350,-5.337
0.319,0.042,0.346,-5.337
0.301,0.047,0.342,-5.337
0.230,0.044,0.339,-5.337
0.277,0.040,0.338,-5.337
0.219,0.045,0.340,-5.337
0.151,0.051,0.346,-5.337
0.191,0.048,0.350,-5.337
0.261,0.044,0.354,-5.337
0.236,0.046,0.353,-5.337
0.163,0.048,0.350,-5.337
0.106,0.052,0.349,-5.337
0.113,0.050,0.346,-5.337
0.064,0.050,0.342,-5.337
0.035,0.050,0.343,-5.337
0.144,0.043,0.348,-5.337
0.226,0.044,0.351,-5.337
0.233,0.044,0.348,-5.337
0.280,0.043,0.349,-5.337
0.369,0.041,0.347,-5.337
0.393,0.039,0.346,-5.337
0.361,0.036,0.348,-5.337
0.313,0.032,0.347,-5.337
0.266,0.038,0.342,-5.337
0.236,0.041,0.345,-5.337
0.232,0.041,0.350,-5.337
0.232,0.038,0.354,-5.337
0.248,0.035,0.351,-5.337
0.357,0.037,0.344,-5.337
0.363,0.038,0.342,-5.337
0.257,0.039,0.344,-5.337
0.203,0.041,0.349,-5.337
0.192,0.042,0.349,-5.337
0.197,0.043,0.351,-5.337
0.267,0.039,0.351,-5.337
0.250,0.045,0.352,-5.337
0.227,0.046,0.349,-5.337
0.191,0.047,0.343,-5.337
0.154,0.047,0.337,-5.337
0.152,0.046,0.338,-5.337
0.196,0.040,0.339,-5.337
0.279,0.040,0.342,-5.337
0.247,0.044,0.346,-5.337
0.250,0.044,0.347,-5.337
0.217,0.042,0.346,-5.337
0.223,0.044,0.349,-5.337
0.253,0.046,0.350,-5.337
0.261,0.046,0.353,-5.337
0.213,0.044,0.351,-5.337
0.213,0.043,0.347,-5.337
0.187,0.044,0.343,-5.337
0.183,0.042,0.342,-5.337
0.203,0.043,0.345,-5.337
0.233,0.041,0.346,-5.337
0.180,0.042,0.346,-5.337
0.099,0.042,0.345,-5.337
0.143,0.042,0.349,-5.337
0.247,0.042,0.350,-5.337
0.190,0.046,0.351,-5.337
0.136,0.046,0.349,-5.337
0.127,0.046,0.346,-5.337
0.124,0.046,0.344,-5.337
0.104,0.050,0.342,-5.337
0.136,0.050,0.342,-5.337
0.205,0.046,0.348,-5.337
0.188,0.046,0.351,-5.337
0.182,0.045,0.351,-5.337
0.251,0.045,0.350,-5.337
0.261,0.047,0.350,-5.337
0.202,0.049,0.346,-5.337
0.182,0.050,0.342,-5.337
0.181,0.048,0.343,-5.337
0.203,0.047,0.344,-5.337
0.297,0.042,0.349,-5.337
0.271,0.044,0.349,-5.337
0.182,0.046,0.347,-5.337
0.176,0.046,0.344,-5.337
0.197,0.048,0.344,-5.337
0.180,0.052,0.346,-5.337
0.149,0.053,0.347,-5.337
0.162,0.048,0.344,-5.337
0.214,0.043,0.344,-5.337
0.192,0.045,0.349,-5.337
0.222,0.046,0.354,-5.337
0.350,0.043,0.354,-5.337
0.373,0.043,0.351,-5.337
0.248,0.045,0.349,-5.337
0.181,0.044,0.350,-5.337
0.227,0.045,0.350,-5.337
0.279,0.044,0.348,-5.337
0.321,0.042,0.347,-5.337
0.216,0.048,0.348,-5.337
0.096,0.048,0.349,-5.337
0.164,0.047,0.350,-5.337
0.189,0.046,0.350,-5.337
0.194,0.049,0.348,-5.337
0.173,0.047,0.346,-5.337
0.164,0.047,0.344,-5.337
0.233,0.045,0.345,-5.337
0.167,0.048,0.346,-5.337
0.144,0.049,0.346,-5.337
0.269,0.046,0.344,-5.337
0.234,0.051,0.345,-5.337
0.173,0.052,0.348,-5.337
0.144,0.053,0.353,-5.337
0.092,0.052,0.353,-5.337
0.126,0.050,0.350,-5.337
0.139,0.051,0.345,-5.337
0.179,0.049,0.346,-5.337
0.171,0.048,0.348,-5.337
0.158,0.045,0.351,-5.337
0.190,0.043,0.352,-5.337
0.199,0.045,0.352,-5.337
0.199,0.049,0.346,-5.337
0.167,0.050,0.342,-5.337
0.177,0.047,0.340,-5.337
0.183,0.049,0.343,-5.337
0.204,0.048,0.348,-5.337
0.215,0.051,0.345,-5.337
0.195,0.054,0.344,-5.337
0.198,0.053,0.343,-5.337
0.205,0.053,0.345,-5.337
0.203,0.054,0.346,-5.337
0.214,0.055,0.346,-5.337
0.264,0.053,0.346,-5.337
0.219,0.057,0.350,-5.337
0.184,0.058,0.351,-5.337
0.168,0.057,0.349,-5.337
0.201,0.055,0.344,-5.337
0.190,0.053,0.345,-5.337
0.116,0.056,0.348,-5.337
0.177,0.053,0.348,-5.337
0.305,0.049,0.349,-5.337
0.318,0.050,0.350,-5.337
0.231,0.051,0.349,-5.337
0.186,0.055,0.348,-5.337
0.211,0.056,0.344,-5.337
0.180,0.052,0.344,-5.337
0.216,0.053,0.342,-5.337
0.274,0.055,0.342,-5.337
0.243,0.055,0.342,-5.337
0.218,0.054,0.343,-5.337
0.230,0.056,0.345,-5.337
0.170,0.060,0.349,-5.337
0.210,0.054,0.351,-5.337
0.237,0.053,0.346,-5.337
0.301,0.051,0.346,-5.337
0.291,0.054,0.347,-5.337
0.151,0.058,0.345,-5.337
0.107,0.055,0.341,-5.337
0.126,0.055,0.342,-5.337
0.102,0.058,0.345,-5.337
0.108,0.060,0.345,-5.337
0.178,0.062,0.345,-5.337
0.133,0.061,0.347,-5.337
0.044,0.058,0.344,-5.337
0.043,0.059,0.344,-5.337
0.169,0.055,0.345,-5.337
0.243,0.059,0.346,-5.337
0.244,0.057,0.344,-5.337
0.198,0.061,0.345,-5.337
0.143,0.060,0.347,-5.337
0.139,0.061,0.342,-5.337
0.176,0.058,0.342,-5.337
0.243,0.057,0.346,-5.337
0.197,0.058,0.350,-5.337
0.158,0.058,0.350,-5.337
0.182,0.059,0.348,-5.337
0.185,0.057,0.345,-5.337
0.189,0.056,0.346,-5.337
0.225,0.057,0.347,-5.337
0.248,0.057,0.350,-5.337
0.232,0.054,0.348,-5.337
0.209,0.055,0.348,-5.337
0.236,0.054,0.346,-5.337
0.228,0.055,0.342,-5.337
0.181,0.055,0.345,-5.337
0.140,0.057,0.350,-5.337
0.152,0.058,0.353,-5.337
0.179,0.056,0.350,-5.337
0.143,0.061,0.346,-5.337
0.133,0.063,0.345,-5.337
0.199,0.058,0.346,-5.337
0.268,0.056,0.348,-5.337
0.266,0.054,0.349,-5.337
0.257,0.055,0.346,-5.337
0.295,0.057,0.346,-5.337
0.296,0.056,0.350,-5.337
0.272,0.055,0.351,-5.337
0.278,0.053,0.348,-5.337
0.314,0.053,0.347,-5.337
0.227,0.054,0.344,-5.337
0.179,0.055,0.342,-5.337
0.217,0.058,0.340,-5.337
0.211,0.064,0.345,-5.337
0.149,0.063,0.351,-5.337
0.074,0.064,0.352,-5.337
0.064,0.064,0.351,-5.337
0.094,0.065,0.351,-5.337
0.176,0.063,0.348,-5.337
0.232,0.060,0.344,-5.337
0.193,0.058,0.343,-5.337
0.200,0.059,0.347,-5.337
0.180,0.060,0.350,-5.337
0.219,0.061,0.351,-5.337
0.216,0.059,0.349,-5.337
0.195,0.058,0.347,-5.337
0.227,0.057,0.349,-5.337
0.194,0.061,0.348,-5.337
0.195,0.060,0.347,-5.337
0.180,0.058,0.344,-5.337
0.228,0.058,0.344,-5.337
0.270,0.055,0.347,-5.337
0.299,0.055,0.351,-5.337
0.269,0.055,0.351,-5.337
0.161,0.057,0.351,-5.337
0.184,0.057,0.352,-5.337
0.280,0.055,0.349,-5.337
0.295,0.055,0.348,-5.337
0.313,0.054,0.349,-5.337
0.289,0.057,0.348,-5.337
0.200,0.060,0.344,-5.337
0.190,0.056,0.342,-5.337
0.172,0.056,0.343,-5.337
0.136,0.058,0.344,-5.337
0.104,0.055,0.350,-5.337
0.144,0.055,0.355,-5.337
0.201,0.055,0.353,-5.337
0.177,0.058,0.351,-5.337
0.178,0.057,0.347,-5.337
0.174,0.057,0.342,-5.337
0.201,0.057,0.342,-5.337
0.234,0.057,0.344,-5.337
0.254,0.059,0.344,-5.337
0.203,0.061,0.347,-5.337
0.243,0.057,0.348,-5.337
0.251,0.059,0.349,-5.337
0.227,0.061,0.350,-5.337
0.182,0.056,0.349,-5.337
0.207,0.053,0.349,-5.337
0.231,0.054,0.347,-5.337
0.202,0.055,0.346,-5.337
0.146,0.057,0.345,-5.337
0.178,0.056,0.343,-5.337
0.235,0.054,0.344,-5.337
0.163,0.059,0.346,-5.337
0.115,0.063,0.348,-5.337
0.217,0.055,0.345,-5.337
0.287,0.054,0.343,-5.337
0.272,0.058,0.343,-5.337
0.292,0.059,0.344,-5.337
0.260,0.058,0.345,-5.337
0.243,0.057,0.346,-5.337
0.251,0.060,0.348,-5.337
0.277,0.061,0.348,-5.337
0.283,0.060,0.346,-5.337
0.268,0.058,0.342,-5.337
0.257,0.057,0.341,-5.337
0.259,0.060,0.340,-5.337
0.222,0.061,0.342,-5.337
0.178,0.059,0.346,-5.337
0.187,0.058,0.350,-5.337
0.226,0.059,0.349,-5.337
0.221,0.061,0.345,-5.337
0.154,0.061,0.343,-5.337
0.092,0.061,0.342,-5.337
0.122,0.058,0.342,-5.337
0.158,0.058,0.349,-5.337
0.164,0.059,0.350,-5.337
0.164,0.058,0.348,-5.337
0.113,0.059,0.346,-5.337
0.063,0.058,0.344,-5.337
0.139,0.057,0.345,-5.337
0.182,0.054,0.347,-5.337
0.189,0.054,0.348,-5.337
0.213,0.052,0.347,-5.337
0.252,0.047,0.346,-5.337
0.251,0.049,0.346,-5.337
0.261,0.052,0.347,-5.337
0.249,0.055,0.345,-5.337
0.167,0.061,0.346,-5.337
0.172,0.058,0.347,-5.337
0.214,0.056,0.349,-5.337
0.184,0.058,0.347,-5.337
0.178,0.061,0.347,-5.337
0.198,0.056,0.347,-5.337
0.144,0.055,0.345,-5.337
0.107,0.058,0.342,-5.337
0.143,0.058,0.341,-5.337
0.191,0.056,0.343,-5.337
0.233,0.053,0.347,-5.337
0.265,0.053,0.350,-5.337
0.230,0.056,0.347,-5.337
0.171,0.056,0.341,-5.337
0.194,0.056,0.340,-5.337
0.144,0.056,0.343,-5.337
0.050,0.054,0.346,-5.337
0.027,0.052,0.350,-5.337
0.160,0.052,0.352,-5.337
0.191,0.049,0.352,-5.337
0.219,0.044,0.347,-5.337
0.355,0.043,0.345,-5.337
0.357,0.048,0.344,-5.337
0.292,0.051,0.343,-5.337
0.259,0.048,0.341,-5.337
0.251,0.054,0.344,-5.337
0.233,0.051,0.346,-5.337
0.240,0.044,0.346,-5.337
0.271,0.041,0.346,-5.337
0.344,0.044,0.345,-5.337
0.303,0.050,0.346,-5.337
0.197,0.052,0.349,-5.337
0.172,0.049,0.347,-5.337
0.212,0.048,0.343,-5.337
0.243,0.050,0.344,-5.337
0.230,0.052,0.346,-5.337
0.184,0.051,0.345,-5.337
0.171,0.048,0.343,-5.337
0.204,0.048,0.344,-5.337
0.227,0.048,0.346,-5.337
0.157,0.047,0.348,-5.337
0.128,0.046,0.346,-5.337
0.144,0.047,0.344,-5.337
0.155,0.047,0.344,-5.337
0.166,0.046,0.345,-5.337
0.218,0.045,0.346,-5.337
0.251,0.047,0.345,-5.337
0.220,0.050,0.341,-5.337
0.172,0.051,0.341,-5.337
0.217,0.053,0.343,-5.337
0.280,0.050,0.345,-5.337
0.244,0.048,0.348,-5.337
0.165,0.050,0.347,-5.337
0.111,0.051,0.342,-5.337
0.177,0.048,0.340,-5.337
0.204,0.047,0.345,-5.337
0.194,0.045,0.351,-5.337
0.221,0.044,0.353,-5.337
0.222,0.044,0.350,-5.337
0.254,0.045,0.343,-5.337
0.264,0.043,0.340,-5.337
0.293,0.043,0.347,-5.337
0.325,0.043,0.350,-5.337
0.251,0.042,0.350,-5.337
0.184,0.043,0.346,-5.337
0.126,0.047,0.345,-5.337
0.114,0.047,0.345,-5.337
0.159,0.043,0.349,-5.337
0.240,0.042,0.349,-5.337
0.296,0.041,0.349,-5.337
0.280,0.045,0.348,-5.337
0.286,0.044,0.348,-5.337
0.318,0.041,0.348,-5.337
0.324,0.042,0.348,-5.337
0.281,0.043,0.349,-5.337
0.242,0.042,0.350,-5.337
0.199,0.043,0.350,-5.337
0.176,0.044,0.348,-5.337
0.210,0.044,0.350,-5.337
0.246,0.043,0.348,-5.337
0.212,0.042,0.344,-5.337
0.198,0.040,0.343,-5.337
0.205,0.040,0.343,-5.337
0.200,0.040,0.344,-5.337
0.191,0.045,0.345,-5.337
0.158,0.046,0.348,-5.337
0.221,0.041,0.352,-5.337
0.177,0.042,0.351,-5.337
0.188,0.041,0.350,-5.337
0.255,0.039,0.346,-5.337
0.205,0.044,0.347,-5.337
0.165,0.044,0.344,-5.337
0.167,0.045,0.343,-5.337
0.157,0.044,0.346,-5.337
0.110,0.044,0.348,-5.337
0.119,0.043,0.347,-5.337
0.135,0.048,0.348,-5.337
0.095,0.049,0.349,-5.337
0.114,0.050,0.351,-5.337
0.177,0.048,0.346,-5.337
0.255,0.043,0.345,-5.337
0.336,0.047,0.346,-5.337
0.325,0.048,0.346,-5.337
0.334,0.044,0.347,-5.337
0.292,0.043,0.348,-5.337
0.195,0.044,0.351,-5.337
0.226,0.043,0.350,-5.337
0.242,0.042,0.348,-5.337
0.177,0.042,0.349,-5.337
0.161,0.043,0.349,-5.337
0.220,0.043,0.347,-5.337
0.346,0.041,0.348,-5.337
0.312,0.044,0.347,-5.337
0.243,0.045,0.347,-5.337
0.197,0.046,0.348,-5.337
0.152,0.045,0.346,-5.337
0.093,0.043,0.342,-5.337
0.097,0.042,0.341,-5.337
0.191,0.039,0.344,-5.337
0.124,0.044,0.347,-5.337
0.066,0.041,0.349,-5.337
0.129,0.037,0.350,-5.337
0.188,0.039,0.348,-5.337
0.194,0.043,0.346,-5.337
0.149,0.043,0.346,-5.337
0.173,0.038,0.348,-5.337
0.226,0.039,0.345,-5.337
0.206,0.043,0.343,-5.337
0.163,0.044,0.346,-5.337
0.172,0.046,0.350,-5.337
0.167,0.046,0.349,-5.337
0.156,0.043,0.344,-5.337
0.191,0.041,0.345,-5.337
0.181,0.042,0.346,-5.337
0.191,0.042,0.350,-5.337
0.242,0.039,0.348,-5.337
0.197,0.041,0.346,-5.337
0.087,0.041,0.342,-5.337
0.151,0.038,0.343,-5.337
0.229,0.038,0.346,-5.337
0.302,0.037,0.348,-5.337
0.311,0.037,0.348,-5.337
0.196,0.044,0.350,-5.337
0.148,0.043,0.347,-5.337
0.193,0.040,0.346,-5.337
0.168,0.037,0.342,-5.337
0.179,0.039,0.342,-5.337
0.228,0.039,0.343,-5.337
0.204,0.042,0.349,-5.337
0.182,0.039,0.351,-5.337
0.226,0.037,0.348,-5.337
0.198,0.042,0.349,-5.337
0.190,0.042,0.349,-5.337
0.147,0.039,0.347,-5.337
0.192,0.035,0.346,-5.337
0.234,0.037,0.346,-5.337
0.212,0.041,0.346,-5.337
0.226,0.042,0.350,-5.337
0.181,0.041,0.351,-5.337
0.185,0.038,0.349,-5.337
0.143,0.039,0.345,-5.337
0.106,0.040,0.344,-5.337
0.155,0.036,0.344,-5.337
0.203,0.034,0.347,-5.337
0.195,0.031,0.349,-5.337
0.184,0.031,0.354,-5.337
0.205,0.032,0.353,-5.337
0.192,0.036,0.350,-5.337
0.113,0.040,0.348,-5.337
0.131,0.039,0.349,-5.337
0.164,0.038,0.349,-5.337
0.218,0.036,0.347,-5.337
0.268,0.035,0.346,-5.337
0.251,0.038,0.345,-5.337
0.241,0.038,0.343,-5.337
0.197,0.039,0.344,-5.337
0.164,0.038,0.345,-5.337
0.134,0.042,0.346,-5.337
0.064,0.045,0.348,-5.337
0.130,0.041,0.348,-5.337
0.216,0.039,0.349,-5.337
0.223,0.042,0.348,-5.337
0.173,0.042,0.349,-5.337
0.169,0.041,0.352,-5.337
0.206,0.039,0.356,-5.337
0.215,0.036,0.355,-5.337
0.229,0.040,0.349,-5.337
0.239,0.042,0.348,-5.337
0.180,0.043,0.347,-5.337
0.208,0.041,0.345,-5.337
0.179,0.043,0.346,-5.337
0.173,0.042,0.350,-5.337
0.233,0.040,0.352,-5.337
0.233,0.041,0.350,-5.337
0.204,0.041,0.345,-5.337
0.164,0.043,0.342,-5.337
0.197,0.044,0.347,-5.337
0.205,0.043,0.349,-5.337
0.162,0.041,0.347,-5.337
0.157,0.039,0.355,-5.337
0.258,0.038,0.354,-5.337
0.288,0.041,0.350,-5.337
0.229,0.042,0.346,-5.337
0.163,0.043,0.347,-5.337
0.157,0.042,0.347,-5.337
0.176,0.045,0.348,-5.337
0.205,0.043,0.348,-5.337
0.257,0.041,0.351,-5.337
0.309,0.040,0.350,-5.337
0.301,0.040,0.348,-5.337
0.240,0.038,0.345,-5.337
0.281,0.037,0.346,-5.337
0.350,0.039,0.350,-5.337
0.281,0.043,0.354,-5.337
0.209,0.042,0.351,-5.337
0.223,0.037,0.346,-5.337
0.274,0.035,0.344,-5.337
0.173,0.040,0.345,-5.337
0.145,0.045,0.349,-5.337
0.154,0.046,0.347,-5.337
0.215,0.045,0.347,-5.337
0.195,0.047,0.344,-5.337
0.109,0.048,0.349,-5.337
0.119,0.047,0.352,-5.337
0.117,0.047,0.354,-5.337
0.143,0.046,0.348,-5.337
0.187,0.047,0.343,-5.337
0.173,0.047,0.343,-5.337
0.161,0.043,0.345,-5.337
0.201,0.039,0.347,-5.337
0.244,0.041,0.346,-5.337
0.197,0.044,0.347,-5.337
0.145,0.045,0.347,-5.337
0.136,0.039,0.344,-5.337
0.128,0.038,0.341,-5.337
0.155,0.036,0.344,-5.337
0.223,0.039,0.350,-5.337
0.199,0.041,0.350,-5.337
0.144,0.039,0.349,-5.337
0.224,0.036,0.348,-5.337
0.233,0.039,0.343,-5.337
0.184,0.040,0.341,-5.337
0.210,0.041,0.343,-5.337
0.233,0.040,0.348,-5.337
0.253,0.041,0.346,-5.337
0.232,0.041,0.344,-5.337
0.242,0.041,0.344,-5.337
0.263,0.039,0.344,-5.337
0.297,0.037,0.341,-5.337
0.230,0.040,0.346,-5.337
0.216,0.042,0.352,-5.337
0.232,0.040,0.351,-5.337
0.269,0.037,0.347,-5.337
0.244,0.039,0.346,-5.337
0.211,0.036,0.346,-5.337
0.170,0.035,0.345,-5.337
0.197,0.033,0.341,-5.337
0.160,0.040,0.341,-5.337
0.137,0.041,0.343,-5.337
0.222,0.036,0.344,-5.337
0.212,0.037,0.347,-5.337
0.180,0.039,0.351,-5.337
0.248,0.036,0.350,-5.337
0.280,0.039,0.344,-5.337
0.212,0.041,0.339,-5.337
0.187,0.040,0.341,-5.337
0.215,0.039,0.346,-5.337
0.227,0.036,0.350,-5.337
0.301,0.032,0.353,-5.337
0.293,0.036,0.350,-5.337
0.237,0.042,0.350,-5.337
0.264,0.042,0.347,-5.337
0.235,0.041,0.346,-5.337
0.185,0.042,0.343,-5.337
0.179,0.043,0.345,-5.337
0.185,0.045,0.344,-5.337
0.213,0.045,0.341,-5.337
0.189,0.040,0.341,-5.337
0.201,0.039,0.346,-5.337
0.144,0.042,0.348,-5.337
0.147,0.040,0.349,-5.337
0.197,0.038,0.346,-5.337
0.259,0.040,0.343,-5.337
0.278,0.040,0.343,-5.337
0.269,0.041,0.349,-5.337
0.240,0.040,0.349,-5.337
0.167,0.042,0.348,-5.337
0.250,0.039,0.349,-5.337
0.279,0.038,0.349,-5.337
0.273,0.038,0.348,-5.337
0.177,0.039,0.347,-5.337
0.149,0.040,0.346,-5.337
0.245,0.035,0.345,-5.337
0.272,0.037,0.346,-5.337
0.263,0.037,0.344,-5.337
0.215,0.035,0.344,-5.337
0.186,0.041,0.346,-5.337
0.198,0.041,0.349,-5.337
0.217,0.038,0.349,-5.337
0.222,0.038,0.347,-5.337
0.226,0.038,0.344,-5.337
0.228,0.041,0.344,-5.337
0.199,0.041,0.345,-5.337
0.140,0.042,0.346,-5.337
0.078,0.041,0.345,-5.337
0.125,0.041,0.348,-5.337
0.132,0.044,0.351,-5.337
0.107,0.046,0.348,-5.337
0.123,0.043,0.343,-5.337
0.126,0.041,0.340,-5.337
0.154,0.039,0.343,-5.337
0.192,0.040,0.349,-5.337
0.137,0.040,0.350,-5.337
0.179,0.039,0.349,-5.337
0.238,0.042,0.349,-5.337
0.164,0.045,0.345,-5.337
0.093,0.045,0.343,-5.337
0.095,0.047,0.341,-5.337
0.115,0.046,0.343,-5.337
0.188,0.043,0.342,-5.337
0.208,0.043,0.344,-5.337
0.122,0.040,0.349,-5.337
0.155,0.042,0.350,-5.337
0.205,0.045,0.350,-5.337
0.262,0.043,0.350,-5.337
0.198,0.044,0.346,-5.337
0.109,0.044,0.345,-5.337
0.161,0.043,0.348,-5.337
0.225,0.043,0.348,-5.337
0.260,0.043,0.345,-5.337
0.250,0.045,0.345,-5.337
0.211,0.045,0.347,-5.337
0.184,0.044,0.349,-5.337
0.274,0.040,0.349,-5.337
0.308,0.040,0.345,-5.337
0.250,0.045,0.342,-5.337
0.217,0.044,0.342,-5.337
0.221,0.044,0.344,-5.337
0.197,0.046,0.345,-5.337
0.219,0.047,0.345,-5.337
0.255,0.044,0.343,-5.337
0.257,0.045,0.348,-5.337
0.201,0.045,0.347,-5.337
0.153,0.049,0.347,-5.337
0.128,0.047,0.345,-5.337
0.184,0.047,0.349,-5.337
0.228,0.049,0.351,-5.337
0.224,0.052,0.350,-5.337
0.187,0.047,0.346,-5.337
0.215,0.045,0.346,-5.337
0.261,0.048,0.347,-5.337
0.296,0.052,0.347,-5.337
0.249,0.048,0.348,-5.337
0.210,0.047,0.347,-5.337
0.234,0.048,0.345,-5.337
0.262,0.049,0.347,-5.337
0.233,0.052,0.349,-5.337
0.184,0.054,0.345,-5.337
0.072,0.052,0.346,-5.337
0.105,0.047,0.348,-5.337
0.217,0.045,0.349,-5.337
0.260,0.050,0.347,-5.337
0.185,0.052,0.346,-5.337
0.195,0.047,0.347,-5.337
0.211,0.049,0.352,-5.337
0.254,0.046,0.353,-5.337
0.260,0.050,0.351,-5.337
0.173,0.052,0.347,-5.337
0.135,0.052,0.344,-5.337
0.149,0.054,0.341,-5.337
0.203,0.049,0.340,-5.337
0.245,0.049,0.345,-5.337
0.256,0.049,0.350,-5.337
0.191,0.054,0.349,-5.337
0.171,0.054,0.346,-5.337
0.251,0.053,0.347,-5.337
0.259,0.049,0.346,-5.337
0.265,0.048,0.346,-5.337
0.236,0.049,0.346,-5.337
0.196,0.050,0.346,-5.337
0.067,0.053,0.343,-5.337
0.034,0.054,0.344,-5.337
0.105,0.052,0.345,-5.337
0.128,0.056,0.346,-5.337
0.085,0.060,0.352,-5.337
0.117,0.053,0.355,-5.337
0.161,0.049,0.349,-5.337
0.196,0.053,0.345,-5.337
0.221,0.053,0.347,-5.337
0.212,0.053,0.350,-5.337
0.179,0.053,0.350,-5.337
0.189,0.053,0.348,-5.337
0.219,0.050,0.347,-5.337
0.292,0.045,0.348,-5.337
0.281,0.047,0.347,-5.337
0.238,0.051,0.345,-5.337
0.215,0.054,0.345,-5.337
0.190,0.056,0.342,-5.337
0.167,0.052,0.341,-5.337
0.215,0.050,0.345,-5.337
0.256,0.049,0.346,-5.337
0.259,0.050,0.345,-5.337
0.267,0.049,0.344,-5.337
0.251,0.048,0.344,-5.337
0.171,0.051,0.343,-5.337
0.144,0.049,0.343,-5.337
0.234,0.049,0.347,-5.337
0.249,0.047,0.346,-5.337
0.218,0.044,0.345,-5.337
0.235,0.046,0.348,-5.337
0.231,0.050,0.352,-5.337
0.201,0.049,0.352,-5.337
