[Parameters]
Operating Mode, Feedback
Subject  AA..ZZ, WT
Session  0..99, 42
No. Trials (1..9999), 500
Mouse Number, 1
Pressure Probe Serial Port, \00\00\00\04COM4
Save additional csv file, TRUE
Save using mouse number, FALSE
A/D Monitor Rate (Hz), 30000.000000
A/D Stimulate Rate (Hz), 30000.000000
A/D input range (+/- V), 5
No. Channels to acquire (N), 2
Pre-Stim Acq. time (ms), 100.000000
Post-Stim Acq. time (ms), 900.000000
Analysis window parameters.M-response Start (ms), 1.100000
Analysis window parameters.M-response Duration (ms), 5.500000
Analysis window parameters.H-response Duration (ms), 6.000000
Analysis window parameters.H-response Start (ms), 6.500000
Feedback window, H response
Proportional gain, 0.100000
Target value, 6.700000
Feedback Ch., 1
Stim Channel to Control (1-4), 4
Trial, 23
Wait for EMG Conditions, FALSE
Channel to monitor (0 - N-1), 1
EMG Hi Limit, 2.000000
EMG Lo Limit, 0.001000
Inter-Stim delay (sec), 10.000000
EMG Monitor Mode, Mean
Time to run Long Stim.(sec), 30
Save Long Stim Data?, OFF
BURST Save time (ms), 1000
BURST Save Interval (x above), 10
Long-Stim. Rep. Rate (Hz), 10.000000
Stim type cluster array.<size(s)>, 4
Stim type cluster array 0.Stimulus Output, Electrical
Stim type cluster array 1.Stimulus Output, OFF
Stim type cluster array 2.Stimulus Output, OFF
Stim type cluster array 3.Stimulus Output, Motor Length
Stim specs cluster array.<size(s)>, 4
Stim specs cluster array 0.Initial Stimulus ampl., 0.300000
Stim specs cluster array 0.Maximum Stimulus, 1.120000
Stim specs cluster array 0.#Pulses in train, 4
Stim specs cluster array 0.Peak Level time (ms), 1.000000
Stim specs cluster array 0.Total pulse period (ms), 150.000000
Stim specs cluster array 0.Start Delay (ms), -50.000000
Stim specs cluster array 0.Pulse Shape, Square
Stim specs cluster array 0.Ramp/Rel. time (ms), 0.100000
Stim specs cluster array 0.Peak Amplitude (V), 0.120000
Stim specs cluster array 1.Initial Stimulus ampl., 0.000000
Stim specs cluster array 1.Maximum Stimulus, 0.000000
Stim specs cluster array 1.#Pulses in train, 3
Stim specs cluster array 1.Peak Level time (ms), 29.000000
Stim specs cluster array 1.Total pulse period (ms), 200.000000
Stim specs cluster array 1.Start Delay (ms), 0.000000
Stim specs cluster array 1.Pulse Shape, Square
Stim specs cluster array 1.Ramp/Rel. time (ms), 0.000000
Stim specs cluster array 1.Peak Amplitude (V), 2.000000
Stim specs cluster array 2.Initial Stimulus ampl., 0.000000
Stim specs cluster array 2.Maximum Stimulus, 0.000000
Stim specs cluster array 2.#Pulses in train, 1
Stim specs cluster array 2.Peak Level time (ms), 25.000000
Stim specs cluster array 2.Total pulse period (ms), 200.000000
Stim specs cluster array 2.Start Delay (ms), 0.000000
Stim specs cluster array 2.Pulse Shape, Square
Stim specs cluster array 2.Ramp/Rel. time (ms), 20.000000
Stim specs cluster array 2.Peak Amplitude (V), 10.000000
Stim specs cluster array 3.Initial Stimulus ampl., 0.000000
Stim specs cluster array 3.Maximum Stimulus, 20.000000
Stim specs cluster array 3.#Pulses in train, 25
Stim specs cluster array 3.Peak Level time (ms), 0.100000
Stim specs cluster array 3.Total pulse period (ms), 4.000000
Stim specs cluster array 3.Start Delay (ms), 205.000000
Stim specs cluster array 3.Pulse Shape, Triangle
Stim specs cluster array 3.Ramp/Rel. time (ms), 3.000000
Stim specs cluster array 3.Peak Amplitude (V), 0.500000
Force cal. (mN/Volt), 100.000000
Force Range (mN), 100.000000
Length cal. (mm/Volt), 10.000000
Length Range (mm), 10.000000
Stim. 1, 0.300000
Stim. 2, 0.000000
Stim. 3, 0.000000
Stim. 4, 0.000000
Monitor acquire time (ms), 100.000000
EMG graph Ymax, 0.100000
Travel limit (mm), 20.000000
Use Pressure Probe, FALSE
Pressure goal (g), 100
Speed (mm/sec), 5.000000
Dwell time (ms), 100.000000
Pressure limit (g), 500.000000
Channel amplitude offset, 0.000000

[DATA]

0.090,0.049,0.304,-5.337
0.048,0.050,0.301,-5.337
0.166,0.049,0.303,-5.337
0.248,0.047,0.303,-5.337
0.185,0.049,0.305,-5.337
0.103,0.051,0.309,-5.337
0.141,0.053,0.311,-5.337
0.255,0.050,0.308,-5.337
0.221,0.050,0.307,-5.337
0.191,0.048,0.307,-5.337
0.173,0.049,0.300,-5.337
0.161,0.049,0.299,-5.337
0.175,0.047,0.302,-5.337
0.216,0.049,0.308,-5.337
0.184,0.051,0.305,-5.337
0.095,0.052,0.304,-5.337
0.166,0.048,0.307,-5.337
0.229,0.047,0.306,-5.337
0.157,0.047,0.305,-5.337
0.112,0.052,0.305,-5.337
0.177,0.052,0.305,-5.337
0.190,0.050,0.302,-5.337
0.133,0.053,0.302,-5.337
0.137,0.053,0.305,-5.337
0.141,0.052,0.306,-5.337
0.226,0.053,0.307,-5.337
0.277,0.051,0.309,-5.337
0.301,0.049,0.307,-5.337
0.261,0.054,0.304,-5.337
0.227,0.054,0.299,-5.337
0.186,0.052,0.303,-5.337
0.155,0.052,0.307,-5.337
0.148,0.052,0.308,-5.337
0.156,0.053,0.302,-5.337
0.146,0.053,0.301,-5.337
0.169,0.053,0.301,-5.337
0.161,0.055,0.300,-5.337
0.163,0.055,0.300,-5.337
0.243,0.054,0.304,-5.337
0.238,0.051,0.306,-5.337
0.145,0.051,0.304,-5.337
0.102,0.051,0.304,-5.337
0.159,0.053,0.306,-5.337
0.186,0.053,0.306,-5.337
0.181,0.054,0.304,-5.337
0.153,0.057,0.302,-5.337
0.181,0.060,0.303,-5.337
0.167,0.061,0.306,-5.337
0.148,0.058,0.307,-5.337
0.201,0.054,0.303,-5.337
0.236,0.052,0.300,-5.337
0.158,0.058,0.302,-5.337
0.153,0.058,0.304,-5.337
0.201,0.056,0.307,-5.337
0.176,0.059,0.306,-5.337
0.137,0.056,0.307,-5.337
0.206,0.055,0.304,-5.337
0.208,0.055,0.301,-5.337
0.185,0.054,0.299,-5.337
0.147,0.055,0.301,-5.337
0.169,0.055,0.302,-5.337
0.163,0.058,0.303,-5.337
0.247,0.055,0.303,-5.337
0.261,0.053,0.302,-5.337
0.327,0.052,0.304,-5.337
0.411,0.054,0.305,-5.337
0.271,0.056,0.302,-5.337
0.134,0.061,0.302,-5.337
0.099,0.060,0.301,-5.337
0.060,0.062,0.305,-5.337
0.082,0.063,0.306,-5.337
0.133,0.065,0.304,-5.337
0.125,0.062,0.303,-5.337
0.148,0.061,0.299,-5.337
0.153,0.059,0.302,-5.337
0.161,0.058,0.304,-5.337
0.194,0.058,0.305,-5.337
0.240,0.058,0.303,-5.337
0.218,0.060,0.304,-5.337
0.160,0.063,0.307,-5.337
0.119,0.062,0.307,-5.337
0.092,0.061,0.305,-5.337
0.106,0.061,0.304,-5.337
0.119,0.060,0.303,-5.337
0.176,0.056,0.301,-5.337
0.297,0.060,0.301,-5.337
0.283,0.063,0.302,-5.337
0.203,0.057,0.301,-5.337
0.203,0.057,0.296,-5.337
0.177,0.057,0.296,-5.337
0.244,0.060,0.302,-5.337
0.304,0.059,0.306,-5.337
0.239,0.061,0.306,-5.337
0.143,0.061,0.304,-5.337
0.093,0.059,0.302,-5.337
0.124,0.061,0.305,-5.337
0.153,0.060,0.308,-5.337
0.217,0.057,0.312,-5.337
0.227,0.056,0.309,-5.337
0.170,0.056,0.301,-5.337
0.202,0.056,0.299,-5.337
0.274,0.055,0.309,-5.337
0.190,0.061,0.312,-5.337
0.116,0.064,0.304,-5.337
0.154,0.064,0.298,-5.337
0.203,0.065,0.303,-5.337
0.251,0.067,0.308,-5.337
0.251,0.063,0.307,-5.337
0.273,0.061,0.307,-5.337
0.213,0.066,0.308,-5.337
0.194,0.066,0.306,-5.337
0.180,0.070,0.302,-5.337
0.176,0.069,0.302,-5.337
0.131,0.070,0.302,-5.337
0.094,0.069,0.302,-5.337
0.084,0.064,0.301,-5.337
0.076,0.062,0.302,-5.337
0.168,0.064,0.303,-5.337
0.219,0.063,0.301,-5.337
0.212,0.062,0.303,-5.337
0.184,0.064,0.309,-5.337
0.199,0.066,0.308,-5.337
0.169,0.064,0.309,-5.337
0.195,0.064,0.310,-5.337
0.282,0.066,0.309,-5.337
0.245,0.069,0.305,-5.337
0.191,0.070,0.308,-5.337
0.144,0.068,0.309,-5.337
0.203,0.067,0.307,-5.337
0.273,0.067,0.302,-5.337
0.200,0.066,0.304,-5.337
0.204,0.065,0.304,-5.337
0.254,0.067,0.303,-5.337
0.339,0.063,0.305,-5.337
0.360,0.065,0.308,-5.337
0.285,0.068,0.306,-5.337
0.175,0.069,0.302,-5.337
0.131,0.068,0.302,-5.337
0.206,0.070,0.301,-5.337
0.213,0.071,0.302,-5.337
0.265,0.069,0.305,-5.337
0.248,0.069,0.310,-5.337
0.218,0.068,0.308,-5.337
0.253,0.065,0.306,-5.337
0.286,0.065,0.305,-5.337
0.273,0.067,0.304,-5.337
0.274,0.067,0.303,-5.337
0.302,0.067,0.302,-5.337
0.280,0.064,0.299,-5.337
0.299,0.065,0.299,-5.337
0.300,0.069,0.304,-5.337
0.204,0.072,0.306,-5.337
0.123,0.068,0.307,-5.337
0.151,0.067,0.304,-5.337
0.186,0.064,0.303,-5.337
0.240,0.065,0.308,-5.337
0.282,0.063,0.307,-5.337
0.196,0.068,0.304,-5.337
0.106,0.064,0.304,-5.337
0.200,0.064,0.311,-5.337
0.237,0.065,0.311,-5.337
0.177,0.060,0.305,-5.337
0.218,0.059,0.304,-5.337
0.263,0.060,0.307,-5.337
0.195,0.060,0.309,-5.337
0.091,0.062,0.306,-5.337
0.125,0.063,0.304,-5.337
0.199,0.067,0.301,-5.337
0.180,0.066,0.298,-5.337
0.076,0.066,0.298,-5.337
0.085,0.065,0.301,-5.337
0.198,0.062,0.304,-5.337
0.275,0.063,0.305,-5.337
0.328,0.057,0.304,-5.337
0.336,0.057,0.305,-5.337
0.298,0.057,0.309,-5.337
0.253,0.060,0.311,-5.337
0.161,0.058,0.307,-5.337
0.173,0.058,0.302,-5.337
0.245,0.059,0.304,-5.337
0.252,0.057,0.307,-5.337
0.221,0.056,0.305,-5.337
0.170,0.055,0.303,-5.337
0.129,0.057,0.303,-5.337
0.173,0.057,0.305,-5.337
0.174,0.059,0.304,-5.337
0.173,0.059,0.304,-5.337
0.205,0.061,0.308,-5.337
0.234,0.064,0.311,-5.337
0.247,0.061,0.311,-5.337
0.277,0.063,0.308,-5.337
0.253,0.064,0.306,-5.337
0.149,0.065,0.307,-5.337
0.107,0.068,0.309,-5.337
0.139,0.065,0.305,-5.337
0.244,0.058,0.300,-5.337
0.249,0.058,0.298,-5.337
0.184,0.058,0.304,-5.337
0.278,0.055,0.305,-5.337
0.374,0.057,0.300,-5.337
0.350,0.059,0.295,-5.337
0.299,0.060,0.297,-5.337
0.225,0.060,0.303,-5.337
0.190,0.059,0.309,-5.337
0.181,0.059,0.312,-5.337
0.297,0.055,0.310,-5.337
0.297,0.055,0.308,-5.337
0.220,0.054,0.308,-5.337
0.160,0.054,0.307,-5.337
0.143,0.058,0.305,-5.337
0.159,0.058,0.305,-5.337
0.190,0.058,0.305,-5.337
0.201,0.060,0.300,-5.337
0.220,0.061,0.301,-5.337
0.242,0.060,0.309,-5.337
0.242,0.060,0.309,-5.337
0.214,0.059,0.305,-5.337
0.197,0.059,0.297,-5.337
0.173,0.057,0.297,-5.337
0.236,0.053,0.302,-5.337
0.276,0.055,0.305,-5.337
0.213,0.055,0.305,-5.337
0.153,0.054,0.306,-5.337
0.175,0.051,0.311,-5.337
0.227,0.052,0.312,-5.337
0.249,0.054,0.310,-5.337
0.202,0.056,0.308,-5.337
0.209,0.052,0.304,-5.337
0.224,0.053,0.303,-5.337
0.171,0.054,0.301,-5.337
0.214,0.054,0.300,-5.337
0.285,0.052,0.301,-5.337
0.307,0.047,0.302,-5.337
0.276,0.046,0.305,-5.337
0.195,0.051,0.305,-5.337
0.156,0.052,0.304,-5.337
0.229,0.052,0.303,-5.337
0.250,0.049,0.308,-5.337
0.200,0.051,0.309,-5.337
0.159,0.052,0.308,-5.337
0.159,0.052,0.304,-5.337
0.180,0.054,0.306,-5.337
0.159,0.054,0.307,-5.337
0.106,0.058,0.309,-5.337
0.144,0.052,0.310,-5.337
0.133,0.053,0.310,-5.337
0.156,0.051,0.308,-5.337
0.187,0.049,0.307,-5.337
0.141,0.045,0.304,-5.337
0.188,0.042,0.301,-5.337
0.277,0.045,0.302,-5.337
0.225,0.050,0.306,-5.337
0.144,0.048,0.307,-5.337
0.216,0.050,0.304,-5.337
0.270,0.050,0.303,-5.337
0.242,0.053,0.303,-5.337
0.260,0.054,0.303,-5.337
0.202,0.054,0.301,-5.337
0.132,0.050,0.301,-5.337
0.116,0.048,0.303,-5.337
0.177,0.047,0.308,-5.337
0.215,0.046,0.303,-5.337
0.255,0.048,0.305,-5.337
0.234,0.052,0.303,-5.337
0.167,0.052,0.301,-5.337
0.138,0.050,0.301,-5.337
0.162,0.050,0.303,-5.337
0.144,0.047,0.302,-5.337
0.182,0.048,0.303,-5.337
0.158,0.052,0.310,-5.337
0.198,0.048,0.312,-5.337
0.226,0.046,0.305,-5.337
0.261,0.044,0.301,-5.337
0.261,0.042,0.305,-5.337
0.313,0.040,0.305,-5.337
0.358,0.041,0.305,-5.337
0.297,0.044,0.304,-5.337
0.216,0.043,0.304,-5.337
0.245,0.044,0.302,-5.337
0.285,0.046,0.300,-5.337
0.298,0.047,0.299,-5.337
0.289,0.047,0.302,-5.337
0.207,0.049,0.305,-5.337
0.171,0.047,0.307,-5.337
0.198,0.045,0.304,-5.337
0.301,0.044,0.301,-5.337
0.275,0.045,0.301,-5.337
0.255,0.047,0.299,-5.337
0.247,0.045,0.302,-5.337
0.225,0.049,0.309,-5.337
0.204,0.051,0.310,-5.337
0.165,0.050,0.306,-5.337
0.129,0.049,0.305,-5.337
0.140,0.048,0.304,-5.337
0.175,0.045,0.303,-5.337
0.163,0.047,0.304,-5.337
0.207,0.045,0.305,-5.337
0.259,0.042,0.304,-5.337
0.202,0.043,0.305,-5.337
0.130,0.042,0.303,-5.337
0.131,0.041,0.299,-5.337
0.190,0.039,0.298,-5.337
0.172,0.038,0.303,-5.337
0.099,0.041,0.305,-5.337
0.128,0.042,0.304,-5.337
0.268,0.041,0.302,-5.337
0.283,0.044,0.306,-5.337
0.219,0.044,0.308,-5.337
0.156,0.045,0.306,-5.337
0.166,0.037,0.306,-5.337
0.198,0.038,0.304,-5.337
0.191,0.040,0.303,-5.337
0.298,0.039,0.305,-5.337
0.280,0.042,0.306,-5.337
0.214,0.044,0.306,-5.337
0.189,0.046,0.305,-5.337
0.186,0.048,0.305,-5.337
0.154,0.046,0.303,-5.337
0.245,0.042,0.301,-5.337
0.360,0.040,0.303,-5.337
0.295,0.039,0.306,-5.337
0.225,0.038,0.303,-5.337
0.225,0.042,0.299,-5.337
0.193,0.044,0.300,-5.337
0.209,0.045,0.302,-5.337
0.160,0.041,0.305,-5.337
0.144,0.036,0.305,-5.337
0.198,0.038,0.305,-5.337
0.214,0.041,0.304,-5.337
0.179,0.044,0.305,-5.337
0.190,0.039,0.302,-5.337
0.200,0.038,0.302,-5.337
0.152,0.039,0.302,-5.337
0.111,0.040,0.303,-5.337
0.024,0.043,0.308,-5.337
0.014,0.042,0.310,-5.337
0.129,0.039,0.304,-5.337
0.153,0.038,0.299,-5.337
0.161,0.037,0.305,-5.337
0.110,0.040,0.309,-5.337
0.127,0.037,0.303,-5.337
0.195,0.036,0.303,-5.337
0.240,0.034,0.304,-5.337
0.169,0.038,0.307,-5.337
0.157,0.036,0.308,-5.337
0.240,0.033,0.306,-5.337
0.251,0.032,0.303,-5.337
0.209,0.032,0.301,-5.337
0.180,0.033,0.303,-5.337
0.189,0.034,0.303,-5.337
0.193,0.033,0.305,-5.337
0.187,0.038,0.304,-5.337
0.206,0.037,0.305,-5.337
0.172,0.041,0.304,-5.337
0.115,0.038,0.307,-5.337
0.169,0.039,0.308,-5.337
0.190,0.042,0.307,-5.337
0.147,0.042,0.305,-5.337
0.078,0.041,0.305,-5.337
0.113,0.037,0.306,-5.337
0.205,0.038,0.306,-5.337
0.273,0.035,0.306,-5.337
0.335,0.033,0.306,-5.337
0.272,0.033,0.306,-5.337
0.236,0.034,0.306,-5.337
0.242,0.037,0.305,-5.337
0.188,0.036,0.308,-5.337
0.134,0.036,0.310,-5.337
0.172,0.038,0.309,-5.337
0.163,0.038,0.308,-5.337
0.128,0.040,0.307,-5.337
0.201,0.037,0.306,-5.337
0.228,0.035,0.304,-5.337
0.174,0.043,0.304,-5.337
0.154,0.044,0.303,-5.337
0.188,0.043,0.307,-5.337
0.247,0.040,0.306,-5.337
0.183,0.043,0.302,-5.337
0.136,0.043,0.299,-5.337
0.123,0.042,0.303,-5.337
0.168,0.041,0.305,-5.337
0.267,0.041,0.305,-5.337
0.294,0.038,0.311,-5.337
0.200,0.043,0.313,-5.337
0.224,0.040,0.310,-5.337
0.273,0.039,0.307,-5.337
0.223,0.038,0.301,-5.337
0.212,0.038,0.300,-5.337
0.247,0.041,0.301,-5.337
0.286,0.041,0.304,-5.337
0.203,0.043,0.302,-5.337
0.091,0.047,0.304,-5.337
0.081,0.043,0.309,-5.337
0.144,0.041,0.311,-5.337
0.200,0.043,0.311,-5.337
0.197,0.042,0.304,-5.337
0.126,0.043,0.302,-5.337
0.113,0.042,0.303,-5.337
0.119,0.040,0.308,-5.337
0.156,0.040,0.309,-5.337
0.240,0.038,0.309,-5.337
0.227,0.037,0.311,-5.337
0.226,0.037,0.310,-5.337
0.310,0.032,0.308,-5.337
0.302,0.033,0.306,-5.337
0.242,0.034,0.303,-5.337
0.260,0.038,0.303,-5.337
0.150,0.040,0.302,-5.337
0.127,0.038,0.302,-5.337
0.199,0.038,0.302,-5.337
0.171,0.038,0.306,-5.337
0.140,0.040,0.309,-5.337
0.197,0.039,0.309,-5.337
0.222,0.039,0.307,-5.337
0.262,0.039,0.303,-5.337
0.268,0.041,0.305,-5.337
0.226,0.042,0.305,-5.337
0.207,0.041,0.303,-5.337
0.184,0.040,0.306,-5.337
0.157,0.039,0.308,-5.337
0.189,0.041,0.309,-5.337
0.267,0.039,0.308,-5.337
0.244,0.038,0.304,-5.337
0.231,0.036,0.302,-5.337
0.290,0.035,0.305,-5.337
0.292,0.037,0.309,-5.337
0.275,0.036,0.302,-5.337
0.257,0.040,0.297,-5.337
0.162,0.043,0.298,-5.337
0.130,0.041,0.301,-5.337
0.180,0.037,0.302,-5.337
0.253,0.036,0.305,-5.337
0.212,0.040,0.304,-5.337
0.157,0.043,0.305,-5.337
0.132,0.042,0.307,-5.337
0.154,0.035,0.304,-5.337
0.176,0.036,0.302,-5.337
0.167,0.041,0.301,-5.337
0.061,0.042,0.301,-5.337
0.058,0.039,0.302,-5.337
0.138,0.037,0.306,-5.337
0.230,0.035,0.303,-5.337
0.225,0.036,0.302,-5.337
0.229,0.035,0.302,-5.337
0.205,0.036,0.303,-5.337
0.179,0.035,0.304,-5.337
0.226,0.037,0.306,-5.337
0.269,0.034,0.305,-5.337
0.230,0.036,0.303,-5.337
0.140,0.038,0.306,-5.337
0.097,0.038,0.308,-5.337
0.195,0.039,0.307,-5.337
0.240,0.043,0.302,-5.337
0.262,0.042,0.296,-5.337
0.302,0.044,0.296,-5.337
0.221,0.048,0.302,-5.337
0.197,0.047,0.306,-5.337
0.202,0.043,0.304,-5.337
0.266,0.043,0.303,-5.337
0.304,0.046,0.307,-5.337
0.241,0.043,0.309,-5.337
0.177,0.040,0.305,-5.337
0.250,0.039,0.297,-5.337
0.314,0.038,0.300,-5.337
0.218,0.043,0.303,-5.337
0.149,0.044,0.300,-5.337
0.147,0.045,0.297,-5.337
0.092,0.049,0.298,-5.337
0.130,0.047,0.302,-5.337
0.245,0.046,0.305,-5.337
0.290,0.045,0.305,-5.337
0.248,0.047,0.299,-5.337
0.213,0.047,0.299,-5.337
0.149,0.045,0.303,-5.337
0.167,0.045,0.301,-5.337
0.153,0.043,0.297,-5.337
0.099,0.041,0.297,-5.337
0.123,0.042,0.299,-5.337
0.168,0.044,0.300,-5.337
0.230,0.044,0.305,-5.337
0.261,0.043,0.307,-5.337
0.206,0.042,0.302,-5.337
0.178,0.046,0.298,-5.337
0.165,0.049,0.300,-5.337
0.202,0.047,0.303,-5.337
0.230,0.047,0.302,-5.337
0.235,0.047,0.305,-5.337
0.277,0.047,0.306,-5.337
0.284,0.053,0.304,-5.337
0.205,0.053,0.297,-5.337
0.220,0.052,0.294,-5.337
0.204,0.053,0.297,-5.337
0.170,0.055,0.300,-5.337
0.253,0.051,0.298,-5.337
0.239,0.053,0.300,-5.337
0.222,0.054,0.302,-5.337
0.222,0.055,0.301,-5.337
0.235,0.052,0.301,-5.337
0.197,0.052,0.304,-5.337
0.181,0.051,0.304,-5.337
0.250,0.052,0.303,-5.337
0.312,0.056,0.300,-5.337
0.247,0.058,0.299,-5.337
0.185,0.055,0.300,-5.337
0.155,0.058,0.299,-5.337
0.094,0.060,0.301,-5.337
0.158,0.055,0.301,-5.337
0.202,0.055,0.304,-5.337
0.162,0.057,0.304,-5.337
0.123,0.059,0.303,-5.337
0.147,0.061,0.300,-5.337
0.157,0.060,0.303,-5.337
0.219,0.057,0.300,-5.337
0.234,0.059,0.301,-5.337
0.199,0.062,0.300,-5.337
0.208,0.061,0.300,-5.337
0.209,0.057,0.304,-5.337
0.209,0.058,0.306,-5.337
0.200,0.057,0.303,-5.337
0.188,0.061,0.298,-5.337
0.164,0.062,0.296,-5.337
0.108,0.059,0.297,-5.337
0.123,0.058,0.297,-5.337
0.106,0.058,0.296,-5.337
0.115,0.058,0.298,-5.337
0.167,0.058,0.303,-5.337
0.216,0.053,0.307,-5.337
0.167,0.053,0.304,-5.337
0.143,0.054,0.298,-5.337
0.139,0.058,0.297,-5.337
0.140,0.058,0.299,-5.337
0.104,0.057,0.300,-5.337
0.122,0.058,0.303,-5.337
0.215,0.057,0.301,-5.337
0.247,0.061,0.303,-5.337
0.274,0.063,0.300,-5.337
0.178,0.067,0.300,-5.337
0.129,0.065,0.301,-5.337
0.265,0.063,0.303,-5.337
0.296,0.060,0.299,-5.337
0.190,0.062,0.298,-5.337
0.103,0.061,0.300,-5.337
0.175,0.063,0.302,-5.337
0.246,0.062,0.298,-5.337
0.243,0.065,0.297,-5.337
0.237,0.061,0.297,-5.337
0.244,0.061,0.302,-5.337
0.185,0.061,0.304,-5.337
0.189,0.062,0.304,-5.337
0.153,0.063,0.303,-5.337
0.165,0.064,0.303,-5.337
0.183,0.062,0.299,-5.337
0.158,0.062,0.297,-5.337
0.210,0.061,0.300,-5.337
0.277,0.062,0.301,-5.337
0.206,0.065,0.301,-5.337
0.157,0.066,0.299,-5.337
0.221,0.064,0.299,-5.337
0.217,0.065,0.295,-5.337
0.294,0.064,0.296,-5.337
0.347,0.063,0.295,-5.337
0.291,0.065,0.292,-5.337
0.179,0.064,0.292,-5.337
0.165,0.064,0.297,-5.337
0.179,0.064,0.298,-5.337
0.203,0.061,0.301,-5.337
0.241,0.061,0.303,-5.337
0.199,0.062,0.301,-5.337
0.180,0.068,0.296,-5.337
0.182,0.072,0.294,-5.337
0.185,0.070,0.298,-5.337
0.153,0.067,0.297,-5.337
0.144,0.062,0.300,-5.337
0.209,0.065,0.300,-5.337
0.277,0.066,0.299,-5.337
0.219,0.065,0.300,-5.337
0.211,0.066,0.306,-5.337
0.281,0.061,0.303,-5.337
0.258,0.065,0.300,-5.337
0.263,0.064,0.297,-5.337
0.341,0.062,0.297,-5.337
0.268,0.061,0.296,-5.337
0.199,0.064,0.297,-5.337
0.171,0.069,0.301,-5.337
0.134,0.072,0.305,-5.337
0.132,0.068,0.302,-5.337
0.232,0.066,0.295,-5.337
0.296,0.065,0.292,-5.337
0.250,0.069,0.296,-5.337
0.163,0.067,0.301,-5.337
0.075,0.067,0.302,-5.337
0.073,0.069,0.299,-5.337
0.170,0.065,0.294,-5.337
0.308,0.064,0.298,-5.337
0.338,0.064,0.300,-5.337
0.329,0.064,0.301,-5.337
0.210,0.067,0.300,-5.337
0.200,0.066,0.301,-5.337
0.192,0.069,0.299,-5.337
0.107,0.070,0.299,-5.337
0.166,0.065,0.303,-5.337
0.244,0.064,0.309,-5.337
0.240,0.066,0.304,-5.337
0.164,0.071,0.295,-5.337
0.194,0.070,0.294,-5.337
0.220,0.069,0.302,-5.337
0.191,0.067,0.304,-5.337
0.167,0.067,0.301,-5.337
0.233,0.068,0.299,-5.337
0.259,0.065,0.302,-5.337
0.158,0.066,0.303,-5.337
0.183,0.067,0.300,-5.337
0.261,0.065,0.300,-5.337
0.299,0.065,0.300,-5.337
0.261,0.064,0.297,-5.337
0.191,0.067,0.295,-5.337
0.144,0.070,0.296,-5.337
0.132,0.067,0.297,-5.337
0.185,0.066,0.296,-5.337
0.273,0.068,0.299,-5.337
0.283,0.066,0.302,-5.337
0.230,0.067,0.297,-5.337
0.201,0.068,0.298,-5.337
0.265,0.064,0.300,-5.337
0.265,0.066,0.303,-5.337
0.160,0.071,0.302,-5.337
0.030,0.070,0.300,-5.337
0.037,0.066,0.301,-5.337
0.181,0.065,0.299,-5.337
0.246,0.067,0.298,-5.337
0.183,0.070,0.301,-5.337
0.215,0.068,0.307,-5.337
0.223,0.070,0.308,-5.337
0.196,0.071,0.304,-5.337
0.217,0.072,0.299,-5.337
0.209,0.075,0.296,-5.337
0.194,0.073,0.299,-5.337
0.170,0.074,0.299,-5.337
0.242,0.077,0.299,-5.337
0.217,0.078,0.297,-5.337
0.187,0.075,0.300,-5.337
0.132,0.078,0.304,-5.337
0.137,0.077,0.305,-5.337
0.197,0.077,0.303,-5.337
0.231,0.072,0.298,-5.337
0.242,0.069,0.297,-5.337
0.204,0.072,0.297,-5.337
0.226,0.072,0.299,-5.337
0.280,0.070,0.301,-5.337
0.375,0.068,0.303,-5.337
0.416,0.068,0.303,-5.337
0.304,0.069,0.303,-5.337
0.161,0.065,0.300,-5.337
0.179,0.067,0.298,-5.337
0.250,0.068,0.299,-5.337
0.257,0.067,0.302,-5.337
0.174,0.068,0.305,-5.337
0.149,0.067,0.304,-5.337
0.141,0.069,0.300,-5.337
0.081,0.070,0.299,-5.337
0.080,0.070,0.300,-5.337
0.136,0.068,0.303,-5.337
0.169,0.066,0.304,-5.337
0.194,0.068,0.302,-5.337
0.255,0.066,0.300,-5.337
0.266,0.066,0.297,-5.337
0.293,0.067,0.296,-5.337
0.263,0.068,0.295,-5.337
0.210,0.068,0.296,-5.337
0.184,0.067,0.298,-5.337
0.221,0.069,0.302,-5.337
0.220,0.069,0.303,-5.337
0.204,0.071,0.304,-5.337
0.157,0.072,0.304,-5.337
0.145,0.073,0.305,-5.337
0.169,0.073,0.302,-5.337
0.168,0.071,0.301,-5.337
0.189,0.068,0.300,-5.337
0.206,0.069,0.302,-5.337
0.198,0.071,0.301,-5.337
0.209,0.071,0.299,-5.337
0.216,0.072,0.298,-5.337
0.184,0.075,0.299,-5.337
0.232,0.072,0.299,-5.337
0.317,0.070,0.298,-5.337
0.336,0.067,0.306,-5.337
0.242,0.071,0.312,-5.337
0.182,0.073,0.311,-5.337
0.184,0.072,0.304,-5.337
0.199,0.068,0.301,-5.337
0.190,0.067,0.299,-5.337
0.192,0.071,0.298,-5.337
0.220,0.069,0.297,-5.337
0.297,0.063,0.300,-5.337
0.316,0.064,0.299,-5.337
0.254,0.068,0.304,-5.337
0.229,0.068,0.306,-5.337
0.272,0.062,0.301,-5.337
0.288,0.066,0.297,-5.337
0.231,0.068,0.298,-5.337
0.201,0.068,0.303,-5.337
0.208,0.066,0.304,-5.337
0.181,0.067,0.305,-5.337
0.177,0.067,0.307,-5.337
0.216,0.066,0.306,-5.337
0.228,0.065,0.303,-5.337
0.266,0.067,0.302,-5.337
0.275,0.069,0.299,-5.337
0.193,0.068,0.301,-5.337
0.153,0.066,0.305,-5.337
0.164,0.066,0.308,-5.337
0.142,0.064,0.307,-5.337
0.144,0.065,0.304,-5.337
0.231,0.062,0.301,-5.337
0.272,0.066,0.299,-5.337
0.246,0.068,0.296,-5.337
0.152,0.065,0.298,-5.337
0.145,0.062,0.302,-5.337
0.213,0.058,0.305,-5.337
0.211,0.058,0.306,-5.337
0.208,0.060,0.305,-5.337
0.247,0.058,0.304,-5.337
0.313,0.058,0.304,-5.337
0.369,0.058,0.303,-5.337
0.307,0.059,0.303,-5.337
0.158,0.058,0.301,-5.337
0.063,0.059,0.301,-5.337
0.111,0.060,0.299,-5.337
0.181,0.060,0.293,-5.337
0.193,0.062,0.294,-5.337
0.171,0.062,0.303,-5.337
0.161,0.061,0.309,-5.337
0.180,0.058,0.305,-5.337
0.187,0.060,0.301,-5.337
0.241,0.057,0.299,-5.337
0.311,0.054,0.301,-5.337
0.254,0.057,0.300,-5.337
0.238,0.055,0.300,-5.337
0.249,0.057,0.300,-5.337
0.205,0.061,0.302,-5.337
0.152,0.058,0.300,-5.337
0.263,0.054,0.299,-5.337
0.355,0.050,0.298,-5.337
0.297,0.053,0.301,-5.337
0.205,0.050,0.301,-5.337
0.247,0.052,0.301,-5.337
0.250,0.055,0.300,-5.337
0.243,0.055,0.297,-5.337
0.226,0.055,0.293,-5.337
0.199,0.058,0.293,-5.337
0.169,0.059,0.298,-5.337
0.081,0.060,0.304,-5.337
0.082,0.058,0.310,-5.337
0.178,0.058,0.307,-5.337
0.177,0.058,0.305,-5.337
0.173,0.057,0.304,-5.337
0.218,0.056,0.301,-5.337
0.248,0.057,0.299,-5.337
0.229,0.056,0.300,-5.337
0.224,0.057,0.302,-5.337
0.212,0.056,0.302,-5.337
0.180,0.053,0.297,-5.337
0.215,0.053,0.301,-5.337
0.268,0.049,0.301,-5.337
0.272,0.051,0.298,-5.337
0.204,0.050,0.299,-5.337
0.223,0.046,0.300,-5.337
0.238,0.047,0.299,-5.337
0.193,0.046,0.300,-5.337
0.128,0.047,0.302,-5.337
0.139,0.050,0.305,-5.337
0.145,0.052,0.306,-5.337
0.122,0.053,0.306,-5.337
0.186,0.049,0.304,-5.337
0.256,0.049,0.302,-5.337
0.211,0.051,0.301,-5.337
0.138,0.053,0.300,-5.337
0.144,0.055,0.304,-5.337
0.131,0.052,0.304,-5.337
0.191,0.052,0.306,-5.337
0.197,0.055,0.305,-5.337
0.176,0.055,0.306,-5.337
0.165,0.054,0.306,-5.337
0.147,0.055,0.302,-5.337
0.163,0.056,0.299,-5.337
0.159,0.057,0.301,-5.337
0.209,0.050,0.301,-5.337
0.266,0.048,0.300,-5.337
0.292,0.048,0.299,-5.337
0.273,0.049,0.301,-5.337
0.245,0.050,0.303,-5.337
0.256,0.045,0.306,-5.337
0.315,0.046,0.306,-5.337
0.291,0.047,0.300,-5.337
0.204,0.048,0.297,-5.337
0.120,0.045,0.300,-5.337
0.196,0.041,0.301,-5.337
0.313,0.045,0.301,-5.337
0.260,0.050,0.302,-5.337
0.163,0.050,0.303,-5.337
0.154,0.046,0.303,-5.337
0.218,0.044,0.296,-5.337
0.291,0.040,0.294,-5.337
0.313,0.042,0.298,-5.337
0.267,0.045,0.304,-5.337
0.317,0.045,0.305,-5.337
0.297,0.044,0.303,-5.337
0.186,0.045,0.301,-5.337
0.108,0.045,0.302,-5.337
0.134,0.041,0.302,-5.337
0.165,0.043,0.303,-5.337
0.175,0.042,0.303,-5.337
0.185,0.041,0.305,-5.337
0.158,0.039,0.301,-5.337
0.205,0.039,0.298,-5.337
0.246,0.043,0.299,-5.337
0.257,0.046,0.299,-5.337
0.246,0.044,0.298,-5.337
0.221,0.046,0.298,-5.337
0.158,0.048,0.301,-5.337
0.148,0.045,0.301,-5.337
0.111,0.046,0.305,-5.337
0.129,0.045,0.304,-5.337
0.154,0.045,0.300,-5.337
0.146,0.044,0.299,-5.337
0.148,0.046,0.300,-5.337
0.237,0.046,0.300,-5.337
0.290,0.044,0.304,-5.337
0.254,0.047,0.305,-5.337
0.179,0.048,0.307,-5.337
0.174,0.047,0.303,-5.337
0.215,0.048,0.301,-5.337
0.224,0.047,0.301,-5.337
0.249,0.044,0.301,-5.337
0.264,0.042,0.297,-5.337
0.241,0.042,0.295,-5.337
0.252,0.041,0.297,-5.337
0.278,0.041,0.301,-5.337
0.283,0.038,0.301,-5.337
0.253,0.036,0.299,-5.337
0.224,0.036,0.297,-5.337
0.243,0.038,0.299,-5.337
0.258,0.041,0.298,-5.337
0.236,0.041,0.297,-5.337
0.198,0.042,0.300,-5.337
0.214,0.039,0.301,-5.337
0.200,0.042,0.302,-5.337
0.171,0.044,0.302,-5.337
0.247,0.043,0.303,-5.337
0.264,0.040,0.301,-5.337
0.218,0.045,0.300,-5.337
0.201,0.047,0.299,-5.337
0.200,0.045,0.298,-5.337
0.242,0.044,0.298,-5.337
0.244,0.052,0.302,-5.337
0.163,0.053,0.307,-5.337
0.176,0.049,0.309,-5.337
0.252,0.047,0.302,-5.337
0.211,0.047,0.299,-5.337
0.203,0.046,0.301,-5.337
0.208,0.044,0.302,-5.337
0.190,0.043,0.301,-5.337
0.180,0.041,0.299,-5.337
0.172,0.042,0.300,-5.337
0.207,0.042,0.304,-5.337
0.239,0.038,0.304,-5.337
0.252,0.040,0.301,-5.337
0.247,0.038,0.299,-5.337
0.214,0.040,0.295,-5.337
0.250,0.044,0.300,-5.337
0.306,0.045,0.305,-5.337
0.229,0.048,0.307,-5.337
0.147,0.052,0.301,-5.337
0.158,0.056,0.298,-5.337
0.212,0.052,0.296,-5.337
0.274,0.049,0.298,-5.337
0.230,0.049,0.299,-5.337
0.207,0.049,0.299,-5.337
0.253,0.048,0.299,-5.337
0.248,0.050,0.302,-5.337
0.184,0.049,0.303,-5.337
0.144,0.047,0.303,-5.337
0.187,0.046,0.303,-5.337
0.163,0.047,0.302,-5.337
0.192,0.048,0.299,-5.337
0.261,0.045,0.298,-5.337
0.262,0.041,0.298,-5.337
0.201,0.042,0.300,-5.337
0.182,0.041,0.299,-5.337
0.193,0.043,0.300,-5.337
0.172,0.046,0.303,-5.337
0.092,0.052,0.305,-5.337
0.085,0.049,0.305,-5.337
0.177,0.048,0.303,-5.337
0.185,0.047,0.302,-5.337
0.202,0.048,0.300,-5.337
0.218,0.043,0.301,-5.337
0.153,0.044,0.302,-5.337
0.185,0.042,0.301,-5.337
0.262,0.044,0.299,-5.337
0.202,0.047,0.300,-5.337
0.190,0.046,0.304,-5.337
0.235,0.045,0.306,-5.337
0.270,0.044,0.303,-5.337
0.226,0.048,0.301,-5.337
0.127,0.051,0.301,-5.337
0.067,0.049,0.302,-5.337
0.157,0.043,0.301,-5.337
0.209,0.044,0.298,-5.337
0.173,0.048,0.298,-5.337
0.184,0.049,0.298,-5.337
0.190,0.046,0.297,-5.337
0.193,0.049,0.298,-5.337
0.168,0.049,0.301,-5.337
0.232,0.045,0.302,-5.337
0.233,0.042,0.307,-5.337
0.226,0.041,0.306,-5.337
0.257,0.041,0.304,-5.337
0.305,0.042,0.301,-5.337
0.283,0.047,0.299,-5.337
0.141,0.050,0.297,-5.337
0.130,0.050,0.300,-5.337
0.258,0.046,0.301,-5.337
0.271,0.049,0.302,-5.337
0.230,0.049,0.304,-5.337
0.237,0.049,0.305,-5.337
0.198,0.050,0.306,-5.337
0.176,0.049,0.305,-5.337
0.198,0.046,0.299,-5.337
0.171,0.043,0.298,-5.337
0.131,0.047,0.298,-5.337
0.263,0.047,0.300,-5.337
0.320,0.046,0.305,-5.337
0.297,0.042,0.307,-5.337
0.249,0.042,0.303,-5.337
0.232,0.045,0.300,-5.337
0.250,0.042,0.300,-5.337
0.133,0.042,0.300,-5.337
0.093,0.041,0.300,-5.337
0.204,0.043,0.301,-5.337
0.256,0.045,0.304,-5.337
0.130,0.051,0.301,-5.337
0.108,0.052,0.302,-5.337
0.141,0.049,0.302,-5.337
0.276,0.046,0.304,-5.337
0.296,0.046,0.302,-5.337
0.194,0.050,0.301,-5.337
0.128,0.047,0.301,-5.337
0.096,0.050,0.301,-5.337
0.107,0.049,0.302,-5.337
0.129,0.046,0.305,-5.337
0.153,0.047,0.304,-5.337
0.138,0.047,0.302,-5.337
0.110,0.048,0.302,-5.337
0.170,0.050,0.305,-5.337
0.292,0.049,0.305,-5.337
0.280,0.051,0.304,-5.337
0.301,0.046,0.303,-5.337
0.290,0.045,0.303,-5.337
0.285,0.048,0.301,-5.337
0.193,0.050,0.299,-5.337
0.200,0.051,0.301,-5.337
0.232,0.050,0.304,-5.337
0.242,0.047,0.307,-5.337
0.236,0.050,0.304,-5.337
0.232,0.049,0.302,-5.337
0.232,0.051,0.300,-5.337
0.150,0.054,0.301,-5.337
0.188,0.054,0.304,-5.337
0.236,0.052,0.305,-5.337
0.214,0.050,0.303,-5.337
0.177,0.053,0.301,-5.337
0.207,0.051,0.299,-5.337
0.246,0.049,0.300,-5.337
0.183,0.053,0.301,-5.337
0.146,0.053,0.304,-5.337
0.133,0.054,0.307,-5.337
0.133,0.053,0.304,-5.337
0.079,0.056,0.298,-5.337
0.112,0.057,0.296,-5.337
0.150,0.056,0.298,-5.337
0.159,0.051,0.301,-5.337
0.184,0.048,0.309,-5.337
0.120,0.049,0.311,-5.337
0.123,0.048,0.306,-5.337
0.169,0.051,0.301,-5.337
0.213,0.051,0.303,-5.337
0.210,0.048,0.303,-5.337
0.225,0.049,0.298,-5.337
0.270,0.048,0.294,-5.337
0.287,0.048,0.299,-5.337
0.208,0.048,0.300,-5.337
0.213,0.050,0.298,-5.337
0.262,0.048,0.300,-5.337
0.231,0.051,0.303,-5.337
0.178,0.050,0.304,-5.337
0.224,0.048,0.303,-5.337
0.260,0.046,0.301,-5.337
0.210,0.049,0.298,-5.337
0.124,0.049,0.297,-5.337
0.114,0.050,0.299,-5.337
0.177,0.047,0.299,-5.337
0.218,0.048,0.298,-5.337
0.190,0.050,0.303,-5.337
0.242,0.049,0.306,-5.337
0.245,0.051,0.306,-5.337
0.199,0.051,0.303,-5.337
0.252,0.053,0.300,-5.337
0.255,0.053,0.296,-5.337
0.162,0.055,0.300,-5.337
0.111,0.052,0.300,-5.337
0.115,0.051,0.302,-5.337
0.173,0.052,0.301,-5.337
0.209,0.053,0.302,-5.337
0.237,0.051,0.304,-5.337
0.228,0.052,0.302,-5.337
0.154,0.053,0.301,-5.337
0.218,0.054,0.303,-5.337
0.282,0.054,0.300,-5.337
0.200,0.056,0.297,-5.337
0.132,0.056,0.298,-5.337
0.237,0.055,0.301,-5.337
0.305,0.056,0.301,-5.337
0.281,0.058,0.297,-5.337
0.195,0.058,0.296,-5.337
0.192,0.060,0.301,-5.337
0.140,0.061,0.304,-5.337
0.136,0.060,0.304,-5.337
0.158,0.055,0.303,-5.337
0.170,0.056,0.299,-5.337
0.188,0.059,0.299,-5.337
0.128,0.058,0.299,-5.337
0.105,0.059,0.299,-5.337
0.146,0.056,0.301,-5.337
0.210,0.056,0.305,-5.337
0.138,0.055,0.306,-5.337
0.099,0.054,0.303,-5.337
0.097,0.058,0.300,-5.337
0.234,0.057,0.300,-5.337
0.254,0.056,0.303,-5.337
0.198,0.056,0.305,-5.337
0.202,0.054,0.306,-5.337
0.213,0.059,0.303,-5.337
0.246,0.059,0.299,-5.337
0.233,0.055,0.297,-5.337
0.216,0.054,0.299,-5.337
0.206,0.056,0.298,-5.337
0.188,0.057,0.300,-5.337
0.130,0.055,0.302,-5.337
0.090,0.056,0.301,-5.337
0.167,0.056,0.303,-5.337
0.181,0.055,0.301,-5.337
0.177,0.056,0.300,-5.337
0.206,0.059,0.299,-5.337
0.247,0.059,0.296,-5.337
0.224,0.065,0.299,-5.337
0.113,0.069,0.300,-5.337
0.073,0.069,0.302,-5.337
0.073,0.062,0.301,-5.337
0.059,0.061,0.304,-5.337
0.081,0.060,0.304,-5.337
0.184,0.057,0.304,-5.337
0.191,0.057,0.304,-5.337
0.138,0.058,0.302,-5.337
0.166,0.060,0.299,-5.337
0.213,0.058,0.297,-5.337
0.197,0.060,0.301,-5.337
0.162,0.059,0.304,-5.337
0.198,0.053,0.304,-5.337
0.214,0.051,0.304,-5.337
0.212,0.052,0.303,-5.337
0.244,0.054,0.301,-5.337
0.210,0.055,0.301,-5.337
0.182,0.054,0.300,-5.337
0.145,0.056,0.301,-5.337
0.161,0.059,0.299,-5.337
0.157,0.059,0.301,-5.337
0.219,0.052,0.302,-5.337
0.254,0.054,0.302,-5.337
0.242,0.059,0.299,-5.337
0.256,0.057,0.298,-5.337
0.237,0.054,0.305,-5.337
0.259,0.055,0.307,-5.337
0.203,0.055,0.301,-5.337
0.187,0.058,0.297,-5.337
0.159,0.059,0.298,-5.337
0.150,0.056,0.300,-5.337
0.231,0.055,0.300,-5.337
0.228,0.058,0.301,-5.337
0.121,0.064,0.302,-5.337
0.120,0.066,0.301,-5.337
0.231,0.058,0.299,-5.337
0.284,0.056,0.297,-5.337
0.176,0.056,0.298,-5.337
0.137,0.058,0.301,-5.337
0.152,0.057,0.302,-5.337
0.162,0.060,0.298,-5.337
0.206,0.060,0.298,-5.337
0.223,0.061,0.301,-5.337
0.179,0.063,0.307,-5.337
0.141,0.065,0.304,-5.337
0.123,0.065,0.298,-5.337
0.163,0.063,0.297,-5.337
0.182,0.063,0.301,-5.337
0.208,0.059,0.302,-5.337
0.284,0.058,0.304,-5.337
0.241,0.062,0.302,-5.337
0.169,0.063,0.301,-5.337
0.232,0.063,0.303,-5.337
0.268,0.062,0.304,-5.337
0.269,0.061,0.301,-5.337
0.267,0.060,0.298,-5.337
0.278,0.060,0.292,-5.337
0.251,0.064,0.290,-5.337
0.197,0.060,0.297,-5.337
0.211,0.060,0.300,-5.337
0.217,0.060,0.303,-5.337
0.274,0.060,0.303,-5.337
0.221,0.060,0.302,-5.337
0.104,0.061,0.300,-5.337
0.075,0.061,0.302,-5.337
0.137,0.057,0.302,-5.337
0.181,0.063,0.303,-5.337
0.208,0.064,0.303,-5.337
0.250,0.061,0.300,-5.337
0.170,0.062,0.297,-5.337
0.110,0.062,0.297,-5.337
0.192,0.058,0.302,-5.337
0.210,0.060,0.303,-5.337
0.204,0.062,0.301,-5.337
0.193,0.065,0.300,-5.337
0.242,0.063,0.301,-5.337
0.274,0.066,0.305,-5.337
0.245,0.068,0.303,-5.337
0.209,0.067,0.298,-5.337
0.220,0.063,0.299,-5.337
0.192,0.063,0.301,-5.337
0.140,0.065,0.303,-5.337
0.109,0.064,0.302,-5.337
0.193,0.060,0.300,-5.337
0.293,0.057,0.298,-5.337
0.205,0.059,0.301,-5.337
0.072,0.065,0.301,-5.337
0.082,0.067,0.300,-5.337
0.224,0.065,0.298,-5.337
0.234,0.067,0.302,-5.337
0.265,0.065,0.304,-5.337
0.320,0.066,0.305,-5.337
0.317,0.066,0.303,-5.337
0.214,0.067,0.301,-5.337
0.170,0.067,0.302,-5.337
0.153,0.068,0.304,-5.337
0.126,0.069,0.305,-5.337
0.128,0.069,0.299,-5.337
0.154,0.065,0.295,-5.337
0.180,0.064,0.299,-5.337
0.176,0.067,0.304,-5.337
0.163,0.065,0.307,-5.337
0.130,0.063,0.305,-5.337
0.120,0.065,0.302,-5.337
0.190,0.063,0.300,-5.337
0.234,0.064,0.301,-5.337
0.174,0.067,0.303,-5.337
0.097,0.067,0.305,-5.337
0.111,0.063,0.305,-5.337
0.167,0.064,0.303,-5.337
0.217,0.064,0.301,-5.337
0.231,0.067,0.298,-5.337
0.166,0.070,0.295,-5.337
0.143,0.071,0.293,-5.337
0.176,0.071,0.297,-5.337
0.186,0.069,0.303,-5.337
0.147,0.068,0.305,-5.337
0.119,0.068,0.305,-5.337
0.169,0.067,0.306,-5.337
0.246,0.066,0.304,-5.337
0.245,0.068,0.299,-5.337
0.244,0.066,0.298,-5.337
0.298,0.064,0.300,-5.337
0.303,0.063,0.299,-5.337
0.259,0.068,0.298,-5.337
0.184,0.073,0.299,-5.337
0.160,0.072,0.299,-5.337
0.134,0.073,0.302,-5.337
0.141,0.073,0.302,-5.337
0.180,0.073,0.302,-5.337
0.238,0.072,0.301,-5.337
0.245,0.067,0.303,-5.337
0.264,0.066,0.307,-5.337
0.206,0.064,0.309,-5.337
0.189,0.063,0.309,-5.337
0.168,0.066,0.309,-5.337
0.131,0.066,0.306,-5.337
0.146,0.065,0.301,-5.337
0.205,0.065,0.302,-5.337
0.247,0.067,0.304,-5.337
0.255,0.066,0.303,-5.337
0.269,0.068,0.301,-5.337
0.237,0.067,0.301,-5.337
0.137,0.064,0.303,-5.337
0.128,0.066,0.304,-5.337
0.157,0.069,0.305,-5.337
0.182,0.072,0.304,-5.337
0.157,0.070,0.303,-5.337
0.181,0.066,0.302,-5.337
0.285,0.065,0.303,-5.337
0.269,0.063,0.305,-5.337
0.191,0.065,0.305,-5.337
0.163,0.065,0.306,-5.337
0.160,0.061,0.307,-5.337
0.147,0.060,0.303,-5.337
0.175,0.062,0.299,-5.337
0.217,0.062,0.300,-5.337
0.144,0.062,0.303,-5.337
0.109,0.064,0.305,-5.337
0.141,0.062,0.302,-5.337
0.236,0.061,0.300,-5.337
0.255,0.060,0.304,-5.337
0.217,0.059,0.307,-5.337
0.249,0.057,0.307,-5.337
0.260,0.059,0.303,-5.337
0.198,0.060,0.299,-5.337
0.230,0.059,0.302,-5.337
0.306,0.054,0.305,-5.337
0.359,0.051,0.302,-5.337
0.392,0.053,0.304,-5.337
0.367,0.054,0.306,-5.337
0.358,0.050,0.305,-5.337
0.324,0.054,0.304,-5.337
0.239,0.053,0.303,-5.337
0.297,0.050,0.303,-5.337
0.297,0.051,0.309,-5.337
0.202,0.052,0.310,-5.337
0.221,0.053,0.305,-5.337
0.193,0.053,0.299,-5.337
0.123,0.055,0.302,-5.337
0.140,0.053,0.303,-5.337
0.180,0.055,0.301,-5.337
0.222,0.054,0.303,-5.337
0.257,0.055,0.305,-5.337
0.264,0.054,0.305,-5.337
0.217,0.056,0.304,-5.337
0.122,0.059,0.307,-5.337
0.117,0.058,0.308,-5.337
0.197,0.053,0.309,-5.337
0.266,0.050,0.307,-5.337
0.237,0.048,0.303,-5.337
0.209,0.048,0.304,-5.337
0.276,0.048,0.304,-5.337
0.231,0.049,0.303,-5.337
0.192,0.047,0.304,-5.337
0.225,0.053,0.305,-5.337
0.229,0.057,0.304,-5.337
0.166,0.057,0.302,-5.337
0.141,0.057,0.301,-5.337
0.148,0.054,0.300,-5.337
0.182,0.055,0.303,-5.337
0.251,0.055,0.305,-5.337
0.263,0.054,0.308,-5.337
0.255,0.053,0.305,-5.337
0.256,0.056,0.304,-5.337
0.201,0.056,0.305,-5.337
0.123,0.053,0.303,-5.337
0.141,0.051,0.301,-5.337
0.170,0.054,0.298,-5.337
0.193,0.053,0.297,-5.337
0.286,0.051,0.303,-5.337
0.294,0.050,0.308,-5.337
0.191,0.055,0.306,-5.337
0.213,0.056,0.305,-5.337
0.243,0.054,0.304,-5.337
0.273,0.054,0.304,-5.337
0.338,0.050,0.305,-5.337
0.351,0.050,0.309,-5.337
0.246,0.054,0.309,-5.337
0.147,0.057,0.305,-5.337
0.209,0.057,0.301,-5.337
0.277,0.055,0.303,-5.337
0.227,0.053,0.301,-5.337
0.206,0.052,0.300,-5.337
0.226,0.049,0.303,-5.337
0.206,0.054,0.307,-5.337
0.170,0.054,0.306,-5.337
0.216,0.048,0.301,-5.337
0.252,0.049,0.297,-5.337
0.129,0.051,0.300,-5.337
0.079,0.049,0.305,-5.337
0.121,0.049,0.307,-5.337
0.160,0.047,0.305,-5.337
0.130,0.047,0.303,-5.337
0.124,0.046,0.301,-5.337
0.117,0.047,0.299,-5.337
0.109,0.050,0.300,-5.337
0.118,0.049,0.305,-5.337
0.134,0.051,0.308,-5.337
0.206,0.049,0.305,-5.337
0.208,0.050,0.303,-5.337
0.186,0.051,0.304,-5.337
0.253,0.048,0.305,-5.337
0.318,0.048,0.301,-5.337
0.258,0.050,0.302,-5.337
0.172,0.052,0.304,-5.337
0.146,0.050,0.306,-5.337
0.147,0.046,0.301,-5.337
0.237,0.046,0.301,-5.337
0.348,0.047,0.303,-5.337
0.388,0.045,0.305,-5.337
0.371,0.042,0.301,-5.337
0.378,0.043,0.301,-5.337
0.271,0.047,0.303,-5.337
0.167,0.050,0.307,-5.337
0.180,0.051,0.306,-5.337
0.218,0.052,0.301,-5.337
0.210,0.051,0.297,-5.337
0.178,0.050,0.302,-5.337
0.234,0.050,0.311,-5.337
0.284,0.048,0.313,-5.337
0.231,0.044,0.308,-5.337
0.163,0.045,0.299,-5.337
0.194,0.044,0.299,-5.337
0.228,0.043,0.302,-5.337
0.196,0.044,0.305,-5.337
0.183,0.046,0.306,-5.337
0.238,0.044,0.309,-5.337
0.246,0.043,0.308,-5.337
0.234,0.044,0.304,-5.337
0.230,0.046,0.300,-5.337
0.252,0.046,0.299,-5.337
0.236,0.049,0.304,-5.337
0.141,0.052,0.306,-5.337
0.165,0.052,0.304,-5.337
0.279,0.050,0.307,-5.337
0.259,0.048,0.309,-5.337
0.177,0.050,0.309,-5.337
0.181,0.046,0.309,-5.337
0.179,0.044,0.305,-5.337
0.154,0.049,0.303,-5.337
0.203,0.050,0.302,-5.337
0.241,0.047,0.303,-5.337
0.291,0.042,0.304,-5.337
0.225,0.045,0.304,-5.337
0.174,0.044,0.304,-5.337
0.188,0.038,0.304,-5.337
0.178,0.040,0.303,-5.337
0.122,0.042,0.301,-5.337
0.199,0.040,0.297,-5.337
0.217,0.042,0.299,-5.337
0.142,0.044,0.303,-5.337
0.088,0.041,0.304,-5.337
0.093,0.038,0.303,-5.337
0.171,0.043,0.304,-5.337
0.313,0.042,0.306,-5.337
0.293,0.038,0.305,-5.337
0.240,0.035,0.300,-5.337
0.236,0.037,0.298,-5.337
0.165,0.041,0.299,-5.337
0.133,0.042,0.304,-5.337
0.137,0.040,0.305,-5.337
0.101,0.041,0.304,-5.337
0.167,0.039,0.303,-5.337
0.240,0.036,0.307,-5.337
0.213,0.037,0.310,-5.337
0.152,0.040,0.309,-5.337
0.147,0.043,0.303,-5.337
0.149,0.043,0.298,-5.337
0.226,0.042,0.299,-5.337
0.223,0.038,0.301,-5.337
0.203,0.038,0.307,-5.337
0.234,0.037,0.306,-5.337
0.183,0.041,0.305,-5.337
0.128,0.040,0.301,-5.337
0.190,0.040,0.304,-5.337
0.271,0.041,0.306,-5.337
0.266,0.043,0.302,-5.337
0.268,0.039,0.298,-5.337
0.303,0.035,0.297,-5.337
0.288,0.036,0.298,-5.337
0.286,0.039,0.304,-5.337
0.295,0.037,0.307,-5.337
0.283,0.039,0.306,-5.337
0.324,0.034,0.302,-5.337
0.338,0.035,0.297,-5.337
0.244,0.037,0.294,-5.337
0.243,0.035,0.299,-5.337
0.278,0.035,0.304,-5.337
0.234,0.037,0.304,-5.337
0.272,0.041,0.304,-5.337
0.270,0.041,0.305,-5.337
0.209,0.041,0.304,-5.337
0.106,0.040,0.303,-5.337
0.093,0.038,0.302,-5.337
0.129,0.037,0.299,-5.337
0.122,0.041,0.302,-5.337
0.152,0.041,0.304,-5.337
0.241,0.043,0.306,-5.337
0.175,0.045,0.307,-5.337
0.150,0.046,0.307,-5.337
0.134,0.041,0.302,-5.337
0.129,0.038,0.301,-5.337
0.206,0.036,0.301,-5.337
0.202,0.038,0.301,-5.337
0.158,0.038,0.302,-5.337
0.150,0.037,0.303,-5.337
0.180,0.037,0.303,-5.337
0.198,0.038,0.305,-5.337
0.241,0.037,0.307,-5.337
0.199,0.036,0.305,-5.337
0.196,0.036,0.302,-5.337
0.170,0.037,0.298,-5.337
0.145,0.038,0.297,-5.337
0.183,0.040,0.301,-5.337
0.185,0.040,0.305,-5.337
0.221,0.037,0.307,-5.337
0.279,0.037,0.308,-5.337
0.235,0.040,0.304,-5.337
0.170,0.040,0.303,-5.337
0.180,0.037,0.304,-5.337
0.208,0.039,0.306,-5.337
0.206,0.038,0.304,-5.337
0.203,0.037,0.302,-5.337
0.215,0.037,0.297,-5.337
0.182,0.039,0.296,-5.337
0.204,0.039,0.300,-5.337
0.296,0.038,0.303,-5.337
0.310,0.037,0.307,-5.337
0.321,0.038,0.305,-5.337
0.315,0.038,0.301,-5.337
0.267,0.037,0.300,-5.337
0.180,0.039,0.301,-5.337
0.163,0.038,0.300,-5.337
0.214,0.038,0.300,-5.337
0.226,0.035,0.303,-5.337
0.174,0.034,0.306,-5.337
0.171,0.035,0.308,-5.337
0.190,0.034,0.309,-5.337
0.153,0.037,0.308,-5.337
0.166,0.040,0.312,-5.337
0.123,0.040,0.309,-5.337
0.108,0.036,0.306,-5.337
0.107,0.035,0.298,-5.337
0.098,0.040,0.297,-5.337
0.155,0.043,0.298,-5.337
0.238,0.040,0.299,-5.337
0.249,0.041,0.300,-5.337
0.236,0.045,0.302,-5.337
0.201,0.046,0.304,-5.337
0.160,0.042,0.302,-5.337
0.142,0.039,0.302,-5.337
0.166,0.044,0.305,-5.337
0.290,0.039,0.305,-5.337
0.363,0.035,0.305,-5.337
0.295,0.038,0.306,-5.337
0.311,0.039,0.304,-5.337
0.327,0.043,0.301,-5.337
0.286,0.045,0.301,-5.337
0.259,0.045,0.302,-5.337
0.242,0.043,0.301,-5.337
0.264,0.040,0.300,-5.337
0.221,0.043,0.302,-5.337
0.130,0.044,0.305,-5.337
0.137,0.045,0.308,-5.337
0.182,0.040,0.308,-5.337
0.195,0.037,0.302,-5.337
0.208,0.039,0.302,-5.337
0.179,0.041,0.303,-5.337
0.176,0.042,0.305,-5.337
0.131,0.042,0.304,-5.337
0.145,0.043,0.305,-5.337
0.225,0.042,0.305,-5.337
0.252,0.045,0.302,-5.337
0.224,0.044,0.299,-5.337
0.248,0.042,0.296,-5.337
0.222,0.042,0.299,-5.337
0.200,0.043,0.304,-5.337
0.153,0.046,0.306,-5.337
0.179,0.045,0.305,-5.337
0.253,0.042,0.308,-5.337
0.285,0.042,0.310,-5.337
0.278,0.041,0.308,-5.337
0.253,0.043,0.301,-5.337
0.189,0.048,0.299,-5.337
0.131,0.049,0.303,-5.337
0.118,0.050,0.304,-5.337
0.143,0.046,0.301,-5.337
0.185,0.045,0.303,-5.337
0.125,0.047,0.304,-5.337
0.105,0.045,0.303,-5.337
0.119,0.045,0.304,-5.337
0.144,0.045,0.305,-5.337
0.180,0.045,0.307,-5.337
0.166,0.047,0.307,-5.337
0.142,0.048,0.305,-5.337
0.192,0.045,0.303,-5.337
0.246,0.039,0.305,-5.337
0.277,0.043,0.307,-5.337
0.254,0.048,0.308,-5.337
0.179,0.052,0.306,-5.337
0.130,0.049,0.303,-5.337
0.198,0.047,0.306,-5.337
0.186,0.050,0.309,-5.337
0.080,0.049,0.307,-5.337
0.104,0.047,0.301,-5.337
0.188,0.046,0.297,-5.337
0.175,0.046,0.304,-5.337
0.256,0.045,0.310,-5.337
0.276,0.047,0.312,-5.337
0.235,0.049,0.305,-5.337
0.258,0.048,0.302,-5.337
0.263,0.048,0.305,-5.337
0.208,0.049,0.308,-5.337
0.219,0.045,0.306,-5.337
0.236,0.047,0.301,-5.337
0.237,0.050,0.296,-5.337
0.178,0.053,0.300,-5.337
0.161,0.053,0.308,-5.337
0.268,0.052,0.310,-5.337
0.249,0.055,0.309,-5.337
0.134,0.055,0.308,-5.337
0.108,0.052,0.306,-5.337
0.162,0.052,0.307,-5.337
0.177,0.055,0.308,-5.337
0.120,0.057,0.309,-5.337
0.033,0.055,0.309,-5.337
0.104,0.055,0.308,-5.337
0.141,0.054,0.311,-5.337
0.162,0.052,0.309,-5.337
0.187,0.051,0.305,-5.337
0.195,0.050,0.297,-5.337
0.245,0.052,0.297,-5.337
0.235,0.050,0.299,-5.337
0.217,0.051,0.303,-5.337
0.251,0.052,0.305,-5.337
0.184,0.057,0.301,-5.337
0.110,0.055,0.299,-5.337
0.156,0.052,0.301,-5.337
0.179,0.049,0.303,-5.337
0.211,0.048,0.305,-5.337
0.257,0.050,0.305,-5.337
0.190,0.053,0.304,-5.337
0.142,0.054,0.301,-5.337
0.159,0.054,0.300,-5.337
0.182,0.052,0.300,-5.337
0.265,0.047,0.302,-5.337
0.236,0.048,0.306,-5.337
0.148,0.051,0.303,-5.337
0.129,0.052,0.301,-5.337
0.165,0.053,0.302,-5.337
0.220,0.052,0.304,-5.337
0.198,0.051,0.303,-5.337
0.178,0.053,0.304,-5.337
0.151,0.053,0.304,-5.337
0.148,0.053,0.308,-5.337
0.177,0.055,0.309,-5.337
0.171,0.052,0.306,-5.337
0.148,0.055,0.303,-5.337
0.151,0.055,0.301,-5.337
0.196,0.053,0.302,-5.337
0.269,0.051,0.301,-5.337
0.271,0.047,0.299,-5.337
0.254,0.052,0.299,-5.337
0.270,0.055,0.301,-5.337
0.281,0.054,0.303,-5.337
0.254,0.053,0.305,-5.337
0.155,0.056,0.304,-5.337
0.140,0.057,0.301,-5.337
0.175,0.054,0.302,-5.337
0.197,0.054,0.304,-5.337
0.194,0.057,0.304,-5.337
0.162,0.056,0.306,-5.337
0.156,0.055,0.304,-5.337
0.246,0.048,0.304,-5.337
0.281,0.048,0.303,-5.337
0.271,0.052,0.303,-5.337
0.227,0.056,0.303,-5.337
0.180,0.053,0.305,-5.337
0.196,0.048,0.306,-5.337
0.231,0.046,0.306,-5.337
0.205,0.051,0.301,-5.337
0.130,0.054,0.297,-5.337
0.131,0.051,0.300,-5.337
0.171,0.052,0.304,-5.337
0.133,0.052,0.303,-5.337
0.185,0.052,0.303,-5.337
0.192,0.055,0.304,-5.337
0.182,0.054,0.304,-5.337
0.184,0.057,0.302,-5.337
0.176,0.057,0.301,-5.337
0.224,0.053,0.301,-5.337
0.267,0.058,0.303,-5.337
0.212,0.060,0.304,-5.337
0.167,0.057,0.306,-5.337
0.190,0.054,0.305,-5.337
0.203,0.053,0.305,-5.337
0.186,0.054,0.306,-5.337
0.136,0.053,0.307,-5.337
0.069,0.057,0.310,-5.337
0.118,0.053,0.306,-5.337
0.209,0.054,0.300,-5.337
0.202,0.057,0.297,-5.337
0.168,0.059,0.299,-5.337
0.223,0.058,0.302,-5.337
0.297,0.057,0.305,-5.337
0.258,0.056,0.308,-5.337
0.225,0.061,0.309,-5.337
0.232,0.062,0.302,-5.337
0.220,0.061,0.294,-5.337
0.268,0.058,0.297,-5.337
0.308,0.057,0.304,-5.337
0.305,0.056,0.302,-5.337
0.243,0.058,0.302,-5.337
0.269,0.060,0.303,-5.337
0.247,0.059,0.305,-5.337
0.151,0.059,0.304,-5.337
0.175,0.057,0.304,-5.337
0.221,0.059,0.306,-5.337
0.184,0.058,0.307,-5.337
0.108,0.062,0.307,-5.337
0.146,0.062,0.305,-5.337
0.207,0.059,0.300,-5.337
0.250,0.055,0.299,-5.337
0.250,0.057,0.304,-5.337
0.235,0.054,0.302,-5.337
0.261,0.057,0.301,-5.337
0.215,0.058,0.304,-5.337
0.199,0.060,0.304,-5.337
0.166,0.058,0.302,-5.337
0.208,0.057,0.302,-5.337
0.238,0.058,0.307,-5.337
0.142,0.061,0.307,-5.337
0.055,0.060,0.305,-5.337
0.158,0.056,0.305,-5.337
0.179,0.056,0.307,-5.337
0.183,0.059,0.305,-5.337
0.210,0.059,0.301,-5.337
0.236,0.059,0.300,-5.337
0.329,0.057,0.305,-5.337
0.307,0.060,0.306,-5.337
0.230,0.064,0.305,-5.337
0.148,0.063,0.304,-5.337
0.162,0.061,0.302,-5.337
0.188,0.060,0.299,-5.337
0.169,0.062,0.299,-5.337
0.121,0.065,0.301,-5.337
0.121,0.065,0.306,-5.337
0.215,0.058,0.305,-5.337
0.240,0.056,0.303,-5.337
0.264,0.059,0.304,-5.337
0.232,0.060,0.302,-5.337
0.209,0.057,0.300,-5.337
0.209,0.054,0.298,-5.337
0.194,0.058,0.298,-5.337
0.227,0.063,0.302,-5.337
0.226,0.058,0.304,-5.337
0.258,0.057,0.301,-5.337
0.222,0.061,0.300,-5.337
0.183,0.065,0.303,-5.337
0.122,0.065,0.305,-5.337
0.103,0.063,0.304,-5.337
0.171,0.060,0.306,-5.337
0.230,0.056,0.306,-5.337
0.236,0.060,0.306,-5.337
0.213,0.063,0.301,-5.337
0.196,0.064,0.296,-5.337
0.158,0.063,0.295,-5.337
0.173,0.060,0.299,-5.337
0.190,0.058,0.302,-5.337
0.160,0.057,0.305,-5.337
0.193,0.059,0.306,-5.337
0.187,0.061,0.304,-5.337
0.135,0.057,0.304,-5.337
0.176,0.057,0.307,-5.337
0.277,0.056,0.305,-5.337
0.267,0.059,0.302,-5.337
0.204,0.054,0.302,-5.337
0.263,0.052,0.302,-5.337
0.298,0.053,0.301,-5.337
0.206,0.059,0.302,-5.337
0.224,0.057,0.303,-5.337
0.270,0.053,0.300,-5.337
0.162,0.054,0.299,-5.337
0.102,0.055,0.300,-5.337
0.225,0.058,0.301,-5.337
0.260,0.059,0.301,-5.337
0.263,0.055,0.302,-5.337
0.216,0.057,0.303,-5.337
0.190,0.056,0.303,-5.337
0.174,0.056,0.305,-5.337
0.155,0.056,0.307,-5.337
0.241,0.052,0.303,-5.337
0.339,0.054,0.300,-5.337
0.288,0.057,0.301,-5.337
0.155,0.065,0.306,-5.337
0.144,0.062,0.305,-5.337
0.192,0.057,0.302,-5.337
0.230,0.054,0.301,-5.337
0.238,0.056,0.305,-5.337
0.261,0.056,0.311,-5.337
0.317,0.052,0.309,-5.337
0.283,0.055,0.303,-5.337
0.210,0.059,0.299,-5.337
0.175,0.061,0.299,-5.337
0.202,0.057,0.302,-5.337
0.226,0.058,0.305,-5.337
0.180,0.060,0.307,-5.337
0.122,0.059,0.305,-5.337
0.142,0.057,0.304,-5.337
0.176,0.056,0.301,-5.337
0.197,0.056,0.301,-5.337
0.184,0.057,0.303,-5.337
0.198,0.056,0.302,-5.337
0.170,0.056,0.304,-5.337
0.112,0.056,0.302,-5.337
0.156,0.055,0.302,-5.337
0.273,0.052,0.299,-5.337
0.192,0.055,0.301,-5.337
0.039,0.054,0.304,-5.337
0.092,0.054,0.307,-5.337
0.157,0.057,0.307,-5.337
0.195,0.060,0.303,-5.337
0.203,0.051,0.300,-5.337
0.267,0.049,0.302,-5.337
0.254,0.054,0.304,-5.337
0.226,0.058,0.306,-5.337
0.202,0.055,0.306,-5.337
0.172,0.053,0.303,-5.337
0.193,0.051,0.299,-5.337
0.281,0.050,0.301,-5.337
0.310,0.052,0.307,-5.337
0.267,0.052,0.308,-5.337
0.185,0.053,0.302,-5.337
0.213,0.052,0.297,-5.337
0.262,0.051,0.302,-5.337
0.222,0.053,0.302,-5.337
0.173,0.052,0.300,-5.337
0.240,0.047,0.297,-5.337
0.267,0.051,0.301,-5.337
0.177,0.053,0.305,-5.337
0.200,0.050,0.306,-5.337
0.276,0.049,0.305,-5.337
0.227,0.051,0.305,-5.337
0.209,0.047,0.305,-5.337
0.150,0.047,0.308,-5.337
0.176,0.046,0.309,-5.337
0.237,0.046,0.307,-5.337
0.265,0.046,0.304,-5.337
0.197,0.047,0.303,-5.337
0.153,0.048,0.300,-5.337
0.170,0.045,0.299,-5.337
0.220,0.044,0.299,-5.337
0.258,0.044,0.300,-5.337
0.316,0.042,0.304,-5.337
0.276,0.041,0.306,-5.337
0.251,0.044,0.308,-5.337
0.251,0.043,0.307,-5.337
0.237,0.042,0.305,-5.337
0.210,0.041,0.304,-5.337
0.200,0.049,0.304,-5.337
0.226,0.051,0.304,-5.337
0.176,0.052,0.303,-5.337
0.142,0.044,0.304,-5.337
0.159,0.045,0.304,-5.337
0.173,0.045,0.303,-5.337
0.238,0.046,0.304,-5.337
0.297,0.043,0.306,-5.337
0.264,0.039,0.308,-5.337
0.223,0.039,0.305,-5.337
0.259,0.038,0.303,-5.337
0.244,0.039,0.306,-5.337
0.194,0.040,0.306,-5.337
0.216,0.039,0.306,-5.337
0.238,0.042,0.305,-5.337
0.172,0.041,0.301,-5.337
0.115,0.040,0.299,-5.337
0.152,0.042,0.303,-5.337
0.205,0.042,0.305,-5.337
0.204,0.042,0.305,-5.337
0.174,0.042,0.307,-5.337
0.224,0.042,0.311,-5.337
0.273,0.043,0.308,-5.337
0.176,0.042,0.305,-5.337
0.140,0.041,0.305,-5.337
0.169,0.042,0.308,-5.337
0.163,0.042,0.308,-5.337
0.180,0.042,0.306,-5.337
0.251,0.042,0.306,-5.337
0.299,0.040,0.310,-5.337
0.324,0.037,0.308,-5.337
0.242,0.038,0.304,-5.337
0.154,0.042,0.301,-5.337
0.163,0.039,0.301,-5.337
0.173,0.039,0.305,-5.337
0.169,0.039,0.307,-5.337
0.131,0.037,0.307,-5.337
0.150,0.036,0.308,-5.337
0.166,0.036,0.308,-5.337
0.246,0.038,0.307,-5.337
0.218,0.040,0.306,-5.337
0.168,0.040,0.302,-5.337
0.237,0.036,0.303,-5.337
0.262,0.035,0.308,-5.337
0.215,0.034,0.310,-5.337
0.115,0.033,0.305,-5.337
0.079,0.032,0.301,-5.337
0.156,0.031,0.301,-5.337
0.224,0.035,0.306,-5.337
0.223,0.031,0.308,-5.337
0.252,0.033,0.304,-5.337
0.220,0.034,0.298,-5.337
0.257,0.035,0.301,-5.337
0.297,0.032,0.303,-5.337
0.282,0.031,0.303,-5.337
0.318,0.026,0.303,-5.337
0.331,0.033,0.304,-5.337
0.232,0.040,0.305,-5.337
0.158,0.042,0.304,-5.337
0.107,0.039,0.303,-5.337
0.037,0.037,0.303,-5.337
0.131,0.037,0.304,-5.337
0.244,0.035,0.302,-5.337
0.230,0.037,0.304,-5.337
0.228,0.039,0.305,-5.337
0.193,0.039,0.305,-5.337
0.214,0.037,0.300,-5.337
0.193,0.036,0.300,-5.337
0.197,0.035,0.303,-5.337
0.140,0.039,0.305,-5.337
0.094,0.038,0.306,-5.337
0.150,0.039,0.305,-5.337
0.209,0.037,0.303,-5.337
0.231,0.035,0.302,-5.337
0.207,0.038,0.301,-5.337
0.187,0.034,0.304,-5.337
0.260,0.030,0.303,-5.337
0.265,0.034,0.301,-5.337
0.152,0.036,0.302,-5.337
0.115,0.036,0.305,-5.337
0.168,0.034,0.303,-5.337
0.188,0.032,0.305,-5.337
0.153,0.034,0.307,-5.337
0.151,0.037,0.305,-5.337
0.124,0.040,0.305,-5.337
0.101,0.041,0.304,-5.337
0.083,0.042,0.301,-5.337
0.118,0.040,0.299,-5.337
0.177,0.036,0.301,-5.337
0.166,0.038,0.302,-5.337
0.173,0.039,0.304,-5.337
0.205,0.038,0.301,-5.337
0.250,0.040,0.301,-5.337
0.185,0.040,0.302,-5.337
0.186,0.039,0.304,-5.337
0.228,0.036,0.305,-5.337
0.256,0.036,0.306,-5.337
0.225,0.035,0.306,-5.337
0.190,0.031,0.305,-5.337
0.203,0.031,0.306,-5.337
0.195,0.038,0.305,-5.337
0.187,0.040,0.305,-5.337
0.200,0.036,0.302,-5.337
0.193,0.037,0.299,-5.337
0.214,0.039,0.300,-5.337
0.187,0.040,0.304,-5.337
0.120,0.041,0.310,-5.337
0.079,0.038,0.312,-5.337
0.128,0.037,0.308,-5.337
0.210,0.034,0.308,-5.337
0.146,0.038,0.308,-5.337
0.153,0.040,0.307,-5.337
0.225,0.039,0.302,-5.337
0.247,0.037,0.302,-5.337
0.274,0.036,0.301,-5.337
0.318,0.034,0.303,-5.337
0.337,0.030,0.304,-5.337
0.364,0.037,0.305,-5.337
0.304,0.039,0.305,-5.337
0.232,0.037,0.301,-5.337
0.222,0.033,0.301,-5.337
0.222,0.038,0.304,-5.337
0.165,0.042,0.308,-5.337
0.181,0.041,0.305,-5.337
0.191,0.038,0.301,-5.337
0.147,0.035,0.299,-5.337
0.070,0.039,0.300,-5.337
0.041,0.043,0.304,-5.337
0.142,0.039,0.305,-5.337
0.216,0.038,0.305,-5.337
0.204,0.042,0.306,-5.337
0.115,0.043,0.305,-5.337
0.142,0.038,0.305,-5.337
0.241,0.035,0.309,-5.337
0.296,0.036,0.307,-5.337
0.351,0.031,0.300,-5.337
0.322,0.033,0.299,-5.337
0.258,0.035,0.302,-5.337
0.228,0.034,0.303,-5.337
0.260,0.034,0.303,-5.337
0.266,0.035,0.304,-5.337
0.226,0.035,0.309,-5.337
0.249,0.039,0.309,-5.337
0.263,0.039,0.305,-5.337
0.179,0.043,0.302,-5.337
0.178,0.042,0.305,-5.337
0.218,0.039,0.306,-5.337
0.245,0.037,0.302,-5.337
0.167,0.041,0.299,-5.337
0.183,0.038,0.299,-5.337
0.247,0.035,0.302,-5.337
0.236,0.035,0.303,-5.337
0.267,0.036,0.301,-5.337
0.259,0.038,0.304,-5.337
0.259,0.038,0.304,-5.337
0.196,0.040,0.302,-5.337
0.174,0.041,0.297,-5.337
0.107,0.042,0.301,-5.337
0.103,0.042,0.303,-5.337
0.154,0.038,0.302,-5.337
0.174,0.039,0.303,-5.337
0.175,0.041,0.304,-5.337
0.167,0.037,0.306,-5.337
0.158,0.036,0.305,-5.337
0.159,0.034,0.303,-5.337
0.234,0.033,0.299,-5.337
0.249,0.031,0.298,-5.337
0.234,0.035,0.300,-5.337
0.183,0.034,0.298,-5.337
0.143,0.034,0.300,-5.337
0.143,0.034,0.302,-5.337
0.186,0.035,0.305,-5.337
0.174,0.037,0.308,-5.337
0.223,0.035,0.304,-5.337
0.270,0.035,0.304,-5.337
0.246,0.038,0.303,-5.337
0.229,0.041,0.301,-5.337
0.225,0.036,0.302,-5.337
0.249,0.034,0.303,-5.337
0.235,0.035,0.302,-5.337
0.183,0.040,0.302,-5.337
0.174,0.042,0.302,-5.337
0.133,0.045,0.302,-5.337
0.070,0.043,0.302,-5.337
0.181,0.040,0.302,-5.337
0.308,0.035,0.302,-5.337
0.323,0.037,0.302,-5.337
0.302,0.040,0.304,-5.337
0.259,0.042,0.303,-5.337
0.201,0.042,0.304,-5.337
0.233,0.042,0.304,-5.337
0.259,0.042,0.304,-5.337
0.255,0.042,0.305,-5.337
0.211,0.039,0.302,-5.337
0.200,0.040,0.299,-5.337
0.203,0.041,0.300,-5.337
0.246,0.039,0.304,-5.337
0.243,0.041,0.306,-5.337
0.184,0.044,0.303,-5.337
0.175,0.042,0.304,-5.337
0.230,0.039,0.305,-5.337
0.234,0.039,0.305,-5.337
0.262,0.037,0.299,-5.337
0.263,0.037,0.301,-5.337
0.218,0.038,0.304,-5.337
0.188,0.042,0.308,-5.337
0.169,0.040,0.307,-5.337
0.126,0.041,0.305,-5.337
0.138,0.041,0.302,-5.337
0.174,0.040,0.300,-5.337
0.160,0.037,0.298,-5.337
0.227,0.038,0.300,-5.337
0.253,0.042,0.304,-5.337
0.211,0.048,0.306,-5.337
0.211,0.045,0.303,-5.337
0.193,0.045,0.302,-5.337
0.243,0.042,0.300,-5.337
0.292,0.040,0.300,-5.337
0.262,0.043,0.299,-5.337
0.167,0.045,0.299,-5.337
0.146,0.046,0.301,-5.337
0.099,0.048,0.301,-5.337
0.062,0.047,0.300,-5.337
0.158,0.046,0.300,-5.337
0.198,0.044,0.305,-5.337
0.209,0.047,0.309,-5.337
0.126,0.051,0.312,-5.337
0.147,0.045,0.305,-5.337
0.177,0.043,0.299,-5.337
0.199,0.043,0.296,-5.337
0.174,0.048,0.302,-5.337
0.048,0.045,0.303,-5.337
0.105,0.043,0.304,-5.337
0.244,0.044,0.305,-5.337
0.197,0.049,0.306,-5.337
0.137,0.048,0.308,-5.337
0.084,0.049,0.306,-5.337
0.091,0.045,0.304,-5.337
0.189,0.045,0.300,-5.337
0.230,0.045,0.300,-5.337
0.209,0.044,0.302,-5.337
0.179,0.044,0.302,-5.337
0.199,0.045,0.303,-5.337
0.186,0.042,0.306,-5.337
0.230,0.042,0.309,-5.337
0.205,0.044,0.310,-5.337
0.175,0.045,0.305,-5.337
0.267,0.045,0.304,-5.337
0.210,0.049,0.304,-5.337
0.092,0.051,0.306,-5.337
0.126,0.045,0.304,-5.337
0.191,0.043,0.303,-5.337
0.174,0.046,0.304,-5.337
0.170,0.048,0.302,-5.337
0.207,0.046,0.304,-5.337
0.266,0.043,0.305,-5.337
0.277,0.046,0.305,-5.337
0.171,0.048,0.304,-5.337
0.156,0.046,0.303,-5.337
0.188,0.048,0.302,-5.337
0.150,0.047,0.302,-5.337
0.148,0.050,0.302,-5.337
0.162,0.054,0.301,-5.337
0.163,0.051,0.303,-5.337
0.213,0.047,0.303,-5.337
0.275,0.048,0.303,-5.337
0.214,0.054,0.305,-5.337
0.134,0.059,0.304,-5.337
0.144,0.054,0.307,-5.337
0.140,0.050,0.310,-5.337
0.094,0.048,0.308,-5.337
0.107,0.047,0.302,-5.337
0.225,0.048,0.303,-5.337
0.242,0.049,0.305,-5.337
0.253,0.052,0.306,-5.337
0.192,0.051,0.304,-5.337
0.157,0.052,0.305,-5.337
0.203,0.052,0.308,-5.337
0.213,0.053,0.308,-5.337
0.176,0.054,0.305,-5.337
0.171,0.049,0.303,-5.337
0.192,0.048,0.302,-5.337
0.206,0.049,0.302,-5.337
0.155,0.054,0.298,-5.337
0.123,0.053,0.299,-5.337
0.162,0.051,0.303,-5.337
0.175,0.052,0.308,-5.337
0.220,0.054,0.308,-5.337
0.219,0.054,0.305,-5.337
0.156,0.053,0.306,-5.337
0.118,0.055,0.305,-5.337
0.182,0.050,0.305,-5.337
0.285,0.050,0.302,-5.337
0.232,0.054,0.301,-5.337
0.133,0.052,0.302,-5.337
0.168,0.050,0.308,-5.337
0.248,0.049,0.311,-5.337
0.261,0.050,0.308,-5.337
0.227,0.051,0.304,-5.337
0.266,0.049,0.304,-5.337
0.344,0.051,0.306,-5.337
0.297,0.054,0.309,-5.337
0.209,0.051,0.307,-5.337
0.254,0.049,0.306,-5.337
0.186,0.051,0.305,-5.337
0.144,0.055,0.308,-5.337
0.172,0.053,0.309,-5.337
0.202,0.054,0.304,-5.337
0.192,0.058,0.305,-5.337
0.210,0.057,0.304,-5.337
0.243,0.054,0.302,-5.337
0.216,0.052,0.300,-5.337
0.222,0.049,0.302,-5.337
0.253,0.052,0.305,-5.337
0.232,0.053,0.306,-5.337
0.243,0.052,0.305,-5.337
0.223,0.056,0.303,-5.337
0.194,0.057,0.302,-5.337
0.216,0.057,0.304,-5.337
0.235,0.059,0.308,-5.337
0.173,0.057,0.309,-5.337
0.169,0.056,0.307,-5.337
0.216,0.057,0.303,-5.337
0.190,0.056,0.299,-5.337
0.112,0.057,0.297,-5.337
0.089,0.054,0.301,-5.337
0.125,0.054,0.306,-5.337
0.181,0.056,0.305,-5.337
0.231,0.058,0.302,-5.337
0.242,0.062,0.301,-5.337
0.209,0.063,0.299,-5.337
0.226,0.061,0.296,-5.337
0.262,0.059,0.294,-5.337
0.200,0.059,0.303,-5.337
0.202,0.057,0.307,-5.337
0.224,0.054,0.306,-5.337
0.233,0.058,0.302,-5.337
0.185,0.061,0.302,-5.337
0.116,0.063,0.306,-5.337
0.135,0.061,0.312,-5.337
0.165,0.059,0.309,-5.337
0.219,0.059,0.303,-5.337
0.256,0.058,0.299,-5.337
0.168,0.062,0.303,-5.337
0.121,0.060,0.308,-5.337
0.217,0.056,0.307,-5.337
0.252,0.056,0.302,-5.337
0.180,0.060,0.300,-5.337
0.121,0.059,0.301,-5.337
0.143,0.058,0.300,-5.337
0.108,0.059,0.297,-5.337
0.051,0.061,0.301,-5.337
0.085,0.058,0.305,-5.337
0.101,0.058,0.305,-5.337
0.137,0.056,0.301,-5.337
0.215,0.057,0.298,-5.337
0.224,0.060,0.299,-5.337
0.206,0.061,0.303,-5.337
0.192,0.061,0.306,-5.337
0.230,0.058,0.307,-5.337
0.287,0.058,0.309,-5.337
0.361,0.054,0.308,-5.337
0.359,0.056,0.310,-5.337
0.210,0.060,0.305,-5.337
0.185,0.061,0.301,-5.337
0.222,0.063,0.300,-5.337
0.160,0.063,0.302,-5.337
0.171,0.059,0.300,-5.337
0.182,0.062,0.298,-5.337
0.147,0.060,0.301,-5.337
0.163,0.056,0.304,-5.337
0.213,0.053,0.305,-5.337
0.243,0.056,0.305,-5.337
0.292,0.057,0.304,-5.337
0.344,0.057,0.305,-5.337
0.313,0.055,0.305,-5.337
0.258,0.060,0.301,-5.337
0.198,0.061,0.302,-5.337
0.219,0.063,0.307,-5.337
0.264,0.062,0.312,-5.337
0.202,0.061,0.307,-5.337
0.130,0.066,0.307,-5.337
0.195,0.062,0.306,-5.337
0.157,0.060,0.306,-5.337
0.083,0.061,0.303,-5.337
0.091,0.060,0.301,-5.337
0.175,0.061,0.298,-5.337
0.171,0.064,0.298,-5.337
0.209,0.062,0.299,-5.337
0.285,0.060,0.300,-5.337
0.294,0.060,0.301,-5.337
0.235,0.062,0.308,-5.337
0.189,0.060,0.311,-5.337
0.205,0.058,0.310,-5.337
0.277,0.061,0.305,-5.337
0.236,0.065,0.302,-5.337
0.189,0.066,0.302,-5.337
0.218,0.063,0.302,-5.337
0.210,0.062,0.305,-5.337
0.180,0.060,0.305,-5.337
0.167,0.063,0.306,-5.337
0.136,0.067,0.305,-5.337
0.110,0.066,0.308,-5.337
0.134,0.065,0.310,-5.337
0.169,0.063,0.310,-5.337
0.181,0.063,0.305,-5.337
0.195,0.064,0.298,-5.337
0.203,0.062,0.296,-5.337
0.175,0.060,0.302,-5.337
0.172,0.060,0.305,-5.337
0.180,0.061,0.307,-5.337
0.210,0.057,0.308,-5.337
0.256,0.059,0.307,-5.337
0.265,0.060,0.304,-5.337
0.280,0.059,0.304,-5.337
0.216,0.059,0.300,-5.337
0.153,0.060,0.301,-5.337
0.152,0.066,0.302,-5.337
0.167,0.064,0.302,-5.337
0.271,0.058,0.305,-5.337
0.287,0.059,0.304,-5.337
0.191,0.061,0.304,-5.337
0.184,0.064,0.303,-5.337
0.149,0.065,0.305,-5.337
0.167,0.064,0.306,-5.337
0.189,0.064,0.307,-5.337
0.166,0.063,0.303,-5.337
0.159,0.065,0.304,-5.337
0.110,0.062,0.303,-5.337
0.163,0.060,0.304,-5.337
0.272,0.060,0.302,-5.337
0.297,0.062,0.302,-5.337
0.302,0.058,0.303,-5.337
0.326,0.056,0.303,-5.337
0.281,0.057,0.302,-5.337
0.222,0.059,0.300,-5.337
0.192,0.063,0.304,-5.337
0.152,0.066,0.307,-5.337
0.186,0.063,0.304,-5.337
0.262,0.060,0.303,-5.337
0.237,0.063,0.303,-5.337
0.185,0.067,0.304,-5.337
0.167,0.066,0.304,-5.337
0.194,0.064,0.302,-5.337
0.155,0.062,0.300,-5.337
0.102,0.063,0.298,-5.337
0.172,0.061,0.298,-5.337
0.186,0.062,0.300,-5.337
0.164,0.060,0.304,-5.337
0.191,0.059,0.303,-5.337
0.219,0.060,0.303,-5.337
0.227,0.060,0.300,-5.337
0.201,0.061,0.298,-5.337
0.136,0.065,0.298,-5.337
0.098,0.066,0.302,-5.337
0.106,0.059,0.305,-5.337
0.157,0.054,0.305,-5.337
0.168,0.051,0.306,-5.337
0.172,0.056,0.305,-5.337
0.232,0.055,0.307,-5.337
0.212,0.057,0.310,-5.337
0.253,0.057,0.309,-5.337
0.356,0.057,0.304,-5.337
0.386,0.060,0.300,-5.337
0.302,0.056,0.300,-5.337
0.211,0.055,0.301,-5.337
0.184,0.057,0.298,-5.337
0.214,0.059,0.301,-5.337
0.230,0.063,0.303,-5.337
0.234,0.059,0.303,-5.337
0.184,0.055,0.300,-5.337
0.213,0.055,0.300,-5.337
0.223,0.058,0.303,-5.337
0.206,0.055,0.306,-5.337
0.187,0.051,0.305,-5.337
0.194,0.050,0.305,-5.337
0.221,0.052,0.307,-5.337
0.239,0.054,0.310,-5.337
0.224,0.053,0.306,-5.337
0.095,0.055,0.304,-5.337
0.096,0.055,0.305,-5.337
0.093,0.057,0.304,-5.337
0.100,0.056,0.300,-5.337
0.117,0.053,0.298,-5.337
0.094,0.056,0.303,-5.337
0.107,0.058,0.307,-5.337
0.218,0.057,0.309,-5.337
0.231,0.057,0.306,-5.337
0.245,0.053,0.301,-5.337
0.198,0.056,0.298,-5.337
0.217,0.056,0.300,-5.337
0.203,0.055,0.305,-5.337
0.114,0.057,0.307,-5.337
0.178,0.054,0.307,-5.337
0.240,0.055,0.306,-5.337
0.221,0.056,0.305,-5.337
0.205,0.053,0.305,-5.337
0.294,0.052,0.306,-5.337
0.272,0.054,0.309,-5.337
0.227,0.055,0.306,-5.337
0.248,0.054,0.301,-5.337
0.345,0.053,0.299,-5.337
0.329,0.053,0.300,-5.337
0.227,0.052,0.300,-5.337
0.182,0.057,0.303,-5.337
0.229,0.051,0.306,-5.337
0.211,0.048,0.306,-5.337
0.205,0.047,0.303,-5.337
0.155,0.050,0.302,-5.337
0.076,0.050,0.299,-5.337
0.134,0.049,0.301,-5.337
0.230,0.047,0.303,-5.337
0.223,0.048,0.303,-5.337
0.252,0.052,0.306,-5.337
0.224,0.052,0.306,-5.337
0.178,0.051,0.303,-5.337
0.165,0.050,0.302,-5.337
0.197,0.047,0.309,-5.337
0.181,0.050,0.310,-5.337
0.116,0.053,0.307,-5.337
0.155,0.052,0.304,-5.337
0.236,0.050,0.305,-5.337
0.255,0.049,0.306,-5.337
0.221,0.055,0.308,-5.337
0.254,0.052,0.307,-5.337
0.227,0.052,0.302,-5.337
0.205,0.053,0.303,-5.337
0.266,0.054,0.305,-5.337
0.221,0.051,0.304,-5.337
0.177,0.052,0.302,-5.337
0.206,0.050,0.304,-5.337
0.309,0.046,0.308,-5.337
0.343,0.046,0.307,-5.337
0.229,0.046,0.306,-5.337
0.201,0.050,0.303,-5.337
0.194,0.049,0.302,-5.337
0.174,0.046,0.304,-5.337
0.187,0.047,0.303,-5.337
0.188,0.046,0.307,-5.337
0.221,0.047,0.308,-5.337
0.225,0.050,0.307,-5.337
0.233,0.051,0.305,-5.337
0.212,0.053,0.305,-5.337
0.202,0.049,0.306,-5.337
0.245,0.050,0.308,-5.337
0.212,0.052,0.305,-5.337
0.177,0.051,0.304,-5.337
0.258,0.049,0.304,-5.337
0.280,0.054,0.304,-5.337
0.214,0.053,0.302,-5.337
0.244,0.051,0.301,-5.337
0.292,0.050,0.304,-5.337
0.263,0.050,0.309,-5.337
0.274,0.047,0.310,-5.337
0.243,0.050,0.308,-5.337
0.169,0.056,0.310,-5.337
0.083,0.053,0.311,-5.337
0.133,0.046,0.309,-5.337
0.154,0.051,0.307,-5.337
0.138,0.051,0.306,-5.337
0.164,0.050,0.309,-5.337
0.247,0.047,0.310,-5.337
0.275,0.047,0.308,-5.337
0.240,0.049,0.309,-5.337
0.176,0.049,0.304,-5.337
0.187,0.050,0.303,-5.337
0.242,0.051,0.302,-5.337
0.202,0.054,0.305,-5.337
0.161,0.051,0.305,-5.337
0.199,0.045,0.303,-5.337
0.160,0.042,0.304,-5.337
0.118,0.048,0.306,-5.337
0.138,0.045,0.308,-5.337
0.152,0.047,0.309,-5.337
0.155,0.045,0.310,-5.337
0.141,0.047,0.309,-5.337
0.165,0.048,0.308,-5.337
0.198,0.045,0.304,-5.337
0.208,0.044,0.304,-5.337
0.161,0.045,0.308,-5.337
0.124,0.040,0.310,-5.337
0.109,0.042,0.308,-5.337
0.153,0.041,0.305,-5.337
0.176,0.042,0.305,-5.337
0.170,0.044,0.308,-5.337
0.164,0.043,0.307,-5.337
0.111,0.042,0.302,-5.337
0.117,0.042,0.300,-5.337
0.163,0.043,0.301,-5.337
0.190,0.044,0.302,-5.337
0.245,0.042,0.307,-5.337
0.266,0.042,0.310,-5.337
0.203,0.048,0.309,-5.337
0.214,0.049,0.307,-5.337
0.233,0.046,0.304,-5.337
0.260,0.043,0.300,-5.337
0.225,0.044,0.303,-5.337
0.132,0.050,0.305,-5.337
0.128,0.050,0.305,-5.337
0.158,0.050,0.304,-5.337
0.164,0.051,0.304,-5.337
0.195,0.050,0.302,-5.337
0.232,0.049,0.303,-5.337
0.258,0.047,0.306,-5.337
0.249,0.045,0.302,-5.337
0.219,0.042,0.300,-5.337
0.226,0.042,0.299,-5.337
0.189,0.042,0.302,-5.337
0.162,0.042,0.303,-5.337
0.118,0.044,0.305,-5.337
0.181,0.042,0.307,-5.337
0.205,0.046,0.307,-5.337
0.190,0.048,0.304,-5.337
0.207,0.049,0.304,-5.337
0.255,0.048,0.305,-5.337
0.220,0.046,0.308,-5.337
0.232,0.043,0.307,-5.337
0.247,0.046,0.305,-5.337
0.224,0.045,0.302,-5.337
0.207,0.046,0.301,-5.337
0.194,0.045,0.302,-5.337
0.177,0.043,0.306,-5.337
0.114,0.042,0.307,-5.337
0.110,0.044,0.303,-5.337
0.163,0.046,0.303,-5.337
0.163,0.045,0.305,-5.337
0.116,0.041,0.305,-5.337
0.148,0.041,0.305,-5.337
0.207,0.040,0.305,-5.337
0.248,0.040,0.303,-5.337
0.215,0.040,0.305,-5.337
0.173,0.039,0.302,-5.337
0.250,0.035,0.300,-5.337
0.247,0.037,0.304,-5.337
0.157,0.042,0.305,-5.337
0.104,0.044,0.303,-5.337
0.148,0.043,0.304,-5.337
0.108,0.041,0.303,-5.337
0.093,0.039,0.304,-5.337
0.092,0.040,0.307,-5.337
0.173,0.040,0.305,-5.337
0.202,0.039,0.304,-5.337
0.172,0.042,0.306,-5.337
0.194,0.041,0.307,-5.337
0.228,0.039,0.307,-5.337
0.236,0.039,0.305,-5.337
0.181,0.040,0.307,-5.337
0.158,0.040,0.306,-5.337
0.158,0.042,0.304,-5.337
0.190,0.038,0.300,-5.337
0.241,0.042,0.299,-5.337
0.219,0.043,0.299,-5.337
0.130,0.040,0.302,-5.337
0.115,0.038,0.307,-5.337
0.232,0.036,0.303,-5.337
0.304,0.041,0.304,-5.337
0.235,0.042,0.305,-5.337
0.174,0.039,0.307,-5.337
0.175,0.037,0.311,-5.337
0.238,0.041,0.312,-5.337
0.243,0.042,0.309,-5.337
0.202,0.043,0.304,-5.337
0.190,0.038,0.300,-5.337
0.200,0.039,0.301,-5.337
0.224,0.039,0.305,-5.337
0.231,0.037,0.307,-5.337
0.243,0.034,0.306,-5.337
0.255,0.038,0.305,-5.337
0.234,0.039,0.307,-5.337
0.176,0.041,0.311,-5.337
0.097,0.043,0.308,-5.337
0.080,0.043,0.304,-5.337
0.125,0.043,0.306,-5.337
0.118,0.044,0.306,-5.337
0.120,0.042,0.309,-5.337
0.166,0.037,0.308,-5.337
0.172,0.039,0.304,-5.337
0.174,0.039,0.304,-5.337
0.200,0.038,0.306,-5.337
0.230,0.037,0.304,-5.337
0.253,0.037,0.301,-5.337
0.250,0.041,0.300,-5.337
0.160,0.042,0.302,-5.337
0.148,0.039,0.304,-5.337
0.217,0.036,0.303,-5.337
0.261,0.035,0.302,-5.337
0.186,0.043,0.303,-5.337
0.122,0.043,0.305,-5.337
0.161,0.039,0.305,-5.337
0.233,0.042,0.306,-5.337
0.256,0.041,0.305,-5.337
0.218,0.045,0.303,-5.337
0.197,0.042,0.305,-5.337
0.156,0.042,0.304,-5.337
0.199,0.040,0.302,-5.337
0.220,0.038,0.303,-5.337
0.259,0.037,0.307,-5.337
0.264,0.037,0.309,-5.337
0.282,0.034,0.304,-5.337
0.293,0.036,0.303,-5.337
0.299,0.039,0.306,-5.337
0.224,0.039,0.309,-5.337
0.156,0.039,0.307,-5.337
0.137,0.044,0.305,-5.337
0.195,0.042,0.296,-5.337
0.262,0.043,0.293,-5.337
0.291,0.042,0.298,-5.337
0.250,0.043,0.305,-5.337
0.210,0.042,0.308,-5.337
0.193,0.045,0.302,-5.337
0.175,0.049,0.301,-5.337
0.148,0.046,0.305,-5.337
0.219,0.044,0.308,-5.337
0.204,0.044,0.308,-5.337
0.189,0.045,0.305,-5.337
0.148,0.048,0.306,-5.337
0.129,0.048,0.304,-5.337
0.170,0.047,0.301,-5.337
0.195,0.046,0.303,-5.337
0.198,0.047,0.303,-5.337
0.226,0.047,0.303,-5.337
0.206,0.045,0.303,-5.337
0.280,0.047,0.307,-5.337
0.275,0.050,0.307,-5.337
0.212,0.048,0.307,-5.337
0.193,0.047,0.305,-5.337
0.190,0.049,0.304,-5.337
0.240,0.047,0.302,-5.337
0.226,0.049,0.304,-5.337
0.087,0.051,0.305,-5.337
0.102,0.049,0.302,-5.337
0.199,0.048,0.302,-5.337
0.239,0.047,0.301,-5.337
0.134,0.051,0.301,-5.337
0.042,0.054,0.304,-5.337
0.069,0.054,0.304,-5.337
0.155,0.054,0.306,-5.337
0.117,0.054,0.303,-5.337
0.110,0.052,0.299,-5.337
0.127,0.053,0.300,-5.337
0.111,0.056,0.305,-5.337
0.154,0.056,0.307,-5.337
0.194,0.055,0.306,-5.337
0.208,0.054,0.308,-5.337
0.214,0.053,0.309,-5.337
0.297,0.047,0.310,-5.337
0.309,0.050,0.307,-5.337
0.238,0.055,0.301,-5.337
0.213,0.058,0.297,-5.337
0.179,0.056,0.303,-5.337
0.187,0.050,0.305,-5.337
0.254,0.049,0.307,-5.337
0.266,0.047,0.308,-5.337
0.193,0.051,0.308,-5.337
0.149,0.051,0.307,-5.337
0.167,0.047,0.306,-5.337
0.185,0.046,0.305,-5.337
0.201,0.048,0.307,-5.337
0.204,0.049,0.308,-5.337
0.138,0.052,0.304,-5.337
0.108,0.053,0.303,-5.337
0.175,0.051,0.303,-5.337
0.188,0.052,0.303,-5.337
0.143,0.053,0.302,-5.337
0.176,0.052,0.302,-5.337
0.207,0.050,0.303,-5.337
0.181,0.049,0.304,-5.337
0.254,0.048,0.305,-5.337
0.334,0.051,0.311,-5.337
0.264,0.054,0.308,-5.337
0.171,0.053,0.305,-5.337
0.188,0.052,0.300,-5.337
0.226,0.050,0.300,-5.337
0.273,0.051,0.301,-5.337
0.237,0.053,0.304,-5.337
0.148,0.057,0.308,-5.337
0.148,0.054,0.310,-5.337
0.200,0.053,0.307,-5.337
0.165,0.057,0.304,-5.337
0.098,0.055,0.302,-5.337
0.144,0.053,0.305,-5.337
0.114,0.055,0.306,-5.337
0.062,0.055,0.306,-5.337
0.092,0.055,0.305,-5.337
0.104,0.054,0.307,-5.337
0.151,0.052,0.307,-5.337
0.197,0.052,0.303,-5.337
0.288,0.050,0.301,-5.337
0.288,0.055,0.302,-5.337
0.243,0.056,0.306,-5.337
0.249,0.053,0.306,-5.337
0.271,0.053,0.310,-5.337
0.275,0.053,0.311,-5.337
0.243,0.057,0.310,-5.337
0.216,0.059,0.305,-5.337
0.224,0.061,0.303,-5.337
0.280,0.058,0.305,-5.337
0.274,0.060,0.307,-5.337
0.220,0.058,0.307,-5.337
0.114,0.058,0.305,-5.337
0.093,0.057,0.301,-5.337
0.181,0.059,0.300,-5.337
0.267,0.060,0.301,-5.337
0.227,0.061,0.306,-5.337
0.163,0.058,0.306,-5.337
0.170,0.058,0.303,-5.337
0.092,0.061,0.305,-5.337
0.102,0.061,0.304,-5.337
0.200,0.056,0.301,-5.337
0.200,0.056,0.301,-5.337
0.154,0.060,0.309,-5.337
0.171,0.058,0.313,-5.337
0.216,0.056,0.316,-5.337
0.200,0.059,0.313,-5.337
0.174,0.061,0.311,-5.337
0.159,0.056,0.307,-5.337
0.210,0.052,0.306,-5.337
0.182,0.053,0.303,-5.337
0.169,0.054,0.301,-5.337
0.197,0.053,0.301,-5.337
0.183,0.058,0.305,-5.337
0.169,0.058,0.310,-5.337
0.179,0.060,0.311,-5.337
0.184,0.061,0.310,-5.337
0.150,0.059,0.305,-5.337
0.165,0.056,0.302,-5.337
0.227,0.055,0.302,-5.337
0.204,0.060,0.303,-5.337
0.179,0.057,0.306,-5.337
0.209,0.053,0.305,-5.337
0.228,0.055,0.305,-5.337
0.177,0.056,0.308,-5.337
0.099,0.057,0.306,-5.337
0.129,0.061,0.306,-5.337
0.152,0.060,0.305,-5.337
0.157,0.058,0.308,-5.337
0.232,0.055,0.306,-5.337
0.263,0.058,0.307,-5.337
0.230,0.056,0.309,-5.337
0.260,0.058,0.310,-5.337
0.280,0.061,0.308,-5.337
0.256,0.060,0.307,-5.337
0.186,0.058,0.306,-5.337
0.206,0.060,0.305,-5.337
0.263,0.059,0.306,-5.337
0.320,0.057,0.308,-5.337
0.269,0.059,0.308,-5.337
0.179,0.061,0.307,-5.337
0.205,0.060,0.304,-5.337
0.258,0.059,0.306,-5.337
0.216,0.061,0.311,-5.337
0.165,0.059,0.313,-5.337
0.212,0.060,0.309,-5.337
0.236,0.063,0.303,-5.337
0.188,0.064,0.304,-5.337
0.136,0.062,0.305,-5.337
0.192,0.060,0.306,-5.337
0.248,0.063,0.302,-5.337
0.214,0.064,0.299,-5.337
0.204,0.060,0.300,-5.337
0.192,0.061,0.302,-5.337
0.243,0.063,0.300,-5.337
0.262,0.061,0.301,-5.337
0.325,0.054,0.304,-5.337
0.354,0.055,0.307,-5.337
0.350,0.055,0.305,-5.337
0.274,0.056,0.306,-5.337
0.267,0.059,0.304,-5.337
0.256,0.061,0.301,-5.337
0.201,0.063,0.302,-5.337
0.129,0.064,0.303,-5.337
0.145,0.067,0.305,-5.337
0.176,0.067,0.305,-5.337
0.146,0.063,0.308,-5.337
0.104,0.063,0.311,-5.337
0.178,0.057,0.308,-5.337
0.299,0.056,0.306,-5.337
0.242,0.059,0.306,-5.337
0.240,0.062,0.304,-5.337
0.302,0.062,0.302,-5.337
0.221,0.064,0.301,-5.337
0.197,0.063,0.298,-5.337
0.266,0.062,0.298,-5.337
0.252,0.064,0.305,-5.337
0.208,0.061,0.307,-5.337
0.190,0.061,0.307,-5.337
0.180,0.059,0.305,-5.337
0.205,0.062,0.305,-5.337
0.201,0.064,0.306,-5.337
0.198,0.062,0.306,-5.337
0.191,0.061,0.306,-5.337
0.194,0.062,0.304,-5.337
0.209,0.064,0.301,-5.337
0.213,0.065,0.298,-5.337
0.184,0.065,0.299,-5.337
0.147,0.067,0.302,-5.337
0.128,0.066,0.307,-5.337
0.196,0.065,0.306,-5.337
0.231,0.064,0.305,-5.337
0.211,0.064,0.305,-5.337
0.135,0.063,0.305,-5.337
0.159,0.061,0.303,-5.337
0.221,0.061,0.304,-5.337
0.248,0.059,0.305,-5.337
0.219,0.061,0.310,-5.337
0.174,0.064,0.310,-5.337
0.196,0.063,0.308,-5.337
0.231,0.062,0.303,-5.337
0.186,0.063,0.304,-5.337
0.159,0.063,0.303,-5.337
0.170,0.065,0.305,-5.337
0.224,0.060,0.306,-5.337
0.290,0.060,0.304,-5.337
0.288,0.060,0.301,-5.337
0.273,0.061,0.304,-5.337
0.214,0.057,0.303,-5.337
0.184,0.062,0.305,-5.337
0.118,0.066,0.305,-5.337
0.172,0.062,0.303,-5.337
0.260,0.063,0.301,-5.337
0.255,0.063,0.302,-5.337
0.259,0.060,0.304,-5.337
0.376,0.056,0.304,-5.337
0.282,0.062,0.307,-5.337
0.164,0.063,0.306,-5.337
0.220,0.065,0.306,-5.337
0.276,0.065,0.307,-5.337
0.284,0.060,0.309,-5.337
0.306,0.062,0.307,-5.337
0.260,0.064,0.304,-5.337
0.154,0.070,0.305,-5.337
0.180,0.067,0.311,-5.337
0.282,0.061,0.312,-5.337
0.247,0.061,0.308,-5.337
0.152,0.062,0.308,-5.337
0.110,0.063,0.307,-5.337
0.167,0.061,0.304,-5.337
0.268,0.060,0.304,-5.337
0.238,0.061,0.300,-5.337
0.168,0.063,0.299,-5.337
0.124,0.063,0.302,-5.337
0.142,0.059,0.304,-5.337
0.183,0.054,0.304,-5.337
0.136,0.054,0.307,-5.337
0.102,0.053,0.309,-5.337
0.137,0.058,0.305,-5.337
0.187,0.058,0.305,-5.337
0.176,0.058,0.305,-5.337
0.144,0.060,0.305,-5.337
0.211,0.060,0.307,-5.337
0.284,0.057,0.308,-5.337
0.287,0.058,0.305,-5.337
0.204,0.061,0.305,-5.337
0.165,0.059,0.304,-5.337
0.191,0.058,0.306,-5.337
0.227,0.055,0.305,-5.337
0.236,0.059,0.302,-5.337
0.219,0.056,0.303,-5.337
0.274,0.052,0.305,-5.337
0.225,0.052,0.305,-5.337
0.175,0.050,0.307,-5.337
0.168,0.054,0.305,-5.337
0.120,0.056,0.303,-5.337
0.090,0.053,0.303,-5.337
0.144,0.051,0.301,-5.337
0.235,0.051,0.301,-5.337
0.256,0.051,0.302,-5.337
0.186,0.053,0.307,-5.337
0.134,0.052,0.307,-5.337
0.173,0.051,0.308,-5.337
0.208,0.048,0.307,-5.337
0.205,0.049,0.307,-5.337
0.233,0.047,0.304,-5.337
0.160,0.051,0.301,-5.337
0.169,0.047,0.300,-5.337
0.221,0.048,0.305,-5.337
0.217,0.049,0.307,-5.337
0.208,0.049,0.305,-5.337
0.223,0.049,0.305,-5.337
0.319,0.048,0.302,-5.337
0.377,0.051,0.301,-5.337
0.297,0.053,0.303,-5.337
0.221,0.052,0.304,-5.337
0.251,0.049,0.302,-5.337
0.339,0.047,0.300,-5.337
0.345,0.049,0.305,-5.337
0.230,0.052,0.306,-5.337
0.164,0.048,0.302,-5.337
0.207,0.045,0.304,-5.337
0.319,0.046,0.304,-5.337
0.300,0.051,0.304,-5.337
0.158,0.053,0.306,-5.337
0.216,0.052,0.309,-5.337
0.247,0.054,0.310,-5.337
0.225,0.052,0.310,-5.337
0.169,0.052,0.309,-5.337
0.260,0.051,0.306,-5.337
0.217,0.053,0.301,-5.337
0.151,0.054,0.303,-5.337
0.155,0.049,0.305,-5.337
0.231,0.048,0.304,-5.337
0.285,0.046,0.304,-5.337
0.203,0.053,0.302,-5.337
0.149,0.051,0.302,-5.337
0.169,0.050,0.305,-5.337
0.153,0.050,0.307,-5.337
0.157,0.048,0.307,-5.337
0.197,0.048,0.305,-5.337
0.205,0.048,0.304,-5.337
0.187,0.050,0.305,-5.337
0.127,0.050,0.305,-5.337
0.120,0.045,0.304,-5.337
0.240,0.047,0.305,-5.337
0.241,0.047,0.307,-5.337
0.213,0.045,0.310,-5.337
0.198,0.044,0.310,-5.337
0.175,0.046,0.307,-5.337
0.202,0.046,0.304,-5.337
0.243,0.044,0.301,-5.337
0.246,0.043,0.303,-5.337
0.228,0.044,0.303,-5.337
0.186,0.047,0.302,-5.337
0.253,0.048,0.301,-5.337
0.331,0.046,0.302,-5.337
0.241,0.049,0.303,-5.337
0.161,0.047,0.301,-5.337
0.249,0.040,0.301,-5.337
0.328,0.041,0.306,-5.337
0.290,0.048,0.309,-5.337
0.277,0.048,0.314,-5.337
0.269,0.046,0.313,-5.337
0.228,0.047,0.308,-5.337
0.153,0.052,0.302,-5.337
0.152,0.052,0.299,-5.337
0.242,0.046,0.300,-5.337
0.270,0.045,0.302,-5.337
0.207,0.049,0.301,-5.337
0.225,0.049,0.298,-5.337
0.154,0.053,0.299,-5.337
0.095,0.055,0.303,-5.337
0.163,0.052,0.308,-5.337
0.163,0.048,0.307,-5.337
0.235,0.051,0.306,-5.337
0.284,0.054,0.304,-5.337
0.247,0.060,0.306,-5.337
0.116,0.061,0.303,-5.337
0.056,0.058,0.302,-5.337
0.115,0.052,0.308,-5.337
0.171,0.050,0.310,-5.337
0.198,0.049,0.308,-5.337
0.238,0.050,0.311,-5.337
0.284,0.049,0.311,-5.337
0.284,0.049,0.309,-5.337
0.229,0.050,0.307,-5.337
0.253,0.051,0.303,-5.337
0.259,0.052,0.302,-5.337
0.205,0.051,0.302,-5.337
0.153,0.050,0.303,-5.337
0.225,0.047,0.305,-5.337
0.252,0.046,0.304,-5.337
0.210,0.042,0.304,-5.337
0.203,0.045,0.307,-5.337
0.165,0.046,0.309,-5.337
0.172,0.046,0.312,-5.337
0.144,0.046,0.312,-5.337
0.157,0.046,0.311,-5.337
0.196,0.048,0.310,-5.337
0.286,0.048,0.306,-5.337
0.288,0.047,0.300,-5.337
0.173,0.051,0.297,-5.337
0.180,0.048,0.301,-5.337
0.253,0.047,0.307,-5.337
0.169,0.051,0.311,-5.337
0.107,0.054,0.314,-5.337
0.076,0.056,0.312,-5.337
0.123,0.052,0.308,-5.337
0.095,0.051,0.308,-5.337
0.105,0.049,0.310,-5.337
0.173,0.047,0.312,-5.337
0.189,0.051,0.306,-5.337
0.162,0.050,0.303,-5.337
0.186,0.048,0.303,-5.337
0.201,0.048,0.305,-5.337
0.188,0.047,0.303,-5.337
0.186,0.048,0.304,-5.337
0.186,0.048,0.304,-5.337
0.222,0.049,0.301,-5.337
0.358,0.045,0.301,-5.337
0.424,0.045,0.308,-5.337
0.325,0.044,0.311,-5.337
0.192,0.044,0.311,-5.337
0.201,0.041,0.311,-5.337
0.310,0.040,0.311,-5.337
0.316,0.042,0.309,-5.337
0.275,0.046,0.307,-5.337
0.240,0.044,0.305,-5.337
0.281,0.044,0.306,-5.337
0.260,0.045,0.308,-5.337
0.236,0.045,0.309,-5.337
0.203,0.047,0.310,-5.337
0.142,0.049,0.311,-5.337
0.135,0.046,0.312,-5.337
0.074,0.046,0.312,-5.337
0.091,0.049,0.311,-5.337
0.215,0.043,0.305,-5.337
0.279,0.045,0.302,-5.337
0.167,0.049,0.302,-5.337
0.062,0.048,0.304,-5.337
0.108,0.045,0.304,-5.337
0.189,0.045,0.305,-5.337
0.214,0.047,0.310,-5.337
0.135,0.049,0.311,-5.337
0.096,0.050,0.306,-5.337
0.244,0.048,0.305,-5.337
0.355,0.044,0.304,-5.337
0.303,0.045,0.307,-5.337
0.188,0.049,0.309,-5.337
0.159,0.051,0.307,-5.337
0.232,0.047,0.304,-5.337
0.179,0.047,0.304,-5.337
0.117,0.048,0.305,-5.337
0.138,0.048,0.305,-5.337
0.157,0.044,0.305,-5.337
0.133,0.045,0.304,-5.337
0.214,0.043,0.306,-5.337
0.288,0.044,0.308,-5.337
0.281,0.043,0.309,-5.337
0.189,0.049,0.308,-5.337
0.076,0.050,0.311,-5.337
0.084,0.044,0.311,-5.337
0.113,0.045,0.307,-5.337
0.131,0.047,0.302,-5.337
0.153,0.045,0.303,-5.337
0.179,0.042,0.305,-5.337
0.216,0.042,0.309,-5.337
0.268,0.039,0.309,-5.337
0.246,0.042,0.312,-5.337
0.245,0.041,0.312,-5.337
0.289,0.039,0.309,-5.337
0.322,0.037,0.305,-5.337
0.260,0.042,0.302,-5.337
0.210,0.044,0.302,-5.337
0.211,0.042,0.303,-5.337
0.162,0.041,0.303,-5.337
0.170,0.041,0.307,-5.337
0.238,0.042,0.310,-5.337
0.239,0.042,0.309,-5.337
0.266,0.039,0.306,-5.337
0.187,0.039,0.304,-5.337
0.207,0.038,0.302,-5.337
0.214,0.039,0.303,-5.337
0.185,0.042,0.307,-5.337
0.214,0.041,0.305,-5.337
0.261,0.043,0.305,-5.337
0.263,0.041,0.306,-5.337
0.221,0.042,0.307,-5.337
0.231,0.040,0.306,-5.337
0.307,0.038,0.303,-5.337
0.254,0.041,0.301,-5.337
0.165,0.042,0.301,-5.337
0.140,0.040,0.301,-5.337
0.189,0.040,0.303,-5.337
0.144,0.040,0.307,-5.337
0.077,0.042,0.311,-5.337
0.185,0.038,0.309,-5.337
0.282,0.036,0.307,-5.337
0.237,0.040,0.303,-5.337
0.185,0.042,0.303,-5.337
0.154,0.045,0.303,-5.337
0.167,0.042,0.303,-5.337
0.249,0.041,0.303,-5.337
0.221,0.044,0.303,-5.337
0.143,0.042,0.304,-5.337
0.193,0.040,0.306,-5.337
0.249,0.040,0.307,-5.337
0.211,0.038,0.303,-5.337
0.242,0.034,0.302,-5.337
0.240,0.036,0.304,-5.337
0.256,0.034,0.306,-5.337
0.245,0.033,0.305,-5.337
0.155,0.040,0.304,-5.337
0.112,0.040,0.302,-5.337
0.128,0.040,0.304,-5.337
0.187,0.038,0.304,-5.337
0.217,0.042,0.305,-5.337
0.173,0.042,0.307,-5.337
0.175,0.042,0.309,-5.337
0.253,0.040,0.311,-5.337
0.276,0.039,0.307,-5.337
0.240,0.038,0.304,-5.337
0.256,0.040,0.305,-5.337
0.212,0.040,0.306,-5.337
0.155,0.041,0.305,-5.337
0.160,0.040,0.303,-5.337
0.125,0.041,0.303,-5.337
0.170,0.040,0.307,-5.337
0.256,0.040,0.310,-5.337
0.199,0.042,0.308,-5.337
0.172,0.042,0.305,-5.337
0.198,0.043,0.306,-5.337
0.229,0.038,0.304,-5.337
0.306,0.040,0.302,-5.337
0.281,0.043,0.299,-5.337
0.142,0.047,0.304,-5.337
0.135,0.047,0.309,-5.337
0.212,0.048,0.307,-5.337
0.218,0.044,0.305,-5.337
0.191,0.045,0.308,-5.337
0.159,0.049,0.308,-5.337
0.154,0.051,0.305,-5.337
0.229,0.046,0.303,-5.337
0.258,0.044,0.302,-5.337
0.211,0.045,0.305,-5.337
0.221,0.048,0.307,-5.337
0.220,0.050,0.306,-5.337
0.232,0.049,0.305,-5.337
0.190,0.048,0.306,-5.337
0.201,0.048,0.308,-5.337
0.207,0.049,0.310,-5.337
0.241,0.052,0.308,-5.337
0.227,0.052,0.308,-5.337
0.214,0.052,0.308,-5.337
0.196,0.054,0.307,-5.337
0.140,0.056,0.303,-5.337
0.136,0.053,0.300,-5.337
0.170,0.045,0.301,-5.337
0.221,0.048,0.302,-5.337
0.238,0.049,0.303,-5.337
0.208,0.051,0.305,-5.337
0.143,0.050,0.308,-5.337
0.112,0.051,0.309,-5.337
0.103,0.047,0.306,-5.337
0.092,0.045,0.305,-5.337
0.089,0.046,0.307,-5.337
0.129,0.044,0.307,-5.337
0.142,0.044,0.306,-5.337
0.138,0.042,0.304,-5.337
0.124,0.041,0.308,-5.337
0.133,0.043,0.308,-5.337
0.193,0.050,0.308,-5.337
0.223,0.050,0.307,-5.337
0.224,0.046,0.308,-5.337
0.209,0.045,0.305,-5.337
0.207,0.049,0.302,-5.337
0.194,0.051,0.301,-5.337
0.206,0.051,0.305,-5.337
0.229,0.048,0.307,-5.337
0.159,0.049,0.308,-5.337
0.159,0.048,0.308,-5.337
0.246,0.050,0.307,-5.337
0.216,0.051,0.304,-5.337
0.070,0.052,0.301,-5.337
0.130,0.047,0.304,-5.337
0.187,0.048,0.305,-5.337
0.087,0.051,0.305,-5.337
0.116,0.048,0.302,-5.337
0.254,0.046,0.303,-5.337
0.326,0.048,0.307,-5.337
0.270,0.050,0.309,-5.337
0.201,0.049,0.308,-5.337
0.169,0.050,0.309,-5.337
0.164,0.052,0.306,-5.337
0.158,0.050,0.305,-5.337
0.092,0.051,0.301,-5.337
0.063,0.052,0.303,-5.337
0.066,0.054,0.305,-5.337
0.116,0.056,0.305,-5.337
0.089,0.056,0.305,-5.337
0.043,0.054,0.310,-5.337
0.133,0.050,0.310,-5.337
0.277,0.048,0.304,-5.337
0.261,0.051,0.301,-5.337
0.218,0.052,0.302,-5.337
0.268,0.047,0.305,-5.337
0.319,0.047,0.306,-5.337
0.311,0.046,0.305,-5.337
0.226,0.050,0.307,-5.337
0.137,0.049,0.311,-5.337
0.138,0.049,0.312,-5.337
0.185,0.050,0.308,-5.337
0.163,0.051,0.303,-5.337
0.101,0.053,0.303,-5.337
0.176,0.050,0.304,-5.337
0.287,0.048,0.308,-5.337
0.287,0.054,0.308,-5.337
0.220,0.057,0.306,-5.337
0.215,0.057,0.304,-5.337
0.199,0.057,0.302,-5.337
0.175,0.056,0.300,-5.337
0.186,0.050,0.302,-5.337
0.140,0.053,0.302,-5.337
0.095,0.055,0.304,-5.337
0.127,0.050,0.306,-5.337
0.115,0.051,0.309,-5.337
0.107,0.054,0.311,-5.337
0.155,0.052,0.307,-5.337
0.261,0.045,0.304,-5.337
0.271,0.044,0.304,-5.337
0.230,0.047,0.306,-5.337
0.229,0.049,0.308,-5.337
0.252,0.050,0.306,-5.337
0.281,0.052,0.303,-5.337
0.243,0.051,0.304,-5.337
0.220,0.051,0.305,-5.337
0.203,0.052,0.309,-5.337
0.193,0.056,0.310,-5.337
0.192,0.061,0.308,-5.337
0.138,0.064,0.305,-5.337
0.098,0.060,0.308,-5.337
0.141,0.054,0.309,-5.337
0.137,0.058,0.312,-5.337
0.130,0.061,0.308,-5.337
0.149,0.061,0.302,-5.337
0.140,0.059,0.298,-5.337
0.151,0.059,0.302,-5.337
0.185,0.062,0.304,-5.337
0.228,0.060,0.305,-5.337
0.225,0.058,0.308,-5.337
0.129,0.063,0.310,-5.337
0.040,0.059,0.308,-5.337
0.145,0.056,0.301,-5.337
0.247,0.057,0.299,-5.337
0.309,0.057,0.301,-5.337
0.243,0.060,0.306,-5.337
0.202,0.059,0.309,-5.337
0.186,0.061,0.308,-5.337
0.134,0.061,0.304,-5.337
0.113,0.057,0.301,-5.337
0.146,0.055,0.305,-5.337
0.112,0.054,0.308,-5.337
0.100,0.055,0.305,-5.337
0.147,0.054,0.303,-5.337
0.180,0.055,0.302,-5.337
0.161,0.058,0.308,-5.337
0.104,0.058,0.308,-5.337
0.121,0.055,0.308,-5.337
0.225,0.055,0.304,-5.337
0.251,0.057,0.303,-5.337
0.208,0.058,0.306,-5.337
0.165,0.059,0.309,-5.337
0.172,0.062,0.309,-5.337
0.153,0.059,0.308,-5.337
0.185,0.056,0.307,-5.337
0.243,0.056,0.305,-5.337
0.248,0.056,0.302,-5.337
0.215,0.058,0.304,-5.337
0.194,0.059,0.308,-5.337
0.149,0.059,0.309,-5.337
0.140,0.059,0.308,-5.337
0.146,0.057,0.308,-5.337
0.159,0.059,0.310,-5.337
0.168,0.058,0.307,-5.337
0.203,0.059,0.305,-5.337
0.213,0.060,0.300,-5.337
0.174,0.058,0.305,-5.337
0.259,0.057,0.308,-5.337
0.363,0.058,0.310,-5.337
0.346,0.057,0.311,-5.337
0.268,0.060,0.307,-5.337
0.137,0.062,0.305,-5.337
0.076,0.064,0.305,-5.337
0.139,0.060,0.306,-5.337
0.209,0.061,0.307,-5.337
0.133,0.061,0.305,-5.337
0.143,0.060,0.308,-5.337
0.195,0.061,0.309,-5.337
0.181,0.062,0.309,-5.337
0.166,0.061,0.307,-5.337
0.193,0.062,0.306,-5.337
0.227,0.063,0.305,-5.337
0.179,0.062,0.305,-5.337
0.202,0.058,0.306,-5.337
0.318,0.051,0.309,-5.337
0.337,0.051,0.310,-5.337
0.227,0.057,0.309,-5.337
0.221,0.063,0.309,-5.337
0.213,0.061,0.308,-5.337
0.273,0.061,0.308,-5.337
0.231,0.063,0.307,-5.337
0.180,0.064,0.308,-5.337
0.140,0.065,0.306,-5.337
0.072,0.069,0.304,-5.337
0.105,0.065,0.306,-5.337
0.166,0.060,0.309,-5.337
0.167,0.062,0.311,-5.337
0.132,0.065,0.308,-5.337
0.146,0.066,0.307,-5.337
0.230,0.065,0.309,-5.337
0.211,0.070,0.310,-5.337
0.173,0.068,0.312,-5.337
0.091,0.065,0.310,-5.337
0.086,0.069,0.307,-5.337
0.131,0.067,0.303,-5.337
0.169,0.060,0.302,-5.337
0.150,0.062,0.305,-5.337
0.166,0.062,0.309,-5.337
0.197,0.061,0.311,-5.337
0.182,0.064,0.310,-5.337
0.149,0.064,0.308,-5.337
0.184,0.060,0.305,-5.337
0.233,0.061,0.307,-5.337
0.210,0.059,0.308,-5.337
0.220,0.058,0.306,-5.337
0.180,0.061,0.305,-5.337
0.198,0.062,0.304,-5.337
0.185,0.062,0.305,-5.337
0.224,0.059,0.306,-5.337
0.225,0.058,0.304,-5.337
0.252,0.056,0.303,-5.337
0.225,0.060,0.304,-5.337
0.226,0.061,0.305,-5.337
0.201,0.059,0.303,-5.337
0.151,0.059,0.298,-5.337
0.166,0.057,0.298,-5.337
0.182,0.059,0.305,-5.337
0.077,0.064,0.311,-5.337
0.067,0.062,0.312,-5.337
0.101,0.062,0.310,-5.337
0.211,0.059,0.306,-5.337
0.241,0.058,0.305,-5.337
0.223,0.058,0.304,-5.337
0.246,0.061,0.305,-5.337
0.252,0.062,0.304,-5.337
0.283,0.059,0.303,-5.337
0.267,0.059,0.302,-5.337
0.257,0.059,0.305,-5.337
0.217,0.061,0.309,-5.337
0.109,0.066,0.311,-5.337
0.011,0.066,0.309,-5.337
0.027,0.065,0.309,-5.337
0.171,0.063,0.308,-5.337
0.221,0.064,0.306,-5.337
0.184,0.061,0.305,-5.337
0.185,0.060,0.303,-5.337
0.154,0.061,0.303,-5.337
0.099,0.063,0.300,-5.337
0.084,0.062,0.301,-5.337
0.108,0.067,0.307,-5.337
0.229,0.062,0.306,-5.337
0.267,0.062,0.304,-5.337
0.232,0.058,0.304,-5.337
0.282,0.056,0.308,-5.337
0.259,0.060,0.309,-5.337
0.186,0.062,0.306,-5.337
0.176,0.061,0.307,-5.337
0.256,0.057,0.305,-5.337
0.315,0.056,0.305,-5.337
0.262,0.055,0.302,-5.337
0.189,0.060,0.301,-5.337
0.234,0.058,0.300,-5.337
0.279,0.060,0.304,-5.337
0.244,0.061,0.308,-5.337
0.213,0.058,0.308,-5.337
0.208,0.057,0.306,-5.337
0.204,0.057,0.307,-5.337
0.198,0.057,0.308,-5.337
0.243,0.056,0.305,-5.337
0.196,0.054,0.302,-5.337
0.165,0.056,0.303,-5.337
0.127,0.058,0.305,-5.337
0.056,0.060,0.309,-5.337
0.084,0.055,0.309,-5.337
0.215,0.054,0.308,-5.337
0.202,0.055,0.309,-5.337
0.174,0.054,0.309,-5.337
0.190,0.051,0.310,-5.337
0.153,0.052,0.305,-5.337
0.164,0.052,0.305,-5.337
0.263,0.052,0.309,-5.337
0.304,0.050,0.313,-5.337
0.282,0.052,0.309,-5.337
0.207,0.053,0.301,-5.337
0.144,0.050,0.296,-5.337
0.148,0.046,0.300,-5.337
0.178,0.047,0.304,-5.337
0.266,0.049,0.310,-5.337
0.259,0.052,0.311,-5.337
0.180,0.054,0.309,-5.337
0.096,0.054,0.306,-5.337
0.155,0.050,0.305,-5.337
0.257,0.044,0.305,-5.337
0.274,0.047,0.307,-5.337
0.254,0.048,0.309,-5.337
0.221,0.049,0.313,-5.337
0.194,0.053,0.312,-5.337
0.260,0.050,0.308,-5.337
0.262,0.048,0.306,-5.337
0.231,0.050,0.305,-5.337
0.149,0.050,0.307,-5.337
0.107,0.046,0.305,-5.337
0.156,0.047,0.304,-5.337
0.066,0.048,0.303,-5.337
0.068,0.047,0.305,-5.337
0.179,0.046,0.302,-5.337
0.165,0.048,0.303,-5.337
0.146,0.045,0.304,-5.337
0.198,0.046,0.307,-5.337
0.200,0.047,0.309,-5.337
0.089,0.054,0.311,-5.337
0.006,0.056,0.312,-5.337
0.071,0.053,0.313,-5.337
0.191,0.051,0.309,-5.337
0.194,0.051,0.305,-5.337
0.171,0.049,0.303,-5.337
0.161,0.046,0.304,-5.337
0.160,0.047,0.307,-5.337
0.234,0.046,0.307,-5.337
0.165,0.047,0.306,-5.337
0.139,0.047,0.306,-5.337
0.179,0.044,0.307,-5.337
0.119,0.047,0.304,-5.337
0.087,0.047,0.302,-5.337
0.257,0.039,0.306,-5.337
0.327,0.040,0.313,-5.337
0.267,0.039,0.310,-5.337
0.209,0.038,0.307,-5.337
0.194,0.042,0.304,-5.337
0.160,0.043,0.309,-5.337
0.138,0.042,0.312,-5.337
0.234,0.038,0.311,-5.337
0.280,0.040,0.309,-5.337
0.280,0.040,0.305,-5.337
0.285,0.041,0.303,-5.337
0.231,0.042,0.301,-5.337
0.177,0.042,0.301,-5.337
0.256,0.042,0.305,-5.337
0.300,0.043,0.309,-5.337
0.209,0.047,0.309,-5.337
0.134,0.046,0.307,-5.337
0.155,0.043,0.303,-5.337
0.180,0.044,0.303,-5.337
0.182,0.044,0.303,-5.337
0.168,0.043,0.306,-5.337
0.180,0.047,0.309,-5.337
0.154,0.044,0.309,-5.337
0.168,0.044,0.306,-5.337
0.178,0.045,0.307,-5.337
0.193,0.046,0.308,-5.337
0.228,0.045,0.311,-5.337
0.240,0.043,0.307,-5.337
0.197,0.043,0.306,-5.337
0.136,0.045,0.307,-5.337
0.151,0.047,0.307,-5.337
0.158,0.045,0.305,-5.337
0.182,0.043,0.304,-5.337
0.269,0.041,0.307,-5.337
0.301,0.040,0.310,-5.337
0.218,0.042,0.310,-5.337
0.160,0.040,0.308,-5.337
0.283,0.038,0.307,-5.337
0.289,0.039,0.309,-5.337
0.317,0.036,0.308,-5.337
0.304,0.037,0.303,-5.337
0.265,0.039,0.304,-5.337
0.217,0.045,0.304,-5.337
0.155,0.041,0.307,-5.337
0.116,0.040,0.309,-5.337
0.156,0.040,0.308,-5.337
0.175,0.040,0.304,-5.337
0.154,0.041,0.304,-5.337
0.148,0.041,0.304,-5.337
0.158,0.041,0.307,-5.337
0.177,0.042,0.306,-5.337
0.206,0.040,0.307,-5.337
0.208,0.039,0.307,-5.337
0.181,0.040,0.307,-5.337
0.152,0.046,0.308,-5.337
0.170,0.043,0.312,-5.337
0.213,0.039,0.310,-5.337
0.146,0.044,0.303,-5.337
0.085,0.043,0.299,-5.337
0.128,0.042,0.301,-5.337
0.141,0.041,0.305,-5.337
0.173,0.041,0.308,-5.337
0.182,0.041,0.307,-5.337
0.152,0.045,0.307,-5.337
0.165,0.041,0.309,-5.337
0.236,0.040,0.311,-5.337
0.274,0.044,0.311,-5.337
0.261,0.042,0.307,-5.337
0.208,0.043,0.302,-5.337
0.141,0.044,0.299,-5.337
0.186,0.043,0.305,-5.337
0.259,0.042,0.305,-5.337
0.178,0.042,0.307,-5.337
0.107,0.042,0.306,-5.337
0.130,0.043,0.307,-5.337
0.202,0.044,0.307,-5.337
0.195,0.046,0.309,-5.337
0.159,0.044,0.309,-5.337
0.233,0.044,0.307,-5.337
0.212,0.044,0.307,-5.337
0.133,0.044,0.309,-5.337
0.206,0.040,0.307,-5.337
0.287,0.039,0.307,-5.337
0.255,0.042,0.309,-5.337
0.195,0.040,0.309,-5.337
0.255,0.037,0.311,-5.337
0.376,0.038,0.310,-5.337
0.309,0.043,0.311,-5.337
0.170,0.042,0.310,-5.337
0.150,0.040,0.310,-5.337
0.142,0.042,0.310,-5.337
0.135,0.042,0.313,-5.337
0.138,0.045,0.314,-5.337
0.190,0.044,0.314,-5.337
0.250,0.042,0.309,-5.337
0.209,0.045,0.303,-5.337
0.182,0.044,0.300,-5.337
0.146,0.047,0.302,-5.337
0.162,0.042,0.305,-5.337
0.246,0.040,0.309,-5.337
0.223,0.041,0.312,-5.337
0.138,0.039,0.311,-5.337
0.209,0.039,0.311,-5.337
0.254,0.041,0.312,-5.337
0.178,0.042,0.314,-5.337
0.130,0.045,0.311,-5.337
0.170,0.045,0.307,-5.337
0.194,0.042,0.304,-5.337
0.170,0.037,0.303,-5.337
0.125,0.040,0.302,-5.337
0.080,0.042,0.303,-5.337
0.104,0.041,0.308,-5.337
0.200,0.040,0.314,-5.337
0.233,0.039,0.314,-5.337
0.212,0.038,0.308,-5.337
0.226,0.038,0.307,-5.337
0.212,0.039,0.315,-5.337
0.168,0.037,0.315,-5.337
0.118,0.039,0.311,-5.337
0.109,0.041,0.308,-5.337
0.122,0.040,0.308,-5.337
0.172,0.037,0.308,-5.337
0.234,0.038,0.309,-5.337
0.264,0.040,0.310,-5.337
0.229,0.040,0.311,-5.337
0.217,0.038,0.311,-5.337
0.278,0.039,0.312,-5.337
0.292,0.035,0.308,-5.337
0.277,0.038,0.309,-5.337
0.241,0.039,0.309,-5.337
0.253,0.038,0.309,-5.337
0.245,0.040,0.308,-5.337
0.159,0.038,0.306,-5.337
0.220,0.039,0.307,-5.337
0.208,0.041,0.310,-5.337
0.122,0.038,0.308,-5.337
0.158,0.036,0.305,-5.337
0.176,0.038,0.308,-5.337
0.124,0.039,0.309,-5.337
0.120,0.039,0.308,-5.337
0.225,0.034,0.308,-5.337
0.295,0.035,0.309,-5.337
0.324,0.034,0.310,-5.337
0.308,0.039,0.309,-5.337
0.208,0.041,0.310,-5.337
0.129,0.042,0.311,-5.337
0.140,0.040,0.309,-5.337
0.173,0.039,0.309,-5.337
0.205,0.035,0.308,-5.337
0.336,0.035,0.311,-5.337
0.378,0.037,0.309,-5.337
0.265,0.038,0.308,-5.337
0.228,0.037,0.310,-5.337
0.212,0.036,0.311,-5.337
0.155,0.039,0.311,-5.337
0.172,0.040,0.310,-5.337
0.230,0.036,0.307,-5.337
0.227,0.034,0.304,-5.337
0.176,0.033,0.306,-5.337
0.143,0.039,0.308,-5.337
0.157,0.041,0.312,-5.337
0.143,0.038,0.308,-5.337
0.125,0.042,0.307,-5.337
0.151,0.042,0.306,-5.337
0.173,0.040,0.308,-5.337
0.224,0.037,0.309,-5.337
0.233,0.035,0.309,-5.337
0.257,0.035,0.306,-5.337
0.253,0.036,0.305,-5.337
0.241,0.038,0.305,-5.337
0.198,0.040,0.303,-5.337
0.156,0.041,0.307,-5.337
0.151,0.042,0.312,-5.337
0.148,0.042,0.314,-5.337
0.144,0.043,0.313,-5.337
0.195,0.039,0.311,-5.337
0.201,0.038,0.309,-5.337
0.226,0.038,0.306,-5.337
0.268,0.035,0.304,-5.337
0.218,0.032,0.301,-5.337
0.153,0.034,0.299,-5.337
0.110,0.037,0.299,-5.337
0.078,0.036,0.300,-5.337
0.090,0.034,0.306,-5.337
0.053,0.033,0.307,-5.337
0.048,0.035,0.307,-5.337
0.123,0.038,0.305,-5.337
0.263,0.034,0.306,-5.337
0.317,0.033,0.303,-5.337
0.234,0.035,0.305,-5.337
0.206,0.036,0.307,-5.337
0.215,0.040,0.308,-5.337
0.216,0.037,0.308,-5.337
0.245,0.038,0.311,-5.337
0.218,0.040,0.309,-5.337
0.126,0.046,0.306,-5.337
0.088,0.044,0.304,-5.337
0.125,0.042,0.304,-5.337
0.135,0.044,0.305,-5.337
0.163,0.044,0.309,-5.337
0.166,0.044,0.311,-5.337
0.154,0.043,0.308,-5.337
0.109,0.043,0.304,-5.337
0.149,0.043,0.299,-5.337
0.190,0.045,0.299,-5.337
0.182,0.046,0.303,-5.337
0.198,0.045,0.308,-5.337
0.150,0.050,0.308,-5.337
0.171,0.051,0.309,-5.337
0.252,0.047,0.307,-5.337
0.234,0.048,0.303,-5.337
0.218,0.046,0.301,-5.337
0.294,0.043,0.305,-5.337
0.323,0.041,0.305,-5.337
0.313,0.045,0.305,-5.337
0.235,0.048,0.306,-5.337
0.175,0.048,0.309,-5.337
0.085,0.046,0.312,-5.337
0.070,0.049,0.311,-5.337
0.149,0.047,0.310,-5.337
0.198,0.048,0.310,-5.337
0.107,0.048,0.307,-5.337
0.111,0.040,0.306,-5.337
0.175,0.039,0.303,-5.337
0.303,0.039,0.304,-5.337
0.330,0.038,0.307,-5.337
0.303,0.039,0.312,-5.337
0.289,0.041,0.314,-5.337
0.248,0.042,0.311,-5.337
0.228,0.046,0.308,-5.337
0.167,0.049,0.305,-5.337
0.181,0.046,0.307,-5.337
0.170,0.047,0.306,-5.337
0.143,0.047,0.303,-5.337
0.175,0.046,0.304,-5.337
0.291,0.044,0.304,-5.337
0.256,0.045,0.303,-5.337
0.221,0.046,0.305,-5.337
0.181,0.049,0.308,-5.337
0.141,0.055,0.309,-5.337
0.201,0.053,0.310,-5.337
0.292,0.049,0.311,-5.337
0.258,0.051,0.309,-5.337
0.190,0.054,0.309,-5.337
0.155,0.056,0.307,-5.337
0.145,0.055,0.303,-5.337
0.128,0.056,0.302,-5.337
0.146,0.056,0.305,-5.337
0.228,0.054,0.308,-5.337
0.258,0.053,0.309,-5.337
0.270,0.054,0.311,-5.337
0.249,0.054,0.311,-5.337
0.172,0.054,0.307,-5.337
0.069,0.054,0.304,-5.337
0.089,0.052,0.304,-5.337
0.159,0.049,0.308,-5.337
0.244,0.049,0.312,-5.337
0.227,0.052,0.311,-5.337
0.191,0.054,0.308,-5.337
0.188,0.049,0.307,-5.337
0.184,0.053,0.308,-5.337
0.163,0.054,0.309,-5.337
0.157,0.054,0.311,-5.337
0.164,0.054,0.307,-5.337
0.198,0.053,0.307,-5.337
0.128,0.058,0.309,-5.337
0.111,0.060,0.307,-5.337
0.176,0.057,0.302,-5.337
0.201,0.052,0.303,-5.337
0.216,0.054,0.308,-5.337
0.180,0.058,0.311,-5.337
0.203,0.060,0.311,-5.337
0.213,0.058,0.306,-5.337
0.177,0.060,0.307,-5.337
0.158,0.059,0.306,-5.337
0.216,0.057,0.305,-5.337
0.234,0.058,0.301,-5.337
0.228,0.062,0.299,-5.337
0.271,0.057,0.299,-5.337
0.268,0.059,0.300,-5.337
0.218,0.061,0.304,-5.337
0.193,0.062,0.304,-5.337
0.129,0.065,0.304,-5.337
0.101,0.066,0.308,-5.337
0.150,0.066,0.311,-5.337
0.208,0.061,0.310,-5.337
0.223,0.060,0.306,-5.337
0.211,0.063,0.305,-5.337
0.254,0.065,0.305,-5.337
0.302,0.067,0.309,-5.337
0.213,0.067,0.306,-5.337
0.090,0.065,0.303,-5.337
0.139,0.061,0.302,-5.337
0.170,0.062,0.301,-5.337
0.227,0.058,0.306,-5.337
0.279,0.059,0.309,-5.337
0.238,0.060,0.308,-5.337
0.189,0.060,0.304,-5.337
0.203,0.059,0.305,-5.337
0.229,0.061,0.305,-5.337
0.159,0.063,0.305,-5.337
0.161,0.061,0.303,-5.337
0.171,0.063,0.301,-5.337
0.212,0.061,0.304,-5.337
0.198,0.065,0.309,-5.337
0.142,0.067,0.311,-5.337
0.181,0.063,0.308,-5.337
0.238,0.063,0.307,-5.337
0.226,0.067,0.304,-5.337
0.196,0.066,0.306,-5.337
0.199,0.064,0.309,-5.337
0.191,0.061,0.307,-5.337
0.176,0.058,0.306,-5.337
0.149,0.066,0.304,-5.337
0.130,0.066,0.302,-5.337
0.085,0.063,0.304,-5.337
0.143,0.063,0.306,-5.337
0.061,0.067,0.311,-5.337
0.028,0.063,0.311,-5.337
0.115,0.062,0.305,-5.337
0.141,0.066,0.300,-5.337
0.140,0.067,0.302,-5.337
0.156,0.066,0.305,-5.337
0.204,0.068,0.307,-5.337
0.170,0.070,0.305,-5.337
0.139,0.073,0.302,-5.337
0.129,0.069,0.303,-5.337
0.158,0.065,0.305,-5.337
0.232,0.066,0.305,-5.337
0.184,0.070,0.304,-5.337
0.161,0.071,0.308,-5.337
0.189,0.068,0.313,-5.337
0.225,0.065,0.311,-5.337
0.230,0.069,0.308,-5.337
0.286,0.069,0.303,-5.337
0.228,0.069,0.303,-5.337
0.160,0.066,0.305,-5.337
0.226,0.064,0.305,-5.337
0.230,0.067,0.308,-5.337
0.135,0.067,0.307,-5.337
0.114,0.066,0.306,-5.337
0.104,0.064,0.303,-5.337
0.132,0.066,0.300,-5.337
0.163,0.062,0.296,-5.337
0.171,0.066,0.300,-5.337
0.190,0.067,0.303,-5.337
0.203,0.067,0.308,-5.337
0.190,0.064,0.309,-5.337
0.194,0.066,0.310,-5.337
0.164,0.066,0.306,-5.337
0.116,0.069,0.302,-5.337
0.146,0.068,0.303,-5.337
0.167,0.068,0.309,-5.337
0.170,0.067,0.310,-5.337
0.261,0.065,0.313,-5.337
0.289,0.065,0.315,-5.337
0.217,0.067,0.311,-5.337
0.140,0.066,0.309,-5.337
0.218,0.064,0.304,-5.337
0.277,0.066,0.302,-5.337
0.195,0.067,0.306,-5.337
0.230,0.066,0.310,-5.337
0.317,0.067,0.309,-5.337
0.210,0.071,0.309,-5.337
0.149,0.074,0.309,-5.337
0.196,0.072,0.307,-5.337
0.226,0.072,0.303,-5.337
0.192,0.073,0.302,-5.337
0.167,0.069,0.304,-5.337
0.132,0.068,0.305,-5.337
0.156,0.065,0.309,-5.337
0.188,0.070,0.315,-5.337
0.189,0.071,0.316,-5.337
0.225,0.066,0.311,-5.337
0.240,0.066,0.308,-5.337
0.214,0.072,0.309,-5.337
0.186,0.072,0.308,-5.337
0.256,0.066,0.308,-5.337
0.262,0.065,0.308,-5.337
0.226,0.064,0.305,-5.337
0.184,0.068,0.303,-5.337
0.173,0.068,0.303,-5.337
0.224,0.063,0.308,-5.337
0.231,0.063,0.313,-5.337
0.151,0.068,0.310,-5.337
0.170,0.069,0.305,-5.337
0.168,0.069,0.307,-5.337
0.110,0.073,0.309,-5.337
0.113,0.071,0.310,-5.337
0.163,0.066,0.306,-5.337
0.246,0.064,0.309,-5.337
0.249,0.066,0.312,-5.337
0.238,0.067,0.314,-5.337
0.200,0.064,0.309,-5.337
0.202,0.065,0.304,-5.337
0.145,0.068,0.303,-5.337
0.128,0.068,0.303,-5.337
0.111,0.068,0.305,-5.337
0.096,0.070,0.305,-5.337
0.111,0.070,0.307,-5.337
0.135,0.068,0.312,-5.337
0.107,0.067,0.313,-5.337
0.128,0.068,0.310,-5.337
0.125,0.070,0.308,-5.337
0.161,0.068,0.307,-5.337
0.267,0.064,0.308,-5.337
0.296,0.063,0.310,-5.337
0.224,0.062,0.313,-5.337
0.200,0.060,0.311,-5.337
0.244,0.062,0.309,-5.337
0.218,0.066,0.304,-5.337
0.181,0.068,0.308,-5.337
0.211,0.064,0.315,-5.337
0.261,0.062,0.314,-5.337
0.286,0.062,0.309,-5.337
0.201,0.066,0.305,-5.337
0.161,0.066,0.304,-5.337
0.232,0.061,0.309,-5.337
0.212,0.062,0.313,-5.337
0.214,0.063,0.312,-5.337
0.208,0.062,0.310,-5.337
0.129,0.065,0.313,-5.337
0.156,0.063,0.310,-5.337
0.177,0.064,0.308,-5.337
0.229,0.062,0.306,-5.337
0.210,0.065,0.306,-5.337
0.181,0.065,0.308,-5.337
0.184,0.060,0.306,-5.337
0.215,0.061,0.304,-5.337
0.167,0.066,0.301,-5.337
0.132,0.069,0.304,-5.337
0.163,0.063,0.304,-5.337
0.260,0.059,0.305,-5.337
0.269,0.062,0.304,-5.337
0.227,0.065,0.304,-5.337
0.192,0.065,0.305,-5.337
0.202,0.063,0.305,-5.337
0.218,0.061,0.310,-5.337
0.261,0.061,0.315,-5.337
0.212,0.060,0.313,-5.337
0.180,0.057,0.309,-5.337
0.194,0.057,0.305,-5.337
0.188,0.057,0.303,-5.337
0.188,0.056,0.306,-5.337
0.192,0.056,0.310,-5.337
0.203,0.057,0.309,-5.337
0.164,0.061,0.306,-5.337
0.135,0.059,0.305,-5.337
0.212,0.056,0.304,-5.337
0.240,0.054,0.304,-5.337
0.265,0.056,0.302,-5.337
0.247,0.055,0.304,-5.337
0.232,0.055,0.308,-5.337
0.220,0.055,0.310,-5.337
0.216,0.057,0.308,-5.337
0.209,0.057,0.306,-5.337
0.255,0.057,0.303,-5.337
0.237,0.058,0.303,-5.337
0.206,0.058,0.303,-5.337
0.162,0.060,0.306,-5.337
0.161,0.059,0.307,-5.337
0.211,0.059,0.311,-5.337
0.220,0.060,0.311,-5.337
0.138,0.062,0.307,-5.337
0.097,0.065,0.302,-5.337
0.114,0.064,0.302,-5.337
0.103,0.062,0.305,-5.337
0.135,0.061,0.308,-5.337
0.126,0.062,0.306,-5.337
0.196,0.058,0.304,-5.337
0.255,0.058,0.307,-5.337
0.232,0.058,0.312,-5.337
0.167,0.058,0.312,-5.337
0.129,0.059,0.310,-5.337
0.204,0.060,0.308,-5.337
0.232,0.058,0.305,-5.337
0.300,0.058,0.304,-5.337
0.368,0.055,0.301,-5.337
0.375,0.056,0.305,-5.337
0.273,0.058,0.305,-5.337
0.239,0.057,0.306,-5.337
0.220,0.056,0.309,-5.337
0.139,0.060,0.309,-5.337
0.089,0.057,0.308,-5.337
0.186,0.051,0.305,-5.337
0.280,0.053,0.303,-5.337
0.271,0.056,0.305,-5.337
0.262,0.050,0.310,-5.337
0.309,0.052,0.311,-5.337
0.266,0.055,0.306,-5.337
0.225,0.054,0.303,-5.337
0.250,0.048,0.301,-5.337
0.287,0.047,0.304,-5.337
0.255,0.049,0.304,-5.337
0.228,0.051,0.304,-5.337
0.281,0.052,0.306,-5.337
0.226,0.052,0.305,-5.337
0.174,0.050,0.307,-5.337
0.201,0.051,0.304,-5.337
0.217,0.051,0.305,-5.337
0.212,0.051,0.304,-5.337
0.199,0.052,0.306,-5.337
0.145,0.054,0.309,-5.337
0.139,0.054,0.312,-5.337
0.177,0.057,0.310,-5.337
0.178,0.057,0.305,-5.337
0.115,0.053,0.301,-5.337
0.093,0.050,0.297,-5.337
0.168,0.050,0.301,-5.337
0.268,0.054,0.307,-5.337
0.246,0.058,0.310,-5.337
0.232,0.052,0.312,-5.337
0.214,0.051,0.311,-5.337
0.183,0.050,0.309,-5.337
0.137,0.052,0.312,-5.337
0.098,0.053,0.313,-5.337
0.081,0.053,0.309,-5.337
0.177,0.051,0.308,-5.337
0.273,0.050,0.308,-5.337
0.257,0.049,0.306,-5.337
0.227,0.049,0.311,-5.337
0.198,0.051,0.310,-5.337
0.136,0.054,0.309,-5.337
0.211,0.051,0.304,-5.337
0.254,0.048,0.304,-5.337
0.220,0.050,0.304,-5.337
0.194,0.054,0.306,-5.337
0.130,0.052,0.311,-5.337
0.112,0.051,0.314,-5.337
0.157,0.048,0.309,-5.337
0.176,0.051,0.303,-5.337
0.215,0.053,0.303,-5.337
0.201,0.053,0.305,-5.337
0.119,0.055,0.305,-5.337
0.126,0.054,0.309,-5.337
0.158,0.049,0.312,-5.337
0.149,0.049,0.310,-5.337
0.184,0.046,0.305,-5.337
0.225,0.048,0.304,-5.337
0.151,0.050,0.306,-5.337
0.129,0.050,0.305,-5.337
0.197,0.051,0.307,-5.337
0.184,0.051,0.306,-5.337
0.186,0.053,0.307,-5.337
0.203,0.054,0.308,-5.337
0.224,0.056,0.311,-5.337
0.256,0.052,0.310,-5.337
0.291,0.050,0.306,-5.337
0.205,0.049,0.301,-5.337
0.211,0.052,0.302,-5.337
0.220,0.052,0.302,-5.337
0.217,0.049,0.302,-5.337
0.125,0.049,0.306,-5.337
0.169,0.046,0.308,-5.337
0.213,0.053,0.305,-5.337
0.215,0.051,0.308,-5.337
0.250,0.046,0.312,-5.337
0.215,0.048,0.311,-5.337
0.136,0.049,0.307,-5.337
0.162,0.045,0.307,-5.337
0.214,0.046,0.309,-5.337
0.165,0.049,0.306,-5.337
0.152,0.047,0.305,-5.337
0.231,0.045,0.308,-5.337
0.285,0.040,0.311,-5.337
0.284,0.038,0.311,-5.337
0.304,0.040,0.305,-5.337
0.294,0.041,0.300,-5.337
0.198,0.046,0.301,-5.337
0.190,0.044,0.300,-5.337
0.257,0.043,0.302,-5.337
0.289,0.043,0.304,-5.337
0.283,0.045,0.306,-5.337
0.292,0.043,0.307,-5.337
0.236,0.045,0.308,-5.337
0.242,0.045,0.306,-5.337
0.275,0.046,0.304,-5.337
0.294,0.044,0.308,-5.337
0.274,0.045,0.315,-5.337
0.206,0.048,0.317,-5.337
0.200,0.049,0.313,-5.337
0.201,0.048,0.309,-5.337
0.122,0.047,0.308,-5.337
0.080,0.043,0.308,-5.337
0.139,0.042,0.308,-5.337
0.215,0.044,0.309,-5.337
0.170,0.044,0.308,-5.337
0.141,0.042,0.307,-5.337
0.216,0.041,0.301,-5.337
0.219,0.041,0.297,-5.337
0.164,0.043,0.297,-5.337
0.112,0.045,0.300,-5.337
0.145,0.046,0.300,-5.337
0.208,0.046,0.309,-5.337
0.297,0.043,0.314,-5.337
0.238,0.046,0.312,-5.337
0.196,0.046,0.307,-5.337
0.186,0.045,0.304,-5.337
0.171,0.045,0.308,-5.337
0.198,0.044,0.309,-5.337
0.147,0.047,0.303,-5.337
0.100,0.050,0.304,-5.337
0.129,0.050,0.305,-5.337
0.160,0.051,0.311,-5.337
0.183,0.051,0.310,-5.337
0.176,0.051,0.309,-5.337
0.226,0.047,0.312,-5.337
0.236,0.047,0.310,-5.337
0.211,0.046,0.309,-5.337
0.210,0.047,0.307,-5.337
0.168,0.049,0.305,-5.337
0.208,0.046,0.301,-5.337
0.226,0.047,0.300,-5.337
0.141,0.046,0.301,-5.337
0.105,0.045,0.306,-5.337
0.118,0.045,0.311,-5.337
0.179,0.044,0.315,-5.337
0.269,0.041,0.313,-5.337
0.279,0.040,0.309,-5.337
0.237,0.039,0.303,-5.337
0.219,0.044,0.306,-5.337
0.163,0.045,0.308,-5.337
0.181,0.041,0.311,-5.337
0.214,0.041,0.315,-5.337
0.195,0.040,0.313,-5.337
0.213,0.042,0.307,-5.337
0.264,0.043,0.305,-5.337
0.274,0.043,0.305,-5.337
0.245,0.045,0.301,-5.337
0.198,0.046,0.303,-5.337
0.219,0.045,0.303,-5.337
0.262,0.043,0.303,-5.337
0.237,0.049,0.305,-5.337
0.198,0.050,0.309,-5.337
0.255,0.048,0.310,-5.337
0.283,0.047,0.309,-5.337
0.232,0.048,0.306,-5.337
0.167,0.047,0.304,-5.337
0.217,0.046,0.306,-5.337
0.215,0.049,0.311,-5.337
0.146,0.047,0.311,-5.337
0.158,0.046,0.309,-5.337
0.223,0.043,0.309,-5.337
0.293,0.042,0.312,-5.337
0.252,0.042,0.315,-5.337
0.160,0.045,0.311,-5.337
0.199,0.047,0.307,-5.337
0.165,0.050,0.307,-5.337
0.180,0.047,0.307,-5.337
0.221,0.046,0.308,-5.337
0.247,0.042,0.312,-5.337
0.247,0.045,0.311,-5.337
0.212,0.046,0.306,-5.337
0.159,0.046,0.305,-5.337
0.188,0.046,0.309,-5.337
0.261,0.045,0.311,-5.337
0.282,0.043,0.310,-5.337
0.313,0.039,0.307,-5.337
0.248,0.041,0.308,-5.337
0.201,0.043,0.301,-5.337
0.230,0.042,0.302,-5.337
0.296,0.040,0.306,-5.337
0.277,0.038,0.309,-5.337
0.197,0.035,0.307,-5.337
0.207,0.039,0.305,-5.337
0.213,0.042,0.311,-5.337
0.175,0.042,0.315,-5.337
0.081,0.043,0.313,-5.337
0.062,0.044,0.310,-5.337
0.116,0.041,0.308,-5.337
0.217,0.039,0.310,-5.337
0.258,0.039,0.312,-5.337
0.184,0.042,0.309,-5.337
0.147,0.039,0.307,-5.337
0.226,0.035,0.310,-5.337
0.277,0.035,0.311,-5.337
0.207,0.042,0.310,-5.337
0.168,0.048,0.307,-5.337
0.137,0.046,0.306,-5.337
0.110,0.043,0.308,-5.337
0.115,0.040,0.306,-5.337
0.082,0.045,0.305,-5.337
0.089,0.046,0.305,-5.337
0.195,0.045,0.311,-5.337
0.156,0.045,0.311,-5.337
0.173,0.044,0.311,-5.337
0.214,0.044,0.310,-5.337
0.206,0.044,0.310,-5.337
0.223,0.041,0.309,-5.337
0.259,0.040,0.310,-5.337
0.282,0.040,0.309,-5.337
0.207,0.043,0.308,-5.337
0.139,0.043,0.305,-5.337
0.154,0.042,0.305,-5.337
0.154,0.042,0.307,-5.337
0.139,0.045,0.308,-5.337
0.166,0.045,0.308,-5.337
0.172,0.045,0.309,-5.337
0.209,0.043,0.307,-5.337
0.222,0.043,0.307,-5.337
0.235,0.043,0.307,-5.337
0.259,0.047,0.310,-5.337
0.219,0.047,0.310,-5.337
0.135,0.048,0.305,-5.337
0.106,0.048,0.305,-5.337
0.147,0.045,0.309,-5.337
0.101,0.049,0.311,-5.337
0.149,0.047,0.307,-5.337
0.269,0.048,0.308,-5.337
0.281,0.049,0.308,-5.337
0.223,0.050,0.305,-5.337
0.183,0.048,0.304,-5.337
0.227,0.049,0.304,-5.337
0.245,0.049,0.308,-5.337
0.151,0.051,0.309,-5.337
0.117,0.044,0.309,-5.337
0.171,0.043,0.305,-5.337
0.230,0.042,0.305,-5.337
0.278,0.043,0.306,-5.337
0.240,0.041,0.306,-5.337
0.203,0.040,0.306,-5.337
0.204,0.046,0.305,-5.337
0.199,0.046,0.306,-5.337
0.194,0.047,0.306,-5.337
0.183,0.047,0.305,-5.337
0.231,0.044,0.305,-5.337
0.247,0.045,0.308,-5.337
0.186,0.049,0.312,-5.337
0.138,0.051,0.311,-5.337
0.156,0.048,0.307,-5.337
0.145,0.049,0.303,-5.337
0.218,0.045,0.301,-5.337
0.267,0.044,0.303,-5.337
0.226,0.047,0.307,-5.337
0.266,0.044,0.306,-5.337
0.299,0.045,0.307,-5.337
0.371,0.044,0.307,-5.337
0.371,0.047,0.312,-5.337
0.237,0.050,0.309,-5.337
0.211,0.049,0.301,-5.337
0.230,0.049,0.303,-5.337
0.220,0.051,0.309,-5.337
0.200,0.052,0.311,-5.337
0.144,0.051,0.308,-5.337
0.147,0.052,0.305,-5.337
0.120,0.050,0.306,-5.337
0.138,0.050,0.309,-5.337
0.121,0.053,0.306,-5.337
0.085,0.051,0.304,-5.337
0.108,0.049,0.304,-5.337
0.185,0.046,0.306,-5.337
0.153,0.048,0.308,-5.337
0.148,0.052,0.310,-5.337
0.140,0.051,0.310,-5.337
0.202,0.053,0.310,-5.337
0.133,0.052,0.307,-5.337
0.175,0.054,0.304,-5.337
0.259,0.052,0.302,-5.337
0.311,0.049,0.303,-5.337
0.253,0.053,0.307,-5.337
0.151,0.058,0.308,-5.337
0.150,0.056,0.307,-5.337
0.232,0.054,0.312,-5.337
0.241,0.051,0.315,-5.337
0.226,0.050,0.313,-5.337
0.164,0.050,0.308,-5.337
0.188,0.054,0.302,-5.337
0.153,0.054,0.296,-5.337
0.120,0.052,0.298,-5.337
0.129,0.051,0.306,-5.337
0.138,0.051,0.311,-5.337
0.099,0.053,0.312,-5.337
0.093,0.056,0.309,-5.337
0.202,0.052,0.305,-5.337
0.267,0.050,0.301,-5.337
0.213,0.050,0.302,-5.337
0.217,0.053,0.302,-5.337
0.199,0.057,0.303,-5.337
0.116,0.057,0.304,-5.337
0.124,0.057,0.305,-5.337
0.176,0.052,0.305,-5.337
0.163,0.053,0.306,-5.337
0.128,0.054,0.307,-5.337
0.181,0.057,0.310,-5.337
0.233,0.057,0.309,-5.337
0.231,0.058,0.306,-5.337
0.278,0.056,0.307,-5.337
0.255,0.055,0.311,-5.337
0.172,0.057,0.309,-5.337
0.198,0.055,0.306,-5.337
0.248,0.056,0.306,-5.337
0.180,0.060,0.308,-5.337
0.192,0.058,0.308,-5.337
0.195,0.057,0.302,-5.337
0.149,0.056,0.302,-5.337
0.217,0.056,0.303,-5.337
0.248,0.058,0.307,-5.337
0.193,0.056,0.311,-5.337
0.204,0.057,0.310,-5.337
0.166,0.061,0.310,-5.337
0.086,0.062,0.307,-5.337
0.157,0.058,0.306,-5.337
0.287,0.057,0.308,-5.337
0.275,0.057,0.310,-5.337
0.263,0.055,0.308,-5.337
0.314,0.051,0.305,-5.337
0.284,0.052,0.305,-5.337
0.192,0.052,0.303,-5.337
0.129,0.055,0.305,-5.337
0.120,0.055,0.310,-5.337
0.184,0.054,0.309,-5.337
0.155,0.056,0.306,-5.337
0.107,0.062,0.304,-5.337
0.083,0.061,0.310,-5.337
0.136,0.057,0.310,-5.337
0.111,0.062,0.311,-5.337
0.130,0.063,0.308,-5.337
0.195,0.062,0.308,-5.337
0.188,0.058,0.304,-5.337
0.207,0.057,0.304,-5.337
0.141,0.060,0.305,-5.337
0.126,0.062,0.307,-5.337
0.162,0.057,0.306,-5.337
0.232,0.058,0.306,-5.337
0.248,0.057,0.307,-5.337
0.152,0.059,0.307,-5.337
0.153,0.055,0.308,-5.337
0.229,0.059,0.310,-5.337
0.220,0.060,0.310,-5.337
0.222,0.059,0.309,-5.337
0.223,0.060,0.306,-5.337
0.165,0.061,0.307,-5.337
0.175,0.060,0.307,-5.337
0.136,0.060,0.304,-5.337
0.105,0.062,0.300,-5.337
0.120,0.063,0.304,-5.337
0.170,0.060,0.310,-5.337
0.230,0.061,0.307,-5.337
0.266,0.062,0.305,-5.337
0.301,0.058,0.304,-5.337
0.234,0.062,0.304,-5.337
0.176,0.062,0.304,-5.337
0.139,0.062,0.308,-5.337
0.153,0.062,0.306,-5.337
0.203,0.061,0.305,-5.337
0.233,0.057,0.306,-5.337
0.195,0.060,0.306,-5.337
0.142,0.058,0.305,-5.337
0.188,0.060,0.304,-5.337
0.208,0.062,0.307,-5.337
0.188,0.063,0.310,-5.337
0.168,0.057,0.308,-5.337
0.198,0.057,0.306,-5.337
0.169,0.061,0.303,-5.337
0.182,0.063,0.302,-5.337
0.238,0.060,0.304,-5.337
0.234,0.062,0.309,-5.337
0.169,0.064,0.308,-5.337
0.223,0.067,0.302,-5.337
0.290,0.063,0.300,-5.337
0.254,0.062,0.302,-5.337
0.197,0.064,0.308,-5.337
0.161,0.061,0.308,-5.337
0.169,0.060,0.308,-5.337
0.220,0.062,0.308,-5.337
0.212,0.066,0.308,-5.337
0.163,0.065,0.305,-5.337
0.153,0.063,0.305,-5.337
0.139,0.062,0.306,-5.337
0.149,0.062,0.308,-5.337
0.189,0.060,0.308,-5.337
0.182,0.061,0.305,-5.337
0.074,0.062,0.306,-5.337
0.134,0.059,0.306,-5.337
0.303,0.055,0.303,-5.337
0.331,0.062,0.304,-5.337
0.178,0.067,0.307,-5.337
0.065,0.064,0.309,-5.337
0.096,0.061,0.309,-5.337
0.202,0.064,0.310,-5.337
0.257,0.065,0.311,-5.337
0.160,0.066,0.308,-5.337
0.080,0.066,0.308,-5.337
0.130,0.064,0.307,-5.337
0.269,0.064,0.306,-5.337
0.260,0.063,0.300,-5.337
0.224,0.063,0.303,-5.337
0.159,0.065,0.306,-5.337
0.163,0.062,0.310,-5.337
0.214,0.061,0.309,-5.337
0.167,0.062,0.307,-5.337
0.179,0.062,0.305,-5.337
0.232,0.060,0.305,-5.337
0.234,0.065,0.307,-5.337
0.234,0.066,0.311,-5.337
0.289,0.062,0.311,-5.337
0.237,0.060,0.308,-5.337
0.224,0.061,0.309,-5.337
0.313,0.063,0.312,-5.337
0.265,0.063,0.310,-5.337
0.150,0.064,0.305,-5.337
0.228,0.063,0.302,-5.337
0.276,0.062,0.303,-5.337
0.278,0.061,0.307,-5.337
0.325,0.060,0.308,-5.337
0.274,0.063,0.308,-5.337
0.207,0.066,0.308,-5.337
0.217,0.064,0.311,-5.337
0.262,0.064,0.313,-5.337
0.265,0.062,0.311,-5.337
0.176,0.063,0.310,-5.337
0.153,0.059,0.311,-5.337
0.227,0.056,0.310,-5.337
0.199,0.060,0.310,-5.337
0.202,0.058,0.311,-5.337
0.277,0.059,0.310,-5.337
0.271,0.057,0.306,-5.337
0.217,0.056,0.305,-5.337
0.259,0.059,0.307,-5.337
0.246,0.061,0.310,-5.337
0.215,0.062,0.307,-5.337
0.195,0.059,0.304,-5.337
0.215,0.058,0.303,-5.337
0.205,0.060,0.305,-5.337
0.120,0.061,0.310,-5.337
0.176,0.053,0.310,-5.337
0.231,0.051,0.311,-5.337
0.217,0.054,0.308,-5.337
0.201,0.058,0.307,-5.337
0.178,0.060,0.307,-5.337
0.177,0.057,0.306,-5.337
0.234,0.058,0.304,-5.337
0.297,0.057,0.306,-5.337
0.295,0.052,0.308,-5.337
0.175,0.054,0.310,-5.337
0.170,0.050,0.310,-5.337
0.280,0.050,0.312,-5.337
0.298,0.051,0.313,-5.337
0.160,0.053,0.314,-5.337
0.105,0.052,0.315,-5.337
0.262,0.048,0.313,-5.337
0.342,0.047,0.310,-5.337
0.333,0.048,0.309,-5.337
0.226,0.052,0.307,-5.337
0.157,0.053,0.309,-5.337
0.135,0.052,0.311,-5.337
0.170,0.055,0.310,-5.337
0.159,0.055,0.307,-5.337
0.141,0.053,0.307,-5.337
0.165,0.054,0.307,-5.337
0.169,0.055,0.304,-5.337
0.163,0.054,0.305,-5.337
0.215,0.052,0.305,-5.337
0.179,0.053,0.309,-5.337
0.162,0.052,0.308,-5.337
0.159,0.052,0.309,-5.337
0.175,0.051,0.309,-5.337
0.115,0.052,0.309,-5.337
0.121,0.049,0.311,-5.337
0.193,0.045,0.310,-5.337
0.180,0.045,0.309,-5.337
0.172,0.045,0.311,-5.337
0.171,0.047,0.311,-5.337
0.140,0.047,0.310,-5.337
0.186,0.043,0.310,-5.337
0.221,0.044,0.307,-5.337
0.147,0.047,0.304,-5.337
0.173,0.049,0.306,-5.337
0.248,0.047,0.309,-5.337
0.241,0.045,0.308,-5.337
0.159,0.044,0.309,-5.337
0.111,0.044,0.309,-5.337
0.138,0.045,0.309,-5.337
0.169,0.043,0.309,-5.337
0.265,0.045,0.312,-5.337
0.247,0.048,0.312,-5.337
0.193,0.047,0.311,-5.337
0.163,0.047,0.311,-5.337
0.200,0.051,0.311,-5.337
0.219,0.053,0.307,-5.337
0.234,0.051,0.307,-5.337
0.266,0.045,0.308,-5.337
0.241,0.047,0.306,-5.337
0.279,0.045,0.308,-5.337
0.294,0.046,0.311,-5.337
0.190,0.043,0.308,-5.337
0.135,0.046,0.305,-5.337
0.121,0.052,0.309,-5.337
0.182,0.047,0.311,-5.337
0.304,0.042,0.309,-5.337
0.320,0.044,0.309,-5.337
0.201,0.051,0.310,-5.337
0.116,0.053,0.311,-5.337
0.128,0.046,0.310,-5.337
0.195,0.047,0.310,-5.337
0.212,0.049,0.309,-5.337
0.196,0.051,0.309,-5.337
0.186,0.049,0.310,-5.337
0.209,0.049,0.305,-5.337
0.262,0.049,0.304,-5.337
0.239,0.050,0.302,-5.337
0.241,0.048,0.306,-5.337
0.252,0.043,0.307,-5.337
0.205,0.043,0.307,-5.337
0.225,0.042,0.308,-5.337
0.303,0.041,0.308,-5.337
0.243,0.042,0.308,-5.337
0.135,0.043,0.308,-5.337
0.115,0.044,0.308,-5.337
0.213,0.046,0.310,-5.337
0.172,0.046,0.311,-5.337
0.141,0.045,0.308,-5.337
0.175,0.045,0.307,-5.337
0.225,0.046,0.309,-5.337
0.287,0.043,0.310,-5.337
0.315,0.043,0.311,-5.337
0.195,0.046,0.311,-5.337
0.175,0.045,0.311,-5.337
0.165,0.046,0.312,-5.337
0.190,0.048,0.309,-5.337
0.185,0.046,0.306,-5.337
0.199,0.045,0.303,-5.337
0.171,0.048,0.306,-5.337
0.142,0.044,0.309,-5.337
0.247,0.040,0.312,-5.337
0.227,0.043,0.309,-5.337
0.153,0.047,0.306,-5.337
0.152,0.045,0.302,-5.337
0.162,0.044,0.300,-5.337
0.161,0.043,0.305,-5.337
0.176,0.043,0.309,-5.337
0.141,0.045,0.312,-5.337
0.137,0.044,0.312,-5.337
0.200,0.042,0.311,-5.337
0.213,0.043,0.308,-5.337
0.188,0.046,0.304,-5.337
0.187,0.045,0.303,-5.337
0.145,0.047,0.304,-5.337
0.158,0.049,0.305,-5.337
0.197,0.046,0.307,-5.337
0.217,0.043,0.308,-5.337
0.174,0.043,0.312,-5.337
0.237,0.042,0.311,-5.337
0.264,0.041,0.307,-5.337
0.198,0.042,0.307,-5.337
0.127,0.042,0.312,-5.337
0.205,0.040,0.311,-5.337
0.228,0.040,0.309,-5.337
0.214,0.041,0.309,-5.337
0.161,0.045,0.306,-5.337
0.207,0.042,0.306,-5.337
0.281,0.040,0.308,-5.337
0.306,0.039,0.310,-5.337
0.219,0.043,0.307,-5.337
0.139,0.044,0.303,-5.337
0.171,0.043,0.301,-5.337
0.167,0.044,0.304,-5.337
0.219,0.043,0.305,-5.337
0.186,0.043,0.307,-5.337
0.113,0.043,0.306,-5.337
0.155,0.044,0.309,-5.337
0.195,0.042,0.307,-5.337
0.217,0.043,0.308,-5.337
0.217,0.042,0.310,-5.337
0.145,0.040,0.310,-5.337
0.208,0.040,0.307,-5.337
0.265,0.044,0.308,-5.337
0.280,0.043,0.306,-5.337
0.233,0.041,0.308,-5.337
0.283,0.037,0.309,-5.337
0.286,0.040,0.309,-5.337
0.202,0.043,0.307,-5.337
0.185,0.045,0.306,-5.337
0.174,0.044,0.306,-5.337
0.161,0.040,0.311,-5.337
0.184,0.040,0.313,-5.337
0.150,0.044,0.309,-5.337
0.154,0.045,0.303,-5.337
0.198,0.045,0.302,-5.337
0.229,0.044,0.306,-5.337
0.270,0.042,0.312,-5.337
0.253,0.040,0.312,-5.337
0.203,0.042,0.309,-5.337
0.110,0.044,0.308,-5.337
0.119,0.042,0.304,-5.337
0.138,0.043,0.306,-5.337
0.227,0.038,0.308,-5.337
0.325,0.037,0.310,-5.337
0.334,0.041,0.306,-5.337
0.208,0.041,0.306,-5.337
0.152,0.037,0.311,-5.337
0.255,0.033,0.317,-5.337
0.335,0.032,0.315,-5.337
0.302,0.039,0.310,-5.337
0.199,0.040,0.307,-5.337
0.213,0.038,0.307,-5.337
0.306,0.035,0.306,-5.337
0.290,0.034,0.307,-5.337
0.200,0.035,0.308,-5.337
0.141,0.037,0.308,-5.337
0.115,0.038,0.308,-5.337
0.103,0.038,0.308,-5.337
0.155,0.036,0.309,-5.337
0.200,0.037,0.311,-5.337
0.187,0.036,0.309,-5.337
0.211,0.034,0.305,-5.337
0.182,0.037,0.305,-5.337
0.186,0.041,0.310,-5.337
0.151,0.038,0.317,-5.337
0.149,0.036,0.313,-5.337
0.149,0.042,0.306,-5.337
0.150,0.043,0.302,-5.337
0.145,0.039,0.305,-5.337
0.199,0.034,0.307,-5.337
0.205,0.036,0.306,-5.337
0.135,0.037,0.305,-5.337
0.150,0.038,0.309,-5.337
0.237,0.038,0.310,-5.337
0.255,0.039,0.307,-5.337
0.279,0.033,0.304,-5.337
0.266,0.037,0.303,-5.337
0.206,0.041,0.306,-5.337
0.122,0.040,0.307,-5.337
0.187,0.034,0.304,-5.337
0.307,0.037,0.305,-5.337
0.250,0.041,0.305,-5.337
0.251,0.040,0.305,-5.337
0.279,0.034,0.307,-5.337
0.318,0.036,0.309,-5.337
0.281,0.039,0.308,-5.337
0.164,0.038,0.307,-5.337
0.179,0.040,0.307,-5.337
0.150,0.040,0.309,-5.337
0.162,0.037,0.312,-5.337
0.204,0.037,0.312,-5.337
0.279,0.036,0.309,-5.337
0.263,0.036,0.305,-5.337
0.233,0.031,0.304,-5.337
0.236,0.029,0.305,-5.337
0.178,0.032,0.308,-5.337
0.167,0.034,0.310,-5.337
0.205,0.032,0.309,-5.337
0.219,0.030,0.311,-5.337
0.147,0.034,0.310,-5.337
0.122,0.035,0.308,-5.337
0.194,0.033,0.307,-5.337
0.209,0.031,0.304,-5.337
0.240,0.033,0.304,-5.337
0.152,0.038,0.306,-5.337
0.161,0.037,0.304,-5.337
0.263,0.034,0.301,-5.337
0.331,0.033,0.301,-5.337
0.325,0.033,0.306,-5.337
0.262,0.038,0.307,-5.337
0.184,0.041,0.308,-5.337
0.231,0.039,0.308,-5.337
0.266,0.039,0.310,-5.337
0.183,0.040,0.310,-5.337
0.081,0.037,0.309,-5.337
0.088,0.035,0.306,-5.337
0.166,0.033,0.309,-5.337
0.182,0.033,0.309,-5.337
0.242,0.034,0.309,-5.337
0.220,0.038,0.309,-5.337
0.159,0.041,0.308,-5.337
0.127,0.038,0.304,-5.337
0.195,0.035,0.304,-5.337
0.202,0.032,0.306,-5.337
0.203,0.031,0.307,-5.337
0.229,0.034,0.305,-5.337
0.241,0.035,0.305,-5.337
0.238,0.033,0.304,-5.337
0.147,0.035,0.305,-5.337
0.122,0.032,0.310,-5.337
0.176,0.032,0.312,-5.337
0.227,0.031,0.310,-5.337
0.214,0.033,0.309,-5.337
0.247,0.033,0.308,-5.337
0.317,0.031,0.305,-5.337
0.393,0.034,0.308,-5.337
0.270,0.038,0.309,-5.337
0.128,0.040,0.310,-5.337
0.111,0.037,0.309,-5.337
0.108,0.039,0.311,-5.337
0.143,0.037,0.310,-5.337
0.226,0.033,0.309,-5.337
0.265,0.032,0.310,-5.337
0.180,0.039,0.308,-5.337
0.111,0.041,0.308,-5.337
0.090,0.040,0.310,-5.337
0.130,0.035,0.310,-5.337
0.186,0.034,0.309,-5.337
0.217,0.037,0.306,-5.337
0.240,0.037,0.306,-5.337
0.153,0.039,0.308,-5.337
0.119,0.040,0.310,-5.337
0.195,0.041,0.308,-5.337
0.168,0.044,0.306,-5.337
0.133,0.045,0.311,-5.337
0.178,0.042,0.315,-5.337
0.146,0.042,0.313,-5.337
0.233,0.041,0.308,-5.337
0.276,0.044,0.309,-5.337
0.254,0.043,0.312,-5.337
0.218,0.042,0.313,-5.337
0.240,0.042,0.308,-5.337
0.252,0.042,0.305,-5.337
0.241,0.043,0.304,-5.337
0.184,0.044,0.306,-5.337
0.163,0.044,0.306,-5.337
0.162,0.046,0.308,-5.337
0.161,0.047,0.310,-5.337
0.191,0.046,0.310,-5.337
0.157,0.046,0.309,-5.337
0.209,0.043,0.307,-5.337
0.239,0.045,0.306,-5.337
0.224,0.043,0.309,-5.337
0.232,0.041,0.312,-5.337
0.212,0.046,0.309,-5.337
0.176,0.049,0.305,-5.337
0.202,0.047,0.304,-5.337
0.198,0.045,0.305,-5.337
0.161,0.046,0.304,-5.337
0.111,0.046,0.307,-5.337
0.147,0.045,0.313,-5.337
0.165,0.045,0.316,-5.337
0.179,0.043,0.313,-5.337
0.176,0.045,0.311,-5.337
0.188,0.043,0.310,-5.337
0.205,0.047,0.312,-5.337
0.188,0.048,0.309,-5.337
0.187,0.047,0.307,-5.337
0.238,0.045,0.304,-5.337
0.249,0.045,0.302,-5.337
0.239,0.042,0.303,-5.337
0.235,0.042,0.306,-5.337
0.241,0.041,0.303,-5.337
0.245,0.044,0.305,-5.337
0.196,0.043,0.308,-5.337
0.220,0.042,0.310,-5.337
0.267,0.042,0.309,-5.337
0.203,0.045,0.311,-5.337
0.232,0.045,0.315,-5.337
0.191,0.048,0.314,-5.337
0.169,0.048,0.310,-5.337
0.203,0.042,0.307,-5.337
0.186,0.046,0.307,-5.337
0.158,0.047,0.307,-5.337
0.137,0.051,0.307,-5.337
0.174,0.050,0.307,-5.337
0.197,0.050,0.307,-5.337
0.206,0.048,0.308,-5.337
0.188,0.047,0.310,-5.337
0.171,0.046,0.308,-5.337
0.135,0.048,0.308,-5.337
0.151,0.048,0.311,-5.337
0.168,0.052,0.309,-5.337
0.182,0.045,0.307,-5.337
0.199,0.046,0.305,-5.337
0.135,0.051,0.305,-5.337
0.171,0.050,0.306,-5.337
0.138,0.051,0.308,-5.337
0.062,0.052,0.311,-5.337
0.128,0.047,0.309,-5.337
0.195,0.047,0.306,-5.337
0.207,0.048,0.305,-5.337
0.191,0.049,0.306,-5.337
0.205,0.048,0.305,-5.337
0.234,0.048,0.304,-5.337
0.230,0.052,0.304,-5.337
0.185,0.049,0.305,-5.337
0.209,0.047,0.309,-5.337
0.183,0.049,0.307,-5.337
0.176,0.049,0.305,-5.337
0.131,0.051,0.303,-5.337
0.084,0.051,0.305,-5.337
0.175,0.049,0.306,-5.337
0.232,0.054,0.307,-5.337
0.200,0.056,0.306,-5.337
0.165,0.057,0.306,-5.337
0.177,0.054,0.308,-5.337
0.281,0.051,0.311,-5.337
0.238,0.053,0.313,-5.337
0.163,0.054,0.312,-5.337
0.208,0.055,0.308,-5.337
0.259,0.053,0.303,-5.337
0.275,0.051,0.303,-5.337
0.207,0.053,0.304,-5.337
0.222,0.053,0.302,-5.337
0.270,0.050,0.303,-5.337
0.255,0.051,0.305,-5.337
0.226,0.052,0.305,-5.337
0.196,0.054,0.307,-5.337
0.186,0.055,0.308,-5.337
0.279,0.055,0.310,-5.337
0.284,0.052,0.309,-5.337
0.140,0.053,0.308,-5.337
0.121,0.052,0.307,-5.337
0.149,0.056,0.306,-5.337
0.227,0.054,0.303,-5.337
0.255,0.055,0.304,-5.337
0.165,0.058,0.305,-5.337
0.107,0.059,0.309,-5.337
0.173,0.057,0.311,-5.337
0.188,0.058,0.305,-5.337
0.151,0.058,0.303,-5.337
0.178,0.059,0.305,-5.337
0.203,0.058,0.307,-5.337
0.188,0.055,0.308,-5.337
0.169,0.056,0.307,-5.337
0.218,0.058,0.300,-5.337
0.256,0.056,0.300,-5.337
0.187,0.057,0.307,-5.337
0.152,0.058,0.314,-5.337
0.212,0.056,0.312,-5.337
0.223,0.055,0.307,-5.337
0.190,0.054,0.302,-5.337
0.233,0.052,0.303,-5.337
0.212,0.055,0.303,-5.337
0.150,0.056,0.304,-5.337
0.206,0.053,0.308,-5.337
0.292,0.052,0.309,-5.337
0.282,0.053,0.304,-5.337
0.154,0.056,0.305,-5.337
0.114,0.054,0.305,-5.337
0.190,0.052,0.308,-5.337
0.261,0.051,0.309,-5.337
0.215,0.051,0.305,-5.337
0.112,0.055,0.303,-5.337
0.167,0.054,0.304,-5.337
0.261,0.054,0.307,-5.337
0.209,0.056,0.308,-5.337
0.176,0.059,0.307,-5.337
0.217,0.060,0.305,-5.337
0.192,0.058,0.305,-5.337
0.107,0.060,0.306,-5.337
0.140,0.059,0.307,-5.337
0.194,0.058,0.306,-5.337
0.160,0.058,0.308,-5.337
0.244,0.056,0.306,-5.337
0.373,0.056,0.306,-5.337
0.296,0.057,0.307,-5.337
0.152,0.060,0.310,-5.337
0.161,0.057,0.307,-5.337
0.248,0.058,0.302,-5.337
0.234,0.060,0.302,-5.337
0.240,0.057,0.303,-5.337
0.266,0.054,0.304,-5.337
0.251,0.058,0.304,-5.337
0.149,0.061,0.307,-5.337
0.142,0.059,0.309,-5.337
0.182,0.056,0.311,-5.337
0.311,0.052,0.310,-5.337
0.281,0.057,0.306,-5.337
0.162,0.058,0.304,-5.337
0.142,0.059,0.304,-5.337
0.169,0.057,0.304,-5.337
0.219,0.054,0.307,-5.337
0.199,0.057,0.305,-5.337
0.236,0.059,0.309,-5.337
0.239,0.057,0.309,-5.337
0.202,0.056,0.310,-5.337
0.214,0.059,0.308,-5.337
0.166,0.064,0.307,-5.337
0.190,0.063,0.309,-5.337
0.185,0.064,0.307,-5.337
0.175,0.062,0.299,-5.337
0.157,0.062,0.301,-5.337
0.141,0.062,0.307,-5.337
0.161,0.064,0.312,-5.337
0.156,0.062,0.311,-5.337
0.247,0.058,0.311,-5.337
0.306,0.058,0.307,-5.337
0.195,0.064,0.304,-5.337
0.128,0.067,0.302,-5.337
0.151,0.065,0.304,-5.337
0.174,0.064,0.308,-5.337
