[Parameters]
Operating Mode, Feedback
Subject  AA..ZZ, WT
Session  0..99, 42
No. Trials (1..9999), 500
Mouse Number, 1
Pressure Probe Serial Port, \00\00\00\04COM4
Save additional csv file, TRUE
Save using mouse number, FALSE
A/D Monitor Rate (Hz), 30000.000000
A/D Stimulate Rate (Hz), 30000.000000
A/D input range (+/- V), 5
No. Channels to acquire (N), 2
Pre-Stim Acq. time (ms), 100.000000
Post-Stim Acq. time (ms), 900.000000
Analysis window parameters.M-response Start (ms), 1.100000
Analysis window parameters.M-response Duration (ms), 5.500000
Analysis window parameters.H-response Duration (ms), 6.000000
Analysis window parameters.H-response Start (ms), 6.500000
Feedback window, H response
Proportional gain, 0.100000
Target value, 6.700000
Feedback Ch., 1
Stim Channel to Control (1-4), 4
Trial, 23
Wait for EMG Conditions, FALSE
Channel to monitor (0 - N-1), 1
EMG Hi Limit, 2.000000
EMG Lo Limit, 0.001000
Inter-Stim delay (sec), 10.000000
EMG Monitor Mode, Mean
Time to run Long Stim.(sec), 30
Save Long Stim Data?, OFF
BURST Save time (ms), 1000
BURST Save Interval (x above), 10
Long-Stim. Rep. Rate (Hz), 10.000000
Stim type cluster array.<size(s)>, 4
Stim type cluster array 0.Stimulus Output, Electrical
Stim type cluster array 1.Stimulus Output, OFF
Stim type cluster array 2.Stimulus Output, OFF
Stim type cluster array 3.Stimulus Output, Motor Length
Stim specs cluster array.<size(s)>, 4
Stim specs cluster array 0.Initial Stimulus ampl., 0.300000
Stim specs cluster array 0.Maximum Stimulus, 1.120000
Stim specs cluster array 0.#Pulses in train, 4
Stim specs cluster array 0.Peak Level time (ms), 1.000000
Stim specs cluster array 0.Total pulse period (ms), 150.000000
Stim specs cluster array 0.Start Delay (ms), -50.000000
Stim specs cluster array 0.Pulse Shape, Square
Stim specs cluster array 0.Ramp/Rel. time (ms), 0.100000
Stim specs cluster array 0.Peak Amplitude (V), 0.120000
Stim specs cluster array 1.Initial Stimulus ampl., 0.000000
Stim specs cluster array 1.Maximum Stimulus, 0.000000
Stim specs cluster array 1.#Pulses in train, 3
Stim specs cluster array 1.Peak Level time (ms), 29.000000
Stim specs cluster array 1.Total pulse period (ms), 200.000000
Stim specs cluster array 1.Start Delay (ms), 0.000000
Stim specs cluster array 1.Pulse Shape, Square
Stim specs cluster array 1.Ramp/Rel. time (ms), 0.000000
Stim specs cluster array 1.Peak Amplitude (V), 2.000000
Stim specs cluster array 2.Initial Stimulus ampl., 0.000000
Stim specs cluster array 2.Maximum Stimulus, 0.000000
Stim specs cluster array 2.#Pulses in train, 1
Stim specs cluster array 2.Peak Level time (ms), 25.000000
Stim specs cluster array 2.Total pulse period (ms), 200.000000
Stim specs cluster array 2.Start Delay (ms), 0.000000
Stim specs cluster array 2.Pulse Shape, Square
Stim specs cluster array 2.Ramp/Rel. time (ms), 20.000000
Stim specs cluster array 2.Peak Amplitude (V), 10.000000
Stim specs cluster array 3.Initial Stimulus ampl., 0.000000
Stim specs cluster array 3.Maximum Stimulus, 20.000000
Stim specs cluster array 3.#Pulses in train, 25
Stim specs cluster array 3.Peak Level time (ms), 0.100000
Stim specs cluster array 3.Total pulse period (ms), 4.000000
Stim specs cluster array 3.Start Delay (ms), 205.000000
Stim specs cluster array 3.Pulse Shape, Triangle
Stim specs cluster array 3.Ramp/Rel. time (ms), 3.000000
Stim specs cluster array 3.Peak Amplitude (V), 0.500000
Force cal. (mN/Volt), 100.000000
Force Range (mN), 100.000000
Length cal. (mm/Volt), 10.000000
Length Range (mm), 10.000000
Stim. 1, 0.300000
Stim. 2, 0.000000
Stim. 3, 0.000000
Stim. 4, 0.000000
Monitor acquire time (ms), 100.000000
EMG graph Ymax, 0.100000
Travel limit (mm), 20.000000
Use Pressure Probe, FALSE
Pressure goal (g), 100
Speed (mm/sec), 5.000000
Dwell time (ms), 100.000000
Pressure limit (g), 500.000000
Channel amplitude offset, 0.000000

[DATA]

0.209,0.054,0.344,-5.337
0.234,0.054,0.344,-5.337
0.189,0.052,0.344,-5.337
0.159,0.053,0.344,-5.337
0.124,0.054,0.346,-5.337
0.138,0.053,0.345,-5.337
0.203,0.052,0.346,-5.337
0.263,0.049,0.348,-5.337
0.245,0.049,0.351,-5.337
0.209,0.049,0.348,-5.337
0.187,0.050,0.344,-5.337
0.187,0.049,0.342,-5.337
0.231,0.047,0.343,-5.337
0.248,0.050,0.345,-5.337
0.207,0.052,0.344,-5.337
0.186,0.053,0.343,-5.337
0.267,0.054,0.347,-5.337
0.317,0.053,0.351,-5.337
0.324,0.048,0.351,-5.337
0.267,0.051,0.348,-5.337
0.268,0.051,0.347,-5.337
0.280,0.048,0.344,-5.337
0.258,0.048,0.341,-5.337
0.229,0.049,0.344,-5.337
0.172,0.047,0.344,-5.337
0.165,0.046,0.345,-5.337
0.127,0.049,0.343,-5.337
0.155,0.050,0.346,-5.337
0.239,0.048,0.345,-5.337
0.240,0.048,0.344,-5.337
0.167,0.052,0.344,-5.337
0.048,0.053,0.348,-5.337
0.043,0.054,0.351,-5.337
0.109,0.053,0.353,-5.337
0.109,0.052,0.350,-5.337
0.121,0.051,0.343,-5.337
0.141,0.051,0.339,-5.337
0.147,0.055,0.339,-5.337
0.185,0.055,0.344,-5.337
0.162,0.054,0.349,-5.337
0.124,0.051,0.349,-5.337
0.097,0.053,0.348,-5.337
0.158,0.053,0.345,-5.337
0.238,0.050,0.341,-5.337
0.304,0.050,0.340,-5.337
0.212,0.054,0.341,-5.337
0.151,0.053,0.343,-5.337
0.217,0.051,0.343,-5.337
0.234,0.050,0.344,-5.337
0.218,0.055,0.341,-5.337
0.151,0.059,0.343,-5.337
0.068,0.059,0.346,-5.337
0.085,0.059,0.346,-5.337
0.200,0.053,0.343,-5.337
0.233,0.054,0.342,-5.337
0.249,0.057,0.343,-5.337
0.225,0.059,0.343,-5.337
0.203,0.057,0.343,-5.337
0.184,0.057,0.344,-5.337
0.166,0.052,0.344,-5.337
0.155,0.054,0.345,-5.337
0.155,0.057,0.344,-5.337
0.207,0.059,0.342,-5.337
0.176,0.060,0.345,-5.337
0.152,0.058,0.349,-5.337
0.185,0.058,0.348,-5.337
0.231,0.058,0.343,-5.337
0.242,0.057,0.339,-5.337
0.237,0.057,0.342,-5.337
0.284,0.060,0.345,-5.337
0.304,0.061,0.344,-5.337
0.291,0.062,0.342,-5.337
0.248,0.062,0.341,-5.337
0.217,0.058,0.344,-5.337
0.212,0.060,0.340,-5.337
0.174,0.062,0.339,-5.337
0.101,0.061,0.340,-5.337
0.107,0.061,0.344,-5.337
0.135,0.060,0.343,-5.337
0.172,0.060,0.343,-5.337
0.166,0.057,0.343,-5.337
0.161,0.057,0.346,-5.337
0.181,0.055,0.346,-5.337
0.150,0.055,0.347,-5.337
0.055,0.059,0.349,-5.337
0.062,0.055,0.344,-5.337
0.113,0.054,0.338,-5.337
0.147,0.056,0.336,-5.337
0.146,0.059,0.339,-5.337
0.195,0.059,0.342,-5.337
0.229,0.055,0.347,-5.337
0.187,0.055,0.349,-5.337
0.112,0.057,0.347,-5.337
0.125,0.057,0.343,-5.337
0.134,0.060,0.344,-5.337
0.090,0.063,0.346,-5.337
0.068,0.067,0.346,-5.337
0.109,0.064,0.339,-5.337
0.215,0.057,0.338,-5.337
0.305,0.054,0.339,-5.337
0.277,0.053,0.342,-5.337
0.226,0.056,0.342,-5.337
0.215,0.057,0.342,-5.337
0.178,0.054,0.341,-5.337
0.136,0.058,0.340,-5.337
0.144,0.057,0.339,-5.337
0.215,0.057,0.341,-5.337
0.207,0.060,0.344,-5.337
0.212,0.060,0.344,-5.337
0.190,0.061,0.342,-5.337
0.136,0.063,0.341,-5.337
0.134,0.062,0.344,-5.337
0.154,0.059,0.344,-5.337
0.195,0.062,0.342,-5.337
0.258,0.064,0.339,-5.337
0.262,0.062,0.345,-5.337
0.263,0.063,0.350,-5.337
0.170,0.066,0.350,-5.337
0.072,0.071,0.343,-5.337
0.065,0.068,0.339,-5.337
0.120,0.064,0.340,-5.337
0.157,0.065,0.341,-5.337
0.192,0.064,0.341,-5.337
0.218,0.062,0.338,-5.337
0.183,0.057,0.336,-5.337
0.217,0.057,0.337,-5.337
0.204,0.061,0.340,-5.337
0.202,0.066,0.342,-5.337
0.215,0.066,0.343,-5.337
0.157,0.067,0.344,-5.337
0.127,0.066,0.346,-5.337
0.192,0.065,0.346,-5.337
0.164,0.068,0.344,-5.337
0.150,0.067,0.346,-5.337
0.198,0.067,0.343,-5.337
0.190,0.069,0.339,-5.337
0.170,0.069,0.338,-5.337
0.197,0.069,0.339,-5.337
0.232,0.065,0.345,-5.337
0.179,0.069,0.348,-5.337
0.144,0.070,0.347,-5.337
0.214,0.067,0.347,-5.337
0.234,0.068,0.346,-5.337
0.225,0.067,0.338,-5.337
0.262,0.067,0.332,-5.337
0.341,0.065,0.333,-5.337
0.309,0.068,0.339,-5.337
0.239,0.068,0.341,-5.337
0.210,0.066,0.342,-5.337
0.192,0.064,0.341,-5.337
0.220,0.065,0.340,-5.337
0.156,0.069,0.343,-5.337
0.136,0.067,0.346,-5.337
0.141,0.070,0.348,-5.337
0.107,0.072,0.349,-5.337
0.156,0.069,0.348,-5.337
0.198,0.072,0.348,-5.337
0.174,0.070,0.349,-5.337
0.221,0.070,0.349,-5.337
0.271,0.070,0.347,-5.337
0.233,0.069,0.345,-5.337
0.216,0.068,0.346,-5.337
0.216,0.072,0.345,-5.337
0.241,0.070,0.342,-5.337
0.290,0.069,0.336,-5.337
0.248,0.070,0.336,-5.337
0.224,0.070,0.340,-5.337
0.214,0.073,0.348,-5.337
0.242,0.071,0.345,-5.337
0.172,0.070,0.342,-5.337
0.210,0.068,0.342,-5.337
0.205,0.069,0.347,-5.337
0.142,0.070,0.349,-5.337
0.142,0.066,0.347,-5.337
0.205,0.065,0.342,-5.337
0.182,0.069,0.342,-5.337
0.136,0.070,0.343,-5.337
0.153,0.065,0.344,-5.337
0.190,0.067,0.341,-5.337
0.184,0.072,0.338,-5.337
0.186,0.071,0.342,-5.337
0.211,0.069,0.346,-5.337
0.207,0.071,0.345,-5.337
0.201,0.068,0.345,-5.337
0.240,0.068,0.345,-5.337
0.242,0.065,0.341,-5.337
0.177,0.067,0.340,-5.337
0.194,0.062,0.342,-5.337
0.234,0.064,0.347,-5.337
0.158,0.068,0.347,-5.337
0.113,0.068,0.343,-5.337
0.275,0.060,0.341,-5.337
0.356,0.060,0.343,-5.337
0.239,0.063,0.345,-5.337
0.086,0.062,0.345,-5.337
0.146,0.060,0.343,-5.337
0.326,0.057,0.339,-5.337
0.293,0.060,0.335,-5.337
0.216,0.064,0.342,-5.337
0.189,0.064,0.350,-5.337
0.190,0.067,0.351,-5.337
0.188,0.070,0.347,-5.337
0.125,0.069,0.342,-5.337
0.166,0.065,0.340,-5.337
0.236,0.062,0.341,-5.337
0.192,0.064,0.344,-5.337
0.172,0.065,0.343,-5.337
0.252,0.063,0.341,-5.337
0.245,0.065,0.341,-5.337
0.175,0.065,0.341,-5.337
0.224,0.065,0.341,-5.337
0.236,0.065,0.343,-5.337
0.203,0.065,0.341,-5.337
0.179,0.065,0.340,-5.337
0.201,0.063,0.342,-5.337
0.220,0.058,0.342,-5.337
0.257,0.058,0.345,-5.337
0.221,0.065,0.349,-5.337
0.167,0.066,0.344,-5.337
0.189,0.062,0.346,-5.337
0.211,0.060,0.343,-5.337
0.189,0.061,0.338,-5.337
0.153,0.062,0.335,-5.337
0.159,0.062,0.339,-5.337
0.150,0.061,0.344,-5.337
0.205,0.057,0.344,-5.337
0.184,0.060,0.344,-5.337
0.158,0.060,0.344,-5.337
0.207,0.059,0.345,-5.337
0.227,0.063,0.340,-5.337
0.167,0.061,0.343,-5.337
0.186,0.057,0.343,-5.337
0.260,0.055,0.342,-5.337
0.286,0.057,0.341,-5.337
0.261,0.055,0.342,-5.337
0.239,0.054,0.344,-5.337
0.219,0.059,0.342,-5.337
0.203,0.061,0.339,-5.337
0.230,0.059,0.341,-5.337
0.281,0.055,0.344,-5.337
0.286,0.056,0.345,-5.337
0.214,0.056,0.346,-5.337
0.189,0.056,0.349,-5.337
0.185,0.057,0.350,-5.337
0.195,0.059,0.349,-5.337
0.188,0.057,0.346,-5.337
0.201,0.056,0.342,-5.337
0.196,0.060,0.339,-5.337
0.190,0.059,0.339,-5.337
0.247,0.055,0.339,-5.337
0.232,0.054,0.340,-5.337
0.223,0.054,0.345,-5.337
0.166,0.061,0.346,-5.337
0.211,0.061,0.344,-5.337
0.262,0.057,0.341,-5.337
0.247,0.056,0.342,-5.337
0.190,0.058,0.347,-5.337
0.165,0.059,0.350,-5.337
0.155,0.056,0.347,-5.337
0.232,0.052,0.342,-5.337
0.277,0.050,0.342,-5.337
0.222,0.053,0.346,-5.337
0.175,0.054,0.349,-5.337
0.173,0.053,0.345,-5.337
0.233,0.047,0.342,-5.337
0.265,0.047,0.341,-5.337
0.184,0.053,0.342,-5.337
0.229,0.052,0.344,-5.337
0.251,0.054,0.345,-5.337
0.178,0.058,0.344,-5.337
0.234,0.049,0.342,-5.337
0.320,0.045,0.344,-5.337
0.266,0.047,0.346,-5.337
0.212,0.052,0.345,-5.337
0.218,0.055,0.348,-5.337
0.195,0.054,0.348,-5.337
0.181,0.052,0.344,-5.337
0.208,0.051,0.337,-5.337
0.249,0.054,0.340,-5.337
0.228,0.052,0.344,-5.337
0.242,0.051,0.350,-5.337
0.180,0.051,0.349,-5.337
0.153,0.051,0.349,-5.337
0.208,0.049,0.348,-5.337
0.250,0.048,0.347,-5.337
0.276,0.046,0.345,-5.337
0.299,0.050,0.343,-5.337
0.241,0.054,0.343,-5.337
0.211,0.052,0.347,-5.337
0.249,0.047,0.348,-5.337
0.281,0.048,0.344,-5.337
0.217,0.050,0.342,-5.337
0.245,0.049,0.344,-5.337
0.286,0.051,0.348,-5.337
0.286,0.049,0.346,-5.337
0.219,0.050,0.345,-5.337
0.200,0.045,0.343,-5.337
0.271,0.045,0.346,-5.337
0.222,0.048,0.349,-5.337
0.244,0.046,0.351,-5.337
0.314,0.042,0.347,-5.337
0.286,0.042,0.343,-5.337
0.293,0.039,0.341,-5.337
0.266,0.042,0.340,-5.337
0.209,0.045,0.342,-5.337
0.114,0.051,0.344,-5.337
0.106,0.046,0.344,-5.337
0.144,0.042,0.346,-5.337
0.212,0.041,0.347,-5.337
0.263,0.039,0.348,-5.337
0.228,0.043,0.349,-5.337
0.147,0.047,0.350,-5.337
0.082,0.044,0.350,-5.337
0.177,0.041,0.347,-5.337
0.267,0.042,0.344,-5.337
0.230,0.042,0.342,-5.337
0.191,0.040,0.343,-5.337
0.200,0.039,0.342,-5.337
0.175,0.039,0.343,-5.337
0.160,0.039,0.342,-5.337
0.169,0.038,0.345,-5.337
0.185,0.042,0.346,-5.337
0.124,0.046,0.345,-5.337
0.121,0.046,0.344,-5.337
0.120,0.046,0.344,-5.337
0.068,0.047,0.346,-5.337
0.127,0.048,0.348,-5.337
0.241,0.048,0.345,-5.337
0.215,0.045,0.344,-5.337
0.231,0.042,0.345,-5.337
0.189,0.044,0.344,-5.337
0.149,0.045,0.342,-5.337
0.241,0.047,0.340,-5.337
0.226,0.044,0.340,-5.337
0.149,0.046,0.344,-5.337
0.176,0.045,0.348,-5.337
0.221,0.045,0.348,-5.337
0.322,0.041,0.348,-5.337
0.364,0.039,0.347,-5.337
0.293,0.039,0.349,-5.337
0.280,0.038,0.345,-5.337
0.319,0.033,0.346,-5.337
0.268,0.039,0.345,-5.337
0.143,0.046,0.344,-5.337
0.118,0.044,0.343,-5.337
0.195,0.042,0.342,-5.337
0.197,0.042,0.342,-5.337
0.183,0.044,0.341,-5.337
0.245,0.043,0.342,-5.337
0.217,0.045,0.345,-5.337
0.129,0.042,0.344,-5.337
0.188,0.040,0.340,-5.337
0.247,0.041,0.340,-5.337
0.267,0.044,0.343,-5.337
0.264,0.045,0.342,-5.337
0.236,0.045,0.341,-5.337
0.248,0.048,0.342,-5.337
0.244,0.049,0.344,-5.337
0.198,0.046,0.344,-5.337
0.214,0.044,0.343,-5.337
0.292,0.046,0.348,-5.337
0.176,0.050,0.351,-5.337
0.102,0.048,0.347,-5.337
0.164,0.044,0.344,-5.337
0.203,0.045,0.346,-5.337
0.174,0.043,0.344,-5.337
0.233,0.043,0.343,-5.337
0.298,0.043,0.339,-5.337
0.243,0.044,0.341,-5.337
0.227,0.040,0.349,-5.337
0.276,0.038,0.352,-5.337
0.352,0.038,0.345,-5.337
0.354,0.041,0.342,-5.337
0.261,0.041,0.347,-5.337
0.169,0.040,0.349,-5.337
0.136,0.040,0.345,-5.337
0.168,0.040,0.343,-5.337
0.209,0.037,0.342,-5.337
0.216,0.038,0.345,-5.337
0.213,0.038,0.346,-5.337
0.156,0.043,0.345,-5.337
0.192,0.042,0.344,-5.337
0.223,0.042,0.341,-5.337
0.165,0.045,0.337,-5.337
0.213,0.044,0.335,-5.337
0.245,0.044,0.339,-5.337
0.279,0.041,0.343,-5.337
0.224,0.045,0.345,-5.337
0.159,0.046,0.344,-5.337
0.223,0.041,0.344,-5.337
0.284,0.040,0.345,-5.337
0.301,0.041,0.345,-5.337
0.219,0.046,0.340,-5.337
0.131,0.046,0.340,-5.337
0.235,0.042,0.342,-5.337
0.283,0.046,0.343,-5.337
0.246,0.046,0.344,-5.337
0.171,0.046,0.346,-5.337
0.160,0.041,0.343,-5.337
0.234,0.040,0.337,-5.337
0.282,0.042,0.338,-5.337
0.262,0.047,0.341,-5.337
0.239,0.045,0.343,-5.337
0.255,0.044,0.344,-5.337
0.230,0.048,0.344,-5.337
0.235,0.043,0.341,-5.337
0.277,0.041,0.339,-5.337
0.298,0.041,0.342,-5.337
0.244,0.044,0.344,-5.337
0.223,0.044,0.343,-5.337
0.253,0.039,0.343,-5.337
0.257,0.037,0.344,-5.337
0.214,0.040,0.346,-5.337
0.133,0.039,0.346,-5.337
0.252,0.036,0.345,-5.337
0.319,0.037,0.343,-5.337
0.227,0.042,0.340,-5.337
0.165,0.041,0.338,-5.337
0.250,0.040,0.339,-5.337
0.263,0.038,0.339,-5.337
0.249,0.041,0.341,-5.337
0.152,0.044,0.340,-5.337
0.126,0.046,0.342,-5.337
0.142,0.045,0.343,-5.337
0.173,0.043,0.343,-5.337
0.245,0.045,0.346,-5.337
0.260,0.045,0.349,-5.337
0.243,0.043,0.347,-5.337
0.210,0.043,0.337,-5.337
0.230,0.043,0.336,-5.337
0.199,0.047,0.343,-5.337
0.156,0.047,0.349,-5.337
0.149,0.043,0.348,-5.337
0.184,0.043,0.344,-5.337
0.221,0.042,0.340,-5.337
0.231,0.039,0.339,-5.337
0.236,0.036,0.335,-5.337
0.154,0.042,0.336,-5.337
0.100,0.046,0.340,-5.337
0.121,0.046,0.345,-5.337
0.151,0.043,0.346,-5.337
0.212,0.045,0.346,-5.337
0.234,0.044,0.342,-5.337
0.217,0.045,0.343,-5.337
0.189,0.044,0.343,-5.337
0.176,0.044,0.341,-5.337
0.233,0.044,0.343,-5.337
0.239,0.043,0.347,-5.337
0.213,0.041,0.347,-5.337
0.236,0.040,0.341,-5.337
0.278,0.040,0.338,-5.337
0.312,0.044,0.339,-5.337
0.349,0.042,0.338,-5.337
0.262,0.043,0.337,-5.337
0.243,0.041,0.340,-5.337
0.249,0.045,0.342,-5.337
0.265,0.045,0.342,-5.337
0.258,0.045,0.337,-5.337
0.241,0.046,0.336,-5.337
0.200,0.045,0.339,-5.337
0.234,0.043,0.341,-5.337
0.202,0.041,0.338,-5.337
0.177,0.042,0.340,-5.337
0.240,0.044,0.343,-5.337
0.253,0.043,0.342,-5.337
0.238,0.045,0.341,-5.337
0.247,0.048,0.339,-5.337
0.242,0.050,0.339,-5.337
0.188,0.052,0.343,-5.337
0.122,0.049,0.346,-5.337
0.206,0.048,0.342,-5.337
0.209,0.052,0.339,-5.337
0.257,0.052,0.338,-5.337
0.334,0.049,0.338,-5.337
0.328,0.048,0.335,-5.337
0.269,0.049,0.338,-5.337
0.263,0.053,0.344,-5.337
0.180,0.052,0.345,-5.337
0.121,0.053,0.340,-5.337
0.178,0.053,0.339,-5.337
0.238,0.055,0.336,-5.337
0.235,0.057,0.338,-5.337
0.202,0.055,0.336,-5.337
0.184,0.054,0.340,-5.337
0.202,0.052,0.339,-5.337
0.164,0.052,0.340,-5.337
0.111,0.053,0.344,-5.337
0.153,0.053,0.345,-5.337
0.211,0.055,0.345,-5.337
0.218,0.055,0.342,-5.337
0.170,0.055,0.337,-5.337
0.136,0.051,0.336,-5.337
0.177,0.046,0.337,-5.337
0.244,0.047,0.335,-5.337
0.270,0.051,0.335,-5.337
0.214,0.055,0.338,-5.337
0.149,0.059,0.339,-5.337
0.166,0.059,0.338,-5.337
0.168,0.058,0.335,-5.337
0.162,0.056,0.336,-5.337
0.177,0.051,0.339,-5.337
0.199,0.052,0.339,-5.337
0.189,0.058,0.341,-5.337
0.209,0.058,0.338,-5.337
0.264,0.053,0.335,-5.337
0.314,0.052,0.335,-5.337
0.286,0.055,0.337,-5.337
0.230,0.053,0.339,-5.337
0.285,0.049,0.340,-5.337
0.311,0.050,0.340,-5.337
0.392,0.047,0.339,-5.337
0.327,0.049,0.341,-5.337
0.220,0.050,0.343,-5.337
0.196,0.049,0.344,-5.337
0.259,0.051,0.343,-5.337
0.253,0.054,0.342,-5.337
0.139,0.057,0.344,-5.337
0.055,0.059,0.342,-5.337
0.133,0.054,0.339,-5.337
0.205,0.052,0.337,-5.337
0.265,0.052,0.337,-5.337
0.242,0.053,0.340,-5.337
0.230,0.051,0.344,-5.337
0.260,0.048,0.345,-5.337
0.263,0.051,0.336,-5.337
0.267,0.052,0.331,-5.337
0.310,0.050,0.333,-5.337
0.213,0.051,0.338,-5.337
0.137,0.052,0.343,-5.337
0.139,0.053,0.346,-5.337
0.210,0.054,0.343,-5.337
0.173,0.055,0.339,-5.337
0.118,0.054,0.341,-5.337
0.154,0.054,0.344,-5.337
0.181,0.057,0.341,-5.337
0.197,0.059,0.336,-5.337
0.198,0.057,0.336,-5.337
0.223,0.054,0.340,-5.337
0.260,0.056,0.342,-5.337
0.259,0.054,0.342,-5.337
0.189,0.057,0.342,-5.337
0.179,0.063,0.336,-5.337
0.221,0.062,0.338,-5.337
0.257,0.057,0.343,-5.337
0.201,0.054,0.342,-5.337
0.077,0.056,0.340,-5.337
0.039,0.055,0.341,-5.337
0.038,0.057,0.338,-5.337
0.028,0.061,0.340,-5.337
0.013,0.062,0.341,-5.337
0.085,0.056,0.344,-5.337
0.277,0.050,0.344,-5.337
0.343,0.054,0.342,-5.337
0.237,0.056,0.340,-5.337
0.216,0.055,0.339,-5.337
0.218,0.056,0.339,-5.337
0.230,0.055,0.342,-5.337
0.220,0.056,0.342,-5.337
0.189,0.055,0.345,-5.337
0.153,0.057,0.346,-5.337
0.125,0.058,0.342,-5.337
0.159,0.056,0.339,-5.337
0.205,0.058,0.337,-5.337
0.220,0.055,0.339,-5.337
0.184,0.057,0.341,-5.337
0.137,0.054,0.342,-5.337
0.186,0.054,0.343,-5.337
0.177,0.061,0.344,-5.337
0.078,0.061,0.339,-5.337
0.073,0.058,0.338,-5.337
0.158,0.059,0.336,-5.337
0.247,0.061,0.334,-5.337
0.213,0.063,0.334,-5.337
0.146,0.060,0.337,-5.337
0.214,0.058,0.340,-5.337
0.278,0.060,0.340,-5.337
0.215,0.061,0.339,-5.337
0.178,0.061,0.339,-5.337
0.229,0.059,0.340,-5.337
0.241,0.061,0.342,-5.337
0.201,0.061,0.343,-5.337
0.237,0.061,0.343,-5.337
0.188,0.063,0.341,-5.337
0.156,0.062,0.337,-5.337
0.187,0.062,0.334,-5.337
0.241,0.063,0.335,-5.337
0.247,0.061,0.341,-5.337
0.209,0.065,0.346,-5.337
0.195,0.063,0.348,-5.337
0.202,0.065,0.348,-5.337
0.191,0.064,0.346,-5.337
0.210,0.062,0.340,-5.337
0.166,0.064,0.340,-5.337
0.192,0.063,0.339,-5.337
0.299,0.061,0.339,-5.337
0.251,0.063,0.341,-5.337
0.143,0.068,0.340,-5.337
0.099,0.067,0.337,-5.337
0.226,0.062,0.335,-5.337
0.251,0.062,0.339,-5.337
0.216,0.061,0.343,-5.337
0.286,0.058,0.343,-5.337
0.302,0.061,0.341,-5.337
0.184,0.062,0.338,-5.337
0.193,0.059,0.338,-5.337
0.217,0.063,0.340,-5.337
0.194,0.065,0.340,-5.337
0.252,0.063,0.344,-5.337
0.281,0.059,0.346,-5.337
0.198,0.065,0.345,-5.337
0.127,0.067,0.340,-5.337
0.148,0.069,0.334,-5.337
0.117,0.070,0.330,-5.337
0.119,0.068,0.331,-5.337
0.119,0.072,0.335,-5.337
0.166,0.068,0.338,-5.337
0.249,0.064,0.338,-5.337
0.265,0.068,0.340,-5.337
0.281,0.067,0.340,-5.337
0.328,0.065,0.346,-5.337
0.267,0.066,0.345,-5.337
0.166,0.063,0.342,-5.337
0.157,0.061,0.338,-5.337
0.238,0.059,0.338,-5.337
0.306,0.059,0.338,-5.337
0.224,0.063,0.340,-5.337
0.235,0.065,0.338,-5.337
0.303,0.066,0.338,-5.337
0.277,0.066,0.340,-5.337
0.267,0.063,0.342,-5.337
0.257,0.062,0.343,-5.337
0.177,0.067,0.342,-5.337
0.114,0.068,0.338,-5.337
0.104,0.069,0.335,-5.337
0.092,0.067,0.338,-5.337
0.211,0.065,0.338,-5.337
0.244,0.065,0.338,-5.337
0.229,0.064,0.337,-5.337
0.215,0.069,0.338,-5.337
0.229,0.070,0.338,-5.337
0.273,0.066,0.339,-5.337
0.287,0.066,0.341,-5.337
0.247,0.068,0.342,-5.337
0.183,0.066,0.340,-5.337
0.142,0.068,0.342,-5.337
0.182,0.072,0.342,-5.337
0.129,0.076,0.338,-5.337
0.040,0.077,0.335,-5.337
0.108,0.073,0.341,-5.337
0.184,0.071,0.344,-5.337
0.180,0.073,0.342,-5.337
0.204,0.069,0.337,-5.337
0.218,0.068,0.336,-5.337
0.215,0.069,0.333,-5.337
0.174,0.071,0.335,-5.337
0.200,0.067,0.338,-5.337
0.238,0.064,0.338,-5.337
0.216,0.068,0.342,-5.337
0.188,0.070,0.342,-5.337
0.226,0.071,0.340,-5.337
0.221,0.070,0.337,-5.337
0.226,0.072,0.334,-5.337
0.246,0.071,0.335,-5.337
0.211,0.069,0.339,-5.337
0.181,0.069,0.339,-5.337
0.173,0.071,0.341,-5.337
0.226,0.070,0.344,-5.337
0.251,0.068,0.343,-5.337
0.186,0.067,0.340,-5.337
0.145,0.068,0.336,-5.337
0.174,0.067,0.337,-5.337
0.264,0.067,0.340,-5.337
0.241,0.067,0.338,-5.337
0.186,0.066,0.338,-5.337
0.132,0.069,0.340,-5.337
0.174,0.070,0.341,-5.337
0.238,0.066,0.340,-5.337
0.228,0.065,0.339,-5.337
0.163,0.068,0.340,-5.337
0.154,0.070,0.339,-5.337
0.142,0.071,0.338,-5.337
0.139,0.066,0.336,-5.337
0.210,0.066,0.337,-5.337
0.235,0.067,0.340,-5.337
0.201,0.070,0.343,-5.337
0.176,0.070,0.338,-5.337
0.138,0.070,0.339,-5.337
0.210,0.070,0.347,-5.337
0.217,0.070,0.348,-5.337
0.180,0.066,0.344,-5.337
0.219,0.063,0.338,-5.337
0.242,0.066,0.336,-5.337
0.180,0.067,0.340,-5.337
0.175,0.065,0.342,-5.337
0.245,0.064,0.341,-5.337
0.315,0.062,0.339,-5.337
0.251,0.067,0.340,-5.337
0.157,0.067,0.339,-5.337
0.195,0.064,0.335,-5.337
0.152,0.063,0.333,-5.337
0.110,0.064,0.338,-5.337
0.184,0.065,0.343,-5.337
0.282,0.065,0.339,-5.337
0.203,0.068,0.338,-5.337
0.167,0.065,0.338,-5.337
0.287,0.063,0.338,-5.337
0.275,0.061,0.335,-5.337
0.242,0.061,0.337,-5.337
0.316,0.060,0.340,-5.337
0.308,0.061,0.343,-5.337
0.267,0.060,0.342,-5.337
0.234,0.061,0.342,-5.337
0.243,0.063,0.342,-5.337
0.249,0.063,0.343,-5.337
0.247,0.063,0.341,-5.337
0.270,0.063,0.338,-5.337
0.213,0.063,0.339,-5.337
0.160,0.065,0.343,-5.337
0.103,0.065,0.340,-5.337
0.120,0.064,0.337,-5.337
0.174,0.064,0.336,-5.337
0.162,0.065,0.339,-5.337
0.177,0.065,0.343,-5.337
0.240,0.062,0.343,-5.337
0.266,0.065,0.342,-5.337
0.179,0.065,0.342,-5.337
0.159,0.064,0.341,-5.337
0.190,0.062,0.336,-5.337
0.130,0.064,0.332,-5.337
0.102,0.067,0.329,-5.337
0.116,0.063,0.333,-5.337
0.158,0.058,0.339,-5.337
0.177,0.056,0.342,-5.337
0.188,0.056,0.342,-5.337
0.166,0.062,0.340,-5.337
0.196,0.063,0.340,-5.337
0.199,0.062,0.340,-5.337
0.211,0.056,0.338,-5.337
0.251,0.058,0.339,-5.337
0.293,0.059,0.337,-5.337
0.263,0.061,0.336,-5.337
0.294,0.062,0.339,-5.337
0.303,0.064,0.342,-5.337
0.234,0.061,0.344,-5.337
0.205,0.055,0.342,-5.337
0.186,0.057,0.342,-5.337
0.115,0.059,0.337,-5.337
0.113,0.059,0.337,-5.337
0.150,0.058,0.338,-5.337
0.160,0.055,0.340,-5.337
0.258,0.054,0.340,-5.337
0.276,0.055,0.342,-5.337
0.223,0.056,0.343,-5.337
0.225,0.058,0.344,-5.337
0.260,0.055,0.344,-5.337
0.277,0.058,0.340,-5.337
0.277,0.057,0.337,-5.337
0.274,0.057,0.338,-5.337
0.232,0.058,0.338,-5.337
0.176,0.059,0.338,-5.337
0.136,0.056,0.338,-5.337
0.135,0.055,0.339,-5.337
0.223,0.053,0.338,-5.337
0.242,0.055,0.335,-5.337
0.186,0.056,0.335,-5.337
0.191,0.054,0.338,-5.337
0.243,0.050,0.341,-5.337
0.239,0.047,0.343,-5.337
0.274,0.048,0.344,-5.337
0.324,0.049,0.340,-5.337
0.285,0.054,0.339,-5.337
0.246,0.052,0.340,-5.337
0.209,0.052,0.339,-5.337
0.149,0.057,0.335,-5.337
0.165,0.056,0.332,-5.337
0.154,0.052,0.332,-5.337
0.165,0.052,0.338,-5.337
0.196,0.048,0.338,-5.337
0.133,0.050,0.338,-5.337
0.131,0.048,0.340,-5.337
0.230,0.047,0.343,-5.337
0.197,0.048,0.345,-5.337
0.143,0.050,0.344,-5.337
0.189,0.051,0.344,-5.337
0.191,0.050,0.343,-5.337
0.191,0.050,0.339,-5.337
0.236,0.051,0.339,-5.337
0.231,0.049,0.340,-5.337
0.169,0.048,0.339,-5.337
0.201,0.048,0.336,-5.337
0.235,0.048,0.336,-5.337
0.293,0.047,0.337,-5.337
0.331,0.048,0.339,-5.337
0.245,0.052,0.342,-5.337
0.203,0.051,0.340,-5.337
0.240,0.050,0.341,-5.337
0.267,0.051,0.337,-5.337
0.253,0.051,0.335,-5.337
0.236,0.049,0.341,-5.337
0.281,0.047,0.344,-5.337
0.254,0.045,0.343,-5.337
0.225,0.050,0.344,-5.337
0.193,0.050,0.344,-5.337
0.168,0.052,0.345,-5.337
0.184,0.054,0.344,-5.337
0.163,0.056,0.343,-5.337
0.129,0.055,0.341,-5.337
0.223,0.054,0.341,-5.337
0.341,0.051,0.342,-5.337
0.332,0.050,0.342,-5.337
0.244,0.049,0.340,-5.337
0.184,0.051,0.340,-5.337
0.205,0.049,0.340,-5.337
0.287,0.049,0.337,-5.337
0.278,0.045,0.337,-5.337
0.214,0.043,0.339,-5.337
0.237,0.043,0.343,-5.337
0.320,0.042,0.344,-5.337
0.334,0.042,0.344,-5.337
0.275,0.042,0.343,-5.337
0.293,0.042,0.341,-5.337
0.310,0.039,0.338,-5.337
0.266,0.041,0.339,-5.337
0.176,0.043,0.344,-5.337
0.120,0.046,0.347,-5.337
0.134,0.044,0.348,-5.337
0.193,0.039,0.346,-5.337
0.224,0.039,0.343,-5.337
0.207,0.044,0.339,-5.337
0.231,0.048,0.337,-5.337
0.224,0.048,0.340,-5.337
0.226,0.044,0.344,-5.337
0.211,0.043,0.344,-5.337
0.165,0.043,0.340,-5.337
0.170,0.043,0.341,-5.337
0.190,0.042,0.340,-5.337
0.169,0.045,0.338,-5.337
0.145,0.042,0.342,-5.337
0.160,0.040,0.344,-5.337
0.165,0.042,0.345,-5.337
0.200,0.038,0.341,-5.337
0.229,0.038,0.341,-5.337
0.245,0.036,0.340,-5.337
0.271,0.038,0.339,-5.337
0.297,0.037,0.340,-5.337
0.251,0.040,0.344,-5.337
0.206,0.037,0.345,-5.337
0.264,0.037,0.343,-5.337
0.299,0.038,0.339,-5.337
0.258,0.039,0.340,-5.337
0.172,0.040,0.343,-5.337
0.092,0.043,0.343,-5.337
0.185,0.041,0.340,-5.337
0.276,0.043,0.339,-5.337
0.282,0.045,0.341,-5.337
0.218,0.046,0.342,-5.337
0.146,0.044,0.342,-5.337
0.223,0.041,0.339,-5.337
0.248,0.038,0.337,-5.337
0.262,0.038,0.338,-5.337
0.241,0.039,0.342,-5.337
0.208,0.039,0.343,-5.337
0.202,0.036,0.340,-5.337
0.237,0.036,0.336,-5.337
0.286,0.038,0.334,-5.337
0.137,0.044,0.339,-5.337
0.048,0.048,0.343,-5.337
0.108,0.048,0.343,-5.337
0.255,0.044,0.341,-5.337
0.313,0.042,0.339,-5.337
0.309,0.043,0.342,-5.337
0.270,0.045,0.345,-5.337
0.187,0.041,0.342,-5.337
0.181,0.037,0.340,-5.337
0.257,0.040,0.341,-5.337
0.247,0.044,0.342,-5.337
0.199,0.043,0.341,-5.337
0.103,0.042,0.344,-5.337
0.095,0.045,0.345,-5.337
0.165,0.044,0.339,-5.337
0.181,0.043,0.335,-5.337
0.188,0.042,0.336,-5.337
0.197,0.042,0.336,-5.337
0.211,0.040,0.336,-5.337
0.199,0.040,0.336,-5.337
0.162,0.043,0.344,-5.337
0.235,0.042,0.346,-5.337
0.283,0.042,0.344,-5.337
0.207,0.044,0.342,-5.337
0.154,0.046,0.342,-5.337
0.180,0.047,0.339,-5.337
0.225,0.045,0.335,-5.337
0.260,0.043,0.334,-5.337
0.293,0.043,0.337,-5.337
0.296,0.043,0.345,-5.337
0.226,0.047,0.348,-5.337
0.193,0.047,0.345,-5.337
0.213,0.046,0.344,-5.337
0.233,0.049,0.344,-5.337
0.157,0.052,0.344,-5.337
0.144,0.047,0.343,-5.337
0.189,0.047,0.341,-5.337
0.158,0.047,0.342,-5.337
0.080,0.047,0.341,-5.337
0.114,0.043,0.340,-5.337
0.203,0.042,0.337,-5.337
0.224,0.044,0.339,-5.337
0.202,0.047,0.339,-5.337
0.218,0.044,0.340,-5.337
0.230,0.041,0.340,-5.337
0.273,0.042,0.343,-5.337
0.331,0.041,0.343,-5.337
0.312,0.040,0.342,-5.337
0.296,0.040,0.339,-5.337
0.263,0.043,0.339,-5.337
0.222,0.043,0.339,-5.337
0.236,0.042,0.336,-5.337
0.305,0.038,0.335,-5.337
0.281,0.043,0.340,-5.337
0.283,0.042,0.342,-5.337
0.282,0.042,0.344,-5.337
0.188,0.044,0.344,-5.337
0.187,0.048,0.341,-5.337
0.238,0.050,0.337,-5.337
0.238,0.049,0.337,-5.337
0.234,0.044,0.341,-5.337
0.219,0.045,0.342,-5.337
0.221,0.046,0.342,-5.337
0.240,0.044,0.339,-5.337
0.215,0.047,0.339,-5.337
0.280,0.044,0.340,-5.337
0.289,0.044,0.340,-5.337
0.310,0.043,0.339,-5.337
0.348,0.040,0.338,-5.337
0.271,0.044,0.336,-5.337
0.141,0.052,0.334,-5.337
0.071,0.051,0.335,-5.337
0.085,0.051,0.340,-5.337
0.173,0.047,0.343,-5.337
0.190,0.048,0.345,-5.337
0.157,0.046,0.347,-5.337
0.261,0.047,0.344,-5.337
0.242,0.050,0.342,-5.337
0.159,0.048,0.343,-5.337
0.163,0.045,0.340,-5.337
0.214,0.045,0.337,-5.337
0.218,0.044,0.338,-5.337
0.189,0.042,0.339,-5.337
0.226,0.040,0.338,-5.337
0.254,0.041,0.335,-5.337
0.238,0.039,0.335,-5.337
0.213,0.042,0.338,-5.337
0.242,0.042,0.340,-5.337
0.237,0.040,0.338,-5.337
0.257,0.042,0.340,-5.337
0.221,0.042,0.342,-5.337
0.302,0.040,0.342,-5.337
0.357,0.038,0.341,-5.337
0.254,0.041,0.342,-5.337
0.143,0.043,0.342,-5.337
0.137,0.046,0.344,-5.337
0.178,0.043,0.342,-5.337
0.188,0.040,0.341,-5.337
0.177,0.039,0.339,-5.337
0.131,0.045,0.339,-5.337
0.149,0.045,0.341,-5.337
0.201,0.045,0.344,-5.337
0.151,0.047,0.344,-5.337
0.090,0.048,0.343,-5.337
0.182,0.045,0.342,-5.337
0.198,0.047,0.339,-5.337
0.243,0.043,0.338,-5.337
0.276,0.040,0.336,-5.337
0.196,0.047,0.335,-5.337
0.215,0.046,0.336,-5.337
0.247,0.047,0.342,-5.337
0.228,0.046,0.342,-5.337
0.280,0.045,0.342,-5.337
0.340,0.043,0.340,-5.337
0.305,0.046,0.342,-5.337
0.270,0.045,0.341,-5.337
0.227,0.045,0.340,-5.337
0.260,0.046,0.343,-5.337
0.277,0.050,0.342,-5.337
0.204,0.051,0.338,-5.337
0.159,0.050,0.336,-5.337
0.251,0.047,0.339,-5.337
0.266,0.051,0.342,-5.337
0.203,0.050,0.340,-5.337
0.176,0.050,0.343,-5.337
0.136,0.049,0.342,-5.337
0.150,0.051,0.339,-5.337
0.182,0.049,0.341,-5.337
0.214,0.045,0.343,-5.337
0.186,0.047,0.342,-5.337
0.204,0.052,0.338,-5.337
0.237,0.054,0.342,-5.337
0.245,0.054,0.346,-5.337
0.191,0.058,0.346,-5.337
0.164,0.056,0.342,-5.337
0.204,0.057,0.341,-5.337
0.200,0.056,0.336,-5.337
0.195,0.054,0.334,-5.337
0.138,0.055,0.338,-5.337
0.128,0.055,0.343,-5.337
0.208,0.054,0.345,-5.337
0.246,0.050,0.342,-5.337
0.207,0.050,0.340,-5.337
0.198,0.052,0.343,-5.337
0.169,0.054,0.343,-5.337
0.152,0.054,0.343,-5.337
0.212,0.054,0.339,-5.337
0.195,0.055,0.337,-5.337
0.249,0.053,0.337,-5.337
0.244,0.056,0.336,-5.337
0.202,0.059,0.342,-5.337
0.188,0.056,0.348,-5.337
0.208,0.054,0.345,-5.337
0.257,0.055,0.339,-5.337
0.228,0.056,0.343,-5.337
0.157,0.055,0.344,-5.337
0.109,0.058,0.344,-5.337
0.208,0.056,0.337,-5.337
0.283,0.054,0.336,-5.337
0.297,0.053,0.334,-5.337
0.235,0.056,0.336,-5.337
0.164,0.060,0.341,-5.337
0.230,0.056,0.342,-5.337
0.160,0.056,0.339,-5.337
0.029,0.062,0.337,-5.337
0.008,0.063,0.336,-5.337
0.106,0.059,0.338,-5.337
0.174,0.056,0.339,-5.337
0.170,0.059,0.340,-5.337
0.225,0.063,0.341,-5.337
0.281,0.061,0.341,-5.337
0.297,0.062,0.340,-5.337
0.262,0.062,0.341,-5.337
0.216,0.065,0.344,-5.337
0.182,0.065,0.341,-5.337
0.196,0.061,0.339,-5.337
0.190,0.060,0.339,-5.337
0.181,0.058,0.342,-5.337
0.190,0.057,0.342,-5.337
0.147,0.057,0.338,-5.337
0.196,0.053,0.338,-5.337
0.237,0.055,0.340,-5.337
0.225,0.055,0.336,-5.337
0.200,0.054,0.339,-5.337
0.186,0.052,0.344,-5.337
0.204,0.052,0.344,-5.337
0.252,0.054,0.343,-5.337
0.149,0.059,0.344,-5.337
0.172,0.057,0.341,-5.337
0.283,0.054,0.339,-5.337
0.229,0.056,0.339,-5.337
0.234,0.056,0.338,-5.337
0.267,0.058,0.333,-5.337
0.147,0.062,0.334,-5.337
0.152,0.057,0.340,-5.337
0.181,0.053,0.340,-5.337
0.169,0.052,0.342,-5.337
0.177,0.057,0.344,-5.337
0.184,0.054,0.348,-5.337
0.251,0.051,0.347,-5.337
0.245,0.052,0.342,-5.337
0.191,0.051,0.338,-5.337
0.139,0.055,0.340,-5.337
0.140,0.053,0.343,-5.337
0.173,0.057,0.344,-5.337
0.197,0.061,0.340,-5.337
0.213,0.060,0.338,-5.337
0.242,0.060,0.339,-5.337
0.219,0.060,0.338,-5.337
0.111,0.060,0.337,-5.337
0.050,0.061,0.341,-5.337
0.080,0.061,0.345,-5.337
0.152,0.059,0.347,-5.337
0.204,0.056,0.345,-5.337
0.230,0.055,0.341,-5.337
0.160,0.059,0.338,-5.337
0.181,0.060,0.338,-5.337
0.206,0.062,0.342,-5.337
0.207,0.062,0.342,-5.337
0.196,0.062,0.342,-5.337
0.201,0.063,0.343,-5.337
0.169,0.063,0.346,-5.337
0.134,0.062,0.343,-5.337
0.162,0.060,0.339,-5.337
0.154,0.061,0.335,-5.337
0.202,0.060,0.337,-5.337
0.242,0.057,0.336,-5.337
0.200,0.057,0.342,-5.337
0.188,0.058,0.346,-5.337
0.194,0.059,0.347,-5.337
0.242,0.058,0.344,-5.337
0.228,0.057,0.341,-5.337
0.293,0.057,0.341,-5.337
0.239,0.062,0.346,-5.337
0.171,0.062,0.350,-5.337
0.129,0.062,0.351,-5.337
0.119,0.063,0.346,-5.337
0.168,0.063,0.342,-5.337
0.212,0.062,0.337,-5.337
0.255,0.063,0.335,-5.337
0.299,0.062,0.339,-5.337
0.249,0.061,0.342,-5.337
0.207,0.064,0.340,-5.337
0.138,0.066,0.339,-5.337
0.138,0.067,0.343,-5.337
0.186,0.063,0.342,-5.337
0.209,0.062,0.340,-5.337
0.141,0.064,0.340,-5.337
0.145,0.064,0.338,-5.337
0.191,0.066,0.335,-5.337
0.193,0.068,0.339,-5.337
0.258,0.061,0.345,-5.337
0.318,0.059,0.346,-5.337
0.263,0.061,0.345,-5.337
0.173,0.065,0.341,-5.337
0.113,0.066,0.336,-5.337
0.140,0.067,0.335,-5.337
0.171,0.065,0.338,-5.337
0.230,0.068,0.342,-5.337
0.195,0.071,0.341,-5.337
0.142,0.068,0.340,-5.337
0.242,0.068,0.342,-5.337
0.210,0.067,0.341,-5.337
0.187,0.066,0.341,-5.337
0.178,0.064,0.342,-5.337
0.201,0.066,0.342,-5.337
0.225,0.067,0.341,-5.337
0.242,0.066,0.343,-5.337
0.192,0.071,0.345,-5.337
0.174,0.072,0.347,-5.337
0.189,0.069,0.347,-5.337
0.226,0.071,0.342,-5.337
0.233,0.065,0.339,-5.337
0.232,0.067,0.338,-5.337
0.177,0.070,0.340,-5.337
0.173,0.069,0.342,-5.337
0.285,0.063,0.341,-5.337
0.351,0.064,0.342,-5.337
0.294,0.068,0.341,-5.337
0.212,0.068,0.342,-5.337
0.241,0.065,0.340,-5.337
0.229,0.067,0.339,-5.337
0.184,0.070,0.345,-5.337
0.200,0.066,0.346,-5.337
0.241,0.066,0.342,-5.337
0.235,0.065,0.339,-5.337
0.160,0.065,0.344,-5.337
0.127,0.064,0.343,-5.337
0.206,0.062,0.341,-5.337
0.224,0.065,0.339,-5.337
0.149,0.068,0.339,-5.337
0.129,0.065,0.337,-5.337
0.227,0.065,0.339,-5.337
0.165,0.071,0.339,-5.337
0.110,0.073,0.340,-5.337
0.183,0.067,0.344,-5.337
0.169,0.066,0.346,-5.337
0.156,0.065,0.342,-5.337
0.198,0.068,0.342,-5.337
0.241,0.068,0.344,-5.337
0.249,0.068,0.345,-5.337
0.270,0.067,0.340,-5.337
0.226,0.068,0.338,-5.337
0.196,0.069,0.341,-5.337
0.205,0.068,0.345,-5.337
0.208,0.069,0.345,-5.337
0.252,0.070,0.344,-5.337
0.307,0.068,0.343,-5.337
0.279,0.068,0.340,-5.337
0.224,0.066,0.341,-5.337
0.176,0.066,0.342,-5.337
0.181,0.066,0.346,-5.337
0.176,0.061,0.345,-5.337
0.201,0.061,0.343,-5.337
0.168,0.063,0.340,-5.337
0.103,0.065,0.338,-5.337
0.086,0.064,0.336,-5.337
0.166,0.062,0.342,-5.337
0.236,0.059,0.345,-5.337
0.241,0.061,0.341,-5.337
0.232,0.060,0.341,-5.337
0.221,0.061,0.343,-5.337
0.154,0.062,0.344,-5.337
0.155,0.061,0.340,-5.337
0.228,0.059,0.339,-5.337
0.285,0.060,0.341,-5.337
0.341,0.058,0.341,-5.337
0.357,0.060,0.343,-5.337
0.263,0.062,0.342,-5.337
0.190,0.066,0.337,-5.337
0.207,0.068,0.338,-5.337
0.168,0.064,0.342,-5.337
0.108,0.063,0.344,-5.337
0.125,0.062,0.341,-5.337
0.135,0.063,0.342,-5.337
0.172,0.062,0.342,-5.337
0.181,0.065,0.339,-5.337
0.173,0.064,0.338,-5.337
0.201,0.062,0.340,-5.337
0.211,0.061,0.339,-5.337
0.183,0.062,0.338,-5.337
0.191,0.062,0.340,-5.337
0.213,0.061,0.345,-5.337
0.230,0.061,0.346,-5.337
0.228,0.061,0.343,-5.337
0.233,0.061,0.340,-5.337
0.288,0.062,0.340,-5.337
0.225,0.063,0.341,-5.337
0.184,0.061,0.338,-5.337
0.179,0.058,0.335,-5.337
0.193,0.059,0.335,-5.337
0.194,0.063,0.339,-5.337
0.222,0.058,0.342,-5.337
0.238,0.058,0.343,-5.337
0.230,0.059,0.342,-5.337
0.220,0.059,0.342,-5.337
0.216,0.055,0.340,-5.337
0.254,0.057,0.338,-5.337
0.270,0.058,0.333,-5.337
0.244,0.058,0.335,-5.337
0.189,0.060,0.335,-5.337
0.115,0.061,0.336,-5.337
0.137,0.060,0.339,-5.337
0.212,0.058,0.342,-5.337
0.245,0.059,0.346,-5.337
0.233,0.060,0.345,-5.337
0.142,0.055,0.340,-5.337
0.093,0.056,0.334,-5.337
0.122,0.054,0.331,-5.337
0.215,0.055,0.336,-5.337
0.286,0.054,0.341,-5.337
0.260,0.056,0.344,-5.337
0.248,0.052,0.348,-5.337
0.223,0.049,0.349,-5.337
0.232,0.049,0.348,-5.337
0.250,0.050,0.341,-5.337
0.211,0.054,0.338,-5.337
0.210,0.050,0.339,-5.337
0.243,0.049,0.342,-5.337
0.235,0.049,0.342,-5.337
0.238,0.049,0.342,-5.337
0.257,0.050,0.340,-5.337
0.260,0.051,0.339,-5.337
0.230,0.051,0.340,-5.337
0.190,0.054,0.339,-5.337
0.232,0.052,0.338,-5.337
0.196,0.055,0.339,-5.337
0.159,0.053,0.341,-5.337
0.189,0.054,0.343,-5.337
0.263,0.049,0.345,-5.337
0.240,0.048,0.346,-5.337
0.166,0.050,0.342,-5.337
0.101,0.054,0.340,-5.337
0.073,0.053,0.340,-5.337
0.120,0.049,0.338,-5.337
0.155,0.048,0.339,-5.337
0.223,0.049,0.339,-5.337
0.260,0.053,0.340,-5.337
0.242,0.051,0.339,-5.337
0.187,0.049,0.339,-5.337
0.166,0.046,0.338,-5.337
0.155,0.045,0.344,-5.337
0.159,0.046,0.344,-5.337
0.128,0.047,0.340,-5.337
0.084,0.050,0.339,-5.337
0.098,0.050,0.341,-5.337
0.183,0.046,0.343,-5.337
0.244,0.046,0.342,-5.337
0.257,0.048,0.339,-5.337
0.215,0.049,0.338,-5.337
0.154,0.045,0.340,-5.337
0.195,0.042,0.344,-5.337
0.272,0.044,0.342,-5.337
0.317,0.046,0.342,-5.337
0.326,0.048,0.344,-5.337
0.323,0.045,0.350,-5.337
0.339,0.043,0.345,-5.337
0.280,0.047,0.336,-5.337
0.253,0.048,0.337,-5.337
0.286,0.044,0.340,-5.337
0.304,0.044,0.341,-5.337
0.250,0.046,0.342,-5.337
0.187,0.046,0.343,-5.337
0.125,0.046,0.341,-5.337
0.167,0.046,0.343,-5.337
0.220,0.047,0.344,-5.337
0.234,0.045,0.344,-5.337
0.262,0.041,0.340,-5.337
0.242,0.044,0.339,-5.337
0.153,0.046,0.338,-5.337
0.104,0.049,0.339,-5.337
0.134,0.046,0.342,-5.337
0.155,0.045,0.343,-5.337
0.125,0.043,0.342,-5.337
0.114,0.043,0.341,-5.337
0.109,0.039,0.341,-5.337
0.138,0.039,0.345,-5.337
0.143,0.042,0.347,-5.337
0.184,0.041,0.343,-5.337
0.233,0.039,0.338,-5.337
0.182,0.038,0.336,-5.337
0.115,0.040,0.336,-5.337
0.189,0.041,0.335,-5.337
0.349,0.040,0.338,-5.337
0.405,0.038,0.341,-5.337
0.254,0.040,0.346,-5.337
0.176,0.039,0.345,-5.337
0.191,0.041,0.342,-5.337
0.188,0.044,0.338,-5.337
0.162,0.044,0.336,-5.337
0.167,0.041,0.336,-5.337
0.163,0.042,0.336,-5.337
0.172,0.043,0.339,-5.337
0.227,0.038,0.342,-5.337
0.302,0.033,0.345,-5.337
0.330,0.030,0.345,-5.337
0.325,0.032,0.343,-5.337
0.164,0.039,0.343,-5.337
0.037,0.043,0.340,-5.337
0.120,0.034,0.338,-5.337
0.244,0.027,0.339,-5.337
0.223,0.033,0.342,-5.337
0.195,0.036,0.340,-5.337
0.255,0.034,0.340,-5.337
0.269,0.035,0.341,-5.337
0.207,0.042,0.341,-5.337
0.099,0.041,0.340,-5.337
0.079,0.040,0.337,-5.337
0.151,0.041,0.338,-5.337
0.166,0.041,0.340,-5.337
0.117,0.041,0.344,-5.337
0.126,0.039,0.345,-5.337
0.156,0.035,0.343,-5.337
0.187,0.034,0.340,-5.337
0.172,0.034,0.342,-5.337
0.178,0.034,0.344,-5.337
0.207,0.033,0.346,-5.337
0.258,0.030,0.344,-5.337
0.267,0.035,0.342,-5.337
0.233,0.040,0.340,-5.337
0.199,0.038,0.340,-5.337
0.269,0.035,0.342,-5.337
0.291,0.034,0.346,-5.337
0.247,0.038,0.347,-5.337
0.226,0.038,0.345,-5.337
0.224,0.036,0.338,-5.337
0.295,0.033,0.332,-5.337
0.273,0.033,0.335,-5.337
0.250,0.032,0.338,-5.337
0.211,0.032,0.342,-5.337
0.176,0.033,0.344,-5.337
0.178,0.032,0.345,-5.337
0.194,0.032,0.344,-5.337
0.246,0.034,0.347,-5.337
0.194,0.033,0.343,-5.337
0.137,0.032,0.340,-5.337
0.121,0.035,0.339,-5.337
0.116,0.036,0.344,-5.337
0.192,0.032,0.342,-5.337
0.202,0.033,0.342,-5.337
0.205,0.033,0.344,-5.337
0.253,0.033,0.346,-5.337
0.230,0.037,0.344,-5.337
0.205,0.039,0.343,-5.337
0.211,0.038,0.345,-5.337
0.257,0.037,0.345,-5.337
0.294,0.036,0.346,-5.337
0.255,0.036,0.345,-5.337
0.185,0.034,0.342,-5.337
0.246,0.037,0.342,-5.337
0.286,0.037,0.343,-5.337
0.311,0.032,0.340,-5.337
0.298,0.030,0.335,-5.337
0.274,0.032,0.338,-5.337
0.227,0.036,0.344,-5.337
0.119,0.040,0.341,-5.337
0.092,0.038,0.336,-5.337
0.124,0.034,0.339,-5.337
0.180,0.034,0.344,-5.337
0.170,0.034,0.341,-5.337
0.148,0.038,0.342,-5.337
0.180,0.038,0.341,-5.337
0.201,0.037,0.343,-5.337
0.256,0.034,0.345,-5.337
0.278,0.034,0.344,-5.337
0.282,0.034,0.340,-5.337
0.229,0.036,0.336,-5.337
0.143,0.037,0.333,-5.337
0.136,0.037,0.333,-5.337
0.190,0.032,0.341,-5.337
0.232,0.034,0.346,-5.337
0.174,0.036,0.346,-5.337
0.158,0.034,0.342,-5.337
0.170,0.035,0.340,-5.337
0.195,0.034,0.342,-5.337
0.275,0.034,0.344,-5.337
0.369,0.030,0.343,-5.337
0.335,0.028,0.343,-5.337
0.232,0.030,0.341,-5.337
0.151,0.029,0.340,-5.337
0.152,0.027,0.341,-5.337
0.256,0.023,0.342,-5.337
0.267,0.026,0.342,-5.337
0.216,0.028,0.342,-5.337
0.211,0.028,0.346,-5.337
0.208,0.031,0.348,-5.337
0.164,0.030,0.345,-5.337
0.145,0.028,0.343,-5.337
0.168,0.033,0.338,-5.337
0.175,0.033,0.336,-5.337
0.182,0.029,0.340,-5.337
0.182,0.028,0.342,-5.337
0.195,0.031,0.337,-5.337
0.212,0.033,0.335,-5.337
0.233,0.031,0.342,-5.337
0.199,0.030,0.343,-5.337
0.162,0.031,0.341,-5.337
0.143,0.032,0.339,-5.337
0.179,0.032,0.341,-5.337
0.265,0.029,0.345,-5.337
0.215,0.036,0.348,-5.337
0.153,0.039,0.347,-5.337
0.169,0.036,0.346,-5.337
0.267,0.032,0.339,-5.337
0.289,0.036,0.334,-5.337
0.192,0.038,0.335,-5.337
0.158,0.036,0.337,-5.337
0.269,0.029,0.342,-5.337
0.256,0.032,0.344,-5.337
0.235,0.036,0.343,-5.337
0.242,0.037,0.342,-5.337
0.175,0.041,0.342,-5.337
0.186,0.038,0.344,-5.337
0.275,0.035,0.341,-5.337
0.296,0.034,0.339,-5.337
0.222,0.038,0.341,-5.337
0.128,0.038,0.344,-5.337
0.172,0.032,0.341,-5.337
0.270,0.034,0.335,-5.337
0.167,0.036,0.335,-5.337
0.115,0.036,0.343,-5.337
0.227,0.034,0.349,-5.337
0.296,0.036,0.348,-5.337
0.270,0.041,0.347,-5.337
0.268,0.038,0.346,-5.337
0.302,0.036,0.347,-5.337
0.303,0.033,0.343,-5.337
0.288,0.036,0.340,-5.337
0.258,0.039,0.340,-5.337
0.232,0.039,0.342,-5.337
0.168,0.040,0.342,-5.337
0.147,0.037,0.341,-5.337
0.182,0.036,0.339,-5.337
0.206,0.039,0.337,-5.337
0.179,0.037,0.337,-5.337
0.147,0.035,0.339,-5.337
0.200,0.034,0.343,-5.337
0.214,0.034,0.346,-5.337
0.186,0.033,0.342,-5.337
0.168,0.032,0.341,-5.337
0.220,0.030,0.339,-5.337
0.299,0.033,0.338,-5.337
0.292,0.035,0.338,-5.337
0.211,0.036,0.340,-5.337
0.137,0.040,0.340,-5.337
0.138,0.041,0.337,-5.337
0.216,0.041,0.340,-5.337
0.220,0.042,0.341,-5.337
0.172,0.047,0.342,-5.337
0.138,0.047,0.342,-5.337
0.187,0.047,0.345,-5.337
0.222,0.046,0.342,-5.337
0.272,0.044,0.341,-5.337
0.263,0.046,0.337,-5.337
0.193,0.046,0.335,-5.337
0.219,0.041,0.339,-5.337
0.222,0.040,0.342,-5.337
0.186,0.045,0.342,-5.337
0.225,0.047,0.342,-5.337
0.309,0.042,0.343,-5.337
0.349,0.040,0.342,-5.337
0.338,0.041,0.340,-5.337
0.314,0.042,0.340,-5.337
0.268,0.037,0.338,-5.337
0.249,0.038,0.338,-5.337
0.195,0.042,0.339,-5.337
0.133,0.041,0.338,-5.337
0.102,0.040,0.341,-5.337
0.076,0.043,0.342,-5.337
0.040,0.047,0.345,-5.337
0.079,0.044,0.346,-5.337
0.123,0.045,0.345,-5.337
0.119,0.047,0.341,-5.337
0.129,0.051,0.339,-5.337
0.113,0.050,0.339,-5.337
0.130,0.050,0.337,-5.337
0.186,0.046,0.336,-5.337
0.215,0.046,0.338,-5.337
0.180,0.049,0.337,-5.337
0.236,0.050,0.336,-5.337
0.233,0.048,0.339,-5.337
0.203,0.050,0.344,-5.337
0.240,0.051,0.345,-5.337
0.231,0.050,0.344,-5.337
0.222,0.051,0.343,-5.337
0.274,0.051,0.344,-5.337
0.271,0.050,0.342,-5.337
0.158,0.049,0.340,-5.337
0.174,0.049,0.344,-5.337
0.271,0.047,0.344,-5.337
0.314,0.046,0.340,-5.337
0.377,0.045,0.336,-5.337
0.339,0.044,0.339,-5.337
0.220,0.046,0.342,-5.337
0.197,0.048,0.345,-5.337
0.256,0.048,0.346,-5.337
0.213,0.050,0.343,-5.337
0.215,0.047,0.338,-5.337
0.238,0.050,0.336,-5.337
0.228,0.048,0.336,-5.337
0.266,0.052,0.342,-5.337
0.289,0.052,0.346,-5.337
0.226,0.051,0.348,-5.337
0.203,0.050,0.343,-5.337
0.230,0.049,0.340,-5.337
0.223,0.052,0.341,-5.337
0.184,0.050,0.342,-5.337
0.192,0.049,0.341,-5.337
0.178,0.054,0.341,-5.337
0.197,0.056,0.341,-5.337
0.190,0.056,0.340,-5.337
0.188,0.051,0.342,-5.337
0.170,0.050,0.343,-5.337
0.215,0.049,0.342,-5.337
0.240,0.052,0.336,-5.337
0.211,0.054,0.335,-5.337
0.159,0.053,0.338,-5.337
0.090,0.053,0.340,-5.337
0.113,0.050,0.341,-5.337
0.141,0.047,0.343,-5.337
0.170,0.048,0.343,-5.337
0.259,0.049,0.340,-5.337
0.223,0.052,0.341,-5.337
0.127,0.052,0.342,-5.337
0.080,0.051,0.342,-5.337
0.219,0.051,0.342,-5.337
0.236,0.054,0.340,-5.337
0.230,0.054,0.339,-5.337
0.294,0.051,0.338,-5.337
0.252,0.053,0.340,-5.337
0.228,0.056,0.340,-5.337
0.202,0.058,0.342,-5.337
0.211,0.056,0.347,-5.337
0.201,0.056,0.349,-5.337
0.254,0.053,0.344,-5.337
0.267,0.054,0.338,-5.337
0.249,0.053,0.337,-5.337
0.245,0.056,0.338,-5.337
0.149,0.055,0.339,-5.337
0.167,0.052,0.342,-5.337
0.290,0.051,0.344,-5.337
0.318,0.053,0.346,-5.337
0.249,0.055,0.348,-5.337
0.204,0.054,0.348,-5.337
0.287,0.054,0.346,-5.337
0.331,0.053,0.342,-5.337
0.281,0.056,0.341,-5.337
0.240,0.054,0.338,-5.337
0.205,0.056,0.334,-5.337
0.196,0.054,0.333,-5.337
0.166,0.055,0.335,-5.337
0.094,0.058,0.340,-5.337
0.065,0.059,0.341,-5.337
0.111,0.058,0.340,-5.337
0.230,0.057,0.338,-5.337
0.207,0.056,0.339,-5.337
0.128,0.056,0.338,-5.337
0.210,0.055,0.340,-5.337
0.319,0.059,0.340,-5.337
0.271,0.063,0.342,-5.337
0.151,0.063,0.341,-5.337
0.180,0.062,0.340,-5.337
0.170,0.062,0.341,-5.337
0.177,0.058,0.341,-5.337
0.254,0.056,0.339,-5.337
0.238,0.057,0.336,-5.337
0.214,0.056,0.338,-5.337
0.207,0.057,0.342,-5.337
0.230,0.058,0.345,-5.337
0.251,0.065,0.345,-5.337
0.243,0.065,0.341,-5.337
0.239,0.064,0.339,-5.337
0.168,0.063,0.339,-5.337
0.183,0.064,0.342,-5.337
0.233,0.064,0.346,-5.337
0.200,0.067,0.344,-5.337
0.154,0.066,0.340,-5.337
0.138,0.065,0.339,-5.337
0.184,0.063,0.343,-5.337
0.181,0.065,0.342,-5.337
0.215,0.063,0.343,-5.337
0.275,0.061,0.342,-5.337
0.263,0.062,0.340,-5.337
0.167,0.066,0.341,-5.337
0.198,0.063,0.345,-5.337
0.269,0.059,0.345,-5.337
0.245,0.061,0.341,-5.337
0.180,0.063,0.337,-5.337
0.183,0.063,0.337,-5.337
0.228,0.062,0.341,-5.337
0.271,0.066,0.343,-5.337
0.261,0.068,0.345,-5.337
0.263,0.067,0.343,-5.337
0.237,0.067,0.340,-5.337
0.225,0.065,0.342,-5.337
0.171,0.069,0.346,-5.337
0.129,0.071,0.346,-5.337
0.227,0.064,0.343,-5.337
0.209,0.066,0.337,-5.337
0.142,0.068,0.337,-5.337
0.182,0.068,0.339,-5.337
0.113,0.070,0.343,-5.337
0.038,0.070,0.347,-5.337
0.061,0.070,0.346,-5.337
0.189,0.067,0.345,-5.337
0.251,0.063,0.347,-5.337
0.169,0.059,0.343,-5.337
0.121,0.061,0.341,-5.337
0.154,0.060,0.341,-5.337
0.243,0.056,0.347,-5.337
0.228,0.057,0.346,-5.337
0.189,0.060,0.341,-5.337
0.146,0.060,0.341,-5.337
0.171,0.058,0.344,-5.337
0.197,0.059,0.347,-5.337
0.208,0.062,0.345,-5.337
0.215,0.062,0.343,-5.337
0.215,0.062,0.342,-5.337
0.196,0.066,0.339,-5.337
0.146,0.065,0.335,-5.337
0.144,0.063,0.339,-5.337
0.188,0.062,0.344,-5.337
0.247,0.058,0.344,-5.337
0.197,0.062,0.341,-5.337
0.172,0.063,0.342,-5.337
0.226,0.060,0.343,-5.337
0.261,0.061,0.344,-5.337
0.234,0.061,0.342,-5.337
0.244,0.063,0.339,-5.337
0.233,0.061,0.336,-5.337
0.211,0.060,0.339,-5.337
0.187,0.061,0.341,-5.337
0.167,0.066,0.341,-5.337
0.207,0.068,0.342,-5.337
0.234,0.066,0.342,-5.337
0.202,0.065,0.343,-5.337
0.154,0.065,0.343,-5.337
0.187,0.067,0.342,-5.337
0.268,0.065,0.341,-5.337
0.283,0.063,0.344,-5.337
0.249,0.060,0.344,-5.337
0.196,0.061,0.341,-5.337
0.155,0.066,0.340,-5.337
0.176,0.063,0.342,-5.337
0.200,0.060,0.342,-5.337
0.240,0.059,0.342,-5.337
0.245,0.061,0.344,-5.337
0.150,0.064,0.345,-5.337
0.146,0.065,0.342,-5.337
0.183,0.065,0.341,-5.337
0.229,0.062,0.339,-5.337
0.272,0.063,0.340,-5.337
0.233,0.066,0.339,-5.337
0.182,0.068,0.340,-5.337
0.048,0.068,0.341,-5.337
0.038,0.066,0.341,-5.337
0.127,0.061,0.342,-5.337
0.236,0.058,0.342,-5.337
0.227,0.063,0.342,-5.337
0.173,0.065,0.341,-5.337
0.191,0.061,0.336,-5.337
0.304,0.059,0.336,-5.337
0.327,0.060,0.339,-5.337
0.240,0.062,0.343,-5.337
0.220,0.059,0.348,-5.337
0.230,0.055,0.346,-5.337
0.210,0.055,0.344,-5.337
0.235,0.054,0.345,-5.337
0.336,0.056,0.346,-5.337
0.311,0.055,0.344,-5.337
0.220,0.056,0.341,-5.337
0.206,0.055,0.337,-5.337
0.285,0.055,0.343,-5.337
0.284,0.056,0.344,-5.337
0.214,0.059,0.341,-5.337
0.169,0.057,0.339,-5.337
0.186,0.057,0.343,-5.337
0.236,0.056,0.349,-5.337
0.209,0.061,0.345,-5.337
0.105,0.062,0.340,-5.337
0.080,0.059,0.341,-5.337
0.144,0.056,0.340,-5.337
0.229,0.056,0.341,-5.337
0.249,0.057,0.343,-5.337
0.225,0.058,0.344,-5.337
0.260,0.059,0.344,-5.337
0.281,0.059,0.342,-5.337
0.255,0.059,0.341,-5.337
0.261,0.055,0.339,-5.337
0.229,0.061,0.342,-5.337
0.116,0.065,0.341,-5.337
0.129,0.057,0.341,-5.337
0.274,0.054,0.340,-5.337
0.276,0.056,0.342,-5.337
0.130,0.066,0.340,-5.337
0.061,0.066,0.340,-5.337
0.097,0.057,0.342,-5.337
0.170,0.061,0.345,-5.337
0.153,0.064,0.347,-5.337
0.124,0.063,0.347,-5.337
0.186,0.058,0.344,-5.337
0.234,0.057,0.341,-5.337
0.211,0.057,0.338,-5.337
0.221,0.059,0.337,-5.337
0.261,0.060,0.336,-5.337
0.207,0.059,0.337,-5.337
0.189,0.060,0.343,-5.337
0.177,0.058,0.346,-5.337
0.199,0.055,0.345,-5.337
0.176,0.055,0.339,-5.337
0.113,0.061,0.341,-5.337
0.139,0.060,0.343,-5.337
0.163,0.057,0.342,-5.337
0.201,0.053,0.341,-5.337
0.156,0.055,0.343,-5.337
0.177,0.056,0.339,-5.337
0.191,0.055,0.339,-5.337
0.187,0.054,0.340,-5.337
0.206,0.054,0.344,-5.337
0.170,0.056,0.346,-5.337
0.213,0.054,0.344,-5.337
0.237,0.053,0.342,-5.337
0.195,0.058,0.343,-5.337
0.171,0.056,0.342,-5.337
0.184,0.056,0.342,-5.337
0.235,0.053,0.342,-5.337
0.208,0.054,0.341,-5.337
0.200,0.051,0.339,-5.337
0.242,0.050,0.338,-5.337
0.278,0.051,0.339,-5.337
0.239,0.051,0.339,-5.337
0.185,0.052,0.341,-5.337
0.168,0.051,0.343,-5.337
0.206,0.053,0.343,-5.337
0.183,0.052,0.341,-5.337
0.157,0.051,0.340,-5.337
0.157,0.050,0.338,-5.337
0.246,0.047,0.341,-5.337
0.259,0.045,0.345,-5.337
0.223,0.049,0.346,-5.337
0.140,0.049,0.339,-5.337
0.137,0.052,0.338,-5.337
0.174,0.048,0.340,-5.337
0.206,0.049,0.344,-5.337
0.211,0.047,0.343,-5.337
0.242,0.049,0.338,-5.337
0.152,0.052,0.338,-5.337
0.120,0.048,0.338,-5.337
0.204,0.042,0.338,-5.337
0.232,0.044,0.340,-5.337
0.210,0.049,0.341,-5.337
0.230,0.046,0.342,-5.337
0.289,0.039,0.341,-5.337
0.316,0.041,0.342,-5.337
0.259,0.045,0.343,-5.337
0.196,0.047,0.344,-5.337
0.204,0.042,0.342,-5.337
0.191,0.042,0.341,-5.337
0.213,0.044,0.339,-5.337
0.251,0.047,0.338,-5.337
0.234,0.046,0.343,-5.337
0.235,0.044,0.347,-5.337
0.298,0.047,0.347,-5.337
0.224,0.053,0.344,-5.337
0.214,0.049,0.342,-5.337
0.241,0.047,0.337,-5.337
0.230,0.049,0.338,-5.337
0.183,0.053,0.340,-5.337
0.152,0.054,0.341,-5.337
0.167,0.048,0.342,-5.337
0.175,0.047,0.342,-5.337
0.185,0.045,0.339,-5.337
0.245,0.046,0.335,-5.337
0.271,0.049,0.338,-5.337
0.249,0.052,0.341,-5.337
0.252,0.052,0.347,-5.337
0.173,0.050,0.353,-5.337
0.184,0.046,0.351,-5.337
0.177,0.045,0.345,-5.337
0.174,0.045,0.342,-5.337
0.221,0.044,0.341,-5.337
0.215,0.043,0.342,-5.337
0.165,0.042,0.340,-5.337
0.193,0.043,0.340,-5.337
0.235,0.046,0.339,-5.337
0.245,0.049,0.344,-5.337
0.198,0.045,0.344,-5.337
0.183,0.044,0.347,-5.337
0.223,0.044,0.345,-5.337
0.171,0.049,0.342,-5.337
0.123,0.051,0.340,-5.337
0.184,0.053,0.342,-5.337
0.251,0.047,0.344,-5.337
0.279,0.045,0.344,-5.337
0.251,0.045,0.343,-5.337
0.177,0.046,0.346,-5.337
0.150,0.048,0.345,-5.337
0.247,0.043,0.342,-5.337
0.353,0.042,0.343,-5.337
0.361,0.044,0.342,-5.337
0.282,0.044,0.339,-5.337
0.251,0.043,0.341,-5.337
0.241,0.043,0.348,-5.337
0.230,0.039,0.349,-5.337
0.195,0.040,0.347,-5.337
0.185,0.044,0.344,-5.337
0.229,0.047,0.344,-5.337
0.247,0.048,0.345,-5.337
0.216,0.046,0.342,-5.337
0.258,0.044,0.339,-5.337
0.326,0.046,0.335,-5.337
0.283,0.051,0.335,-5.337
0.250,0.051,0.341,-5.337
0.292,0.044,0.346,-5.337
0.325,0.042,0.348,-5.337
0.320,0.042,0.344,-5.337
0.249,0.047,0.344,-5.337
0.188,0.049,0.343,-5.337
0.186,0.047,0.343,-5.337
0.151,0.046,0.343,-5.337
0.089,0.047,0.341,-5.337
0.070,0.048,0.340,-5.337
0.111,0.043,0.342,-5.337
0.214,0.041,0.346,-5.337
0.241,0.044,0.344,-5.337
0.240,0.047,0.342,-5.337
0.177,0.049,0.342,-5.337
0.161,0.047,0.339,-5.337
0.137,0.044,0.337,-5.337
0.236,0.040,0.340,-5.337
0.317,0.040,0.341,-5.337
0.226,0.043,0.341,-5.337
0.247,0.042,0.338,-5.337
0.232,0.043,0.336,-5.337
0.176,0.044,0.338,-5.337
0.196,0.043,0.342,-5.337
0.214,0.042,0.345,-5.337
0.239,0.043,0.344,-5.337
0.169,0.043,0.342,-5.337
0.114,0.047,0.347,-5.337
0.149,0.046,0.345,-5.337
0.223,0.045,0.341,-5.337
0.271,0.045,0.338,-5.337
0.294,0.043,0.338,-5.337
0.291,0.038,0.344,-5.337
0.280,0.040,0.347,-5.337
0.273,0.041,0.346,-5.337
0.214,0.044,0.345,-5.337
0.205,0.047,0.344,-5.337
0.176,0.047,0.343,-5.337
0.137,0.045,0.346,-5.337
0.143,0.045,0.346,-5.337
0.161,0.052,0.345,-5.337
0.117,0.051,0.343,-5.337
0.125,0.046,0.344,-5.337
0.161,0.044,0.342,-5.337
0.165,0.045,0.343,-5.337
0.203,0.046,0.344,-5.337
0.266,0.045,0.345,-5.337
0.267,0.044,0.341,-5.337
0.251,0.046,0.338,-5.337
0.349,0.044,0.339,-5.337
0.280,0.047,0.342,-5.337
0.200,0.041,0.343,-5.337
0.236,0.043,0.342,-5.337
0.225,0.045,0.342,-5.337
0.192,0.045,0.342,-5.337
0.275,0.039,0.342,-5.337
0.356,0.038,0.347,-5.337
0.347,0.040,0.349,-5.337
0.324,0.040,0.348,-5.337
0.313,0.040,0.343,-5.337
0.315,0.042,0.339,-5.337
0.283,0.042,0.340,-5.337
0.169,0.045,0.340,-5.337
0.163,0.043,0.342,-5.337
0.184,0.043,0.342,-5.337
0.168,0.044,0.341,-5.337
0.243,0.046,0.340,-5.337
0.335,0.045,0.340,-5.337
0.305,0.044,0.342,-5.337
0.226,0.047,0.341,-5.337
0.217,0.043,0.340,-5.337
0.227,0.041,0.339,-5.337
0.171,0.041,0.343,-5.337
0.196,0.043,0.350,-5.337
0.228,0.046,0.350,-5.337
0.211,0.049,0.347,-5.337
0.121,0.047,0.343,-5.337
0.151,0.043,0.342,-5.337
0.239,0.043,0.346,-5.337
0.258,0.042,0.348,-5.337
0.271,0.043,0.346,-5.337
0.285,0.043,0.343,-5.337
0.217,0.046,0.343,-5.337
0.185,0.046,0.342,-5.337
0.191,0.045,0.342,-5.337
0.218,0.050,0.339,-5.337
0.227,0.049,0.342,-5.337
0.216,0.046,0.342,-5.337
0.177,0.046,0.342,-5.337
0.218,0.044,0.342,-5.337
0.233,0.044,0.341,-5.337
0.172,0.046,0.341,-5.337
0.175,0.044,0.345,-5.337
0.215,0.042,0.346,-5.337
0.169,0.046,0.344,-5.337
0.076,0.049,0.342,-5.337
0.057,0.049,0.341,-5.337
0.137,0.045,0.339,-5.337
0.195,0.042,0.340,-5.337
0.146,0.046,0.340,-5.337
0.147,0.044,0.338,-5.337
0.169,0.044,0.339,-5.337
0.182,0.041,0.342,-5.337
0.276,0.037,0.343,-5.337
0.317,0.038,0.342,-5.337
0.239,0.040,0.343,-5.337
0.270,0.038,0.341,-5.337
0.243,0.039,0.341,-5.337
0.197,0.039,0.342,-5.337
0.246,0.039,0.344,-5.337
0.233,0.042,0.345,-5.337
0.157,0.046,0.346,-5.337
0.110,0.044,0.343,-5.337
0.132,0.044,0.339,-5.337
0.193,0.043,0.337,-5.337
0.286,0.041,0.340,-5.337
0.285,0.039,0.341,-5.337
0.281,0.040,0.340,-5.337
0.324,0.041,0.340,-5.337
0.326,0.044,0.343,-5.337
0.284,0.046,0.342,-5.337
0.248,0.045,0.340,-5.337
0.264,0.039,0.342,-5.337
0.225,0.042,0.344,-5.337
0.181,0.045,0.347,-5.337
0.175,0.043,0.345,-5.337
0.154,0.046,0.341,-5.337
0.148,0.046,0.338,-5.337
0.136,0.046,0.339,-5.337
0.126,0.046,0.338,-5.337
0.171,0.041,0.340,-5.337
0.295,0.042,0.342,-5.337
0.314,0.044,0.344,-5.337
0.190,0.044,0.343,-5.337
0.175,0.046,0.345,-5.337
0.186,0.049,0.346,-5.337
0.185,0.047,0.343,-5.337
0.203,0.045,0.341,-5.337
0.161,0.046,0.340,-5.337
0.147,0.050,0.342,-5.337
0.153,0.051,0.343,-5.337
0.171,0.051,0.342,-5.337
0.217,0.048,0.338,-5.337
0.194,0.045,0.339,-5.337
0.244,0.048,0.340,-5.337
0.244,0.048,0.341,-5.337
0.240,0.045,0.342,-5.337
0.203,0.042,0.342,-5.337
0.177,0.046,0.342,-5.337
0.189,0.047,0.345,-5.337
0.226,0.046,0.343,-5.337
0.227,0.044,0.340,-5.337
0.163,0.046,0.338,-5.337
0.149,0.046,0.343,-5.337
0.156,0.045,0.345,-5.337
0.148,0.043,0.346,-5.337
0.165,0.041,0.342,-5.337
0.218,0.045,0.343,-5.337
0.266,0.044,0.344,-5.337
0.201,0.047,0.344,-5.337
0.159,0.050,0.341,-5.337
0.189,0.051,0.341,-5.337
0.206,0.048,0.343,-5.337
0.208,0.045,0.344,-5.337
0.205,0.046,0.347,-5.337
0.220,0.049,0.347,-5.337
0.260,0.044,0.342,-5.337
0.290,0.042,0.337,-5.337
0.217,0.045,0.336,-5.337
0.254,0.044,0.339,-5.337
0.298,0.047,0.343,-5.337
0.234,0.050,0.343,-5.337
0.160,0.050,0.343,-5.337
0.166,0.050,0.341,-5.337
0.206,0.051,0.342,-5.337
0.233,0.052,0.342,-5.337
0.192,0.055,0.344,-5.337
0.153,0.053,0.342,-5.337
0.170,0.047,0.341,-5.337
0.237,0.045,0.340,-5.337
0.260,0.047,0.340,-5.337
0.201,0.049,0.336,-5.337
0.192,0.051,0.336,-5.337
0.144,0.051,0.342,-5.337
0.169,0.053,0.343,-5.337
0.219,0.049,0.341,-5.337
0.256,0.051,0.342,-5.337
0.205,0.052,0.343,-5.337
0.161,0.049,0.344,-5.337
0.204,0.049,0.344,-5.337
0.189,0.050,0.343,-5.337
0.106,0.053,0.342,-5.337
0.085,0.057,0.342,-5.337
0.107,0.058,0.342,-5.337
0.106,0.059,0.335,-5.337
0.151,0.054,0.333,-5.337
0.241,0.056,0.339,-5.337
0.164,0.056,0.344,-5.337
0.072,0.052,0.340,-5.337
0.155,0.053,0.342,-5.337
0.220,0.057,0.343,-5.337
0.222,0.057,0.342,-5.337
0.249,0.054,0.341,-5.337
0.225,0.052,0.344,-5.337
0.254,0.051,0.345,-5.337
0.300,0.056,0.343,-5.337
0.300,0.057,0.340,-5.337
0.254,0.057,0.338,-5.337
0.158,0.057,0.336,-5.337
0.215,0.052,0.335,-5.337
0.261,0.052,0.340,-5.337
0.307,0.055,0.345,-5.337
0.293,0.058,0.346,-5.337
0.231,0.057,0.344,-5.337
0.178,0.058,0.343,-5.337
0.135,0.057,0.344,-5.337
0.162,0.058,0.344,-5.337
0.202,0.057,0.339,-5.337
0.200,0.058,0.336,-5.337
0.194,0.058,0.336,-5.337
0.206,0.056,0.341,-5.337
0.107,0.059,0.342,-5.337
0.036,0.063,0.341,-5.337
0.026,0.063,0.340,-5.337
0.149,0.062,0.339,-5.337
0.226,0.059,0.334,-5.337
0.186,0.062,0.334,-5.337
0.218,0.060,0.337,-5.337
0.226,0.061,0.343,-5.337
0.244,0.061,0.344,-5.337
0.292,0.060,0.340,-5.337
0.290,0.061,0.339,-5.337
0.266,0.061,0.339,-5.337
0.196,0.059,0.339,-5.337
0.190,0.062,0.344,-5.337
0.198,0.062,0.346,-5.337
0.196,0.062,0.343,-5.337
0.180,0.062,0.342,-5.337
0.165,0.062,0.342,-5.337
0.241,0.057,0.345,-5.337
0.296,0.057,0.341,-5.337
0.286,0.062,0.340,-5.337
0.245,0.058,0.339,-5.337
0.259,0.057,0.339,-5.337
0.268,0.060,0.338,-5.337
0.256,0.066,0.339,-5.337
0.244,0.064,0.340,-5.337
0.211,0.064,0.344,-5.337
0.225,0.064,0.346,-5.337
0.193,0.068,0.344,-5.337
0.173,0.067,0.342,-5.337
0.127,0.067,0.340,-5.337
0.099,0.068,0.339,-5.337
0.165,0.068,0.338,-5.337
0.202,0.066,0.336,-5.337
0.176,0.066,0.336,-5.337
0.172,0.061,0.341,-5.337
0.217,0.058,0.340,-5.337
0.180,0.061,0.340,-5.337
0.174,0.066,0.340,-5.337
0.220,0.067,0.344,-5.337
0.234,0.062,0.342,-5.337
0.269,0.059,0.341,-5.337
0.210,0.063,0.339,-5.337
0.123,0.067,0.338,-5.337
0.194,0.065,0.337,-5.337
0.267,0.062,0.340,-5.337
0.257,0.064,0.343,-5.337
0.259,0.066,0.343,-5.337
0.235,0.067,0.342,-5.337
0.254,0.065,0.340,-5.337
0.197,0.067,0.339,-5.337
0.216,0.065,0.342,-5.337
0.268,0.064,0.350,-5.337
0.207,0.065,0.351,-5.337
0.169,0.062,0.345,-5.337
0.180,0.065,0.340,-5.337
0.190,0.069,0.335,-5.337
0.199,0.066,0.336,-5.337
0.214,0.065,0.337,-5.337
0.251,0.066,0.342,-5.337
0.229,0.071,0.343,-5.337
0.187,0.071,0.342,-5.337
0.177,0.073,0.341,-5.337
0.227,0.072,0.341,-5.337
0.239,0.067,0.345,-5.337
0.279,0.063,0.345,-5.337
0.280,0.062,0.343,-5.337
0.243,0.063,0.340,-5.337
0.179,0.065,0.338,-5.337
0.135,0.063,0.334,-5.337
0.105,0.067,0.338,-5.337
0.081,0.068,0.340,-5.337
0.118,0.065,0.342,-5.337
0.167,0.062,0.343,-5.337
0.177,0.067,0.343,-5.337
0.212,0.066,0.337,-5.337
0.210,0.063,0.336,-5.337
0.164,0.062,0.338,-5.337
0.128,0.063,0.340,-5.337
0.179,0.061,0.339,-5.337
0.178,0.064,0.339,-5.337
0.068,0.067,0.340,-5.337
0.082,0.069,0.341,-5.337
0.165,0.063,0.343,-5.337
0.231,0.062,0.344,-5.337
0.197,0.065,0.343,-5.337
0.177,0.070,0.341,-5.337
0.212,0.071,0.336,-5.337
0.243,0.068,0.336,-5.337
0.246,0.065,0.344,-5.337
0.202,0.067,0.347,-5.337
0.197,0.067,0.344,-5.337
0.179,0.066,0.341,-5.337
0.127,0.067,0.341,-5.337
0.099,0.067,0.343,-5.337
0.069,0.067,0.345,-5.337
0.131,0.064,0.345,-5.337
0.277,0.065,0.339,-5.337
0.289,0.063,0.338,-5.337
0.246,0.066,0.341,-5.337
0.158,0.069,0.342,-5.337
0.149,0.068,0.342,-5.337
0.147,0.068,0.344,-5.337
0.146,0.068,0.344,-5.337
0.195,0.067,0.341,-5.337
0.188,0.069,0.340,-5.337
0.132,0.070,0.342,-5.337
0.123,0.072,0.343,-5.337
0.161,0.069,0.342,-5.337
0.212,0.067,0.341,-5.337
0.212,0.068,0.344,-5.337
0.235,0.070,0.346,-5.337
0.219,0.070,0.349,-5.337
0.269,0.065,0.343,-5.337
0.293,0.063,0.339,-5.337
0.258,0.067,0.337,-5.337
0.208,0.070,0.339,-5.337
0.226,0.068,0.341,-5.337
0.189,0.069,0.342,-5.337
0.144,0.069,0.342,-5.337
0.216,0.069,0.342,-5.337
0.320,0.068,0.345,-5.337
0.243,0.069,0.345,-5.337
0.184,0.068,0.345,-5.337
0.210,0.069,0.341,-5.337
0.221,0.069,0.337,-5.337
0.235,0.068,0.337,-5.337
0.247,0.068,0.338,-5.337
0.251,0.071,0.339,-5.337
0.228,0.067,0.339,-5.337
0.209,0.066,0.343,-5.337
0.263,0.069,0.345,-5.337
0.276,0.068,0.343,-5.337
0.270,0.069,0.345,-5.337
0.204,0.067,0.346,-5.337
0.127,0.068,0.348,-5.337
0.112,0.067,0.345,-5.337
0.171,0.067,0.342,-5.337
0.184,0.069,0.338,-5.337
0.138,0.070,0.339,-5.337
0.095,0.071,0.340,-5.337
0.151,0.070,0.342,-5.337
0.230,0.063,0.342,-5.337
0.276,0.060,0.336,-5.337
0.248,0.063,0.333,-5.337
0.280,0.066,0.338,-5.337
0.367,0.064,0.344,-5.337
0.309,0.067,0.344,-5.337
0.264,0.068,0.340,-5.337
0.235,0.071,0.339,-5.337
0.269,0.065,0.340,-5.337
0.290,0.064,0.342,-5.337
0.214,0.068,0.342,-5.337
0.144,0.065,0.341,-5.337
0.205,0.064,0.342,-5.337
0.151,0.067,0.339,-5.337
0.122,0.064,0.340,-5.337
0.155,0.064,0.338,-5.337
0.208,0.063,0.341,-5.337
0.211,0.066,0.344,-5.337
0.240,0.063,0.343,-5.337
0.267,0.064,0.340,-5.337
0.234,0.065,0.340,-5.337
0.185,0.064,0.340,-5.337
0.154,0.064,0.339,-5.337
0.186,0.062,0.341,-5.337
0.169,0.065,0.340,-5.337
0.114,0.066,0.337,-5.337
0.115,0.064,0.337,-5.337
0.161,0.061,0.342,-5.337
0.221,0.059,0.345,-5.337
0.240,0.060,0.347,-5.337
0.204,0.064,0.343,-5.337
0.202,0.064,0.340,-5.337
0.298,0.061,0.336,-5.337
0.289,0.062,0.337,-5.337
0.238,0.062,0.337,-5.337
0.180,0.059,0.339,-5.337
0.129,0.059,0.342,-5.337
0.157,0.060,0.345,-5.337
0.122,0.063,0.343,-5.337
0.154,0.061,0.342,-5.337
0.157,0.061,0.340,-5.337
0.144,0.064,0.341,-5.337
0.110,0.066,0.341,-5.337
0.144,0.065,0.344,-5.337
0.178,0.063,0.343,-5.337
0.224,0.062,0.341,-5.337
0.235,0.062,0.336,-5.337
0.240,0.062,0.335,-5.337
0.252,0.061,0.339,-5.337
0.276,0.060,0.342,-5.337
0.254,0.060,0.344,-5.337
0.237,0.059,0.343,-5.337
0.215,0.060,0.345,-5.337
0.174,0.063,0.342,-5.337
0.124,0.065,0.338,-5.337
0.113,0.066,0.334,-5.337
0.159,0.066,0.340,-5.337
0.197,0.064,0.341,-5.337
0.210,0.062,0.344,-5.337
0.191,0.063,0.346,-5.337
0.190,0.062,0.346,-5.337
0.272,0.056,0.343,-5.337
0.295,0.059,0.340,-5.337
0.264,0.057,0.339,-5.337
0.306,0.057,0.338,-5.337
0.303,0.055,0.342,-5.337
0.229,0.056,0.345,-5.337
0.262,0.054,0.341,-5.337
0.389,0.051,0.340,-5.337
0.352,0.054,0.341,-5.337
0.245,0.060,0.341,-5.337
0.156,0.058,0.340,-5.337
0.124,0.056,0.343,-5.337
0.158,0.057,0.345,-5.337
0.257,0.056,0.346,-5.337
0.252,0.057,0.345,-5.337
0.198,0.058,0.342,-5.337
0.118,0.060,0.340,-5.337
0.139,0.057,0.342,-5.337
0.214,0.055,0.346,-5.337
0.248,0.055,0.348,-5.337
0.251,0.054,0.349,-5.337
0.199,0.056,0.343,-5.337
0.094,0.062,0.339,-5.337
0.124,0.059,0.338,-5.337
0.193,0.055,0.343,-5.337
0.165,0.053,0.344,-5.337
0.194,0.051,0.345,-5.337
0.203,0.056,0.341,-5.337
0.198,0.058,0.336,-5.337
0.208,0.057,0.336,-5.337
0.224,0.052,0.339,-5.337
0.196,0.051,0.342,-5.337
0.078,0.052,0.342,-5.337
0.080,0.053,0.342,-5.337
0.178,0.053,0.342,-5.337
0.208,0.057,0.340,-5.337
0.184,0.055,0.341,-5.337
0.212,0.054,0.341,-5.337
0.265,0.054,0.339,-5.337
0.208,0.055,0.335,-5.337
0.109,0.058,0.335,-5.337
0.155,0.054,0.339,-5.337
0.212,0.056,0.341,-5.337
0.177,0.055,0.343,-5.337
0.197,0.054,0.342,-5.337
0.227,0.053,0.344,-5.337
0.237,0.053,0.343,-5.337
0.268,0.049,0.342,-5.337
0.272,0.047,0.342,-5.337
0.184,0.054,0.343,-5.337
0.178,0.052,0.342,-5.337
0.213,0.050,0.340,-5.337
0.228,0.052,0.338,-5.337
0.165,0.053,0.338,-5.337
0.131,0.051,0.338,-5.337
0.178,0.049,0.336,-5.337
0.241,0.044,0.335,-5.337
0.236,0.048,0.338,-5.337
0.175,0.052,0.341,-5.337
0.161,0.050,0.343,-5.337
0.212,0.050,0.344,-5.337
0.260,0.052,0.340,-5.337
0.288,0.052,0.338,-5.337
0.249,0.054,0.339,-5.337
0.214,0.051,0.340,-5.337
0.211,0.053,0.336,-5.337
0.154,0.056,0.338,-5.337
0.122,0.052,0.340,-5.337
0.189,0.048,0.342,-5.337
0.197,0.048,0.345,-5.337
0.235,0.049,0.348,-5.337
0.224,0.050,0.344,-5.337
0.279,0.046,0.343,-5.337
0.375,0.046,0.343,-5.337
0.402,0.049,0.340,-5.337
0.260,0.049,0.339,-5.337
0.222,0.049,0.340,-5.337
0.211,0.050,0.339,-5.337
0.221,0.054,0.339,-5.337
0.210,0.055,0.337,-5.337
0.217,0.054,0.337,-5.337
0.258,0.056,0.342,-5.337
0.219,0.054,0.344,-5.337
0.144,0.055,0.344,-5.337
0.165,0.054,0.337,-5.337
0.273,0.051,0.336,-5.337
0.373,0.049,0.343,-5.337
0.305,0.050,0.348,-5.337
0.225,0.053,0.348,-5.337
0.142,0.056,0.344,-5.337
0.169,0.053,0.337,-5.337
0.218,0.052,0.337,-5.337
0.253,0.049,0.338,-5.337
0.255,0.052,0.338,-5.337
0.181,0.055,0.340,-5.337
0.255,0.054,0.344,-5.337
0.244,0.054,0.347,-5.337
0.161,0.055,0.343,-5.337
0.130,0.054,0.340,-5.337
0.140,0.053,0.340,-5.337
0.109,0.054,0.340,-5.337
0.203,0.051,0.339,-5.337
0.232,0.053,0.342,-5.337
0.150,0.056,0.343,-5.337
0.176,0.053,0.341,-5.337
0.250,0.048,0.337,-5.337
0.248,0.049,0.339,-5.337
0.297,0.052,0.340,-5.337
0.300,0.051,0.340,-5.337
0.206,0.051,0.342,-5.337
0.163,0.052,0.347,-5.337
0.202,0.049,0.346,-5.337
0.242,0.049,0.342,-5.337
0.306,0.046,0.339,-5.337
0.316,0.051,0.340,-5.337
0.209,0.053,0.338,-5.337
0.157,0.054,0.340,-5.337
0.163,0.050,0.341,-5.337
0.177,0.050,0.341,-5.337
0.165,0.050,0.342,-5.337
0.151,0.048,0.348,-5.337
0.191,0.043,0.347,-5.337
0.243,0.046,0.344,-5.337
0.169,0.050,0.343,-5.337
0.094,0.052,0.344,-5.337
0.125,0.050,0.340,-5.337
0.232,0.048,0.338,-5.337
0.358,0.049,0.338,-5.337
0.382,0.048,0.340,-5.337
0.310,0.049,0.343,-5.337
0.173,0.052,0.345,-5.337
0.150,0.049,0.344,-5.337
0.180,0.049,0.340,-5.337
0.193,0.054,0.342,-5.337
0.153,0.053,0.343,-5.337
0.167,0.047,0.342,-5.337
0.212,0.042,0.339,-5.337
0.195,0.046,0.341,-5.337
0.149,0.048,0.342,-5.337
0.269,0.045,0.341,-5.337
0.369,0.046,0.339,-5.337
0.365,0.049,0.338,-5.337
0.271,0.046,0.341,-5.337
0.235,0.047,0.341,-5.337
0.181,0.050,0.341,-5.337
0.211,0.050,0.346,-5.337
0.240,0.047,0.345,-5.337
0.225,0.047,0.344,-5.337
0.230,0.048,0.340,-5.337
0.262,0.049,0.338,-5.337
0.244,0.047,0.341,-5.337
0.237,0.049,0.341,-5.337
0.248,0.048,0.341,-5.337
0.263,0.047,0.340,-5.337
0.199,0.049,0.342,-5.337
0.250,0.046,0.343,-5.337
0.310,0.047,0.344,-5.337
0.242,0.047,0.342,-5.337
0.112,0.048,0.337,-5.337
0.180,0.045,0.333,-5.337
0.274,0.046,0.337,-5.337
0.260,0.047,0.338,-5.337
0.244,0.047,0.341,-5.337
0.190,0.048,0.340,-5.337
0.246,0.046,0.340,-5.337
0.314,0.044,0.341,-5.337
0.281,0.046,0.344,-5.337
0.247,0.043,0.344,-5.337
0.244,0.044,0.343,-5.337
0.249,0.045,0.342,-5.337
0.178,0.045,0.342,-5.337
0.195,0.046,0.340,-5.337
0.235,0.045,0.338,-5.337
0.246,0.045,0.338,-5.337
0.229,0.045,0.342,-5.337
0.267,0.048,0.345,-5.337
0.296,0.049,0.346,-5.337
0.290,0.047,0.342,-5.337
0.189,0.046,0.340,-5.337
0.237,0.045,0.340,-5.337
0.284,0.047,0.341,-5.337
0.265,0.049,0.340,-5.337
0.277,0.047,0.337,-5.337
0.185,0.046,0.335,-5.337
0.123,0.048,0.335,-5.337
0.176,0.053,0.341,-5.337
0.211,0.045,0.342,-5.337
0.189,0.043,0.343,-5.337
0.193,0.045,0.342,-5.337
0.208,0.044,0.345,-5.337
0.213,0.044,0.345,-5.337
0.179,0.044,0.344,-5.337
0.183,0.042,0.342,-5.337
0.146,0.045,0.343,-5.337
0.159,0.049,0.341,-5.337
0.203,0.051,0.336,-5.337
0.170,0.051,0.336,-5.337
0.161,0.053,0.341,-5.337
0.129,0.051,0.342,-5.337
0.094,0.050,0.341,-5.337
0.161,0.053,0.340,-5.337
0.217,0.053,0.340,-5.337
0.226,0.048,0.343,-5.337
0.152,0.050,0.343,-5.337
0.106,0.050,0.347,-5.337
0.164,0.047,0.344,-5.337
0.237,0.048,0.342,-5.337
0.286,0.047,0.344,-5.337
0.246,0.049,0.345,-5.337
0.274,0.046,0.341,-5.337
0.322,0.045,0.340,-5.337
0.279,0.045,0.340,-5.337
0.256,0.047,0.340,-5.337
0.259,0.051,0.336,-5.337
0.196,0.052,0.333,-5.337
0.131,0.049,0.337,-5.337
0.094,0.051,0.341,-5.337
0.123,0.052,0.344,-5.337
0.132,0.053,0.339,-5.337
0.125,0.052,0.335,-5.337
0.203,0.051,0.335,-5.337
0.225,0.050,0.339,-5.337
0.207,0.051,0.343,-5.337
0.148,0.051,0.345,-5.337
0.161,0.052,0.341,-5.337
0.226,0.050,0.341,-5.337
0.217,0.052,0.340,-5.337
0.159,0.055,0.341,-5.337
0.135,0.054,0.340,-5.337
0.100,0.054,0.343,-5.337
0.072,0.055,0.345,-5.337
0.116,0.058,0.345,-5.337
0.185,0.058,0.342,-5.337
0.240,0.056,0.337,-5.337
0.256,0.057,0.333,-5.337
0.240,0.058,0.331,-5.337
0.237,0.058,0.336,-5.337
0.228,0.058,0.343,-5.337
0.229,0.054,0.343,-5.337
0.289,0.058,0.338,-5.337
0.289,0.059,0.340,-5.337
0.335,0.058,0.345,-5.337
0.293,0.057,0.347,-5.337
0.269,0.055,0.345,-5.337
0.279,0.055,0.341,-5.337
0.254,0.055,0.338,-5.337
0.301,0.053,0.338,-5.337
0.297,0.055,0.339,-5.337
0.144,0.058,0.344,-5.337
0.081,0.059,0.342,-5.337
0.050,0.064,0.340,-5.337
0.101,0.058,0.339,-5.337
0.158,0.055,0.339,-5.337
0.133,0.055,0.340,-5.337
0.124,0.054,0.340,-5.337
0.218,0.054,0.341,-5.337
0.274,0.054,0.343,-5.337
0.280,0.055,0.345,-5.337
0.252,0.054,0.345,-5.337
0.194,0.054,0.343,-5.337
0.168,0.059,0.342,-5.337
0.134,0.060,0.341,-5.337
0.129,0.055,0.340,-5.337
0.162,0.057,0.338,-5.337
0.163,0.058,0.339,-5.337
0.213,0.058,0.341,-5.337
0.204,0.060,0.341,-5.337
0.198,0.059,0.340,-5.337
0.132,0.059,0.336,-5.337
0.202,0.059,0.337,-5.337
0.262,0.061,0.340,-5.337
0.127,0.063,0.344,-5.337
0.039,0.063,0.344,-5.337
0.160,0.059,0.342,-5.337
0.261,0.058,0.344,-5.337
0.291,0.059,0.346,-5.337
0.251,0.059,0.345,-5.337
0.175,0.058,0.341,-5.337
0.163,0.058,0.339,-5.337
0.203,0.058,0.342,-5.337
0.226,0.063,0.342,-5.337
0.190,0.065,0.341,-5.337
0.239,0.063,0.336,-5.337
0.284,0.059,0.339,-5.337
0.275,0.059,0.342,-5.337
0.152,0.065,0.342,-5.337
0.087,0.063,0.342,-5.337
0.133,0.061,0.344,-5.337
0.211,0.058,0.343,-5.337
0.211,0.059,0.339,-5.337
0.206,0.059,0.338,-5.337
0.282,0.056,0.337,-5.337
0.257,0.059,0.342,-5.337
0.169,0.064,0.344,-5.337
0.169,0.064,0.340,-5.337
0.074,0.067,0.334,-5.337
0.084,0.064,0.338,-5.337
0.253,0.058,0.341,-5.337
0.316,0.060,0.342,-5.337
0.207,0.064,0.338,-5.337
0.183,0.063,0.338,-5.337
0.279,0.059,0.340,-5.337
0.258,0.061,0.344,-5.337
0.189,0.062,0.342,-5.337
0.268,0.061,0.338,-5.337
0.293,0.060,0.339,-5.337
0.226,0.059,0.341,-5.337
0.117,0.064,0.340,-5.337
0.186,0.060,0.336,-5.337
0.312,0.058,0.335,-5.337
0.301,0.061,0.338,-5.337
0.202,0.063,0.341,-5.337
0.118,0.066,0.338,-5.337
0.196,0.064,0.337,-5.337
0.243,0.062,0.336,-5.337
0.145,0.063,0.339,-5.337
0.094,0.064,0.340,-5.337
0.158,0.060,0.341,-5.337
0.195,0.061,0.340,-5.337
0.208,0.063,0.341,-5.337
0.206,0.063,0.338,-5.337
0.156,0.061,0.336,-5.337
0.211,0.061,0.336,-5.337
0.251,0.068,0.338,-5.337
0.210,0.066,0.335,-5.337
0.234,0.063,0.334,-5.337
0.254,0.062,0.335,-5.337
0.169,0.065,0.336,-5.337
0.104,0.065,0.339,-5.337
0.195,0.065,0.341,-5.337
0.203,0.062,0.342,-5.337
0.171,0.064,0.338,-5.337
0.151,0.061,0.335,-5.337
0.142,0.063,0.338,-5.337
0.149,0.063,0.339,-5.337
0.135,0.062,0.337,-5.337
0.181,0.060,0.340,-5.337
0.203,0.059,0.340,-5.337
0.203,0.062,0.340,-5.337
0.129,0.066,0.341,-5.337
0.146,0.062,0.341,-5.337
0.214,0.059,0.338,-5.337
0.213,0.062,0.334,-5.337
0.170,0.065,0.337,-5.337
0.138,0.061,0.341,-5.337
0.198,0.058,0.337,-5.337
0.168,0.064,0.336,-5.337
0.056,0.067,0.339,-5.337
0.068,0.063,0.343,-5.337
0.205,0.058,0.340,-5.337
0.230,0.064,0.337,-5.337
0.197,0.065,0.336,-5.337
0.229,0.063,0.338,-5.337
0.198,0.065,0.338,-5.337
0.156,0.067,0.338,-5.337
0.162,0.065,0.339,-5.337
0.153,0.063,0.339,-5.337
0.185,0.061,0.340,-5.337
0.218,0.061,0.342,-5.337
0.257,0.062,0.342,-5.337
0.307,0.061,0.339,-5.337
0.272,0.061,0.337,-5.337
0.228,0.061,0.336,-5.337
0.148,0.067,0.338,-5.337
0.136,0.063,0.339,-5.337
0.143,0.063,0.341,-5.337
0.063,0.067,0.336,-5.337
0.077,0.071,0.336,-5.337
0.172,0.069,0.343,-5.337
0.198,0.072,0.349,-5.337
0.165,0.069,0.346,-5.337
0.202,0.069,0.344,-5.337
0.242,0.067,0.342,-5.337
0.265,0.068,0.340,-5.337
0.229,0.071,0.342,-5.337
0.174,0.073,0.343,-5.337
0.210,0.069,0.343,-5.337
0.184,0.068,0.339,-5.337
0.094,0.069,0.337,-5.337
0.153,0.068,0.332,-5.337
0.165,0.067,0.335,-5.337
0.178,0.070,0.340,-5.337
0.211,0.069,0.340,-5.337
0.242,0.067,0.339,-5.337
0.249,0.070,0.340,-5.337
0.186,0.071,0.342,-5.337
0.189,0.071,0.345,-5.337
0.205,0.070,0.344,-5.337
0.266,0.067,0.343,-5.337
0.263,0.068,0.339,-5.337
0.239,0.071,0.336,-5.337
0.269,0.072,0.336,-5.337
0.288,0.070,0.338,-5.337
0.248,0.071,0.342,-5.337
0.205,0.072,0.344,-5.337
0.159,0.075,0.344,-5.337
0.111,0.071,0.342,-5.337
0.143,0.071,0.341,-5.337
0.221,0.069,0.339,-5.337
0.292,0.067,0.338,-5.337
0.261,0.071,0.337,-5.337
0.216,0.072,0.340,-5.337
0.228,0.072,0.339,-5.337
0.153,0.075,0.343,-5.337
0.123,0.073,0.345,-5.337
0.105,0.073,0.341,-5.337
0.137,0.070,0.337,-5.337
0.101,0.076,0.340,-5.337
0.138,0.070,0.342,-5.337
0.227,0.070,0.341,-5.337
0.301,0.073,0.337,-5.337
0.254,0.074,0.335,-5.337
0.221,0.073,0.334,-5.337
0.211,0.073,0.335,-5.337
0.154,0.071,0.339,-5.337
0.182,0.071,0.342,-5.337
0.245,0.071,0.342,-5.337
0.234,0.071,0.344,-5.337
0.161,0.075,0.346,-5.337
0.164,0.073,0.344,-5.337
0.269,0.069,0.339,-5.337
0.268,0.072,0.338,-5.337
0.226,0.072,0.341,-5.337
0.236,0.071,0.344,-5.337
0.231,0.069,0.345,-5.337
0.188,0.069,0.341,-5.337
0.140,0.069,0.337,-5.337
0.150,0.070,0.338,-5.337
0.177,0.075,0.339,-5.337
0.251,0.071,0.336,-5.337
0.269,0.071,0.339,-5.337
0.201,0.074,0.342,-5.337
0.204,0.074,0.343,-5.337
0.203,0.070,0.343,-5.337
0.238,0.070,0.346,-5.337
0.271,0.069,0.342,-5.337
0.172,0.070,0.337,-5.337
0.144,0.067,0.337,-5.337
0.242,0.064,0.340,-5.337
0.307,0.067,0.341,-5.337
0.314,0.070,0.340,-5.337
0.290,0.070,0.342,-5.337
0.229,0.068,0.345,-5.337
0.169,0.066,0.344,-5.337
0.117,0.066,0.341,-5.337
0.161,0.063,0.340,-5.337
0.145,0.064,0.342,-5.337
0.141,0.066,0.340,-5.337
0.167,0.067,0.338,-5.337
0.231,0.068,0.341,-5.337
0.210,0.069,0.340,-5.337
0.189,0.070,0.336,-5.337
0.169,0.069,0.337,-5.337
0.097,0.065,0.342,-5.337
0.104,0.068,0.341,-5.337
0.087,0.072,0.340,-5.337
0.126,0.067,0.343,-5.337
0.187,0.066,0.341,-5.337
0.175,0.067,0.338,-5.337
0.192,0.065,0.338,-5.337
0.236,0.065,0.338,-5.337
0.270,0.063,0.338,-5.337
0.256,0.062,0.336,-5.337
0.150,0.065,0.340,-5.337
0.158,0.061,0.343,-5.337
0.240,0.062,0.346,-5.337
0.244,0.060,0.345,-5.337
0.181,0.058,0.343,-5.337
0.209,0.059,0.342,-5.337
0.242,0.057,0.337,-5.337
0.216,0.060,0.336,-5.337
0.195,0.063,0.336,-5.337
0.196,0.065,0.338,-5.337
0.119,0.065,0.340,-5.337
0.109,0.065,0.343,-5.337
0.144,0.064,0.342,-5.337
0.194,0.061,0.342,-5.337
0.189,0.057,0.344,-5.337
0.145,0.060,0.339,-5.337
0.175,0.057,0.335,-5.337
0.158,0.060,0.336,-5.337
0.127,0.059,0.335,-5.337
0.120,0.060,0.334,-5.337
0.188,0.061,0.336,-5.337
0.301,0.063,0.344,-5.337
0.271,0.063,0.346,-5.337
0.276,0.062,0.345,-5.337
0.253,0.062,0.344,-5.337
0.243,0.060,0.343,-5.337
0.264,0.057,0.338,-5.337
0.232,0.054,0.337,-5.337
0.185,0.057,0.339,-5.337
0.215,0.058,0.338,-5.337
0.180,0.057,0.336,-5.337
0.118,0.058,0.336,-5.337
0.148,0.060,0.340,-5.337
0.160,0.063,0.344,-5.337
0.229,0.060,0.346,-5.337
0.233,0.058,0.341,-5.337
0.212,0.056,0.336,-5.337
0.192,0.055,0.336,-5.337
0.188,0.057,0.341,-5.337
0.222,0.053,0.342,-5.337
0.285,0.049,0.339,-5.337
0.276,0.051,0.338,-5.337
0.220,0.055,0.341,-5.337
0.139,0.057,0.342,-5.337
0.144,0.057,0.344,-5.337
0.255,0.056,0.341,-5.337
0.312,0.054,0.338,-5.337
0.288,0.055,0.340,-5.337
0.307,0.052,0.338,-5.337
0.330,0.050,0.334,-5.337
0.302,0.053,0.331,-5.337
0.316,0.055,0.332,-5.337
0.236,0.059,0.335,-5.337
0.155,0.058,0.343,-5.337
0.162,0.060,0.344,-5.337
0.152,0.062,0.346,-5.337
0.158,0.056,0.349,-5.337
0.154,0.054,0.345,-5.337
0.081,0.058,0.342,-5.337
0.062,0.061,0.345,-5.337
0.139,0.055,0.346,-5.337
0.273,0.050,0.344,-5.337
0.309,0.051,0.342,-5.337
0.339,0.050,0.341,-5.337
0.266,0.051,0.339,-5.337
0.189,0.051,0.340,-5.337
0.228,0.048,0.339,-5.337
0.328,0.047,0.337,-5.337
0.343,0.050,0.337,-5.337
0.254,0.057,0.338,-5.337
0.197,0.060,0.342,-5.337
0.177,0.061,0.344,-5.337
0.155,0.059,0.343,-5.337
0.191,0.054,0.340,-5.337
0.251,0.050,0.340,-5.337
0.242,0.049,0.342,-5.337
0.199,0.050,0.344,-5.337
0.236,0.050,0.346,-5.337
0.233,0.053,0.346,-5.337
0.125,0.055,0.340,-5.337
0.109,0.052,0.335,-5.337
0.192,0.051,0.334,-5.337
0.152,0.053,0.342,-5.337
0.155,0.046,0.344,-5.337
0.209,0.044,0.340,-5.337
0.208,0.043,0.342,-5.337
0.277,0.046,0.343,-5.337
0.264,0.048,0.343,-5.337
0.174,0.051,0.339,-5.337
0.075,0.049,0.338,-5.337
0.089,0.045,0.341,-5.337
0.161,0.048,0.341,-5.337
0.224,0.047,0.342,-5.337
0.266,0.047,0.339,-5.337
0.166,0.048,0.336,-5.337
0.184,0.042,0.335,-5.337
0.239,0.041,0.335,-5.337
0.257,0.043,0.342,-5.337
0.255,0.046,0.344,-5.337
0.204,0.048,0.345,-5.337
0.195,0.047,0.342,-5.337
0.230,0.053,0.339,-5.337
0.249,0.053,0.340,-5.337
0.268,0.047,0.337,-5.337
0.269,0.044,0.336,-5.337
0.213,0.049,0.339,-5.337
0.136,0.050,0.339,-5.337
0.141,0.052,0.339,-5.337
0.222,0.048,0.340,-5.337
0.220,0.048,0.342,-5.337
0.085,0.049,0.343,-5.337
0.112,0.046,0.339,-5.337
0.213,0.046,0.334,-5.337
0.294,0.049,0.336,-5.337
0.293,0.049,0.338,-5.337
0.235,0.046,0.342,-5.337
0.230,0.043,0.346,-5.337
0.205,0.045,0.346,-5.337
0.176,0.050,0.344,-5.337
0.149,0.049,0.340,-5.337
0.158,0.048,0.338,-5.337
0.208,0.046,0.338,-5.337
0.251,0.047,0.336,-5.337
0.275,0.049,0.333,-5.337
0.147,0.051,0.339,-5.337
0.117,0.051,0.341,-5.337
0.225,0.051,0.340,-5.337
0.246,0.048,0.339,-5.337
0.158,0.052,0.339,-5.337
0.135,0.051,0.338,-5.337
0.201,0.049,0.338,-5.337
0.191,0.047,0.341,-5.337
0.213,0.047,0.343,-5.337
0.161,0.051,0.339,-5.337
0.160,0.049,0.336,-5.337
0.245,0.048,0.336,-5.337
0.226,0.048,0.336,-5.337
0.197,0.048,0.339,-5.337
0.223,0.048,0.343,-5.337
0.233,0.046,0.340,-5.337
0.178,0.046,0.331,-5.337
0.236,0.048,0.330,-5.337
0.317,0.046,0.338,-5.337
0.275,0.047,0.344,-5.337
0.230,0.046,0.342,-5.337
0.205,0.044,0.341,-5.337
0.208,0.044,0.340,-5.337
0.215,0.045,0.344,-5.337
0.257,0.042,0.344,-5.337
0.267,0.045,0.339,-5.337
0.260,0.045,0.334,-5.337
0.213,0.046,0.335,-5.337
0.153,0.045,0.336,-5.337
0.168,0.042,0.341,-5.337
0.220,0.042,0.342,-5.337
0.297,0.041,0.343,-5.337
0.279,0.044,0.343,-5.337
0.195,0.050,0.341,-5.337
0.180,0.046,0.337,-5.337
0.232,0.042,0.336,-5.337
0.273,0.038,0.340,-5.337
0.297,0.040,0.340,-5.337
0.201,0.045,0.340,-5.337
0.207,0.043,0.339,-5.337
0.249,0.041,0.339,-5.337
0.272,0.042,0.339,-5.337
0.197,0.043,0.339,-5.337
0.184,0.041,0.334,-5.337
0.234,0.043,0.336,-5.337
0.251,0.041,0.338,-5.337
0.241,0.041,0.340,-5.337
0.187,0.046,0.340,-5.337
0.138,0.049,0.340,-5.337
0.171,0.049,0.340,-5.337
0.197,0.049,0.341,-5.337
0.200,0.047,0.342,-5.337
0.206,0.050,0.344,-5.337
0.188,0.053,0.342,-5.337
0.167,0.052,0.339,-5.337
0.241,0.050,0.338,-5.337
0.237,0.051,0.338,-5.337
0.152,0.051,0.340,-5.337
0.158,0.048,0.342,-5.337
0.235,0.048,0.341,-5.337
0.248,0.046,0.338,-5.337
0.300,0.044,0.339,-5.337
0.338,0.044,0.341,-5.337
0.333,0.045,0.345,-5.337
0.270,0.045,0.342,-5.337
0.231,0.044,0.338,-5.337
0.210,0.047,0.333,-5.337
0.222,0.048,0.337,-5.337
0.307,0.042,0.340,-5.337
0.291,0.043,0.338,-5.337
0.186,0.046,0.339,-5.337
0.135,0.045,0.338,-5.337
0.161,0.041,0.337,-5.337
0.254,0.041,0.336,-5.337
0.269,0.044,0.336,-5.337
0.285,0.043,0.340,-5.337
0.262,0.041,0.342,-5.337
0.199,0.047,0.344,-5.337
0.162,0.046,0.344,-5.337
0.148,0.043,0.344,-5.337
0.154,0.047,0.341,-5.337
0.115,0.046,0.337,-5.337
0.150,0.048,0.340,-5.337
0.151,0.045,0.344,-5.337
0.176,0.043,0.347,-5.337
0.195,0.045,0.344,-5.337
0.136,0.046,0.339,-5.337
0.138,0.046,0.338,-5.337
0.150,0.044,0.340,-5.337
0.200,0.044,0.335,-5.337
0.239,0.045,0.332,-5.337
0.185,0.045,0.339,-5.337
0.171,0.046,0.345,-5.337
0.224,0.045,0.341,-5.337
0.255,0.042,0.338,-5.337
0.260,0.042,0.338,-5.337
0.256,0.044,0.335,-5.337
0.244,0.042,0.334,-5.337
0.219,0.045,0.339,-5.337
0.256,0.048,0.340,-5.337
0.246,0.050,0.339,-5.337
0.278,0.046,0.338,-5.337
0.281,0.041,0.341,-5.337
0.196,0.047,0.342,-5.337
0.148,0.047,0.340,-5.337
0.170,0.046,0.336,-5.337
0.227,0.048,0.334,-5.337
0.192,0.047,0.336,-5.337
0.201,0.049,0.341,-5.337
0.227,0.051,0.342,-5.337
0.205,0.050,0.340,-5.337
0.188,0.044,0.341,-5.337
0.236,0.041,0.344,-5.337
0.250,0.048,0.348,-5.337
0.174,0.052,0.344,-5.337
0.147,0.052,0.342,-5.337
0.163,0.047,0.339,-5.337
0.262,0.046,0.338,-5.337
0.267,0.045,0.336,-5.337
0.220,0.046,0.334,-5.337
0.183,0.043,0.334,-5.337
0.165,0.045,0.338,-5.337
0.219,0.045,0.344,-5.337
0.178,0.045,0.343,-5.337
0.141,0.044,0.341,-5.337
0.132,0.046,0.342,-5.337
0.230,0.043,0.342,-5.337
0.283,0.041,0.339,-5.337
0.248,0.046,0.335,-5.337
0.251,0.049,0.335,-5.337
0.218,0.046,0.339,-5.337
0.234,0.043,0.342,-5.337
0.237,0.045,0.338,-5.337
0.185,0.051,0.335,-5.337
0.152,0.050,0.335,-5.337
0.126,0.047,0.339,-5.337
0.116,0.049,0.341,-5.337
0.194,0.049,0.337,-5.337
0.251,0.048,0.339,-5.337
0.222,0.046,0.340,-5.337
0.263,0.050,0.340,-5.337
0.231,0.053,0.338,-5.337
0.107,0.055,0.339,-5.337
0.092,0.053,0.336,-5.337
0.185,0.053,0.335,-5.337
0.171,0.052,0.338,-5.337
0.129,0.050,0.340,-5.337
0.105,0.051,0.341,-5.337
0.135,0.052,0.341,-5.337
0.172,0.050,0.338,-5.337
0.185,0.051,0.339,-5.337
0.191,0.050,0.344,-5.337
0.207,0.046,0.343,-5.337
0.207,0.048,0.338,-5.337
0.206,0.051,0.335,-5.337
0.190,0.052,0.338,-5.337
0.158,0.054,0.340,-5.337
0.196,0.056,0.343,-5.337
0.245,0.053,0.340,-5.337
0.241,0.054,0.340,-5.337
0.175,0.057,0.342,-5.337
0.195,0.051,0.343,-5.337
0.238,0.050,0.339,-5.337
0.186,0.050,0.335,-5.337
0.191,0.048,0.334,-5.337
0.196,0.050,0.335,-5.337
0.269,0.047,0.337,-5.337
0.303,0.047,0.339,-5.337
0.275,0.050,0.338,-5.337
0.211,0.054,0.342,-5.337
0.180,0.048,0.345,-5.337
0.270,0.043,0.345,-5.337
0.325,0.045,0.341,-5.337
0.268,0.049,0.336,-5.337
0.243,0.051,0.338,-5.337
0.203,0.048,0.337,-5.337
0.144,0.049,0.337,-5.337
0.147,0.056,0.335,-5.337
0.125,0.056,0.337,-5.337
0.173,0.053,0.339,-5.337
0.197,0.051,0.341,-5.337
0.181,0.056,0.340,-5.337
0.222,0.054,0.340,-5.337
0.252,0.052,0.340,-5.337
0.186,0.054,0.339,-5.337
0.156,0.053,0.338,-5.337
0.196,0.056,0.337,-5.337
0.219,0.054,0.339,-5.337
0.230,0.053,0.340,-5.337
0.165,0.056,0.338,-5.337
0.155,0.058,0.337,-5.337
0.181,0.057,0.335,-5.337
0.219,0.054,0.333,-5.337
0.215,0.054,0.336,-5.337
0.150,0.058,0.337,-5.337
0.167,0.060,0.342,-5.337
0.165,0.062,0.343,-5.337
0.158,0.061,0.342,-5.337
0.129,0.059,0.340,-5.337
0.128,0.060,0.340,-5.337
0.209,0.057,0.338,-5.337
0.153,0.060,0.339,-5.337
0.119,0.058,0.339,-5.337
0.182,0.058,0.339,-5.337
0.190,0.054,0.336,-5.337
0.177,0.055,0.336,-5.337
0.221,0.054,0.337,-5.337
0.188,0.057,0.337,-5.337
0.160,0.060,0.339,-5.337
0.186,0.060,0.337,-5.337
0.188,0.059,0.336,-5.337
0.167,0.062,0.340,-5.337
0.135,0.061,0.342,-5.337
0.150,0.058,0.343,-5.337
0.161,0.059,0.340,-5.337
0.140,0.063,0.341,-5.337
0.119,0.062,0.337,-5.337
0.166,0.058,0.338,-5.337
0.252,0.054,0.336,-5.337
0.270,0.055,0.334,-5.337
0.235,0.055,0.335,-5.337
0.242,0.052,0.336,-5.337
0.228,0.050,0.340,-5.337
0.240,0.050,0.342,-5.337
0.269,0.050,0.341,-5.337
0.246,0.052,0.337,-5.337
0.175,0.056,0.338,-5.337
0.201,0.057,0.337,-5.337
0.231,0.058,0.337,-5.337
0.250,0.057,0.338,-5.337
0.149,0.059,0.341,-5.337
0.111,0.055,0.340,-5.337
0.109,0.058,0.340,-5.337
0.147,0.058,0.338,-5.337
0.171,0.057,0.338,-5.337
0.222,0.056,0.339,-5.337
0.270,0.055,0.341,-5.337
0.248,0.055,0.343,-5.337
0.245,0.051,0.342,-5.337
0.276,0.054,0.337,-5.337
0.205,0.063,0.332,-5.337
0.161,0.064,0.334,-5.337
0.095,0.063,0.338,-5.337
0.076,0.062,0.341,-5.337
0.164,0.059,0.337,-5.337
0.202,0.062,0.336,-5.337
0.221,0.063,0.333,-5.337
0.257,0.062,0.338,-5.337
0.231,0.063,0.341,-5.337
0.216,0.061,0.340,-5.337
0.225,0.059,0.335,-5.337
0.219,0.061,0.336,-5.337
0.168,0.061,0.338,-5.337
0.091,0.064,0.337,-5.337
0.129,0.063,0.337,-5.337
0.258,0.064,0.338,-5.337
0.264,0.063,0.335,-5.337
0.205,0.065,0.336,-5.337
0.161,0.061,0.336,-5.337
0.173,0.059,0.338,-5.337
0.194,0.063,0.339,-5.337
0.169,0.060,0.341,-5.337
0.181,0.057,0.340,-5.337
0.202,0.058,0.338,-5.337
0.142,0.060,0.336,-5.337
0.148,0.062,0.333,-5.337
0.158,0.061,0.336,-5.337
0.247,0.060,0.339,-5.337
0.242,0.060,0.339,-5.337
0.153,0.063,0.337,-5.337
0.129,0.064,0.338,-5.337
0.168,0.062,0.338,-5.337
0.221,0.063,0.338,-5.337
0.282,0.060,0.336,-5.337
0.265,0.060,0.337,-5.337
0.180,0.060,0.337,-5.337
0.173,0.060,0.341,-5.337
0.234,0.059,0.340,-5.337
0.272,0.060,0.338,-5.337
0.255,0.061,0.336,-5.337
0.223,0.062,0.337,-5.337
0.265,0.059,0.336,-5.337
0.302,0.059,0.338,-5.337
0.251,0.061,0.339,-5.337
0.225,0.060,0.338,-5.337
0.194,0.056,0.337,-5.337
0.111,0.063,0.335,-5.337
0.110,0.063,0.335,-5.337
0.168,0.059,0.333,-5.337
0.182,0.060,0.336,-5.337
0.165,0.063,0.339,-5.337
0.174,0.063,0.339,-5.337
0.202,0.062,0.341,-5.337
0.197,0.062,0.342,-5.337
0.142,0.064,0.340,-5.337
0.102,0.065,0.337,-5.337
0.117,0.063,0.332,-5.337
0.196,0.061,0.332,-5.337
0.205,0.064,0.334,-5.337
0.186,0.065,0.340,-5.337
0.200,0.064,0.342,-5.337
0.276,0.064,0.341,-5.337
0.297,0.064,0.341,-5.337
0.280,0.064,0.343,-5.337
0.290,0.067,0.340,-5.337
0.264,0.070,0.337,-5.337
0.203,0.067,0.336,-5.337
0.209,0.068,0.341,-5.337
0.159,0.071,0.342,-5.337
0.105,0.071,0.337,-5.337
0.110,0.069,0.332,-5.337
0.173,0.068,0.334,-5.337
0.207,0.068,0.335,-5.337
0.228,0.067,0.338,-5.337
0.261,0.069,0.340,-5.337
0.238,0.069,0.340,-5.337
0.189,0.068,0.342,-5.337
0.192,0.066,0.339,-5.337
0.210,0.066,0.334,-5.337
0.168,0.069,0.335,-5.337
0.136,0.071,0.338,-5.337
0.157,0.070,0.340,-5.337
0.157,0.068,0.341,-5.337
0.199,0.068,0.341,-5.337
0.230,0.066,0.342,-5.337
0.302,0.066,0.341,-5.337
0.258,0.065,0.339,-5.337
0.134,0.065,0.333,-5.337
0.113,0.065,0.330,-5.337
0.167,0.062,0.334,-5.337
0.196,0.060,0.337,-5.337
0.193,0.062,0.339,-5.337
0.223,0.065,0.335,-5.337
0.220,0.067,0.335,-5.337
0.134,0.067,0.337,-5.337
0.178,0.065,0.340,-5.337
0.234,0.064,0.339,-5.337
0.161,0.065,0.338,-5.337
0.168,0.065,0.340,-5.337
0.206,0.065,0.342,-5.337
0.201,0.064,0.339,-5.337
0.233,0.065,0.336,-5.337
0.313,0.065,0.336,-5.337
0.268,0.065,0.341,-5.337
0.190,0.064,0.348,-5.337
0.148,0.064,0.349,-5.337
0.169,0.064,0.341,-5.337
0.264,0.064,0.336,-5.337
0.218,0.061,0.335,-5.337
0.176,0.063,0.335,-5.337
0.165,0.062,0.338,-5.337
0.215,0.061,0.338,-5.337
0.198,0.063,0.337,-5.337
0.187,0.062,0.337,-5.337
0.161,0.067,0.342,-5.337
0.136,0.066,0.343,-5.337
0.137,0.067,0.344,-5.337
0.105,0.067,0.341,-5.337
0.159,0.062,0.339,-5.337
0.205,0.062,0.337,-5.337
0.233,0.060,0.336,-5.337
0.235,0.061,0.336,-5.337
0.271,0.063,0.336,-5.337
0.295,0.063,0.338,-5.337
0.222,0.067,0.339,-5.337
0.124,0.063,0.338,-5.337
0.170,0.060,0.336,-5.337
0.155,0.060,0.337,-5.337
0.145,0.062,0.340,-5.337
0.203,0.063,0.342,-5.337
0.210,0.061,0.341,-5.337
0.186,0.062,0.337,-5.337
0.117,0.065,0.333,-5.337
0.135,0.062,0.334,-5.337
0.148,0.059,0.335,-5.337
0.126,0.061,0.337,-5.337
0.158,0.059,0.339,-5.337
0.148,0.058,0.342,-5.337
0.153,0.060,0.338,-5.337
0.203,0.056,0.337,-5.337
0.226,0.055,0.337,-5.337
0.239,0.055,0.336,-5.337
0.277,0.053,0.335,-5.337
0.265,0.058,0.341,-5.337
0.217,0.059,0.342,-5.337
0.190,0.059,0.342,-5.337
0.171,0.056,0.338,-5.337
0.161,0.054,0.336,-5.337
0.246,0.051,0.336,-5.337
0.241,0.054,0.338,-5.337
0.163,0.056,0.341,-5.337
0.155,0.055,0.339,-5.337
0.202,0.052,0.335,-5.337
0.214,0.055,0.335,-5.337
0.212,0.054,0.338,-5.337
0.217,0.057,0.339,-5.337
0.170,0.055,0.337,-5.337
0.178,0.056,0.338,-5.337
0.264,0.055,0.337,-5.337
0.323,0.053,0.333,-5.337
0.294,0.056,0.334,-5.337
0.322,0.058,0.339,-5.337
0.301,0.057,0.344,-5.337
0.204,0.057,0.344,-5.337
0.155,0.059,0.340,-5.337
0.202,0.056,0.338,-5.337
0.214,0.053,0.336,-5.337
0.184,0.054,0.333,-5.337
0.211,0.057,0.332,-5.337
0.248,0.054,0.333,-5.337
0.220,0.056,0.339,-5.337
0.208,0.055,0.343,-5.337
0.155,0.057,0.340,-5.337
0.106,0.059,0.339,-5.337
0.112,0.058,0.339,-5.337
0.152,0.055,0.339,-5.337
0.209,0.055,0.337,-5.337
0.251,0.058,0.336,-5.337
0.302,0.057,0.338,-5.337
0.240,0.057,0.338,-5.337
0.177,0.056,0.334,-5.337
0.209,0.053,0.334,-5.337
0.205,0.055,0.335,-5.337
0.247,0.049,0.339,-5.337
0.279,0.044,0.343,-5.337
0.217,0.049,0.343,-5.337
0.182,0.049,0.338,-5.337
0.202,0.050,0.338,-5.337
0.221,0.047,0.336,-5.337
0.235,0.042,0.336,-5.337
0.182,0.045,0.334,-5.337
0.180,0.045,0.336,-5.337
0.175,0.049,0.340,-5.337
0.200,0.046,0.342,-5.337
0.244,0.048,0.341,-5.337
0.204,0.049,0.338,-5.337
0.140,0.048,0.335,-5.337
0.159,0.051,0.338,-5.337
0.105,0.051,0.341,-5.337
0.088,0.047,0.343,-5.337
0.084,0.047,0.342,-5.337
0.121,0.049,0.336,-5.337
0.201,0.050,0.333,-5.337
0.230,0.054,0.337,-5.337
0.216,0.054,0.342,-5.337
0.136,0.051,0.342,-5.337
0.153,0.049,0.337,-5.337
0.201,0.056,0.329,-5.337
0.107,0.062,0.331,-5.337
0.097,0.057,0.337,-5.337
0.251,0.053,0.342,-5.337
0.242,0.052,0.338,-5.337
0.242,0.056,0.332,-5.337
0.235,0.056,0.333,-5.337
0.205,0.055,0.339,-5.337
0.216,0.049,0.340,-5.337
0.283,0.047,0.335,-5.337
0.271,0.049,0.335,-5.337
0.255,0.049,0.337,-5.337
0.218,0.051,0.339,-5.337
0.199,0.052,0.341,-5.337
0.166,0.051,0.339,-5.337
0.151,0.049,0.338,-5.337
0.172,0.049,0.335,-5.337
0.154,0.051,0.335,-5.337
0.154,0.051,0.337,-5.337
0.149,0.051,0.337,-5.337
0.225,0.047,0.334,-5.337
0.231,0.049,0.337,-5.337
0.169,0.048,0.342,-5.337
0.153,0.051,0.340,-5.337
0.204,0.050,0.338,-5.337
0.156,0.047,0.338,-5.337
0.114,0.049,0.340,-5.337
0.155,0.048,0.339,-5.337
0.166,0.048,0.338,-5.337
0.192,0.047,0.335,-5.337
0.235,0.048,0.337,-5.337
0.227,0.048,0.341,-5.337
0.232,0.046,0.341,-5.337
0.290,0.042,0.339,-5.337
0.325,0.045,0.335,-5.337
0.307,0.047,0.334,-5.337
0.264,0.051,0.335,-5.337
0.259,0.052,0.336,-5.337
0.251,0.052,0.336,-5.337
0.184,0.053,0.336,-5.337
0.220,0.052,0.337,-5.337
0.234,0.049,0.341,-5.337
0.222,0.050,0.342,-5.337
0.166,0.050,0.342,-5.337
0.114,0.052,0.340,-5.337
0.151,0.048,0.340,-5.337
0.134,0.045,0.337,-5.337
0.135,0.047,0.335,-5.337
0.137,0.050,0.332,-5.337
0.228,0.049,0.335,-5.337
0.286,0.047,0.337,-5.337
0.280,0.048,0.339,-5.337
0.207,0.051,0.342,-5.337
0.155,0.048,0.343,-5.337
0.255,0.044,0.344,-5.337
0.291,0.044,0.346,-5.337
0.221,0.047,0.343,-5.337
0.192,0.048,0.343,-5.337
0.196,0.045,0.341,-5.337
0.223,0.048,0.335,-5.337
0.233,0.047,0.332,-5.337
0.233,0.044,0.334,-5.337
0.242,0.042,0.335,-5.337
0.229,0.040,0.337,-5.337
0.238,0.040,0.341,-5.337
0.229,0.041,0.341,-5.337
0.196,0.040,0.342,-5.337
0.217,0.040,0.341,-5.337
0.248,0.044,0.342,-5.337
0.234,0.042,0.339,-5.337
0.192,0.041,0.333,-5.337
0.141,0.041,0.331,-5.337
0.138,0.042,0.333,-5.337
0.144,0.043,0.336,-5.337
0.108,0.041,0.338,-5.337
0.174,0.042,0.341,-5.337
0.267,0.045,0.343,-5.337
0.320,0.043,0.343,-5.337
0.308,0.045,0.339,-5.337
0.204,0.047,0.333,-5.337
0.221,0.048,0.332,-5.337
0.154,0.045,0.336,-5.337
0.178,0.040,0.339,-5.337
0.330,0.038,0.337,-5.337
0.377,0.043,0.336,-5.337
0.315,0.043,0.334,-5.337
0.234,0.046,0.333,-5.337
0.155,0.050,0.336,-5.337
0.124,0.052,0.337,-5.337
0.147,0.048,0.340,-5.337
0.185,0.047,0.338,-5.337
0.202,0.046,0.336,-5.337
0.172,0.047,0.334,-5.337
0.184,0.044,0.339,-5.337
0.187,0.044,0.340,-5.337
0.160,0.049,0.342,-5.337
0.100,0.051,0.339,-5.337
0.092,0.047,0.335,-5.337
0.140,0.044,0.338,-5.337
0.175,0.047,0.341,-5.337
0.168,0.047,0.338,-5.337
0.234,0.045,0.337,-5.337
0.271,0.038,0.339,-5.337
0.157,0.041,0.339,-5.337
0.125,0.043,0.336,-5.337
0.240,0.046,0.333,-5.337
0.267,0.047,0.332,-5.337
0.259,0.044,0.333,-5.337
0.242,0.045,0.333,-5.337
0.209,0.048,0.332,-5.337
0.219,0.048,0.338,-5.337
0.250,0.049,0.343,-5.337
0.299,0.049,0.345,-5.337
0.249,0.051,0.342,-5.337
0.195,0.049,0.340,-5.337
0.236,0.044,0.338,-5.337
0.292,0.040,0.335,-5.337
0.320,0.044,0.330,-5.337
0.313,0.045,0.331,-5.337
0.258,0.044,0.334,-5.337
0.216,0.047,0.335,-5.337
0.234,0.047,0.333,-5.337
0.190,0.052,0.334,-5.337
0.205,0.050,0.338,-5.337
0.314,0.048,0.343,-5.337
0.301,0.049,0.339,-5.337
0.245,0.050,0.335,-5.337
0.228,0.052,0.331,-5.337
0.292,0.050,0.333,-5.337
0.222,0.050,0.340,-5.337
0.174,0.050,0.339,-5.337
0.130,0.050,0.338,-5.337
0.095,0.049,0.339,-5.337
0.209,0.047,0.341,-5.337
0.191,0.048,0.337,-5.337
0.196,0.049,0.334,-5.337
0.216,0.051,0.335,-5.337
0.119,0.053,0.338,-5.337
0.082,0.051,0.337,-5.337
0.166,0.052,0.334,-5.337
0.232,0.046,0.332,-5.337
0.216,0.050,0.335,-5.337
0.198,0.048,0.337,-5.337
0.254,0.047,0.339,-5.337
0.253,0.050,0.341,-5.337
0.178,0.047,0.340,-5.337
0.098,0.047,0.337,-5.337
0.121,0.049,0.338,-5.337
0.174,0.053,0.339,-5.337
0.161,0.053,0.336,-5.337
0.219,0.050,0.333,-5.337
0.272,0.045,0.334,-5.337
0.230,0.049,0.336,-5.337
0.124,0.051,0.338,-5.337
0.199,0.049,0.336,-5.337
0.252,0.048,0.334,-5.337
0.204,0.048,0.332,-5.337
0.157,0.048,0.337,-5.337
0.198,0.044,0.339,-5.337
0.229,0.045,0.339,-5.337
0.286,0.047,0.340,-5.337
0.261,0.046,0.337,-5.337
0.223,0.045,0.336,-5.337
0.234,0.045,0.334,-5.337
0.183,0.048,0.335,-5.337
0.117,0.051,0.336,-5.337
0.121,0.051,0.338,-5.337
0.162,0.049,0.339,-5.337
0.207,0.046,0.341,-5.337
0.225,0.050,0.340,-5.337
0.242,0.051,0.334,-5.337
0.255,0.050,0.331,-5.337
0.228,0.051,0.332,-5.337
0.231,0.050,0.338,-5.337
0.291,0.053,0.340,-5.337
0.242,0.054,0.342,-5.337
0.188,0.052,0.343,-5.337
0.205,0.052,0.343,-5.337
0.211,0.055,0.340,-5.337
0.150,0.053,0.337,-5.337
0.138,0.053,0.332,-5.337
0.104,0.056,0.333,-5.337
0.118,0.055,0.336,-5.337
0.230,0.053,0.341,-5.337
0.228,0.054,0.337,-5.337
0.207,0.057,0.336,-5.337
0.232,0.055,0.337,-5.337
0.235,0.051,0.339,-5.337
0.192,0.051,0.339,-5.337
0.183,0.053,0.339,-5.337
0.185,0.055,0.336,-5.337
0.161,0.056,0.332,-5.337
0.186,0.056,0.332,-5.337
0.267,0.055,0.338,-5.337
0.285,0.056,0.342,-5.337
0.177,0.059,0.339,-5.337
0.144,0.058,0.338,-5.337
0.155,0.059,0.342,-5.337
0.156,0.059,0.340,-5.337
0.140,0.057,0.335,-5.337
0.173,0.055,0.335,-5.337
0.208,0.055,0.336,-5.337
0.237,0.055,0.341,-5.337
0.201,0.054,0.342,-5.337
0.241,0.054,0.341,-5.337
0.283,0.054,0.337,-5.337
0.197,0.058,0.338,-5.337
0.068,0.059,0.338,-5.337
0.117,0.058,0.332,-5.337
0.197,0.054,0.330,-5.337
0.169,0.055,0.331,-5.337
0.137,0.056,0.334,-5.337
0.214,0.056,0.340,-5.337
0.188,0.052,0.343,-5.337
0.131,0.052,0.341,-5.337
0.215,0.055,0.337,-5.337
0.275,0.059,0.337,-5.337
0.258,0.057,0.337,-5.337
0.193,0.058,0.335,-5.337
0.215,0.057,0.335,-5.337
0.267,0.055,0.339,-5.337
0.242,0.057,0.341,-5.337
0.219,0.057,0.342,-5.337
0.215,0.052,0.341,-5.337
0.231,0.049,0.337,-5.337
0.240,0.050,0.334,-5.337
0.238,0.058,0.332,-5.337
0.202,0.057,0.334,-5.337
0.216,0.056,0.338,-5.337
0.184,0.058,0.337,-5.337
0.144,0.059,0.333,-5.337
0.170,0.057,0.331,-5.337
0.193,0.056,0.332,-5.337
0.169,0.058,0.335,-5.337
0.186,0.058,0.339,-5.337
0.252,0.055,0.342,-5.337
0.292,0.051,0.342,-5.337
0.235,0.053,0.341,-5.337
0.213,0.056,0.339,-5.337
0.235,0.058,0.335,-5.337
0.217,0.058,0.331,-5.337
0.220,0.057,0.331,-5.337
0.192,0.057,0.336,-5.337
0.213,0.057,0.336,-5.337
0.258,0.057,0.336,-5.337
0.307,0.055,0.336,-5.337
0.325,0.054,0.335,-5.337
0.200,0.056,0.333,-5.337
0.169,0.056,0.334,-5.337
0.183,0.056,0.333,-5.337
0.191,0.059,0.335,-5.337
0.125,0.061,0.337,-5.337
0.090,0.063,0.340,-5.337
0.083,0.064,0.339,-5.337
0.089,0.062,0.336,-5.337
0.150,0.061,0.337,-5.337
0.136,0.063,0.341,-5.337
0.122,0.063,0.337,-5.337
0.151,0.058,0.332,-5.337
0.171,0.059,0.329,-5.337
0.107,0.063,0.331,-5.337
0.103,0.063,0.333,-5.337
0.082,0.064,0.337,-5.337
0.037,0.064,0.338,-5.337
0.125,0.063,0.335,-5.337
0.167,0.065,0.332,-5.337
0.223,0.067,0.331,-5.337
0.254,0.061,0.330,-5.337
0.197,0.061,0.334,-5.337
0.168,0.062,0.337,-5.337
0.284,0.061,0.336,-5.337
0.325,0.061,0.339,-5.337
0.248,0.057,0.340,-5.337
0.208,0.060,0.340,-5.337
0.192,0.065,0.338,-5.337
0.172,0.064,0.337,-5.337
0.142,0.063,0.334,-5.337
0.194,0.063,0.332,-5.337
0.231,0.058,0.333,-5.337
0.258,0.056,0.333,-5.337
0.332,0.054,0.335,-5.337
0.294,0.058,0.336,-5.337
0.196,0.059,0.338,-5.337
0.160,0.059,0.343,-5.337
0.155,0.061,0.344,-5.337
0.120,0.063,0.340,-5.337
0.134,0.063,0.336,-5.337
0.259,0.059,0.337,-5.337
0.299,0.060,0.336,-5.337
0.279,0.063,0.336,-5.337
0.221,0.063,0.334,-5.337
0.180,0.060,0.332,-5.337
0.192,0.061,0.333,-5.337
0.227,0.067,0.333,-5.337
0.224,0.069,0.334,-5.337
0.154,0.070,0.334,-5.337
0.189,0.071,0.337,-5.337
0.224,0.071,0.336,-5.337
0.210,0.071,0.332,-5.337
0.217,0.067,0.330,-5.337
0.220,0.067,0.335,-5.337
0.186,0.066,0.337,-5.337
0.182,0.066,0.340,-5.337
0.246,0.063,0.341,-5.337
0.289,0.063,0.340,-5.337
0.287,0.063,0.338,-5.337
0.243,0.063,0.342,-5.337
0.203,0.062,0.341,-5.337
0.242,0.060,0.336,-5.337
0.277,0.062,0.332,-5.337
0.241,0.064,0.330,-5.337
0.214,0.065,0.332,-5.337
0.239,0.065,0.338,-5.337
0.208,0.068,0.345,-5.337
0.170,0.071,0.343,-5.337
0.228,0.068,0.339,-5.337
0.241,0.068,0.338,-5.337
0.180,0.071,0.338,-5.337
0.124,0.071,0.338,-5.337
0.171,0.067,0.337,-5.337
0.215,0.065,0.336,-5.337
0.132,0.068,0.334,-5.337
0.069,0.065,0.331,-5.337
0.136,0.064,0.330,-5.337
0.191,0.067,0.330,-5.337
0.128,0.073,0.336,-5.337
0.111,0.069,0.338,-5.337
0.141,0.066,0.340,-5.337
0.177,0.066,0.343,-5.337
0.212,0.068,0.343,-5.337
0.170,0.070,0.341,-5.337
0.206,0.067,0.335,-5.337
0.225,0.064,0.328,-5.337
0.203,0.065,0.327,-5.337
0.192,0.068,0.329,-5.337
0.180,0.067,0.336,-5.337
0.218,0.063,0.339,-5.337
0.160,0.069,0.337,-5.337
0.167,0.072,0.336,-5.337
0.139,0.071,0.335,-5.337
0.144,0.067,0.334,-5.337
0.227,0.062,0.331,-5.337
0.303,0.065,0.338,-5.337
0.327,0.065,0.342,-5.337
0.268,0.066,0.343,-5.337
0.191,0.068,0.340,-5.337
0.219,0.068,0.340,-5.337
0.247,0.069,0.340,-5.337
0.256,0.067,0.336,-5.337
0.270,0.063,0.333,-5.337
0.218,0.066,0.335,-5.337
0.156,0.068,0.335,-5.337
0.206,0.068,0.334,-5.337
0.254,0.068,0.336,-5.337
0.231,0.069,0.337,-5.337
0.256,0.067,0.335,-5.337
0.239,0.068,0.333,-5.337
0.151,0.070,0.334,-5.337
0.106,0.068,0.333,-5.337
0.204,0.064,0.336,-5.337
0.229,0.065,0.339,-5.337
0.202,0.071,0.338,-5.337
0.190,0.068,0.333,-5.337
0.226,0.061,0.333,-5.337
0.260,0.060,0.335,-5.337
0.224,0.064,0.337,-5.337
0.173,0.064,0.336,-5.337
0.129,0.065,0.339,-5.337
0.186,0.065,0.342,-5.337
0.267,0.067,0.339,-5.337
0.270,0.064,0.337,-5.337
0.245,0.065,0.336,-5.337
0.259,0.064,0.335,-5.337
0.269,0.070,0.336,-5.337
0.190,0.069,0.338,-5.337
0.183,0.069,0.336,-5.337
0.178,0.069,0.333,-5.337
0.227,0.071,0.334,-5.337
0.186,0.071,0.334,-5.337
0.166,0.070,0.330,-5.337
0.131,0.070,0.330,-5.337
0.167,0.070,0.336,-5.337
0.179,0.070,0.340,-5.337
0.198,0.067,0.336,-5.337
0.207,0.065,0.334,-5.337
0.229,0.064,0.331,-5.337
0.247,0.065,0.331,-5.337
0.245,0.066,0.333,-5.337
0.185,0.064,0.338,-5.337
0.115,0.067,0.342,-5.337
0.096,0.071,0.342,-5.337
0.178,0.065,0.338,-5.337
0.212,0.066,0.331,-5.337
0.193,0.066,0.332,-5.337
0.244,0.064,0.337,-5.337
0.243,0.063,0.338,-5.337
0.192,0.066,0.337,-5.337
0.202,0.069,0.334,-5.337
0.202,0.069,0.337,-5.337
0.168,0.068,0.337,-5.337
0.159,0.068,0.336,-5.337
0.109,0.071,0.335,-5.337
0.146,0.067,0.336,-5.337
0.209,0.066,0.335,-5.337
0.217,0.065,0.333,-5.337
0.191,0.066,0.334,-5.337
0.197,0.067,0.330,-5.337
0.263,0.067,0.331,-5.337
0.239,0.067,0.332,-5.337
0.154,0.069,0.335,-5.337
0.129,0.068,0.337,-5.337
0.216,0.062,0.339,-5.337
0.158,0.062,0.341,-5.337
0.107,0.066,0.336,-5.337
0.125,0.063,0.333,-5.337
0.171,0.065,0.335,-5.337
0.191,0.064,0.337,-5.337
0.297,0.063,0.340,-5.337
0.242,0.067,0.338,-5.337
0.200,0.066,0.338,-5.337
0.305,0.063,0.335,-5.337
0.252,0.067,0.336,-5.337
0.193,0.066,0.340,-5.337
0.157,0.067,0.339,-5.337
0.153,0.065,0.342,-5.337
0.226,0.062,0.341,-5.337
0.253,0.062,0.337,-5.337
0.188,0.066,0.334,-5.337
0.173,0.065,0.334,-5.337
0.222,0.064,0.334,-5.337
0.184,0.062,0.337,-5.337
0.149,0.064,0.336,-5.337
0.164,0.063,0.336,-5.337
0.201,0.057,0.338,-5.337
0.312,0.058,0.341,-5.337
0.302,0.058,0.339,-5.337
0.230,0.058,0.337,-5.337
0.208,0.059,0.336,-5.337
0.231,0.060,0.336,-5.337
0.293,0.059,0.331,-5.337
0.228,0.061,0.332,-5.337
0.115,0.059,0.336,-5.337
0.202,0.056,0.336,-5.337
0.250,0.057,0.334,-5.337
0.174,0.060,0.335,-5.337
0.160,0.062,0.339,-5.337
0.278,0.056,0.336,-5.337
0.293,0.058,0.335,-5.337
0.291,0.055,0.336,-5.337
0.346,0.054,0.338,-5.337
0.363,0.056,0.339,-5.337
0.323,0.058,0.337,-5.337
0.229,0.062,0.333,-5.337
0.188,0.060,0.333,-5.337
0.195,0.056,0.334,-5.337
0.207,0.055,0.338,-5.337
0.252,0.056,0.342,-5.337
0.220,0.059,0.342,-5.337
0.213,0.056,0.340,-5.337
0.210,0.055,0.337,-5.337
0.223,0.053,0.333,-5.337
0.187,0.053,0.339,-5.337
0.165,0.051,0.341,-5.337
0.198,0.053,0.339,-5.337
0.196,0.056,0.334,-5.337
0.156,0.055,0.333,-5.337
0.133,0.056,0.337,-5.337
0.185,0.053,0.339,-5.337
0.240,0.054,0.339,-5.337
0.264,0.053,0.339,-5.337
0.172,0.055,0.339,-5.337
0.183,0.054,0.339,-5.337
0.185,0.054,0.341,-5.337
0.162,0.055,0.343,-5.337
0.180,0.054,0.344,-5.337
0.193,0.054,0.338,-5.337
0.184,0.052,0.334,-5.337
0.224,0.050,0.333,-5.337
0.238,0.051,0.337,-5.337
0.213,0.051,0.338,-5.337
0.262,0.048,0.337,-5.337
0.319,0.048,0.337,-5.337
0.266,0.053,0.336,-5.337
0.171,0.054,0.333,-5.337
0.111,0.055,0.334,-5.337
0.138,0.056,0.337,-5.337
0.184,0.057,0.339,-5.337
0.219,0.055,0.341,-5.337
0.251,0.052,0.342,-5.337
0.238,0.049,0.342,-5.337
0.205,0.048,0.339,-5.337
0.219,0.047,0.335,-5.337
0.210,0.042,0.333,-5.337
0.269,0.040,0.335,-5.337
0.302,0.045,0.339,-5.337
0.233,0.049,0.341,-5.337
0.173,0.050,0.337,-5.337
0.237,0.049,0.336,-5.337
0.269,0.048,0.334,-5.337
0.238,0.047,0.333,-5.337
0.131,0.049,0.328,-5.337
0.115,0.053,0.330,-5.337
0.172,0.056,0.334,-5.337
0.219,0.053,0.336,-5.337
0.212,0.048,0.339,-5.337
0.193,0.056,0.344,-5.337
0.211,0.058,0.342,-5.337
0.213,0.058,0.339,-5.337
0.182,0.058,0.338,-5.337
0.154,0.057,0.339,-5.337
0.127,0.058,0.336,-5.337
0.187,0.056,0.333,-5.337
0.270,0.055,0.333,-5.337
0.248,0.058,0.335,-5.337
0.187,0.055,0.337,-5.337
0.202,0.052,0.333,-5.337
0.237,0.054,0.333,-5.337
0.252,0.055,0.331,-5.337
0.278,0.055,0.333,-5.337
0.202,0.054,0.334,-5.337
0.175,0.052,0.339,-5.337
0.157,0.048,0.341,-5.337
0.196,0.047,0.338,-5.337
0.182,0.047,0.332,-5.337
0.146,0.049,0.330,-5.337
0.148,0.045,0.334,-5.337
0.139,0.047,0.337,-5.337
0.177,0.045,0.337,-5.337
0.226,0.048,0.336,-5.337
0.205,0.051,0.335,-5.337
0.234,0.050,0.335,-5.337
0.237,0.049,0.337,-5.337
0.179,0.049,0.335,-5.337
0.126,0.053,0.331,-5.337
0.164,0.053,0.333,-5.337
0.129,0.054,0.335,-5.337
0.097,0.056,0.338,-5.337
0.143,0.052,0.341,-5.337
0.211,0.047,0.340,-5.337
0.258,0.048,0.338,-5.337
0.213,0.050,0.336,-5.337
0.185,0.050,0.337,-5.337
0.157,0.048,0.335,-5.337
0.137,0.050,0.332,-5.337
0.148,0.049,0.330,-5.337
0.193,0.051,0.331,-5.337
0.229,0.049,0.337,-5.337
0.178,0.048,0.341,-5.337
0.154,0.044,0.339,-5.337
0.179,0.048,0.339,-5.337
0.134,0.048,0.340,-5.337
0.144,0.049,0.338,-5.337
0.218,0.048,0.337,-5.337
0.225,0.047,0.334,-5.337
0.232,0.047,0.334,-5.337
0.273,0.048,0.336,-5.337
0.292,0.050,0.336,-5.337
0.281,0.051,0.333,-5.337
0.200,0.050,0.332,-5.337
0.206,0.050,0.334,-5.337
0.256,0.049,0.335,-5.337
0.194,0.052,0.338,-5.337
0.118,0.054,0.340,-5.337
0.145,0.052,0.338,-5.337
0.175,0.052,0.338,-5.337
0.212,0.053,0.340,-5.337
0.252,0.051,0.340,-5.337
0.259,0.044,0.334,-5.337
0.230,0.046,0.332,-5.337
0.217,0.046,0.331,-5.337
0.247,0.046,0.335,-5.337
0.269,0.048,0.339,-5.337
0.242,0.046,0.339,-5.337
0.266,0.046,0.336,-5.337
0.217,0.048,0.336,-5.337
0.183,0.042,0.335,-5.337
0.255,0.039,0.335,-5.337
0.272,0.042,0.337,-5.337
0.280,0.046,0.340,-5.337
0.306,0.046,0.343,-5.337
0.267,0.046,0.342,-5.337
0.264,0.047,0.335,-5.337
0.257,0.049,0.330,-5.337
0.228,0.050,0.331,-5.337
0.170,0.046,0.335,-5.337
0.127,0.046,0.339,-5.337
0.203,0.042,0.337,-5.337
0.258,0.042,0.335,-5.337
0.182,0.044,0.334,-5.337
0.170,0.044,0.337,-5.337
0.139,0.043,0.336,-5.337
0.223,0.040,0.338,-5.337
0.244,0.046,0.339,-5.337
0.233,0.049,0.342,-5.337
0.253,0.045,0.341,-5.337
0.232,0.043,0.339,-5.337
0.278,0.043,0.338,-5.337
0.332,0.047,0.338,-5.337
0.277,0.044,0.333,-5.337
0.253,0.043,0.333,-5.337
0.316,0.044,0.336,-5.337
0.287,0.047,0.337,-5.337
0.178,0.047,0.334,-5.337
0.095,0.050,0.330,-5.337
0.125,0.051,0.333,-5.337
0.170,0.054,0.335,-5.337
0.182,0.048,0.334,-5.337
0.195,0.047,0.333,-5.337
0.162,0.048,0.338,-5.337
0.144,0.048,0.337,-5.337
0.112,0.048,0.335,-5.337
0.122,0.050,0.335,-5.337
0.183,0.051,0.336,-5.337
0.242,0.051,0.337,-5.337
0.265,0.052,0.340,-5.337
0.163,0.052,0.339,-5.337
0.108,0.052,0.337,-5.337
0.149,0.049,0.337,-5.337
0.280,0.047,0.337,-5.337
0.217,0.049,0.339,-5.337
0.110,0.051,0.341,-5.337
0.157,0.046,0.337,-5.337
0.210,0.048,0.336,-5.337
0.171,0.047,0.338,-5.337
0.261,0.047,0.339,-5.337
0.289,0.049,0.338,-5.337
0.255,0.050,0.337,-5.337
0.273,0.045,0.340,-5.337
0.323,0.046,0.336,-5.337
0.286,0.047,0.332,-5.337
0.277,0.046,0.334,-5.337
0.189,0.050,0.339,-5.337
0.136,0.053,0.336,-5.337
0.134,0.054,0.332,-5.337
0.148,0.054,0.332,-5.337
0.120,0.052,0.336,-5.337
0.105,0.048,0.335,-5.337
0.111,0.050,0.336,-5.337
0.077,0.049,0.338,-5.337
0.163,0.050,0.338,-5.337
0.153,0.049,0.335,-5.337
0.142,0.049,0.336,-5.337
0.129,0.046,0.336,-5.337
0.199,0.043,0.333,-5.337
0.239,0.045,0.330,-5.337
0.219,0.044,0.332,-5.337
0.186,0.045,0.334,-5.337
0.171,0.046,0.336,-5.337
0.273,0.044,0.338,-5.337
0.304,0.047,0.338,-5.337
0.232,0.044,0.337,-5.337
0.193,0.048,0.337,-5.337
0.177,0.046,0.335,-5.337
0.221,0.041,0.332,-5.337
0.236,0.042,0.332,-5.337
0.226,0.043,0.333,-5.337
0.188,0.047,0.337,-5.337
0.135,0.047,0.339,-5.337
0.198,0.041,0.339,-5.337
0.321,0.037,0.332,-5.337
0.264,0.042,0.331,-5.337
0.166,0.040,0.332,-5.337
0.177,0.040,0.337,-5.337
0.222,0.040,0.340,-5.337
0.235,0.039,0.342,-5.337
0.189,0.039,0.339,-5.337
0.206,0.037,0.334,-5.337
0.203,0.035,0.331,-5.337
0.179,0.040,0.331,-5.337
0.222,0.041,0.330,-5.337
0.218,0.043,0.329,-5.337
0.154,0.041,0.331,-5.337
0.162,0.045,0.332,-5.337
0.235,0.044,0.335,-5.337
0.234,0.043,0.337,-5.337
0.205,0.041,0.336,-5.337
0.276,0.039,0.336,-5.337
0.283,0.048,0.336,-5.337
0.244,0.051,0.335,-5.337
0.294,0.043,0.333,-5.337
0.323,0.042,0.331,-5.337
0.295,0.045,0.337,-5.337
0.197,0.047,0.340,-5.337
0.058,0.050,0.339,-5.337
0.077,0.048,0.338,-5.337
0.141,0.047,0.336,-5.337
0.171,0.046,0.336,-5.337
0.142,0.048,0.337,-5.337
0.141,0.046,0.336,-5.337
0.226,0.046,0.337,-5.337
0.233,0.047,0.337,-5.337
0.155,0.053,0.338,-5.337
0.144,0.051,0.338,-5.337
0.206,0.049,0.336,-5.337
0.254,0.049,0.335,-5.337
0.264,0.051,0.334,-5.337
0.233,0.051,0.335,-5.337
0.263,0.048,0.330,-5.337
0.290,0.050,0.332,-5.337
0.285,0.051,0.334,-5.337
0.251,0.053,0.339,-5.337
0.203,0.053,0.339,-5.337
0.142,0.057,0.336,-5.337
0.041,0.059,0.336,-5.337
0.059,0.056,0.339,-5.337
0.157,0.054,0.339,-5.337
0.188,0.055,0.338,-5.337
0.163,0.047,0.338,-5.337
0.213,0.046,0.337,-5.337
0.209,0.049,0.338,-5.337
0.281,0.046,0.337,-5.337
0.295,0.044,0.331,-5.337
0.245,0.045,0.330,-5.337
0.271,0.046,0.337,-5.337
0.303,0.045,0.342,-5.337
0.269,0.048,0.341,-5.337
0.206,0.049,0.339,-5.337
0.224,0.047,0.339,-5.337
0.236,0.048,0.335,-5.337
0.220,0.054,0.334,-5.337
0.177,0.055,0.335,-5.337
0.191,0.048,0.339,-5.337
0.192,0.048,0.340,-5.337
0.202,0.049,0.337,-5.337
0.236,0.050,0.334,-5.337
0.290,0.052,0.336,-5.337
0.196,0.054,0.338,-5.337
0.105,0.054,0.339,-5.337
0.133,0.051,0.337,-5.337
0.133,0.055,0.336,-5.337
0.108,0.056,0.336,-5.337
0.064,0.057,0.335,-5.337
0.029,0.054,0.336,-5.337
0.163,0.051,0.340,-5.337
0.262,0.050,0.341,-5.337
0.255,0.052,0.339,-5.337
0.256,0.050,0.337,-5.337
0.285,0.052,0.334,-5.337
0.208,0.059,0.333,-5.337
0.135,0.062,0.333,-5.337
0.160,0.055,0.336,-5.337
0.207,0.056,0.335,-5.337
0.124,0.061,0.333,-5.337
0.108,0.061,0.334,-5.337
0.227,0.056,0.335,-5.337
0.231,0.057,0.332,-5.337
0.163,0.059,0.332,-5.337
0.195,0.055,0.334,-5.337
0.220,0.055,0.335,-5.337
0.182,0.060,0.333,-5.337
0.200,0.057,0.339,-5.337
0.177,0.054,0.341,-5.337
0.231,0.052,0.339,-5.337
0.265,0.054,0.334,-5.337
0.234,0.061,0.332,-5.337
0.199,0.061,0.335,-5.337
0.219,0.058,0.340,-5.337
0.249,0.055,0.341,-5.337
0.262,0.057,0.341,-5.337
0.277,0.057,0.341,-5.337
0.208,0.056,0.337,-5.337
0.117,0.057,0.331,-5.337
0.138,0.060,0.329,-5.337
0.173,0.063,0.335,-5.337
0.174,0.063,0.338,-5.337
0.188,0.061,0.338,-5.337
0.186,0.059,0.336,-5.337
0.202,0.059,0.335,-5.337
0.301,0.057,0.331,-5.337
0.363,0.058,0.330,-5.337
0.342,0.057,0.332,-5.337
0.284,0.059,0.337,-5.337
0.215,0.062,0.333,-5.337
0.162,0.060,0.333,-5.337
0.125,0.060,0.333,-5.337
0.183,0.058,0.334,-5.337
0.202,0.061,0.334,-5.337
0.157,0.064,0.334,-5.337
0.162,0.056,0.332,-5.337
0.198,0.056,0.329,-5.337
0.194,0.055,0.332,-5.337
0.164,0.056,0.340,-5.337
0.109,0.056,0.344,-5.337
0.109,0.054,0.341,-5.337
0.180,0.053,0.338,-5.337
0.199,0.055,0.332,-5.337
0.134,0.057,0.328,-5.337
0.150,0.059,0.331,-5.337
0.097,0.063,0.334,-5.337
0.071,0.061,0.333,-5.337
0.174,0.057,0.336,-5.337
0.225,0.059,0.338,-5.337
0.272,0.060,0.339,-5.337
0.276,0.057,0.337,-5.337
0.249,0.058,0.335,-5.337
0.211,0.059,0.332,-5.337
0.185,0.059,0.331,-5.337
0.196,0.057,0.331,-5.337
0.247,0.057,0.330,-5.337
0.235,0.059,0.331,-5.337
0.236,0.060,0.334,-5.337
0.179,0.063,0.338,-5.337
0.184,0.061,0.342,-5.337
0.236,0.060,0.341,-5.337
0.231,0.058,0.339,-5.337
0.150,0.058,0.337,-5.337
0.072,0.059,0.334,-5.337
0.128,0.060,0.337,-5.337
0.212,0.058,0.336,-5.337
0.261,0.058,0.333,-5.337
0.238,0.060,0.330,-5.337
0.163,0.062,0.331,-5.337
0.168,0.063,0.331,-5.337
0.189,0.064,0.332,-5.337
0.143,0.068,0.332,-5.337
0.152,0.066,0.333,-5.337
0.201,0.062,0.335,-5.337
0.273,0.064,0.336,-5.337
0.222,0.066,0.336,-5.337
0.185,0.067,0.338,-5.337
0.181,0.067,0.338,-5.337
0.129,0.069,0.338,-5.337
0.121,0.066,0.336,-5.337
0.142,0.067,0.337,-5.337
0.129,0.068,0.335,-5.337
0.117,0.067,0.335,-5.337
0.143,0.068,0.338,-5.337
0.184,0.064,0.334,-5.337
0.126,0.064,0.332,-5.337
0.143,0.064,0.330,-5.337
0.249,0.065,0.329,-5.337
0.273,0.063,0.332,-5.337
0.209,0.067,0.335,-5.337
0.192,0.067,0.337,-5.337
0.212,0.065,0.338,-5.337
0.200,0.064,0.336,-5.337
0.203,0.064,0.336,-5.337
0.170,0.066,0.338,-5.337
0.170,0.064,0.339,-5.337
0.177,0.066,0.334,-5.337
0.130,0.067,0.334,-5.337
0.159,0.063,0.336,-5.337
0.205,0.065,0.335,-5.337
0.179,0.066,0.337,-5.337
0.087,0.064,0.339,-5.337
0.057,0.065,0.339,-5.337
0.164,0.062,0.339,-5.337
0.237,0.059,0.335,-5.337
0.217,0.063,0.332,-5.337
0.233,0.061,0.329,-5.337
0.337,0.061,0.330,-5.337
0.311,0.060,0.335,-5.337
0.193,0.059,0.339,-5.337
0.180,0.058,0.338,-5.337
0.187,0.063,0.334,-5.337
0.179,0.066,0.333,-5.337
0.221,0.063,0.333,-5.337
0.208,0.063,0.337,-5.337
0.194,0.067,0.339,-5.337
0.164,0.070,0.340,-5.337
0.123,0.069,0.337,-5.337
0.085,0.068,0.335,-5.337
0.129,0.067,0.334,-5.337
0.251,0.067,0.334,-5.337
0.248,0.067,0.337,-5.337
0.185,0.065,0.337,-5.337
0.195,0.065,0.336,-5.337
0.191,0.061,0.337,-5.337
0.245,0.060,0.337,-5.337
0.250,0.064,0.335,-5.337
0.197,0.068,0.333,-5.337
0.274,0.066,0.332,-5.337
0.261,0.065,0.333,-5.337
0.211,0.064,0.335,-5.337
0.233,0.064,0.336,-5.337
0.245,0.067,0.336,-5.337
0.177,0.066,0.332,-5.337
0.142,0.067,0.329,-5.337
0.193,0.071,0.331,-5.337
0.157,0.071,0.334,-5.337
0.116,0.066,0.338,-5.337
0.172,0.061,0.335,-5.337
0.225,0.062,0.337,-5.337
0.250,0.062,0.334,-5.337
0.224,0.063,0.331,-5.337
0.146,0.068,0.332,-5.337
0.153,0.067,0.334,-5.337
0.175,0.067,0.335,-5.337
0.180,0.066,0.337,-5.337
0.142,0.060,0.339,-5.337
0.173,0.059,0.337,-5.337
0.189,0.059,0.335,-5.337
0.258,0.058,0.339,-5.337
0.227,0.059,0.339,-5.337
0.214,0.062,0.333,-5.337
0.279,0.060,0.331,-5.337
0.272,0.059,0.335,-5.337
0.244,0.062,0.338,-5.337
0.179,0.064,0.340,-5.337
0.176,0.065,0.337,-5.337
0.246,0.063,0.334,-5.337
0.213,0.066,0.337,-5.337
0.162,0.066,0.338,-5.337
0.160,0.064,0.338,-5.337
0.182,0.063,0.336,-5.337
0.261,0.059,0.338,-5.337
0.280,0.060,0.335,-5.337
0.226,0.059,0.334,-5.337
0.207,0.059,0.335,-5.337
0.167,0.061,0.338,-5.337
0.070,0.062,0.340,-5.337
0.042,0.063,0.337,-5.337
0.186,0.063,0.333,-5.337
0.286,0.063,0.334,-5.337
0.290,0.061,0.332,-5.337
0.262,0.062,0.331,-5.337
0.262,0.062,0.331,-5.337
0.267,0.064,0.333,-5.337
0.225,0.065,0.331,-5.337
0.185,0.063,0.334,-5.337
0.150,0.062,0.338,-5.337
0.132,0.064,0.336,-5.337
0.141,0.062,0.336,-5.337
0.149,0.059,0.336,-5.337
0.208,0.057,0.337,-5.337
0.271,0.062,0.336,-5.337
0.202,0.066,0.336,-5.337
0.174,0.065,0.331,-5.337
0.180,0.065,0.332,-5.337
0.144,0.067,0.336,-5.337
0.073,0.068,0.335,-5.337
0.116,0.065,0.338,-5.337
0.161,0.061,0.338,-5.337
0.155,0.060,0.335,-5.337
0.192,0.060,0.334,-5.337
0.249,0.058,0.335,-5.337
0.281,0.057,0.336,-5.337
0.248,0.059,0.334,-5.337
0.223,0.058,0.335,-5.337
0.256,0.058,0.332,-5.337
0.278,0.056,0.332,-5.337
0.235,0.054,0.334,-5.337
0.231,0.053,0.332,-5.337
0.252,0.054,0.332,-5.337
0.185,0.056,0.333,-5.337
0.106,0.056,0.336,-5.337
0.133,0.054,0.336,-5.337
0.182,0.057,0.338,-5.337
0.227,0.059,0.335,-5.337
0.272,0.055,0.333,-5.337
0.202,0.059,0.332,-5.337
0.156,0.061,0.334,-5.337
0.206,0.063,0.337,-5.337
0.346,0.062,0.342,-5.337
0.365,0.057,0.339,-5.337
0.230,0.058,0.338,-5.337
0.095,0.056,0.338,-5.337
0.118,0.050,0.338,-5.337
0.216,0.049,0.335,-5.337
0.218,0.051,0.336,-5.337
0.198,0.055,0.335,-5.337
0.157,0.057,0.334,-5.337
0.146,0.055,0.335,-5.337
0.249,0.054,0.335,-5.337
0.348,0.055,0.335,-5.337
0.269,0.060,0.337,-5.337
0.167,0.062,0.338,-5.337
0.146,0.058,0.333,-5.337
0.153,0.056,0.336,-5.337
0.086,0.056,0.338,-5.337
0.040,0.057,0.342,-5.337
0.110,0.055,0.344,-5.337
0.165,0.057,0.343,-5.337
0.087,0.057,0.336,-5.337
0.140,0.054,0.333,-5.337
0.182,0.053,0.336,-5.337
0.170,0.050,0.338,-5.337
0.196,0.046,0.337,-5.337
0.254,0.050,0.336,-5.337
0.257,0.051,0.338,-5.337
0.216,0.050,0.337,-5.337
0.215,0.044,0.333,-5.337
0.282,0.046,0.334,-5.337
0.246,0.050,0.336,-5.337
0.224,0.051,0.337,-5.337
0.210,0.050,0.336,-5.337
0.160,0.050,0.338,-5.337
0.175,0.052,0.338,-5.337
0.178,0.054,0.338,-5.337
0.088,0.056,0.337,-5.337
0.120,0.050,0.335,-5.337
0.256,0.048,0.336,-5.337
0.274,0.049,0.338,-5.337
0.239,0.048,0.339,-5.337
0.233,0.048,0.341,-5.337
0.223,0.048,0.344,-5.337
0.269,0.043,0.344,-5.337
0.256,0.043,0.338,-5.337
0.242,0.044,0.335,-5.337
0.332,0.045,0.337,-5.337
0.353,0.045,0.338,-5.337
0.261,0.046,0.339,-5.337
0.214,0.045,0.339,-5.337
0.294,0.046,0.339,-5.337
0.315,0.047,0.335,-5.337
0.205,0.046,0.334,-5.337
0.179,0.046,0.334,-5.337
0.234,0.044,0.334,-5.337
0.228,0.046,0.335,-5.337
0.253,0.046,0.336,-5.337
0.235,0.046,0.337,-5.337
0.243,0.046,0.338,-5.337
0.255,0.046,0.338,-5.337
0.221,0.046,0.338,-5.337
0.207,0.044,0.337,-5.337
0.209,0.047,0.336,-5.337
0.137,0.048,0.339,-5.337
0.141,0.042,0.339,-5.337
0.149,0.041,0.337,-5.337
0.222,0.042,0.334,-5.337
0.269,0.046,0.336,-5.337
0.200,0.049,0.341,-5.337
0.166,0.047,0.342,-5.337
0.197,0.044,0.342,-5.337
0.211,0.045,0.343,-5.337
0.269,0.049,0.339,-5.337
0.240,0.046,0.336,-5.337
0.248,0.042,0.333,-5.337
0.250,0.042,0.332,-5.337
0.267,0.041,0.332,-5.337
0.284,0.041,0.334,-5.337
0.236,0.041,0.337,-5.337
0.198,0.039,0.336,-5.337
0.201,0.043,0.334,-5.337
0.264,0.044,0.335,-5.337
0.199,0.046,0.337,-5.337
0.180,0.044,0.336,-5.337
0.177,0.043,0.335,-5.337
0.206,0.042,0.336,-5.337
0.199,0.044,0.342,-5.337
0.195,0.048,0.342,-5.337
0.155,0.050,0.336,-5.337
0.190,0.049,0.333,-5.337
0.202,0.049,0.335,-5.337
0.197,0.046,0.334,-5.337
0.213,0.047,0.336,-5.337
0.249,0.047,0.338,-5.337
0.297,0.046,0.339,-5.337
0.235,0.046,0.337,-5.337
0.197,0.046,0.336,-5.337
0.200,0.047,0.337,-5.337
0.235,0.045,0.341,-5.337
0.256,0.041,0.342,-5.337
0.250,0.041,0.339,-5.337
0.223,0.044,0.334,-5.337
0.187,0.049,0.332,-5.337
0.206,0.046,0.333,-5.337
0.213,0.043,0.335,-5.337
0.163,0.046,0.338,-5.337
0.110,0.051,0.339,-5.337
0.141,0.048,0.338,-5.337
0.227,0.042,0.332,-5.337
0.278,0.041,0.332,-5.337
0.280,0.043,0.334,-5.337
0.225,0.043,0.336,-5.337
0.206,0.042,0.334,-5.337
0.215,0.044,0.334,-5.337
0.172,0.044,0.334,-5.337
0.099,0.044,0.335,-5.337
0.062,0.042,0.337,-5.337
0.138,0.042,0.336,-5.337
0.214,0.040,0.333,-5.337
0.250,0.039,0.333,-5.337
0.202,0.041,0.334,-5.337
0.206,0.041,0.334,-5.337
0.194,0.040,0.334,-5.337
0.232,0.041,0.337,-5.337
0.295,0.041,0.340,-5.337
0.288,0.042,0.342,-5.337
0.287,0.044,0.340,-5.337
0.295,0.043,0.335,-5.337
0.279,0.043,0.338,-5.337
0.259,0.041,0.337,-5.337
0.245,0.038,0.336,-5.337
0.210,0.041,0.334,-5.337
0.188,0.045,0.336,-5.337
0.242,0.043,0.338,-5.337
0.252,0.040,0.336,-5.337
0.240,0.040,0.336,-5.337
0.245,0.041,0.334,-5.337
0.215,0.040,0.334,-5.337
0.156,0.038,0.335,-5.337
0.178,0.041,0.333,-5.337
0.166,0.045,0.335,-5.337
0.172,0.039,0.339,-5.337
0.243,0.037,0.337,-5.337
0.243,0.040,0.336,-5.337
0.268,0.044,0.336,-5.337
0.229,0.046,0.336,-5.337
0.225,0.045,0.337,-5.337
0.248,0.050,0.336,-5.337
0.168,0.050,0.335,-5.337
0.198,0.050,0.338,-5.337
0.304,0.046,0.341,-5.337
0.280,0.045,0.339,-5.337
0.228,0.046,0.338,-5.337
0.255,0.047,0.340,-5.337
0.232,0.047,0.337,-5.337
0.230,0.043,0.335,-5.337
0.224,0.044,0.336,-5.337
0.213,0.045,0.334,-5.337
0.190,0.046,0.335,-5.337
0.178,0.043,0.336,-5.337
0.235,0.042,0.336,-5.337
0.235,0.042,0.337,-5.337
0.241,0.040,0.337,-5.337
0.275,0.040,0.338,-5.337
0.308,0.038,0.336,-5.337
0.272,0.040,0.333,-5.337
0.172,0.043,0.333,-5.337
0.113,0.043,0.337,-5.337
0.141,0.043,0.340,-5.337
0.209,0.042,0.340,-5.337
0.210,0.044,0.343,-5.337
0.142,0.042,0.344,-5.337
0.163,0.036,0.344,-5.337
0.235,0.038,0.340,-5.337
0.263,0.038,0.335,-5.337
0.218,0.040,0.332,-5.337
0.202,0.042,0.333,-5.337
0.222,0.042,0.333,-5.337
0.271,0.041,0.333,-5.337
0.226,0.044,0.332,-5.337
0.205,0.044,0.332,-5.337
0.242,0.039,0.336,-5.337
0.297,0.042,0.336,-5.337
0.247,0.045,0.334,-5.337
0.232,0.048,0.337,-5.337
0.188,0.047,0.341,-5.337
0.150,0.050,0.341,-5.337
0.139,0.047,0.340,-5.337
0.191,0.049,0.338,-5.337
0.180,0.053,0.337,-5.337
0.115,0.050,0.336,-5.337
0.114,0.050,0.339,-5.337
0.180,0.047,0.340,-5.337
0.238,0.046,0.338,-5.337
0.275,0.043,0.333,-5.337
0.259,0.045,0.334,-5.337
0.169,0.050,0.337,-5.337
0.130,0.050,0.337,-5.337
0.185,0.046,0.334,-5.337
0.256,0.044,0.333,-5.337
0.243,0.046,0.335,-5.337
0.184,0.047,0.338,-5.337
0.141,0.045,0.336,-5.337
0.109,0.041,0.337,-5.337
0.192,0.039,0.338,-5.337
0.254,0.039,0.343,-5.337
0.185,0.042,0.343,-5.337
0.136,0.046,0.339,-5.337
0.201,0.042,0.335,-5.337
0.251,0.043,0.335,-5.337
0.261,0.046,0.340,-5.337
0.229,0.050,0.341,-5.337
0.184,0.048,0.342,-5.337
0.137,0.046,0.341,-5.337
0.156,0.048,0.337,-5.337
0.214,0.049,0.335,-5.337
0.218,0.046,0.336,-5.337
0.182,0.045,0.337,-5.337
0.269,0.043,0.338,-5.337
0.292,0.047,0.336,-5.337
0.202,0.050,0.335,-5.337
0.129,0.050,0.333,-5.337
0.153,0.052,0.336,-5.337
0.204,0.050,0.337,-5.337
0.186,0.048,0.336,-5.337
0.132,0.048,0.335,-5.337
0.138,0.052,0.333,-5.337
0.161,0.052,0.331,-5.337
0.154,0.054,0.329,-5.337
0.210,0.051,0.331,-5.337
0.298,0.048,0.335,-5.337
0.295,0.049,0.335,-5.337
0.234,0.053,0.339,-5.337
0.170,0.050,0.342,-5.337
0.150,0.050,0.343,-5.337
0.149,0.049,0.339,-5.337
0.219,0.050,0.337,-5.337
0.199,0.053,0.333,-5.337
0.119,0.053,0.328,-5.337
0.121,0.048,0.326,-5.337
0.213,0.047,0.329,-5.337
0.291,0.049,0.337,-5.337
0.192,0.054,0.340,-5.337
0.052,0.056,0.339,-5.337
0.099,0.057,0.336,-5.337
0.137,0.056,0.336,-5.337
0.142,0.056,0.337,-5.337
0.158,0.053,0.337,-5.337
0.175,0.052,0.337,-5.337
0.165,0.054,0.336,-5.337
0.203,0.053,0.338,-5.337
0.254,0.053,0.335,-5.337
0.257,0.051,0.333,-5.337
0.265,0.052,0.331,-5.337
0.264,0.054,0.333,-5.337
0.280,0.054,0.338,-5.337
0.216,0.054,0.341,-5.337
0.132,0.056,0.340,-5.337
0.156,0.058,0.338,-5.337
0.187,0.058,0.337,-5.337
0.235,0.054,0.339,-5.337
0.251,0.055,0.338,-5.337
0.193,0.053,0.338,-5.337
0.107,0.053,0.338,-5.337
0.100,0.049,0.339,-5.337
0.205,0.047,0.337,-5.337
0.235,0.050,0.333,-5.337
0.189,0.052,0.331,-5.337
0.145,0.055,0.331,-5.337
0.110,0.053,0.333,-5.337
0.147,0.051,0.333,-5.337
0.218,0.051,0.335,-5.337
0.208,0.055,0.337,-5.337
0.226,0.058,0.337,-5.337
0.196,0.061,0.335,-5.337
0.174,0.058,0.334,-5.337
0.210,0.057,0.336,-5.337
0.217,0.057,0.337,-5.337
0.205,0.055,0.336,-5.337
0.157,0.052,0.335,-5.337
0.154,0.052,0.335,-5.337
0.241,0.050,0.336,-5.337
0.264,0.051,0.335,-5.337
0.158,0.054,0.333,-5.337
0.088,0.054,0.332,-5.337
0.094,0.054,0.336,-5.337
0.126,0.052,0.342,-5.337
0.180,0.051,0.344,-5.337
0.203,0.051,0.342,-5.337
0.233,0.051,0.339,-5.337
0.206,0.051,0.336,-5.337
0.196,0.048,0.335,-5.337
0.209,0.046,0.336,-5.337
0.232,0.045,0.339,-5.337
0.244,0.044,0.340,-5.337
0.245,0.043,0.338,-5.337
0.260,0.045,0.337,-5.337
0.253,0.047,0.334,-5.337
0.195,0.044,0.332,-5.337
0.196,0.047,0.334,-5.337
0.218,0.051,0.339,-5.337
0.241,0.050,0.342,-5.337
0.264,0.052,0.341,-5.337
0.259,0.056,0.338,-5.337
0.241,0.054,0.337,-5.337
0.227,0.052,0.335,-5.337
0.236,0.054,0.331,-5.337
0.242,0.058,0.333,-5.337
0.272,0.057,0.337,-5.337
0.229,0.056,0.338,-5.337
0.154,0.051,0.340,-5.337
0.136,0.048,0.341,-5.337
0.201,0.051,0.341,-5.337
0.265,0.055,0.335,-5.337
0.307,0.054,0.333,-5.337
0.243,0.054,0.334,-5.337
0.209,0.058,0.339,-5.337
0.252,0.056,0.341,-5.337
0.256,0.054,0.340,-5.337
0.135,0.056,0.335,-5.337
0.037,0.058,0.332,-5.337
0.010,0.057,0.336,-5.337
0.048,0.057,0.344,-5.337
0.121,0.056,0.345,-5.337
0.137,0.056,0.341,-5.337
0.142,0.057,0.338,-5.337
0.156,0.056,0.333,-5.337
0.139,0.056,0.332,-5.337
0.139,0.058,0.333,-5.337
0.132,0.062,0.336,-5.337
0.134,0.062,0.338,-5.337
0.137,0.058,0.337,-5.337
0.161,0.056,0.335,-5.337
0.189,0.058,0.336,-5.337
0.177,0.061,0.337,-5.337
0.138,0.058,0.342,-5.337
0.153,0.056,0.339,-5.337
0.182,0.060,0.333,-5.337
0.202,0.062,0.337,-5.337
0.230,0.062,0.340,-5.337
0.199,0.057,0.336,-5.337
0.092,0.058,0.334,-5.337
0.115,0.055,0.335,-5.337
0.181,0.054,0.336,-5.337
0.198,0.053,0.334,-5.337
0.279,0.052,0.334,-5.337
0.356,0.052,0.337,-5.337
0.384,0.055,0.335,-5.337
0.333,0.059,0.333,-5.337
0.246,0.059,0.331,-5.337
0.205,0.057,0.333,-5.337
0.217,0.058,0.334,-5.337
0.237,0.057,0.334,-5.337
0.191,0.059,0.334,-5.337
0.149,0.056,0.340,-5.337
0.143,0.058,0.341,-5.337
0.057,0.060,0.340,-5.337
0.052,0.057,0.336,-5.337
0.160,0.059,0.336,-5.337
0.225,0.054,0.333,-5.337
0.193,0.056,0.335,-5.337
0.157,0.059,0.337,-5.337
0.084,0.065,0.338,-5.337
0.143,0.065,0.337,-5.337
0.189,0.063,0.331,-5.337
0.138,0.062,0.329,-5.337
0.108,0.064,0.329,-5.337
0.194,0.062,0.331,-5.337
0.189,0.064,0.334,-5.337
0.171,0.063,0.333,-5.337
0.159,0.063,0.333,-5.337
0.251,0.061,0.333,-5.337
0.324,0.060,0.334,-5.337
0.264,0.063,0.334,-5.337
0.227,0.063,0.333,-5.337
0.219,0.062,0.333,-5.337
0.204,0.065,0.332,-5.337
0.183,0.066,0.336,-5.337
0.273,0.060,0.339,-5.337
0.302,0.060,0.340,-5.337
0.242,0.060,0.336,-5.337
0.181,0.064,0.334,-5.337
0.210,0.063,0.334,-5.337
0.251,0.063,0.337,-5.337
0.218,0.064,0.337,-5.337
0.245,0.062,0.336,-5.337
0.201,0.061,0.334,-5.337
0.186,0.062,0.334,-5.337
0.216,0.061,0.336,-5.337
0.205,0.062,0.331,-5.337
0.123,0.061,0.326,-5.337
0.121,0.060,0.329,-5.337
0.151,0.060,0.334,-5.337
0.113,0.066,0.336,-5.337
0.094,0.067,0.338,-5.337
0.108,0.065,0.338,-5.337
0.147,0.062,0.336,-5.337
