[Parameters]
Operating Mode, Feedback
Subject  AA..ZZ, WT
Session  0..99, 42
No. Trials (1..9999), 500
Mouse Number, 1
Pressure Probe Serial Port, \00\00\00\04COM4
Save additional csv file, TRUE
Save using mouse number, FALSE
A/D Monitor Rate (Hz), 30000.000000
A/D Stimulate Rate (Hz), 30000.000000
A/D input range (+/- V), 5
No. Channels to acquire (N), 2
Pre-Stim Acq. time (ms), 100.000000
Post-Stim Acq. time (ms), 900.000000
Analysis window parameters.M-response Start (ms), 1.100000
Analysis window parameters.M-response Duration (ms), 5.500000
Analysis window parameters.H-response Duration (ms), 6.000000
Analysis window parameters.H-response Start (ms), 6.500000
Feedback window, H response
Proportional gain, 0.100000
Target value, 6.700000
Feedback Ch., 1
Stim Channel to Control (1-4), 4
Trial, 23
Wait for EMG Conditions, FALSE
Channel to monitor (0 - N-1), 1
EMG Hi Limit, 2.000000
EMG Lo Limit, 0.001000
Inter-Stim delay (sec), 10.000000
EMG Monitor Mode, Mean
Time to run Long Stim.(sec), 30
Save Long Stim Data?, OFF
BURST Save time (ms), 1000
BURST Save Interval (x above), 10
Long-Stim. Rep. Rate (Hz), 10.000000
Stim type cluster array.<size(s)>, 4
Stim type cluster array 0.Stimulus Output, Electrical
Stim type cluster array 1.Stimulus Output, OFF
Stim type cluster array 2.Stimulus Output, OFF
Stim type cluster array 3.Stimulus Output, Motor Length
Stim specs cluster array.<size(s)>, 4
Stim specs cluster array 0.Initial Stimulus ampl., 0.300000
Stim specs cluster array 0.Maximum Stimulus, 1.120000
Stim specs cluster array 0.#Pulses in train, 4
Stim specs cluster array 0.Peak Level time (ms), 1.000000
Stim specs cluster array 0.Total pulse period (ms), 150.000000
Stim specs cluster array 0.Start Delay (ms), -50.000000
Stim specs cluster array 0.Pulse Shape, Square
Stim specs cluster array 0.Ramp/Rel. time (ms), 0.100000
Stim specs cluster array 0.Peak Amplitude (V), 0.120000
Stim specs cluster array 1.Initial Stimulus ampl., 0.000000
Stim specs cluster array 1.Maximum Stimulus, 0.000000
Stim specs cluster array 1.#Pulses in train, 3
Stim specs cluster array 1.Peak Level time (ms), 29.000000
Stim specs cluster array 1.Total pulse period (ms), 200.000000
Stim specs cluster array 1.Start Delay (ms), 0.000000
Stim specs cluster array 1.Pulse Shape, Square
Stim specs cluster array 1.Ramp/Rel. time (ms), 0.000000
Stim specs cluster array 1.Peak Amplitude (V), 2.000000
Stim specs cluster array 2.Initial Stimulus ampl., 0.000000
Stim specs cluster array 2.Maximum Stimulus, 0.000000
Stim specs cluster array 2.#Pulses in train, 1
Stim specs cluster array 2.Peak Level time (ms), 25.000000
Stim specs cluster array 2.Total pulse period (ms), 200.000000
Stim specs cluster array 2.Start Delay (ms), 0.000000
Stim specs cluster array 2.Pulse Shape, Square
Stim specs cluster array 2.Ramp/Rel. time (ms), 20.000000
Stim specs cluster array 2.Peak Amplitude (V), 10.000000
Stim specs cluster array 3.Initial Stimulus ampl., 0.000000
Stim specs cluster array 3.Maximum Stimulus, 20.000000
Stim specs cluster array 3.#Pulses in train, 25
Stim specs cluster array 3.Peak Level time (ms), 0.100000
Stim specs cluster array 3.Total pulse period (ms), 4.000000
Stim specs cluster array 3.Start Delay (ms), 205.000000
Stim specs cluster array 3.Pulse Shape, Triangle
Stim specs cluster array 3.Ramp/Rel. time (ms), 3.000000
Stim specs cluster array 3.Peak Amplitude (V), 0.500000
Force cal. (mN/Volt), 100.000000
Force Range (mN), 100.000000
Length cal. (mm/Volt), 10.000000
Length Range (mm), 10.000000
Stim. 1, 0.300000
Stim. 2, 0.000000
Stim. 3, 0.000000
Stim. 4, 0.000000
Monitor acquire time (ms), 100.000000
EMG graph Ymax, 0.100000
Travel limit (mm), 20.000000
Use Pressure Probe, FALSE
Pressure goal (g), 100
Speed (mm/sec), 5.000000
Dwell time (ms), 100.000000
Pressure limit (g), 500.000000
Channel amplitude offset, 0.000000

[DATA]

0.256,0.028,0.335,-5.337
0.203,0.030,0.333,-5.337
0.203,0.029,0.327,-5.337
0.267,0.024,0.325,-5.337
0.295,0.025,0.325,-5.337
0.261,0.028,0.324,-5.337
0.137,0.029,0.328,-5.337
0.099,0.029,0.328,-5.337
0.117,0.027,0.331,-5.337
0.110,0.027,0.333,-5.337
0.131,0.026,0.334,-5.337
0.205,0.024,0.330,-5.337
0.225,0.029,0.329,-5.337
0.193,0.030,0.327,-5.337
0.223,0.027,0.328,-5.337
0.167,0.022,0.328,-5.337
0.071,0.025,0.328,-5.337
0.076,0.029,0.328,-5.337
0.184,0.025,0.329,-5.337
0.244,0.023,0.330,-5.337
0.252,0.024,0.332,-5.337
0.210,0.024,0.335,-5.337
0.227,0.025,0.332,-5.337
0.220,0.026,0.328,-5.337
0.160,0.029,0.330,-5.337
0.177,0.026,0.328,-5.337
0.223,0.025,0.327,-5.337
0.280,0.023,0.327,-5.337
0.311,0.027,0.326,-5.337
0.246,0.030,0.324,-5.337
0.128,0.032,0.326,-5.337
0.149,0.031,0.332,-5.337
0.224,0.026,0.333,-5.337
0.284,0.024,0.329,-5.337
0.251,0.029,0.329,-5.337
0.202,0.033,0.330,-5.337
0.235,0.031,0.327,-5.337
0.203,0.029,0.326,-5.337
0.217,0.029,0.328,-5.337
0.254,0.031,0.328,-5.337
0.238,0.029,0.328,-5.337
0.244,0.033,0.334,-5.337
0.203,0.035,0.335,-5.337
0.206,0.032,0.334,-5.337
0.197,0.027,0.332,-5.337
0.203,0.029,0.329,-5.337
0.179,0.033,0.328,-5.337
0.144,0.034,0.329,-5.337
0.124,0.032,0.329,-5.337
0.164,0.029,0.329,-5.337
0.161,0.030,0.330,-5.337
0.156,0.033,0.329,-5.337
0.141,0.039,0.326,-5.337
0.168,0.040,0.322,-5.337
0.155,0.035,0.323,-5.337
0.093,0.032,0.326,-5.337
0.144,0.032,0.328,-5.337
0.192,0.033,0.328,-5.337
0.185,0.033,0.326,-5.337
0.189,0.032,0.326,-5.337
0.200,0.033,0.329,-5.337
0.208,0.029,0.327,-5.337
0.232,0.030,0.329,-5.337
0.223,0.030,0.332,-5.337
0.151,0.031,0.331,-5.337
0.180,0.033,0.329,-5.337
0.206,0.035,0.327,-5.337
0.187,0.031,0.326,-5.337
0.234,0.029,0.330,-5.337
0.237,0.027,0.331,-5.337
0.229,0.030,0.333,-5.337
0.250,0.032,0.332,-5.337
0.253,0.034,0.331,-5.337
0.232,0.033,0.329,-5.337
0.249,0.036,0.327,-5.337
0.215,0.038,0.328,-5.337
0.179,0.037,0.329,-5.337
0.109,0.039,0.330,-5.337
0.112,0.040,0.330,-5.337
0.138,0.037,0.329,-5.337
0.174,0.034,0.326,-5.337
0.180,0.037,0.326,-5.337
0.200,0.039,0.327,-5.337
0.222,0.039,0.329,-5.337
0.231,0.039,0.329,-5.337
0.208,0.040,0.331,-5.337
0.179,0.038,0.329,-5.337
0.262,0.035,0.322,-5.337
0.267,0.037,0.318,-5.337
0.173,0.039,0.322,-5.337
0.162,0.033,0.327,-5.337
0.251,0.034,0.331,-5.337
0.180,0.037,0.329,-5.337
0.161,0.040,0.325,-5.337
0.140,0.044,0.323,-5.337
0.133,0.043,0.325,-5.337
0.177,0.043,0.328,-5.337
0.198,0.041,0.328,-5.337
0.117,0.041,0.329,-5.337
0.072,0.038,0.327,-5.337
0.168,0.037,0.329,-5.337
0.136,0.044,0.332,-5.337
0.117,0.044,0.331,-5.337
0.094,0.043,0.330,-5.337
0.119,0.039,0.331,-5.337
0.226,0.036,0.331,-5.337
0.249,0.036,0.329,-5.337
0.239,0.038,0.324,-5.337
0.211,0.036,0.324,-5.337
0.250,0.037,0.322,-5.337
0.159,0.047,0.323,-5.337
0.137,0.043,0.328,-5.337
0.219,0.037,0.332,-5.337
0.221,0.036,0.335,-5.337
0.182,0.039,0.334,-5.337
0.190,0.038,0.330,-5.337
0.224,0.038,0.325,-5.337
0.272,0.041,0.321,-5.337
0.210,0.043,0.325,-5.337
0.175,0.042,0.331,-5.337
0.277,0.037,0.333,-5.337
0.309,0.036,0.331,-5.337
0.302,0.036,0.326,-5.337
0.337,0.037,0.329,-5.337
0.376,0.037,0.326,-5.337
0.400,0.038,0.322,-5.337
0.209,0.041,0.321,-5.337
0.121,0.041,0.317,-5.337
0.161,0.043,0.320,-5.337
0.191,0.046,0.325,-5.337
0.179,0.043,0.327,-5.337
0.164,0.043,0.328,-5.337
0.185,0.043,0.329,-5.337
0.174,0.045,0.327,-5.337
0.143,0.048,0.324,-5.337
0.164,0.045,0.322,-5.337
0.226,0.041,0.325,-5.337
0.323,0.040,0.328,-5.337
0.319,0.043,0.330,-5.337
0.223,0.045,0.328,-5.337
0.094,0.048,0.325,-5.337
0.123,0.048,0.325,-5.337
0.163,0.048,0.325,-5.337
0.165,0.046,0.321,-5.337
0.172,0.048,0.320,-5.337
0.139,0.049,0.324,-5.337
0.208,0.043,0.330,-5.337
0.286,0.042,0.331,-5.337
0.231,0.046,0.329,-5.337
0.151,0.051,0.327,-5.337
0.188,0.048,0.329,-5.337
0.189,0.049,0.331,-5.337
0.165,0.050,0.329,-5.337
0.165,0.047,0.325,-5.337
0.185,0.046,0.328,-5.337
0.163,0.046,0.328,-5.337
0.100,0.048,0.327,-5.337
0.125,0.045,0.326,-5.337
0.173,0.043,0.325,-5.337
0.131,0.048,0.326,-5.337
0.127,0.048,0.327,-5.337
0.218,0.045,0.329,-5.337
0.192,0.044,0.326,-5.337
0.145,0.046,0.324,-5.337
0.186,0.043,0.325,-5.337
0.239,0.047,0.329,-5.337
0.168,0.052,0.329,-5.337
0.070,0.053,0.329,-5.337
0.071,0.050,0.325,-5.337
0.122,0.050,0.326,-5.337
0.212,0.051,0.324,-5.337
0.214,0.051,0.324,-5.337
0.151,0.051,0.324,-5.337
0.220,0.048,0.325,-5.337
0.255,0.050,0.323,-5.337
0.222,0.054,0.322,-5.337
0.208,0.052,0.323,-5.337
0.240,0.049,0.326,-5.337
0.246,0.048,0.326,-5.337
0.147,0.052,0.327,-5.337
0.163,0.051,0.325,-5.337
0.169,0.052,0.323,-5.337
0.132,0.054,0.324,-5.337
0.196,0.051,0.329,-5.337
0.249,0.047,0.333,-5.337
0.220,0.049,0.334,-5.337
0.158,0.048,0.333,-5.337
0.174,0.045,0.331,-5.337
0.202,0.046,0.325,-5.337
0.225,0.047,0.320,-5.337
0.217,0.049,0.320,-5.337
0.232,0.047,0.319,-5.337
0.251,0.047,0.322,-5.337
0.222,0.051,0.325,-5.337
0.217,0.054,0.327,-5.337
0.210,0.048,0.327,-5.337
0.251,0.051,0.327,-5.337
0.207,0.053,0.325,-5.337
0.150,0.057,0.327,-5.337
0.146,0.055,0.326,-5.337
0.196,0.053,0.325,-5.337
0.187,0.052,0.327,-5.337
0.177,0.049,0.325,-5.337
0.150,0.048,0.326,-5.337
0.146,0.049,0.329,-5.337
0.164,0.050,0.329,-5.337
0.166,0.048,0.329,-5.337
0.138,0.049,0.327,-5.337
0.176,0.049,0.324,-5.337
0.157,0.049,0.323,-5.337
0.167,0.053,0.323,-5.337
0.201,0.048,0.324,-5.337
0.187,0.051,0.327,-5.337
0.146,0.051,0.325,-5.337
0.101,0.049,0.324,-5.337
0.088,0.048,0.324,-5.337
0.117,0.047,0.323,-5.337
0.133,0.046,0.328,-5.337
0.150,0.049,0.328,-5.337
0.156,0.048,0.330,-5.337
0.229,0.049,0.331,-5.337
0.248,0.051,0.326,-5.337
0.267,0.050,0.324,-5.337
0.184,0.049,0.324,-5.337
0.224,0.048,0.328,-5.337
0.251,0.052,0.326,-5.337
0.243,0.052,0.321,-5.337
0.196,0.053,0.319,-5.337
0.130,0.057,0.318,-5.337
0.166,0.057,0.321,-5.337
0.241,0.053,0.327,-5.337
0.273,0.055,0.325,-5.337
0.214,0.057,0.325,-5.337
0.229,0.056,0.331,-5.337
0.187,0.057,0.330,-5.337
0.153,0.056,0.329,-5.337
0.135,0.058,0.328,-5.337
0.023,0.060,0.324,-5.337
0.055,0.055,0.321,-5.337
0.168,0.055,0.321,-5.337
0.237,0.053,0.328,-5.337
0.157,0.056,0.333,-5.337
0.098,0.053,0.332,-5.337
0.165,0.053,0.327,-5.337
0.226,0.058,0.325,-5.337
0.237,0.056,0.323,-5.337
0.262,0.057,0.327,-5.337
0.259,0.054,0.331,-5.337
0.175,0.056,0.331,-5.337
0.151,0.056,0.328,-5.337
0.215,0.054,0.330,-5.337
0.189,0.052,0.331,-5.337
0.186,0.051,0.324,-5.337
0.184,0.056,0.321,-5.337
0.146,0.054,0.323,-5.337
0.200,0.053,0.325,-5.337
0.180,0.055,0.326,-5.337
0.178,0.058,0.326,-5.337
0.256,0.054,0.325,-5.337
0.241,0.054,0.329,-5.337
0.216,0.055,0.329,-5.337
0.222,0.055,0.325,-5.337
0.201,0.057,0.322,-5.337
0.202,0.055,0.323,-5.337
0.272,0.051,0.324,-5.337
0.280,0.048,0.327,-5.337
0.245,0.050,0.328,-5.337
0.226,0.056,0.329,-5.337
0.223,0.053,0.328,-5.337
0.192,0.054,0.330,-5.337
0.183,0.055,0.327,-5.337
0.231,0.054,0.322,-5.337
0.279,0.051,0.322,-5.337
0.266,0.055,0.322,-5.337
0.140,0.057,0.323,-5.337
0.075,0.058,0.331,-5.337
0.168,0.055,0.339,-5.337
0.260,0.054,0.337,-5.337
0.232,0.055,0.330,-5.337
0.202,0.054,0.325,-5.337
0.259,0.054,0.323,-5.337
0.241,0.054,0.326,-5.337
0.150,0.049,0.329,-5.337
0.160,0.049,0.325,-5.337
0.187,0.048,0.323,-5.337
0.151,0.048,0.326,-5.337
0.190,0.047,0.326,-5.337
0.269,0.045,0.324,-5.337
0.238,0.051,0.325,-5.337
0.113,0.053,0.328,-5.337
0.096,0.054,0.331,-5.337
0.147,0.051,0.328,-5.337
0.159,0.054,0.322,-5.337
0.166,0.052,0.323,-5.337
0.213,0.052,0.327,-5.337
0.227,0.051,0.332,-5.337
0.169,0.054,0.333,-5.337
0.122,0.054,0.331,-5.337
0.134,0.054,0.327,-5.337
0.242,0.052,0.324,-5.337
0.282,0.051,0.321,-5.337
0.227,0.048,0.324,-5.337
0.203,0.047,0.328,-5.337
0.202,0.047,0.331,-5.337
0.166,0.047,0.326,-5.337
0.240,0.049,0.324,-5.337
0.264,0.046,0.322,-5.337
0.228,0.044,0.325,-5.337
0.222,0.046,0.327,-5.337
0.174,0.051,0.330,-5.337
0.135,0.049,0.331,-5.337
0.132,0.048,0.329,-5.337
0.110,0.048,0.327,-5.337
0.116,0.047,0.324,-5.337
0.135,0.050,0.324,-5.337
0.126,0.050,0.329,-5.337
0.148,0.052,0.332,-5.337
0.154,0.055,0.326,-5.337
0.200,0.051,0.321,-5.337
0.219,0.050,0.326,-5.337
0.161,0.051,0.330,-5.337
0.089,0.053,0.331,-5.337
0.127,0.048,0.329,-5.337
0.185,0.045,0.326,-5.337
0.191,0.048,0.328,-5.337
0.183,0.049,0.327,-5.337
0.173,0.049,0.328,-5.337
0.242,0.047,0.331,-5.337
0.319,0.047,0.337,-5.337
0.354,0.045,0.334,-5.337
0.399,0.040,0.330,-5.337
0.321,0.042,0.327,-5.337
0.286,0.041,0.326,-5.337
0.300,0.040,0.324,-5.337
0.208,0.046,0.326,-5.337
0.123,0.046,0.327,-5.337
0.131,0.049,0.328,-5.337
0.208,0.045,0.328,-5.337
0.220,0.044,0.330,-5.337
0.186,0.041,0.335,-5.337
0.175,0.042,0.336,-5.337
0.161,0.042,0.331,-5.337
0.154,0.042,0.329,-5.337
0.179,0.041,0.325,-5.337
0.206,0.039,0.323,-5.337
0.211,0.040,0.321,-5.337
0.216,0.036,0.322,-5.337
0.140,0.036,0.324,-5.337
0.174,0.034,0.325,-5.337
0.208,0.034,0.327,-5.337
0.214,0.038,0.328,-5.337
0.262,0.037,0.330,-5.337
0.247,0.038,0.331,-5.337
0.221,0.040,0.328,-5.337
0.186,0.039,0.325,-5.337
0.089,0.044,0.326,-5.337
0.107,0.041,0.328,-5.337
0.178,0.040,0.330,-5.337
0.185,0.039,0.331,-5.337
0.159,0.039,0.332,-5.337
0.202,0.041,0.327,-5.337
0.207,0.045,0.327,-5.337
0.176,0.042,0.330,-5.337
0.213,0.038,0.331,-5.337
0.195,0.036,0.330,-5.337
0.161,0.042,0.331,-5.337
0.111,0.042,0.331,-5.337
0.122,0.040,0.328,-5.337
0.167,0.041,0.324,-5.337
0.218,0.041,0.323,-5.337
0.261,0.041,0.324,-5.337
0.234,0.040,0.326,-5.337
0.207,0.039,0.331,-5.337
0.219,0.037,0.332,-5.337
0.244,0.036,0.332,-5.337
0.244,0.036,0.330,-5.337
0.177,0.037,0.328,-5.337
0.211,0.036,0.326,-5.337
0.288,0.033,0.326,-5.337
0.259,0.032,0.326,-5.337
0.229,0.036,0.325,-5.337
0.200,0.036,0.319,-5.337
0.153,0.036,0.320,-5.337
0.129,0.035,0.327,-5.337
0.211,0.033,0.330,-5.337
0.230,0.034,0.329,-5.337
0.197,0.038,0.330,-5.337
0.184,0.035,0.331,-5.337
0.198,0.035,0.330,-5.337
0.235,0.035,0.331,-5.337
0.214,0.037,0.330,-5.337
0.150,0.039,0.329,-5.337
0.211,0.035,0.330,-5.337
0.209,0.036,0.329,-5.337
0.110,0.041,0.327,-5.337
0.076,0.040,0.329,-5.337
0.161,0.036,0.328,-5.337
0.154,0.037,0.327,-5.337
0.119,0.038,0.327,-5.337
0.132,0.042,0.328,-5.337
0.137,0.043,0.329,-5.337
0.151,0.040,0.326,-5.337
0.184,0.033,0.320,-5.337
0.202,0.030,0.322,-5.337
0.198,0.036,0.328,-5.337
0.142,0.037,0.333,-5.337
0.119,0.036,0.332,-5.337
0.143,0.033,0.330,-5.337
0.175,0.036,0.324,-5.337
0.197,0.040,0.323,-5.337
0.350,0.035,0.327,-5.337
0.368,0.038,0.331,-5.337
0.318,0.040,0.325,-5.337
0.275,0.039,0.322,-5.337
0.296,0.038,0.323,-5.337
0.279,0.039,0.322,-5.337
0.293,0.035,0.324,-5.337
0.306,0.034,0.327,-5.337
0.230,0.036,0.332,-5.337
0.143,0.038,0.330,-5.337
0.146,0.037,0.328,-5.337
0.167,0.039,0.329,-5.337
0.197,0.043,0.332,-5.337
0.221,0.041,0.326,-5.337
0.270,0.038,0.322,-5.337
0.310,0.037,0.321,-5.337
0.215,0.038,0.323,-5.337
0.119,0.035,0.324,-5.337
0.151,0.036,0.326,-5.337
0.202,0.037,0.327,-5.337
0.239,0.033,0.328,-5.337
0.214,0.034,0.328,-5.337
0.235,0.036,0.325,-5.337
0.198,0.037,0.320,-5.337
0.109,0.037,0.324,-5.337
0.137,0.036,0.327,-5.337
0.223,0.032,0.328,-5.337
0.268,0.029,0.325,-5.337
0.219,0.036,0.324,-5.337
0.171,0.038,0.326,-5.337
0.176,0.038,0.325,-5.337
0.223,0.038,0.327,-5.337
0.236,0.040,0.330,-5.337
0.245,0.039,0.334,-5.337
0.236,0.040,0.329,-5.337
0.215,0.042,0.325,-5.337
0.221,0.038,0.321,-5.337
0.224,0.036,0.325,-5.337
0.128,0.037,0.329,-5.337
0.129,0.035,0.328,-5.337
0.208,0.033,0.325,-5.337
0.294,0.034,0.322,-5.337
0.292,0.037,0.322,-5.337
0.272,0.036,0.325,-5.337
0.259,0.035,0.324,-5.337
0.309,0.037,0.324,-5.337
0.291,0.035,0.324,-5.337
0.215,0.033,0.321,-5.337
0.179,0.036,0.318,-5.337
0.178,0.037,0.320,-5.337
0.103,0.040,0.325,-5.337
0.098,0.038,0.327,-5.337
0.136,0.034,0.324,-5.337
0.242,0.031,0.320,-5.337
0.312,0.033,0.323,-5.337
0.342,0.033,0.323,-5.337
0.268,0.037,0.325,-5.337
0.258,0.034,0.323,-5.337
0.268,0.030,0.321,-5.337
0.293,0.029,0.321,-5.337
0.248,0.028,0.323,-5.337
0.198,0.029,0.324,-5.337
0.206,0.032,0.329,-5.337
0.210,0.029,0.330,-5.337
0.214,0.032,0.327,-5.337
0.175,0.034,0.321,-5.337
0.188,0.035,0.320,-5.337
0.203,0.033,0.323,-5.337
0.241,0.030,0.325,-5.337
0.277,0.029,0.325,-5.337
0.236,0.034,0.323,-5.337
0.208,0.035,0.321,-5.337
0.232,0.030,0.323,-5.337
0.201,0.027,0.322,-5.337
0.220,0.028,0.322,-5.337
0.208,0.027,0.324,-5.337
0.138,0.033,0.326,-5.337
0.090,0.030,0.327,-5.337
0.148,0.027,0.325,-5.337
0.201,0.029,0.321,-5.337
0.177,0.029,0.318,-5.337
0.182,0.030,0.318,-5.337
0.207,0.032,0.315,-5.337
0.257,0.031,0.315,-5.337
0.199,0.031,0.317,-5.337
0.122,0.033,0.324,-5.337
0.139,0.031,0.328,-5.337
0.137,0.032,0.328,-5.337
0.185,0.027,0.325,-5.337
0.211,0.031,0.324,-5.337
0.175,0.031,0.328,-5.337
0.227,0.028,0.327,-5.337
0.317,0.028,0.323,-5.337
0.344,0.030,0.320,-5.337
0.312,0.029,0.318,-5.337
0.234,0.031,0.320,-5.337
0.223,0.028,0.322,-5.337
0.318,0.025,0.323,-5.337
0.303,0.029,0.324,-5.337
0.176,0.033,0.326,-5.337
0.131,0.034,0.326,-5.337
0.216,0.029,0.323,-5.337
0.269,0.029,0.320,-5.337
0.303,0.027,0.318,-5.337
0.263,0.029,0.321,-5.337
0.201,0.031,0.322,-5.337
0.156,0.031,0.326,-5.337
0.086,0.032,0.323,-5.337
0.116,0.031,0.321,-5.337
0.187,0.029,0.319,-5.337
0.187,0.029,0.318,-5.337
0.179,0.028,0.322,-5.337
0.232,0.027,0.326,-5.337
0.286,0.027,0.324,-5.337
0.224,0.030,0.322,-5.337
0.107,0.034,0.325,-5.337
0.146,0.032,0.329,-5.337
0.225,0.031,0.326,-5.337
0.153,0.036,0.324,-5.337
0.153,0.036,0.325,-5.337
0.181,0.032,0.322,-5.337
0.228,0.028,0.319,-5.337
0.276,0.027,0.320,-5.337
0.328,0.026,0.325,-5.337
0.282,0.028,0.325,-5.337
0.210,0.031,0.326,-5.337
0.094,0.034,0.323,-5.337
0.086,0.034,0.323,-5.337
0.145,0.031,0.325,-5.337
0.189,0.030,0.326,-5.337
0.224,0.032,0.325,-5.337
0.191,0.036,0.328,-5.337
0.193,0.035,0.329,-5.337
0.225,0.033,0.325,-5.337
0.211,0.029,0.316,-5.337
0.242,0.030,0.314,-5.337
0.206,0.029,0.318,-5.337
0.118,0.030,0.326,-5.337
0.060,0.029,0.329,-5.337
0.084,0.031,0.325,-5.337
0.166,0.033,0.320,-5.337
0.213,0.033,0.324,-5.337
0.199,0.033,0.331,-5.337
0.194,0.032,0.330,-5.337
0.151,0.037,0.323,-5.337
0.177,0.037,0.318,-5.337
0.164,0.031,0.323,-5.337
0.180,0.028,0.327,-5.337
0.196,0.028,0.326,-5.337
0.177,0.032,0.321,-5.337
0.106,0.039,0.320,-5.337
0.041,0.038,0.318,-5.337
0.196,0.033,0.321,-5.337
0.242,0.032,0.324,-5.337
0.161,0.035,0.322,-5.337
0.100,0.034,0.322,-5.337
0.096,0.035,0.323,-5.337
0.085,0.037,0.324,-5.337
0.033,0.040,0.326,-5.337
0.046,0.040,0.328,-5.337
0.116,0.038,0.326,-5.337
0.133,0.034,0.321,-5.337
0.122,0.034,0.317,-5.337
0.118,0.039,0.319,-5.337
0.186,0.040,0.323,-5.337
0.196,0.036,0.326,-5.337
0.201,0.031,0.325,-5.337
0.175,0.032,0.323,-5.337
0.141,0.037,0.325,-5.337
0.171,0.039,0.325,-5.337
0.180,0.036,0.324,-5.337
0.235,0.034,0.324,-5.337
0.233,0.035,0.321,-5.337
0.243,0.040,0.323,-5.337
0.273,0.038,0.321,-5.337
0.260,0.038,0.322,-5.337
0.093,0.041,0.321,-5.337
0.047,0.043,0.322,-5.337
0.116,0.041,0.328,-5.337
0.211,0.039,0.329,-5.337
0.181,0.040,0.326,-5.337
0.161,0.042,0.324,-5.337
0.117,0.044,0.320,-5.337
0.079,0.041,0.319,-5.337
0.126,0.036,0.320,-5.337
0.155,0.037,0.323,-5.337
0.156,0.037,0.325,-5.337
0.126,0.039,0.327,-5.337
0.113,0.042,0.325,-5.337
0.147,0.044,0.323,-5.337
0.147,0.044,0.324,-5.337
0.193,0.043,0.322,-5.337
0.230,0.041,0.317,-5.337
0.249,0.041,0.313,-5.337
0.289,0.040,0.315,-5.337
0.271,0.041,0.320,-5.337
0.185,0.043,0.326,-5.337
0.048,0.046,0.327,-5.337
0.055,0.045,0.324,-5.337
0.189,0.042,0.321,-5.337
0.161,0.044,0.321,-5.337
0.088,0.041,0.324,-5.337
0.138,0.039,0.328,-5.337
0.226,0.036,0.324,-5.337
0.268,0.036,0.319,-5.337
0.260,0.036,0.320,-5.337
0.236,0.040,0.323,-5.337
0.223,0.038,0.323,-5.337
0.181,0.037,0.326,-5.337
0.215,0.035,0.325,-5.337
0.261,0.037,0.320,-5.337
0.254,0.040,0.320,-5.337
0.167,0.047,0.320,-5.337
0.072,0.047,0.321,-5.337
0.088,0.042,0.321,-5.337
0.112,0.040,0.325,-5.337
0.155,0.040,0.324,-5.337
0.174,0.040,0.323,-5.337
0.208,0.039,0.322,-5.337
0.215,0.042,0.319,-5.337
0.167,0.042,0.314,-5.337
0.193,0.041,0.313,-5.337
0.214,0.040,0.319,-5.337
0.267,0.039,0.325,-5.337
0.258,0.042,0.326,-5.337
0.236,0.046,0.325,-5.337
0.308,0.041,0.324,-5.337
0.267,0.044,0.329,-5.337
0.198,0.042,0.330,-5.337
0.207,0.042,0.327,-5.337
0.292,0.041,0.324,-5.337
0.262,0.041,0.321,-5.337
0.192,0.044,0.320,-5.337
0.163,0.046,0.317,-5.337
0.198,0.045,0.318,-5.337
0.194,0.044,0.321,-5.337
0.188,0.044,0.322,-5.337
0.179,0.042,0.324,-5.337
0.134,0.045,0.325,-5.337
0.131,0.047,0.321,-5.337
0.214,0.047,0.322,-5.337
0.218,0.045,0.325,-5.337
0.179,0.046,0.327,-5.337
0.159,0.045,0.322,-5.337
0.194,0.045,0.317,-5.337
0.220,0.044,0.316,-5.337
0.273,0.045,0.318,-5.337
0.284,0.046,0.323,-5.337
0.252,0.047,0.324,-5.337
0.218,0.044,0.326,-5.337
0.104,0.048,0.326,-5.337
0.062,0.048,0.324,-5.337
0.134,0.045,0.326,-5.337
0.158,0.045,0.324,-5.337
0.183,0.045,0.323,-5.337
0.201,0.044,0.324,-5.337
0.174,0.044,0.323,-5.337
0.166,0.046,0.323,-5.337
0.115,0.047,0.321,-5.337
0.179,0.044,0.321,-5.337
0.241,0.046,0.321,-5.337
0.178,0.044,0.319,-5.337
0.135,0.049,0.323,-5.337
0.115,0.050,0.326,-5.337
0.197,0.047,0.321,-5.337
0.203,0.050,0.320,-5.337
0.148,0.052,0.319,-5.337
0.131,0.054,0.320,-5.337
0.235,0.049,0.320,-5.337
0.287,0.052,0.319,-5.337
0.157,0.055,0.322,-5.337
0.107,0.054,0.325,-5.337
0.182,0.052,0.325,-5.337
0.196,0.052,0.323,-5.337
0.178,0.055,0.321,-5.337
0.210,0.056,0.323,-5.337
0.198,0.053,0.323,-5.337
0.215,0.054,0.321,-5.337
0.164,0.053,0.324,-5.337
0.136,0.052,0.325,-5.337
0.170,0.053,0.326,-5.337
0.220,0.055,0.325,-5.337
0.127,0.057,0.321,-5.337
0.148,0.053,0.320,-5.337
0.248,0.049,0.323,-5.337
0.303,0.048,0.324,-5.337
0.244,0.050,0.320,-5.337
0.156,0.054,0.319,-5.337
0.179,0.054,0.321,-5.337
0.221,0.052,0.321,-5.337
0.238,0.052,0.322,-5.337
0.174,0.054,0.323,-5.337
0.104,0.054,0.320,-5.337
0.135,0.050,0.320,-5.337
0.135,0.050,0.319,-5.337
0.150,0.048,0.321,-5.337
0.148,0.049,0.322,-5.337
0.166,0.051,0.319,-5.337
0.211,0.050,0.320,-5.337
0.208,0.049,0.320,-5.337
0.173,0.051,0.320,-5.337
0.252,0.048,0.320,-5.337
0.317,0.047,0.322,-5.337
0.251,0.050,0.326,-5.337
0.223,0.050,0.325,-5.337
0.193,0.050,0.322,-5.337
0.186,0.048,0.323,-5.337
0.171,0.045,0.328,-5.337
0.156,0.046,0.327,-5.337
0.205,0.046,0.325,-5.337
0.220,0.053,0.320,-5.337
0.102,0.057,0.318,-5.337
0.132,0.054,0.318,-5.337
0.193,0.053,0.321,-5.337
0.106,0.053,0.323,-5.337
0.058,0.053,0.325,-5.337
0.096,0.049,0.324,-5.337
0.203,0.047,0.322,-5.337
0.182,0.050,0.319,-5.337
0.128,0.056,0.318,-5.337
0.125,0.055,0.317,-5.337
0.181,0.051,0.318,-5.337
0.205,0.050,0.321,-5.337
0.161,0.053,0.322,-5.337
0.092,0.055,0.320,-5.337
0.126,0.050,0.317,-5.337
0.221,0.048,0.320,-5.337
0.315,0.051,0.324,-5.337
0.251,0.054,0.324,-5.337
0.184,0.054,0.325,-5.337
0.243,0.053,0.328,-5.337
0.223,0.053,0.326,-5.337
0.155,0.057,0.322,-5.337
0.093,0.060,0.319,-5.337
0.042,0.061,0.318,-5.337
0.022,0.058,0.316,-5.337
0.026,0.060,0.318,-5.337
0.108,0.058,0.320,-5.337
0.186,0.051,0.324,-5.337
0.130,0.050,0.327,-5.337
0.087,0.052,0.327,-5.337
0.122,0.054,0.324,-5.337
0.125,0.054,0.322,-5.337
0.108,0.056,0.321,-5.337
0.119,0.055,0.317,-5.337
0.099,0.054,0.314,-5.337
0.161,0.054,0.316,-5.337
0.245,0.054,0.319,-5.337
0.240,0.054,0.323,-5.337
0.226,0.051,0.329,-5.337
0.154,0.051,0.328,-5.337
0.213,0.050,0.326,-5.337
0.287,0.047,0.324,-5.337
0.298,0.050,0.325,-5.337
0.245,0.052,0.320,-5.337
0.262,0.053,0.324,-5.337
0.280,0.054,0.325,-5.337
0.248,0.055,0.324,-5.337
0.236,0.055,0.317,-5.337
0.170,0.059,0.315,-5.337
0.136,0.057,0.318,-5.337
0.236,0.055,0.318,-5.337
0.228,0.058,0.319,-5.337
0.169,0.056,0.322,-5.337
0.091,0.054,0.323,-5.337
0.055,0.054,0.323,-5.337
0.125,0.051,0.321,-5.337
0.237,0.051,0.325,-5.337
0.283,0.051,0.327,-5.337
0.274,0.049,0.326,-5.337
0.250,0.050,0.323,-5.337
0.316,0.049,0.322,-5.337
0.312,0.050,0.324,-5.337
0.261,0.049,0.322,-5.337
0.262,0.047,0.322,-5.337
0.263,0.044,0.323,-5.337
0.120,0.048,0.322,-5.337
0.070,0.046,0.318,-5.337
0.067,0.051,0.317,-5.337
0.074,0.055,0.321,-5.337
0.103,0.059,0.327,-5.337
0.113,0.056,0.328,-5.337
0.102,0.054,0.320,-5.337
0.093,0.054,0.314,-5.337
0.117,0.055,0.315,-5.337
0.169,0.051,0.319,-5.337
0.227,0.052,0.327,-5.337
0.199,0.052,0.327,-5.337
0.159,0.055,0.326,-5.337
0.128,0.055,0.325,-5.337
0.193,0.051,0.325,-5.337
0.270,0.050,0.324,-5.337
0.213,0.052,0.322,-5.337
0.109,0.052,0.322,-5.337
0.148,0.050,0.323,-5.337
0.255,0.046,0.326,-5.337
0.321,0.046,0.326,-5.337
0.244,0.047,0.326,-5.337
0.169,0.049,0.327,-5.337
0.174,0.049,0.330,-5.337
0.252,0.045,0.328,-5.337
0.294,0.043,0.321,-5.337
0.168,0.048,0.321,-5.337
0.155,0.052,0.323,-5.337
0.295,0.047,0.321,-5.337
0.293,0.049,0.319,-5.337
0.222,0.049,0.317,-5.337
0.218,0.050,0.322,-5.337
0.221,0.049,0.323,-5.337
0.267,0.047,0.325,-5.337
0.249,0.049,0.323,-5.337
0.130,0.051,0.321,-5.337
-0.004,0.052,0.324,-5.337
-0.027,0.050,0.327,-5.337
0.140,0.045,0.326,-5.337
0.208,0.049,0.323,-5.337
0.181,0.048,0.324,-5.337
0.130,0.046,0.323,-5.337
0.090,0.044,0.324,-5.337
0.153,0.045,0.325,-5.337
0.252,0.045,0.327,-5.337
0.243,0.040,0.325,-5.337
0.220,0.041,0.323,-5.337
0.209,0.044,0.322,-5.337
0.186,0.044,0.325,-5.337
0.259,0.042,0.325,-5.337
0.270,0.041,0.323,-5.337
0.182,0.042,0.324,-5.337
0.180,0.042,0.326,-5.337
0.186,0.044,0.328,-5.337
0.161,0.041,0.329,-5.337
0.130,0.042,0.325,-5.337
0.141,0.042,0.319,-5.337
0.116,0.041,0.316,-5.337
0.187,0.040,0.321,-5.337
0.284,0.038,0.326,-5.337
0.230,0.040,0.325,-5.337
0.168,0.039,0.321,-5.337
0.153,0.038,0.321,-5.337
0.206,0.032,0.324,-5.337
0.299,0.031,0.324,-5.337
0.301,0.036,0.325,-5.337
0.240,0.036,0.321,-5.337
0.236,0.037,0.322,-5.337
0.211,0.037,0.321,-5.337
0.241,0.036,0.324,-5.337
0.289,0.035,0.321,-5.337
0.302,0.036,0.321,-5.337
0.241,0.039,0.323,-5.337
0.245,0.041,0.327,-5.337
0.249,0.038,0.329,-5.337
0.264,0.042,0.326,-5.337
0.215,0.043,0.322,-5.337
0.199,0.041,0.322,-5.337
0.296,0.038,0.325,-5.337
0.263,0.041,0.325,-5.337
0.186,0.042,0.326,-5.337
0.240,0.042,0.326,-5.337
0.307,0.042,0.325,-5.337
0.270,0.046,0.321,-5.337
0.182,0.047,0.320,-5.337
0.161,0.048,0.321,-5.337
0.119,0.045,0.323,-5.337
0.090,0.042,0.324,-5.337
0.116,0.041,0.323,-5.337
0.170,0.040,0.319,-5.337
0.168,0.044,0.319,-5.337
0.166,0.045,0.321,-5.337
0.116,0.045,0.323,-5.337
0.142,0.043,0.322,-5.337
0.183,0.042,0.322,-5.337
0.125,0.043,0.321,-5.337
0.135,0.041,0.321,-5.337
0.180,0.039,0.320,-5.337
0.152,0.039,0.321,-5.337
0.175,0.038,0.319,-5.337
0.217,0.037,0.322,-5.337
0.177,0.038,0.324,-5.337
0.183,0.036,0.323,-5.337
0.179,0.038,0.325,-5.337
0.230,0.034,0.323,-5.337
0.258,0.037,0.322,-5.337
0.249,0.036,0.326,-5.337
0.149,0.037,0.327,-5.337
0.057,0.042,0.325,-5.337
0.139,0.038,0.324,-5.337
0.220,0.035,0.324,-5.337
0.200,0.037,0.327,-5.337
0.117,0.037,0.322,-5.337
0.141,0.034,0.318,-5.337
0.271,0.031,0.318,-5.337
0.271,0.033,0.323,-5.337
0.230,0.034,0.323,-5.337
0.237,0.035,0.322,-5.337
0.222,0.036,0.318,-5.337
0.207,0.037,0.318,-5.337
0.316,0.034,0.318,-5.337
0.353,0.037,0.321,-5.337
0.265,0.040,0.324,-5.337
0.212,0.038,0.324,-5.337
0.220,0.037,0.323,-5.337
0.209,0.038,0.321,-5.337
0.177,0.035,0.321,-5.337
0.202,0.033,0.325,-5.337
0.237,0.037,0.327,-5.337
0.238,0.038,0.326,-5.337
0.195,0.040,0.324,-5.337
0.152,0.042,0.322,-5.337
0.085,0.044,0.323,-5.337
0.084,0.045,0.322,-5.337
0.122,0.044,0.324,-5.337
0.156,0.039,0.326,-5.337
0.148,0.036,0.328,-5.337
0.099,0.038,0.323,-5.337
0.135,0.037,0.321,-5.337
0.191,0.037,0.321,-5.337
0.220,0.037,0.322,-5.337
0.244,0.039,0.321,-5.337
0.198,0.039,0.322,-5.337
0.144,0.038,0.322,-5.337
0.143,0.039,0.323,-5.337
0.185,0.035,0.322,-5.337
0.202,0.037,0.325,-5.337
0.287,0.032,0.325,-5.337
0.317,0.031,0.326,-5.337
0.279,0.035,0.324,-5.337
0.210,0.037,0.321,-5.337
0.207,0.033,0.321,-5.337
0.203,0.032,0.323,-5.337
0.189,0.037,0.322,-5.337
0.233,0.038,0.317,-5.337
0.247,0.038,0.319,-5.337
0.247,0.037,0.325,-5.337
0.296,0.035,0.330,-5.337
0.209,0.036,0.328,-5.337
0.166,0.034,0.326,-5.337
0.174,0.031,0.324,-5.337
0.121,0.035,0.323,-5.337
0.136,0.035,0.321,-5.337
0.108,0.040,0.321,-5.337
0.117,0.040,0.321,-5.337
0.135,0.040,0.322,-5.337
0.106,0.038,0.321,-5.337
0.155,0.040,0.321,-5.337
0.205,0.042,0.324,-5.337
0.191,0.041,0.324,-5.337
0.250,0.035,0.323,-5.337
0.216,0.035,0.319,-5.337
0.158,0.038,0.319,-5.337
0.187,0.037,0.321,-5.337
0.242,0.034,0.323,-5.337
0.224,0.035,0.325,-5.337
0.178,0.035,0.326,-5.337
0.233,0.035,0.325,-5.337
0.247,0.036,0.322,-5.337
0.179,0.034,0.319,-5.337
0.154,0.033,0.322,-5.337
0.156,0.033,0.323,-5.337
0.210,0.033,0.327,-5.337
0.281,0.031,0.327,-5.337
0.302,0.034,0.326,-5.337
0.284,0.032,0.319,-5.337
0.250,0.031,0.318,-5.337
0.170,0.033,0.322,-5.337
0.174,0.032,0.326,-5.337
0.168,0.034,0.325,-5.337
0.118,0.032,0.322,-5.337
0.156,0.031,0.321,-5.337
0.183,0.031,0.321,-5.337
0.200,0.032,0.321,-5.337
0.171,0.035,0.322,-5.337
0.143,0.031,0.320,-5.337
0.183,0.030,0.322,-5.337
0.169,0.032,0.321,-5.337
0.241,0.030,0.320,-5.337
0.252,0.033,0.321,-5.337
0.215,0.034,0.325,-5.337
0.233,0.035,0.329,-5.337
0.166,0.037,0.323,-5.337
0.129,0.038,0.319,-5.337
0.216,0.038,0.317,-5.337
0.219,0.034,0.322,-5.337
0.180,0.027,0.324,-5.337
0.222,0.027,0.320,-5.337
0.283,0.030,0.318,-5.337
0.249,0.035,0.319,-5.337
0.199,0.031,0.322,-5.337
0.181,0.032,0.322,-5.337
0.161,0.032,0.320,-5.337
0.112,0.036,0.322,-5.337
0.039,0.038,0.323,-5.337
0.037,0.036,0.322,-5.337
0.141,0.035,0.322,-5.337
0.249,0.032,0.322,-5.337
0.277,0.031,0.321,-5.337
0.223,0.030,0.320,-5.337
0.253,0.031,0.318,-5.337
0.192,0.036,0.320,-5.337
0.131,0.035,0.326,-5.337
0.083,0.035,0.324,-5.337
0.143,0.034,0.323,-5.337
0.229,0.032,0.322,-5.337
0.262,0.032,0.323,-5.337
0.265,0.031,0.323,-5.337
0.240,0.033,0.324,-5.337
0.198,0.034,0.323,-5.337
0.225,0.032,0.323,-5.337
0.250,0.030,0.321,-5.337
0.232,0.035,0.321,-5.337
0.212,0.036,0.324,-5.337
0.221,0.035,0.328,-5.337
0.252,0.034,0.322,-5.337
0.184,0.035,0.315,-5.337
0.208,0.032,0.317,-5.337
0.262,0.033,0.322,-5.337
0.247,0.033,0.325,-5.337
0.213,0.033,0.325,-5.337
0.129,0.033,0.322,-5.337
0.130,0.035,0.325,-5.337
0.168,0.035,0.326,-5.337
0.224,0.034,0.327,-5.337
0.219,0.034,0.327,-5.337
0.160,0.036,0.327,-5.337
0.203,0.035,0.328,-5.337
0.262,0.034,0.327,-5.337
0.263,0.032,0.325,-5.337
0.250,0.032,0.318,-5.337
0.287,0.033,0.315,-5.337
0.234,0.036,0.314,-5.337
0.112,0.041,0.320,-5.337
0.075,0.041,0.321,-5.337
0.138,0.039,0.317,-5.337
0.165,0.038,0.316,-5.337
0.177,0.038,0.324,-5.337
0.227,0.036,0.327,-5.337
0.225,0.038,0.321,-5.337
0.206,0.036,0.319,-5.337
0.262,0.038,0.320,-5.337
0.216,0.038,0.320,-5.337
0.142,0.040,0.319,-5.337
0.241,0.038,0.318,-5.337
0.299,0.041,0.324,-5.337
0.177,0.044,0.329,-5.337
0.083,0.041,0.326,-5.337
0.129,0.040,0.323,-5.337
0.212,0.038,0.321,-5.337
0.200,0.039,0.318,-5.337
0.159,0.040,0.320,-5.337
0.134,0.039,0.326,-5.337
0.092,0.036,0.324,-5.337
0.135,0.034,0.323,-5.337
0.199,0.036,0.323,-5.337
0.232,0.036,0.324,-5.337
0.190,0.038,0.322,-5.337
0.179,0.039,0.323,-5.337
0.207,0.036,0.323,-5.337
0.157,0.040,0.322,-5.337
0.145,0.037,0.319,-5.337
0.177,0.039,0.314,-5.337
0.180,0.040,0.317,-5.337
0.155,0.038,0.325,-5.337
0.219,0.038,0.329,-5.337
0.305,0.039,0.328,-5.337
0.255,0.042,0.328,-5.337
0.240,0.043,0.326,-5.337
0.250,0.043,0.321,-5.337
0.235,0.042,0.318,-5.337
0.304,0.039,0.323,-5.337
0.282,0.040,0.328,-5.337
0.183,0.039,0.328,-5.337
0.097,0.038,0.321,-5.337
0.176,0.041,0.320,-5.337
0.224,0.044,0.324,-5.337
0.188,0.047,0.326,-5.337
0.142,0.047,0.324,-5.337
0.196,0.044,0.326,-5.337
0.225,0.043,0.325,-5.337
0.131,0.044,0.323,-5.337
0.150,0.040,0.321,-5.337
0.156,0.040,0.323,-5.337
0.200,0.036,0.326,-5.337
0.234,0.037,0.328,-5.337
0.207,0.040,0.324,-5.337
0.244,0.038,0.320,-5.337
0.250,0.036,0.320,-5.337
0.247,0.036,0.324,-5.337
0.209,0.031,0.327,-5.337
0.273,0.033,0.329,-5.337
0.282,0.035,0.328,-5.337
0.188,0.039,0.327,-5.337
0.148,0.039,0.325,-5.337
0.088,0.039,0.327,-5.337
0.129,0.036,0.330,-5.337
0.238,0.039,0.329,-5.337
0.173,0.046,0.329,-5.337
0.095,0.046,0.326,-5.337
0.095,0.042,0.326,-5.337
0.111,0.037,0.323,-5.337
0.158,0.035,0.320,-5.337
0.207,0.039,0.319,-5.337
0.225,0.039,0.322,-5.337
0.201,0.037,0.325,-5.337
0.109,0.041,0.323,-5.337
0.094,0.042,0.320,-5.337
0.228,0.041,0.319,-5.337
0.262,0.042,0.320,-5.337
0.250,0.044,0.325,-5.337
0.220,0.045,0.328,-5.337
0.195,0.044,0.324,-5.337
0.183,0.044,0.322,-5.337
0.243,0.044,0.323,-5.337
0.256,0.041,0.324,-5.337
0.218,0.037,0.326,-5.337
0.177,0.038,0.327,-5.337
0.220,0.040,0.324,-5.337
0.196,0.042,0.325,-5.337
0.136,0.039,0.325,-5.337
0.105,0.039,0.327,-5.337
0.145,0.040,0.327,-5.337
0.229,0.039,0.326,-5.337
0.282,0.040,0.323,-5.337
0.238,0.042,0.323,-5.337
0.142,0.044,0.326,-5.337
0.174,0.044,0.324,-5.337
0.270,0.043,0.321,-5.337
0.260,0.042,0.322,-5.337
0.214,0.041,0.327,-5.337
0.189,0.041,0.325,-5.337
0.242,0.041,0.322,-5.337
0.296,0.042,0.317,-5.337
0.231,0.043,0.320,-5.337
0.222,0.042,0.327,-5.337
0.278,0.043,0.330,-5.337
0.311,0.044,0.329,-5.337
0.244,0.047,0.325,-5.337
0.139,0.048,0.321,-5.337
0.147,0.047,0.321,-5.337
0.128,0.045,0.320,-5.337
0.079,0.047,0.321,-5.337
0.154,0.049,0.321,-5.337
0.237,0.048,0.320,-5.337
0.251,0.048,0.320,-5.337
0.109,0.052,0.322,-5.337
0.091,0.054,0.324,-5.337
0.178,0.054,0.325,-5.337
0.171,0.053,0.326,-5.337
0.156,0.052,0.330,-5.337
0.169,0.049,0.327,-5.337
0.156,0.053,0.320,-5.337
0.086,0.053,0.315,-5.337
0.084,0.047,0.317,-5.337
0.177,0.042,0.323,-5.337
0.261,0.042,0.324,-5.337
0.299,0.044,0.321,-5.337
0.303,0.044,0.323,-5.337
0.249,0.046,0.324,-5.337
0.204,0.047,0.328,-5.337
0.207,0.046,0.327,-5.337
0.195,0.046,0.323,-5.337
0.175,0.046,0.324,-5.337
0.236,0.045,0.324,-5.337
0.285,0.046,0.324,-5.337
0.226,0.049,0.322,-5.337
0.197,0.049,0.322,-5.337
0.250,0.049,0.323,-5.337
0.240,0.044,0.326,-5.337
0.243,0.046,0.324,-5.337
0.204,0.048,0.323,-5.337
0.139,0.049,0.322,-5.337
0.153,0.049,0.321,-5.337
0.205,0.047,0.323,-5.337
0.242,0.043,0.327,-5.337
0.229,0.041,0.327,-5.337
0.229,0.047,0.325,-5.337
0.190,0.049,0.326,-5.337
0.130,0.047,0.326,-5.337
0.127,0.046,0.324,-5.337
0.153,0.050,0.324,-5.337
0.125,0.053,0.324,-5.337
0.174,0.049,0.324,-5.337
0.202,0.043,0.324,-5.337
0.240,0.043,0.324,-5.337
0.224,0.049,0.328,-5.337
0.257,0.048,0.327,-5.337
0.342,0.041,0.322,-5.337
0.393,0.041,0.318,-5.337
0.324,0.047,0.321,-5.337
0.218,0.053,0.320,-5.337
0.208,0.053,0.319,-5.337
0.199,0.053,0.317,-5.337
0.180,0.054,0.322,-5.337
0.202,0.053,0.325,-5.337
0.202,0.054,0.322,-5.337
0.221,0.049,0.320,-5.337
0.189,0.050,0.321,-5.337
0.175,0.051,0.326,-5.337
0.222,0.052,0.330,-5.337
0.208,0.054,0.330,-5.337
0.116,0.057,0.326,-5.337
0.117,0.056,0.321,-5.337
0.163,0.051,0.320,-5.337
0.205,0.050,0.319,-5.337
0.252,0.048,0.318,-5.337
0.245,0.048,0.322,-5.337
0.184,0.052,0.326,-5.337
0.149,0.053,0.329,-5.337
0.119,0.055,0.325,-5.337
0.155,0.053,0.321,-5.337
0.207,0.053,0.318,-5.337
0.196,0.054,0.320,-5.337
0.198,0.052,0.323,-5.337
0.223,0.054,0.327,-5.337
0.228,0.055,0.326,-5.337
0.254,0.051,0.323,-5.337
0.207,0.052,0.317,-5.337
0.139,0.055,0.318,-5.337
0.111,0.056,0.322,-5.337
0.112,0.054,0.323,-5.337
0.167,0.052,0.324,-5.337
0.204,0.055,0.327,-5.337
0.168,0.058,0.329,-5.337
0.183,0.059,0.325,-5.337
0.215,0.057,0.320,-5.337
0.173,0.055,0.318,-5.337
0.144,0.053,0.324,-5.337
0.108,0.055,0.324,-5.337
0.047,0.056,0.323,-5.337
0.154,0.051,0.320,-5.337
0.223,0.053,0.319,-5.337
0.199,0.054,0.319,-5.337
0.188,0.053,0.320,-5.337
0.216,0.048,0.318,-5.337
0.196,0.051,0.321,-5.337
0.165,0.053,0.323,-5.337
0.164,0.055,0.325,-5.337
0.188,0.054,0.323,-5.337
0.202,0.052,0.322,-5.337
0.216,0.054,0.324,-5.337
0.253,0.054,0.322,-5.337
0.250,0.052,0.322,-5.337
0.163,0.054,0.323,-5.337
0.108,0.050,0.324,-5.337
0.193,0.050,0.327,-5.337
0.200,0.052,0.325,-5.337
0.171,0.054,0.320,-5.337
0.205,0.050,0.321,-5.337
0.252,0.053,0.322,-5.337
0.148,0.056,0.323,-5.337
0.100,0.056,0.325,-5.337
0.176,0.056,0.325,-5.337
0.260,0.055,0.321,-5.337
0.250,0.057,0.321,-5.337
0.239,0.059,0.321,-5.337
0.224,0.056,0.324,-5.337
0.164,0.053,0.322,-5.337
0.131,0.051,0.319,-5.337
0.198,0.055,0.322,-5.337
0.273,0.052,0.326,-5.337
0.298,0.050,0.328,-5.337
0.274,0.054,0.328,-5.337
0.199,0.055,0.323,-5.337
0.126,0.053,0.318,-5.337
0.076,0.052,0.316,-5.337
0.090,0.052,0.316,-5.337
0.126,0.050,0.318,-5.337
0.112,0.051,0.324,-5.337
0.157,0.047,0.325,-5.337
0.189,0.050,0.323,-5.337
0.174,0.052,0.321,-5.337
0.195,0.051,0.320,-5.337
0.129,0.055,0.327,-5.337
0.092,0.055,0.329,-5.337
0.065,0.057,0.326,-5.337
0.109,0.056,0.325,-5.337
0.164,0.054,0.324,-5.337
0.216,0.053,0.318,-5.337
0.203,0.054,0.318,-5.337
0.189,0.053,0.318,-5.337
0.222,0.052,0.321,-5.337
0.258,0.047,0.322,-5.337
0.247,0.046,0.325,-5.337
0.211,0.043,0.323,-5.337
0.249,0.043,0.320,-5.337
0.218,0.046,0.316,-5.337
0.144,0.049,0.318,-5.337
0.130,0.046,0.321,-5.337
0.138,0.044,0.324,-5.337
0.167,0.048,0.324,-5.337
0.224,0.050,0.324,-5.337
0.160,0.049,0.320,-5.337
0.131,0.045,0.321,-5.337
0.170,0.046,0.324,-5.337
0.195,0.043,0.324,-5.337
0.177,0.043,0.323,-5.337
0.150,0.047,0.323,-5.337
0.150,0.048,0.322,-5.337
0.222,0.046,0.323,-5.337
0.195,0.044,0.325,-5.337
0.111,0.045,0.325,-5.337
0.112,0.045,0.322,-5.337
0.126,0.043,0.317,-5.337
0.135,0.042,0.317,-5.337
0.213,0.036,0.323,-5.337
0.301,0.040,0.325,-5.337
0.245,0.039,0.324,-5.337
0.210,0.042,0.324,-5.337
0.233,0.043,0.322,-5.337
0.193,0.047,0.323,-5.337
0.105,0.044,0.320,-5.337
0.182,0.045,0.320,-5.337
0.219,0.043,0.321,-5.337
0.216,0.041,0.321,-5.337
0.183,0.041,0.320,-5.337
0.142,0.041,0.320,-5.337
0.149,0.043,0.321,-5.337
0.159,0.047,0.321,-5.337
0.124,0.049,0.320,-5.337
0.160,0.045,0.322,-5.337
0.240,0.043,0.326,-5.337
0.323,0.042,0.330,-5.337
0.346,0.041,0.328,-5.337
0.245,0.039,0.326,-5.337
0.183,0.038,0.326,-5.337
0.215,0.038,0.321,-5.337
0.263,0.042,0.321,-5.337
0.201,0.041,0.321,-5.337
0.131,0.039,0.323,-5.337
0.221,0.036,0.321,-5.337
0.195,0.040,0.321,-5.337
0.123,0.044,0.324,-5.337
0.165,0.040,0.323,-5.337
0.210,0.037,0.320,-5.337
0.222,0.037,0.322,-5.337
0.193,0.035,0.324,-5.337
0.126,0.037,0.323,-5.337
0.109,0.031,0.321,-5.337
0.161,0.031,0.322,-5.337
0.173,0.037,0.323,-5.337
0.228,0.038,0.322,-5.337
0.235,0.038,0.321,-5.337
0.248,0.035,0.319,-5.337
0.234,0.036,0.321,-5.337
0.288,0.037,0.321,-5.337
0.286,0.039,0.326,-5.337
0.234,0.038,0.324,-5.337
0.250,0.040,0.324,-5.337
0.264,0.042,0.325,-5.337
0.160,0.044,0.327,-5.337
0.151,0.042,0.326,-5.337
0.167,0.042,0.327,-5.337
0.154,0.039,0.329,-5.337
0.118,0.040,0.327,-5.337
0.101,0.039,0.324,-5.337
0.142,0.040,0.326,-5.337
0.144,0.039,0.328,-5.337
0.200,0.039,0.327,-5.337
0.204,0.036,0.323,-5.337
0.159,0.035,0.321,-5.337
0.188,0.034,0.322,-5.337
0.235,0.039,0.323,-5.337
0.212,0.039,0.324,-5.337
0.188,0.040,0.325,-5.337
0.133,0.041,0.324,-5.337
0.187,0.034,0.326,-5.337
0.197,0.037,0.327,-5.337
0.145,0.039,0.324,-5.337
0.055,0.038,0.322,-5.337
0.083,0.036,0.319,-5.337
0.209,0.034,0.321,-5.337
0.241,0.035,0.323,-5.337
0.217,0.035,0.327,-5.337
0.194,0.034,0.326,-5.337
0.158,0.032,0.323,-5.337
0.198,0.028,0.324,-5.337
0.226,0.030,0.326,-5.337
0.208,0.028,0.326,-5.337
0.202,0.028,0.323,-5.337
0.138,0.029,0.323,-5.337
0.134,0.028,0.326,-5.337
0.155,0.028,0.328,-5.337
0.208,0.028,0.327,-5.337
0.224,0.029,0.326,-5.337
0.227,0.032,0.325,-5.337
0.183,0.033,0.324,-5.337
0.194,0.031,0.326,-5.337
0.222,0.031,0.326,-5.337
0.214,0.033,0.324,-5.337
0.219,0.033,0.321,-5.337
0.212,0.030,0.320,-5.337
0.234,0.028,0.323,-5.337
0.243,0.028,0.322,-5.337
0.229,0.027,0.324,-5.337
0.210,0.029,0.328,-5.337
0.205,0.032,0.331,-5.337
0.141,0.030,0.326,-5.337
0.107,0.031,0.323,-5.337
0.156,0.030,0.322,-5.337
0.115,0.032,0.321,-5.337
0.125,0.030,0.322,-5.337
0.187,0.029,0.323,-5.337
0.249,0.028,0.320,-5.337
0.276,0.027,0.319,-5.337
0.261,0.025,0.320,-5.337
0.218,0.026,0.322,-5.337
0.154,0.029,0.323,-5.337
0.135,0.028,0.326,-5.337
0.167,0.027,0.326,-5.337
0.245,0.025,0.323,-5.337
0.316,0.024,0.323,-5.337
0.301,0.023,0.321,-5.337
0.196,0.022,0.322,-5.337
0.174,0.021,0.324,-5.337
0.223,0.020,0.325,-5.337
0.164,0.025,0.320,-5.337
0.124,0.027,0.319,-5.337
0.121,0.026,0.317,-5.337
0.184,0.020,0.319,-5.337
0.317,0.017,0.319,-5.337
0.278,0.024,0.324,-5.337
0.180,0.027,0.329,-5.337
0.153,0.029,0.329,-5.337
0.159,0.031,0.325,-5.337
0.244,0.030,0.326,-5.337
0.305,0.029,0.324,-5.337
0.324,0.028,0.322,-5.337
0.341,0.028,0.321,-5.337
0.263,0.026,0.322,-5.337
0.301,0.024,0.319,-5.337
0.280,0.030,0.318,-5.337
0.166,0.038,0.319,-5.337
0.075,0.036,0.321,-5.337
0.142,0.029,0.326,-5.337
0.248,0.027,0.333,-5.337
0.213,0.029,0.335,-5.337
0.116,0.030,0.329,-5.337
0.140,0.027,0.322,-5.337
0.220,0.028,0.316,-5.337
0.217,0.032,0.314,-5.337
0.123,0.036,0.317,-5.337
0.067,0.036,0.322,-5.337
0.145,0.031,0.323,-5.337
0.255,0.028,0.324,-5.337
0.216,0.028,0.324,-5.337
0.201,0.028,0.326,-5.337
0.134,0.028,0.325,-5.337
0.072,0.030,0.327,-5.337
0.124,0.028,0.326,-5.337
0.144,0.031,0.320,-5.337
0.143,0.031,0.317,-5.337
0.113,0.031,0.319,-5.337
0.105,0.029,0.321,-5.337
0.171,0.028,0.325,-5.337
0.268,0.026,0.330,-5.337
0.288,0.026,0.332,-5.337
0.300,0.023,0.327,-5.337
0.294,0.028,0.322,-5.337
0.209,0.034,0.320,-5.337
0.181,0.036,0.321,-5.337
0.150,0.034,0.325,-5.337
0.182,0.029,0.323,-5.337
0.237,0.029,0.322,-5.337
0.216,0.030,0.323,-5.337
0.123,0.030,0.326,-5.337
0.115,0.026,0.323,-5.337
0.256,0.027,0.321,-5.337
0.240,0.031,0.323,-5.337
0.208,0.034,0.325,-5.337
0.224,0.029,0.329,-5.337
0.201,0.030,0.328,-5.337
0.179,0.030,0.328,-5.337
0.177,0.034,0.327,-5.337
0.131,0.034,0.323,-5.337
0.141,0.034,0.320,-5.337
0.217,0.035,0.322,-5.337
0.251,0.032,0.325,-5.337
0.258,0.035,0.327,-5.337
0.271,0.036,0.325,-5.337
0.304,0.029,0.321,-5.337
0.184,0.032,0.319,-5.337
0.144,0.035,0.323,-5.337
0.154,0.033,0.321,-5.337
0.180,0.029,0.321,-5.337
0.242,0.027,0.323,-5.337
0.255,0.028,0.325,-5.337
0.198,0.031,0.324,-5.337
0.142,0.030,0.321,-5.337
0.174,0.030,0.318,-5.337
0.163,0.033,0.317,-5.337
0.132,0.030,0.318,-5.337
0.176,0.030,0.321,-5.337
0.211,0.027,0.325,-5.337
0.216,0.030,0.329,-5.337
0.261,0.028,0.328,-5.337
0.202,0.030,0.326,-5.337
0.101,0.032,0.325,-5.337
0.153,0.029,0.325,-5.337
0.253,0.031,0.324,-5.337
0.271,0.032,0.321,-5.337
0.219,0.032,0.318,-5.337
0.181,0.029,0.317,-5.337
0.236,0.025,0.321,-5.337
0.222,0.029,0.326,-5.337
0.194,0.031,0.326,-5.337
0.203,0.027,0.321,-5.337
0.195,0.027,0.318,-5.337
0.233,0.026,0.317,-5.337
0.257,0.028,0.318,-5.337
0.219,0.030,0.318,-5.337
0.205,0.031,0.324,-5.337
0.212,0.029,0.326,-5.337
0.239,0.029,0.326,-5.337
0.223,0.027,0.320,-5.337
0.220,0.025,0.320,-5.337
0.263,0.025,0.321,-5.337
0.337,0.024,0.321,-5.337
0.327,0.023,0.320,-5.337
0.289,0.022,0.321,-5.337
0.275,0.027,0.324,-5.337
0.189,0.032,0.328,-5.337
0.151,0.030,0.327,-5.337
0.209,0.030,0.323,-5.337
0.211,0.028,0.319,-5.337
0.216,0.031,0.319,-5.337
0.197,0.033,0.322,-5.337
0.144,0.033,0.322,-5.337
0.119,0.031,0.323,-5.337
0.173,0.029,0.322,-5.337
0.277,0.031,0.320,-5.337
0.254,0.033,0.316,-5.337
0.162,0.031,0.318,-5.337
0.151,0.029,0.318,-5.337
0.157,0.035,0.320,-5.337
0.201,0.037,0.323,-5.337
0.301,0.033,0.325,-5.337
0.321,0.031,0.322,-5.337
0.244,0.034,0.320,-5.337
0.201,0.037,0.319,-5.337
0.188,0.041,0.320,-5.337
0.229,0.034,0.321,-5.337
0.287,0.038,0.323,-5.337
0.223,0.038,0.326,-5.337
0.185,0.038,0.328,-5.337
0.217,0.035,0.321,-5.337
0.246,0.039,0.317,-5.337
0.219,0.038,0.318,-5.337
0.221,0.039,0.321,-5.337
0.180,0.042,0.322,-5.337
0.140,0.043,0.321,-5.337
0.072,0.042,0.320,-5.337
0.027,0.042,0.318,-5.337
0.092,0.039,0.321,-5.337
0.154,0.040,0.320,-5.337
0.218,0.037,0.324,-5.337
0.255,0.038,0.326,-5.337
0.183,0.041,0.326,-5.337
0.097,0.039,0.322,-5.337
0.182,0.036,0.321,-5.337
0.251,0.035,0.322,-5.337
0.220,0.041,0.327,-5.337
0.218,0.041,0.328,-5.337
0.252,0.039,0.325,-5.337
0.261,0.035,0.322,-5.337
0.248,0.034,0.321,-5.337
0.212,0.039,0.322,-5.337
0.125,0.043,0.319,-5.337
0.166,0.042,0.317,-5.337
0.231,0.042,0.320,-5.337
0.203,0.042,0.321,-5.337
0.173,0.040,0.319,-5.337
0.228,0.037,0.320,-5.337
0.248,0.039,0.320,-5.337
0.188,0.039,0.320,-5.337
0.181,0.038,0.322,-5.337
0.176,0.037,0.323,-5.337
0.192,0.038,0.321,-5.337
0.201,0.038,0.322,-5.337
0.168,0.040,0.319,-5.337
0.075,0.043,0.319,-5.337
0.103,0.039,0.320,-5.337
0.187,0.039,0.325,-5.337
0.189,0.041,0.325,-5.337
0.151,0.042,0.327,-5.337
0.072,0.042,0.326,-5.337
0.026,0.044,0.320,-5.337
0.080,0.046,0.316,-5.337
0.136,0.046,0.319,-5.337
0.191,0.043,0.319,-5.337
0.212,0.044,0.319,-5.337
0.227,0.043,0.320,-5.337
0.174,0.045,0.321,-5.337
0.214,0.042,0.319,-5.337
0.224,0.043,0.320,-5.337
0.214,0.042,0.321,-5.337
0.186,0.040,0.321,-5.337
0.216,0.035,0.323,-5.337
0.240,0.035,0.326,-5.337
0.199,0.039,0.327,-5.337
0.185,0.041,0.323,-5.337
0.217,0.039,0.324,-5.337
0.260,0.035,0.322,-5.337
0.286,0.035,0.321,-5.337
0.242,0.036,0.317,-5.337
0.205,0.036,0.318,-5.337
0.148,0.038,0.323,-5.337
0.084,0.042,0.327,-5.337
0.102,0.042,0.326,-5.337
0.133,0.043,0.323,-5.337
0.110,0.041,0.322,-5.337
0.160,0.039,0.323,-5.337
0.200,0.040,0.324,-5.337
0.177,0.041,0.325,-5.337
0.134,0.042,0.325,-5.337
0.096,0.042,0.323,-5.337
0.114,0.041,0.322,-5.337
0.188,0.045,0.318,-5.337
0.145,0.047,0.323,-5.337
0.042,0.046,0.328,-5.337
0.076,0.048,0.330,-5.337
0.157,0.046,0.327,-5.337
0.140,0.047,0.321,-5.337
0.070,0.050,0.319,-5.337
0.100,0.048,0.323,-5.337
0.239,0.045,0.324,-5.337
0.249,0.047,0.325,-5.337
0.246,0.045,0.327,-5.337
0.241,0.045,0.326,-5.337
0.235,0.043,0.322,-5.337
0.277,0.046,0.322,-5.337
0.214,0.046,0.319,-5.337
0.188,0.043,0.320,-5.337
0.205,0.042,0.324,-5.337
0.225,0.046,0.329,-5.337
0.149,0.049,0.330,-5.337
0.092,0.050,0.325,-5.337
0.178,0.047,0.322,-5.337
0.276,0.045,0.320,-5.337
0.228,0.047,0.322,-5.337
0.128,0.050,0.323,-5.337
0.114,0.054,0.326,-5.337
0.144,0.053,0.325,-5.337
0.137,0.052,0.324,-5.337
0.080,0.050,0.323,-5.337
0.097,0.052,0.329,-5.337
0.171,0.049,0.328,-5.337
0.174,0.049,0.326,-5.337
0.189,0.046,0.324,-5.337
0.203,0.049,0.326,-5.337
0.183,0.046,0.326,-5.337
0.131,0.047,0.327,-5.337
0.063,0.047,0.327,-5.337
0.074,0.045,0.325,-5.337
0.157,0.046,0.324,-5.337
0.231,0.044,0.323,-5.337
0.239,0.044,0.320,-5.337
0.254,0.044,0.322,-5.337
0.188,0.044,0.324,-5.337
0.125,0.047,0.324,-5.337
0.107,0.048,0.321,-5.337
0.172,0.049,0.323,-5.337
0.302,0.048,0.327,-5.337
0.326,0.051,0.325,-5.337
0.275,0.053,0.324,-5.337
0.226,0.054,0.320,-5.337
0.218,0.058,0.319,-5.337
0.176,0.061,0.322,-5.337
0.130,0.060,0.327,-5.337
0.086,0.059,0.326,-5.337
0.171,0.054,0.322,-5.337
0.211,0.053,0.317,-5.337
0.227,0.054,0.320,-5.337
0.206,0.055,0.322,-5.337
0.136,0.058,0.324,-5.337
0.051,0.058,0.322,-5.337
0.114,0.054,0.320,-5.337
0.189,0.053,0.323,-5.337
0.172,0.057,0.327,-5.337
0.210,0.056,0.326,-5.337
0.263,0.050,0.323,-5.337
0.265,0.053,0.324,-5.337
0.239,0.054,0.326,-5.337
0.223,0.052,0.325,-5.337
0.217,0.052,0.318,-5.337
0.174,0.057,0.315,-5.337
0.158,0.061,0.315,-5.337
0.217,0.056,0.317,-5.337
0.140,0.055,0.319,-5.337
0.116,0.052,0.320,-5.337
0.167,0.050,0.323,-5.337
0.226,0.048,0.327,-5.337
0.295,0.048,0.326,-5.337
0.241,0.052,0.322,-5.337
0.187,0.052,0.319,-5.337
0.227,0.054,0.324,-5.337
0.140,0.055,0.327,-5.337
0.074,0.057,0.324,-5.337
0.072,0.056,0.320,-5.337
0.075,0.054,0.317,-5.337
0.120,0.054,0.317,-5.337
0.143,0.055,0.318,-5.337
0.218,0.053,0.323,-5.337
0.250,0.050,0.326,-5.337
0.248,0.053,0.324,-5.337
0.207,0.057,0.322,-5.337
0.187,0.058,0.320,-5.337
0.214,0.054,0.319,-5.337
0.252,0.055,0.321,-5.337
0.139,0.057,0.319,-5.337
0.059,0.058,0.320,-5.337
0.156,0.058,0.323,-5.337
0.238,0.059,0.323,-5.337
0.198,0.058,0.317,-5.337
0.197,0.059,0.318,-5.337
0.184,0.059,0.317,-5.337
0.129,0.059,0.320,-5.337
0.080,0.061,0.324,-5.337
0.046,0.059,0.327,-5.337
0.110,0.054,0.328,-5.337
0.164,0.054,0.326,-5.337
0.092,0.057,0.325,-5.337
0.039,0.054,0.322,-5.337
0.158,0.053,0.320,-5.337
0.273,0.054,0.321,-5.337
0.318,0.054,0.315,-5.337
0.251,0.059,0.315,-5.337
0.175,0.059,0.321,-5.337
0.142,0.061,0.327,-5.337
0.210,0.059,0.329,-5.337
0.222,0.058,0.326,-5.337
0.210,0.057,0.324,-5.337
0.242,0.056,0.322,-5.337
0.255,0.058,0.319,-5.337
0.191,0.058,0.317,-5.337
0.250,0.056,0.321,-5.337
0.245,0.054,0.319,-5.337
0.159,0.056,0.316,-5.337
0.118,0.061,0.314,-5.337
0.125,0.061,0.318,-5.337
0.141,0.054,0.321,-5.337
0.207,0.054,0.325,-5.337
0.218,0.055,0.330,-5.337
0.228,0.057,0.329,-5.337
0.163,0.057,0.325,-5.337
0.089,0.058,0.323,-5.337
0.159,0.057,0.321,-5.337
0.253,0.056,0.321,-5.337
0.330,0.056,0.320,-5.337
0.297,0.058,0.323,-5.337
0.237,0.056,0.325,-5.337
0.218,0.057,0.321,-5.337
0.239,0.059,0.315,-5.337
0.272,0.059,0.313,-5.337
0.305,0.059,0.319,-5.337
0.327,0.059,0.320,-5.337
0.319,0.058,0.319,-5.337
0.191,0.063,0.321,-5.337
0.150,0.060,0.327,-5.337
0.182,0.060,0.325,-5.337
0.176,0.061,0.323,-5.337
0.187,0.062,0.322,-5.337
0.213,0.063,0.321,-5.337
0.206,0.061,0.320,-5.337
0.153,0.064,0.321,-5.337
0.131,0.060,0.319,-5.337
0.174,0.059,0.318,-5.337
0.175,0.060,0.318,-5.337
0.161,0.058,0.321,-5.337
0.144,0.054,0.325,-5.337
0.125,0.058,0.327,-5.337
0.174,0.058,0.326,-5.337
0.137,0.059,0.323,-5.337
0.172,0.060,0.323,-5.337
0.210,0.056,0.319,-5.337
0.208,0.055,0.318,-5.337
0.188,0.052,0.316,-5.337
0.246,0.053,0.318,-5.337
0.305,0.053,0.323,-5.337
0.335,0.056,0.325,-5.337
0.257,0.058,0.323,-5.337
0.127,0.061,0.323,-5.337
0.094,0.058,0.324,-5.337
0.198,0.058,0.324,-5.337
0.196,0.056,0.320,-5.337
0.224,0.056,0.320,-5.337
0.250,0.052,0.322,-5.337
0.319,0.052,0.324,-5.337
0.298,0.055,0.323,-5.337
0.237,0.055,0.319,-5.337
0.203,0.056,0.317,-5.337
0.260,0.054,0.317,-5.337
0.287,0.050,0.319,-5.337
0.275,0.049,0.319,-5.337
0.152,0.047,0.318,-5.337
0.145,0.050,0.319,-5.337
0.230,0.049,0.324,-5.337
0.194,0.047,0.325,-5.337
0.195,0.049,0.321,-5.337
0.207,0.049,0.317,-5.337
0.256,0.044,0.318,-5.337
0.247,0.041,0.321,-5.337
0.221,0.042,0.323,-5.337
0.181,0.043,0.323,-5.337
0.200,0.046,0.324,-5.337
0.152,0.047,0.321,-5.337
0.184,0.048,0.320,-5.337
0.280,0.044,0.323,-5.337
0.280,0.046,0.321,-5.337
0.209,0.051,0.317,-5.337
0.123,0.052,0.316,-5.337
0.122,0.051,0.317,-5.337
0.229,0.048,0.317,-5.337
0.144,0.049,0.321,-5.337
0.101,0.051,0.322,-5.337
0.160,0.048,0.319,-5.337
0.217,0.049,0.319,-5.337
0.163,0.053,0.319,-5.337
0.144,0.052,0.317,-5.337
0.176,0.050,0.319,-5.337
0.121,0.050,0.325,-5.337
0.111,0.055,0.328,-5.337
0.167,0.052,0.323,-5.337
0.222,0.048,0.321,-5.337
0.170,0.051,0.319,-5.337
0.081,0.056,0.319,-5.337
0.066,0.056,0.317,-5.337
0.144,0.051,0.318,-5.337
0.230,0.048,0.321,-5.337
0.243,0.048,0.321,-5.337
0.175,0.051,0.324,-5.337
0.166,0.050,0.326,-5.337
0.160,0.046,0.323,-5.337
0.180,0.045,0.318,-5.337
0.210,0.044,0.316,-5.337
0.249,0.038,0.318,-5.337
0.222,0.037,0.321,-5.337
0.181,0.042,0.323,-5.337
0.202,0.042,0.322,-5.337
0.190,0.040,0.318,-5.337
0.214,0.039,0.318,-5.337
0.205,0.038,0.316,-5.337
0.195,0.041,0.315,-5.337
0.226,0.042,0.318,-5.337
0.221,0.041,0.322,-5.337
0.195,0.042,0.325,-5.337
0.131,0.041,0.328,-5.337
0.120,0.042,0.327,-5.337
0.163,0.042,0.325,-5.337
0.166,0.041,0.322,-5.337
0.150,0.039,0.322,-5.337
0.138,0.040,0.320,-5.337
0.155,0.040,0.319,-5.337
0.264,0.035,0.320,-5.337
0.289,0.037,0.324,-5.337
0.184,0.040,0.324,-5.337
0.133,0.039,0.322,-5.337
0.215,0.040,0.319,-5.337
0.213,0.041,0.318,-5.337
0.159,0.037,0.317,-5.337
0.176,0.034,0.319,-5.337
0.230,0.035,0.322,-5.337
0.216,0.038,0.326,-5.337
0.179,0.037,0.327,-5.337
0.200,0.036,0.326,-5.337
0.246,0.035,0.321,-5.337
0.180,0.040,0.315,-5.337
0.096,0.042,0.313,-5.337
0.084,0.041,0.314,-5.337
0.093,0.041,0.317,-5.337
0.121,0.035,0.320,-5.337
0.175,0.036,0.320,-5.337
0.191,0.041,0.317,-5.337
0.211,0.040,0.320,-5.337
0.169,0.040,0.318,-5.337
0.206,0.041,0.321,-5.337
0.195,0.040,0.322,-5.337
0.218,0.039,0.321,-5.337
0.258,0.040,0.321,-5.337
0.252,0.041,0.321,-5.337
0.261,0.036,0.320,-5.337
0.347,0.033,0.323,-5.337
0.358,0.032,0.327,-5.337
0.316,0.037,0.326,-5.337
0.235,0.041,0.323,-5.337
0.182,0.038,0.325,-5.337
0.133,0.039,0.327,-5.337
0.208,0.040,0.326,-5.337
0.185,0.041,0.324,-5.337
0.150,0.041,0.320,-5.337
0.175,0.041,0.320,-5.337
0.256,0.039,0.321,-5.337
0.265,0.040,0.322,-5.337
0.255,0.036,0.318,-5.337
0.247,0.037,0.322,-5.337
0.269,0.035,0.323,-5.337
0.262,0.036,0.324,-5.337
0.221,0.034,0.321,-5.337
0.206,0.032,0.323,-5.337
0.229,0.035,0.324,-5.337
0.125,0.038,0.324,-5.337
0.082,0.038,0.324,-5.337
0.156,0.036,0.323,-5.337
0.201,0.034,0.324,-5.337
0.218,0.034,0.322,-5.337
0.172,0.033,0.321,-5.337
0.147,0.034,0.321,-5.337
0.141,0.037,0.323,-5.337
0.162,0.037,0.324,-5.337
0.228,0.035,0.323,-5.337
0.205,0.035,0.322,-5.337
0.142,0.037,0.321,-5.337
0.142,0.040,0.322,-5.337
0.248,0.038,0.324,-5.337
0.274,0.036,0.321,-5.337
0.231,0.033,0.319,-5.337
0.205,0.037,0.320,-5.337
0.220,0.039,0.325,-5.337
0.225,0.031,0.327,-5.337
0.231,0.032,0.331,-5.337
0.185,0.034,0.328,-5.337
0.158,0.036,0.325,-5.337
0.243,0.032,0.325,-5.337
0.268,0.033,0.325,-5.337
0.274,0.032,0.322,-5.337
0.264,0.033,0.322,-5.337
0.184,0.036,0.321,-5.337
0.191,0.036,0.319,-5.337
0.174,0.035,0.320,-5.337
0.157,0.035,0.324,-5.337
0.138,0.037,0.326,-5.337
0.090,0.037,0.323,-5.337
0.105,0.033,0.317,-5.337
0.147,0.033,0.317,-5.337
0.120,0.039,0.322,-5.337
0.099,0.038,0.329,-5.337
0.078,0.037,0.329,-5.337
0.088,0.038,0.320,-5.337
0.204,0.038,0.315,-5.337
0.244,0.040,0.314,-5.337
0.171,0.039,0.320,-5.337
0.157,0.035,0.320,-5.337
0.187,0.034,0.322,-5.337
0.199,0.036,0.323,-5.337
0.172,0.036,0.323,-5.337
0.201,0.033,0.320,-5.337
0.253,0.032,0.318,-5.337
0.247,0.038,0.323,-5.337
0.085,0.042,0.329,-5.337
0.063,0.036,0.327,-5.337
0.150,0.030,0.322,-5.337
0.207,0.029,0.322,-5.337
0.179,0.033,0.325,-5.337
0.172,0.032,0.324,-5.337
0.159,0.033,0.321,-5.337
0.148,0.034,0.318,-5.337
0.158,0.035,0.316,-5.337
0.177,0.034,0.318,-5.337
0.235,0.032,0.320,-5.337
0.296,0.031,0.320,-5.337
0.309,0.035,0.320,-5.337
0.233,0.036,0.322,-5.337
0.244,0.036,0.320,-5.337
0.260,0.036,0.320,-5.337
0.176,0.037,0.320,-5.337
0.183,0.032,0.324,-5.337
0.165,0.033,0.323,-5.337
0.141,0.033,0.322,-5.337
0.213,0.035,0.317,-5.337
0.257,0.036,0.316,-5.337
0.285,0.031,0.316,-5.337
0.269,0.032,0.317,-5.337
0.199,0.034,0.320,-5.337
0.146,0.037,0.325,-5.337
0.133,0.033,0.325,-5.337
0.123,0.034,0.324,-5.337
0.096,0.036,0.324,-5.337
0.120,0.036,0.323,-5.337
0.190,0.035,0.321,-5.337
0.302,0.034,0.321,-5.337
0.327,0.031,0.320,-5.337
0.261,0.033,0.318,-5.337
0.191,0.032,0.318,-5.337
0.179,0.036,0.319,-5.337
0.200,0.035,0.321,-5.337
0.209,0.035,0.321,-5.337
0.208,0.028,0.323,-5.337
0.203,0.031,0.323,-5.337
0.201,0.034,0.325,-5.337
0.187,0.036,0.324,-5.337
0.196,0.035,0.325,-5.337
0.204,0.031,0.321,-5.337
0.243,0.032,0.320,-5.337
0.205,0.034,0.323,-5.337
0.136,0.040,0.324,-5.337
0.124,0.040,0.321,-5.337
0.224,0.034,0.319,-5.337
0.311,0.030,0.319,-5.337
0.203,0.030,0.321,-5.337
0.195,0.033,0.325,-5.337
0.168,0.037,0.328,-5.337
0.170,0.034,0.325,-5.337
0.189,0.030,0.320,-5.337
0.149,0.030,0.318,-5.337
0.089,0.034,0.317,-5.337
0.121,0.035,0.321,-5.337
0.194,0.033,0.322,-5.337
0.183,0.037,0.323,-5.337
0.172,0.036,0.324,-5.337
0.144,0.041,0.327,-5.337
0.136,0.039,0.328,-5.337
0.202,0.037,0.326,-5.337
0.249,0.036,0.319,-5.337
0.241,0.036,0.318,-5.337
0.192,0.034,0.321,-5.337
0.215,0.035,0.323,-5.337
0.218,0.035,0.318,-5.337
0.194,0.036,0.317,-5.337
0.150,0.034,0.320,-5.337
0.061,0.036,0.324,-5.337
0.138,0.029,0.324,-5.337
0.232,0.029,0.327,-5.337
0.279,0.034,0.326,-5.337
0.229,0.037,0.324,-5.337
0.160,0.039,0.321,-5.337
0.206,0.036,0.321,-5.337
0.249,0.032,0.322,-5.337
0.239,0.030,0.323,-5.337
0.175,0.032,0.328,-5.337
0.132,0.036,0.328,-5.337
0.128,0.039,0.323,-5.337
0.208,0.035,0.320,-5.337
0.271,0.030,0.324,-5.337
0.200,0.032,0.324,-5.337
0.200,0.031,0.318,-5.337
0.273,0.036,0.311,-5.337
0.209,0.036,0.309,-5.337
0.152,0.035,0.315,-5.337
0.146,0.039,0.324,-5.337
0.166,0.039,0.326,-5.337
0.167,0.039,0.323,-5.337
0.177,0.033,0.320,-5.337
0.214,0.033,0.323,-5.337
0.248,0.036,0.323,-5.337
0.253,0.039,0.321,-5.337
0.259,0.039,0.317,-5.337
0.208,0.037,0.315,-5.337
0.130,0.038,0.319,-5.337
0.159,0.036,0.319,-5.337
0.214,0.037,0.318,-5.337
0.263,0.040,0.318,-5.337
0.207,0.040,0.320,-5.337
0.156,0.041,0.321,-5.337
0.144,0.041,0.324,-5.337
0.165,0.042,0.323,-5.337
0.133,0.042,0.321,-5.337
0.072,0.045,0.319,-5.337
0.127,0.040,0.321,-5.337
0.163,0.037,0.321,-5.337
0.174,0.039,0.319,-5.337
0.124,0.040,0.317,-5.337
0.078,0.043,0.319,-5.337
0.078,0.042,0.322,-5.337
0.137,0.040,0.327,-5.337
0.243,0.036,0.327,-5.337
0.145,0.041,0.322,-5.337
0.110,0.046,0.317,-5.337
0.195,0.043,0.318,-5.337
0.262,0.042,0.323,-5.337
0.228,0.043,0.322,-5.337
0.141,0.047,0.323,-5.337
0.107,0.048,0.325,-5.337
0.135,0.048,0.325,-5.337
0.092,0.047,0.323,-5.337
0.057,0.046,0.321,-5.337
0.076,0.048,0.317,-5.337
0.168,0.045,0.313,-5.337
0.163,0.043,0.313,-5.337
0.164,0.044,0.317,-5.337
0.173,0.043,0.319,-5.337
0.151,0.042,0.321,-5.337
0.128,0.042,0.320,-5.337
0.144,0.043,0.320,-5.337
0.153,0.046,0.317,-5.337
0.192,0.048,0.316,-5.337
0.212,0.045,0.319,-5.337
0.132,0.045,0.321,-5.337
0.095,0.044,0.320,-5.337
0.078,0.047,0.319,-5.337
0.120,0.048,0.318,-5.337
0.152,0.046,0.321,-5.337
0.165,0.043,0.323,-5.337
0.204,0.044,0.325,-5.337
0.156,0.045,0.325,-5.337
0.188,0.044,0.321,-5.337
0.234,0.043,0.318,-5.337
0.199,0.047,0.318,-5.337
0.198,0.047,0.322,-5.337
0.256,0.046,0.323,-5.337
0.228,0.047,0.323,-5.337
0.196,0.045,0.322,-5.337
0.217,0.045,0.319,-5.337
0.181,0.049,0.315,-5.337
0.189,0.049,0.318,-5.337
0.195,0.048,0.320,-5.337
0.106,0.050,0.321,-5.337
0.088,0.051,0.319,-5.337
0.224,0.053,0.316,-5.337
0.235,0.048,0.318,-5.337
0.162,0.046,0.321,-5.337
0.178,0.046,0.321,-5.337
0.180,0.043,0.319,-5.337
0.227,0.040,0.320,-5.337
0.212,0.041,0.321,-5.337
0.219,0.041,0.321,-5.337
0.272,0.040,0.324,-5.337
0.206,0.045,0.324,-5.337
0.085,0.051,0.322,-5.337
0.103,0.048,0.321,-5.337
0.182,0.049,0.317,-5.337
0.156,0.054,0.319,-5.337
0.168,0.053,0.324,-5.337
0.206,0.050,0.324,-5.337
0.153,0.048,0.321,-5.337
0.199,0.047,0.317,-5.337
0.244,0.050,0.317,-5.337
0.202,0.054,0.321,-5.337
0.118,0.056,0.320,-5.337
0.104,0.054,0.321,-5.337
0.183,0.054,0.317,-5.337
0.191,0.054,0.319,-5.337
0.151,0.052,0.321,-5.337
0.128,0.053,0.321,-5.337
0.074,0.051,0.322,-5.337
0.141,0.048,0.322,-5.337
0.297,0.045,0.319,-5.337
0.306,0.052,0.318,-5.337
0.158,0.052,0.317,-5.337
0.108,0.050,0.316,-5.337
0.104,0.055,0.317,-5.337
0.053,0.055,0.319,-5.337
0.019,0.053,0.319,-5.337
0.086,0.053,0.319,-5.337
0.081,0.055,0.319,-5.337
0.077,0.056,0.322,-5.337
0.106,0.053,0.325,-5.337
0.011,0.058,0.324,-5.337
0.019,0.059,0.325,-5.337
0.157,0.053,0.320,-5.337
0.256,0.051,0.321,-5.337
0.166,0.054,0.321,-5.337
0.180,0.052,0.319,-5.337
0.289,0.050,0.319,-5.337
0.347,0.053,0.321,-5.337
0.287,0.051,0.325,-5.337
0.173,0.055,0.327,-5.337
0.135,0.055,0.321,-5.337
0.184,0.055,0.317,-5.337
0.189,0.056,0.319,-5.337
0.163,0.058,0.324,-5.337
0.162,0.055,0.324,-5.337
0.165,0.055,0.320,-5.337
0.147,0.053,0.317,-5.337
0.165,0.054,0.317,-5.337
0.212,0.054,0.320,-5.337
0.257,0.055,0.322,-5.337
0.163,0.059,0.325,-5.337
0.132,0.059,0.324,-5.337
0.192,0.055,0.322,-5.337
0.201,0.056,0.322,-5.337
0.124,0.056,0.322,-5.337
0.139,0.055,0.320,-5.337
0.204,0.055,0.320,-5.337
0.155,0.056,0.320,-5.337
0.167,0.055,0.321,-5.337
0.243,0.050,0.323,-5.337
0.241,0.053,0.324,-5.337
0.227,0.053,0.321,-5.337
0.192,0.054,0.323,-5.337
0.180,0.056,0.324,-5.337
0.139,0.057,0.321,-5.337
0.128,0.061,0.320,-5.337
0.175,0.059,0.322,-5.337
0.243,0.058,0.321,-5.337
0.164,0.065,0.324,-5.337
0.162,0.063,0.330,-5.337
0.161,0.059,0.330,-5.337
0.151,0.060,0.330,-5.337
0.195,0.061,0.328,-5.337
0.174,0.059,0.325,-5.337
0.089,0.058,0.321,-5.337
0.131,0.058,0.322,-5.337
0.188,0.059,0.322,-5.337
0.199,0.058,0.322,-5.337
0.178,0.057,0.319,-5.337
0.231,0.059,0.319,-5.337
0.230,0.062,0.320,-5.337
0.176,0.063,0.320,-5.337
0.182,0.062,0.319,-5.337
0.171,0.064,0.319,-5.337
0.097,0.065,0.322,-5.337
-0.013,0.067,0.325,-5.337
0.004,0.061,0.324,-5.337
0.073,0.056,0.323,-5.337
0.170,0.054,0.321,-5.337
0.222,0.058,0.322,-5.337
0.178,0.061,0.318,-5.337
0.097,0.062,0.316,-5.337
0.171,0.061,0.321,-5.337
0.143,0.060,0.324,-5.337
0.095,0.062,0.327,-5.337
0.153,0.063,0.328,-5.337
0.217,0.061,0.329,-5.337
0.255,0.057,0.322,-5.337
0.198,0.060,0.314,-5.337
0.199,0.063,0.310,-5.337
0.212,0.063,0.316,-5.337
0.246,0.060,0.317,-5.337
0.226,0.060,0.320,-5.337
0.125,0.061,0.321,-5.337
0.151,0.060,0.318,-5.337
0.214,0.061,0.316,-5.337
0.199,0.058,0.318,-5.337
0.162,0.056,0.315,-5.337
0.153,0.060,0.312,-5.337
0.119,0.061,0.314,-5.337
0.098,0.064,0.321,-5.337
0.119,0.062,0.322,-5.337
0.130,0.063,0.322,-5.337
0.126,0.062,0.321,-5.337
0.114,0.061,0.321,-5.337
0.180,0.058,0.322,-5.337
0.234,0.057,0.324,-5.337
0.234,0.060,0.323,-5.337
0.214,0.059,0.320,-5.337
0.181,0.058,0.321,-5.337
0.176,0.059,0.318,-5.337
0.164,0.059,0.318,-5.337
0.110,0.062,0.321,-5.337
0.103,0.063,0.324,-5.337
0.198,0.062,0.319,-5.337
0.263,0.061,0.317,-5.337
0.193,0.063,0.316,-5.337
0.161,0.062,0.319,-5.337
0.302,0.059,0.318,-5.337
0.309,0.063,0.317,-5.337
0.224,0.063,0.317,-5.337
0.206,0.060,0.315,-5.337
0.226,0.056,0.317,-5.337
0.234,0.057,0.322,-5.337
0.206,0.058,0.323,-5.337
0.176,0.058,0.324,-5.337
0.153,0.058,0.326,-5.337
0.150,0.056,0.325,-5.337
0.178,0.059,0.322,-5.337
0.140,0.060,0.318,-5.337
0.169,0.059,0.319,-5.337
0.123,0.065,0.320,-5.337
0.111,0.061,0.323,-5.337
0.166,0.057,0.319,-5.337
0.170,0.059,0.317,-5.337
0.159,0.060,0.320,-5.337
0.147,0.062,0.323,-5.337
0.144,0.060,0.322,-5.337
0.151,0.059,0.323,-5.337
0.084,0.058,0.321,-5.337
0.140,0.057,0.316,-5.337
0.203,0.058,0.313,-5.337
0.179,0.059,0.316,-5.337
0.154,0.057,0.319,-5.337
0.177,0.056,0.323,-5.337
0.223,0.057,0.325,-5.337
0.154,0.060,0.320,-5.337
0.141,0.058,0.317,-5.337
0.202,0.054,0.317,-5.337
0.276,0.055,0.318,-5.337
0.260,0.056,0.319,-5.337
0.232,0.055,0.322,-5.337
0.217,0.057,0.326,-5.337
0.170,0.057,0.327,-5.337
0.150,0.059,0.323,-5.337
0.112,0.057,0.321,-5.337
0.091,0.056,0.318,-5.337
0.141,0.050,0.318,-5.337
0.207,0.044,0.318,-5.337
0.169,0.050,0.322,-5.337
0.102,0.053,0.323,-5.337
0.097,0.053,0.323,-5.337
0.140,0.051,0.321,-5.337
0.203,0.051,0.321,-5.337
0.158,0.051,0.323,-5.337
0.181,0.054,0.321,-5.337
0.155,0.054,0.322,-5.337
0.149,0.055,0.324,-5.337
0.178,0.052,0.319,-5.337
0.258,0.052,0.319,-5.337
0.258,0.051,0.320,-5.337
0.154,0.049,0.325,-5.337
0.153,0.048,0.326,-5.337
0.303,0.050,0.324,-5.337
0.361,0.051,0.322,-5.337
0.259,0.053,0.317,-5.337
0.165,0.050,0.317,-5.337
0.137,0.049,0.316,-5.337
0.173,0.049,0.318,-5.337
0.150,0.051,0.320,-5.337
0.117,0.050,0.323,-5.337
0.128,0.050,0.323,-5.337
0.130,0.052,0.322,-5.337
0.125,0.050,0.322,-5.337
0.118,0.048,0.322,-5.337
0.166,0.050,0.320,-5.337
0.207,0.051,0.315,-5.337
0.203,0.049,0.315,-5.337
0.163,0.049,0.317,-5.337
0.157,0.048,0.319,-5.337
0.183,0.052,0.317,-5.337
0.249,0.050,0.318,-5.337
0.309,0.048,0.320,-5.337
0.314,0.045,0.317,-5.337
0.255,0.046,0.319,-5.337
0.202,0.045,0.326,-5.337
0.135,0.046,0.327,-5.337
0.153,0.048,0.322,-5.337
0.116,0.050,0.320,-5.337
0.069,0.049,0.321,-5.337
0.164,0.043,0.317,-5.337
0.248,0.042,0.317,-5.337
0.254,0.042,0.319,-5.337
0.207,0.042,0.325,-5.337
0.200,0.042,0.321,-5.337
0.247,0.042,0.316,-5.337
0.208,0.042,0.316,-5.337
0.213,0.044,0.318,-5.337
0.254,0.041,0.318,-5.337
0.264,0.038,0.318,-5.337
0.192,0.042,0.319,-5.337
0.171,0.047,0.319,-5.337
0.183,0.045,0.319,-5.337
0.150,0.042,0.323,-5.337
0.104,0.046,0.324,-5.337
0.087,0.047,0.322,-5.337
0.119,0.048,0.321,-5.337
0.132,0.048,0.322,-5.337
0.162,0.049,0.324,-5.337
0.213,0.048,0.322,-5.337
0.219,0.045,0.320,-5.337
0.280,0.044,0.319,-5.337
0.321,0.044,0.318,-5.337
0.292,0.047,0.317,-5.337
0.220,0.049,0.319,-5.337
0.214,0.045,0.321,-5.337
0.189,0.049,0.318,-5.337
0.104,0.049,0.318,-5.337
0.135,0.046,0.323,-5.337
0.230,0.046,0.326,-5.337
0.216,0.048,0.323,-5.337
0.128,0.047,0.316,-5.337
0.101,0.045,0.314,-5.337
0.117,0.043,0.317,-5.337
0.146,0.045,0.321,-5.337
0.166,0.043,0.321,-5.337
0.095,0.044,0.320,-5.337
0.090,0.042,0.317,-5.337
0.178,0.043,0.316,-5.337
0.155,0.042,0.318,-5.337
0.151,0.040,0.317,-5.337
0.167,0.038,0.317,-5.337
0.195,0.041,0.322,-5.337
0.222,0.044,0.324,-5.337
0.204,0.041,0.321,-5.337
0.158,0.041,0.319,-5.337
0.089,0.041,0.318,-5.337
0.104,0.038,0.316,-5.337
0.194,0.034,0.312,-5.337
0.179,0.040,0.316,-5.337
0.113,0.039,0.320,-5.337
0.083,0.036,0.324,-5.337
0.094,0.039,0.325,-5.337
0.111,0.037,0.324,-5.337
0.116,0.040,0.321,-5.337
0.107,0.043,0.322,-5.337
0.129,0.041,0.319,-5.337
0.149,0.039,0.316,-5.337
0.153,0.041,0.318,-5.337
0.306,0.039,0.320,-5.337
0.251,0.041,0.318,-5.337
0.129,0.040,0.318,-5.337
0.190,0.037,0.317,-5.337
0.234,0.039,0.319,-5.337
0.220,0.036,0.320,-5.337
0.130,0.041,0.319,-5.337
0.135,0.041,0.317,-5.337
0.151,0.040,0.319,-5.337
0.146,0.037,0.320,-5.337
0.172,0.038,0.320,-5.337
0.211,0.038,0.323,-5.337
0.247,0.038,0.319,-5.337
0.205,0.040,0.319,-5.337
0.148,0.042,0.322,-5.337
0.192,0.041,0.324,-5.337
0.251,0.039,0.319,-5.337
0.249,0.038,0.315,-5.337
0.183,0.036,0.311,-5.337
0.197,0.037,0.313,-5.337
0.263,0.034,0.313,-5.337
0.325,0.036,0.317,-5.337
0.231,0.037,0.320,-5.337
0.237,0.038,0.321,-5.337
0.331,0.040,0.322,-5.337
0.300,0.041,0.320,-5.337
0.126,0.048,0.321,-5.337
0.082,0.045,0.322,-5.337
0.092,0.042,0.320,-5.337
0.095,0.043,0.318,-5.337
0.094,0.042,0.320,-5.337
0.104,0.039,0.320,-5.337
0.116,0.038,0.322,-5.337
0.117,0.037,0.321,-5.337
0.211,0.034,0.321,-5.337
0.220,0.035,0.317,-5.337
0.183,0.040,0.319,-5.337
0.232,0.038,0.322,-5.337
0.199,0.038,0.323,-5.337
0.162,0.033,0.318,-5.337
0.188,0.034,0.316,-5.337
0.228,0.037,0.317,-5.337
0.259,0.038,0.324,-5.337
0.152,0.037,0.330,-5.337
0.113,0.036,0.327,-5.337
0.152,0.035,0.320,-5.337
0.181,0.038,0.316,-5.337
0.215,0.037,0.313,-5.337
0.253,0.035,0.316,-5.337
0.233,0.038,0.319,-5.337
0.165,0.044,0.319,-5.337
0.142,0.042,0.318,-5.337
0.152,0.040,0.321,-5.337
0.150,0.040,0.323,-5.337
0.167,0.037,0.324,-5.337
0.149,0.038,0.327,-5.337
0.148,0.033,0.326,-5.337
0.207,0.031,0.323,-5.337
0.254,0.033,0.321,-5.337
0.209,0.037,0.321,-5.337
0.140,0.038,0.322,-5.337
0.149,0.037,0.321,-5.337
0.201,0.035,0.318,-5.337
0.225,0.033,0.319,-5.337
0.252,0.031,0.321,-5.337
0.176,0.036,0.324,-5.337
0.157,0.036,0.326,-5.337
0.130,0.038,0.326,-5.337
0.133,0.035,0.325,-5.337
0.132,0.036,0.325,-5.337
0.149,0.036,0.322,-5.337
0.187,0.033,0.319,-5.337
0.156,0.035,0.320,-5.337
0.139,0.036,0.321,-5.337
0.165,0.036,0.325,-5.337
0.171,0.036,0.323,-5.337
0.183,0.034,0.320,-5.337
0.216,0.038,0.321,-5.337
0.200,0.039,0.325,-5.337
0.147,0.036,0.325,-5.337
0.109,0.036,0.323,-5.337
0.133,0.036,0.323,-5.337
0.161,0.040,0.325,-5.337
0.161,0.037,0.326,-5.337
0.215,0.036,0.324,-5.337
0.205,0.035,0.319,-5.337
0.171,0.038,0.313,-5.337
0.180,0.039,0.314,-5.337
0.225,0.036,0.316,-5.337
0.168,0.034,0.319,-5.337
0.153,0.034,0.324,-5.337
0.169,0.037,0.329,-5.337
0.147,0.039,0.327,-5.337
0.186,0.039,0.320,-5.337
0.144,0.037,0.317,-5.337
0.136,0.035,0.318,-5.337
0.177,0.038,0.320,-5.337
0.167,0.039,0.320,-5.337
0.124,0.042,0.320,-5.337
0.165,0.037,0.319,-5.337
0.165,0.035,0.320,-5.337
0.147,0.037,0.323,-5.337
0.094,0.040,0.322,-5.337
-0.008,0.042,0.322,-5.337
-0.029,0.040,0.318,-5.337
0.094,0.036,0.319,-5.337
0.164,0.033,0.319,-5.337
0.203,0.033,0.322,-5.337
0.216,0.029,0.323,-5.337
0.246,0.029,0.321,-5.337
0.223,0.032,0.321,-5.337
0.147,0.033,0.317,-5.337
0.142,0.031,0.318,-5.337
0.164,0.033,0.319,-5.337
0.163,0.031,0.319,-5.337
0.193,0.036,0.317,-5.337
0.206,0.040,0.314,-5.337
0.209,0.038,0.318,-5.337
0.175,0.034,0.320,-5.337
0.146,0.033,0.321,-5.337
0.223,0.031,0.317,-5.337
0.321,0.028,0.316,-5.337
0.292,0.032,0.318,-5.337
0.146,0.037,0.315,-5.337
0.124,0.036,0.316,-5.337
0.175,0.034,0.317,-5.337
0.145,0.035,0.319,-5.337
0.138,0.037,0.318,-5.337
0.129,0.036,0.321,-5.337
0.110,0.033,0.318,-5.337
0.216,0.031,0.321,-5.337
0.271,0.029,0.323,-5.337
0.252,0.032,0.324,-5.337
0.178,0.035,0.323,-5.337
0.131,0.039,0.323,-5.337
0.157,0.037,0.321,-5.337
0.230,0.035,0.319,-5.337
0.158,0.035,0.317,-5.337
0.155,0.031,0.317,-5.337
0.210,0.030,0.323,-5.337
0.168,0.031,0.324,-5.337
0.125,0.029,0.320,-5.337
0.156,0.030,0.317,-5.337
0.240,0.035,0.317,-5.337
0.272,0.038,0.318,-5.337
0.171,0.041,0.318,-5.337
0.117,0.039,0.320,-5.337
0.161,0.037,0.319,-5.337
0.171,0.039,0.321,-5.337
0.194,0.037,0.321,-5.337
0.260,0.037,0.321,-5.337
0.268,0.037,0.325,-5.337
0.206,0.042,0.323,-5.337
0.132,0.044,0.318,-5.337
0.192,0.042,0.314,-5.337
0.224,0.040,0.313,-5.337
0.218,0.038,0.316,-5.337
0.264,0.039,0.322,-5.337
0.272,0.037,0.322,-5.337
0.218,0.036,0.320,-5.337
0.134,0.040,0.320,-5.337
0.138,0.042,0.324,-5.337
0.082,0.047,0.325,-5.337
0.127,0.041,0.322,-5.337
0.149,0.039,0.319,-5.337
0.147,0.044,0.317,-5.337
0.145,0.044,0.318,-5.337
0.087,0.044,0.321,-5.337
0.127,0.042,0.323,-5.337
0.187,0.040,0.322,-5.337
0.136,0.045,0.322,-5.337
0.043,0.046,0.321,-5.337
0.100,0.042,0.324,-5.337
0.167,0.041,0.323,-5.337
0.090,0.045,0.321,-5.337
0.035,0.045,0.316,-5.337
0.092,0.044,0.317,-5.337
0.191,0.042,0.321,-5.337
0.222,0.044,0.321,-5.337
0.197,0.043,0.319,-5.337
0.196,0.041,0.321,-5.337
0.201,0.042,0.320,-5.337
0.172,0.045,0.318,-5.337
0.167,0.044,0.315,-5.337
0.235,0.043,0.318,-5.337
0.221,0.044,0.322,-5.337
0.191,0.046,0.324,-5.337
0.151,0.048,0.321,-5.337
0.175,0.044,0.317,-5.337
0.213,0.047,0.317,-5.337
0.157,0.047,0.317,-5.337
0.114,0.046,0.320,-5.337
0.159,0.045,0.321,-5.337
0.186,0.047,0.321,-5.337
0.148,0.049,0.320,-5.337
0.151,0.046,0.318,-5.337
0.180,0.047,0.318,-5.337
0.222,0.052,0.322,-5.337
0.225,0.049,0.321,-5.337
0.148,0.050,0.317,-5.337
0.098,0.049,0.316,-5.337
0.155,0.051,0.319,-5.337
0.180,0.050,0.319,-5.337
0.178,0.049,0.322,-5.337
0.096,0.049,0.322,-5.337
0.081,0.047,0.322,-5.337
0.137,0.043,0.321,-5.337
0.161,0.042,0.319,-5.337
0.219,0.044,0.317,-5.337
0.225,0.047,0.314,-5.337
0.263,0.043,0.317,-5.337
0.221,0.041,0.320,-5.337
0.145,0.044,0.321,-5.337
0.146,0.045,0.317,-5.337
0.165,0.045,0.317,-5.337
0.076,0.047,0.319,-5.337
0.145,0.042,0.318,-5.337
0.181,0.043,0.317,-5.337
0.201,0.043,0.319,-5.337
0.220,0.043,0.320,-5.337
0.224,0.045,0.320,-5.337
0.133,0.045,0.317,-5.337
0.088,0.045,0.316,-5.337
0.102,0.047,0.318,-5.337
0.142,0.045,0.323,-5.337
0.135,0.047,0.325,-5.337
0.155,0.045,0.323,-5.337
0.217,0.044,0.319,-5.337
0.159,0.045,0.316,-5.337
0.052,0.047,0.317,-5.337
0.055,0.048,0.319,-5.337
0.147,0.047,0.318,-5.337
0.160,0.045,0.315,-5.337
0.170,0.043,0.319,-5.337
0.219,0.044,0.324,-5.337
0.183,0.046,0.324,-5.337
0.153,0.047,0.317,-5.337
0.142,0.045,0.317,-5.337
0.232,0.043,0.316,-5.337
0.237,0.047,0.316,-5.337
0.178,0.049,0.314,-5.337
0.190,0.048,0.317,-5.337
0.169,0.048,0.315,-5.337
0.097,0.050,0.318,-5.337
0.122,0.048,0.318,-5.337
0.182,0.050,0.318,-5.337
0.245,0.047,0.317,-5.337
0.214,0.050,0.317,-5.337
0.168,0.046,0.319,-5.337
0.122,0.047,0.324,-5.337
0.108,0.046,0.321,-5.337
0.208,0.048,0.318,-5.337
0.228,0.047,0.320,-5.337
0.236,0.048,0.324,-5.337
0.138,0.049,0.326,-5.337
0.111,0.048,0.325,-5.337
0.151,0.048,0.319,-5.337
0.206,0.048,0.312,-5.337
0.230,0.048,0.310,-5.337
0.171,0.051,0.311,-5.337
0.110,0.054,0.316,-5.337
0.143,0.051,0.317,-5.337
0.111,0.051,0.321,-5.337
0.109,0.050,0.321,-5.337
0.195,0.052,0.321,-5.337
0.208,0.050,0.318,-5.337
0.208,0.056,0.316,-5.337
0.160,0.057,0.315,-5.337
0.139,0.053,0.316,-5.337
0.151,0.051,0.317,-5.337
0.132,0.054,0.321,-5.337
0.172,0.050,0.323,-5.337
0.197,0.049,0.323,-5.337
0.148,0.050,0.321,-5.337
0.179,0.047,0.323,-5.337
0.165,0.053,0.323,-5.337
0.145,0.051,0.323,-5.337
0.270,0.045,0.320,-5.337
0.340,0.045,0.320,-5.337
0.261,0.051,0.317,-5.337
0.163,0.054,0.313,-5.337
0.151,0.054,0.312,-5.337
0.130,0.053,0.315,-5.337
0.150,0.053,0.319,-5.337
0.199,0.054,0.319,-5.337
0.227,0.052,0.318,-5.337
0.229,0.052,0.317,-5.337
0.181,0.055,0.318,-5.337
0.184,0.053,0.318,-5.337
0.237,0.050,0.320,-5.337
0.192,0.051,0.321,-5.337
0.170,0.053,0.321,-5.337
0.192,0.053,0.319,-5.337
0.190,0.054,0.317,-5.337
0.147,0.056,0.317,-5.337
0.142,0.055,0.316,-5.337
0.111,0.053,0.315,-5.337
0.088,0.055,0.320,-5.337
0.039,0.055,0.324,-5.337
0.101,0.053,0.328,-5.337
0.211,0.051,0.325,-5.337
0.198,0.054,0.319,-5.337
0.157,0.055,0.319,-5.337
0.131,0.054,0.320,-5.337
0.149,0.052,0.320,-5.337
0.125,0.050,0.318,-5.337
0.109,0.056,0.319,-5.337
0.129,0.055,0.320,-5.337
0.140,0.052,0.320,-5.337
0.198,0.051,0.317,-5.337
0.204,0.052,0.318,-5.337
0.237,0.054,0.316,-5.337
0.213,0.057,0.319,-5.337
0.254,0.053,0.324,-5.337
0.330,0.052,0.325,-5.337
0.302,0.053,0.320,-5.337
0.249,0.052,0.320,-5.337
0.201,0.053,0.323,-5.337
0.158,0.054,0.323,-5.337
0.120,0.054,0.318,-5.337
0.121,0.053,0.316,-5.337
0.162,0.051,0.316,-5.337
0.186,0.050,0.321,-5.337
0.234,0.047,0.321,-5.337
0.259,0.048,0.318,-5.337
0.246,0.052,0.319,-5.337
0.151,0.052,0.320,-5.337
0.076,0.053,0.316,-5.337
0.126,0.051,0.316,-5.337
0.142,0.049,0.319,-5.337
0.102,0.050,0.316,-5.337
0.208,0.051,0.317,-5.337
0.251,0.057,0.322,-5.337
0.068,0.059,0.325,-5.337
0.027,0.054,0.322,-5.337
0.132,0.056,0.320,-5.337
0.211,0.055,0.322,-5.337
0.233,0.056,0.326,-5.337
0.257,0.055,0.322,-5.337
0.225,0.057,0.321,-5.337
0.238,0.056,0.321,-5.337
0.277,0.056,0.322,-5.337
0.158,0.059,0.323,-5.337
0.120,0.057,0.324,-5.337
0.147,0.055,0.320,-5.337
0.146,0.061,0.317,-5.337
0.155,0.061,0.315,-5.337
0.129,0.062,0.318,-5.337
0.124,0.060,0.323,-5.337
0.188,0.059,0.326,-5.337
0.200,0.056,0.326,-5.337
0.199,0.059,0.326,-5.337
0.167,0.059,0.322,-5.337
0.199,0.056,0.320,-5.337
0.202,0.057,0.319,-5.337
0.101,0.060,0.318,-5.337
0.154,0.059,0.323,-5.337
0.229,0.052,0.326,-5.337
0.257,0.052,0.326,-5.337
0.234,0.053,0.319,-5.337
0.174,0.055,0.311,-5.337
0.158,0.056,0.310,-5.337
0.202,0.055,0.316,-5.337
0.284,0.055,0.324,-5.337
0.216,0.054,0.324,-5.337
0.146,0.050,0.322,-5.337
0.160,0.051,0.322,-5.337
0.167,0.053,0.325,-5.337
0.177,0.056,0.323,-5.337
0.169,0.055,0.320,-5.337
0.126,0.056,0.316,-5.337
0.090,0.054,0.312,-5.337
0.159,0.056,0.313,-5.337
0.205,0.056,0.316,-5.337
0.159,0.053,0.320,-5.337
0.101,0.053,0.321,-5.337
0.106,0.055,0.317,-5.337
0.218,0.053,0.321,-5.337
0.225,0.054,0.323,-5.337
0.195,0.054,0.324,-5.337
0.201,0.054,0.320,-5.337
0.180,0.054,0.318,-5.337
0.209,0.053,0.316,-5.337
0.244,0.056,0.318,-5.337
0.176,0.057,0.319,-5.337
0.152,0.055,0.317,-5.337
0.200,0.054,0.316,-5.337
0.181,0.059,0.315,-5.337
0.175,0.061,0.315,-5.337
0.189,0.059,0.314,-5.337
0.216,0.055,0.314,-5.337
0.319,0.056,0.315,-5.337
0.311,0.057,0.317,-5.337
0.152,0.059,0.320,-5.337
0.110,0.057,0.323,-5.337
0.182,0.056,0.323,-5.337
0.236,0.054,0.322,-5.337
0.154,0.056,0.318,-5.337
0.132,0.056,0.314,-5.337
0.157,0.053,0.314,-5.337
0.140,0.059,0.318,-5.337
0.121,0.059,0.318,-5.337
0.165,0.055,0.314,-5.337
0.220,0.053,0.313,-5.337
0.274,0.051,0.318,-5.337
0.196,0.053,0.322,-5.337
0.155,0.055,0.322,-5.337
0.144,0.054,0.316,-5.337
0.141,0.055,0.314,-5.337
0.176,0.050,0.320,-5.337
0.189,0.053,0.324,-5.337
0.177,0.052,0.321,-5.337
0.208,0.052,0.319,-5.337
0.158,0.050,0.317,-5.337
0.184,0.052,0.316,-5.337
0.135,0.053,0.316,-5.337
0.130,0.049,0.317,-5.337
0.192,0.047,0.317,-5.337
0.193,0.050,0.319,-5.337
0.123,0.054,0.325,-5.337
0.175,0.052,0.325,-5.337
0.229,0.049,0.319,-5.337
0.241,0.049,0.316,-5.337
0.176,0.051,0.317,-5.337
0.150,0.053,0.319,-5.337
0.173,0.052,0.320,-5.337
0.152,0.050,0.317,-5.337
0.183,0.049,0.314,-5.337
0.169,0.049,0.315,-5.337
0.127,0.050,0.319,-5.337
0.092,0.050,0.320,-5.337
0.052,0.049,0.319,-5.337
0.079,0.048,0.322,-5.337
0.189,0.041,0.325,-5.337
0.292,0.040,0.323,-5.337
0.286,0.037,0.320,-5.337
0.277,0.038,0.319,-5.337
0.236,0.039,0.317,-5.337
0.222,0.040,0.315,-5.337
0.224,0.041,0.312,-5.337
0.183,0.044,0.318,-5.337
0.171,0.046,0.322,-5.337
0.237,0.044,0.324,-5.337
0.284,0.044,0.323,-5.337
0.287,0.045,0.319,-5.337
0.248,0.047,0.314,-5.337
0.193,0.048,0.316,-5.337
0.131,0.045,0.320,-5.337
0.199,0.043,0.322,-5.337
0.296,0.041,0.324,-5.337
0.313,0.045,0.326,-5.337
0.267,0.045,0.326,-5.337
0.234,0.045,0.323,-5.337
0.189,0.043,0.318,-5.337
0.124,0.045,0.317,-5.337
-0.016,0.049,0.319,-5.337
-0.026,0.044,0.320,-5.337
0.079,0.043,0.319,-5.337
0.158,0.042,0.323,-5.337
0.209,0.043,0.327,-5.337
0.150,0.042,0.322,-5.337
0.113,0.038,0.315,-5.337
0.189,0.040,0.312,-5.337
0.206,0.042,0.317,-5.337
0.242,0.040,0.324,-5.337
0.265,0.037,0.324,-5.337
0.272,0.038,0.320,-5.337
0.207,0.044,0.318,-5.337
0.156,0.045,0.317,-5.337
0.207,0.038,0.317,-5.337
0.232,0.040,0.315,-5.337
0.164,0.042,0.312,-5.337
0.184,0.040,0.314,-5.337
0.253,0.042,0.320,-5.337
0.201,0.042,0.325,-5.337
0.169,0.040,0.326,-5.337
0.187,0.037,0.320,-5.337
0.134,0.040,0.317,-5.337
0.047,0.040,0.318,-5.337
0.110,0.039,0.319,-5.337
0.209,0.038,0.320,-5.337
0.193,0.042,0.323,-5.337
0.203,0.041,0.321,-5.337
0.244,0.038,0.319,-5.337
0.302,0.036,0.317,-5.337
0.290,0.040,0.316,-5.337
0.172,0.043,0.317,-5.337
0.129,0.045,0.319,-5.337
0.183,0.043,0.317,-5.337
0.204,0.044,0.316,-5.337
0.164,0.043,0.319,-5.337
0.148,0.043,0.319,-5.337
0.129,0.041,0.319,-5.337
0.156,0.038,0.316,-5.337
0.161,0.037,0.313,-5.337
0.145,0.035,0.313,-5.337
0.151,0.039,0.316,-5.337
0.084,0.039,0.318,-5.337
0.094,0.036,0.319,-5.337
0.164,0.033,0.319,-5.337
0.204,0.034,0.321,-5.337
0.242,0.039,0.319,-5.337
0.248,0.039,0.319,-5.337
0.204,0.033,0.319,-5.337
0.222,0.031,0.319,-5.337
0.192,0.033,0.318,-5.337
0.114,0.035,0.319,-5.337
0.126,0.032,0.321,-5.337
0.196,0.029,0.319,-5.337
0.192,0.033,0.318,-5.337
0.224,0.031,0.316,-5.337
0.232,0.033,0.316,-5.337
0.150,0.036,0.318,-5.337
0.173,0.035,0.323,-5.337
0.236,0.037,0.323,-5.337
0.183,0.037,0.319,-5.337
0.130,0.037,0.315,-5.337
0.113,0.034,0.320,-5.337
0.136,0.033,0.318,-5.337
0.163,0.033,0.317,-5.337
0.208,0.033,0.315,-5.337
0.202,0.033,0.317,-5.337
0.194,0.029,0.316,-5.337
0.226,0.032,0.316,-5.337
0.225,0.034,0.316,-5.337
0.183,0.032,0.318,-5.337
0.167,0.027,0.321,-5.337
0.227,0.026,0.323,-5.337
0.278,0.026,0.321,-5.337
0.273,0.030,0.319,-5.337
0.209,0.032,0.319,-5.337
0.180,0.032,0.317,-5.337
0.127,0.031,0.317,-5.337
0.097,0.034,0.313,-5.337
0.108,0.040,0.317,-5.337
0.206,0.035,0.318,-5.337
0.277,0.029,0.321,-5.337
0.218,0.030,0.323,-5.337
0.123,0.031,0.325,-5.337
0.127,0.029,0.320,-5.337
0.213,0.029,0.316,-5.337
0.229,0.029,0.313,-5.337
0.234,0.031,0.316,-5.337
0.286,0.031,0.317,-5.337
0.253,0.032,0.316,-5.337
0.255,0.032,0.314,-5.337
0.293,0.033,0.316,-5.337
0.269,0.031,0.318,-5.337
0.237,0.032,0.319,-5.337
0.237,0.034,0.317,-5.337
0.186,0.036,0.316,-5.337
0.165,0.035,0.317,-5.337
0.185,0.038,0.317,-5.337
0.167,0.036,0.317,-5.337
0.175,0.037,0.315,-5.337
0.166,0.036,0.318,-5.337
0.167,0.034,0.322,-5.337
0.224,0.034,0.323,-5.337
0.199,0.035,0.321,-5.337
0.220,0.033,0.318,-5.337
0.168,0.036,0.317,-5.337
0.185,0.033,0.316,-5.337
0.238,0.031,0.316,-5.337
0.214,0.033,0.319,-5.337
0.209,0.033,0.320,-5.337
0.228,0.033,0.321,-5.337
0.212,0.032,0.316,-5.337
0.173,0.035,0.314,-5.337
0.146,0.034,0.314,-5.337
0.186,0.034,0.316,-5.337
0.146,0.035,0.319,-5.337
0.039,0.037,0.321,-5.337
0.054,0.037,0.319,-5.337
0.112,0.035,0.316,-5.337
0.088,0.031,0.316,-5.337
0.086,0.029,0.319,-5.337
0.184,0.030,0.322,-5.337
0.232,0.031,0.322,-5.337
0.170,0.033,0.322,-5.337
0.166,0.032,0.318,-5.337
0.212,0.032,0.318,-5.337
0.231,0.032,0.319,-5.337
0.129,0.035,0.323,-5.337
0.117,0.035,0.323,-5.337
0.151,0.031,0.323,-5.337
0.202,0.029,0.321,-5.337
0.230,0.032,0.323,-5.337
0.298,0.033,0.323,-5.337
0.277,0.031,0.320,-5.337
0.210,0.033,0.318,-5.337
0.185,0.034,0.317,-5.337
0.241,0.034,0.318,-5.337
0.221,0.035,0.321,-5.337
0.137,0.038,0.320,-5.337
0.142,0.034,0.320,-5.337
0.200,0.033,0.316,-5.337
0.165,0.035,0.315,-5.337
0.162,0.032,0.316,-5.337
0.139,0.032,0.320,-5.337
0.156,0.033,0.326,-5.337
0.213,0.029,0.329,-5.337
0.230,0.030,0.327,-5.337
0.199,0.031,0.321,-5.337
0.164,0.036,0.321,-5.337
0.164,0.038,0.320,-5.337
0.194,0.037,0.318,-5.337
0.203,0.036,0.314,-5.337
0.211,0.038,0.317,-5.337
0.241,0.037,0.322,-5.337
0.202,0.037,0.322,-5.337
0.228,0.034,0.323,-5.337
0.179,0.034,0.324,-5.337
0.137,0.037,0.325,-5.337
0.160,0.036,0.324,-5.337
0.202,0.039,0.323,-5.337
0.221,0.037,0.322,-5.337
0.232,0.035,0.321,-5.337
0.276,0.034,0.321,-5.337
0.263,0.034,0.320,-5.337
0.207,0.036,0.323,-5.337
0.216,0.035,0.324,-5.337
0.113,0.036,0.321,-5.337
0.074,0.036,0.322,-5.337
0.098,0.034,0.322,-5.337
0.179,0.033,0.317,-5.337
0.178,0.036,0.312,-5.337
0.215,0.036,0.317,-5.337
0.261,0.032,0.320,-5.337
0.215,0.032,0.322,-5.337
0.203,0.034,0.319,-5.337
0.205,0.037,0.319,-5.337
0.211,0.034,0.319,-5.337
0.254,0.032,0.317,-5.337
0.203,0.035,0.319,-5.337
0.236,0.040,0.321,-5.337
0.168,0.036,0.318,-5.337
0.110,0.033,0.315,-5.337
0.152,0.035,0.314,-5.337
0.121,0.039,0.318,-5.337
0.121,0.040,0.321,-5.337
0.174,0.035,0.319,-5.337
0.184,0.031,0.316,-5.337
0.198,0.034,0.315,-5.337
0.199,0.037,0.317,-5.337
0.226,0.036,0.316,-5.337
0.183,0.035,0.317,-5.337
0.174,0.033,0.319,-5.337
0.236,0.034,0.323,-5.337
0.243,0.036,0.324,-5.337
0.208,0.036,0.320,-5.337
0.198,0.033,0.316,-5.337
0.309,0.036,0.315,-5.337
0.285,0.039,0.315,-5.337
0.210,0.038,0.319,-5.337
0.187,0.038,0.319,-5.337
0.126,0.041,0.321,-5.337
0.121,0.039,0.320,-5.337
0.180,0.036,0.318,-5.337
0.297,0.033,0.317,-5.337
0.319,0.035,0.320,-5.337
0.163,0.038,0.323,-5.337
0.122,0.037,0.324,-5.337
0.127,0.037,0.321,-5.337
0.189,0.037,0.314,-5.337
0.168,0.038,0.313,-5.337
0.116,0.043,0.318,-5.337
0.130,0.039,0.319,-5.337
0.207,0.037,0.318,-5.337
0.212,0.040,0.317,-5.337
0.212,0.041,0.318,-5.337
0.139,0.042,0.315,-5.337
0.069,0.045,0.311,-5.337
0.095,0.045,0.313,-5.337
0.186,0.040,0.317,-5.337
0.228,0.042,0.323,-5.337
0.142,0.043,0.318,-5.337
0.124,0.043,0.315,-5.337
0.144,0.040,0.314,-5.337
0.145,0.035,0.316,-5.337
0.165,0.033,0.317,-5.337
0.231,0.031,0.317,-5.337
0.278,0.029,0.311,-5.337
0.242,0.031,0.310,-5.337
0.163,0.033,0.316,-5.337
0.121,0.038,0.324,-5.337
0.151,0.038,0.324,-5.337
0.199,0.040,0.323,-5.337
0.209,0.040,0.320,-5.337
0.243,0.039,0.320,-5.337
0.280,0.038,0.319,-5.337
0.292,0.040,0.317,-5.337
0.235,0.041,0.313,-5.337
0.146,0.044,0.314,-5.337
0.121,0.043,0.318,-5.337
0.191,0.043,0.318,-5.337
0.136,0.043,0.323,-5.337
0.111,0.045,0.321,-5.337
0.149,0.042,0.320,-5.337
0.171,0.041,0.321,-5.337
0.187,0.041,0.319,-5.337
0.170,0.041,0.315,-5.337
0.161,0.044,0.311,-5.337
0.188,0.041,0.315,-5.337
0.267,0.037,0.322,-5.337
0.221,0.040,0.323,-5.337
0.122,0.042,0.321,-5.337
0.064,0.046,0.318,-5.337
0.069,0.047,0.316,-5.337
0.118,0.046,0.315,-5.337
0.105,0.046,0.316,-5.337
0.115,0.045,0.318,-5.337
0.135,0.045,0.321,-5.337
0.135,0.046,0.324,-5.337
0.182,0.044,0.322,-5.337
0.181,0.043,0.318,-5.337
0.205,0.043,0.313,-5.337
0.270,0.043,0.314,-5.337
0.256,0.047,0.317,-5.337
0.192,0.048,0.323,-5.337
0.218,0.045,0.321,-5.337
0.194,0.046,0.318,-5.337
0.191,0.046,0.317,-5.337
0.196,0.046,0.319,-5.337
0.170,0.045,0.318,-5.337
0.168,0.048,0.320,-5.337
0.140,0.047,0.320,-5.337
0.094,0.048,0.319,-5.337
0.032,0.047,0.315,-5.337
0.108,0.044,0.317,-5.337
0.149,0.043,0.319,-5.337
0.167,0.048,0.323,-5.337
0.200,0.048,0.320,-5.337
0.219,0.046,0.314,-5.337
0.250,0.045,0.316,-5.337
0.195,0.048,0.313,-5.337
0.106,0.049,0.315,-5.337
0.040,0.053,0.317,-5.337
0.062,0.051,0.316,-5.337
0.160,0.045,0.316,-5.337
0.251,0.043,0.315,-5.337
0.289,0.043,0.317,-5.337
0.195,0.046,0.325,-5.337
0.128,0.042,0.326,-5.337
0.159,0.041,0.324,-5.337
0.237,0.040,0.319,-5.337
0.203,0.044,0.316,-5.337
0.204,0.049,0.316,-5.337
0.214,0.052,0.318,-5.337
0.159,0.049,0.319,-5.337
0.126,0.048,0.322,-5.337
0.161,0.047,0.321,-5.337
0.190,0.050,0.317,-5.337
0.153,0.050,0.310,-5.337
0.193,0.047,0.307,-5.337
0.217,0.047,0.310,-5.337
0.143,0.048,0.318,-5.337
0.138,0.048,0.320,-5.337
0.120,0.050,0.319,-5.337
0.129,0.053,0.316,-5.337
0.182,0.050,0.316,-5.337
0.216,0.046,0.315,-5.337
0.199,0.047,0.313,-5.337
0.196,0.046,0.317,-5.337
0.204,0.050,0.319,-5.337
0.192,0.051,0.320,-5.337
0.158,0.050,0.316,-5.337
0.226,0.045,0.317,-5.337
0.264,0.042,0.318,-5.337
0.238,0.045,0.319,-5.337
0.157,0.050,0.321,-5.337
0.088,0.052,0.320,-5.337
0.049,0.049,0.320,-5.337
0.085,0.047,0.319,-5.337
0.101,0.046,0.315,-5.337
0.164,0.043,0.313,-5.337
0.234,0.042,0.312,-5.337
0.258,0.043,0.313,-5.337
0.240,0.043,0.316,-5.337
0.202,0.045,0.317,-5.337
0.183,0.045,0.316,-5.337
0.204,0.044,0.317,-5.337
0.158,0.045,0.317,-5.337
0.164,0.046,0.314,-5.337
0.175,0.043,0.314,-5.337
0.147,0.044,0.316,-5.337
0.139,0.042,0.316,-5.337
0.169,0.046,0.317,-5.337
0.142,0.050,0.320,-5.337
0.171,0.047,0.319,-5.337
0.257,0.044,0.320,-5.337
0.177,0.046,0.315,-5.337
0.192,0.049,0.312,-5.337
0.140,0.050,0.311,-5.337
0.072,0.051,0.316,-5.337
0.091,0.052,0.319,-5.337
0.105,0.055,0.318,-5.337
0.137,0.051,0.318,-5.337
0.181,0.049,0.319,-5.337
0.185,0.049,0.319,-5.337
0.142,0.049,0.317,-5.337
0.190,0.049,0.318,-5.337
0.217,0.052,0.319,-5.337
0.144,0.053,0.316,-5.337
0.134,0.051,0.312,-5.337
0.242,0.052,0.313,-5.337
0.272,0.051,0.314,-5.337
0.256,0.051,0.314,-5.337
0.278,0.050,0.313,-5.337
0.224,0.051,0.316,-5.337
0.172,0.048,0.319,-5.337
0.137,0.050,0.320,-5.337
0.144,0.051,0.316,-5.337
0.134,0.050,0.315,-5.337
0.182,0.049,0.313,-5.337
0.170,0.050,0.315,-5.337
0.127,0.051,0.318,-5.337
0.108,0.051,0.319,-5.337
0.118,0.049,0.320,-5.337
0.164,0.051,0.320,-5.337
0.212,0.050,0.318,-5.337
0.233,0.049,0.316,-5.337
0.265,0.050,0.314,-5.337
0.193,0.056,0.313,-5.337
0.105,0.055,0.313,-5.337
0.149,0.052,0.315,-5.337
0.222,0.052,0.316,-5.337
0.292,0.053,0.314,-5.337
0.302,0.050,0.315,-5.337
0.213,0.051,0.316,-5.337
0.081,0.055,0.320,-5.337
0.076,0.055,0.319,-5.337
0.161,0.053,0.322,-5.337
0.199,0.049,0.323,-5.337
0.212,0.047,0.322,-5.337
0.178,0.047,0.317,-5.337
0.175,0.049,0.317,-5.337
0.224,0.053,0.318,-5.337
0.251,0.052,0.317,-5.337
0.206,0.052,0.315,-5.337
0.168,0.053,0.314,-5.337
0.182,0.053,0.313,-5.337
0.188,0.051,0.317,-5.337
0.147,0.050,0.316,-5.337
0.195,0.056,0.313,-5.337
0.241,0.053,0.316,-5.337
0.242,0.052,0.320,-5.337
0.179,0.052,0.321,-5.337
0.151,0.051,0.316,-5.337
0.136,0.053,0.316,-5.337
0.149,0.055,0.316,-5.337
0.217,0.055,0.318,-5.337
0.204,0.056,0.318,-5.337
0.167,0.054,0.321,-5.337
0.173,0.054,0.321,-5.337
0.169,0.051,0.320,-5.337
0.233,0.050,0.317,-5.337
0.196,0.053,0.318,-5.337
0.162,0.052,0.317,-5.337
0.205,0.054,0.317,-5.337
0.230,0.053,0.316,-5.337
0.232,0.055,0.315,-5.337
0.291,0.053,0.317,-5.337
0.321,0.058,0.320,-5.337
0.266,0.057,0.319,-5.337
0.223,0.057,0.317,-5.337
0.262,0.057,0.315,-5.337
0.239,0.057,0.312,-5.337
0.118,0.058,0.316,-5.337
0.076,0.055,0.317,-5.337
0.133,0.056,0.317,-5.337
0.165,0.057,0.319,-5.337
0.166,0.055,0.320,-5.337
0.232,0.054,0.320,-5.337
0.270,0.053,0.319,-5.337
0.201,0.057,0.316,-5.337
0.219,0.056,0.317,-5.337
0.209,0.054,0.320,-5.337
0.176,0.055,0.323,-5.337
0.167,0.055,0.322,-5.337
0.112,0.057,0.321,-5.337
0.035,0.056,0.319,-5.337
0.085,0.055,0.320,-5.337
0.077,0.055,0.318,-5.337
0.091,0.056,0.319,-5.337
0.091,0.051,0.318,-5.337
0.121,0.051,0.318,-5.337
0.097,0.052,0.319,-5.337
0.104,0.053,0.323,-5.337
0.154,0.052,0.323,-5.337
0.162,0.052,0.319,-5.337
0.251,0.047,0.318,-5.337
0.318,0.048,0.318,-5.337
0.177,0.049,0.318,-5.337
0.070,0.050,0.319,-5.337
0.060,0.052,0.317,-5.337
0.154,0.052,0.317,-5.337
0.174,0.049,0.323,-5.337
0.181,0.047,0.329,-5.337
0.219,0.049,0.327,-5.337
0.182,0.046,0.319,-5.337
0.135,0.048,0.314,-5.337
0.151,0.044,0.314,-5.337
0.238,0.044,0.316,-5.337
0.220,0.046,0.313,-5.337
0.230,0.043,0.318,-5.337
0.218,0.040,0.320,-5.337
0.200,0.043,0.318,-5.337
0.208,0.044,0.314,-5.337
0.134,0.046,0.312,-5.337
0.223,0.043,0.314,-5.337
0.334,0.042,0.317,-5.337
0.330,0.041,0.318,-5.337
0.265,0.041,0.318,-5.337
0.206,0.044,0.317,-5.337
0.220,0.046,0.320,-5.337
0.221,0.046,0.321,-5.337
0.226,0.043,0.317,-5.337
0.300,0.040,0.313,-5.337
0.274,0.041,0.315,-5.337
0.193,0.043,0.320,-5.337
0.132,0.046,0.320,-5.337
0.136,0.044,0.316,-5.337
0.206,0.042,0.315,-5.337
0.216,0.040,0.319,-5.337
0.187,0.044,0.317,-5.337
0.178,0.043,0.317,-5.337
0.233,0.044,0.318,-5.337
0.217,0.045,0.319,-5.337
0.248,0.039,0.318,-5.337
0.264,0.041,0.318,-5.337
0.164,0.045,0.319,-5.337
0.156,0.043,0.318,-5.337
0.179,0.043,0.315,-5.337
0.192,0.041,0.312,-5.337
0.192,0.042,0.314,-5.337
0.127,0.041,0.318,-5.337
0.098,0.040,0.321,-5.337
0.160,0.037,0.322,-5.337
0.198,0.038,0.319,-5.337
0.208,0.037,0.317,-5.337
0.198,0.037,0.315,-5.337
0.253,0.038,0.314,-5.337
0.247,0.042,0.315,-5.337
0.211,0.042,0.317,-5.337
0.249,0.041,0.321,-5.337
0.234,0.041,0.322,-5.337
0.212,0.043,0.317,-5.337
0.151,0.044,0.312,-5.337
0.200,0.043,0.315,-5.337
0.227,0.041,0.320,-5.337
0.187,0.042,0.321,-5.337
0.189,0.041,0.317,-5.337
0.165,0.045,0.316,-5.337
0.055,0.045,0.313,-5.337
0.031,0.041,0.317,-5.337
0.176,0.039,0.317,-5.337
0.203,0.044,0.314,-5.337
0.105,0.047,0.313,-5.337
0.156,0.042,0.316,-5.337
0.189,0.042,0.317,-5.337
0.140,0.042,0.318,-5.337
0.140,0.045,0.320,-5.337
0.185,0.043,0.324,-5.337
0.230,0.039,0.325,-5.337
0.271,0.037,0.322,-5.337
0.277,0.036,0.320,-5.337
0.256,0.037,0.316,-5.337
0.230,0.038,0.315,-5.337
0.197,0.037,0.314,-5.337
0.216,0.037,0.316,-5.337
0.231,0.035,0.319,-5.337
0.165,0.035,0.324,-5.337
0.140,0.038,0.323,-5.337
0.185,0.040,0.320,-5.337
0.234,0.035,0.318,-5.337
0.207,0.035,0.322,-5.337
0.166,0.035,0.320,-5.337
0.179,0.036,0.317,-5.337
0.225,0.034,0.316,-5.337
0.290,0.033,0.321,-5.337
0.243,0.033,0.320,-5.337
0.176,0.034,0.319,-5.337
0.202,0.038,0.317,-5.337
0.231,0.040,0.315,-5.337
0.229,0.037,0.318,-5.337
0.182,0.041,0.321,-5.337
0.158,0.038,0.322,-5.337
0.177,0.037,0.322,-5.337
0.189,0.035,0.323,-5.337
0.144,0.036,0.321,-5.337
0.142,0.038,0.317,-5.337
0.111,0.039,0.315,-5.337
0.109,0.037,0.320,-5.337
0.161,0.037,0.323,-5.337
0.228,0.037,0.323,-5.337
0.208,0.039,0.321,-5.337
0.245,0.039,0.318,-5.337
0.253,0.036,0.313,-5.337
0.186,0.040,0.310,-5.337
0.195,0.039,0.312,-5.337
0.319,0.039,0.317,-5.337
0.294,0.040,0.320,-5.337
0.139,0.045,0.320,-5.337
0.047,0.043,0.321,-5.337
0.148,0.039,0.322,-5.337
0.225,0.039,0.322,-5.337
0.242,0.039,0.317,-5.337
0.234,0.038,0.317,-5.337
0.227,0.036,0.318,-5.337
0.135,0.040,0.318,-5.337
0.129,0.034,0.316,-5.337
0.245,0.029,0.318,-5.337
0.329,0.031,0.320,-5.337
0.286,0.036,0.321,-5.337
0.139,0.035,0.320,-5.337
0.051,0.034,0.318,-5.337
0.151,0.035,0.315,-5.337
0.265,0.035,0.318,-5.337
0.259,0.035,0.320,-5.337
0.182,0.037,0.320,-5.337
0.134,0.038,0.319,-5.337
0.169,0.036,0.319,-5.337
0.188,0.035,0.318,-5.337
0.228,0.035,0.316,-5.337
0.225,0.036,0.316,-5.337
0.198,0.034,0.319,-5.337
0.196,0.033,0.318,-5.337
0.215,0.034,0.318,-5.337
0.203,0.034,0.319,-5.337
0.257,0.032,0.321,-5.337
0.282,0.031,0.320,-5.337
0.177,0.035,0.317,-5.337
0.227,0.033,0.314,-5.337
0.282,0.031,0.318,-5.337
0.246,0.028,0.324,-5.337
0.231,0.028,0.323,-5.337
0.206,0.031,0.320,-5.337
0.175,0.031,0.318,-5.337
0.126,0.033,0.319,-5.337
0.101,0.032,0.316,-5.337
0.128,0.033,0.316,-5.337
0.256,0.029,0.316,-5.337
0.313,0.029,0.318,-5.337
0.210,0.030,0.319,-5.337
0.160,0.031,0.320,-5.337
0.170,0.027,0.321,-5.337
0.125,0.027,0.317,-5.337
0.181,0.027,0.314,-5.337
0.228,0.029,0.314,-5.337
0.268,0.029,0.316,-5.337
0.291,0.032,0.317,-5.337
0.193,0.031,0.317,-5.337
0.115,0.032,0.316,-5.337
0.117,0.029,0.317,-5.337
0.159,0.026,0.317,-5.337
0.210,0.030,0.317,-5.337
0.179,0.031,0.316,-5.337
0.177,0.031,0.321,-5.337
0.189,0.031,0.324,-5.337
0.213,0.028,0.323,-5.337
0.210,0.030,0.316,-5.337
0.212,0.030,0.315,-5.337
0.332,0.030,0.318,-5.337
0.357,0.030,0.322,-5.337
0.240,0.033,0.321,-5.337
0.159,0.032,0.319,-5.337
0.181,0.026,0.318,-5.337
0.132,0.027,0.319,-5.337
0.122,0.026,0.319,-5.337
0.194,0.027,0.317,-5.337
0.254,0.028,0.315,-5.337
0.210,0.030,0.318,-5.337
0.155,0.034,0.323,-5.337
0.142,0.033,0.321,-5.337
0.117,0.029,0.318,-5.337
0.167,0.030,0.314,-5.337
0.224,0.030,0.315,-5.337
0.273,0.030,0.318,-5.337
0.233,0.030,0.321,-5.337
0.241,0.030,0.321,-5.337
0.269,0.028,0.317,-5.337
0.252,0.027,0.316,-5.337
0.231,0.029,0.318,-5.337
0.264,0.030,0.320,-5.337
0.262,0.030,0.319,-5.337
0.262,0.031,0.317,-5.337
0.210,0.034,0.321,-5.337
0.194,0.030,0.323,-5.337
0.247,0.028,0.323,-5.337
0.207,0.032,0.317,-5.337
0.198,0.033,0.312,-5.337
0.184,0.032,0.314,-5.337
0.203,0.032,0.316,-5.337
0.169,0.033,0.317,-5.337
0.125,0.031,0.318,-5.337
0.134,0.033,0.319,-5.337
0.179,0.032,0.318,-5.337
0.227,0.032,0.317,-5.337
0.184,0.036,0.317,-5.337
0.174,0.035,0.318,-5.337
0.204,0.032,0.322,-5.337
0.229,0.031,0.322,-5.337
0.219,0.033,0.319,-5.337
0.202,0.034,0.316,-5.337
0.222,0.033,0.315,-5.337
0.243,0.033,0.315,-5.337
0.236,0.030,0.315,-5.337
0.254,0.028,0.319,-5.337
0.227,0.024,0.322,-5.337
0.219,0.028,0.325,-5.337
0.228,0.028,0.324,-5.337
0.197,0.028,0.323,-5.337
0.091,0.030,0.320,-5.337
0.118,0.027,0.317,-5.337
0.203,0.025,0.317,-5.337
0.196,0.028,0.318,-5.337
0.145,0.030,0.315,-5.337
0.113,0.033,0.317,-5.337
0.152,0.033,0.316,-5.337
0.172,0.032,0.315,-5.337
0.196,0.030,0.319,-5.337
0.288,0.029,0.326,-5.337
0.298,0.027,0.324,-5.337
0.255,0.028,0.319,-5.337
0.180,0.032,0.318,-5.337
0.171,0.034,0.318,-5.337
0.223,0.034,0.319,-5.337
0.188,0.032,0.320,-5.337
0.211,0.032,0.321,-5.337
0.242,0.035,0.317,-5.337
0.160,0.033,0.317,-5.337
0.131,0.027,0.316,-5.337
0.111,0.028,0.318,-5.337
0.145,0.031,0.321,-5.337
0.222,0.030,0.321,-5.337
0.129,0.030,0.321,-5.337
0.060,0.031,0.320,-5.337
0.152,0.030,0.319,-5.337
0.176,0.033,0.320,-5.337
0.238,0.030,0.319,-5.337
0.266,0.030,0.319,-5.337
0.213,0.033,0.319,-5.337
0.204,0.035,0.318,-5.337
0.156,0.035,0.321,-5.337
0.104,0.032,0.323,-5.337
0.131,0.033,0.327,-5.337
0.169,0.032,0.328,-5.337
0.181,0.029,0.327,-5.337
0.164,0.028,0.326,-5.337
0.229,0.025,0.324,-5.337
0.233,0.028,0.318,-5.337
0.185,0.027,0.314,-5.337
0.217,0.024,0.313,-5.337
0.171,0.028,0.317,-5.337
0.181,0.027,0.318,-5.337
0.205,0.033,0.318,-5.337
0.220,0.029,0.314,-5.337
0.260,0.026,0.313,-5.337
0.312,0.025,0.314,-5.337
0.275,0.029,0.317,-5.337
0.229,0.029,0.322,-5.337
0.257,0.027,0.324,-5.337
0.290,0.027,0.326,-5.337
0.282,0.029,0.325,-5.337
0.190,0.029,0.322,-5.337
0.113,0.029,0.320,-5.337
0.136,0.029,0.317,-5.337
0.155,0.030,0.318,-5.337
0.230,0.028,0.322,-5.337
0.218,0.031,0.324,-5.337
0.208,0.034,0.325,-5.337
0.181,0.035,0.323,-5.337
0.165,0.036,0.318,-5.337
0.132,0.034,0.314,-5.337
0.221,0.031,0.317,-5.337
0.261,0.033,0.316,-5.337
0.196,0.036,0.320,-5.337
0.215,0.030,0.322,-5.337
0.254,0.030,0.322,-5.337
0.217,0.034,0.317,-5.337
0.201,0.031,0.316,-5.337
0.200,0.031,0.316,-5.337
0.181,0.033,0.318,-5.337
0.170,0.034,0.320,-5.337
0.120,0.038,0.321,-5.337
0.112,0.035,0.320,-5.337
0.095,0.037,0.317,-5.337
0.148,0.039,0.317,-5.337
0.209,0.042,0.317,-5.337
0.179,0.041,0.317,-5.337
0.167,0.041,0.317,-5.337
0.208,0.040,0.317,-5.337
0.224,0.036,0.320,-5.337
0.230,0.033,0.318,-5.337
0.189,0.036,0.314,-5.337
0.175,0.037,0.311,-5.337
0.183,0.038,0.310,-5.337
0.186,0.038,0.312,-5.337
0.221,0.038,0.317,-5.337
0.243,0.037,0.322,-5.337
0.210,0.039,0.324,-5.337
0.164,0.040,0.325,-5.337
0.185,0.039,0.321,-5.337
0.188,0.040,0.316,-5.337
0.192,0.036,0.316,-5.337
0.266,0.034,0.314,-5.337
0.319,0.034,0.312,-5.337
0.233,0.038,0.315,-5.337
0.154,0.040,0.320,-5.337
0.158,0.040,0.321,-5.337
0.196,0.040,0.319,-5.337
0.171,0.038,0.317,-5.337
0.150,0.037,0.316,-5.337
0.115,0.041,0.316,-5.337
0.125,0.041,0.318,-5.337
0.206,0.040,0.321,-5.337
0.216,0.038,0.323,-5.337
0.218,0.039,0.322,-5.337
0.252,0.038,0.318,-5.337
0.225,0.037,0.315,-5.337
0.186,0.041,0.318,-5.337
0.142,0.040,0.320,-5.337
0.074,0.040,0.320,-5.337
0.113,0.038,0.318,-5.337
0.163,0.040,0.321,-5.337
0.155,0.039,0.321,-5.337
0.162,0.041,0.317,-5.337
0.169,0.041,0.314,-5.337
0.192,0.042,0.317,-5.337
0.257,0.042,0.318,-5.337
0.251,0.042,0.322,-5.337
0.192,0.040,0.323,-5.337
0.151,0.040,0.322,-5.337
0.134,0.039,0.318,-5.337
0.141,0.042,0.321,-5.337
0.143,0.046,0.322,-5.337
0.183,0.046,0.320,-5.337
0.178,0.046,0.318,-5.337
0.191,0.046,0.314,-5.337
0.163,0.047,0.315,-5.337
0.176,0.045,0.318,-5.337
0.186,0.041,0.319,-5.337
0.208,0.039,0.313,-5.337
0.239,0.041,0.314,-5.337
0.227,0.044,0.313,-5.337
0.212,0.045,0.316,-5.337
0.194,0.045,0.318,-5.337
0.114,0.046,0.320,-5.337
0.109,0.042,0.317,-5.337
0.166,0.045,0.316,-5.337
0.238,0.045,0.319,-5.337
0.239,0.049,0.324,-5.337
0.148,0.049,0.324,-5.337
0.208,0.045,0.323,-5.337
0.279,0.039,0.320,-5.337
0.295,0.040,0.317,-5.337
0.220,0.043,0.317,-5.337
0.161,0.043,0.320,-5.337
0.180,0.041,0.320,-5.337
0.177,0.044,0.317,-5.337
0.142,0.043,0.316,-5.337
0.117,0.048,0.314,-5.337
0.117,0.044,0.314,-5.337
0.241,0.040,0.316,-5.337
0.254,0.044,0.321,-5.337
0.209,0.042,0.320,-5.337
0.203,0.044,0.319,-5.337
0.234,0.046,0.318,-5.337
0.169,0.050,0.319,-5.337
0.112,0.048,0.320,-5.337
0.108,0.047,0.318,-5.337
0.208,0.043,0.316,-5.337
0.273,0.042,0.315,-5.337
0.181,0.045,0.315,-5.337
0.101,0.049,0.320,-5.337
0.154,0.046,0.323,-5.337
0.152,0.049,0.322,-5.337
0.135,0.049,0.320,-5.337
0.098,0.049,0.321,-5.337
0.129,0.047,0.319,-5.337
0.166,0.051,0.316,-5.337
0.188,0.054,0.315,-5.337
0.141,0.050,0.318,-5.337
0.151,0.047,0.317,-5.337
0.171,0.048,0.315,-5.337
0.148,0.045,0.315,-5.337
0.125,0.045,0.315,-5.337
0.151,0.048,0.316,-5.337
0.174,0.050,0.317,-5.337
0.176,0.050,0.320,-5.337
0.177,0.048,0.318,-5.337
0.160,0.049,0.319,-5.337
0.212,0.046,0.319,-5.337
0.207,0.048,0.318,-5.337
0.228,0.049,0.316,-5.337
0.226,0.052,0.317,-5.337
0.264,0.050,0.319,-5.337
0.258,0.051,0.318,-5.337
0.233,0.048,0.320,-5.337
0.221,0.050,0.318,-5.337
0.244,0.051,0.317,-5.337
0.264,0.051,0.321,-5.337
0.280,0.051,0.321,-5.337
0.308,0.050,0.320,-5.337
0.198,0.049,0.317,-5.337
0.163,0.047,0.319,-5.337
0.273,0.047,0.318,-5.337
0.281,0.047,0.314,-5.337
0.261,0.048,0.315,-5.337
0.180,0.050,0.317,-5.337
0.058,0.050,0.320,-5.337
0.065,0.052,0.318,-5.337
0.116,0.052,0.320,-5.337
0.061,0.051,0.318,-5.337
0.080,0.048,0.316,-5.337
0.168,0.050,0.312,-5.337
0.191,0.049,0.312,-5.337
0.117,0.050,0.315,-5.337
0.120,0.051,0.319,-5.337
0.139,0.053,0.322,-5.337
0.074,0.054,0.321,-5.337
0.118,0.052,0.318,-5.337
0.170,0.052,0.314,-5.337
0.173,0.052,0.312,-5.337
0.185,0.053,0.312,-5.337
0.207,0.051,0.314,-5.337
0.256,0.050,0.319,-5.337
0.284,0.053,0.321,-5.337
0.187,0.057,0.320,-5.337
0.153,0.053,0.320,-5.337
0.203,0.053,0.320,-5.337
0.236,0.056,0.317,-5.337
0.214,0.057,0.315,-5.337
0.200,0.055,0.315,-5.337
0.235,0.054,0.317,-5.337
0.241,0.054,0.317,-5.337
0.213,0.054,0.315,-5.337
0.206,0.056,0.316,-5.337
0.234,0.056,0.314,-5.337
0.225,0.056,0.312,-5.337
0.196,0.054,0.312,-5.337
0.118,0.056,0.318,-5.337
0.067,0.057,0.320,-5.337
0.109,0.057,0.318,-5.337
0.203,0.054,0.318,-5.337
0.210,0.053,0.321,-5.337
0.201,0.050,0.322,-5.337
0.213,0.050,0.321,-5.337
0.226,0.053,0.322,-5.337
0.185,0.052,0.325,-5.337
0.244,0.050,0.325,-5.337
0.235,0.053,0.321,-5.337
0.135,0.054,0.313,-5.337
0.132,0.058,0.308,-5.337
0.188,0.054,0.311,-5.337
0.214,0.055,0.312,-5.337
0.164,0.057,0.314,-5.337
0.127,0.056,0.320,-5.337
0.160,0.057,0.325,-5.337
0.191,0.057,0.319,-5.337
0.223,0.056,0.316,-5.337
0.266,0.054,0.312,-5.337
0.200,0.056,0.313,-5.337
0.131,0.054,0.314,-5.337
0.120,0.053,0.315,-5.337
0.165,0.053,0.317,-5.337
0.178,0.052,0.319,-5.337
0.175,0.054,0.318,-5.337
0.214,0.054,0.317,-5.337
0.217,0.053,0.320,-5.337
0.226,0.054,0.321,-5.337
0.166,0.057,0.321,-5.337
0.161,0.055,0.320,-5.337
0.211,0.053,0.318,-5.337
0.308,0.050,0.321,-5.337
0.283,0.050,0.323,-5.337
0.200,0.052,0.322,-5.337
0.128,0.051,0.318,-5.337
0.119,0.049,0.316,-5.337
0.176,0.051,0.318,-5.337
0.181,0.049,0.316,-5.337
0.128,0.046,0.318,-5.337
0.164,0.044,0.316,-5.337
0.167,0.048,0.314,-5.337
0.078,0.047,0.313,-5.337
0.115,0.045,0.313,-5.337
0.117,0.042,0.313,-5.337
0.203,0.042,0.316,-5.337
0.232,0.040,0.322,-5.337
0.217,0.040,0.325,-5.337
0.223,0.041,0.323,-5.337
0.254,0.047,0.318,-5.337
0.228,0.048,0.314,-5.337
0.184,0.047,0.316,-5.337
0.129,0.047,0.317,-5.337
0.054,0.051,0.315,-5.337
0.087,0.048,0.317,-5.337
0.148,0.049,0.321,-5.337
0.157,0.050,0.325,-5.337
0.182,0.045,0.322,-5.337
0.318,0.043,0.319,-5.337
0.380,0.042,0.317,-5.337
0.285,0.043,0.315,-5.337
0.245,0.044,0.312,-5.337
0.245,0.044,0.317,-5.337
0.297,0.042,0.322,-5.337
0.327,0.044,0.320,-5.337
0.263,0.044,0.317,-5.337
0.214,0.044,0.319,-5.337
0.202,0.040,0.319,-5.337
0.113,0.044,0.320,-5.337
0.069,0.046,0.320,-5.337
0.115,0.046,0.321,-5.337
0.173,0.045,0.320,-5.337
0.191,0.047,0.319,-5.337
0.160,0.047,0.316,-5.337
0.217,0.043,0.312,-5.337
0.226,0.042,0.317,-5.337
0.170,0.042,0.321,-5.337
0.200,0.044,0.321,-5.337
0.263,0.046,0.318,-5.337
0.220,0.047,0.315,-5.337
0.147,0.044,0.318,-5.337
0.166,0.043,0.320,-5.337
0.217,0.045,0.322,-5.337
0.159,0.045,0.324,-5.337
0.129,0.045,0.324,-5.337
0.208,0.045,0.323,-5.337
0.304,0.047,0.319,-5.337
0.242,0.050,0.319,-5.337
0.196,0.047,0.319,-5.337
0.130,0.047,0.318,-5.337
0.161,0.048,0.317,-5.337
0.191,0.050,0.318,-5.337
0.267,0.046,0.319,-5.337
0.302,0.045,0.315,-5.337
0.283,0.045,0.317,-5.337
0.297,0.046,0.321,-5.337
0.277,0.046,0.323,-5.337
0.266,0.044,0.321,-5.337
0.223,0.042,0.322,-5.337
0.179,0.041,0.319,-5.337
0.215,0.042,0.317,-5.337
0.265,0.042,0.319,-5.337
0.215,0.043,0.320,-5.337
0.182,0.042,0.320,-5.337
0.217,0.039,0.322,-5.337
0.174,0.040,0.321,-5.337
0.086,0.043,0.316,-5.337
0.089,0.042,0.315,-5.337
0.120,0.043,0.319,-5.337
0.077,0.046,0.317,-5.337
0.045,0.046,0.315,-5.337
0.113,0.042,0.315,-5.337
0.288,0.040,0.320,-5.337
0.326,0.039,0.321,-5.337
0.240,0.040,0.318,-5.337
0.221,0.042,0.317,-5.337
0.231,0.039,0.317,-5.337
0.230,0.040,0.319,-5.337
0.188,0.039,0.318,-5.337
0.191,0.038,0.317,-5.337
0.279,0.041,0.318,-5.337
0.275,0.040,0.318,-5.337
0.189,0.040,0.317,-5.337
0.097,0.043,0.318,-5.337
0.129,0.041,0.318,-5.337
0.270,0.042,0.319,-5.337
0.273,0.042,0.321,-5.337
0.210,0.040,0.319,-5.337
0.192,0.042,0.316,-5.337
0.177,0.040,0.317,-5.337
0.183,0.039,0.314,-5.337
0.247,0.038,0.315,-5.337
0.280,0.038,0.318,-5.337
0.227,0.039,0.319,-5.337
0.132,0.043,0.318,-5.337
0.111,0.042,0.317,-5.337
0.253,0.038,0.313,-5.337
0.366,0.038,0.316,-5.337
0.317,0.042,0.321,-5.337
0.262,0.042,0.320,-5.337
0.178,0.043,0.317,-5.337
0.119,0.044,0.321,-5.337
0.160,0.038,0.321,-5.337
0.227,0.036,0.320,-5.337
0.242,0.039,0.317,-5.337
0.195,0.041,0.314,-5.337
0.118,0.040,0.310,-5.337
0.157,0.040,0.306,-5.337
0.180,0.039,0.309,-5.337
0.132,0.042,0.316,-5.337
0.130,0.042,0.322,-5.337
0.135,0.042,0.322,-5.337
0.191,0.040,0.320,-5.337
0.242,0.039,0.316,-5.337
0.252,0.037,0.316,-5.337
0.226,0.035,0.318,-5.337
0.211,0.035,0.322,-5.337
0.212,0.034,0.321,-5.337
0.253,0.030,0.319,-5.337
0.295,0.030,0.317,-5.337
0.295,0.037,0.318,-5.337
0.308,0.035,0.317,-5.337
0.278,0.032,0.316,-5.337
0.182,0.033,0.317,-5.337
0.195,0.034,0.316,-5.337
0.207,0.034,0.316,-5.337
0.173,0.037,0.318,-5.337
0.119,0.037,0.318,-5.337
0.168,0.034,0.313,-5.337
0.205,0.037,0.313,-5.337
0.194,0.036,0.315,-5.337
0.198,0.034,0.320,-5.337
0.213,0.035,0.319,-5.337
0.270,0.032,0.318,-5.337
0.299,0.032,0.317,-5.337
0.205,0.035,0.320,-5.337
0.158,0.038,0.314,-5.337
0.162,0.038,0.313,-5.337
0.194,0.036,0.316,-5.337
0.254,0.032,0.320,-5.337
0.332,0.027,0.322,-5.337
0.267,0.029,0.320,-5.337
0.171,0.027,0.321,-5.337
0.272,0.024,0.319,-5.337
0.292,0.027,0.319,-5.337
0.203,0.031,0.324,-5.337
0.209,0.029,0.321,-5.337
0.275,0.028,0.317,-5.337
0.217,0.030,0.314,-5.337
0.188,0.030,0.315,-5.337
0.163,0.030,0.317,-5.337
0.178,0.030,0.315,-5.337
0.201,0.032,0.313,-5.337
0.247,0.029,0.315,-5.337
0.202,0.032,0.321,-5.337
0.137,0.034,0.320,-5.337
0.172,0.033,0.319,-5.337
0.219,0.031,0.320,-5.337
0.220,0.030,0.320,-5.337
0.230,0.032,0.315,-5.337
0.261,0.032,0.313,-5.337
0.279,0.032,0.314,-5.337
0.207,0.034,0.316,-5.337
0.085,0.034,0.316,-5.337
0.106,0.035,0.315,-5.337
0.221,0.034,0.316,-5.337
0.237,0.034,0.322,-5.337
0.179,0.038,0.322,-5.337
0.224,0.036,0.320,-5.337
0.239,0.033,0.318,-5.337
0.188,0.032,0.316,-5.337
0.133,0.031,0.317,-5.337
0.115,0.030,0.317,-5.337
0.183,0.028,0.321,-5.337
0.205,0.028,0.320,-5.337
0.161,0.028,0.319,-5.337
0.180,0.027,0.316,-5.337
0.161,0.026,0.312,-5.337
0.162,0.029,0.314,-5.337
0.197,0.031,0.316,-5.337
0.221,0.035,0.317,-5.337
0.254,0.036,0.323,-5.337
0.300,0.036,0.321,-5.337
0.266,0.035,0.321,-5.337
0.267,0.030,0.319,-5.337
0.245,0.032,0.319,-5.337
0.223,0.031,0.319,-5.337
0.235,0.029,0.317,-5.337
0.255,0.031,0.318,-5.337
0.215,0.032,0.320,-5.337
0.178,0.033,0.321,-5.337
0.227,0.027,0.319,-5.337
0.227,0.027,0.317,-5.337
0.183,0.030,0.311,-5.337
0.191,0.030,0.309,-5.337
0.203,0.031,0.311,-5.337
0.207,0.031,0.317,-5.337
0.268,0.030,0.319,-5.337
0.293,0.027,0.321,-5.337
0.226,0.030,0.317,-5.337
0.255,0.029,0.317,-5.337
0.273,0.027,0.319,-5.337
0.294,0.025,0.319,-5.337
0.266,0.029,0.317,-5.337
0.191,0.032,0.322,-5.337
0.195,0.031,0.321,-5.337
0.162,0.031,0.317,-5.337
0.143,0.031,0.315,-5.337
0.121,0.029,0.318,-5.337
0.173,0.028,0.318,-5.337
0.225,0.028,0.321,-5.337
0.221,0.026,0.321,-5.337
0.192,0.033,0.316,-5.337
0.159,0.032,0.309,-5.337
0.203,0.032,0.309,-5.337
0.184,0.032,0.315,-5.337
0.177,0.031,0.318,-5.337
0.215,0.032,0.318,-5.337
0.214,0.033,0.319,-5.337
0.224,0.033,0.320,-5.337
0.222,0.031,0.315,-5.337
0.214,0.034,0.314,-5.337
0.143,0.033,0.312,-5.337
0.175,0.030,0.316,-5.337
0.258,0.033,0.320,-5.337
0.202,0.037,0.322,-5.337
0.197,0.037,0.317,-5.337
0.224,0.032,0.316,-5.337
0.186,0.029,0.316,-5.337
0.211,0.032,0.315,-5.337
0.288,0.030,0.314,-5.337
0.326,0.031,0.315,-5.337
0.291,0.028,0.319,-5.337
0.224,0.029,0.323,-5.337
0.210,0.029,0.321,-5.337
0.200,0.031,0.319,-5.337
0.158,0.032,0.317,-5.337
0.156,0.031,0.315,-5.337
0.229,0.029,0.314,-5.337
0.251,0.028,0.316,-5.337
0.221,0.028,0.318,-5.337
0.190,0.030,0.318,-5.337
0.172,0.030,0.317,-5.337
0.181,0.028,0.316,-5.337
0.180,0.027,0.317,-5.337
0.188,0.029,0.319,-5.337
0.187,0.027,0.318,-5.337
0.233,0.026,0.316,-5.337
0.322,0.028,0.315,-5.337
0.313,0.029,0.315,-5.337
0.350,0.027,0.317,-5.337
0.308,0.027,0.317,-5.337
0.242,0.028,0.317,-5.337
0.156,0.025,0.318,-5.337
0.199,0.025,0.321,-5.337
0.195,0.027,0.321,-5.337
0.205,0.031,0.320,-5.337
0.175,0.034,0.317,-5.337
0.115,0.034,0.313,-5.337
0.150,0.031,0.312,-5.337
0.216,0.034,0.314,-5.337
0.133,0.037,0.318,-5.337
0.142,0.034,0.318,-5.337
0.221,0.031,0.316,-5.337
0.194,0.035,0.314,-5.337
0.167,0.035,0.316,-5.337
0.123,0.036,0.317,-5.337
0.231,0.031,0.317,-5.337
0.303,0.033,0.317,-5.337
0.234,0.032,0.322,-5.337
0.184,0.032,0.322,-5.337
0.167,0.032,0.320,-5.337
0.162,0.032,0.311,-5.337
0.186,0.034,0.314,-5.337
0.219,0.038,0.318,-5.337
0.228,0.037,0.321,-5.337
0.205,0.036,0.319,-5.337
0.148,0.036,0.319,-5.337
0.127,0.039,0.318,-5.337
0.122,0.037,0.317,-5.337
0.168,0.035,0.319,-5.337
0.230,0.031,0.319,-5.337
0.250,0.034,0.316,-5.337
0.217,0.039,0.316,-5.337
0.212,0.039,0.316,-5.337
0.255,0.038,0.314,-5.337
0.300,0.037,0.312,-5.337
0.225,0.041,0.314,-5.337
0.168,0.042,0.316,-5.337
0.114,0.042,0.315,-5.337
0.110,0.041,0.318,-5.337
0.125,0.040,0.319,-5.337
0.164,0.038,0.321,-5.337
0.243,0.035,0.320,-5.337
0.278,0.040,0.319,-5.337
0.190,0.044,0.317,-5.337
0.144,0.044,0.318,-5.337
0.121,0.043,0.317,-5.337
0.139,0.042,0.319,-5.337
0.099,0.039,0.321,-5.337
0.191,0.036,0.324,-5.337
0.210,0.037,0.323,-5.337
0.188,0.038,0.321,-5.337
0.148,0.040,0.320,-5.337
0.104,0.043,0.320,-5.337
0.113,0.045,0.319,-5.337
0.173,0.043,0.317,-5.337
0.240,0.038,0.314,-5.337
0.305,0.037,0.316,-5.337
0.228,0.038,0.322,-5.337
0.123,0.039,0.322,-5.337
0.178,0.038,0.319,-5.337
0.234,0.041,0.317,-5.337
0.228,0.039,0.319,-5.337
0.252,0.040,0.318,-5.337
0.196,0.039,0.317,-5.337
0.208,0.037,0.313,-5.337
0.206,0.039,0.313,-5.337
0.085,0.045,0.317,-5.337
0.064,0.049,0.320,-5.337
0.105,0.047,0.320,-5.337
0.153,0.046,0.320,-5.337
0.185,0.043,0.319,-5.337
0.208,0.044,0.320,-5.337
0.164,0.040,0.321,-5.337
0.186,0.039,0.321,-5.337
0.214,0.039,0.317,-5.337
0.177,0.043,0.318,-5.337
0.137,0.044,0.319,-5.337
0.181,0.037,0.318,-5.337
0.249,0.037,0.317,-5.337
0.216,0.042,0.316,-5.337
0.157,0.045,0.314,-5.337
0.107,0.045,0.316,-5.337
0.133,0.041,0.319,-5.337
0.116,0.043,0.320,-5.337
0.143,0.046,0.318,-5.337
0.097,0.045,0.319,-5.337
0.123,0.045,0.319,-5.337
0.185,0.044,0.318,-5.337
0.175,0.046,0.315,-5.337
0.105,0.047,0.316,-5.337
0.104,0.049,0.318,-5.337
0.165,0.049,0.315,-5.337
0.175,0.049,0.315,-5.337
0.170,0.047,0.311,-5.337
0.226,0.048,0.313,-5.337
0.283,0.047,0.318,-5.337
0.233,0.049,0.325,-5.337
0.189,0.046,0.323,-5.337
0.245,0.045,0.318,-5.337
0.307,0.045,0.316,-5.337
0.179,0.046,0.316,-5.337
0.119,0.046,0.317,-5.337
0.127,0.048,0.314,-5.337
0.210,0.048,0.313,-5.337
0.279,0.047,0.317,-5.337
0.218,0.051,0.320,-5.337
0.248,0.053,0.320,-5.337
0.270,0.052,0.319,-5.337
0.225,0.050,0.319,-5.337
0.240,0.047,0.321,-5.337
0.276,0.045,0.319,-5.337
0.253,0.048,0.318,-5.337
0.228,0.051,0.313,-5.337
0.215,0.050,0.310,-5.337
0.190,0.047,0.314,-5.337
0.179,0.052,0.317,-5.337
0.201,0.051,0.318,-5.337
0.155,0.058,0.319,-5.337
0.201,0.053,0.317,-5.337
0.269,0.050,0.317,-5.337
0.232,0.053,0.314,-5.337
0.131,0.057,0.317,-5.337
0.124,0.058,0.321,-5.337
0.189,0.053,0.321,-5.337
0.191,0.054,0.318,-5.337
0.183,0.052,0.317,-5.337
0.233,0.051,0.317,-5.337
0.286,0.051,0.316,-5.337
0.181,0.056,0.315,-5.337
0.144,0.054,0.313,-5.337
0.190,0.055,0.315,-5.337
0.237,0.056,0.316,-5.337
0.228,0.060,0.316,-5.337
0.155,0.058,0.314,-5.337
0.141,0.057,0.317,-5.337
0.156,0.059,0.318,-5.337
0.146,0.060,0.320,-5.337
0.189,0.056,0.321,-5.337
0.207,0.054,0.316,-5.337
0.231,0.050,0.312,-5.337
0.209,0.052,0.312,-5.337
0.254,0.051,0.315,-5.337
0.222,0.052,0.312,-5.337
0.155,0.051,0.310,-5.337
0.166,0.049,0.312,-5.337
0.190,0.051,0.314,-5.337
0.209,0.055,0.314,-5.337
0.173,0.055,0.316,-5.337
0.148,0.052,0.319,-5.337
0.201,0.053,0.317,-5.337
0.255,0.055,0.315,-5.337
0.272,0.054,0.317,-5.337
0.243,0.054,0.320,-5.337
0.154,0.054,0.320,-5.337
0.134,0.051,0.318,-5.337
0.194,0.048,0.313,-5.337
0.229,0.050,0.312,-5.337
0.159,0.057,0.317,-5.337
0.184,0.055,0.318,-5.337
0.202,0.050,0.318,-5.337
0.149,0.051,0.318,-5.337
0.136,0.055,0.322,-5.337
0.172,0.054,0.322,-5.337
0.218,0.054,0.320,-5.337
0.204,0.053,0.321,-5.337
0.222,0.053,0.321,-5.337
0.273,0.054,0.320,-5.337
0.159,0.056,0.318,-5.337
0.092,0.050,0.317,-5.337
0.207,0.049,0.317,-5.337
0.275,0.049,0.317,-5.337
0.221,0.052,0.314,-5.337
0.222,0.049,0.310,-5.337
0.254,0.047,0.311,-5.337
0.313,0.046,0.316,-5.337
0.249,0.046,0.320,-5.337
0.207,0.049,0.323,-5.337
0.162,0.051,0.321,-5.337
0.101,0.052,0.318,-5.337
0.098,0.052,0.316,-5.337
0.125,0.055,0.318,-5.337
0.167,0.054,0.318,-5.337
0.174,0.054,0.318,-5.337
0.177,0.055,0.316,-5.337
0.206,0.055,0.313,-5.337
0.208,0.049,0.310,-5.337
0.224,0.051,0.313,-5.337
0.238,0.056,0.315,-5.337
0.225,0.060,0.316,-5.337
0.224,0.057,0.317,-5.337
0.250,0.054,0.321,-5.337
0.237,0.053,0.319,-5.337
0.245,0.055,0.317,-5.337
0.289,0.059,0.318,-5.337
0.259,0.060,0.321,-5.337
0.197,0.058,0.318,-5.337
0.225,0.057,0.315,-5.337
0.207,0.058,0.315,-5.337
0.190,0.060,0.317,-5.337
0.207,0.056,0.319,-5.337
0.240,0.053,0.314,-5.337
0.226,0.054,0.313,-5.337
0.222,0.053,0.315,-5.337
0.220,0.055,0.315,-5.337
0.180,0.055,0.314,-5.337
0.122,0.056,0.318,-5.337
0.128,0.055,0.319,-5.337
0.128,0.061,0.319,-5.337
0.098,0.059,0.319,-5.337
0.194,0.055,0.320,-5.337
0.200,0.058,0.320,-5.337
0.189,0.060,0.322,-5.337
0.223,0.060,0.321,-5.337
0.305,0.057,0.317,-5.337
0.289,0.059,0.313,-5.337
0.187,0.061,0.313,-5.337
0.118,0.061,0.316,-5.337
0.150,0.062,0.322,-5.337
0.187,0.060,0.323,-5.337
0.188,0.062,0.323,-5.337
0.094,0.061,0.324,-5.337
0.064,0.058,0.322,-5.337
0.040,0.057,0.317,-5.337
0.098,0.058,0.316,-5.337
0.235,0.058,0.320,-5.337
0.241,0.060,0.316,-5.337
0.156,0.063,0.313,-5.337
0.134,0.064,0.312,-5.337
0.112,0.063,0.315,-5.337
0.136,0.056,0.315,-5.337
0.165,0.054,0.314,-5.337
0.198,0.056,0.314,-5.337
0.228,0.058,0.315,-5.337
0.270,0.054,0.317,-5.337
0.302,0.057,0.318,-5.337
0.259,0.061,0.317,-5.337
0.261,0.059,0.315,-5.337
0.267,0.061,0.314,-5.337
0.237,0.057,0.315,-5.337
0.241,0.055,0.318,-5.337
0.228,0.062,0.321,-5.337
0.149,0.062,0.323,-5.337
0.116,0.055,0.322,-5.337
0.148,0.052,0.319,-5.337
0.187,0.052,0.314,-5.337
0.250,0.054,0.311,-5.337
0.292,0.055,0.311,-5.337
0.257,0.056,0.314,-5.337
0.196,0.054,0.314,-5.337
0.260,0.058,0.315,-5.337
0.270,0.057,0.316,-5.337
0.218,0.054,0.320,-5.337
0.172,0.053,0.318,-5.337
0.150,0.055,0.317,-5.337
0.170,0.055,0.318,-5.337
0.195,0.052,0.319,-5.337
0.165,0.052,0.315,-5.337
0.152,0.052,0.311,-5.337
0.131,0.053,0.316,-5.337
0.173,0.052,0.319,-5.337
0.273,0.050,0.316,-5.337
0.256,0.050,0.311,-5.337
0.183,0.053,0.311,-5.337
0.204,0.051,0.316,-5.337
0.245,0.050,0.318,-5.337
0.202,0.050,0.318,-5.337
0.196,0.053,0.317,-5.337
0.223,0.054,0.318,-5.337
0.167,0.059,0.318,-5.337
0.115,0.056,0.317,-5.337
0.163,0.053,0.319,-5.337
0.241,0.050,0.319,-5.337
0.262,0.052,0.319,-5.337
0.142,0.052,0.318,-5.337
0.146,0.051,0.317,-5.337
0.209,0.048,0.319,-5.337
0.246,0.053,0.320,-5.337
0.184,0.055,0.318,-5.337
0.282,0.053,0.320,-5.337
0.358,0.052,0.319,-5.337
0.285,0.055,0.316,-5.337
0.201,0.057,0.314,-5.337
0.173,0.054,0.315,-5.337
0.207,0.052,0.317,-5.337
0.274,0.051,0.320,-5.337
0.313,0.050,0.320,-5.337
0.356,0.046,0.316,-5.337
0.254,0.045,0.315,-5.337
0.119,0.051,0.317,-5.337
0.098,0.049,0.321,-5.337
0.163,0.043,0.321,-5.337
0.239,0.042,0.318,-5.337
0.212,0.044,0.318,-5.337
0.254,0.043,0.319,-5.337
0.216,0.044,0.317,-5.337
0.249,0.042,0.313,-5.337
0.302,0.042,0.312,-5.337
0.291,0.048,0.315,-5.337
0.240,0.046,0.317,-5.337
0.173,0.046,0.318,-5.337
0.129,0.048,0.316,-5.337
0.148,0.049,0.315,-5.337
0.160,0.047,0.317,-5.337
0.137,0.048,0.318,-5.337
0.148,0.048,0.319,-5.337
0.117,0.049,0.318,-5.337
0.154,0.049,0.319,-5.337
0.211,0.046,0.319,-5.337
0.253,0.045,0.316,-5.337
0.186,0.047,0.312,-5.337
0.129,0.048,0.317,-5.337
0.230,0.044,0.322,-5.337
0.301,0.046,0.323,-5.337
0.266,0.047,0.321,-5.337
0.203,0.050,0.324,-5.337
0.221,0.046,0.321,-5.337
0.250,0.048,0.319,-5.337
0.231,0.043,0.316,-5.337
0.275,0.045,0.319,-5.337
0.276,0.044,0.320,-5.337
0.220,0.045,0.324,-5.337
0.185,0.043,0.323,-5.337
0.197,0.042,0.320,-5.337
0.149,0.040,0.319,-5.337
0.197,0.040,0.321,-5.337
0.327,0.039,0.323,-5.337
0.310,0.040,0.324,-5.337
0.238,0.043,0.321,-5.337
0.167,0.045,0.318,-5.337
0.180,0.045,0.316,-5.337
0.191,0.044,0.314,-5.337
0.162,0.046,0.312,-5.337
0.180,0.042,0.314,-5.337
0.167,0.041,0.317,-5.337
0.133,0.040,0.320,-5.337
0.189,0.036,0.324,-5.337
0.305,0.037,0.322,-5.337
0.275,0.042,0.322,-5.337
0.131,0.048,0.320,-5.337
0.066,0.048,0.321,-5.337
0.188,0.043,0.322,-5.337
0.273,0.043,0.321,-5.337
0.192,0.045,0.316,-5.337
0.157,0.047,0.316,-5.337
0.161,0.045,0.317,-5.337
0.190,0.041,0.318,-5.337
0.201,0.037,0.317,-5.337
0.135,0.040,0.313,-5.337
0.081,0.039,0.311,-5.337
0.182,0.037,0.312,-5.337
0.246,0.036,0.319,-5.337
0.221,0.039,0.323,-5.337
0.189,0.039,0.322,-5.337
0.187,0.037,0.318,-5.337
0.294,0.036,0.316,-5.337
0.308,0.040,0.314,-5.337
0.201,0.043,0.315,-5.337
0.155,0.039,0.318,-5.337
0.196,0.038,0.321,-5.337
0.180,0.042,0.322,-5.337
0.135,0.042,0.324,-5.337
0.080,0.042,0.327,-5.337
0.081,0.043,0.327,-5.337
0.151,0.041,0.323,-5.337
0.215,0.038,0.320,-5.337
0.258,0.035,0.314,-5.337
0.264,0.039,0.314,-5.337
0.174,0.042,0.318,-5.337
0.143,0.039,0.318,-5.337
0.164,0.035,0.313,-5.337
0.224,0.036,0.313,-5.337
0.193,0.037,0.316,-5.337
0.206,0.037,0.318,-5.337
0.286,0.035,0.318,-5.337
0.284,0.038,0.321,-5.337
0.228,0.040,0.322,-5.337
0.167,0.039,0.320,-5.337
0.136,0.042,0.318,-5.337
0.143,0.040,0.318,-5.337
0.189,0.038,0.318,-5.337
0.261,0.040,0.316,-5.337
0.217,0.039,0.315,-5.337
0.152,0.039,0.315,-5.337
0.120,0.038,0.317,-5.337
0.145,0.039,0.318,-5.337
0.196,0.042,0.319,-5.337
0.266,0.036,0.321,-5.337
0.265,0.039,0.323,-5.337
0.132,0.039,0.323,-5.337
0.162,0.038,0.320,-5.337
0.267,0.037,0.315,-5.337
0.214,0.038,0.313,-5.337
0.162,0.042,0.315,-5.337
0.178,0.041,0.318,-5.337
0.184,0.037,0.320,-5.337
0.179,0.037,0.319,-5.337
0.201,0.038,0.315,-5.337
0.171,0.041,0.315,-5.337
0.233,0.039,0.315,-5.337
0.246,0.041,0.320,-5.337
0.210,0.040,0.322,-5.337
0.178,0.036,0.316,-5.337
0.277,0.036,0.314,-5.337
0.260,0.036,0.318,-5.337
0.196,0.035,0.321,-5.337
0.135,0.034,0.318,-5.337
0.137,0.032,0.320,-5.337
0.132,0.037,0.323,-5.337
0.130,0.037,0.321,-5.337
0.163,0.035,0.318,-5.337
0.180,0.037,0.317,-5.337
0.269,0.036,0.315,-5.337
0.349,0.032,0.315,-5.337
0.324,0.031,0.316,-5.337
0.235,0.037,0.320,-5.337
0.228,0.038,0.319,-5.337
0.269,0.038,0.317,-5.337
0.255,0.036,0.314,-5.337
0.209,0.036,0.315,-5.337
0.194,0.036,0.318,-5.337
0.219,0.036,0.321,-5.337
0.238,0.037,0.323,-5.337
0.224,0.034,0.319,-5.337
0.235,0.036,0.316,-5.337
0.293,0.036,0.317,-5.337
0.266,0.035,0.318,-5.337
0.185,0.036,0.318,-5.337
0.204,0.036,0.321,-5.337
0.249,0.037,0.321,-5.337
0.197,0.035,0.318,-5.337
0.084,0.037,0.317,-5.337
0.120,0.038,0.315,-5.337
0.244,0.036,0.313,-5.337
0.254,0.036,0.314,-5.337
0.146,0.035,0.316,-5.337
0.131,0.037,0.317,-5.337
0.203,0.038,0.315,-5.337
0.166,0.039,0.315,-5.337
0.150,0.033,0.317,-5.337
0.196,0.029,0.319,-5.337
0.199,0.033,0.322,-5.337
0.227,0.034,0.323,-5.337
0.260,0.030,0.324,-5.337
0.259,0.031,0.321,-5.337
0.230,0.034,0.320,-5.337
0.230,0.034,0.319,-5.337
0.188,0.033,0.319,-5.337
0.203,0.031,0.316,-5.337
0.256,0.031,0.315,-5.337
0.338,0.032,0.315,-5.337
0.292,0.034,0.317,-5.337
0.232,0.036,0.320,-5.337
0.205,0.035,0.322,-5.337
0.239,0.036,0.320,-5.337
0.284,0.036,0.322,-5.337
0.269,0.034,0.321,-5.337
0.197,0.035,0.322,-5.337
0.191,0.035,0.316,-5.337
0.179,0.037,0.311,-5.337
0.112,0.038,0.312,-5.337
0.180,0.038,0.313,-5.337
0.224,0.034,0.318,-5.337
0.216,0.032,0.319,-5.337
0.196,0.033,0.320,-5.337
0.174,0.032,0.325,-5.337
0.224,0.030,0.327,-5.337
0.258,0.032,0.321,-5.337
0.258,0.036,0.318,-5.337
0.215,0.037,0.321,-5.337
0.240,0.034,0.321,-5.337
0.284,0.032,0.314,-5.337
0.291,0.033,0.314,-5.337
0.292,0.029,0.318,-5.337
0.254,0.030,0.321,-5.337
0.179,0.035,0.318,-5.337
0.158,0.038,0.317,-5.337
0.169,0.037,0.314,-5.337
0.227,0.038,0.313,-5.337
0.194,0.037,0.314,-5.337
0.107,0.036,0.317,-5.337
0.119,0.036,0.318,-5.337
0.097,0.038,0.319,-5.337
0.175,0.032,0.318,-5.337
0.273,0.032,0.315,-5.337
0.227,0.035,0.315,-5.337
0.077,0.043,0.319,-5.337
0.035,0.038,0.322,-5.337
0.149,0.037,0.324,-5.337
0.228,0.037,0.318,-5.337
0.187,0.036,0.316,-5.337
0.177,0.035,0.318,-5.337
0.159,0.036,0.317,-5.337
0.131,0.037,0.317,-5.337
0.204,0.034,0.319,-5.337
0.267,0.032,0.322,-5.337
0.236,0.037,0.318,-5.337
0.208,0.036,0.316,-5.337
0.292,0.031,0.315,-5.337
0.337,0.031,0.319,-5.337
0.250,0.034,0.322,-5.337
0.242,0.031,0.319,-5.337
0.293,0.031,0.316,-5.337
0.260,0.035,0.314,-5.337
0.200,0.035,0.313,-5.337
0.264,0.035,0.316,-5.337
0.265,0.038,0.320,-5.337
0.173,0.041,0.321,-5.337
0.160,0.039,0.319,-5.337
0.158,0.038,0.321,-5.337
0.159,0.037,0.319,-5.337
0.213,0.035,0.315,-5.337
0.200,0.038,0.314,-5.337
0.174,0.038,0.318,-5.337
0.126,0.037,0.320,-5.337
0.180,0.036,0.315,-5.337
0.162,0.037,0.310,-5.337
0.119,0.040,0.307,-5.337
0.106,0.042,0.307,-5.337
0.133,0.040,0.312,-5.337
0.201,0.038,0.320,-5.337
0.238,0.040,0.323,-5.337
0.235,0.041,0.323,-5.337
0.240,0.039,0.320,-5.337
0.202,0.042,0.317,-5.337
0.213,0.042,0.314,-5.337
0.221,0.045,0.318,-5.337
0.253,0.045,0.318,-5.337
0.285,0.046,0.315,-5.337
0.212,0.046,0.313,-5.337
0.174,0.043,0.313,-5.337
0.290,0.039,0.317,-5.337
0.283,0.038,0.319,-5.337
0.249,0.039,0.316,-5.337
0.208,0.043,0.314,-5.337
0.075,0.046,0.314,-5.337
0.062,0.046,0.318,-5.337
0.152,0.042,0.319,-5.337
0.184,0.041,0.320,-5.337
0.131,0.041,0.317,-5.337
0.132,0.040,0.315,-5.337
0.228,0.038,0.314,-5.337
0.308,0.043,0.317,-5.337
0.199,0.044,0.321,-5.337
0.118,0.043,0.319,-5.337
0.178,0.042,0.319,-5.337
0.215,0.043,0.317,-5.337
0.241,0.046,0.316,-5.337
0.182,0.045,0.315,-5.337
0.164,0.042,0.316,-5.337
0.239,0.038,0.318,-5.337
0.254,0.042,0.317,-5.337
0.177,0.044,0.318,-5.337
0.161,0.045,0.318,-5.337
0.226,0.043,0.319,-5.337
0.233,0.043,0.320,-5.337
0.255,0.043,0.320,-5.337
0.235,0.045,0.318,-5.337
0.162,0.048,0.317,-5.337
0.129,0.045,0.312,-5.337
0.151,0.043,0.310,-5.337
0.172,0.044,0.314,-5.337
0.172,0.045,0.321,-5.337
0.146,0.044,0.320,-5.337
0.132,0.045,0.317,-5.337
0.106,0.046,0.315,-5.337
0.124,0.046,0.319,-5.337
0.211,0.045,0.320,-5.337
0.250,0.045,0.316,-5.337
0.232,0.045,0.315,-5.337
0.140,0.046,0.315,-5.337
0.115,0.044,0.319,-5.337
0.168,0.044,0.322,-5.337
0.197,0.043,0.322,-5.337
0.146,0.046,0.321,-5.337
0.134,0.048,0.321,-5.337
0.132,0.044,0.322,-5.337
0.190,0.039,0.317,-5.337
0.221,0.041,0.315,-5.337
0.176,0.045,0.315,-5.337
0.236,0.044,0.319,-5.337
0.248,0.042,0.323,-5.337
0.251,0.040,0.321,-5.337
0.220,0.041,0.315,-5.337
0.229,0.044,0.314,-5.337
0.223,0.041,0.317,-5.337
0.222,0.042,0.317,-5.337
0.219,0.042,0.318,-5.337
0.212,0.040,0.318,-5.337
0.296,0.039,0.322,-5.337
0.336,0.039,0.320,-5.337
0.210,0.040,0.318,-5.337
0.148,0.040,0.315,-5.337
0.193,0.040,0.317,-5.337
0.162,0.040,0.315,-5.337
0.134,0.044,0.315,-5.337
0.141,0.042,0.316,-5.337
0.194,0.041,0.318,-5.337
0.182,0.042,0.318,-5.337
0.178,0.042,0.320,-5.337
0.230,0.041,0.321,-5.337
0.197,0.046,0.320,-5.337
0.139,0.048,0.320,-5.337
0.152,0.045,0.319,-5.337
0.194,0.043,0.318,-5.337
0.241,0.043,0.319,-5.337
0.232,0.042,0.319,-5.337
0.248,0.044,0.317,-5.337
0.199,0.047,0.316,-5.337
0.227,0.046,0.315,-5.337
0.278,0.045,0.316,-5.337
0.316,0.043,0.315,-5.337
0.237,0.045,0.319,-5.337
0.195,0.051,0.317,-5.337
0.200,0.048,0.315,-5.337
0.230,0.045,0.315,-5.337
0.244,0.048,0.318,-5.337
0.197,0.052,0.316,-5.337
0.124,0.056,0.313,-5.337
