[Parameters]
Operating Mode, Feedback
Subject  AA..ZZ, WT
Session  0..99, 42
No. Trials (1..9999), 500
Mouse Number, 1
Pressure Probe Serial Port, \00\00\00\04COM4
Save additional csv file, TRUE
Save using mouse number, FALSE
A/D Monitor Rate (Hz), 30000.000000
A/D Stimulate Rate (Hz), 30000.000000
A/D input range (+/- V), 5
No. Channels to acquire (N), 2
Pre-Stim Acq. time (ms), 100.000000
Post-Stim Acq. time (ms), 900.000000
Analysis window parameters.M-response Start (ms), 1.100000
Analysis window parameters.M-response Duration (ms), 5.500000
Analysis window parameters.H-response Duration (ms), 6.000000
Analysis window parameters.H-response Start (ms), 6.500000
Feedback window, H response
Proportional gain, 0.100000
Target value, 6.700000
Feedback Ch., 1
Stim Channel to Control (1-4), 4
Trial, 23
Wait for EMG Conditions, FALSE
Channel to monitor (0 - N-1), 1
EMG Hi Limit, 2.000000
EMG Lo Limit, 0.001000
Inter-Stim delay (sec), 10.000000
EMG Monitor Mode, Mean
Time to run Long Stim.(sec), 30
Save Long Stim Data?, OFF
BURST Save time (ms), 1000
BURST Save Interval (x above), 10
Long-Stim. Rep. Rate (Hz), 10.000000
Stim type cluster array.<size(s)>, 4
Stim type cluster array 0.Stimulus Output, Electrical
Stim type cluster array 1.Stimulus Output, OFF
Stim type cluster array 2.Stimulus Output, OFF
Stim type cluster array 3.Stimulus Output, Motor Length
Stim specs cluster array.<size(s)>, 4
Stim specs cluster array 0.Initial Stimulus ampl., 0.300000
Stim specs cluster array 0.Maximum Stimulus, 1.120000
Stim specs cluster array 0.#Pulses in train, 4
Stim specs cluster array 0.Peak Level time (ms), 1.000000
Stim specs cluster array 0.Total pulse period (ms), 150.000000
Stim specs cluster array 0.Start Delay (ms), -50.000000
Stim specs cluster array 0.Pulse Shape, Square
Stim specs cluster array 0.Ramp/Rel. time (ms), 0.100000
Stim specs cluster array 0.Peak Amplitude (V), 0.120000
Stim specs cluster array 1.Initial Stimulus ampl., 0.000000
Stim specs cluster array 1.Maximum Stimulus, 0.000000
Stim specs cluster array 1.#Pulses in train, 3
Stim specs cluster array 1.Peak Level time (ms), 29.000000
Stim specs cluster array 1.Total pulse period (ms), 200.000000
Stim specs cluster array 1.Start Delay (ms), 0.000000
Stim specs cluster array 1.Pulse Shape, Square
Stim specs cluster array 1.Ramp/Rel. time (ms), 0.000000
Stim specs cluster array 1.Peak Amplitude (V), 2.000000
Stim specs cluster array 2.Initial Stimulus ampl., 0.000000
Stim specs cluster array 2.Maximum Stimulus, 0.000000
Stim specs cluster array 2.#Pulses in train, 1
Stim specs cluster array 2.Peak Level time (ms), 25.000000
Stim specs cluster array 2.Total pulse period (ms), 200.000000
Stim specs cluster array 2.Start Delay (ms), 0.000000
Stim specs cluster array 2.Pulse Shape, Square
Stim specs cluster array 2.Ramp/Rel. time (ms), 20.000000
Stim specs cluster array 2.Peak Amplitude (V), 10.000000
Stim specs cluster array 3.Initial Stimulus ampl., 0.000000
Stim specs cluster array 3.Maximum Stimulus, 20.000000
Stim specs cluster array 3.#Pulses in train, 25
Stim specs cluster array 3.Peak Level time (ms), 0.100000
Stim specs cluster array 3.Total pulse period (ms), 4.000000
Stim specs cluster array 3.Start Delay (ms), 205.000000
Stim specs cluster array 3.Pulse Shape, Triangle
Stim specs cluster array 3.Ramp/Rel. time (ms), 3.000000
Stim specs cluster array 3.Peak Amplitude (V), 0.500000
Force cal. (mN/Volt), 100.000000
Force Range (mN), 100.000000
Length cal. (mm/Volt), 10.000000
Length Range (mm), 10.000000
Stim. 1, 0.300000
Stim. 2, 0.000000
Stim. 3, 0.000000
Stim. 4, 0.000000
Monitor acquire time (ms), 100.000000
EMG graph Ymax, 0.100000
Travel limit (mm), 20.000000
Use Pressure Probe, FALSE
Pressure goal (g), 100
Speed (mm/sec), 5.000000
Dwell time (ms), 100.000000
Pressure limit (g), 500.000000
Channel amplitude offset, 0.000000

[DATA]

0.124,0.040,0.326,-5.337
0.140,0.034,0.325,-5.337
0.172,0.037,0.331,-5.337
0.169,0.038,0.335,-5.337
0.179,0.037,0.331,-5.337
0.222,0.035,0.329,-5.337
0.250,0.034,0.329,-5.337
0.253,0.036,0.328,-5.337
0.243,0.033,0.329,-5.337
0.235,0.031,0.330,-5.337
0.265,0.033,0.328,-5.337
0.209,0.037,0.326,-5.337
0.133,0.036,0.326,-5.337
0.147,0.033,0.330,-5.337
0.247,0.028,0.332,-5.337
0.228,0.032,0.332,-5.337
0.129,0.036,0.328,-5.337
0.162,0.034,0.324,-5.337
0.196,0.034,0.325,-5.337
0.177,0.035,0.328,-5.337
0.178,0.034,0.327,-5.337
0.194,0.033,0.326,-5.337
0.210,0.032,0.327,-5.337
0.198,0.038,0.330,-5.337
0.173,0.035,0.325,-5.337
0.185,0.028,0.326,-5.337
0.252,0.029,0.329,-5.337
0.270,0.029,0.329,-5.337
0.289,0.029,0.325,-5.337
0.304,0.032,0.323,-5.337
0.247,0.037,0.327,-5.337
0.227,0.035,0.327,-5.337
0.200,0.033,0.326,-5.337
0.209,0.032,0.323,-5.337
0.236,0.029,0.325,-5.337
0.247,0.031,0.326,-5.337
0.239,0.032,0.326,-5.337
0.235,0.032,0.324,-5.337
0.203,0.035,0.324,-5.337
0.102,0.037,0.325,-5.337
0.123,0.037,0.331,-5.337
0.188,0.035,0.335,-5.337
0.179,0.035,0.331,-5.337
0.176,0.034,0.327,-5.337
0.198,0.035,0.327,-5.337
0.153,0.035,0.327,-5.337
0.139,0.036,0.328,-5.337
0.177,0.031,0.329,-5.337
0.197,0.029,0.329,-5.337
0.196,0.024,0.326,-5.337
0.251,0.024,0.327,-5.337
0.365,0.029,0.327,-5.337
0.325,0.031,0.327,-5.337
0.280,0.029,0.329,-5.337
0.299,0.029,0.327,-5.337
0.305,0.029,0.323,-5.337
0.276,0.031,0.321,-5.337
0.190,0.034,0.324,-5.337
0.171,0.034,0.326,-5.337
0.201,0.031,0.324,-5.337
0.186,0.034,0.323,-5.337
0.116,0.035,0.327,-5.337
0.186,0.031,0.330,-5.337
0.265,0.028,0.331,-5.337
0.286,0.026,0.329,-5.337
0.219,0.031,0.327,-5.337
0.204,0.033,0.328,-5.337
0.199,0.035,0.330,-5.337
0.182,0.036,0.328,-5.337
0.230,0.035,0.325,-5.337
0.247,0.036,0.326,-5.337
0.238,0.034,0.325,-5.337
0.238,0.029,0.321,-5.337
0.216,0.035,0.320,-5.337
0.149,0.039,0.322,-5.337
0.173,0.038,0.325,-5.337
0.177,0.035,0.328,-5.337
0.146,0.034,0.327,-5.337
0.189,0.032,0.327,-5.337
0.218,0.031,0.330,-5.337
0.150,0.031,0.332,-5.337
0.082,0.033,0.330,-5.337
0.171,0.032,0.327,-5.337
0.284,0.029,0.325,-5.337
0.237,0.034,0.328,-5.337
0.141,0.035,0.330,-5.337
0.122,0.038,0.328,-5.337
0.157,0.035,0.329,-5.337
0.201,0.033,0.331,-5.337
0.219,0.034,0.326,-5.337
0.199,0.036,0.321,-5.337
0.248,0.036,0.323,-5.337
0.246,0.033,0.327,-5.337
0.243,0.031,0.328,-5.337
0.238,0.030,0.327,-5.337
0.282,0.031,0.324,-5.337
0.322,0.031,0.319,-5.337
0.270,0.033,0.321,-5.337
0.149,0.036,0.329,-5.337
0.126,0.035,0.334,-5.337
0.189,0.031,0.330,-5.337
0.164,0.031,0.327,-5.337
0.084,0.035,0.325,-5.337
0.095,0.032,0.326,-5.337
0.164,0.030,0.328,-5.337
0.187,0.034,0.334,-5.337
0.198,0.033,0.336,-5.337
0.234,0.033,0.331,-5.337
0.247,0.030,0.321,-5.337
0.235,0.028,0.320,-5.337
0.221,0.028,0.323,-5.337
0.192,0.026,0.325,-5.337
0.260,0.026,0.324,-5.337
0.293,0.028,0.325,-5.337
0.300,0.028,0.326,-5.337
0.190,0.030,0.328,-5.337
0.166,0.031,0.328,-5.337
0.220,0.032,0.330,-5.337
0.185,0.032,0.329,-5.337
0.090,0.034,0.324,-5.337
0.062,0.033,0.323,-5.337
0.140,0.030,0.323,-5.337
0.143,0.031,0.326,-5.337
0.182,0.030,0.328,-5.337
0.227,0.026,0.330,-5.337
0.229,0.028,0.329,-5.337
0.146,0.032,0.325,-5.337
0.111,0.035,0.325,-5.337
0.176,0.032,0.329,-5.337
0.134,0.033,0.329,-5.337
0.069,0.032,0.328,-5.337
0.116,0.026,0.326,-5.337
0.127,0.027,0.326,-5.337
0.177,0.027,0.327,-5.337
0.153,0.033,0.327,-5.337
0.180,0.028,0.322,-5.337
0.217,0.025,0.322,-5.337
0.213,0.026,0.326,-5.337
0.185,0.027,0.326,-5.337
0.221,0.030,0.322,-5.337
0.206,0.030,0.321,-5.337
0.229,0.030,0.326,-5.337
0.303,0.033,0.329,-5.337
0.255,0.035,0.328,-5.337
0.206,0.035,0.324,-5.337
0.262,0.034,0.321,-5.337
0.245,0.035,0.321,-5.337
0.256,0.030,0.324,-5.337
0.264,0.028,0.324,-5.337
0.229,0.030,0.324,-5.337
0.143,0.030,0.323,-5.337
0.123,0.033,0.326,-5.337
0.173,0.032,0.326,-5.337
0.210,0.033,0.331,-5.337
0.156,0.032,0.329,-5.337
0.160,0.032,0.326,-5.337
0.267,0.027,0.325,-5.337
0.330,0.026,0.325,-5.337
0.227,0.028,0.326,-5.337
0.179,0.029,0.329,-5.337
0.253,0.028,0.325,-5.337
0.307,0.028,0.322,-5.337
0.262,0.028,0.324,-5.337
0.274,0.030,0.324,-5.337
0.279,0.032,0.322,-5.337
0.278,0.035,0.323,-5.337
0.213,0.040,0.325,-5.337
0.143,0.042,0.327,-5.337
0.151,0.040,0.327,-5.337
0.130,0.040,0.328,-5.337
0.097,0.040,0.325,-5.337
0.076,0.041,0.320,-5.337
0.106,0.042,0.321,-5.337
0.123,0.041,0.321,-5.337
0.215,0.037,0.322,-5.337
0.287,0.038,0.323,-5.337
0.284,0.038,0.325,-5.337
0.274,0.037,0.329,-5.337
0.232,0.042,0.333,-5.337
0.183,0.046,0.332,-5.337
0.196,0.047,0.326,-5.337
0.204,0.046,0.321,-5.337
0.123,0.049,0.319,-5.337
0.120,0.045,0.320,-5.337
0.211,0.042,0.326,-5.337
0.202,0.042,0.327,-5.337
0.216,0.041,0.330,-5.337
0.278,0.043,0.332,-5.337
0.251,0.045,0.330,-5.337
0.209,0.043,0.325,-5.337
0.202,0.046,0.324,-5.337
0.163,0.046,0.327,-5.337
0.228,0.042,0.325,-5.337
0.250,0.042,0.325,-5.337
0.164,0.044,0.325,-5.337
0.120,0.042,0.326,-5.337
0.169,0.042,0.328,-5.337
0.194,0.043,0.330,-5.337
0.174,0.045,0.330,-5.337
0.180,0.045,0.330,-5.337
0.151,0.043,0.328,-5.337
0.102,0.043,0.323,-5.337
0.113,0.042,0.321,-5.337
0.166,0.044,0.321,-5.337
0.165,0.043,0.321,-5.337
0.194,0.044,0.323,-5.337
0.204,0.044,0.328,-5.337
0.206,0.044,0.330,-5.337
0.207,0.048,0.327,-5.337
0.122,0.052,0.326,-5.337
0.152,0.051,0.328,-5.337
0.217,0.049,0.330,-5.337
0.194,0.050,0.330,-5.337
0.117,0.053,0.325,-5.337
0.083,0.050,0.321,-5.337
0.105,0.052,0.322,-5.337
0.151,0.049,0.324,-5.337
0.183,0.047,0.326,-5.337
0.219,0.043,0.329,-5.337
0.223,0.043,0.330,-5.337
0.164,0.045,0.330,-5.337
0.170,0.045,0.327,-5.337
0.206,0.042,0.324,-5.337
0.214,0.041,0.323,-5.337
0.211,0.042,0.324,-5.337
0.189,0.045,0.328,-5.337
0.183,0.047,0.328,-5.337
0.142,0.044,0.325,-5.337
0.193,0.045,0.324,-5.337
0.174,0.048,0.324,-5.337
0.185,0.048,0.327,-5.337
0.111,0.047,0.328,-5.337
0.075,0.048,0.326,-5.337
0.096,0.051,0.324,-5.337
0.104,0.050,0.325,-5.337
0.147,0.048,0.324,-5.337
0.222,0.050,0.324,-5.337
0.205,0.049,0.330,-5.337
0.180,0.049,0.329,-5.337
0.230,0.050,0.325,-5.337
0.335,0.050,0.322,-5.337
0.261,0.053,0.322,-5.337
0.132,0.051,0.321,-5.337
0.159,0.049,0.322,-5.337
0.249,0.049,0.324,-5.337
0.271,0.053,0.329,-5.337
0.210,0.057,0.328,-5.337
0.155,0.056,0.328,-5.337
0.098,0.058,0.326,-5.337
0.086,0.056,0.326,-5.337
0.175,0.054,0.322,-5.337
0.287,0.054,0.318,-5.337
0.329,0.054,0.316,-5.337
0.237,0.055,0.324,-5.337
0.149,0.055,0.334,-5.337
0.237,0.055,0.333,-5.337
0.311,0.056,0.328,-5.337
0.265,0.054,0.326,-5.337
0.217,0.051,0.328,-5.337
0.139,0.053,0.323,-5.337
0.175,0.053,0.320,-5.337
0.195,0.055,0.318,-5.337
0.183,0.058,0.320,-5.337
0.091,0.056,0.322,-5.337
0.108,0.053,0.326,-5.337
0.148,0.054,0.327,-5.337
0.204,0.052,0.326,-5.337
0.212,0.051,0.324,-5.337
0.187,0.051,0.325,-5.337
0.206,0.053,0.323,-5.337
0.164,0.054,0.322,-5.337
0.215,0.050,0.325,-5.337
0.226,0.053,0.327,-5.337
0.206,0.052,0.329,-5.337
0.209,0.054,0.329,-5.337
0.167,0.052,0.324,-5.337
0.202,0.049,0.325,-5.337
0.148,0.051,0.327,-5.337
0.089,0.054,0.326,-5.337
0.112,0.051,0.324,-5.337
0.190,0.050,0.322,-5.337
0.180,0.053,0.325,-5.337
0.139,0.051,0.327,-5.337
0.184,0.047,0.328,-5.337
0.274,0.044,0.327,-5.337
0.293,0.044,0.327,-5.337
0.280,0.045,0.322,-5.337
0.168,0.052,0.322,-5.337
0.167,0.048,0.324,-5.337
0.272,0.046,0.324,-5.337
0.279,0.048,0.326,-5.337
0.191,0.050,0.329,-5.337
0.179,0.049,0.330,-5.337
0.177,0.051,0.329,-5.337
0.178,0.050,0.326,-5.337
0.185,0.048,0.324,-5.337
0.198,0.048,0.321,-5.337
0.165,0.050,0.322,-5.337
0.136,0.049,0.323,-5.337
0.080,0.053,0.325,-5.337
0.072,0.055,0.325,-5.337
0.157,0.053,0.322,-5.337
0.163,0.049,0.318,-5.337
0.141,0.051,0.318,-5.337
0.182,0.052,0.323,-5.337
0.261,0.054,0.323,-5.337
0.263,0.053,0.325,-5.337
0.204,0.053,0.325,-5.337
0.219,0.051,0.331,-5.337
0.260,0.051,0.331,-5.337
0.203,0.053,0.329,-5.337
0.120,0.053,0.328,-5.337
0.120,0.054,0.328,-5.337
0.224,0.050,0.329,-5.337
0.186,0.055,0.324,-5.337
0.118,0.053,0.317,-5.337
0.173,0.052,0.318,-5.337
0.224,0.054,0.324,-5.337
0.198,0.053,0.328,-5.337
0.174,0.052,0.324,-5.337
0.205,0.056,0.323,-5.337
0.278,0.056,0.325,-5.337
0.289,0.056,0.327,-5.337
0.245,0.056,0.323,-5.337
0.234,0.055,0.320,-5.337
0.175,0.061,0.321,-5.337
0.145,0.060,0.325,-5.337
0.190,0.056,0.330,-5.337
0.249,0.055,0.327,-5.337
0.308,0.055,0.327,-5.337
0.266,0.056,0.328,-5.337
0.199,0.056,0.328,-5.337
0.183,0.053,0.328,-5.337
0.263,0.055,0.330,-5.337
0.297,0.058,0.327,-5.337
0.222,0.060,0.324,-5.337
0.207,0.056,0.321,-5.337
0.197,0.059,0.319,-5.337
0.179,0.061,0.320,-5.337
0.085,0.065,0.325,-5.337
0.065,0.059,0.326,-5.337
0.164,0.058,0.326,-5.337
0.207,0.060,0.324,-5.337
0.153,0.064,0.325,-5.337
0.146,0.064,0.326,-5.337
0.191,0.062,0.325,-5.337
0.134,0.064,0.323,-5.337
0.150,0.066,0.325,-5.337
0.168,0.066,0.327,-5.337
0.125,0.067,0.326,-5.337
0.161,0.061,0.328,-5.337
0.266,0.062,0.328,-5.337
0.275,0.060,0.328,-5.337
0.210,0.060,0.322,-5.337
0.129,0.059,0.317,-5.337
0.140,0.058,0.316,-5.337
0.183,0.057,0.323,-5.337
0.202,0.056,0.328,-5.337
0.161,0.060,0.330,-5.337
0.195,0.058,0.329,-5.337
0.264,0.060,0.328,-5.337
0.207,0.062,0.325,-5.337
0.194,0.058,0.325,-5.337
0.279,0.057,0.330,-5.337
0.252,0.061,0.332,-5.337
0.201,0.060,0.329,-5.337
0.228,0.059,0.320,-5.337
0.198,0.061,0.318,-5.337
0.170,0.062,0.323,-5.337
0.159,0.062,0.327,-5.337
0.167,0.060,0.326,-5.337
0.150,0.060,0.326,-5.337
0.150,0.061,0.328,-5.337
0.171,0.060,0.328,-5.337
0.190,0.058,0.326,-5.337
0.181,0.058,0.325,-5.337
0.121,0.059,0.323,-5.337
0.137,0.061,0.326,-5.337
0.126,0.060,0.327,-5.337
0.078,0.060,0.327,-5.337
0.083,0.060,0.323,-5.337
0.212,0.057,0.320,-5.337
0.212,0.057,0.317,-5.337
0.188,0.057,0.322,-5.337
0.253,0.054,0.327,-5.337
0.207,0.055,0.329,-5.337
0.194,0.054,0.327,-5.337
0.239,0.053,0.325,-5.337
0.254,0.055,0.325,-5.337
0.147,0.057,0.329,-5.337
0.065,0.057,0.326,-5.337
0.118,0.055,0.323,-5.337
0.115,0.054,0.325,-5.337
0.091,0.054,0.328,-5.337
0.150,0.056,0.326,-5.337
0.203,0.054,0.324,-5.337
0.162,0.056,0.325,-5.337
0.142,0.057,0.321,-5.337
0.142,0.059,0.322,-5.337
0.130,0.054,0.326,-5.337
0.194,0.051,0.327,-5.337
0.238,0.051,0.326,-5.337
0.191,0.054,0.324,-5.337
0.141,0.055,0.321,-5.337
0.176,0.054,0.322,-5.337
0.253,0.049,0.322,-5.337
0.268,0.048,0.323,-5.337
0.223,0.047,0.325,-5.337
0.177,0.052,0.329,-5.337
0.212,0.053,0.329,-5.337
0.284,0.055,0.329,-5.337
0.301,0.055,0.326,-5.337
0.194,0.053,0.322,-5.337
0.173,0.051,0.318,-5.337
0.180,0.053,0.319,-5.337
0.212,0.052,0.321,-5.337
0.256,0.053,0.318,-5.337
0.178,0.054,0.319,-5.337
0.171,0.052,0.320,-5.337
0.256,0.050,0.323,-5.337
0.239,0.050,0.322,-5.337
0.133,0.052,0.322,-5.337
0.142,0.052,0.325,-5.337
0.153,0.048,0.325,-5.337
0.157,0.048,0.324,-5.337
0.159,0.049,0.325,-5.337
0.108,0.049,0.328,-5.337
0.080,0.048,0.329,-5.337
0.074,0.048,0.325,-5.337
0.079,0.050,0.319,-5.337
0.108,0.048,0.318,-5.337
0.130,0.047,0.320,-5.337
0.134,0.048,0.320,-5.337
0.218,0.046,0.321,-5.337
0.237,0.047,0.324,-5.337
0.224,0.046,0.323,-5.337
0.217,0.044,0.320,-5.337
0.197,0.047,0.318,-5.337
0.187,0.049,0.318,-5.337
0.193,0.051,0.320,-5.337
0.226,0.051,0.323,-5.337
0.232,0.053,0.325,-5.337
0.243,0.054,0.327,-5.337
0.340,0.052,0.327,-5.337
0.305,0.054,0.326,-5.337
0.181,0.056,0.320,-5.337
0.153,0.055,0.318,-5.337
0.149,0.053,0.317,-5.337
0.163,0.052,0.318,-5.337
0.231,0.052,0.320,-5.337
0.241,0.055,0.322,-5.337
0.225,0.055,0.327,-5.337
0.189,0.057,0.327,-5.337
0.157,0.053,0.322,-5.337
0.141,0.049,0.320,-5.337
0.139,0.050,0.321,-5.337
0.190,0.050,0.325,-5.337
0.190,0.051,0.328,-5.337
0.200,0.044,0.326,-5.337
0.281,0.043,0.325,-5.337
0.274,0.049,0.323,-5.337
0.170,0.050,0.320,-5.337
0.156,0.047,0.320,-5.337
0.190,0.046,0.320,-5.337
0.234,0.046,0.322,-5.337
0.268,0.045,0.326,-5.337
0.240,0.046,0.325,-5.337
0.158,0.045,0.327,-5.337
0.158,0.044,0.327,-5.337
0.206,0.047,0.323,-5.337
0.234,0.044,0.314,-5.337
0.175,0.047,0.314,-5.337
0.088,0.048,0.317,-5.337
0.139,0.044,0.318,-5.337
0.183,0.042,0.320,-5.337
0.152,0.049,0.325,-5.337
0.129,0.047,0.329,-5.337
0.097,0.047,0.328,-5.337
0.154,0.043,0.322,-5.337
0.230,0.044,0.322,-5.337
0.190,0.043,0.324,-5.337
0.194,0.040,0.321,-5.337
0.226,0.040,0.319,-5.337
0.196,0.045,0.322,-5.337
0.134,0.044,0.327,-5.337
0.103,0.043,0.328,-5.337
0.138,0.042,0.327,-5.337
0.194,0.043,0.325,-5.337
0.174,0.045,0.319,-5.337
0.168,0.043,0.319,-5.337
0.255,0.041,0.322,-5.337
0.300,0.042,0.318,-5.337
0.292,0.041,0.316,-5.337
0.225,0.045,0.319,-5.337
0.177,0.047,0.323,-5.337
0.183,0.046,0.323,-5.337
0.205,0.046,0.320,-5.337
0.204,0.043,0.315,-5.337
0.228,0.041,0.315,-5.337
0.220,0.038,0.320,-5.337
0.279,0.038,0.325,-5.337
0.259,0.040,0.326,-5.337
0.215,0.038,0.324,-5.337
0.183,0.035,0.319,-5.337
0.172,0.034,0.320,-5.337
0.174,0.038,0.322,-5.337
0.199,0.039,0.322,-5.337
0.240,0.035,0.321,-5.337
0.261,0.038,0.322,-5.337
0.191,0.041,0.324,-5.337
0.159,0.042,0.323,-5.337
0.088,0.044,0.322,-5.337
0.060,0.043,0.322,-5.337
0.094,0.040,0.328,-5.337
0.112,0.040,0.323,-5.337
0.074,0.041,0.316,-5.337
0.124,0.040,0.315,-5.337
0.203,0.041,0.318,-5.337
0.228,0.043,0.320,-5.337
0.216,0.036,0.319,-5.337
0.235,0.031,0.321,-5.337
0.238,0.032,0.322,-5.337
0.224,0.034,0.322,-5.337
0.246,0.034,0.323,-5.337
0.161,0.040,0.323,-5.337
0.117,0.038,0.323,-5.337
0.157,0.035,0.321,-5.337
0.146,0.036,0.320,-5.337
0.166,0.035,0.319,-5.337
0.173,0.035,0.314,-5.337
0.216,0.033,0.315,-5.337
0.182,0.033,0.319,-5.337
0.232,0.033,0.326,-5.337
0.212,0.039,0.327,-5.337
0.213,0.038,0.326,-5.337
0.219,0.041,0.324,-5.337
0.112,0.040,0.323,-5.337
0.146,0.035,0.320,-5.337
0.230,0.033,0.318,-5.337
0.190,0.036,0.318,-5.337
0.132,0.036,0.320,-5.337
0.106,0.036,0.324,-5.337
0.086,0.040,0.327,-5.337
0.114,0.038,0.328,-5.337
0.226,0.034,0.326,-5.337
0.303,0.033,0.322,-5.337
0.260,0.037,0.319,-5.337
0.153,0.039,0.319,-5.337
0.128,0.038,0.318,-5.337
0.166,0.036,0.320,-5.337
0.218,0.038,0.322,-5.337
0.217,0.040,0.321,-5.337
0.160,0.037,0.318,-5.337
0.188,0.035,0.323,-5.337
0.242,0.031,0.324,-5.337
0.235,0.033,0.322,-5.337
0.226,0.036,0.324,-5.337
0.259,0.035,0.325,-5.337
0.246,0.037,0.322,-5.337
0.193,0.036,0.318,-5.337
0.148,0.034,0.317,-5.337
0.142,0.036,0.322,-5.337
0.141,0.040,0.327,-5.337
0.147,0.041,0.328,-5.337
0.195,0.034,0.323,-5.337
0.194,0.036,0.323,-5.337
0.148,0.037,0.325,-5.337
0.164,0.038,0.328,-5.337
0.199,0.038,0.326,-5.337
0.219,0.036,0.324,-5.337
0.172,0.039,0.319,-5.337
0.146,0.040,0.314,-5.337
0.170,0.039,0.318,-5.337
0.198,0.041,0.325,-5.337
0.237,0.034,0.324,-5.337
0.222,0.034,0.322,-5.337
0.098,0.034,0.322,-5.337
0.101,0.033,0.319,-5.337
0.220,0.031,0.320,-5.337
0.236,0.033,0.323,-5.337
0.168,0.036,0.323,-5.337
0.178,0.036,0.321,-5.337
0.212,0.034,0.319,-5.337
0.203,0.035,0.317,-5.337
0.176,0.037,0.318,-5.337
0.154,0.038,0.321,-5.337
0.237,0.033,0.321,-5.337
0.283,0.030,0.320,-5.337
0.318,0.033,0.319,-5.337
0.268,0.035,0.321,-5.337
0.228,0.035,0.320,-5.337
0.213,0.031,0.319,-5.337
0.280,0.031,0.319,-5.337
0.211,0.032,0.319,-5.337
0.124,0.037,0.321,-5.337
0.150,0.037,0.325,-5.337
0.196,0.036,0.327,-5.337
0.197,0.036,0.326,-5.337
0.164,0.034,0.324,-5.337
0.122,0.036,0.320,-5.337
0.187,0.035,0.320,-5.337
0.220,0.038,0.318,-5.337
0.240,0.039,0.319,-5.337
0.185,0.039,0.320,-5.337
0.160,0.040,0.315,-5.337
0.236,0.039,0.313,-5.337
0.232,0.038,0.320,-5.337
0.118,0.039,0.329,-5.337
0.144,0.036,0.326,-5.337
0.251,0.034,0.317,-5.337
0.253,0.037,0.318,-5.337
0.218,0.042,0.321,-5.337
0.187,0.041,0.323,-5.337
0.202,0.039,0.322,-5.337
0.195,0.035,0.319,-5.337
0.163,0.034,0.319,-5.337
0.176,0.031,0.318,-5.337
0.218,0.031,0.318,-5.337
0.226,0.034,0.318,-5.337
0.180,0.036,0.319,-5.337
0.139,0.036,0.323,-5.337
0.166,0.035,0.323,-5.337
0.149,0.037,0.321,-5.337
0.160,0.036,0.317,-5.337
0.130,0.036,0.319,-5.337
0.174,0.037,0.323,-5.337
0.210,0.038,0.324,-5.337
0.175,0.038,0.321,-5.337
0.234,0.033,0.323,-5.337
0.283,0.036,0.321,-5.337
0.221,0.038,0.319,-5.337
0.206,0.033,0.316,-5.337
0.222,0.033,0.319,-5.337
0.294,0.031,0.322,-5.337
0.317,0.030,0.325,-5.337
0.240,0.029,0.326,-5.337
0.107,0.034,0.325,-5.337
0.070,0.036,0.319,-5.337
0.107,0.033,0.317,-5.337
0.178,0.031,0.315,-5.337
0.200,0.033,0.315,-5.337
0.135,0.035,0.320,-5.337
0.135,0.038,0.323,-5.337
0.167,0.038,0.323,-5.337
0.207,0.037,0.321,-5.337
0.201,0.037,0.320,-5.337
0.202,0.034,0.323,-5.337
0.205,0.034,0.326,-5.337
0.182,0.035,0.326,-5.337
0.227,0.035,0.326,-5.337
0.214,0.036,0.323,-5.337
0.141,0.036,0.322,-5.337
0.156,0.038,0.316,-5.337
0.171,0.035,0.315,-5.337
0.164,0.034,0.318,-5.337
0.142,0.034,0.323,-5.337
0.215,0.035,0.325,-5.337
0.189,0.039,0.324,-5.337
0.120,0.040,0.324,-5.337
0.138,0.036,0.323,-5.337
0.253,0.034,0.319,-5.337
0.314,0.038,0.318,-5.337
0.258,0.041,0.322,-5.337
0.209,0.043,0.327,-5.337
0.272,0.039,0.326,-5.337
0.242,0.038,0.321,-5.337
0.194,0.038,0.316,-5.337
0.165,0.041,0.315,-5.337
0.220,0.040,0.317,-5.337
0.226,0.041,0.317,-5.337
0.194,0.039,0.318,-5.337
0.182,0.039,0.315,-5.337
0.219,0.039,0.319,-5.337
0.220,0.042,0.322,-5.337
0.173,0.045,0.323,-5.337
0.115,0.043,0.321,-5.337
0.155,0.044,0.320,-5.337
0.181,0.045,0.321,-5.337
0.210,0.043,0.325,-5.337
0.254,0.042,0.327,-5.337
0.242,0.045,0.328,-5.337
0.197,0.045,0.326,-5.337
0.165,0.046,0.320,-5.337
0.163,0.043,0.321,-5.337
0.196,0.044,0.323,-5.337
0.109,0.046,0.321,-5.337
0.076,0.041,0.317,-5.337
0.155,0.036,0.314,-5.337
0.192,0.037,0.315,-5.337
0.171,0.044,0.318,-5.337
0.176,0.041,0.320,-5.337
0.250,0.034,0.319,-5.337
0.303,0.037,0.317,-5.337
0.254,0.039,0.320,-5.337
0.198,0.039,0.323,-5.337
0.199,0.038,0.327,-5.337
0.224,0.039,0.326,-5.337
0.173,0.041,0.321,-5.337
0.139,0.040,0.319,-5.337
0.189,0.042,0.323,-5.337
0.149,0.041,0.320,-5.337
0.104,0.041,0.317,-5.337
0.138,0.039,0.315,-5.337
0.216,0.042,0.316,-5.337
0.181,0.046,0.317,-5.337
0.201,0.045,0.317,-5.337
0.209,0.045,0.319,-5.337
0.164,0.044,0.321,-5.337
0.137,0.045,0.324,-5.337
0.170,0.043,0.323,-5.337
0.241,0.045,0.319,-5.337
0.271,0.044,0.319,-5.337
0.220,0.045,0.319,-5.337
0.140,0.045,0.318,-5.337
0.118,0.046,0.317,-5.337
0.133,0.051,0.315,-5.337
0.121,0.050,0.317,-5.337
0.110,0.047,0.324,-5.337
0.117,0.047,0.329,-5.337
0.213,0.042,0.324,-5.337
0.211,0.047,0.324,-5.337
0.209,0.048,0.324,-5.337
0.208,0.049,0.322,-5.337
0.161,0.048,0.318,-5.337
0.131,0.049,0.320,-5.337
0.167,0.048,0.323,-5.337
0.225,0.046,0.322,-5.337
0.210,0.044,0.314,-5.337
0.119,0.043,0.310,-5.337
0.177,0.044,0.316,-5.337
0.160,0.052,0.326,-5.337
0.080,0.051,0.325,-5.337
0.071,0.048,0.322,-5.337
0.123,0.043,0.319,-5.337
0.195,0.044,0.318,-5.337
0.198,0.050,0.322,-5.337
0.186,0.050,0.327,-5.337
0.194,0.050,0.327,-5.337
0.204,0.049,0.323,-5.337
0.176,0.049,0.318,-5.337
0.136,0.051,0.319,-5.337
0.117,0.053,0.325,-5.337
0.133,0.054,0.324,-5.337
0.151,0.054,0.320,-5.337
0.209,0.048,0.318,-5.337
0.313,0.046,0.318,-5.337
0.255,0.048,0.317,-5.337
0.238,0.047,0.318,-5.337
0.243,0.048,0.323,-5.337
0.204,0.051,0.328,-5.337
0.142,0.053,0.326,-5.337
0.107,0.054,0.324,-5.337
0.119,0.055,0.323,-5.337
0.131,0.053,0.325,-5.337
0.139,0.049,0.322,-5.337
0.081,0.052,0.316,-5.337
0.081,0.051,0.312,-5.337
0.169,0.048,0.316,-5.337
0.181,0.046,0.323,-5.337
0.174,0.047,0.321,-5.337
0.095,0.053,0.318,-5.337
0.080,0.053,0.322,-5.337
0.082,0.053,0.324,-5.337
0.073,0.053,0.319,-5.337
0.139,0.052,0.317,-5.337
0.236,0.052,0.317,-5.337
0.251,0.055,0.322,-5.337
0.206,0.052,0.322,-5.337
0.147,0.050,0.320,-5.337
0.179,0.050,0.318,-5.337
0.244,0.049,0.320,-5.337
0.217,0.049,0.322,-5.337
0.152,0.049,0.324,-5.337
0.104,0.047,0.323,-5.337
0.190,0.047,0.316,-5.337
0.238,0.050,0.316,-5.337
0.132,0.051,0.319,-5.337
0.073,0.050,0.322,-5.337
0.041,0.050,0.320,-5.337
0.116,0.050,0.318,-5.337
0.173,0.051,0.319,-5.337
0.163,0.052,0.321,-5.337
0.171,0.053,0.320,-5.337
0.151,0.051,0.323,-5.337
0.223,0.048,0.324,-5.337
0.309,0.051,0.321,-5.337
0.246,0.056,0.315,-5.337
0.121,0.056,0.319,-5.337
0.129,0.054,0.320,-5.337
0.186,0.052,0.320,-5.337
0.203,0.052,0.318,-5.337
0.198,0.055,0.321,-5.337
0.218,0.055,0.322,-5.337
0.258,0.055,0.320,-5.337
0.292,0.055,0.319,-5.337
0.237,0.054,0.319,-5.337
0.241,0.054,0.319,-5.337
0.248,0.054,0.321,-5.337
0.299,0.052,0.323,-5.337
0.284,0.055,0.323,-5.337
0.147,0.059,0.326,-5.337
0.138,0.053,0.325,-5.337
0.156,0.053,0.319,-5.337
0.189,0.055,0.316,-5.337
0.234,0.054,0.316,-5.337
0.200,0.053,0.319,-5.337
0.149,0.055,0.322,-5.337
0.125,0.056,0.322,-5.337
0.179,0.058,0.322,-5.337
0.220,0.052,0.319,-5.337
0.236,0.052,0.317,-5.337
0.191,0.057,0.316,-5.337
0.110,0.060,0.317,-5.337
0.201,0.056,0.317,-5.337
0.181,0.056,0.321,-5.337
0.143,0.053,0.326,-5.337
0.129,0.056,0.327,-5.337
0.124,0.054,0.324,-5.337
0.121,0.055,0.322,-5.337
0.139,0.060,0.321,-5.337
0.086,0.062,0.322,-5.337
0.099,0.058,0.317,-5.337
0.205,0.053,0.310,-5.337
0.277,0.053,0.316,-5.337
0.203,0.056,0.323,-5.337
0.171,0.058,0.327,-5.337
0.108,0.060,0.325,-5.337
0.089,0.059,0.321,-5.337
0.153,0.055,0.321,-5.337
0.222,0.055,0.324,-5.337
0.211,0.058,0.322,-5.337
0.150,0.061,0.320,-5.337
0.165,0.057,0.319,-5.337
0.161,0.059,0.322,-5.337
0.142,0.057,0.322,-5.337
0.191,0.057,0.320,-5.337
0.226,0.057,0.318,-5.337
0.235,0.058,0.321,-5.337
0.237,0.062,0.322,-5.337
0.236,0.059,0.323,-5.337
0.244,0.059,0.321,-5.337
0.229,0.057,0.320,-5.337
0.208,0.055,0.321,-5.337
0.180,0.055,0.321,-5.337
0.185,0.055,0.318,-5.337
0.173,0.056,0.320,-5.337
0.172,0.058,0.322,-5.337
0.165,0.058,0.318,-5.337
0.126,0.060,0.316,-5.337
0.099,0.061,0.314,-5.337
0.074,0.057,0.312,-5.337
0.138,0.053,0.317,-5.337
0.168,0.052,0.323,-5.337
0.120,0.053,0.321,-5.337
0.153,0.052,0.320,-5.337
0.202,0.050,0.321,-5.337
0.256,0.051,0.323,-5.337
0.206,0.053,0.322,-5.337
0.202,0.052,0.323,-5.337
0.213,0.051,0.324,-5.337
0.243,0.053,0.324,-5.337
0.251,0.058,0.323,-5.337
0.232,0.059,0.321,-5.337
0.272,0.058,0.320,-5.337
0.263,0.059,0.318,-5.337
0.255,0.060,0.316,-5.337
0.180,0.066,0.318,-5.337
0.076,0.063,0.318,-5.337
0.088,0.059,0.317,-5.337
0.106,0.060,0.319,-5.337
0.102,0.058,0.318,-5.337
0.091,0.059,0.318,-5.337
0.110,0.057,0.317,-5.337
0.147,0.054,0.317,-5.337
0.183,0.057,0.315,-5.337
0.189,0.060,0.320,-5.337
0.174,0.062,0.321,-5.337
0.140,0.060,0.319,-5.337
0.109,0.064,0.318,-5.337
0.134,0.064,0.321,-5.337
0.155,0.062,0.322,-5.337
0.104,0.061,0.323,-5.337
0.122,0.062,0.321,-5.337
0.258,0.059,0.315,-5.337
0.251,0.061,0.316,-5.337
0.142,0.062,0.321,-5.337
0.165,0.055,0.321,-5.337
0.183,0.055,0.318,-5.337
0.142,0.055,0.323,-5.337
0.168,0.055,0.325,-5.337
0.225,0.056,0.320,-5.337
0.166,0.057,0.318,-5.337
0.204,0.059,0.318,-5.337
0.261,0.058,0.318,-5.337
0.170,0.060,0.318,-5.337
0.104,0.060,0.317,-5.337
0.204,0.059,0.321,-5.337
0.244,0.063,0.321,-5.337
0.254,0.058,0.319,-5.337
0.256,0.057,0.317,-5.337
0.271,0.058,0.319,-5.337
0.238,0.056,0.320,-5.337
0.218,0.056,0.321,-5.337
0.182,0.057,0.321,-5.337
0.152,0.057,0.321,-5.337
0.143,0.058,0.320,-5.337
0.089,0.058,0.321,-5.337
0.103,0.055,0.321,-5.337
0.162,0.057,0.320,-5.337
0.208,0.054,0.318,-5.337
0.181,0.055,0.320,-5.337
0.197,0.054,0.319,-5.337
0.219,0.054,0.318,-5.337
0.209,0.055,0.319,-5.337
0.210,0.054,0.320,-5.337
0.227,0.056,0.319,-5.337
0.199,0.056,0.315,-5.337
0.263,0.051,0.315,-5.337
0.233,0.049,0.315,-5.337
0.190,0.049,0.319,-5.337
0.202,0.051,0.323,-5.337
0.225,0.052,0.331,-5.337
0.282,0.050,0.329,-5.337
0.299,0.049,0.321,-5.337
0.242,0.048,0.315,-5.337
0.213,0.047,0.317,-5.337
0.236,0.045,0.322,-5.337
0.187,0.044,0.325,-5.337
0.202,0.045,0.321,-5.337
0.224,0.045,0.318,-5.337
0.235,0.043,0.317,-5.337
0.213,0.045,0.321,-5.337
0.283,0.042,0.328,-5.337
0.320,0.043,0.329,-5.337
0.241,0.043,0.324,-5.337
0.218,0.040,0.319,-5.337
0.163,0.042,0.315,-5.337
0.084,0.042,0.314,-5.337
0.114,0.036,0.315,-5.337
0.163,0.040,0.322,-5.337
0.187,0.041,0.330,-5.337
0.189,0.040,0.328,-5.337
0.221,0.045,0.322,-5.337
0.173,0.047,0.319,-5.337
0.125,0.047,0.323,-5.337
0.140,0.046,0.324,-5.337
0.132,0.047,0.322,-5.337
0.112,0.044,0.319,-5.337
0.175,0.045,0.322,-5.337
0.222,0.047,0.321,-5.337
0.185,0.047,0.315,-5.337
0.187,0.045,0.313,-5.337
0.299,0.041,0.318,-5.337
0.359,0.041,0.322,-5.337
0.268,0.042,0.325,-5.337
0.188,0.044,0.324,-5.337
0.147,0.048,0.321,-5.337
0.238,0.043,0.318,-5.337
0.215,0.043,0.318,-5.337
0.212,0.041,0.319,-5.337
0.215,0.044,0.318,-5.337
0.176,0.046,0.319,-5.337
0.126,0.045,0.321,-5.337
0.090,0.042,0.323,-5.337
0.122,0.042,0.319,-5.337
0.180,0.047,0.318,-5.337
0.146,0.047,0.321,-5.337
0.146,0.042,0.323,-5.337
0.162,0.042,0.321,-5.337
0.144,0.041,0.321,-5.337
0.136,0.041,0.322,-5.337
0.091,0.045,0.324,-5.337
0.117,0.044,0.320,-5.337
0.176,0.043,0.319,-5.337
0.190,0.044,0.321,-5.337
0.213,0.044,0.322,-5.337
0.264,0.041,0.323,-5.337
0.264,0.041,0.323,-5.337
0.211,0.044,0.320,-5.337
0.140,0.044,0.317,-5.337
0.124,0.046,0.313,-5.337
0.112,0.044,0.315,-5.337
0.139,0.043,0.320,-5.337
0.214,0.042,0.322,-5.337
0.221,0.042,0.319,-5.337
0.137,0.039,0.319,-5.337
0.134,0.034,0.322,-5.337
0.134,0.035,0.319,-5.337
0.125,0.041,0.320,-5.337
0.146,0.040,0.321,-5.337
0.228,0.038,0.321,-5.337
0.252,0.037,0.317,-5.337
0.251,0.042,0.318,-5.337
0.289,0.045,0.320,-5.337
0.276,0.047,0.321,-5.337
0.253,0.043,0.321,-5.337
0.243,0.039,0.322,-5.337
0.210,0.039,0.318,-5.337
0.136,0.041,0.320,-5.337
0.179,0.036,0.323,-5.337
0.194,0.034,0.326,-5.337
0.186,0.034,0.327,-5.337
0.175,0.037,0.326,-5.337
0.256,0.036,0.324,-5.337
0.204,0.042,0.318,-5.337
0.114,0.044,0.314,-5.337
0.182,0.037,0.317,-5.337
0.251,0.037,0.321,-5.337
0.244,0.037,0.321,-5.337
0.247,0.039,0.322,-5.337
0.268,0.038,0.323,-5.337
0.294,0.033,0.326,-5.337
0.293,0.034,0.327,-5.337
0.277,0.034,0.325,-5.337
0.254,0.036,0.319,-5.337
0.255,0.035,0.317,-5.337
0.238,0.035,0.319,-5.337
0.209,0.033,0.326,-5.337
0.202,0.032,0.325,-5.337
0.227,0.037,0.321,-5.337
0.206,0.040,0.320,-5.337
0.135,0.041,0.323,-5.337
0.163,0.039,0.322,-5.337
0.170,0.040,0.319,-5.337
0.141,0.038,0.317,-5.337
0.157,0.037,0.321,-5.337
0.188,0.038,0.321,-5.337
0.238,0.039,0.320,-5.337
0.241,0.040,0.319,-5.337
0.196,0.042,0.320,-5.337
0.168,0.043,0.321,-5.337
0.185,0.043,0.322,-5.337
0.199,0.043,0.322,-5.337
0.244,0.042,0.322,-5.337
0.282,0.039,0.323,-5.337
0.262,0.040,0.322,-5.337
0.245,0.043,0.320,-5.337
0.221,0.049,0.317,-5.337
0.149,0.044,0.319,-5.337
0.178,0.039,0.318,-5.337
0.224,0.044,0.320,-5.337
0.200,0.048,0.321,-5.337
0.197,0.050,0.320,-5.337
0.175,0.046,0.317,-5.337
0.226,0.044,0.318,-5.337
0.251,0.042,0.319,-5.337
0.166,0.042,0.320,-5.337
0.130,0.045,0.323,-5.337
0.183,0.044,0.324,-5.337
0.194,0.047,0.323,-5.337
0.179,0.044,0.323,-5.337
0.209,0.042,0.322,-5.337
0.234,0.041,0.317,-5.337
0.202,0.044,0.319,-5.337
0.212,0.042,0.321,-5.337
0.256,0.040,0.323,-5.337
0.188,0.043,0.319,-5.337
0.106,0.044,0.319,-5.337
0.123,0.041,0.319,-5.337
0.187,0.037,0.322,-5.337
0.240,0.038,0.322,-5.337
0.210,0.041,0.319,-5.337
0.213,0.039,0.313,-5.337
0.188,0.038,0.314,-5.337
0.212,0.032,0.320,-5.337
0.222,0.035,0.322,-5.337
0.210,0.038,0.320,-5.337
0.187,0.038,0.322,-5.337
0.214,0.037,0.324,-5.337
0.202,0.038,0.323,-5.337
0.176,0.038,0.319,-5.337
0.182,0.039,0.322,-5.337
0.211,0.038,0.327,-5.337
0.285,0.039,0.325,-5.337
0.393,0.037,0.321,-5.337
0.368,0.042,0.321,-5.337
0.329,0.042,0.318,-5.337
0.282,0.039,0.319,-5.337
0.233,0.039,0.321,-5.337
0.168,0.038,0.319,-5.337
0.140,0.040,0.322,-5.337
0.165,0.040,0.324,-5.337
0.171,0.038,0.325,-5.337
0.147,0.037,0.324,-5.337
0.160,0.039,0.324,-5.337
0.217,0.036,0.320,-5.337
0.169,0.037,0.317,-5.337
0.168,0.034,0.317,-5.337
0.194,0.036,0.317,-5.337
0.190,0.039,0.322,-5.337
0.174,0.041,0.325,-5.337
0.089,0.044,0.324,-5.337
0.088,0.040,0.321,-5.337
0.150,0.038,0.320,-5.337
0.145,0.039,0.322,-5.337
0.179,0.037,0.322,-5.337
0.286,0.036,0.320,-5.337
0.341,0.036,0.321,-5.337
0.362,0.036,0.323,-5.337
0.323,0.036,0.326,-5.337
0.286,0.031,0.326,-5.337
0.265,0.031,0.322,-5.337
0.268,0.036,0.316,-5.337
0.255,0.035,0.318,-5.337
0.189,0.031,0.321,-5.337
0.142,0.032,0.320,-5.337
0.129,0.037,0.319,-5.337
0.177,0.035,0.322,-5.337
0.229,0.035,0.320,-5.337
0.278,0.035,0.316,-5.337
0.249,0.037,0.319,-5.337
0.173,0.040,0.326,-5.337
0.197,0.033,0.325,-5.337
0.257,0.031,0.320,-5.337
0.251,0.034,0.319,-5.337
0.222,0.039,0.322,-5.337
0.171,0.040,0.321,-5.337
0.142,0.039,0.322,-5.337
0.140,0.038,0.323,-5.337
0.116,0.040,0.321,-5.337
0.134,0.041,0.322,-5.337
0.218,0.041,0.322,-5.337
0.258,0.042,0.321,-5.337
0.151,0.045,0.320,-5.337
0.082,0.042,0.324,-5.337
0.095,0.039,0.322,-5.337
0.141,0.037,0.320,-5.337
0.230,0.034,0.316,-5.337
0.291,0.033,0.316,-5.337
0.310,0.032,0.318,-5.337
0.219,0.033,0.321,-5.337
0.163,0.033,0.320,-5.337
0.205,0.036,0.326,-5.337
0.201,0.038,0.327,-5.337
0.102,0.039,0.325,-5.337
0.113,0.036,0.322,-5.337
0.191,0.033,0.318,-5.337
0.214,0.036,0.317,-5.337
0.220,0.036,0.317,-5.337
0.206,0.035,0.318,-5.337
0.184,0.037,0.319,-5.337
0.169,0.037,0.318,-5.337
0.150,0.040,0.316,-5.337
0.180,0.039,0.316,-5.337
0.217,0.037,0.318,-5.337
0.212,0.039,0.320,-5.337
0.152,0.041,0.320,-5.337
0.154,0.042,0.320,-5.337
0.267,0.040,0.321,-5.337
0.242,0.040,0.324,-5.337
0.162,0.042,0.321,-5.337
0.210,0.041,0.319,-5.337
0.280,0.036,0.316,-5.337
0.280,0.038,0.320,-5.337
0.247,0.042,0.321,-5.337
0.259,0.042,0.320,-5.337
0.345,0.038,0.321,-5.337
0.334,0.039,0.321,-5.337
0.320,0.039,0.318,-5.337
0.315,0.040,0.319,-5.337
0.287,0.040,0.322,-5.337
0.183,0.043,0.325,-5.337
0.214,0.041,0.323,-5.337
0.203,0.041,0.318,-5.337
0.149,0.042,0.316,-5.337
0.138,0.044,0.320,-5.337
0.165,0.049,0.322,-5.337
0.156,0.045,0.321,-5.337
0.169,0.045,0.318,-5.337
0.172,0.048,0.318,-5.337
0.181,0.045,0.318,-5.337
0.220,0.041,0.318,-5.337
0.208,0.041,0.320,-5.337
0.200,0.043,0.323,-5.337
0.166,0.043,0.322,-5.337
0.155,0.041,0.319,-5.337
0.235,0.041,0.316,-5.337
0.265,0.045,0.315,-5.337
0.197,0.050,0.318,-5.337
0.144,0.048,0.321,-5.337
0.072,0.045,0.323,-5.337
0.144,0.044,0.321,-5.337
0.161,0.047,0.323,-5.337
0.173,0.048,0.324,-5.337
0.192,0.048,0.322,-5.337
0.193,0.048,0.317,-5.337
0.224,0.044,0.316,-5.337
0.247,0.043,0.319,-5.337
0.212,0.044,0.322,-5.337
0.141,0.046,0.323,-5.337
0.123,0.047,0.324,-5.337
0.163,0.043,0.322,-5.337
0.149,0.044,0.319,-5.337
0.162,0.048,0.317,-5.337
0.241,0.047,0.318,-5.337
0.292,0.041,0.321,-5.337
0.289,0.039,0.322,-5.337
0.219,0.042,0.326,-5.337
0.168,0.046,0.326,-5.337
0.185,0.048,0.324,-5.337
0.240,0.044,0.318,-5.337
0.229,0.045,0.315,-5.337
0.169,0.047,0.317,-5.337
0.101,0.049,0.321,-5.337
0.090,0.052,0.323,-5.337
0.154,0.051,0.322,-5.337
0.195,0.049,0.320,-5.337
0.248,0.048,0.322,-5.337
0.277,0.048,0.320,-5.337
0.224,0.051,0.319,-5.337
0.148,0.055,0.319,-5.337
0.098,0.055,0.319,-5.337
0.070,0.053,0.319,-5.337
0.152,0.052,0.318,-5.337
0.192,0.048,0.318,-5.337
0.231,0.045,0.316,-5.337
0.230,0.046,0.316,-5.337
0.172,0.047,0.317,-5.337
0.117,0.048,0.325,-5.337
0.137,0.045,0.328,-5.337
0.247,0.045,0.331,-5.337
0.294,0.045,0.326,-5.337
0.246,0.047,0.321,-5.337
0.169,0.047,0.317,-5.337
0.164,0.045,0.317,-5.337
0.128,0.047,0.316,-5.337
0.120,0.049,0.321,-5.337
0.206,0.046,0.322,-5.337
0.267,0.042,0.319,-5.337
0.256,0.039,0.318,-5.337
0.126,0.045,0.320,-5.337
0.071,0.046,0.318,-5.337
0.149,0.044,0.317,-5.337
0.269,0.046,0.321,-5.337
0.199,0.049,0.323,-5.337
0.155,0.045,0.320,-5.337
0.201,0.044,0.321,-5.337
0.168,0.045,0.324,-5.337
0.109,0.050,0.322,-5.337
0.033,0.054,0.320,-5.337
0.068,0.051,0.318,-5.337
0.118,0.050,0.316,-5.337
0.175,0.047,0.314,-5.337
0.232,0.048,0.317,-5.337
0.187,0.050,0.321,-5.337
0.150,0.049,0.326,-5.337
0.145,0.050,0.325,-5.337
0.150,0.056,0.323,-5.337
0.153,0.053,0.322,-5.337
0.179,0.052,0.323,-5.337
0.227,0.049,0.319,-5.337
0.230,0.049,0.318,-5.337
0.096,0.050,0.319,-5.337
0.048,0.050,0.320,-5.337
0.117,0.053,0.319,-5.337
0.170,0.050,0.320,-5.337
0.170,0.046,0.320,-5.337
0.145,0.046,0.320,-5.337
0.197,0.048,0.319,-5.337
0.180,0.054,0.318,-5.337
0.091,0.056,0.319,-5.337
0.133,0.055,0.322,-5.337
0.184,0.056,0.323,-5.337
0.171,0.055,0.323,-5.337
0.168,0.059,0.324,-5.337
0.212,0.058,0.318,-5.337
0.187,0.059,0.316,-5.337
0.112,0.059,0.316,-5.337
0.071,0.059,0.317,-5.337
0.125,0.056,0.319,-5.337
0.135,0.056,0.321,-5.337
0.148,0.053,0.317,-5.337
0.189,0.056,0.319,-5.337
0.225,0.054,0.319,-5.337
0.217,0.053,0.322,-5.337
0.198,0.054,0.320,-5.337
0.145,0.056,0.315,-5.337
0.086,0.055,0.313,-5.337
0.134,0.054,0.314,-5.337
0.243,0.054,0.321,-5.337
0.276,0.054,0.326,-5.337
0.222,0.054,0.326,-5.337
0.203,0.052,0.322,-5.337
0.235,0.051,0.320,-5.337
0.259,0.053,0.323,-5.337
0.213,0.053,0.328,-5.337
0.154,0.054,0.323,-5.337
0.155,0.054,0.317,-5.337
0.191,0.056,0.315,-5.337
0.193,0.054,0.317,-5.337
0.234,0.053,0.321,-5.337
0.198,0.058,0.326,-5.337
0.095,0.059,0.326,-5.337
0.120,0.060,0.322,-5.337
0.191,0.056,0.319,-5.337
0.166,0.056,0.319,-5.337
0.126,0.058,0.321,-5.337
0.163,0.057,0.325,-5.337
0.215,0.054,0.324,-5.337
0.279,0.051,0.320,-5.337
0.304,0.051,0.319,-5.337
0.240,0.054,0.318,-5.337
0.164,0.054,0.316,-5.337
0.175,0.049,0.317,-5.337
0.200,0.049,0.317,-5.337
0.173,0.053,0.318,-5.337
0.117,0.055,0.321,-5.337
0.181,0.052,0.321,-5.337
0.186,0.051,0.323,-5.337
0.148,0.051,0.322,-5.337
0.168,0.053,0.320,-5.337
0.192,0.052,0.319,-5.337
0.200,0.052,0.320,-5.337
0.218,0.050,0.316,-5.337
0.202,0.057,0.316,-5.337
0.164,0.057,0.318,-5.337
0.208,0.052,0.321,-5.337
0.180,0.053,0.320,-5.337
0.139,0.057,0.317,-5.337
0.146,0.058,0.317,-5.337
0.176,0.052,0.320,-5.337
0.168,0.052,0.320,-5.337
0.187,0.058,0.318,-5.337
0.167,0.064,0.319,-5.337
0.157,0.060,0.319,-5.337
0.155,0.057,0.320,-5.337
0.184,0.056,0.317,-5.337
0.294,0.055,0.315,-5.337
0.324,0.056,0.317,-5.337
0.185,0.059,0.317,-5.337
0.113,0.060,0.314,-5.337
0.173,0.058,0.313,-5.337
0.175,0.056,0.316,-5.337
0.105,0.056,0.321,-5.337
0.101,0.055,0.321,-5.337
0.137,0.059,0.323,-5.337
0.146,0.058,0.320,-5.337
0.164,0.054,0.319,-5.337
0.165,0.054,0.317,-5.337
0.204,0.058,0.316,-5.337
0.195,0.057,0.320,-5.337
0.176,0.056,0.321,-5.337
0.255,0.055,0.317,-5.337
0.252,0.059,0.317,-5.337
0.178,0.059,0.317,-5.337
0.174,0.059,0.316,-5.337
0.230,0.055,0.314,-5.337
0.248,0.054,0.317,-5.337
0.229,0.056,0.318,-5.337
0.230,0.060,0.318,-5.337
0.196,0.059,0.318,-5.337
0.171,0.059,0.320,-5.337
0.167,0.061,0.323,-5.337
0.224,0.059,0.321,-5.337
0.249,0.058,0.321,-5.337
0.219,0.056,0.324,-5.337
0.220,0.058,0.325,-5.337
0.157,0.063,0.320,-5.337
0.104,0.064,0.317,-5.337
0.123,0.059,0.314,-5.337
0.132,0.057,0.317,-5.337
0.174,0.059,0.319,-5.337
0.226,0.060,0.320,-5.337
0.212,0.057,0.323,-5.337
0.216,0.056,0.322,-5.337
0.225,0.056,0.319,-5.337
0.269,0.056,0.317,-5.337
0.237,0.055,0.314,-5.337
0.213,0.055,0.315,-5.337
0.181,0.059,0.319,-5.337
0.104,0.064,0.326,-5.337
0.057,0.064,0.323,-5.337
0.194,0.058,0.317,-5.337
0.239,0.059,0.317,-5.337
0.192,0.061,0.319,-5.337
0.250,0.060,0.321,-5.337
0.281,0.059,0.318,-5.337
0.239,0.059,0.316,-5.337
0.210,0.060,0.317,-5.337
0.157,0.062,0.322,-5.337
0.156,0.058,0.323,-5.337
0.206,0.055,0.320,-5.337
0.230,0.058,0.316,-5.337
0.208,0.062,0.318,-5.337
0.166,0.061,0.320,-5.337
0.209,0.059,0.325,-5.337
0.228,0.058,0.327,-5.337
0.217,0.059,0.324,-5.337
0.176,0.063,0.321,-5.337
0.163,0.065,0.319,-5.337
0.189,0.063,0.316,-5.337
0.237,0.062,0.315,-5.337
0.189,0.065,0.316,-5.337
0.162,0.063,0.318,-5.337
0.217,0.064,0.317,-5.337
0.212,0.064,0.315,-5.337
0.160,0.063,0.319,-5.337
0.217,0.060,0.324,-5.337
0.284,0.059,0.324,-5.337
0.281,0.058,0.320,-5.337
0.250,0.057,0.320,-5.337
0.253,0.058,0.321,-5.337
0.285,0.063,0.320,-5.337
0.226,0.060,0.319,-5.337
0.156,0.063,0.323,-5.337
0.076,0.064,0.322,-5.337
0.147,0.064,0.319,-5.337
0.246,0.061,0.316,-5.337
0.273,0.062,0.314,-5.337
0.260,0.057,0.313,-5.337
0.176,0.056,0.314,-5.337
0.106,0.058,0.318,-5.337
0.133,0.056,0.318,-5.337
0.237,0.058,0.318,-5.337
0.207,0.061,0.320,-5.337
0.105,0.059,0.319,-5.337
0.067,0.060,0.316,-5.337
0.058,0.059,0.314,-5.337
0.065,0.059,0.316,-5.337
0.183,0.051,0.321,-5.337
0.270,0.050,0.323,-5.337
0.278,0.056,0.322,-5.337
0.261,0.058,0.319,-5.337
0.287,0.054,0.317,-5.337
0.273,0.050,0.315,-5.337
0.202,0.051,0.319,-5.337
0.219,0.052,0.321,-5.337
0.253,0.054,0.324,-5.337
0.273,0.054,0.322,-5.337
0.237,0.053,0.319,-5.337
0.156,0.049,0.317,-5.337
0.188,0.048,0.318,-5.337
0.231,0.051,0.318,-5.337
0.243,0.049,0.317,-5.337
0.204,0.050,0.319,-5.337
0.147,0.052,0.322,-5.337
0.178,0.053,0.321,-5.337
0.200,0.052,0.322,-5.337
0.188,0.053,0.319,-5.337
0.175,0.054,0.317,-5.337
0.201,0.049,0.319,-5.337
0.189,0.047,0.320,-5.337
0.179,0.048,0.320,-5.337
0.295,0.045,0.318,-5.337
0.306,0.049,0.318,-5.337
0.136,0.055,0.316,-5.337
0.046,0.052,0.315,-5.337
0.189,0.046,0.316,-5.337
0.258,0.047,0.319,-5.337
0.256,0.048,0.321,-5.337
0.241,0.045,0.322,-5.337
0.242,0.042,0.318,-5.337
0.246,0.044,0.318,-5.337
0.242,0.043,0.318,-5.337
0.210,0.042,0.319,-5.337
0.248,0.042,0.322,-5.337
0.276,0.044,0.323,-5.337
0.211,0.048,0.319,-5.337
0.201,0.047,0.315,-5.337
0.179,0.046,0.320,-5.337
0.157,0.046,0.324,-5.337
0.140,0.047,0.321,-5.337
0.169,0.050,0.321,-5.337
0.176,0.048,0.326,-5.337
0.249,0.046,0.325,-5.337
0.220,0.049,0.321,-5.337
0.170,0.052,0.316,-5.337
0.148,0.051,0.316,-5.337
0.185,0.044,0.318,-5.337
0.163,0.041,0.321,-5.337
0.206,0.037,0.320,-5.337
0.231,0.040,0.321,-5.337
0.231,0.041,0.321,-5.337
0.195,0.045,0.321,-5.337
0.175,0.043,0.319,-5.337
0.184,0.041,0.319,-5.337
0.176,0.043,0.323,-5.337
0.162,0.045,0.323,-5.337
0.226,0.045,0.323,-5.337
0.235,0.042,0.319,-5.337
0.223,0.043,0.314,-5.337
0.183,0.044,0.314,-5.337
0.140,0.045,0.318,-5.337
0.137,0.045,0.324,-5.337
0.172,0.041,0.325,-5.337
0.219,0.041,0.320,-5.337
0.206,0.044,0.318,-5.337
0.195,0.049,0.317,-5.337
0.190,0.047,0.321,-5.337
0.175,0.043,0.321,-5.337
0.161,0.045,0.323,-5.337
0.181,0.044,0.321,-5.337
0.286,0.042,0.319,-5.337
0.249,0.040,0.315,-5.337
0.192,0.039,0.314,-5.337
0.248,0.039,0.315,-5.337
0.171,0.043,0.321,-5.337
0.081,0.041,0.322,-5.337
0.101,0.044,0.320,-5.337
0.101,0.048,0.321,-5.337
0.147,0.046,0.324,-5.337
0.194,0.045,0.324,-5.337
0.183,0.043,0.324,-5.337
0.138,0.043,0.321,-5.337
0.166,0.043,0.317,-5.337
0.178,0.044,0.314,-5.337
0.164,0.044,0.315,-5.337
0.179,0.043,0.320,-5.337
0.132,0.045,0.322,-5.337
0.121,0.044,0.322,-5.337
0.193,0.041,0.323,-5.337
0.242,0.040,0.319,-5.337
0.253,0.041,0.315,-5.337
0.167,0.041,0.316,-5.337
0.130,0.041,0.317,-5.337
0.172,0.041,0.319,-5.337
0.177,0.038,0.320,-5.337
0.187,0.033,0.324,-5.337
0.238,0.034,0.322,-5.337
0.275,0.038,0.319,-5.337
0.238,0.038,0.318,-5.337
0.209,0.038,0.321,-5.337
0.214,0.034,0.319,-5.337
0.264,0.040,0.316,-5.337
0.252,0.045,0.316,-5.337
0.204,0.046,0.320,-5.337
0.188,0.042,0.323,-5.337
0.269,0.036,0.325,-5.337
0.277,0.040,0.322,-5.337
0.166,0.044,0.319,-5.337
0.126,0.045,0.318,-5.337
0.217,0.045,0.318,-5.337
0.222,0.044,0.318,-5.337
0.176,0.044,0.321,-5.337
0.145,0.042,0.327,-5.337
0.188,0.036,0.328,-5.337
0.255,0.035,0.324,-5.337
0.279,0.036,0.319,-5.337
0.207,0.040,0.318,-5.337
0.118,0.042,0.320,-5.337
0.132,0.044,0.324,-5.337
0.217,0.044,0.321,-5.337
0.262,0.043,0.317,-5.337
0.234,0.042,0.316,-5.337
0.191,0.041,0.322,-5.337
0.205,0.036,0.323,-5.337
0.214,0.037,0.318,-5.337
0.192,0.037,0.315,-5.337
0.212,0.034,0.317,-5.337
0.276,0.032,0.322,-5.337
0.287,0.038,0.324,-5.337
0.238,0.037,0.320,-5.337
0.209,0.038,0.317,-5.337
0.195,0.037,0.318,-5.337
0.176,0.041,0.318,-5.337
0.161,0.041,0.321,-5.337
0.135,0.044,0.323,-5.337
0.171,0.044,0.324,-5.337
0.190,0.042,0.323,-5.337
0.246,0.042,0.326,-5.337
0.288,0.040,0.326,-5.337
0.326,0.036,0.323,-5.337
0.256,0.040,0.320,-5.337
0.235,0.044,0.320,-5.337
0.290,0.043,0.318,-5.337
0.332,0.040,0.319,-5.337
0.263,0.040,0.317,-5.337
0.220,0.039,0.317,-5.337
0.184,0.040,0.323,-5.337
0.195,0.044,0.323,-5.337
0.239,0.039,0.318,-5.337
0.275,0.037,0.316,-5.337
0.163,0.043,0.316,-5.337
0.108,0.046,0.319,-5.337
0.142,0.044,0.319,-5.337
0.193,0.043,0.317,-5.337
0.180,0.047,0.315,-5.337
0.183,0.048,0.315,-5.337
0.128,0.049,0.320,-5.337
0.121,0.046,0.320,-5.337
0.133,0.046,0.320,-5.337
0.189,0.044,0.320,-5.337
0.232,0.044,0.320,-5.337
0.251,0.042,0.321,-5.337
0.269,0.039,0.318,-5.337
0.220,0.040,0.314,-5.337
0.205,0.041,0.315,-5.337
0.227,0.037,0.319,-5.337
0.247,0.034,0.323,-5.337
0.289,0.033,0.324,-5.337
0.248,0.038,0.328,-5.337
0.194,0.038,0.324,-5.337
0.221,0.036,0.319,-5.337
0.250,0.038,0.315,-5.337
0.256,0.037,0.316,-5.337
0.150,0.039,0.316,-5.337
0.154,0.038,0.314,-5.337
0.185,0.036,0.315,-5.337
0.183,0.035,0.318,-5.337
0.200,0.036,0.319,-5.337
0.198,0.040,0.318,-5.337
0.183,0.038,0.320,-5.337
0.256,0.034,0.322,-5.337
0.278,0.034,0.322,-5.337
0.254,0.038,0.316,-5.337
0.259,0.038,0.317,-5.337
0.223,0.040,0.317,-5.337
0.272,0.041,0.314,-5.337
0.242,0.042,0.315,-5.337
0.236,0.040,0.319,-5.337
0.210,0.038,0.321,-5.337
0.167,0.043,0.320,-5.337
0.159,0.044,0.320,-5.337
0.184,0.042,0.319,-5.337
0.204,0.042,0.317,-5.337
0.202,0.039,0.315,-5.337
0.191,0.037,0.316,-5.337
0.181,0.034,0.318,-5.337
0.143,0.032,0.320,-5.337
0.104,0.035,0.321,-5.337
0.122,0.036,0.324,-5.337
0.151,0.038,0.323,-5.337
0.176,0.038,0.322,-5.337
0.230,0.035,0.323,-5.337
0.257,0.034,0.323,-5.337
0.195,0.041,0.321,-5.337
0.136,0.041,0.319,-5.337
0.182,0.034,0.320,-5.337
0.219,0.032,0.321,-5.337
0.201,0.035,0.317,-5.337
0.092,0.038,0.316,-5.337
0.016,0.037,0.319,-5.337
0.060,0.038,0.321,-5.337
0.190,0.035,0.322,-5.337
0.289,0.033,0.323,-5.337
0.187,0.035,0.322,-5.337
0.207,0.034,0.318,-5.337
0.235,0.035,0.317,-5.337
0.214,0.036,0.319,-5.337
0.192,0.037,0.320,-5.337
0.207,0.036,0.322,-5.337
0.255,0.034,0.324,-5.337
0.255,0.032,0.320,-5.337
0.202,0.034,0.313,-5.337
0.158,0.036,0.314,-5.337
0.106,0.039,0.320,-5.337
0.120,0.041,0.324,-5.337
0.128,0.039,0.323,-5.337
0.102,0.040,0.319,-5.337
0.112,0.040,0.319,-5.337
0.171,0.035,0.317,-5.337
0.206,0.032,0.317,-5.337
0.199,0.036,0.320,-5.337
0.230,0.034,0.324,-5.337
0.249,0.036,0.324,-5.337
0.253,0.038,0.323,-5.337
0.210,0.040,0.323,-5.337
0.187,0.042,0.323,-5.337
0.216,0.041,0.321,-5.337
0.234,0.040,0.321,-5.337
0.248,0.035,0.323,-5.337
0.158,0.036,0.319,-5.337
0.176,0.032,0.315,-5.337
0.239,0.035,0.318,-5.337
0.238,0.039,0.323,-5.337
0.193,0.037,0.324,-5.337
0.243,0.034,0.319,-5.337
0.315,0.034,0.315,-5.337
0.247,0.039,0.317,-5.337
0.147,0.042,0.322,-5.337
0.094,0.044,0.323,-5.337
0.117,0.044,0.320,-5.337
0.083,0.044,0.317,-5.337
0.107,0.042,0.316,-5.337
0.138,0.043,0.319,-5.337
0.117,0.043,0.318,-5.337
0.132,0.040,0.317,-5.337
0.161,0.042,0.315,-5.337
0.156,0.046,0.315,-5.337
0.108,0.044,0.317,-5.337
0.098,0.042,0.320,-5.337
0.176,0.042,0.321,-5.337
0.200,0.042,0.321,-5.337
0.217,0.038,0.317,-5.337
0.278,0.037,0.313,-5.337
0.309,0.035,0.313,-5.337
0.307,0.036,0.315,-5.337
0.242,0.039,0.317,-5.337
0.171,0.042,0.319,-5.337
0.218,0.041,0.320,-5.337
0.232,0.047,0.318,-5.337
0.199,0.049,0.316,-5.337
0.100,0.050,0.318,-5.337
0.162,0.045,0.320,-5.337
0.223,0.044,0.321,-5.337
0.147,0.044,0.320,-5.337
0.102,0.042,0.319,-5.337
0.106,0.041,0.322,-5.337
0.138,0.043,0.320,-5.337
0.199,0.045,0.319,-5.337
0.264,0.045,0.316,-5.337
0.252,0.046,0.316,-5.337
0.233,0.048,0.317,-5.337
0.243,0.047,0.322,-5.337
0.218,0.046,0.323,-5.337
0.187,0.048,0.320,-5.337
0.160,0.047,0.319,-5.337
0.168,0.047,0.317,-5.337
0.189,0.048,0.316,-5.337
0.183,0.047,0.316,-5.337
0.142,0.046,0.319,-5.337
0.092,0.046,0.322,-5.337
0.076,0.044,0.320,-5.337
0.131,0.044,0.316,-5.337
0.106,0.046,0.312,-5.337
0.128,0.042,0.311,-5.337
0.222,0.038,0.311,-5.337
0.223,0.041,0.315,-5.337
0.217,0.043,0.321,-5.337
0.203,0.042,0.323,-5.337
0.182,0.044,0.324,-5.337
0.200,0.044,0.322,-5.337
0.215,0.044,0.324,-5.337
0.241,0.044,0.323,-5.337
0.205,0.047,0.317,-5.337
0.193,0.047,0.311,-5.337
0.227,0.047,0.313,-5.337
0.168,0.045,0.316,-5.337
0.118,0.047,0.321,-5.337
0.181,0.043,0.325,-5.337
0.290,0.042,0.325,-5.337
0.288,0.039,0.322,-5.337
0.298,0.042,0.320,-5.337
0.266,0.046,0.317,-5.337
0.212,0.048,0.313,-5.337
0.203,0.045,0.311,-5.337
0.219,0.044,0.313,-5.337
0.291,0.044,0.316,-5.337
0.220,0.047,0.318,-5.337
0.139,0.050,0.320,-5.337
0.171,0.047,0.321,-5.337
0.270,0.043,0.318,-5.337
0.301,0.045,0.312,-5.337
0.224,0.045,0.314,-5.337
0.222,0.045,0.315,-5.337
0.212,0.045,0.319,-5.337
0.187,0.042,0.322,-5.337
0.163,0.046,0.320,-5.337
0.122,0.048,0.319,-5.337
0.130,0.051,0.318,-5.337
0.145,0.052,0.316,-5.337
0.169,0.047,0.315,-5.337
0.117,0.048,0.315,-5.337
0.105,0.049,0.316,-5.337
0.128,0.053,0.316,-5.337
0.085,0.055,0.319,-5.337
0.095,0.051,0.320,-5.337
0.135,0.049,0.323,-5.337
0.193,0.048,0.323,-5.337
0.136,0.050,0.320,-5.337
0.130,0.048,0.322,-5.337
0.101,0.050,0.323,-5.337
0.105,0.052,0.324,-5.337
0.127,0.051,0.317,-5.337
0.117,0.052,0.317,-5.337
0.059,0.053,0.319,-5.337
0.055,0.054,0.321,-5.337
0.181,0.051,0.317,-5.337
0.164,0.050,0.316,-5.337
0.131,0.049,0.314,-5.337
0.155,0.049,0.318,-5.337
0.211,0.048,0.321,-5.337
0.195,0.053,0.322,-5.337
0.145,0.054,0.321,-5.337
0.189,0.053,0.322,-5.337
0.229,0.048,0.322,-5.337
0.243,0.052,0.317,-5.337
0.193,0.055,0.310,-5.337
0.142,0.053,0.310,-5.337
0.193,0.049,0.313,-5.337
0.244,0.048,0.316,-5.337
0.201,0.053,0.315,-5.337
0.227,0.054,0.317,-5.337
0.231,0.053,0.320,-5.337
0.163,0.052,0.323,-5.337
0.179,0.049,0.324,-5.337
0.161,0.052,0.320,-5.337
0.151,0.051,0.315,-5.337
0.191,0.047,0.315,-5.337
0.229,0.048,0.319,-5.337
0.214,0.050,0.318,-5.337
0.218,0.050,0.319,-5.337
0.317,0.047,0.315,-5.337
0.292,0.052,0.315,-5.337
0.203,0.052,0.315,-5.337
0.186,0.051,0.316,-5.337
0.193,0.049,0.317,-5.337
0.103,0.052,0.322,-5.337
0.072,0.049,0.323,-5.337
0.122,0.049,0.321,-5.337
0.146,0.050,0.317,-5.337
0.168,0.050,0.315,-5.337
0.243,0.049,0.318,-5.337
0.284,0.052,0.318,-5.337
0.232,0.055,0.317,-5.337
0.197,0.060,0.320,-5.337
0.223,0.055,0.320,-5.337
0.246,0.054,0.319,-5.337
0.235,0.053,0.320,-5.337
0.141,0.061,0.318,-5.337
0.128,0.064,0.319,-5.337
0.186,0.059,0.321,-5.337
0.228,0.055,0.323,-5.337
0.224,0.055,0.321,-5.337
0.223,0.059,0.320,-5.337
0.228,0.057,0.319,-5.337
0.215,0.053,0.319,-5.337
0.149,0.057,0.318,-5.337
0.123,0.060,0.320,-5.337
0.164,0.057,0.322,-5.337
0.171,0.060,0.322,-5.337
0.132,0.058,0.320,-5.337
0.146,0.056,0.316,-5.337
0.127,0.056,0.312,-5.337
0.123,0.057,0.316,-5.337
0.137,0.053,0.321,-5.337
0.238,0.051,0.321,-5.337
0.314,0.051,0.318,-5.337
0.298,0.053,0.316,-5.337
0.219,0.053,0.315,-5.337
0.190,0.053,0.317,-5.337
0.315,0.052,0.320,-5.337
0.343,0.053,0.319,-5.337
0.299,0.055,0.318,-5.337
0.320,0.054,0.317,-5.337
0.245,0.054,0.318,-5.337
0.188,0.055,0.319,-5.337
0.169,0.055,0.321,-5.337
0.160,0.054,0.319,-5.337
0.114,0.055,0.317,-5.337
0.144,0.054,0.316,-5.337
0.169,0.052,0.315,-5.337
0.172,0.054,0.318,-5.337
0.155,0.058,0.316,-5.337
0.166,0.059,0.314,-5.337
0.184,0.059,0.316,-5.337
0.191,0.056,0.316,-5.337
0.210,0.053,0.317,-5.337
0.204,0.054,0.317,-5.337
0.159,0.055,0.318,-5.337
0.129,0.060,0.318,-5.337
0.136,0.062,0.317,-5.337
0.200,0.058,0.316,-5.337
0.233,0.055,0.313,-5.337
0.260,0.054,0.315,-5.337
0.248,0.055,0.315,-5.337
0.229,0.055,0.316,-5.337
0.166,0.057,0.317,-5.337
0.142,0.058,0.317,-5.337
0.189,0.055,0.315,-5.337
0.217,0.054,0.316,-5.337
0.165,0.052,0.320,-5.337
0.149,0.052,0.320,-5.337
0.162,0.052,0.317,-5.337
0.150,0.052,0.318,-5.337
0.087,0.051,0.318,-5.337
0.119,0.052,0.319,-5.337
0.171,0.052,0.319,-5.337
0.234,0.052,0.317,-5.337
0.276,0.050,0.316,-5.337
0.199,0.054,0.316,-5.337
0.155,0.057,0.316,-5.337
0.188,0.053,0.316,-5.337
0.146,0.051,0.315,-5.337
0.069,0.052,0.313,-5.337
0.072,0.055,0.315,-5.337
0.117,0.055,0.313,-5.337
0.204,0.052,0.313,-5.337
0.232,0.051,0.315,-5.337
0.243,0.049,0.319,-5.337
0.276,0.051,0.317,-5.337
0.209,0.054,0.313,-5.337
0.193,0.053,0.315,-5.337
0.205,0.050,0.317,-5.337
0.175,0.046,0.316,-5.337
0.129,0.048,0.315,-5.337
0.154,0.048,0.318,-5.337
0.204,0.049,0.319,-5.337
0.228,0.051,0.319,-5.337
0.196,0.054,0.319,-5.337
0.196,0.055,0.319,-5.337
0.170,0.050,0.320,-5.337
0.182,0.050,0.322,-5.337
0.218,0.050,0.321,-5.337
0.238,0.049,0.316,-5.337
0.224,0.049,0.313,-5.337
0.166,0.050,0.314,-5.337
0.202,0.052,0.313,-5.337
0.206,0.052,0.317,-5.337
0.189,0.052,0.321,-5.337
0.226,0.053,0.320,-5.337
0.302,0.052,0.316,-5.337
0.342,0.050,0.313,-5.337
0.280,0.047,0.312,-5.337
0.173,0.050,0.316,-5.337
0.123,0.054,0.318,-5.337
0.160,0.053,0.317,-5.337
0.246,0.046,0.313,-5.337
0.234,0.046,0.314,-5.337
0.150,0.049,0.319,-5.337
0.142,0.049,0.325,-5.337
0.210,0.051,0.327,-5.337
0.212,0.048,0.321,-5.337
0.223,0.046,0.315,-5.337
0.207,0.045,0.314,-5.337
0.206,0.046,0.313,-5.337
0.233,0.046,0.315,-5.337
0.263,0.045,0.317,-5.337
0.183,0.048,0.318,-5.337
0.179,0.046,0.321,-5.337
0.212,0.046,0.320,-5.337
0.183,0.046,0.321,-5.337
0.137,0.043,0.319,-5.337
0.097,0.047,0.321,-5.337
0.119,0.048,0.318,-5.337
0.186,0.046,0.316,-5.337
0.171,0.047,0.312,-5.337
0.106,0.047,0.317,-5.337
0.082,0.046,0.321,-5.337
0.128,0.045,0.325,-5.337
0.194,0.042,0.321,-5.337
0.212,0.042,0.316,-5.337
0.209,0.043,0.314,-5.337
0.181,0.045,0.315,-5.337
0.141,0.046,0.318,-5.337
0.203,0.046,0.326,-5.337
0.297,0.044,0.330,-5.337
0.243,0.041,0.327,-5.337
0.177,0.042,0.321,-5.337
0.232,0.043,0.314,-5.337
0.248,0.044,0.311,-5.337
0.195,0.046,0.311,-5.337
0.200,0.049,0.315,-5.337
0.240,0.046,0.318,-5.337
0.236,0.049,0.320,-5.337
0.162,0.051,0.319,-5.337
0.132,0.046,0.318,-5.337
0.148,0.045,0.316,-5.337
0.193,0.043,0.313,-5.337
0.290,0.042,0.311,-5.337
0.308,0.044,0.316,-5.337
0.270,0.042,0.319,-5.337
0.259,0.040,0.322,-5.337
0.330,0.037,0.321,-5.337
0.354,0.042,0.320,-5.337
0.223,0.044,0.315,-5.337
0.171,0.042,0.316,-5.337
0.227,0.041,0.317,-5.337
0.279,0.041,0.318,-5.337
0.307,0.044,0.318,-5.337
0.273,0.041,0.317,-5.337
0.247,0.038,0.317,-5.337
0.221,0.042,0.316,-5.337
0.203,0.043,0.318,-5.337
0.181,0.047,0.314,-5.337
0.149,0.046,0.310,-5.337
0.159,0.042,0.312,-5.337
0.163,0.040,0.314,-5.337
0.157,0.041,0.315,-5.337
0.181,0.042,0.318,-5.337
0.157,0.042,0.321,-5.337
0.129,0.040,0.324,-5.337
0.112,0.042,0.323,-5.337
0.101,0.046,0.321,-5.337
0.163,0.041,0.316,-5.337
0.160,0.040,0.313,-5.337
0.112,0.041,0.314,-5.337
0.192,0.044,0.317,-5.337
0.233,0.041,0.318,-5.337
0.217,0.039,0.318,-5.337
0.167,0.041,0.321,-5.337
0.140,0.042,0.322,-5.337
0.130,0.043,0.319,-5.337
0.147,0.042,0.316,-5.337
0.232,0.040,0.314,-5.337
0.189,0.041,0.312,-5.337
0.095,0.045,0.313,-5.337
0.171,0.040,0.315,-5.337
0.292,0.036,0.316,-5.337
0.336,0.040,0.315,-5.337
0.195,0.043,0.315,-5.337
0.134,0.040,0.316,-5.337
0.153,0.042,0.320,-5.337
0.123,0.046,0.321,-5.337
0.102,0.044,0.317,-5.337
0.142,0.038,0.315,-5.337
0.224,0.035,0.316,-5.337
0.274,0.035,0.316,-5.337
0.260,0.036,0.319,-5.337
0.234,0.035,0.317,-5.337
0.210,0.035,0.316,-5.337
0.255,0.033,0.320,-5.337
0.298,0.035,0.325,-5.337
0.219,0.037,0.323,-5.337
0.125,0.036,0.317,-5.337
0.149,0.035,0.315,-5.337
0.189,0.037,0.314,-5.337
0.222,0.037,0.317,-5.337
0.195,0.037,0.320,-5.337
0.132,0.037,0.321,-5.337
0.094,0.037,0.318,-5.337
0.169,0.037,0.313,-5.337
0.249,0.035,0.312,-5.337
0.291,0.036,0.314,-5.337
0.263,0.036,0.318,-5.337
0.169,0.037,0.324,-5.337
0.123,0.037,0.319,-5.337
0.149,0.039,0.315,-5.337
0.145,0.039,0.317,-5.337
0.117,0.036,0.321,-5.337
0.164,0.034,0.323,-5.337
0.192,0.035,0.321,-5.337
0.257,0.031,0.320,-5.337
0.280,0.034,0.317,-5.337
0.240,0.036,0.313,-5.337
0.207,0.035,0.313,-5.337
0.230,0.035,0.316,-5.337
0.234,0.036,0.319,-5.337
0.237,0.038,0.319,-5.337
0.241,0.038,0.318,-5.337
0.266,0.035,0.320,-5.337
0.300,0.034,0.320,-5.337
0.191,0.034,0.318,-5.337
0.092,0.034,0.317,-5.337
0.115,0.037,0.317,-5.337
0.150,0.032,0.316,-5.337
0.203,0.030,0.320,-5.337
0.272,0.027,0.320,-5.337
0.243,0.031,0.320,-5.337
0.154,0.035,0.319,-5.337
0.147,0.033,0.317,-5.337
0.214,0.033,0.316,-5.337
0.176,0.034,0.317,-5.337
0.154,0.036,0.321,-5.337
0.236,0.034,0.325,-5.337
0.211,0.033,0.325,-5.337
0.133,0.035,0.319,-5.337
0.103,0.036,0.312,-5.337
0.136,0.038,0.311,-5.337
0.158,0.036,0.312,-5.337
0.153,0.036,0.319,-5.337
0.145,0.036,0.322,-5.337
0.064,0.037,0.322,-5.337
0.130,0.034,0.318,-5.337
0.237,0.030,0.317,-5.337
0.163,0.034,0.317,-5.337
0.080,0.036,0.316,-5.337
0.143,0.035,0.317,-5.337
0.235,0.033,0.313,-5.337
0.202,0.034,0.313,-5.337
0.187,0.036,0.318,-5.337
0.236,0.038,0.321,-5.337
0.260,0.039,0.323,-5.337
0.242,0.040,0.321,-5.337
0.195,0.041,0.319,-5.337
0.153,0.040,0.317,-5.337
0.186,0.037,0.317,-5.337
0.239,0.036,0.318,-5.337
0.246,0.034,0.317,-5.337
0.195,0.038,0.316,-5.337
0.214,0.036,0.317,-5.337
0.269,0.035,0.320,-5.337
0.348,0.034,0.321,-5.337
0.345,0.037,0.324,-5.337
0.303,0.036,0.323,-5.337
0.247,0.035,0.319,-5.337
0.194,0.036,0.318,-5.337
0.124,0.040,0.317,-5.337
0.087,0.041,0.316,-5.337
0.131,0.037,0.316,-5.337
0.176,0.035,0.317,-5.337
0.218,0.035,0.320,-5.337
0.237,0.037,0.322,-5.337
0.258,0.039,0.322,-5.337
0.266,0.039,0.319,-5.337
0.254,0.038,0.316,-5.337
0.270,0.035,0.317,-5.337
0.258,0.036,0.320,-5.337
0.215,0.037,0.322,-5.337
0.180,0.038,0.319,-5.337
0.218,0.036,0.318,-5.337
0.184,0.038,0.322,-5.337
0.148,0.038,0.324,-5.337
0.167,0.037,0.323,-5.337
0.174,0.033,0.321,-5.337
0.127,0.034,0.319,-5.337
0.166,0.032,0.318,-5.337
0.237,0.031,0.320,-5.337
0.247,0.034,0.321,-5.337
0.148,0.034,0.323,-5.337
0.098,0.034,0.325,-5.337
0.206,0.029,0.325,-5.337
0.217,0.031,0.322,-5.337
0.176,0.034,0.321,-5.337
0.171,0.032,0.318,-5.337
0.210,0.030,0.319,-5.337
0.222,0.032,0.318,-5.337
0.203,0.031,0.318,-5.337
0.237,0.032,0.314,-5.337
0.254,0.032,0.318,-5.337
0.260,0.032,0.318,-5.337
0.270,0.030,0.317,-5.337
0.247,0.032,0.318,-5.337
0.210,0.031,0.318,-5.337
0.150,0.029,0.318,-5.337
0.201,0.028,0.319,-5.337
0.233,0.028,0.320,-5.337
0.204,0.029,0.321,-5.337
0.173,0.029,0.320,-5.337
0.242,0.029,0.319,-5.337
0.259,0.033,0.319,-5.337
0.244,0.034,0.319,-5.337
0.266,0.033,0.316,-5.337
0.231,0.034,0.314,-5.337
0.188,0.032,0.317,-5.337
0.201,0.029,0.318,-5.337
0.142,0.031,0.319,-5.337
0.049,0.029,0.318,-5.337
0.080,0.032,0.318,-5.337
0.090,0.037,0.317,-5.337
0.128,0.034,0.317,-5.337
0.170,0.030,0.318,-5.337
0.183,0.033,0.320,-5.337
0.180,0.033,0.321,-5.337
0.243,0.031,0.322,-5.337
0.297,0.029,0.321,-5.337
0.205,0.036,0.319,-5.337
0.175,0.033,0.317,-5.337
0.211,0.029,0.319,-5.337
0.283,0.031,0.315,-5.337
0.234,0.036,0.316,-5.337
0.160,0.041,0.318,-5.337
0.150,0.040,0.317,-5.337
0.239,0.033,0.317,-5.337
0.261,0.035,0.315,-5.337
0.194,0.035,0.315,-5.337
0.133,0.037,0.316,-5.337
0.186,0.036,0.318,-5.337
0.202,0.037,0.321,-5.337
0.186,0.035,0.323,-5.337
0.163,0.034,0.322,-5.337
0.140,0.035,0.321,-5.337
0.192,0.035,0.317,-5.337
0.185,0.038,0.315,-5.337
0.227,0.035,0.316,-5.337
0.228,0.037,0.321,-5.337
0.193,0.036,0.323,-5.337
0.229,0.038,0.321,-5.337
0.234,0.039,0.318,-5.337
0.160,0.042,0.317,-5.337
0.129,0.042,0.320,-5.337
0.151,0.038,0.321,-5.337
0.242,0.037,0.320,-5.337
0.271,0.033,0.322,-5.337
0.251,0.034,0.319,-5.337
0.242,0.035,0.317,-5.337
0.231,0.034,0.316,-5.337
0.200,0.037,0.316,-5.337
0.166,0.039,0.314,-5.337
0.243,0.038,0.315,-5.337
0.278,0.036,0.316,-5.337
0.217,0.035,0.317,-5.337
0.180,0.036,0.319,-5.337
0.203,0.040,0.319,-5.337
0.209,0.039,0.322,-5.337
0.130,0.041,0.320,-5.337
0.090,0.041,0.319,-5.337
0.108,0.042,0.316,-5.337
0.122,0.043,0.317,-5.337
0.121,0.044,0.319,-5.337
0.175,0.042,0.321,-5.337
0.197,0.040,0.323,-5.337
0.198,0.039,0.323,-5.337
0.187,0.040,0.321,-5.337
0.148,0.040,0.317,-5.337
0.123,0.036,0.318,-5.337
0.079,0.041,0.321,-5.337
0.090,0.041,0.318,-5.337
0.147,0.039,0.317,-5.337
0.230,0.037,0.316,-5.337
0.257,0.037,0.320,-5.337
0.201,0.043,0.324,-5.337
0.201,0.042,0.321,-5.337
0.202,0.039,0.318,-5.337
0.228,0.037,0.317,-5.337
0.231,0.036,0.319,-5.337
0.246,0.039,0.318,-5.337
0.225,0.043,0.319,-5.337
0.185,0.046,0.319,-5.337
0.208,0.043,0.323,-5.337
0.221,0.043,0.321,-5.337
0.181,0.044,0.317,-5.337
0.162,0.046,0.319,-5.337
0.225,0.043,0.323,-5.337
0.277,0.042,0.324,-5.337
0.221,0.045,0.325,-5.337
0.149,0.045,0.321,-5.337
0.087,0.046,0.319,-5.337
0.157,0.040,0.317,-5.337
0.251,0.042,0.316,-5.337
0.206,0.047,0.317,-5.337
0.188,0.048,0.319,-5.337
0.122,0.049,0.318,-5.337
0.102,0.045,0.318,-5.337
0.140,0.043,0.317,-5.337
0.142,0.044,0.319,-5.337
0.168,0.046,0.321,-5.337
0.193,0.046,0.322,-5.337
0.140,0.042,0.321,-5.337
0.139,0.040,0.317,-5.337
0.240,0.039,0.317,-5.337
0.315,0.039,0.315,-5.337
0.285,0.041,0.316,-5.337
0.226,0.044,0.318,-5.337
0.205,0.046,0.318,-5.337
0.143,0.045,0.317,-5.337
0.099,0.044,0.319,-5.337
0.166,0.043,0.320,-5.337
0.227,0.048,0.321,-5.337
0.202,0.046,0.322,-5.337
0.185,0.043,0.318,-5.337
0.194,0.039,0.317,-5.337
0.208,0.041,0.321,-5.337
0.166,0.042,0.323,-5.337
0.129,0.045,0.322,-5.337
0.226,0.041,0.317,-5.337
0.252,0.042,0.314,-5.337
0.244,0.043,0.316,-5.337
0.224,0.044,0.320,-5.337
0.225,0.041,0.319,-5.337
0.219,0.042,0.318,-5.337
0.215,0.043,0.319,-5.337
0.299,0.045,0.322,-5.337
0.281,0.048,0.323,-5.337
0.179,0.046,0.317,-5.337
0.197,0.043,0.312,-5.337
0.225,0.040,0.311,-5.337
0.215,0.041,0.316,-5.337
0.169,0.044,0.316,-5.337
0.114,0.044,0.315,-5.337
0.046,0.045,0.317,-5.337
0.047,0.046,0.319,-5.337
0.122,0.047,0.317,-5.337
0.232,0.045,0.318,-5.337
0.234,0.045,0.322,-5.337
0.173,0.047,0.323,-5.337
0.151,0.046,0.316,-5.337
0.162,0.048,0.316,-5.337
0.164,0.050,0.321,-5.337
0.181,0.048,0.320,-5.337
0.128,0.048,0.316,-5.337
0.173,0.049,0.313,-5.337
0.203,0.050,0.318,-5.337
0.087,0.056,0.320,-5.337
0.075,0.053,0.321,-5.337
0.195,0.048,0.319,-5.337
0.254,0.046,0.319,-5.337
0.227,0.045,0.315,-5.337
0.138,0.049,0.314,-5.337
0.108,0.047,0.314,-5.337
0.178,0.043,0.321,-5.337
0.230,0.042,0.323,-5.337
0.255,0.043,0.321,-5.337
0.222,0.047,0.319,-5.337
0.136,0.050,0.315,-5.337
0.100,0.045,0.310,-5.337
0.154,0.044,0.312,-5.337
0.152,0.046,0.315,-5.337
0.066,0.050,0.317,-5.337
0.058,0.052,0.317,-5.337
0.121,0.051,0.317,-5.337
0.199,0.051,0.319,-5.337
0.225,0.049,0.324,-5.337
0.160,0.048,0.324,-5.337
0.148,0.045,0.321,-5.337
0.194,0.045,0.319,-5.337
0.238,0.044,0.317,-5.337
0.347,0.046,0.321,-5.337
0.376,0.047,0.322,-5.337
0.311,0.049,0.321,-5.337
0.332,0.045,0.316,-5.337
0.310,0.047,0.316,-5.337
0.234,0.052,0.316,-5.337
0.211,0.051,0.320,-5.337
0.227,0.048,0.325,-5.337
0.161,0.047,0.323,-5.337
0.155,0.044,0.316,-5.337
0.139,0.051,0.313,-5.337
0.085,0.049,0.316,-5.337
0.087,0.048,0.322,-5.337
0.116,0.051,0.321,-5.337
0.116,0.052,0.317,-5.337
0.155,0.051,0.316,-5.337
0.170,0.051,0.321,-5.337
0.209,0.051,0.322,-5.337
0.160,0.053,0.321,-5.337
0.133,0.054,0.322,-5.337
0.103,0.054,0.322,-5.337
0.109,0.054,0.320,-5.337
0.143,0.055,0.320,-5.337
0.181,0.052,0.322,-5.337
0.251,0.049,0.317,-5.337
0.340,0.048,0.314,-5.337
0.302,0.052,0.313,-5.337
0.205,0.053,0.317,-5.337
0.123,0.051,0.322,-5.337
0.110,0.050,0.321,-5.337
0.120,0.046,0.315,-5.337
0.169,0.048,0.313,-5.337
0.126,0.050,0.317,-5.337
0.147,0.049,0.320,-5.337
0.215,0.048,0.315,-5.337
0.248,0.046,0.315,-5.337
0.261,0.045,0.316,-5.337
0.249,0.046,0.317,-5.337
0.228,0.047,0.316,-5.337
0.226,0.050,0.317,-5.337
0.216,0.050,0.321,-5.337
0.115,0.052,0.320,-5.337
0.082,0.050,0.317,-5.337
0.161,0.049,0.314,-5.337
0.200,0.049,0.317,-5.337
0.200,0.051,0.321,-5.337
0.183,0.049,0.327,-5.337
0.100,0.051,0.328,-5.337
0.108,0.048,0.325,-5.337
0.175,0.046,0.322,-5.337
0.127,0.051,0.322,-5.337
0.135,0.048,0.319,-5.337
0.205,0.049,0.315,-5.337
0.251,0.050,0.313,-5.337
0.247,0.052,0.313,-5.337
0.288,0.051,0.318,-5.337
0.329,0.053,0.321,-5.337
0.296,0.055,0.322,-5.337
0.263,0.057,0.319,-5.337
0.246,0.054,0.319,-5.337
0.222,0.057,0.319,-5.337
0.205,0.056,0.318,-5.337
0.192,0.059,0.318,-5.337
0.149,0.056,0.318,-5.337
0.149,0.057,0.318,-5.337
0.087,0.057,0.318,-5.337
0.113,0.054,0.320,-5.337
0.132,0.054,0.320,-5.337
0.194,0.053,0.317,-5.337
0.226,0.051,0.318,-5.337
0.269,0.049,0.321,-5.337
0.307,0.050,0.327,-5.337
0.272,0.051,0.325,-5.337
0.234,0.054,0.321,-5.337
0.132,0.057,0.316,-5.337
0.083,0.058,0.317,-5.337
0.121,0.054,0.318,-5.337
0.189,0.048,0.320,-5.337
0.238,0.053,0.318,-5.337
0.251,0.056,0.317,-5.337
0.245,0.054,0.318,-5.337
0.202,0.057,0.318,-5.337
0.143,0.055,0.317,-5.337
0.110,0.057,0.318,-5.337
0.079,0.058,0.319,-5.337
0.079,0.054,0.316,-5.337
0.079,0.052,0.313,-5.337
0.178,0.053,0.314,-5.337
0.250,0.052,0.315,-5.337
0.248,0.050,0.315,-5.337
0.230,0.047,0.318,-5.337
0.250,0.047,0.321,-5.337
0.260,0.052,0.325,-5.337
0.258,0.050,0.321,-5.337
0.264,0.044,0.318,-5.337
0.243,0.048,0.317,-5.337
0.273,0.051,0.321,-5.337
0.278,0.050,0.323,-5.337
0.180,0.051,0.324,-5.337
0.150,0.050,0.318,-5.337
0.191,0.050,0.314,-5.337
0.136,0.050,0.315,-5.337
0.142,0.050,0.319,-5.337
0.203,0.051,0.320,-5.337
0.220,0.049,0.316,-5.337
0.171,0.051,0.314,-5.337
0.178,0.051,0.318,-5.337
0.198,0.053,0.318,-5.337
0.199,0.052,0.317,-5.337
0.195,0.054,0.322,-5.337
0.188,0.055,0.319,-5.337
0.210,0.051,0.313,-5.337
0.245,0.050,0.311,-5.337
0.217,0.051,0.315,-5.337
0.211,0.052,0.316,-5.337
0.157,0.054,0.319,-5.337
0.119,0.053,0.320,-5.337
0.149,0.055,0.320,-5.337
0.111,0.054,0.318,-5.337
0.176,0.049,0.320,-5.337
0.235,0.045,0.321,-5.337
0.204,0.046,0.319,-5.337
0.118,0.047,0.315,-5.337
0.088,0.048,0.315,-5.337
0.130,0.051,0.315,-5.337
0.088,0.049,0.317,-5.337
0.191,0.043,0.317,-5.337
0.308,0.044,0.318,-5.337
0.260,0.047,0.319,-5.337
0.189,0.045,0.316,-5.337
0.165,0.047,0.314,-5.337
0.255,0.044,0.317,-5.337
0.239,0.045,0.319,-5.337
0.189,0.047,0.321,-5.337
0.181,0.045,0.321,-5.337
0.167,0.045,0.317,-5.337
0.224,0.047,0.318,-5.337
0.253,0.043,0.317,-5.337
0.246,0.044,0.316,-5.337
0.151,0.049,0.314,-5.337
0.101,0.047,0.317,-5.337
0.129,0.045,0.319,-5.337
0.142,0.049,0.321,-5.337
0.169,0.046,0.318,-5.337
0.160,0.046,0.316,-5.337
0.153,0.045,0.316,-5.337
0.204,0.045,0.317,-5.337
0.191,0.045,0.318,-5.337
0.162,0.045,0.318,-5.337
0.144,0.048,0.316,-5.337
0.088,0.046,0.315,-5.337
0.114,0.043,0.317,-5.337
0.175,0.043,0.318,-5.337
0.180,0.044,0.319,-5.337
0.149,0.042,0.319,-5.337
0.119,0.041,0.322,-5.337
0.099,0.042,0.320,-5.337
0.156,0.040,0.319,-5.337
0.258,0.042,0.319,-5.337
0.272,0.042,0.318,-5.337
0.260,0.042,0.316,-5.337
0.230,0.048,0.317,-5.337
0.164,0.049,0.318,-5.337
0.172,0.044,0.319,-5.337
0.246,0.040,0.320,-5.337
0.265,0.039,0.321,-5.337
0.248,0.041,0.320,-5.337
0.190,0.038,0.318,-5.337
0.182,0.039,0.316,-5.337
0.196,0.040,0.316,-5.337
0.290,0.038,0.315,-5.337
0.291,0.039,0.316,-5.337
0.243,0.039,0.318,-5.337
0.184,0.042,0.321,-5.337
0.198,0.042,0.321,-5.337
0.243,0.042,0.321,-5.337
0.238,0.043,0.318,-5.337
0.208,0.038,0.317,-5.337
0.206,0.037,0.316,-5.337
0.213,0.035,0.316,-5.337
0.180,0.036,0.319,-5.337
0.119,0.035,0.321,-5.337
0.124,0.035,0.323,-5.337
0.217,0.033,0.323,-5.337
0.210,0.033,0.322,-5.337
0.125,0.037,0.321,-5.337
0.119,0.038,0.322,-5.337
0.180,0.037,0.319,-5.337
0.219,0.037,0.320,-5.337
0.205,0.038,0.318,-5.337
0.199,0.041,0.318,-5.337
0.232,0.040,0.321,-5.337
0.289,0.038,0.321,-5.337
0.246,0.037,0.316,-5.337
0.231,0.036,0.314,-5.337
0.203,0.038,0.317,-5.337
0.184,0.040,0.320,-5.337
0.186,0.041,0.322,-5.337
0.183,0.040,0.321,-5.337
0.222,0.039,0.315,-5.337
0.231,0.038,0.313,-5.337
0.254,0.036,0.316,-5.337
0.222,0.034,0.318,-5.337
0.226,0.034,0.319,-5.337
0.257,0.033,0.317,-5.337
0.257,0.036,0.316,-5.337
0.189,0.037,0.318,-5.337
0.150,0.039,0.321,-5.337
0.101,0.038,0.321,-5.337
0.155,0.039,0.321,-5.337
0.207,0.040,0.320,-5.337
0.158,0.042,0.324,-5.337
0.120,0.040,0.323,-5.337
0.155,0.039,0.319,-5.337
0.215,0.034,0.318,-5.337
0.145,0.034,0.318,-5.337
0.072,0.037,0.319,-5.337
0.171,0.040,0.319,-5.337
0.221,0.040,0.317,-5.337
0.216,0.041,0.320,-5.337
0.191,0.039,0.320,-5.337
0.201,0.036,0.317,-5.337
0.188,0.040,0.313,-5.337
0.140,0.044,0.312,-5.337
0.120,0.042,0.314,-5.337
0.192,0.033,0.319,-5.337
0.205,0.030,0.322,-5.337
0.151,0.033,0.319,-5.337
0.217,0.032,0.317,-5.337
0.239,0.032,0.316,-5.337
0.214,0.035,0.315,-5.337
0.193,0.036,0.315,-5.337
0.189,0.037,0.317,-5.337
0.145,0.036,0.316,-5.337
0.157,0.033,0.316,-5.337
0.174,0.031,0.317,-5.337
0.167,0.034,0.318,-5.337
0.115,0.032,0.319,-5.337
0.153,0.032,0.317,-5.337
0.204,0.032,0.316,-5.337
0.166,0.033,0.314,-5.337
0.114,0.032,0.315,-5.337
0.135,0.032,0.317,-5.337
0.155,0.033,0.317,-5.337
0.197,0.034,0.318,-5.337
0.197,0.035,0.320,-5.337
0.227,0.033,0.321,-5.337
0.258,0.031,0.321,-5.337
0.212,0.030,0.319,-5.337
0.191,0.033,0.320,-5.337
0.156,0.036,0.317,-5.337
0.177,0.033,0.315,-5.337
0.192,0.033,0.314,-5.337
0.234,0.031,0.316,-5.337
0.205,0.032,0.316,-5.337
0.193,0.032,0.320,-5.337
0.233,0.026,0.317,-5.337
0.231,0.028,0.313,-5.337
0.161,0.033,0.314,-5.337
0.098,0.034,0.318,-5.337
0.207,0.028,0.317,-5.337
0.282,0.029,0.318,-5.337
0.243,0.032,0.319,-5.337
0.173,0.036,0.317,-5.337
0.205,0.034,0.315,-5.337
0.270,0.031,0.313,-5.337
0.246,0.032,0.315,-5.337
0.189,0.031,0.319,-5.337
0.182,0.031,0.320,-5.337
0.207,0.033,0.318,-5.337
0.278,0.033,0.317,-5.337
0.237,0.036,0.317,-5.337
0.102,0.037,0.319,-5.337
0.108,0.033,0.318,-5.337
0.209,0.032,0.321,-5.337
0.260,0.029,0.322,-5.337
0.238,0.031,0.323,-5.337
0.223,0.029,0.322,-5.337
0.226,0.027,0.318,-5.337
0.236,0.031,0.317,-5.337
0.218,0.032,0.323,-5.337
0.143,0.033,0.320,-5.337
0.160,0.029,0.316,-5.337
0.274,0.027,0.316,-5.337
0.252,0.032,0.318,-5.337
0.192,0.033,0.318,-5.337
0.121,0.031,0.316,-5.337
0.110,0.028,0.315,-5.337
0.198,0.027,0.317,-5.337
0.287,0.028,0.319,-5.337
0.311,0.028,0.318,-5.337
0.246,0.026,0.319,-5.337
0.258,0.026,0.320,-5.337
0.267,0.028,0.323,-5.337
0.254,0.029,0.321,-5.337
0.199,0.033,0.320,-5.337
0.168,0.033,0.317,-5.337
0.267,0.030,0.316,-5.337
0.248,0.028,0.314,-5.337
0.228,0.027,0.318,-5.337
0.155,0.028,0.318,-5.337
0.086,0.031,0.321,-5.337
0.080,0.030,0.320,-5.337
0.181,0.032,0.316,-5.337
0.202,0.032,0.311,-5.337
0.129,0.035,0.314,-5.337
0.135,0.030,0.317,-5.337
0.201,0.028,0.321,-5.337
0.218,0.026,0.324,-5.337
0.205,0.025,0.326,-5.337
0.230,0.023,0.323,-5.337
0.226,0.022,0.318,-5.337
0.209,0.023,0.316,-5.337
0.259,0.027,0.320,-5.337
0.246,0.033,0.322,-5.337
0.192,0.034,0.319,-5.337
0.138,0.032,0.319,-5.337
0.162,0.033,0.319,-5.337
0.223,0.034,0.318,-5.337
0.221,0.035,0.319,-5.337
0.170,0.033,0.321,-5.337
0.192,0.031,0.320,-5.337
0.220,0.034,0.321,-5.337
0.232,0.031,0.324,-5.337
0.222,0.031,0.327,-5.337
0.203,0.030,0.324,-5.337
0.185,0.034,0.323,-5.337
0.147,0.037,0.319,-5.337
0.150,0.035,0.317,-5.337
0.193,0.029,0.312,-5.337
0.194,0.029,0.313,-5.337
0.194,0.028,0.318,-5.337
0.292,0.029,0.319,-5.337
0.252,0.033,0.313,-5.337
0.167,0.036,0.311,-5.337
0.094,0.034,0.314,-5.337
0.102,0.034,0.323,-5.337
0.111,0.034,0.325,-5.337
0.150,0.035,0.324,-5.337
0.235,0.031,0.324,-5.337
0.258,0.029,0.321,-5.337
0.211,0.030,0.318,-5.337
0.118,0.032,0.315,-5.337
0.028,0.036,0.319,-5.337
0.048,0.033,0.322,-5.337
0.092,0.031,0.322,-5.337
0.150,0.030,0.318,-5.337
0.140,0.031,0.319,-5.337
0.120,0.033,0.320,-5.337
0.119,0.035,0.321,-5.337
0.202,0.028,0.319,-5.337
0.315,0.027,0.314,-5.337
0.305,0.031,0.318,-5.337
0.180,0.034,0.318,-5.337
0.159,0.028,0.314,-5.337
0.236,0.027,0.311,-5.337
0.242,0.023,0.313,-5.337
0.233,0.027,0.321,-5.337
0.218,0.028,0.325,-5.337
0.252,0.027,0.326,-5.337
0.222,0.030,0.325,-5.337
0.199,0.032,0.315,-5.337
0.188,0.032,0.315,-5.337
0.223,0.033,0.315,-5.337
0.211,0.036,0.315,-5.337
0.187,0.036,0.314,-5.337
0.193,0.036,0.315,-5.337
0.185,0.034,0.313,-5.337
0.068,0.037,0.314,-5.337
0.064,0.035,0.316,-5.337
0.216,0.032,0.318,-5.337
0.291,0.030,0.319,-5.337
0.345,0.031,0.319,-5.337
0.354,0.036,0.320,-5.337
0.317,0.034,0.322,-5.337
0.286,0.032,0.321,-5.337
0.261,0.035,0.318,-5.337
0.245,0.036,0.319,-5.337
0.213,0.037,0.321,-5.337
0.202,0.036,0.323,-5.337
0.199,0.038,0.320,-5.337
0.188,0.041,0.314,-5.337
0.133,0.042,0.312,-5.337
0.132,0.042,0.316,-5.337
0.144,0.040,0.317,-5.337
0.148,0.037,0.317,-5.337
0.139,0.038,0.316,-5.337
0.087,0.038,0.315,-5.337
0.059,0.038,0.315,-5.337
0.128,0.034,0.317,-5.337
0.120,0.036,0.317,-5.337
0.102,0.037,0.318,-5.337
0.107,0.037,0.318,-5.337
0.150,0.036,0.317,-5.337
0.236,0.033,0.315,-5.337
0.231,0.038,0.316,-5.337
0.176,0.037,0.316,-5.337
0.178,0.037,0.313,-5.337
0.198,0.038,0.312,-5.337
0.210,0.040,0.315,-5.337
0.283,0.035,0.320,-5.337
0.373,0.036,0.322,-5.337
0.355,0.035,0.323,-5.337
0.263,0.036,0.320,-5.337
0.192,0.037,0.317,-5.337
0.164,0.038,0.316,-5.337
0.212,0.035,0.313,-5.337
0.166,0.036,0.312,-5.337
0.113,0.038,0.314,-5.337
0.155,0.038,0.317,-5.337
0.239,0.038,0.318,-5.337
0.124,0.041,0.316,-5.337
0.081,0.043,0.314,-5.337
0.129,0.041,0.311,-5.337
0.207,0.038,0.317,-5.337
0.216,0.036,0.320,-5.337
0.165,0.042,0.319,-5.337
0.166,0.044,0.319,-5.337
0.164,0.046,0.319,-5.337
0.161,0.044,0.316,-5.337
0.180,0.045,0.315,-5.337
0.198,0.046,0.313,-5.337
0.184,0.049,0.312,-5.337
0.159,0.043,0.313,-5.337
0.229,0.040,0.319,-5.337
0.268,0.042,0.320,-5.337
0.281,0.046,0.319,-5.337
0.214,0.047,0.317,-5.337
0.148,0.046,0.317,-5.337
0.138,0.044,0.318,-5.337
0.214,0.045,0.319,-5.337
0.236,0.047,0.319,-5.337
0.189,0.045,0.319,-5.337
0.169,0.043,0.324,-5.337
0.156,0.043,0.322,-5.337
0.189,0.044,0.318,-5.337
0.190,0.046,0.312,-5.337
0.139,0.045,0.311,-5.337
0.172,0.045,0.314,-5.337
0.195,0.044,0.315,-5.337
0.174,0.045,0.316,-5.337
0.101,0.045,0.320,-5.337
0.207,0.042,0.324,-5.337
0.247,0.039,0.322,-5.337
0.272,0.042,0.318,-5.337
0.251,0.045,0.317,-5.337
0.189,0.048,0.315,-5.337
0.216,0.046,0.314,-5.337
0.204,0.042,0.314,-5.337
0.223,0.044,0.314,-5.337
0.234,0.048,0.320,-5.337
0.166,0.050,0.325,-5.337
0.106,0.048,0.322,-5.337
0.172,0.044,0.316,-5.337
0.205,0.047,0.314,-5.337
0.160,0.052,0.314,-5.337
0.139,0.047,0.316,-5.337
0.157,0.043,0.319,-5.337
0.130,0.043,0.321,-5.337
0.153,0.045,0.317,-5.337
0.142,0.044,0.318,-5.337
0.150,0.040,0.320,-5.337
0.231,0.043,0.322,-5.337
0.237,0.045,0.322,-5.337
0.220,0.045,0.324,-5.337
0.151,0.046,0.320,-5.337
0.061,0.047,0.317,-5.337
0.104,0.045,0.314,-5.337
0.233,0.046,0.314,-5.337
0.239,0.047,0.315,-5.337
0.194,0.047,0.316,-5.337
0.131,0.047,0.321,-5.337
0.094,0.047,0.321,-5.337
0.155,0.048,0.317,-5.337
0.275,0.045,0.315,-5.337
0.281,0.046,0.316,-5.337
0.218,0.047,0.317,-5.337
0.149,0.048,0.317,-5.337
0.142,0.046,0.316,-5.337
0.160,0.046,0.321,-5.337
0.204,0.048,0.324,-5.337
0.220,0.048,0.323,-5.337
0.169,0.050,0.320,-5.337
0.204,0.049,0.320,-5.337
0.178,0.050,0.316,-5.337
0.114,0.052,0.316,-5.337
0.142,0.048,0.319,-5.337
0.157,0.051,0.317,-5.337
0.179,0.055,0.312,-5.337
0.179,0.056,0.314,-5.337
0.153,0.055,0.319,-5.337
0.136,0.054,0.320,-5.337
0.130,0.054,0.318,-5.337
0.117,0.054,0.316,-5.337
0.116,0.050,0.315,-5.337
0.155,0.052,0.314,-5.337
0.150,0.055,0.315,-5.337
0.103,0.053,0.315,-5.337
0.216,0.047,0.316,-5.337
0.326,0.047,0.318,-5.337
0.275,0.051,0.318,-5.337
0.241,0.049,0.317,-5.337
0.244,0.051,0.319,-5.337
0.207,0.055,0.323,-5.337
0.185,0.054,0.325,-5.337
0.155,0.056,0.321,-5.337
0.102,0.058,0.314,-5.337
0.104,0.052,0.309,-5.337
0.120,0.054,0.309,-5.337
0.118,0.053,0.312,-5.337
0.203,0.055,0.314,-5.337
0.248,0.054,0.317,-5.337
0.235,0.052,0.319,-5.337
0.199,0.054,0.319,-5.337
0.223,0.054,0.318,-5.337
0.249,0.053,0.316,-5.337
0.233,0.053,0.319,-5.337
0.191,0.053,0.320,-5.337
0.157,0.051,0.316,-5.337
0.143,0.052,0.316,-5.337
0.200,0.054,0.321,-5.337
0.267,0.050,0.322,-5.337
0.246,0.052,0.315,-5.337
0.199,0.054,0.314,-5.337
0.199,0.053,0.312,-5.337
0.194,0.053,0.314,-5.337
0.156,0.051,0.314,-5.337
0.180,0.051,0.317,-5.337
0.146,0.053,0.315,-5.337
0.134,0.054,0.315,-5.337
0.190,0.049,0.316,-5.337
0.284,0.050,0.317,-5.337
0.299,0.052,0.319,-5.337
0.220,0.055,0.319,-5.337
0.198,0.053,0.318,-5.337
0.217,0.049,0.318,-5.337
0.264,0.046,0.317,-5.337
0.233,0.051,0.312,-5.337
0.211,0.057,0.310,-5.337
0.249,0.057,0.314,-5.337
0.290,0.055,0.315,-5.337
0.261,0.057,0.317,-5.337
0.143,0.061,0.318,-5.337
0.065,0.059,0.317,-5.337
0.123,0.056,0.317,-5.337
0.197,0.057,0.318,-5.337
0.117,0.061,0.320,-5.337
0.070,0.062,0.318,-5.337
0.097,0.059,0.320,-5.337
0.141,0.061,0.320,-5.337
0.180,0.060,0.322,-5.337
0.178,0.059,0.321,-5.337
0.166,0.057,0.320,-5.337
0.174,0.059,0.318,-5.337
0.177,0.059,0.319,-5.337
0.172,0.058,0.320,-5.337
0.154,0.059,0.318,-5.337
0.184,0.056,0.313,-5.337
0.218,0.057,0.313,-5.337
0.181,0.060,0.316,-5.337
0.146,0.061,0.320,-5.337
0.176,0.055,0.323,-5.337
0.198,0.054,0.321,-5.337
0.197,0.056,0.319,-5.337
0.185,0.055,0.318,-5.337
0.136,0.054,0.318,-5.337
0.208,0.053,0.319,-5.337
0.200,0.056,0.319,-5.337
0.174,0.054,0.316,-5.337
0.183,0.053,0.314,-5.337
0.201,0.055,0.317,-5.337
0.213,0.054,0.322,-5.337
0.195,0.055,0.320,-5.337
0.223,0.058,0.318,-5.337
0.192,0.058,0.316,-5.337
0.120,0.062,0.314,-5.337
0.110,0.059,0.315,-5.337
0.112,0.061,0.321,-5.337
0.094,0.059,0.324,-5.337
0.133,0.056,0.320,-5.337
0.176,0.053,0.316,-5.337
0.191,0.053,0.316,-5.337
0.146,0.054,0.318,-5.337
0.149,0.055,0.322,-5.337
0.208,0.056,0.321,-5.337
0.115,0.060,0.317,-5.337
0.060,0.061,0.317,-5.337
0.179,0.058,0.318,-5.337
0.219,0.057,0.317,-5.337
0.263,0.054,0.317,-5.337
0.317,0.049,0.317,-5.337
0.263,0.053,0.319,-5.337
0.290,0.049,0.319,-5.337
0.266,0.052,0.317,-5.337
0.216,0.055,0.316,-5.337
0.140,0.056,0.316,-5.337
0.167,0.054,0.319,-5.337
0.164,0.054,0.321,-5.337
0.114,0.059,0.320,-5.337
0.149,0.057,0.319,-5.337
0.174,0.057,0.321,-5.337
0.214,0.058,0.317,-5.337
0.196,0.061,0.316,-5.337
0.122,0.063,0.315,-5.337
0.155,0.060,0.315,-5.337
0.187,0.055,0.317,-5.337
0.150,0.060,0.321,-5.337
0.127,0.057,0.322,-5.337
0.204,0.057,0.319,-5.337
0.221,0.055,0.317,-5.337
0.160,0.055,0.316,-5.337
0.157,0.053,0.315,-5.337
0.151,0.050,0.316,-5.337
0.109,0.052,0.319,-5.337
0.117,0.049,0.321,-5.337
0.203,0.049,0.322,-5.337
0.265,0.050,0.320,-5.337
0.291,0.052,0.320,-5.337
0.292,0.050,0.320,-5.337
0.283,0.053,0.318,-5.337
0.270,0.054,0.317,-5.337
0.246,0.052,0.315,-5.337
0.169,0.056,0.320,-5.337
0.087,0.058,0.323,-5.337
0.115,0.055,0.323,-5.337
0.214,0.053,0.318,-5.337
0.192,0.052,0.316,-5.337
0.174,0.052,0.316,-5.337
0.177,0.052,0.316,-5.337
0.163,0.054,0.315,-5.337
0.118,0.051,0.316,-5.337
0.127,0.053,0.318,-5.337
0.152,0.054,0.315,-5.337
0.184,0.055,0.313,-5.337
0.191,0.053,0.314,-5.337
0.156,0.050,0.314,-5.337
0.143,0.051,0.314,-5.337
0.150,0.050,0.312,-5.337
0.141,0.051,0.317,-5.337
0.165,0.052,0.319,-5.337
0.215,0.054,0.321,-5.337
0.155,0.054,0.324,-5.337
0.158,0.052,0.325,-5.337
0.147,0.052,0.320,-5.337
0.152,0.049,0.317,-5.337
0.182,0.049,0.314,-5.337
0.180,0.050,0.309,-5.337
0.190,0.047,0.309,-5.337
0.264,0.044,0.313,-5.337
0.285,0.040,0.317,-5.337
0.242,0.045,0.318,-5.337
0.219,0.047,0.316,-5.337
0.212,0.044,0.317,-5.337
0.143,0.043,0.320,-5.337
0.140,0.043,0.320,-5.337
0.118,0.044,0.322,-5.337
0.129,0.045,0.317,-5.337
0.155,0.045,0.311,-5.337
0.222,0.043,0.309,-5.337
0.236,0.043,0.318,-5.337
0.166,0.049,0.319,-5.337
0.128,0.048,0.321,-5.337
0.166,0.046,0.318,-5.337
0.194,0.050,0.318,-5.337
0.206,0.052,0.318,-5.337
0.192,0.056,0.318,-5.337
0.116,0.051,0.317,-5.337
0.124,0.050,0.319,-5.337
0.237,0.046,0.318,-5.337
0.287,0.045,0.317,-5.337
0.248,0.045,0.315,-5.337
0.270,0.041,0.316,-5.337
0.291,0.040,0.320,-5.337
0.264,0.041,0.321,-5.337
0.213,0.046,0.317,-5.337
0.230,0.044,0.314,-5.337
0.228,0.041,0.311,-5.337
0.240,0.043,0.309,-5.337
0.249,0.047,0.311,-5.337
0.243,0.050,0.318,-5.337
0.189,0.045,0.322,-5.337
0.068,0.046,0.320,-5.337
0.132,0.047,0.321,-5.337
0.214,0.045,0.320,-5.337
0.229,0.044,0.319,-5.337
0.248,0.040,0.317,-5.337
0.295,0.040,0.315,-5.337
0.319,0.041,0.314,-5.337
0.302,0.043,0.317,-5.337
0.260,0.044,0.319,-5.337
0.195,0.043,0.318,-5.337
0.182,0.041,0.321,-5.337
0.198,0.045,0.324,-5.337
0.207,0.046,0.319,-5.337
0.216,0.046,0.316,-5.337
0.192,0.043,0.315,-5.337
0.205,0.045,0.316,-5.337
0.241,0.046,0.317,-5.337
0.271,0.045,0.317,-5.337
0.337,0.046,0.320,-5.337
0.315,0.045,0.323,-5.337
0.235,0.048,0.322,-5.337
0.128,0.050,0.318,-5.337
0.113,0.049,0.314,-5.337
0.127,0.049,0.313,-5.337
0.114,0.045,0.316,-5.337
0.137,0.046,0.317,-5.337
0.164,0.046,0.317,-5.337
0.239,0.046,0.319,-5.337
0.223,0.047,0.321,-5.337
0.144,0.047,0.319,-5.337
0.168,0.045,0.321,-5.337
0.202,0.042,0.324,-5.337
0.193,0.040,0.323,-5.337
0.206,0.039,0.318,-5.337
0.204,0.042,0.316,-5.337
0.165,0.042,0.314,-5.337
0.146,0.042,0.316,-5.337
0.126,0.040,0.319,-5.337
0.149,0.035,0.319,-5.337
0.255,0.033,0.316,-5.337
0.265,0.037,0.317,-5.337
0.184,0.040,0.318,-5.337
0.127,0.040,0.321,-5.337
0.172,0.037,0.321,-5.337
0.234,0.039,0.318,-5.337
0.241,0.044,0.318,-5.337
0.152,0.044,0.319,-5.337
0.110,0.047,0.325,-5.337
0.133,0.043,0.322,-5.337
0.189,0.040,0.321,-5.337
0.204,0.041,0.319,-5.337
0.165,0.047,0.317,-5.337
0.166,0.048,0.316,-5.337
0.151,0.048,0.316,-5.337
0.172,0.047,0.316,-5.337
0.218,0.043,0.317,-5.337
0.143,0.044,0.317,-5.337
0.110,0.046,0.321,-5.337
0.156,0.045,0.321,-5.337
0.160,0.044,0.319,-5.337
0.136,0.046,0.317,-5.337
0.107,0.048,0.315,-5.337
0.166,0.047,0.317,-5.337
0.198,0.047,0.320,-5.337
0.245,0.044,0.319,-5.337
0.262,0.042,0.316,-5.337
0.219,0.041,0.315,-5.337
0.178,0.045,0.319,-5.337
0.203,0.044,0.323,-5.337
0.264,0.043,0.321,-5.337
0.261,0.046,0.317,-5.337
0.261,0.042,0.316,-5.337
0.330,0.041,0.321,-5.337
0.282,0.042,0.321,-5.337
0.201,0.043,0.320,-5.337
0.117,0.042,0.317,-5.337
0.090,0.042,0.316,-5.337
0.091,0.043,0.314,-5.337
0.128,0.042,0.316,-5.337
0.179,0.041,0.319,-5.337
0.186,0.040,0.319,-5.337
0.225,0.039,0.319,-5.337
0.138,0.042,0.319,-5.337
0.092,0.042,0.320,-5.337
0.170,0.041,0.321,-5.337
0.274,0.039,0.318,-5.337
0.244,0.039,0.315,-5.337
0.157,0.040,0.317,-5.337
0.155,0.038,0.320,-5.337
0.186,0.039,0.321,-5.337
0.209,0.040,0.320,-5.337
0.197,0.039,0.319,-5.337
0.180,0.038,0.319,-5.337
0.219,0.034,0.320,-5.337
0.227,0.039,0.320,-5.337
0.198,0.037,0.319,-5.337
0.219,0.035,0.317,-5.337
0.196,0.034,0.317,-5.337
0.131,0.035,0.314,-5.337
0.166,0.036,0.311,-5.337
0.234,0.030,0.313,-5.337
0.252,0.030,0.319,-5.337
0.188,0.032,0.321,-5.337
0.147,0.031,0.320,-5.337
0.208,0.032,0.320,-5.337
0.291,0.031,0.321,-5.337
0.285,0.032,0.318,-5.337
0.235,0.034,0.317,-5.337
0.246,0.039,0.316,-5.337
0.189,0.043,0.316,-5.337
0.159,0.040,0.317,-5.337
0.183,0.038,0.317,-5.337
0.204,0.037,0.320,-5.337
0.205,0.039,0.323,-5.337
0.181,0.035,0.320,-5.337
0.146,0.035,0.312,-5.337
0.122,0.039,0.311,-5.337
0.163,0.037,0.314,-5.337
0.245,0.036,0.317,-5.337
0.197,0.037,0.317,-5.337
0.146,0.041,0.319,-5.337
0.144,0.040,0.319,-5.337
0.145,0.037,0.320,-5.337
0.173,0.033,0.319,-5.337
0.256,0.031,0.318,-5.337
0.238,0.032,0.315,-5.337
0.160,0.033,0.314,-5.337
0.103,0.033,0.315,-5.337
0.152,0.033,0.317,-5.337
0.200,0.030,0.318,-5.337
0.237,0.031,0.322,-5.337
0.203,0.031,0.323,-5.337
0.149,0.035,0.324,-5.337
0.158,0.035,0.322,-5.337
0.208,0.035,0.316,-5.337
0.178,0.033,0.315,-5.337
0.207,0.032,0.315,-5.337
0.265,0.035,0.316,-5.337
0.180,0.038,0.312,-5.337
0.201,0.036,0.314,-5.337
0.282,0.032,0.316,-5.337
0.279,0.033,0.324,-5.337
0.205,0.034,0.324,-5.337
0.190,0.036,0.320,-5.337
0.128,0.034,0.314,-5.337
0.120,0.033,0.312,-5.337
0.152,0.033,0.314,-5.337
0.210,0.036,0.318,-5.337
0.176,0.033,0.321,-5.337
0.140,0.035,0.322,-5.337
0.168,0.034,0.319,-5.337
0.188,0.037,0.317,-5.337
0.213,0.036,0.321,-5.337
0.163,0.035,0.323,-5.337
0.233,0.027,0.318,-5.337
0.328,0.026,0.316,-5.337
0.356,0.028,0.316,-5.337
0.326,0.032,0.320,-5.337
0.276,0.032,0.323,-5.337
0.261,0.033,0.319,-5.337
0.205,0.036,0.320,-5.337
0.189,0.037,0.322,-5.337
0.193,0.035,0.322,-5.337
0.243,0.036,0.318,-5.337
0.251,0.038,0.317,-5.337
0.202,0.040,0.320,-5.337
0.120,0.040,0.321,-5.337
0.105,0.037,0.318,-5.337
0.159,0.037,0.317,-5.337
0.160,0.037,0.318,-5.337
0.193,0.035,0.323,-5.337
0.207,0.033,0.324,-5.337
0.181,0.037,0.323,-5.337
0.179,0.040,0.323,-5.337
0.199,0.037,0.325,-5.337
0.252,0.036,0.322,-5.337
0.277,0.037,0.318,-5.337
0.255,0.037,0.314,-5.337
0.237,0.036,0.316,-5.337
0.255,0.032,0.318,-5.337
0.298,0.032,0.317,-5.337
0.275,0.034,0.319,-5.337
0.243,0.033,0.322,-5.337
0.178,0.032,0.321,-5.337
0.159,0.035,0.318,-5.337
0.175,0.039,0.317,-5.337
0.159,0.040,0.317,-5.337
0.155,0.039,0.319,-5.337
0.161,0.038,0.319,-5.337
0.167,0.037,0.321,-5.337
0.198,0.039,0.319,-5.337
0.230,0.041,0.318,-5.337
0.252,0.038,0.315,-5.337
0.276,0.034,0.315,-5.337
0.244,0.036,0.317,-5.337
0.228,0.039,0.318,-5.337
0.201,0.040,0.322,-5.337
0.216,0.038,0.324,-5.337
0.250,0.035,0.322,-5.337
0.202,0.037,0.319,-5.337
0.161,0.036,0.319,-5.337
0.158,0.037,0.320,-5.337
0.153,0.038,0.320,-5.337
0.137,0.041,0.317,-5.337
0.171,0.040,0.317,-5.337
0.166,0.043,0.318,-5.337
0.104,0.047,0.321,-5.337
0.122,0.044,0.318,-5.337
0.164,0.042,0.322,-5.337
0.206,0.042,0.323,-5.337
0.133,0.045,0.322,-5.337
0.117,0.048,0.319,-5.337
0.177,0.046,0.318,-5.337
0.166,0.046,0.317,-5.337
0.152,0.045,0.319,-5.337
0.202,0.040,0.319,-5.337
0.225,0.038,0.318,-5.337
0.236,0.040,0.313,-5.337
0.241,0.040,0.315,-5.337
0.247,0.043,0.318,-5.337
0.281,0.042,0.320,-5.337
0.193,0.042,0.323,-5.337
0.152,0.044,0.326,-5.337
0.240,0.039,0.320,-5.337
0.295,0.039,0.312,-5.337
0.266,0.042,0.311,-5.337
0.236,0.040,0.312,-5.337
0.198,0.039,0.314,-5.337
0.157,0.039,0.314,-5.337
0.096,0.040,0.317,-5.337
0.130,0.039,0.313,-5.337
0.186,0.041,0.314,-5.337
0.189,0.042,0.317,-5.337
0.221,0.042,0.322,-5.337
0.165,0.045,0.321,-5.337
0.133,0.045,0.319,-5.337
0.208,0.042,0.318,-5.337
0.282,0.042,0.318,-5.337
0.291,0.042,0.320,-5.337
0.275,0.046,0.318,-5.337
0.271,0.049,0.317,-5.337
0.202,0.051,0.320,-5.337
0.158,0.045,0.321,-5.337
0.175,0.046,0.323,-5.337
0.192,0.051,0.318,-5.337
0.141,0.052,0.313,-5.337
0.119,0.048,0.315,-5.337
0.128,0.046,0.317,-5.337
0.108,0.051,0.319,-5.337
0.154,0.051,0.318,-5.337
0.216,0.047,0.316,-5.337
0.224,0.048,0.315,-5.337
0.186,0.050,0.316,-5.337
0.112,0.055,0.316,-5.337
0.081,0.053,0.317,-5.337
0.119,0.052,0.317,-5.337
0.234,0.046,0.316,-5.337
0.267,0.046,0.316,-5.337
0.135,0.048,0.317,-5.337
0.131,0.046,0.315,-5.337
0.163,0.046,0.315,-5.337
0.101,0.050,0.317,-5.337
0.095,0.050,0.316,-5.337
0.226,0.043,0.316,-5.337
0.247,0.047,0.317,-5.337
0.161,0.047,0.320,-5.337
0.149,0.046,0.319,-5.337
0.202,0.042,0.316,-5.337
0.305,0.046,0.317,-5.337
0.303,0.046,0.315,-5.337
0.237,0.047,0.312,-5.337
0.162,0.047,0.316,-5.337
0.167,0.047,0.318,-5.337
0.133,0.051,0.318,-5.337
0.142,0.049,0.318,-5.337
0.243,0.046,0.320,-5.337
0.293,0.043,0.317,-5.337
0.240,0.049,0.313,-5.337
0.177,0.054,0.315,-5.337
0.235,0.052,0.318,-5.337
0.260,0.054,0.316,-5.337
0.217,0.057,0.318,-5.337
0.224,0.058,0.317,-5.337
0.145,0.058,0.316,-5.337
0.148,0.055,0.318,-5.337
0.210,0.052,0.318,-5.337
0.160,0.052,0.320,-5.337
0.157,0.055,0.321,-5.337
0.187,0.050,0.319,-5.337
0.237,0.048,0.317,-5.337
0.192,0.049,0.316,-5.337
0.109,0.052,0.316,-5.337
0.098,0.052,0.318,-5.337
0.037,0.052,0.319,-5.337
0.042,0.051,0.319,-5.337
0.105,0.056,0.317,-5.337
0.193,0.055,0.317,-5.337
0.242,0.054,0.315,-5.337
0.218,0.053,0.316,-5.337
0.155,0.053,0.316,-5.337
0.107,0.052,0.317,-5.337
0.146,0.047,0.314,-5.337
0.283,0.046,0.315,-5.337
0.335,0.047,0.318,-5.337
0.257,0.051,0.322,-5.337
0.156,0.051,0.322,-5.337
0.170,0.052,0.319,-5.337
0.190,0.050,0.313,-5.337
0.168,0.050,0.312,-5.337
0.157,0.052,0.315,-5.337
0.130,0.053,0.318,-5.337
0.075,0.052,0.320,-5.337
0.084,0.049,0.321,-5.337
0.102,0.055,0.320,-5.337
0.101,0.057,0.319,-5.337
0.152,0.057,0.318,-5.337
0.168,0.062,0.320,-5.337
0.141,0.058,0.321,-5.337
0.127,0.058,0.319,-5.337
0.196,0.059,0.315,-5.337
0.228,0.059,0.313,-5.337
0.279,0.054,0.315,-5.337
0.220,0.052,0.315,-5.337
0.161,0.054,0.317,-5.337
0.176,0.053,0.317,-5.337
0.189,0.053,0.319,-5.337
0.213,0.053,0.317,-5.337
0.213,0.055,0.323,-5.337
0.203,0.057,0.328,-5.337
0.149,0.055,0.326,-5.337
0.109,0.053,0.319,-5.337
0.173,0.056,0.312,-5.337
0.236,0.059,0.313,-5.337
0.184,0.061,0.319,-5.337
0.099,0.058,0.321,-5.337
0.136,0.057,0.320,-5.337
0.123,0.058,0.317,-5.337
0.139,0.056,0.317,-5.337
0.199,0.054,0.316,-5.337
0.228,0.052,0.316,-5.337
0.196,0.051,0.318,-5.337
0.189,0.050,0.318,-5.337
0.200,0.050,0.318,-5.337
0.197,0.051,0.317,-5.337
0.173,0.054,0.318,-5.337
0.159,0.055,0.316,-5.337
0.180,0.050,0.313,-5.337
0.197,0.051,0.315,-5.337
0.144,0.058,0.317,-5.337
0.049,0.061,0.318,-5.337
0.086,0.054,0.317,-5.337
0.124,0.049,0.317,-5.337
0.147,0.051,0.315,-5.337
0.207,0.051,0.312,-5.337
0.234,0.054,0.316,-5.337
0.248,0.054,0.322,-5.337
0.220,0.054,0.322,-5.337
0.225,0.054,0.318,-5.337
0.265,0.054,0.316,-5.337
0.270,0.057,0.316,-5.337
0.246,0.058,0.317,-5.337
0.166,0.059,0.317,-5.337
0.176,0.058,0.319,-5.337
0.225,0.059,0.320,-5.337
0.194,0.063,0.319,-5.337
0.152,0.061,0.318,-5.337
0.111,0.063,0.317,-5.337
0.150,0.061,0.318,-5.337
0.162,0.059,0.316,-5.337
0.198,0.057,0.312,-5.337
0.207,0.054,0.311,-5.337
0.207,0.054,0.314,-5.337
0.234,0.054,0.315,-5.337
0.244,0.057,0.315,-5.337
0.226,0.055,0.317,-5.337
0.196,0.055,0.322,-5.337
0.198,0.057,0.326,-5.337
0.227,0.054,0.326,-5.337
0.213,0.056,0.318,-5.337
0.193,0.056,0.312,-5.337
0.208,0.059,0.311,-5.337
0.180,0.059,0.314,-5.337
0.184,0.061,0.316,-5.337
0.210,0.065,0.316,-5.337
0.156,0.066,0.318,-5.337
0.155,0.065,0.318,-5.337
0.234,0.058,0.313,-5.337
0.251,0.060,0.310,-5.337
0.158,0.064,0.311,-5.337
0.170,0.064,0.315,-5.337
0.256,0.059,0.321,-5.337
0.329,0.055,0.323,-5.337
0.267,0.058,0.322,-5.337
0.191,0.059,0.316,-5.337
0.186,0.060,0.314,-5.337
0.182,0.057,0.316,-5.337
0.230,0.060,0.317,-5.337
0.259,0.057,0.316,-5.337
0.197,0.057,0.317,-5.337
0.136,0.057,0.316,-5.337
0.201,0.058,0.314,-5.337
0.233,0.063,0.313,-5.337
0.217,0.063,0.315,-5.337
0.219,0.061,0.317,-5.337
0.207,0.060,0.318,-5.337
0.143,0.061,0.319,-5.337
0.112,0.060,0.316,-5.337
0.144,0.058,0.314,-5.337
0.195,0.055,0.314,-5.337
0.223,0.055,0.317,-5.337
0.126,0.060,0.318,-5.337
0.091,0.061,0.318,-5.337
0.203,0.057,0.317,-5.337
0.314,0.058,0.314,-5.337
0.283,0.056,0.313,-5.337
0.226,0.058,0.315,-5.337
0.243,0.054,0.315,-5.337
0.229,0.057,0.317,-5.337
0.195,0.057,0.319,-5.337
0.138,0.057,0.321,-5.337
0.167,0.053,0.320,-5.337
0.219,0.052,0.316,-5.337
0.187,0.054,0.315,-5.337
0.040,0.060,0.316,-5.337
0.012,0.060,0.317,-5.337
0.063,0.056,0.317,-5.337
0.132,0.053,0.315,-5.337
0.196,0.058,0.317,-5.337
0.144,0.060,0.321,-5.337
0.101,0.060,0.324,-5.337
0.117,0.058,0.321,-5.337
0.106,0.060,0.316,-5.337
0.126,0.058,0.320,-5.337
0.253,0.055,0.321,-5.337
0.343,0.053,0.319,-5.337
0.291,0.054,0.313,-5.337
0.199,0.058,0.313,-5.337
0.197,0.060,0.318,-5.337
0.223,0.058,0.323,-5.337
0.286,0.056,0.323,-5.337
0.246,0.059,0.323,-5.337
0.181,0.059,0.324,-5.337
0.212,0.058,0.323,-5.337
0.231,0.056,0.317,-5.337
0.219,0.054,0.314,-5.337
0.201,0.052,0.318,-5.337
0.230,0.052,0.320,-5.337
0.206,0.050,0.318,-5.337
0.188,0.049,0.320,-5.337
0.176,0.047,0.321,-5.337
0.262,0.048,0.319,-5.337
0.284,0.046,0.315,-5.337
0.273,0.045,0.313,-5.337
0.164,0.048,0.315,-5.337
0.147,0.049,0.320,-5.337
0.183,0.048,0.323,-5.337
0.180,0.046,0.320,-5.337
0.089,0.049,0.322,-5.337
0.075,0.049,0.322,-5.337
0.114,0.050,0.318,-5.337
0.150,0.051,0.313,-5.337
0.153,0.050,0.314,-5.337
0.077,0.052,0.321,-5.337
0.097,0.048,0.325,-5.337
0.110,0.050,0.325,-5.337
0.120,0.052,0.326,-5.337
0.234,0.050,0.323,-5.337
0.214,0.049,0.318,-5.337
0.207,0.046,0.315,-5.337
0.132,0.051,0.313,-5.337
0.134,0.047,0.313,-5.337
0.146,0.045,0.315,-5.337
0.119,0.047,0.321,-5.337
0.133,0.048,0.322,-5.337
0.161,0.050,0.319,-5.337
0.152,0.050,0.314,-5.337
0.147,0.047,0.311,-5.337
0.230,0.046,0.314,-5.337
0.244,0.048,0.318,-5.337
0.220,0.049,0.320,-5.337
0.238,0.047,0.318,-5.337
0.303,0.045,0.316,-5.337
0.339,0.046,0.318,-5.337
0.304,0.045,0.316,-5.337
0.235,0.048,0.319,-5.337
0.225,0.046,0.319,-5.337
0.208,0.045,0.317,-5.337
0.166,0.046,0.314,-5.337
0.178,0.048,0.311,-5.337
0.209,0.043,0.316,-5.337
0.179,0.045,0.320,-5.337
0.169,0.044,0.321,-5.337
0.182,0.049,0.322,-5.337
0.173,0.049,0.321,-5.337
0.217,0.045,0.318,-5.337
0.289,0.040,0.313,-5.337
0.246,0.043,0.315,-5.337
0.226,0.041,0.318,-5.337
0.258,0.040,0.318,-5.337
0.192,0.040,0.319,-5.337
0.160,0.042,0.317,-5.337
0.166,0.043,0.318,-5.337
0.256,0.042,0.317,-5.337
0.279,0.041,0.317,-5.337
0.261,0.040,0.312,-5.337
0.263,0.043,0.312,-5.337
0.153,0.046,0.315,-5.337
0.122,0.046,0.316,-5.337
0.217,0.043,0.318,-5.337
0.216,0.042,0.316,-5.337
0.122,0.043,0.311,-5.337
0.134,0.043,0.314,-5.337
0.156,0.042,0.319,-5.337
0.186,0.042,0.319,-5.337
0.242,0.038,0.318,-5.337
0.207,0.035,0.320,-5.337
0.197,0.036,0.317,-5.337
0.188,0.038,0.318,-5.337
0.195,0.039,0.322,-5.337
0.167,0.042,0.321,-5.337
0.199,0.042,0.317,-5.337
0.230,0.042,0.315,-5.337
0.290,0.039,0.314,-5.337
0.261,0.043,0.312,-5.337
0.224,0.046,0.313,-5.337
0.192,0.040,0.316,-5.337
0.200,0.040,0.316,-5.337
0.195,0.041,0.316,-5.337
0.196,0.038,0.320,-5.337
0.238,0.040,0.320,-5.337
0.301,0.040,0.317,-5.337
0.309,0.038,0.317,-5.337
0.234,0.038,0.316,-5.337
0.161,0.039,0.319,-5.337
0.167,0.040,0.321,-5.337
0.213,0.038,0.317,-5.337
0.205,0.036,0.313,-5.337
0.141,0.035,0.313,-5.337
0.141,0.030,0.317,-5.337
0.193,0.034,0.324,-5.337
0.224,0.035,0.326,-5.337
0.227,0.032,0.324,-5.337
0.260,0.030,0.319,-5.337
0.284,0.031,0.313,-5.337
0.256,0.036,0.312,-5.337
0.227,0.035,0.315,-5.337
0.226,0.033,0.315,-5.337
0.175,0.037,0.318,-5.337
0.175,0.033,0.317,-5.337
0.247,0.032,0.317,-5.337
0.292,0.031,0.316,-5.337
0.227,0.034,0.318,-5.337
0.136,0.031,0.317,-5.337
0.169,0.031,0.318,-5.337
0.209,0.029,0.317,-5.337
0.238,0.029,0.315,-5.337
0.269,0.029,0.313,-5.337
0.254,0.029,0.317,-5.337
0.213,0.033,0.317,-5.337
0.211,0.034,0.315,-5.337
0.246,0.033,0.314,-5.337
0.255,0.032,0.319,-5.337
0.257,0.032,0.322,-5.337
0.232,0.033,0.320,-5.337
0.167,0.034,0.314,-5.337
0.200,0.031,0.313,-5.337
0.295,0.028,0.316,-5.337
0.333,0.030,0.319,-5.337
0.263,0.032,0.320,-5.337
0.192,0.031,0.320,-5.337
0.194,0.030,0.317,-5.337
0.325,0.030,0.313,-5.337
0.311,0.032,0.317,-5.337
0.206,0.036,0.319,-5.337
0.110,0.036,0.324,-5.337
0.160,0.035,0.322,-5.337
0.180,0.035,0.319,-5.337
0.157,0.031,0.321,-5.337
0.088,0.030,0.325,-5.337
0.108,0.027,0.320,-5.337
0.217,0.025,0.316,-5.337
0.215,0.026,0.316,-5.337
0.164,0.027,0.317,-5.337
0.073,0.027,0.314,-5.337
0.073,0.029,0.314,-5.337
0.145,0.030,0.317,-5.337
0.150,0.032,0.322,-5.337
0.166,0.029,0.322,-5.337
0.197,0.026,0.318,-5.337
0.196,0.026,0.317,-5.337
0.226,0.024,0.319,-5.337
0.241,0.025,0.317,-5.337
0.261,0.027,0.312,-5.337
0.237,0.028,0.315,-5.337
0.193,0.029,0.316,-5.337
0.130,0.030,0.318,-5.337
0.075,0.032,0.318,-5.337
0.130,0.030,0.320,-5.337
0.168,0.031,0.319,-5.337
0.215,0.031,0.321,-5.337
0.250,0.026,0.322,-5.337
0.218,0.027,0.322,-5.337
0.192,0.031,0.319,-5.337
0.181,0.032,0.318,-5.337
0.178,0.031,0.318,-5.337
0.177,0.030,0.318,-5.337
0.186,0.029,0.317,-5.337
0.180,0.032,0.316,-5.337
0.227,0.031,0.317,-5.337
0.213,0.030,0.319,-5.337
0.177,0.028,0.319,-5.337
0.143,0.030,0.317,-5.337
0.177,0.025,0.315,-5.337
0.214,0.024,0.318,-5.337
0.200,0.027,0.322,-5.337
0.173,0.030,0.323,-5.337
0.149,0.028,0.322,-5.337
0.151,0.027,0.315,-5.337
0.143,0.030,0.314,-5.337
0.095,0.034,0.316,-5.337
0.143,0.029,0.320,-5.337
0.231,0.022,0.319,-5.337
0.217,0.024,0.319,-5.337
0.166,0.026,0.319,-5.337
0.204,0.028,0.316,-5.337
0.204,0.028,0.316,-5.337
0.192,0.029,0.316,-5.337
0.121,0.026,0.319,-5.337
0.140,0.025,0.322,-5.337
0.130,0.024,0.321,-5.337
0.135,0.025,0.318,-5.337
0.174,0.023,0.315,-5.337
0.276,0.019,0.315,-5.337
0.347,0.020,0.317,-5.337
0.197,0.024,0.317,-5.337
0.157,0.022,0.317,-5.337
0.229,0.021,0.318,-5.337
0.308,0.020,0.319,-5.337
0.285,0.022,0.317,-5.337
0.208,0.025,0.319,-5.337
0.184,0.025,0.321,-5.337
0.203,0.027,0.321,-5.337
0.206,0.026,0.314,-5.337
0.178,0.025,0.315,-5.337
0.110,0.021,0.316,-5.337
0.153,0.022,0.318,-5.337
0.201,0.024,0.316,-5.337
0.217,0.026,0.314,-5.337
0.243,0.023,0.315,-5.337
0.210,0.024,0.315,-5.337
0.141,0.023,0.316,-5.337
0.180,0.023,0.320,-5.337
0.287,0.023,0.323,-5.337
0.253,0.028,0.319,-5.337
0.213,0.028,0.314,-5.337
0.217,0.028,0.313,-5.337
0.241,0.026,0.315,-5.337
0.217,0.026,0.319,-5.337
0.232,0.026,0.318,-5.337
0.256,0.026,0.315,-5.337
0.207,0.028,0.319,-5.337
0.136,0.029,0.321,-5.337
0.154,0.027,0.317,-5.337
0.195,0.025,0.313,-5.337
0.178,0.025,0.318,-5.337
0.178,0.027,0.323,-5.337
0.191,0.027,0.324,-5.337
0.191,0.024,0.317,-5.337
0.230,0.026,0.312,-5.337
0.245,0.023,0.315,-5.337
0.175,0.026,0.321,-5.337
0.198,0.023,0.320,-5.337
0.234,0.025,0.315,-5.337
0.151,0.030,0.315,-5.337
0.126,0.030,0.319,-5.337
0.116,0.028,0.319,-5.337
0.210,0.025,0.316,-5.337
0.227,0.029,0.317,-5.337
0.213,0.029,0.320,-5.337
0.157,0.030,0.321,-5.337
0.143,0.031,0.320,-5.337
0.230,0.026,0.316,-5.337
0.275,0.028,0.313,-5.337
0.250,0.030,0.315,-5.337
0.265,0.026,0.315,-5.337
0.309,0.026,0.317,-5.337
0.273,0.027,0.315,-5.337
0.282,0.025,0.319,-5.337
0.395,0.024,0.319,-5.337
0.367,0.026,0.319,-5.337
0.274,0.028,0.317,-5.337
0.194,0.030,0.322,-5.337
0.194,0.028,0.322,-5.337
0.242,0.027,0.320,-5.337
0.204,0.025,0.320,-5.337
0.194,0.026,0.321,-5.337
0.205,0.028,0.320,-5.337
0.169,0.029,0.316,-5.337
0.129,0.029,0.315,-5.337
0.081,0.031,0.319,-5.337
0.096,0.034,0.322,-5.337
0.156,0.031,0.322,-5.337
0.195,0.033,0.319,-5.337
0.120,0.037,0.320,-5.337
0.088,0.033,0.321,-5.337
0.132,0.029,0.321,-5.337
0.133,0.031,0.318,-5.337
0.185,0.030,0.317,-5.337
0.247,0.031,0.318,-5.337
0.288,0.029,0.314,-5.337
0.244,0.029,0.317,-5.337
0.183,0.030,0.317,-5.337
0.207,0.033,0.319,-5.337
0.262,0.032,0.323,-5.337
0.249,0.032,0.325,-5.337
0.160,0.032,0.318,-5.337
0.113,0.033,0.316,-5.337
0.154,0.032,0.316,-5.337
0.195,0.033,0.313,-5.337
0.151,0.032,0.308,-5.337
0.188,0.029,0.313,-5.337
0.240,0.028,0.321,-5.337
0.231,0.030,0.327,-5.337
0.228,0.033,0.326,-5.337
0.247,0.033,0.325,-5.337
0.169,0.035,0.324,-5.337
0.127,0.035,0.322,-5.337
0.080,0.039,0.318,-5.337
0.111,0.037,0.316,-5.337
0.191,0.038,0.316,-5.337
0.227,0.038,0.319,-5.337
0.235,0.035,0.323,-5.337
0.278,0.036,0.321,-5.337
0.227,0.042,0.320,-5.337
0.202,0.042,0.315,-5.337
0.245,0.040,0.316,-5.337
0.256,0.038,0.317,-5.337
0.148,0.042,0.321,-5.337
0.083,0.037,0.320,-5.337
0.061,0.038,0.319,-5.337
0.057,0.039,0.319,-5.337
0.118,0.039,0.319,-5.337
0.145,0.034,0.318,-5.337
0.152,0.033,0.319,-5.337
0.159,0.036,0.319,-5.337
0.167,0.035,0.316,-5.337
0.194,0.036,0.313,-5.337
0.179,0.039,0.314,-5.337
0.171,0.040,0.318,-5.337
0.187,0.042,0.321,-5.337
0.185,0.041,0.321,-5.337
0.165,0.039,0.319,-5.337
0.169,0.042,0.319,-5.337
0.126,0.045,0.319,-5.337
0.157,0.043,0.314,-5.337
0.169,0.041,0.312,-5.337
0.133,0.040,0.317,-5.337
0.143,0.041,0.316,-5.337
0.223,0.041,0.317,-5.337
0.295,0.041,0.316,-5.337
0.267,0.038,0.315,-5.337
0.225,0.041,0.316,-5.337
0.187,0.044,0.317,-5.337
0.159,0.044,0.318,-5.337
0.183,0.046,0.317,-5.337
0.207,0.041,0.316,-5.337
0.208,0.039,0.314,-5.337
0.242,0.040,0.317,-5.337
0.257,0.042,0.318,-5.337
0.239,0.044,0.318,-5.337
0.164,0.045,0.316,-5.337
0.179,0.044,0.316,-5.337
0.251,0.042,0.318,-5.337
0.281,0.043,0.319,-5.337
0.274,0.043,0.318,-5.337
0.272,0.042,0.319,-5.337
0.202,0.045,0.319,-5.337
0.267,0.047,0.320,-5.337
0.269,0.048,0.315,-5.337
0.210,0.048,0.316,-5.337
0.187,0.047,0.315,-5.337
0.210,0.045,0.313,-5.337
0.242,0.044,0.313,-5.337
0.202,0.048,0.317,-5.337
0.173,0.048,0.316,-5.337
0.202,0.047,0.317,-5.337
0.167,0.051,0.319,-5.337
0.113,0.053,0.319,-5.337
0.207,0.050,0.317,-5.337
0.261,0.049,0.314,-5.337
0.240,0.047,0.314,-5.337
0.197,0.047,0.316,-5.337
0.151,0.049,0.318,-5.337
0.142,0.054,0.316,-5.337
0.122,0.053,0.316,-5.337
0.096,0.049,0.318,-5.337
0.154,0.047,0.321,-5.337
0.184,0.048,0.320,-5.337
0.190,0.048,0.319,-5.337
0.216,0.046,0.316,-5.337
0.267,0.045,0.317,-5.337
0.279,0.047,0.317,-5.337
0.259,0.047,0.316,-5.337
0.225,0.048,0.314,-5.337
0.204,0.052,0.313,-5.337
0.184,0.052,0.317,-5.337
0.128,0.051,0.317,-5.337
0.137,0.046,0.314,-5.337
0.204,0.048,0.315,-5.337
0.212,0.050,0.315,-5.337
0.248,0.046,0.313,-5.337
0.258,0.043,0.312,-5.337
0.167,0.045,0.315,-5.337
0.114,0.049,0.318,-5.337
0.122,0.052,0.320,-5.337
0.093,0.052,0.322,-5.337
0.125,0.052,0.321,-5.337
0.191,0.048,0.316,-5.337
0.203,0.049,0.314,-5.337
0.179,0.045,0.315,-5.337
0.167,0.045,0.316,-5.337
0.176,0.045,0.318,-5.337
0.193,0.045,0.315,-5.337
0.164,0.047,0.316,-5.337
0.173,0.049,0.317,-5.337
0.141,0.049,0.319,-5.337
0.129,0.051,0.315,-5.337
0.130,0.052,0.315,-5.337
0.146,0.052,0.317,-5.337
0.153,0.052,0.317,-5.337
0.106,0.052,0.318,-5.337
0.108,0.053,0.317,-5.337
0.143,0.055,0.320,-5.337
0.099,0.058,0.319,-5.337
0.103,0.052,0.319,-5.337
0.113,0.054,0.316,-5.337
0.090,0.056,0.313,-5.337
0.128,0.055,0.314,-5.337
0.161,0.057,0.318,-5.337
0.175,0.055,0.320,-5.337
0.154,0.053,0.320,-5.337
0.158,0.051,0.317,-5.337
0.202,0.050,0.314,-5.337
0.255,0.048,0.312,-5.337
0.245,0.049,0.316,-5.337
0.212,0.052,0.319,-5.337
0.203,0.053,0.320,-5.337
0.265,0.050,0.319,-5.337
0.276,0.051,0.319,-5.337
0.217,0.054,0.316,-5.337
0.158,0.054,0.313,-5.337
0.125,0.052,0.312,-5.337
0.161,0.053,0.316,-5.337
0.175,0.053,0.316,-5.337
0.192,0.057,0.315,-5.337
0.218,0.055,0.312,-5.337
0.281,0.052,0.315,-5.337
0.291,0.052,0.319,-5.337
0.211,0.054,0.320,-5.337
0.158,0.054,0.318,-5.337
0.220,0.052,0.318,-5.337
0.274,0.054,0.318,-5.337
0.206,0.057,0.317,-5.337
0.168,0.058,0.318,-5.337
0.179,0.055,0.319,-5.337
0.148,0.055,0.319,-5.337
0.162,0.054,0.315,-5.337
0.188,0.056,0.317,-5.337
0.200,0.056,0.318,-5.337
0.268,0.055,0.319,-5.337
0.277,0.054,0.318,-5.337
0.297,0.056,0.318,-5.337
0.279,0.057,0.316,-5.337
0.170,0.058,0.319,-5.337
0.146,0.057,0.319,-5.337
0.196,0.061,0.318,-5.337
0.185,0.064,0.315,-5.337
0.174,0.061,0.314,-5.337
0.169,0.060,0.316,-5.337
0.216,0.061,0.315,-5.337
0.226,0.060,0.313,-5.337
0.230,0.057,0.316,-5.337
0.267,0.055,0.319,-5.337
0.252,0.058,0.322,-5.337
0.174,0.061,0.321,-5.337
0.186,0.061,0.318,-5.337
0.162,0.059,0.314,-5.337
0.169,0.054,0.314,-5.337
0.189,0.055,0.313,-5.337
0.183,0.054,0.315,-5.337
0.145,0.059,0.319,-5.337
0.181,0.057,0.319,-5.337
0.190,0.054,0.319,-5.337
0.155,0.056,0.316,-5.337
0.233,0.055,0.319,-5.337
0.275,0.055,0.319,-5.337
0.243,0.057,0.317,-5.337
0.250,0.054,0.316,-5.337
0.287,0.054,0.315,-5.337
0.270,0.054,0.316,-5.337
0.210,0.055,0.318,-5.337
0.179,0.059,0.318,-5.337
0.194,0.060,0.317,-5.337
0.184,0.059,0.314,-5.337
0.119,0.059,0.316,-5.337
0.134,0.057,0.319,-5.337
0.120,0.058,0.316,-5.337
0.156,0.056,0.314,-5.337
0.253,0.054,0.316,-5.337
0.258,0.054,0.315,-5.337
0.139,0.057,0.314,-5.337
0.132,0.059,0.314,-5.337
0.164,0.058,0.314,-5.337
0.208,0.056,0.315,-5.337
0.213,0.055,0.312,-5.337
0.171,0.057,0.316,-5.337
0.114,0.059,0.320,-5.337
0.093,0.056,0.319,-5.337
0.209,0.051,0.315,-5.337
0.257,0.052,0.313,-5.337
0.126,0.055,0.313,-5.337
0.100,0.056,0.315,-5.337
0.120,0.057,0.317,-5.337
0.182,0.058,0.319,-5.337
0.221,0.058,0.320,-5.337
0.189,0.059,0.318,-5.337
0.153,0.058,0.314,-5.337
0.203,0.055,0.311,-5.337
0.248,0.054,0.312,-5.337
0.228,0.054,0.314,-5.337
0.186,0.055,0.317,-5.337
0.166,0.055,0.317,-5.337
0.227,0.053,0.320,-5.337
0.225,0.058,0.321,-5.337
0.181,0.054,0.317,-5.337
0.171,0.058,0.311,-5.337
0.170,0.058,0.314,-5.337
0.137,0.055,0.317,-5.337
0.117,0.054,0.321,-5.337
0.181,0.051,0.319,-5.337
0.176,0.053,0.318,-5.337
0.150,0.052,0.316,-5.337
0.115,0.056,0.315,-5.337
0.184,0.051,0.317,-5.337
0.230,0.054,0.318,-5.337
0.192,0.055,0.315,-5.337
0.231,0.052,0.313,-5.337
0.213,0.052,0.313,-5.337
0.175,0.049,0.313,-5.337
0.275,0.047,0.315,-5.337
0.243,0.049,0.318,-5.337
0.182,0.048,0.321,-5.337
0.166,0.049,0.318,-5.337
0.166,0.050,0.316,-5.337
0.141,0.049,0.314,-5.337
0.141,0.049,0.316,-5.337
0.192,0.050,0.321,-5.337
0.211,0.051,0.321,-5.337
0.202,0.051,0.315,-5.337
0.144,0.052,0.314,-5.337
0.142,0.050,0.315,-5.337
0.195,0.048,0.318,-5.337
0.250,0.042,0.317,-5.337
0.252,0.046,0.318,-5.337
0.270,0.048,0.317,-5.337
0.189,0.053,0.316,-5.337
0.157,0.048,0.313,-5.337
0.237,0.042,0.313,-5.337
0.233,0.045,0.313,-5.337
0.150,0.050,0.316,-5.337
0.124,0.046,0.318,-5.337
0.140,0.047,0.314,-5.337
0.136,0.049,0.311,-5.337
0.168,0.049,0.317,-5.337
0.195,0.046,0.324,-5.337
0.205,0.044,0.326,-5.337
0.208,0.044,0.325,-5.337
0.219,0.045,0.323,-5.337
0.260,0.042,0.320,-5.337
0.257,0.041,0.321,-5.337
0.166,0.045,0.324,-5.337
0.161,0.046,0.320,-5.337
0.153,0.048,0.319,-5.337
0.177,0.047,0.318,-5.337
0.230,0.045,0.318,-5.337
0.205,0.044,0.312,-5.337
0.173,0.043,0.307,-5.337
0.229,0.040,0.310,-5.337
0.229,0.041,0.319,-5.337
0.159,0.041,0.327,-5.337
0.104,0.046,0.326,-5.337
0.114,0.044,0.322,-5.337
0.130,0.045,0.321,-5.337
0.190,0.042,0.319,-5.337
0.185,0.039,0.320,-5.337
0.217,0.037,0.321,-5.337
0.223,0.038,0.320,-5.337
0.242,0.038,0.319,-5.337
0.221,0.036,0.315,-5.337
0.215,0.037,0.313,-5.337
0.265,0.038,0.315,-5.337
0.234,0.040,0.318,-5.337
0.157,0.043,0.319,-5.337
0.114,0.041,0.321,-5.337
0.160,0.040,0.323,-5.337
0.226,0.038,0.325,-5.337
0.239,0.035,0.323,-5.337
0.193,0.038,0.320,-5.337
0.234,0.035,0.317,-5.337
0.342,0.034,0.315,-5.337
0.362,0.035,0.314,-5.337
0.370,0.036,0.315,-5.337
0.282,0.039,0.317,-5.337
0.205,0.042,0.316,-5.337
0.186,0.040,0.316,-5.337
0.151,0.042,0.318,-5.337
0.206,0.039,0.318,-5.337
0.223,0.038,0.319,-5.337
0.233,0.035,0.317,-5.337
0.215,0.040,0.316,-5.337
0.167,0.041,0.319,-5.337
0.183,0.038,0.320,-5.337
0.176,0.043,0.321,-5.337
0.118,0.040,0.318,-5.337
0.104,0.041,0.315,-5.337
0.128,0.040,0.314,-5.337
0.170,0.039,0.318,-5.337
0.147,0.042,0.321,-5.337
0.116,0.040,0.320,-5.337
0.136,0.037,0.316,-5.337
0.200,0.034,0.315,-5.337
0.189,0.035,0.313,-5.337
0.161,0.040,0.316,-5.337
0.190,0.038,0.316,-5.337
0.227,0.035,0.312,-5.337
0.254,0.030,0.311,-5.337
0.214,0.036,0.314,-5.337
0.208,0.034,0.319,-5.337
0.262,0.036,0.323,-5.337
0.274,0.034,0.322,-5.337
0.308,0.032,0.318,-5.337
0.216,0.035,0.315,-5.337
0.209,0.033,0.314,-5.337
0.251,0.033,0.316,-5.337
0.232,0.034,0.314,-5.337
0.273,0.034,0.313,-5.337
0.289,0.037,0.314,-5.337
0.240,0.036,0.316,-5.337
0.184,0.034,0.315,-5.337
0.167,0.034,0.316,-5.337
0.161,0.035,0.316,-5.337
0.111,0.037,0.319,-5.337
0.107,0.034,0.319,-5.337
0.149,0.035,0.319,-5.337
0.187,0.037,0.321,-5.337
0.160,0.037,0.319,-5.337
0.105,0.037,0.317,-5.337
0.200,0.037,0.312,-5.337
0.285,0.036,0.309,-5.337
0.248,0.034,0.314,-5.337
0.262,0.032,0.317,-5.337
0.300,0.035,0.319,-5.337
0.282,0.037,0.317,-5.337
0.223,0.037,0.315,-5.337
0.251,0.034,0.315,-5.337
0.247,0.035,0.315,-5.337
0.180,0.036,0.317,-5.337
0.156,0.034,0.319,-5.337
0.210,0.034,0.318,-5.337
0.245,0.035,0.313,-5.337
0.226,0.038,0.308,-5.337
0.191,0.037,0.306,-5.337
0.157,0.032,0.309,-5.337
0.145,0.029,0.311,-5.337
0.168,0.030,0.315,-5.337
0.174,0.030,0.322,-5.337
0.176,0.033,0.328,-5.337
0.182,0.032,0.325,-5.337
0.186,0.033,0.321,-5.337
0.132,0.036,0.317,-5.337
0.150,0.036,0.312,-5.337
0.175,0.033,0.312,-5.337
0.209,0.028,0.314,-5.337
0.238,0.030,0.319,-5.337
0.254,0.034,0.323,-5.337
0.244,0.036,0.320,-5.337
0.213,0.036,0.319,-5.337
0.160,0.033,0.318,-5.337
0.214,0.036,0.316,-5.337
0.235,0.037,0.318,-5.337
0.163,0.037,0.320,-5.337
0.145,0.036,0.317,-5.337
0.208,0.035,0.313,-5.337
0.235,0.039,0.312,-5.337
0.110,0.043,0.312,-5.337
0.064,0.039,0.314,-5.337
0.179,0.035,0.317,-5.337
0.252,0.036,0.321,-5.337
0.285,0.036,0.323,-5.337
0.327,0.033,0.321,-5.337
0.260,0.035,0.317,-5.337
0.201,0.038,0.313,-5.337
0.239,0.035,0.310,-5.337
0.261,0.037,0.313,-5.337
0.198,0.036,0.315,-5.337
0.171,0.033,0.317,-5.337
0.210,0.031,0.320,-5.337
0.255,0.035,0.322,-5.337
0.232,0.038,0.318,-5.337
0.175,0.039,0.313,-5.337
0.129,0.039,0.311,-5.337
0.116,0.038,0.313,-5.337
0.156,0.038,0.319,-5.337
0.230,0.035,0.322,-5.337
0.236,0.035,0.320,-5.337
0.163,0.040,0.315,-5.337
0.129,0.039,0.317,-5.337
0.165,0.036,0.321,-5.337
0.156,0.036,0.322,-5.337
0.131,0.038,0.316,-5.337
0.179,0.040,0.315,-5.337
0.121,0.040,0.316,-5.337
0.031,0.039,0.317,-5.337
0.127,0.034,0.316,-5.337
0.242,0.036,0.315,-5.337
0.234,0.037,0.313,-5.337
0.263,0.036,0.317,-5.337
0.319,0.035,0.319,-5.337
0.264,0.039,0.319,-5.337
0.267,0.037,0.316,-5.337
0.232,0.036,0.315,-5.337
0.232,0.033,0.317,-5.337
0.191,0.037,0.317,-5.337
0.131,0.039,0.315,-5.337
0.149,0.036,0.314,-5.337
0.192,0.036,0.317,-5.337
0.199,0.036,0.321,-5.337
0.268,0.034,0.322,-5.337
0.308,0.036,0.319,-5.337
0.243,0.039,0.317,-5.337
0.218,0.039,0.316,-5.337
0.199,0.037,0.321,-5.337
0.155,0.033,0.327,-5.337
0.094,0.036,0.326,-5.337
0.114,0.037,0.317,-5.337
0.142,0.041,0.311,-5.337
0.191,0.036,0.309,-5.337
0.261,0.036,0.312,-5.337
0.286,0.036,0.315,-5.337
0.265,0.035,0.318,-5.337
0.256,0.037,0.320,-5.337
0.209,0.038,0.322,-5.337
0.210,0.036,0.320,-5.337
0.294,0.037,0.317,-5.337
0.252,0.037,0.317,-5.337
0.148,0.042,0.316,-5.337
0.127,0.036,0.316,-5.337
0.200,0.030,0.314,-5.337
0.267,0.032,0.312,-5.337
0.161,0.039,0.315,-5.337
0.104,0.037,0.317,-5.337
0.176,0.036,0.317,-5.337
0.185,0.037,0.319,-5.337
0.147,0.036,0.320,-5.337
0.250,0.033,0.324,-5.337
0.333,0.031,0.322,-5.337
0.196,0.036,0.317,-5.337
0.069,0.040,0.315,-5.337
0.098,0.039,0.317,-5.337
0.193,0.034,0.316,-5.337
0.209,0.036,0.315,-5.337
0.230,0.037,0.316,-5.337
0.255,0.040,0.318,-5.337
0.215,0.038,0.319,-5.337
0.201,0.037,0.318,-5.337
0.111,0.037,0.318,-5.337
0.065,0.038,0.321,-5.337
0.143,0.037,0.318,-5.337
0.200,0.035,0.314,-5.337
0.148,0.037,0.310,-5.337
0.096,0.037,0.315,-5.337
0.150,0.038,0.320,-5.337
0.209,0.037,0.323,-5.337
0.206,0.039,0.321,-5.337
0.273,0.039,0.317,-5.337
0.331,0.040,0.315,-5.337
0.253,0.042,0.315,-5.337
0.176,0.039,0.314,-5.337
0.187,0.039,0.313,-5.337
0.210,0.038,0.313,-5.337
0.150,0.038,0.310,-5.337
0.136,0.035,0.309,-5.337
0.162,0.034,0.312,-5.337
0.189,0.039,0.316,-5.337
0.137,0.040,0.318,-5.337
0.156,0.040,0.319,-5.337
0.188,0.041,0.320,-5.337
0.161,0.042,0.320,-5.337
0.209,0.043,0.319,-5.337
0.204,0.043,0.317,-5.337
0.142,0.040,0.312,-5.337
0.122,0.039,0.309,-5.337
0.213,0.036,0.312,-5.337
0.231,0.040,0.317,-5.337
0.256,0.039,0.318,-5.337
0.258,0.037,0.316,-5.337
0.219,0.037,0.319,-5.337
0.125,0.039,0.324,-5.337
0.130,0.041,0.322,-5.337
0.166,0.042,0.318,-5.337
0.219,0.037,0.317,-5.337
0.289,0.035,0.317,-5.337
0.226,0.040,0.317,-5.337
0.126,0.041,0.314,-5.337
0.106,0.039,0.314,-5.337
0.163,0.038,0.317,-5.337
0.193,0.036,0.315,-5.337
0.208,0.038,0.311,-5.337
0.278,0.039,0.312,-5.337
0.286,0.040,0.320,-5.337
0.191,0.038,0.323,-5.337
0.178,0.036,0.320,-5.337
0.253,0.037,0.316,-5.337
0.289,0.038,0.314,-5.337
0.215,0.041,0.315,-5.337
0.178,0.044,0.312,-5.337
0.190,0.043,0.313,-5.337
0.225,0.043,0.318,-5.337
0.236,0.045,0.323,-5.337
0.244,0.045,0.324,-5.337
0.250,0.045,0.320,-5.337
0.224,0.045,0.319,-5.337
0.248,0.045,0.318,-5.337
0.244,0.045,0.317,-5.337
0.168,0.042,0.312,-5.337
0.140,0.037,0.312,-5.337
0.201,0.035,0.319,-5.337
0.227,0.036,0.321,-5.337
0.164,0.037,0.316,-5.337
0.097,0.040,0.314,-5.337
0.081,0.039,0.314,-5.337
0.138,0.040,0.318,-5.337
0.205,0.040,0.318,-5.337
0.146,0.043,0.317,-5.337
0.109,0.042,0.316,-5.337
0.131,0.042,0.318,-5.337
0.132,0.043,0.317,-5.337
0.114,0.041,0.314,-5.337
0.079,0.042,0.314,-5.337
0.122,0.041,0.317,-5.337
0.184,0.039,0.320,-5.337
0.232,0.038,0.322,-5.337
0.224,0.038,0.323,-5.337
0.227,0.039,0.322,-5.337
0.184,0.038,0.321,-5.337
0.131,0.039,0.317,-5.337
0.090,0.042,0.315,-5.337
0.075,0.044,0.317,-5.337
0.133,0.043,0.319,-5.337
0.151,0.040,0.317,-5.337
0.239,0.038,0.318,-5.337
0.271,0.038,0.320,-5.337
0.283,0.039,0.320,-5.337
0.261,0.041,0.321,-5.337
0.189,0.044,0.321,-5.337
0.160,0.042,0.316,-5.337
0.161,0.040,0.316,-5.337
0.195,0.038,0.318,-5.337
0.193,0.042,0.319,-5.337
0.188,0.040,0.320,-5.337
0.240,0.040,0.322,-5.337
0.258,0.040,0.323,-5.337
0.207,0.040,0.319,-5.337
0.229,0.040,0.314,-5.337
0.197,0.043,0.315,-5.337
0.153,0.047,0.319,-5.337
0.199,0.046,0.320,-5.337
0.225,0.045,0.317,-5.337
0.183,0.048,0.315,-5.337
0.134,0.049,0.316,-5.337
0.153,0.047,0.315,-5.337
0.166,0.050,0.316,-5.337
0.172,0.050,0.316,-5.337
0.169,0.049,0.320,-5.337
0.217,0.045,0.320,-5.337
0.203,0.047,0.319,-5.337
0.178,0.045,0.317,-5.337
0.164,0.051,0.319,-5.337
0.183,0.048,0.319,-5.337
0.158,0.045,0.318,-5.337
0.155,0.044,0.317,-5.337
0.218,0.045,0.314,-5.337
0.208,0.046,0.315,-5.337
0.183,0.052,0.316,-5.337
0.112,0.056,0.318,-5.337
0.115,0.054,0.321,-5.337
0.197,0.050,0.320,-5.337
0.119,0.055,0.315,-5.337
0.048,0.053,0.310,-5.337
0.145,0.048,0.314,-5.337
0.166,0.048,0.318,-5.337
0.131,0.047,0.318,-5.337
0.124,0.048,0.317,-5.337
0.140,0.052,0.314,-5.337
0.153,0.058,0.316,-5.337
0.108,0.058,0.315,-5.337
0.041,0.053,0.312,-5.337
0.144,0.048,0.309,-5.337
0.254,0.048,0.311,-5.337
0.266,0.049,0.315,-5.337
0.171,0.051,0.319,-5.337
0.148,0.049,0.321,-5.337
0.178,0.049,0.318,-5.337
0.219,0.053,0.316,-5.337
0.271,0.054,0.316,-5.337
0.369,0.051,0.319,-5.337
0.315,0.050,0.317,-5.337
0.196,0.050,0.313,-5.337
0.233,0.050,0.311,-5.337
0.294,0.049,0.314,-5.337
0.252,0.051,0.315,-5.337
0.235,0.053,0.318,-5.337
0.224,0.051,0.318,-5.337
0.202,0.051,0.316,-5.337
0.197,0.052,0.312,-5.337
0.174,0.056,0.314,-5.337
0.123,0.053,0.315,-5.337
0.166,0.050,0.316,-5.337
0.210,0.049,0.318,-5.337
0.171,0.054,0.316,-5.337
0.138,0.052,0.312,-5.337
0.162,0.049,0.312,-5.337
0.183,0.049,0.312,-5.337
0.213,0.050,0.314,-5.337
0.202,0.049,0.316,-5.337
0.177,0.051,0.318,-5.337
0.129,0.053,0.318,-5.337
0.160,0.051,0.317,-5.337
0.129,0.052,0.315,-5.337
0.110,0.050,0.317,-5.337
0.165,0.052,0.322,-5.337
0.178,0.055,0.321,-5.337
0.198,0.054,0.316,-5.337
0.211,0.051,0.316,-5.337
0.196,0.053,0.317,-5.337
0.199,0.053,0.316,-5.337
0.135,0.054,0.320,-5.337
0.130,0.053,0.319,-5.337
0.175,0.056,0.314,-5.337
0.227,0.056,0.310,-5.337
0.199,0.057,0.309,-5.337
0.159,0.055,0.310,-5.337
0.218,0.052,0.314,-5.337
0.258,0.051,0.317,-5.337
0.187,0.054,0.318,-5.337
0.129,0.054,0.317,-5.337
0.135,0.054,0.315,-5.337
0.173,0.052,0.312,-5.337
0.262,0.051,0.314,-5.337
0.272,0.050,0.317,-5.337
0.247,0.054,0.320,-5.337
0.229,0.056,0.318,-5.337
0.273,0.052,0.317,-5.337
0.215,0.056,0.319,-5.337
0.172,0.060,0.316,-5.337
0.220,0.058,0.313,-5.337
0.235,0.058,0.314,-5.337
0.226,0.057,0.317,-5.337
0.301,0.054,0.317,-5.337
0.332,0.052,0.313,-5.337
0.214,0.054,0.310,-5.337
0.161,0.054,0.314,-5.337
0.122,0.054,0.316,-5.337
0.103,0.055,0.317,-5.337
0.112,0.050,0.316,-5.337
0.158,0.051,0.318,-5.337
0.227,0.050,0.314,-5.337
0.239,0.050,0.312,-5.337
0.202,0.049,0.313,-5.337
0.214,0.048,0.314,-5.337
0.262,0.050,0.315,-5.337
0.153,0.054,0.313,-5.337
0.092,0.054,0.312,-5.337
0.179,0.050,0.316,-5.337
0.176,0.052,0.316,-5.337
0.161,0.054,0.315,-5.337
0.240,0.051,0.317,-5.337
0.320,0.050,0.317,-5.337
0.259,0.056,0.315,-5.337
0.232,0.059,0.312,-5.337
0.204,0.056,0.315,-5.337
0.171,0.055,0.316,-5.337
0.160,0.055,0.318,-5.337
0.128,0.055,0.315,-5.337
0.127,0.060,0.315,-5.337
0.181,0.059,0.313,-5.337
0.159,0.058,0.315,-5.337
0.054,0.057,0.316,-5.337
0.093,0.053,0.318,-5.337
0.228,0.051,0.318,-5.337
0.235,0.052,0.319,-5.337
0.182,0.051,0.321,-5.337
0.159,0.053,0.320,-5.337
0.184,0.054,0.317,-5.337
0.120,0.055,0.315,-5.337
0.068,0.055,0.316,-5.337
0.159,0.056,0.317,-5.337
0.227,0.058,0.315,-5.337
0.159,0.059,0.313,-5.337
0.080,0.059,0.315,-5.337
0.152,0.058,0.317,-5.337
0.229,0.056,0.320,-5.337
0.195,0.053,0.324,-5.337
0.270,0.053,0.320,-5.337
0.266,0.053,0.313,-5.337
0.193,0.055,0.310,-5.337
0.156,0.056,0.311,-5.337
0.193,0.055,0.317,-5.337
0.146,0.056,0.319,-5.337
0.107,0.054,0.317,-5.337
0.127,0.054,0.317,-5.337
0.164,0.055,0.319,-5.337
0.149,0.054,0.318,-5.337
0.201,0.051,0.313,-5.337
0.209,0.053,0.311,-5.337
0.195,0.055,0.317,-5.337
0.222,0.050,0.315,-5.337
0.289,0.049,0.314,-5.337
0.229,0.051,0.313,-5.337
0.176,0.052,0.314,-5.337
0.158,0.054,0.315,-5.337
0.178,0.053,0.319,-5.337
0.235,0.051,0.322,-5.337
0.231,0.051,0.320,-5.337
0.177,0.049,0.321,-5.337
0.193,0.050,0.319,-5.337
0.200,0.052,0.319,-5.337
0.205,0.050,0.314,-5.337
0.201,0.047,0.312,-5.337
0.233,0.050,0.315,-5.337
0.258,0.049,0.314,-5.337
0.172,0.052,0.310,-5.337
0.117,0.054,0.314,-5.337
0.119,0.053,0.319,-5.337
0.135,0.054,0.320,-5.337
0.070,0.055,0.317,-5.337
0.071,0.051,0.317,-5.337
0.133,0.050,0.317,-5.337
0.155,0.050,0.313,-5.337
0.158,0.049,0.311,-5.337
0.151,0.050,0.313,-5.337
0.205,0.051,0.317,-5.337
0.206,0.049,0.316,-5.337
0.217,0.049,0.319,-5.337
0.165,0.051,0.319,-5.337
0.170,0.049,0.317,-5.337
0.219,0.047,0.313,-5.337
0.185,0.043,0.312,-5.337
0.218,0.042,0.312,-5.337
0.245,0.043,0.315,-5.337
0.189,0.045,0.316,-5.337
0.215,0.042,0.316,-5.337
0.221,0.038,0.313,-5.337
0.263,0.038,0.314,-5.337
0.176,0.041,0.315,-5.337
0.087,0.047,0.313,-5.337
0.100,0.046,0.314,-5.337
0.121,0.045,0.315,-5.337
0.134,0.045,0.319,-5.337
0.125,0.046,0.319,-5.337
0.135,0.046,0.316,-5.337
0.188,0.042,0.315,-5.337
0.184,0.048,0.316,-5.337
0.151,0.048,0.316,-5.337
0.173,0.047,0.315,-5.337
0.192,0.048,0.316,-5.337
0.230,0.048,0.317,-5.337
0.234,0.048,0.314,-5.337
0.213,0.042,0.315,-5.337
0.160,0.039,0.317,-5.337
0.136,0.042,0.316,-5.337
0.133,0.046,0.309,-5.337
0.097,0.047,0.307,-5.337
0.142,0.043,0.310,-5.337
0.241,0.040,0.318,-5.337
0.305,0.038,0.323,-5.337
0.304,0.042,0.325,-5.337
0.242,0.045,0.319,-5.337
0.179,0.042,0.312,-5.337
0.224,0.041,0.312,-5.337
0.152,0.045,0.315,-5.337
0.113,0.047,0.317,-5.337
0.198,0.045,0.316,-5.337
0.264,0.041,0.313,-5.337
0.216,0.041,0.314,-5.337
0.158,0.043,0.316,-5.337
0.201,0.042,0.319,-5.337
0.195,0.039,0.317,-5.337
0.236,0.042,0.314,-5.337
0.241,0.044,0.316,-5.337
0.185,0.046,0.320,-5.337
0.148,0.049,0.322,-5.337
0.224,0.048,0.318,-5.337
0.268,0.049,0.317,-5.337
0.157,0.047,0.315,-5.337
0.115,0.050,0.317,-5.337
0.148,0.052,0.317,-5.337
0.231,0.047,0.319,-5.337
0.254,0.045,0.321,-5.337
0.196,0.046,0.319,-5.337
0.201,0.043,0.316,-5.337
0.244,0.046,0.315,-5.337
0.271,0.042,0.315,-5.337
0.279,0.042,0.318,-5.337
0.245,0.041,0.321,-5.337
0.220,0.042,0.319,-5.337
0.251,0.043,0.317,-5.337
0.268,0.044,0.319,-5.337
0.203,0.046,0.318,-5.337
0.190,0.049,0.319,-5.337
0.226,0.045,0.320,-5.337
0.221,0.043,0.322,-5.337
0.158,0.044,0.321,-5.337
0.126,0.048,0.318,-5.337
0.169,0.046,0.319,-5.337
0.197,0.045,0.321,-5.337
0.108,0.047,0.323,-5.337
0.074,0.043,0.320,-5.337
0.131,0.043,0.318,-5.337
0.141,0.042,0.315,-5.337
0.173,0.043,0.310,-5.337
0.248,0.040,0.310,-5.337
0.322,0.040,0.313,-5.337
0.214,0.043,0.318,-5.337
0.102,0.044,0.319,-5.337
0.137,0.041,0.315,-5.337
0.190,0.044,0.316,-5.337
0.183,0.044,0.318,-5.337
0.138,0.046,0.318,-5.337
0.078,0.045,0.319,-5.337
0.132,0.044,0.320,-5.337
0.205,0.040,0.322,-5.337
0.183,0.042,0.322,-5.337
0.167,0.043,0.319,-5.337
0.114,0.039,0.317,-5.337
0.129,0.037,0.317,-5.337
0.251,0.034,0.317,-5.337
0.309,0.036,0.320,-5.337
0.270,0.036,0.321,-5.337
0.164,0.034,0.321,-5.337
0.195,0.036,0.319,-5.337
0.281,0.036,0.318,-5.337
0.273,0.040,0.314,-5.337
0.173,0.039,0.313,-5.337
0.154,0.036,0.315,-5.337
0.139,0.035,0.319,-5.337
0.132,0.034,0.321,-5.337
0.134,0.037,0.320,-5.337
0.073,0.034,0.316,-5.337
0.140,0.032,0.314,-5.337
0.237,0.032,0.312,-5.337
0.193,0.033,0.313,-5.337
0.238,0.033,0.315,-5.337
0.304,0.034,0.318,-5.337
0.183,0.038,0.317,-5.337
0.064,0.042,0.320,-5.337
0.117,0.038,0.318,-5.337
0.151,0.037,0.315,-5.337
0.144,0.035,0.313,-5.337
0.183,0.035,0.311,-5.337
0.239,0.036,0.316,-5.337
0.265,0.035,0.317,-5.337
0.263,0.031,0.317,-5.337
0.237,0.031,0.315,-5.337
0.244,0.034,0.317,-5.337
0.255,0.035,0.317,-5.337
0.216,0.037,0.314,-5.337
0.188,0.036,0.310,-5.337
0.158,0.037,0.312,-5.337
0.180,0.037,0.317,-5.337
0.194,0.037,0.318,-5.337
0.164,0.031,0.316,-5.337
0.187,0.035,0.317,-5.337
0.260,0.032,0.317,-5.337
0.234,0.033,0.320,-5.337
0.212,0.034,0.323,-5.337
0.195,0.036,0.321,-5.337
0.197,0.036,0.313,-5.337
0.203,0.036,0.310,-5.337
0.200,0.033,0.314,-5.337
0.194,0.035,0.317,-5.337
0.134,0.038,0.317,-5.337
0.085,0.042,0.314,-5.337
0.147,0.038,0.311,-5.337
0.262,0.033,0.316,-5.337
0.281,0.033,0.321,-5.337
0.171,0.033,0.322,-5.337
0.160,0.031,0.321,-5.337
0.167,0.029,0.317,-5.337
0.165,0.033,0.312,-5.337
0.133,0.032,0.310,-5.337
0.228,0.034,0.312,-5.337
0.314,0.032,0.314,-5.337
0.215,0.034,0.316,-5.337
0.169,0.034,0.320,-5.337
0.206,0.035,0.322,-5.337
0.252,0.036,0.320,-5.337
0.257,0.032,0.319,-5.337
0.182,0.033,0.318,-5.337
0.181,0.038,0.322,-5.337
0.183,0.040,0.320,-5.337
0.170,0.039,0.315,-5.337
0.195,0.035,0.310,-5.337
0.262,0.032,0.310,-5.337
0.362,0.032,0.312,-5.337
0.347,0.035,0.315,-5.337
0.273,0.038,0.317,-5.337
0.218,0.039,0.315,-5.337
0.175,0.041,0.314,-5.337
0.149,0.041,0.314,-5.337
0.114,0.040,0.318,-5.337
0.082,0.038,0.320,-5.337
0.126,0.037,0.318,-5.337
0.197,0.039,0.315,-5.337
0.174,0.041,0.312,-5.337
0.179,0.036,0.314,-5.337
0.193,0.034,0.314,-5.337
0.207,0.033,0.314,-5.337
0.198,0.036,0.312,-5.337
0.242,0.032,0.313,-5.337
0.259,0.032,0.317,-5.337
0.218,0.031,0.319,-5.337
0.217,0.029,0.321,-5.337
0.192,0.033,0.319,-5.337
0.201,0.032,0.315,-5.337
0.258,0.034,0.314,-5.337
0.245,0.034,0.318,-5.337
0.222,0.031,0.320,-5.337
0.206,0.032,0.317,-5.337
0.221,0.032,0.316,-5.337
0.226,0.033,0.316,-5.337
0.288,0.028,0.315,-5.337
0.265,0.031,0.313,-5.337
0.197,0.030,0.317,-5.337
0.203,0.031,0.319,-5.337
0.175,0.033,0.319,-5.337
0.252,0.031,0.314,-5.337
0.311,0.032,0.311,-5.337
0.237,0.033,0.313,-5.337
0.147,0.033,0.315,-5.337
0.177,0.029,0.317,-5.337
0.190,0.032,0.318,-5.337
0.198,0.034,0.317,-5.337
0.230,0.032,0.316,-5.337
0.225,0.033,0.315,-5.337
0.158,0.036,0.315,-5.337
0.150,0.034,0.316,-5.337
0.207,0.034,0.317,-5.337
0.232,0.034,0.319,-5.337
0.205,0.033,0.318,-5.337
0.116,0.031,0.316,-5.337
0.192,0.029,0.316,-5.337
0.210,0.032,0.320,-5.337
0.129,0.033,0.317,-5.337
0.156,0.031,0.314,-5.337
0.182,0.027,0.314,-5.337
0.164,0.027,0.317,-5.337
0.089,0.030,0.320,-5.337
0.136,0.031,0.320,-5.337
0.196,0.031,0.314,-5.337
0.213,0.032,0.307,-5.337
0.129,0.034,0.309,-5.337
0.096,0.035,0.316,-5.337
0.173,0.033,0.319,-5.337
0.214,0.031,0.319,-5.337
0.235,0.033,0.320,-5.337
0.244,0.033,0.318,-5.337
