[Parameters]
Operating Mode, Feedback
Subject  AA..ZZ, WT
Session  0..99, 42
No. Trials (1..9999), 500
Mouse Number, 1
Pressure Probe Serial Port, \00\00\00\04COM4
Save additional csv file, TRUE
Save using mouse number, FALSE
A/D Monitor Rate (Hz), 30000.000000
A/D Stimulate Rate (Hz), 30000.000000
A/D input range (+/- V), 5
No. Channels to acquire (N), 2
Pre-Stim Acq. time (ms), 100.000000
Post-Stim Acq. time (ms), 900.000000
Analysis window parameters.M-response Start (ms), 1.100000
Analysis window parameters.M-response Duration (ms), 5.500000
Analysis window parameters.H-response Duration (ms), 6.000000
Analysis window parameters.H-response Start (ms), 6.500000
Feedback window, H response
Proportional gain, 0.100000
Target value, 6.700000
Feedback Ch., 1
Stim Channel to Control (1-4), 4
Trial, 23
Wait for EMG Conditions, FALSE
Channel to monitor (0 - N-1), 1
EMG Hi Limit, 2.000000
EMG Lo Limit, 0.001000
Inter-Stim delay (sec), 10.000000
EMG Monitor Mode, Mean
Time to run Long Stim.(sec), 30
Save Long Stim Data?, OFF
BURST Save time (ms), 1000
BURST Save Interval (x above), 10
Long-Stim. Rep. Rate (Hz), 10.000000
Stim type cluster array.<size(s)>, 4
Stim type cluster array 0.Stimulus Output, Electrical
Stim type cluster array 1.Stimulus Output, OFF
Stim type cluster array 2.Stimulus Output, OFF
Stim type cluster array 3.Stimulus Output, Motor Length
Stim specs cluster array.<size(s)>, 4
Stim specs cluster array 0.Initial Stimulus ampl., 0.300000
Stim specs cluster array 0.Maximum Stimulus, 1.120000
Stim specs cluster array 0.#Pulses in train, 4
Stim specs cluster array 0.Peak Level time (ms), 1.000000
Stim specs cluster array 0.Total pulse period (ms), 150.000000
Stim specs cluster array 0.Start Delay (ms), -50.000000
Stim specs cluster array 0.Pulse Shape, Square
Stim specs cluster array 0.Ramp/Rel. time (ms), 0.100000
Stim specs cluster array 0.Peak Amplitude (V), 0.120000
Stim specs cluster array 1.Initial Stimulus ampl., 0.000000
Stim specs cluster array 1.Maximum Stimulus, 0.000000
Stim specs cluster array 1.#Pulses in train, 3
Stim specs cluster array 1.Peak Level time (ms), 29.000000
Stim specs cluster array 1.Total pulse period (ms), 200.000000
Stim specs cluster array 1.Start Delay (ms), 0.000000
Stim specs cluster array 1.Pulse Shape, Square
Stim specs cluster array 1.Ramp/Rel. time (ms), 0.000000
Stim specs cluster array 1.Peak Amplitude (V), 2.000000
Stim specs cluster array 2.Initial Stimulus ampl., 0.000000
Stim specs cluster array 2.Maximum Stimulus, 0.000000
Stim specs cluster array 2.#Pulses in train, 1
Stim specs cluster array 2.Peak Level time (ms), 25.000000
Stim specs cluster array 2.Total pulse period (ms), 200.000000
Stim specs cluster array 2.Start Delay (ms), 0.000000
Stim specs cluster array 2.Pulse Shape, Square
Stim specs cluster array 2.Ramp/Rel. time (ms), 20.000000
Stim specs cluster array 2.Peak Amplitude (V), 10.000000
Stim specs cluster array 3.Initial Stimulus ampl., 0.000000
Stim specs cluster array 3.Maximum Stimulus, 20.000000
Stim specs cluster array 3.#Pulses in train, 25
Stim specs cluster array 3.Peak Level time (ms), 0.100000
Stim specs cluster array 3.Total pulse period (ms), 4.000000
Stim specs cluster array 3.Start Delay (ms), 205.000000
Stim specs cluster array 3.Pulse Shape, Triangle
Stim specs cluster array 3.Ramp/Rel. time (ms), 3.000000
Stim specs cluster array 3.Peak Amplitude (V), 0.500000
Force cal. (mN/Volt), 100.000000
Force Range (mN), 100.000000
Length cal. (mm/Volt), 10.000000
Length Range (mm), 10.000000
Stim. 1, 0.300000
Stim. 2, 0.000000
Stim. 3, 0.000000
Stim. 4, 0.000000
Monitor acquire time (ms), 100.000000
EMG graph Ymax, 0.100000
Travel limit (mm), 20.000000
Use Pressure Probe, FALSE
Pressure goal (g), 100
Speed (mm/sec), 5.000000
Dwell time (ms), 100.000000
Pressure limit (g), 500.000000
Channel amplitude offset, 0.000000

[DATA]

0.161,0.059,0.347,-5.337
0.143,0.061,0.348,-5.337
0.220,0.058,0.346,-5.337
0.234,0.057,0.343,-5.337
0.170,0.055,0.343,-5.337
0.196,0.054,0.346,-5.337
0.219,0.055,0.346,-5.337
0.230,0.057,0.347,-5.337
0.171,0.057,0.347,-5.337
0.212,0.054,0.348,-5.337
0.291,0.049,0.344,-5.337
0.359,0.048,0.347,-5.337
0.295,0.054,0.348,-5.337
0.216,0.054,0.350,-5.337
0.183,0.049,0.351,-5.337
0.201,0.050,0.350,-5.337
0.143,0.054,0.347,-5.337
0.143,0.052,0.346,-5.337
0.197,0.052,0.344,-5.337
0.169,0.055,0.342,-5.337
0.196,0.054,0.341,-5.337
0.247,0.053,0.344,-5.337
0.273,0.051,0.345,-5.337
0.172,0.052,0.348,-5.337
0.151,0.051,0.349,-5.337
0.166,0.050,0.345,-5.337
0.111,0.050,0.342,-5.337
0.106,0.048,0.341,-5.337
0.263,0.045,0.343,-5.337
0.355,0.045,0.345,-5.337
0.293,0.049,0.348,-5.337
0.208,0.051,0.347,-5.337
0.163,0.050,0.346,-5.337
0.171,0.046,0.343,-5.337
0.210,0.048,0.344,-5.337
0.205,0.048,0.340,-5.337
0.185,0.047,0.339,-5.337
0.189,0.045,0.339,-5.337
0.233,0.048,0.342,-5.337
0.212,0.049,0.344,-5.337
0.144,0.050,0.346,-5.337
0.121,0.049,0.346,-5.337
0.174,0.053,0.346,-5.337
0.154,0.053,0.349,-5.337
0.152,0.053,0.352,-5.337
0.251,0.049,0.350,-5.337
0.232,0.052,0.345,-5.337
0.159,0.052,0.341,-5.337
0.179,0.051,0.341,-5.337
0.191,0.050,0.344,-5.337
0.139,0.051,0.345,-5.337
0.137,0.051,0.346,-5.337
0.135,0.052,0.346,-5.337
0.129,0.051,0.349,-5.337
0.159,0.051,0.346,-5.337
0.239,0.050,0.344,-5.337
0.225,0.052,0.342,-5.337
0.275,0.052,0.345,-5.337
0.292,0.051,0.345,-5.337
0.245,0.053,0.342,-5.337
0.233,0.050,0.341,-5.337
0.210,0.053,0.343,-5.337
0.165,0.052,0.344,-5.337
0.181,0.049,0.343,-5.337
0.173,0.046,0.343,-5.337
0.146,0.051,0.344,-5.337
0.083,0.056,0.345,-5.337
0.091,0.049,0.344,-5.337
0.201,0.043,0.343,-5.337
0.216,0.044,0.347,-5.337
0.148,0.049,0.347,-5.337
0.173,0.049,0.342,-5.337
0.226,0.048,0.342,-5.337
0.162,0.049,0.350,-5.337
0.091,0.049,0.355,-5.337
0.140,0.045,0.350,-5.337
0.205,0.044,0.342,-5.337
0.268,0.045,0.338,-5.337
0.236,0.046,0.342,-5.337
0.194,0.044,0.344,-5.337
0.142,0.047,0.344,-5.337
0.170,0.049,0.343,-5.337
0.184,0.050,0.342,-5.337
0.170,0.047,0.340,-5.337
0.224,0.047,0.341,-5.337
0.188,0.045,0.345,-5.337
0.161,0.044,0.350,-5.337
0.151,0.046,0.348,-5.337
0.166,0.042,0.343,-5.337
0.117,0.042,0.341,-5.337
0.093,0.043,0.342,-5.337
0.148,0.044,0.345,-5.337
0.154,0.041,0.347,-5.337
0.140,0.040,0.348,-5.337
0.145,0.041,0.346,-5.337
0.144,0.042,0.345,-5.337
0.120,0.042,0.346,-5.337
0.203,0.043,0.350,-5.337
0.219,0.043,0.345,-5.337
0.189,0.045,0.343,-5.337
0.191,0.044,0.345,-5.337
0.198,0.042,0.344,-5.337
0.183,0.040,0.340,-5.337
0.217,0.040,0.339,-5.337
0.247,0.041,0.341,-5.337
0.252,0.043,0.344,-5.337
0.267,0.041,0.345,-5.337
0.218,0.044,0.343,-5.337
0.128,0.044,0.342,-5.337
0.128,0.042,0.342,-5.337
0.184,0.043,0.342,-5.337
0.180,0.047,0.344,-5.337
0.209,0.047,0.346,-5.337
0.215,0.048,0.346,-5.337
0.172,0.047,0.345,-5.337
0.205,0.045,0.344,-5.337
0.228,0.044,0.346,-5.337
0.156,0.046,0.346,-5.337
0.149,0.043,0.344,-5.337
0.215,0.040,0.342,-5.337
0.207,0.042,0.344,-5.337
0.200,0.042,0.345,-5.337
0.224,0.040,0.348,-5.337
0.289,0.040,0.346,-5.337
0.251,0.042,0.348,-5.337
0.142,0.041,0.347,-5.337
0.179,0.035,0.342,-5.337
0.223,0.035,0.342,-5.337
0.225,0.041,0.346,-5.337
0.271,0.041,0.348,-5.337
0.260,0.037,0.346,-5.337
0.162,0.039,0.342,-5.337
0.167,0.042,0.343,-5.337
0.180,0.045,0.346,-5.337
0.122,0.044,0.350,-5.337
0.058,0.044,0.347,-5.337
0.104,0.045,0.341,-5.337
0.159,0.045,0.342,-5.337
0.137,0.042,0.342,-5.337
0.157,0.043,0.345,-5.337
0.239,0.042,0.345,-5.337
0.264,0.043,0.348,-5.337
0.281,0.040,0.347,-5.337
0.291,0.041,0.345,-5.337
0.258,0.043,0.341,-5.337
0.208,0.045,0.344,-5.337
0.177,0.047,0.345,-5.337
0.214,0.042,0.344,-5.337
0.257,0.038,0.343,-5.337
0.221,0.041,0.342,-5.337
0.165,0.044,0.343,-5.337
0.121,0.043,0.345,-5.337
0.128,0.038,0.347,-5.337
0.205,0.035,0.346,-5.337
0.222,0.036,0.347,-5.337
0.106,0.041,0.347,-5.337
0.034,0.042,0.345,-5.337
0.164,0.039,0.345,-5.337
0.270,0.038,0.347,-5.337
0.235,0.041,0.346,-5.337
0.170,0.042,0.344,-5.337
0.177,0.041,0.344,-5.337
0.209,0.040,0.347,-5.337
0.236,0.037,0.349,-5.337
0.266,0.033,0.350,-5.337
0.274,0.034,0.345,-5.337
0.280,0.035,0.342,-5.337
0.298,0.037,0.344,-5.337
0.274,0.041,0.346,-5.337
0.213,0.040,0.345,-5.337
0.193,0.038,0.344,-5.337
0.174,0.039,0.345,-5.337
0.179,0.044,0.348,-5.337
0.228,0.040,0.346,-5.337
0.240,0.039,0.342,-5.337
0.244,0.039,0.339,-5.337
0.256,0.040,0.342,-5.337
0.266,0.041,0.345,-5.337
0.253,0.044,0.349,-5.337
0.156,0.042,0.349,-5.337
0.187,0.039,0.345,-5.337
0.227,0.040,0.341,-5.337
0.234,0.040,0.338,-5.337
0.203,0.039,0.341,-5.337
0.206,0.038,0.342,-5.337
0.196,0.038,0.344,-5.337
0.168,0.043,0.343,-5.337
0.141,0.045,0.345,-5.337
0.147,0.045,0.344,-5.337
0.177,0.042,0.346,-5.337
0.223,0.041,0.344,-5.337
0.213,0.039,0.344,-5.337
0.163,0.038,0.341,-5.337
0.167,0.043,0.340,-5.337
0.169,0.043,0.341,-5.337
0.163,0.039,0.342,-5.337
0.101,0.036,0.340,-5.337
0.059,0.041,0.339,-5.337
0.097,0.045,0.343,-5.337
0.123,0.044,0.349,-5.337
0.154,0.038,0.350,-5.337
0.194,0.037,0.342,-5.337
0.284,0.036,0.337,-5.337
0.322,0.034,0.339,-5.337
0.301,0.033,0.344,-5.337
0.244,0.036,0.344,-5.337
0.213,0.042,0.342,-5.337
0.161,0.043,0.345,-5.337
0.085,0.043,0.347,-5.337
0.137,0.037,0.343,-5.337
0.181,0.035,0.342,-5.337
0.150,0.036,0.342,-5.337
0.177,0.038,0.346,-5.337
0.276,0.036,0.347,-5.337
0.302,0.037,0.346,-5.337
0.255,0.036,0.346,-5.337
0.180,0.039,0.344,-5.337
0.105,0.040,0.342,-5.337
0.098,0.043,0.341,-5.337
0.159,0.042,0.341,-5.337
0.175,0.038,0.340,-5.337
0.130,0.038,0.340,-5.337
0.126,0.041,0.340,-5.337
0.112,0.042,0.342,-5.337
0.180,0.041,0.342,-5.337
0.192,0.042,0.345,-5.337
0.182,0.042,0.348,-5.337
0.213,0.037,0.348,-5.337
0.236,0.036,0.346,-5.337
0.198,0.039,0.348,-5.337
0.226,0.038,0.346,-5.337
0.246,0.036,0.347,-5.337
0.227,0.038,0.343,-5.337
0.156,0.042,0.340,-5.337
0.140,0.039,0.339,-5.337
0.207,0.037,0.342,-5.337
0.261,0.036,0.343,-5.337
0.261,0.036,0.346,-5.337
0.188,0.038,0.345,-5.337
0.169,0.041,0.342,-5.337
0.202,0.039,0.340,-5.337
0.266,0.039,0.343,-5.337
0.265,0.042,0.348,-5.337
0.198,0.044,0.350,-5.337
0.165,0.040,0.347,-5.337
0.164,0.042,0.345,-5.337
0.138,0.044,0.345,-5.337
0.162,0.042,0.347,-5.337
0.212,0.042,0.347,-5.337
0.177,0.041,0.344,-5.337
0.229,0.042,0.347,-5.337
0.279,0.042,0.349,-5.337
0.209,0.040,0.350,-5.337
0.167,0.042,0.344,-5.337
0.194,0.044,0.344,-5.337
0.213,0.044,0.345,-5.337
0.155,0.044,0.345,-5.337
0.203,0.041,0.341,-5.337
0.192,0.042,0.341,-5.337
0.183,0.041,0.345,-5.337
0.174,0.038,0.348,-5.337
0.245,0.033,0.346,-5.337
0.306,0.036,0.343,-5.337
0.269,0.040,0.341,-5.337
0.181,0.039,0.343,-5.337
0.206,0.038,0.347,-5.337
0.218,0.039,0.350,-5.337
0.180,0.044,0.350,-5.337
0.135,0.046,0.348,-5.337
0.088,0.044,0.346,-5.337
0.098,0.040,0.347,-5.337
0.122,0.041,0.346,-5.337
0.133,0.040,0.347,-5.337
0.200,0.038,0.351,-5.337
0.163,0.039,0.349,-5.337
0.140,0.041,0.347,-5.337
0.183,0.042,0.343,-5.337
0.232,0.044,0.345,-5.337
0.282,0.039,0.347,-5.337
0.286,0.039,0.349,-5.337
0.237,0.044,0.349,-5.337
0.184,0.051,0.347,-5.337
0.185,0.047,0.342,-5.337
0.244,0.042,0.340,-5.337
0.247,0.042,0.343,-5.337
0.271,0.044,0.345,-5.337
0.259,0.048,0.344,-5.337
0.133,0.051,0.343,-5.337
0.078,0.045,0.348,-5.337
0.104,0.045,0.349,-5.337
0.189,0.046,0.346,-5.337
0.297,0.048,0.342,-5.337
0.329,0.048,0.341,-5.337
0.283,0.050,0.342,-5.337
0.237,0.053,0.343,-5.337
0.158,0.054,0.347,-5.337
0.095,0.052,0.346,-5.337
0.129,0.047,0.344,-5.337
0.168,0.049,0.344,-5.337
0.135,0.055,0.344,-5.337
0.148,0.053,0.342,-5.337
0.158,0.046,0.339,-5.337
0.147,0.049,0.342,-5.337
0.152,0.052,0.345,-5.337
0.182,0.053,0.343,-5.337
0.236,0.049,0.344,-5.337
0.235,0.050,0.346,-5.337
0.256,0.050,0.347,-5.337
0.227,0.051,0.345,-5.337
0.190,0.046,0.342,-5.337
0.228,0.044,0.340,-5.337
0.230,0.047,0.340,-5.337
0.237,0.050,0.343,-5.337
0.232,0.048,0.348,-5.337
0.229,0.046,0.347,-5.337
0.210,0.046,0.345,-5.337
0.189,0.049,0.344,-5.337
0.224,0.050,0.344,-5.337
0.238,0.048,0.345,-5.337
0.200,0.047,0.343,-5.337
0.104,0.053,0.342,-5.337
0.080,0.052,0.342,-5.337
0.140,0.051,0.341,-5.337
0.220,0.049,0.343,-5.337
0.258,0.050,0.343,-5.337
0.228,0.049,0.343,-5.337
0.229,0.051,0.344,-5.337
0.197,0.053,0.345,-5.337
0.168,0.050,0.342,-5.337
0.091,0.051,0.339,-5.337
0.147,0.048,0.340,-5.337
0.195,0.052,0.344,-5.337
0.110,0.055,0.344,-5.337
0.102,0.056,0.343,-5.337
0.107,0.055,0.341,-5.337
0.160,0.051,0.340,-5.337
0.138,0.058,0.341,-5.337
0.144,0.058,0.346,-5.337
0.270,0.051,0.352,-5.337
0.262,0.053,0.350,-5.337
0.196,0.054,0.342,-5.337
0.150,0.059,0.338,-5.337
0.116,0.055,0.342,-5.337
0.167,0.048,0.349,-5.337
0.242,0.048,0.350,-5.337
0.157,0.052,0.347,-5.337
0.107,0.056,0.345,-5.337
0.140,0.057,0.340,-5.337
0.126,0.056,0.335,-5.337
0.125,0.053,0.337,-5.337
0.120,0.051,0.342,-5.337
0.100,0.052,0.346,-5.337
0.108,0.051,0.348,-5.337
0.237,0.050,0.347,-5.337
0.276,0.053,0.348,-5.337
0.164,0.056,0.345,-5.337
0.051,0.057,0.343,-5.337
0.200,0.054,0.340,-5.337
0.251,0.053,0.339,-5.337
0.206,0.052,0.342,-5.337
0.112,0.057,0.342,-5.337
0.192,0.053,0.345,-5.337
0.230,0.054,0.344,-5.337
0.161,0.056,0.341,-5.337
0.105,0.058,0.343,-5.337
0.163,0.058,0.345,-5.337
0.165,0.057,0.343,-5.337
0.194,0.061,0.341,-5.337
0.198,0.062,0.339,-5.337
0.153,0.059,0.343,-5.337
0.164,0.057,0.345,-5.337
0.202,0.058,0.346,-5.337
0.197,0.060,0.347,-5.337
0.162,0.059,0.347,-5.337
0.211,0.056,0.344,-5.337
0.258,0.056,0.342,-5.337
0.171,0.058,0.341,-5.337
0.131,0.058,0.341,-5.337
0.217,0.055,0.340,-5.337
0.231,0.056,0.343,-5.337
0.180,0.058,0.343,-5.337
0.172,0.058,0.342,-5.337
0.176,0.059,0.342,-5.337
0.191,0.055,0.346,-5.337
0.224,0.054,0.346,-5.337
0.260,0.054,0.342,-5.337
0.272,0.056,0.345,-5.337
0.226,0.056,0.346,-5.337
0.176,0.055,0.346,-5.337
0.147,0.057,0.341,-5.337
0.080,0.059,0.338,-5.337
0.139,0.057,0.335,-5.337
0.236,0.058,0.340,-5.337
0.238,0.057,0.345,-5.337
0.171,0.056,0.345,-5.337
0.156,0.056,0.345,-5.337
0.174,0.056,0.345,-5.337
0.127,0.057,0.344,-5.337
0.242,0.054,0.346,-5.337
0.326,0.056,0.342,-5.337
0.215,0.060,0.341,-5.337
0.136,0.061,0.341,-5.337
0.113,0.060,0.343,-5.337
0.157,0.055,0.346,-5.337
0.213,0.056,0.346,-5.337
0.179,0.059,0.348,-5.337
0.179,0.057,0.344,-5.337
0.162,0.060,0.343,-5.337
0.129,0.057,0.344,-5.337
0.153,0.057,0.344,-5.337
0.163,0.057,0.337,-5.337
0.152,0.062,0.341,-5.337
0.145,0.063,0.347,-5.337
0.177,0.060,0.346,-5.337
0.190,0.058,0.342,-5.337
0.186,0.059,0.342,-5.337
0.142,0.060,0.343,-5.337
0.136,0.062,0.342,-5.337
0.149,0.061,0.340,-5.337
0.211,0.062,0.342,-5.337
0.171,0.060,0.343,-5.337
0.170,0.061,0.345,-5.337
0.203,0.057,0.348,-5.337
0.262,0.058,0.347,-5.337
0.256,0.062,0.344,-5.337
0.220,0.057,0.344,-5.337
0.273,0.054,0.345,-5.337
0.308,0.054,0.344,-5.337
0.293,0.056,0.343,-5.337
0.212,0.056,0.343,-5.337
0.199,0.052,0.344,-5.337
0.198,0.054,0.341,-5.337
0.119,0.060,0.341,-5.337
0.085,0.059,0.338,-5.337
0.162,0.055,0.340,-5.337
0.173,0.056,0.339,-5.337
0.138,0.060,0.339,-5.337
0.104,0.061,0.342,-5.337
0.165,0.059,0.346,-5.337
0.242,0.057,0.344,-5.337
0.167,0.060,0.343,-5.337
0.105,0.058,0.345,-5.337
0.116,0.055,0.344,-5.337
0.140,0.055,0.341,-5.337
0.128,0.060,0.340,-5.337
0.070,0.063,0.340,-5.337
0.054,0.061,0.344,-5.337
0.129,0.057,0.348,-5.337
0.149,0.056,0.344,-5.337
0.178,0.059,0.339,-5.337
0.206,0.059,0.335,-5.337
0.170,0.058,0.337,-5.337
0.169,0.056,0.338,-5.337
0.167,0.057,0.341,-5.337
0.198,0.058,0.342,-5.337
0.193,0.060,0.341,-5.337
0.205,0.056,0.341,-5.337
0.247,0.057,0.344,-5.337
0.229,0.059,0.344,-5.337
0.191,0.060,0.342,-5.337
0.182,0.061,0.339,-5.337
0.201,0.062,0.340,-5.337
0.211,0.059,0.340,-5.337
0.211,0.058,0.341,-5.337
0.167,0.055,0.339,-5.337
0.183,0.054,0.341,-5.337
0.215,0.055,0.340,-5.337
0.192,0.060,0.333,-5.337
0.118,0.064,0.331,-5.337
0.116,0.063,0.335,-5.337
0.145,0.062,0.342,-5.337
0.187,0.061,0.343,-5.337
0.223,0.061,0.343,-5.337
0.178,0.061,0.341,-5.337
0.086,0.061,0.341,-5.337
0.077,0.060,0.341,-5.337
0.097,0.061,0.342,-5.337
0.064,0.061,0.341,-5.337
0.127,0.064,0.342,-5.337
0.151,0.061,0.338,-5.337
0.198,0.059,0.336,-5.337
0.223,0.060,0.336,-5.337
0.265,0.063,0.338,-5.337
0.231,0.065,0.340,-5.337
0.177,0.066,0.338,-5.337
0.200,0.065,0.337,-5.337
0.208,0.066,0.338,-5.337
0.138,0.065,0.337,-5.337
0.119,0.060,0.337,-5.337
0.241,0.057,0.339,-5.337
0.247,0.061,0.339,-5.337
0.211,0.060,0.339,-5.337
0.219,0.055,0.339,-5.337
0.234,0.053,0.338,-5.337
0.197,0.055,0.336,-5.337
0.199,0.056,0.342,-5.337
0.237,0.052,0.340,-5.337
0.256,0.054,0.343,-5.337
0.205,0.059,0.343,-5.337
0.130,0.062,0.341,-5.337
0.144,0.056,0.335,-5.337
0.278,0.051,0.336,-5.337
0.308,0.050,0.340,-5.337
0.275,0.049,0.341,-5.337
0.278,0.050,0.344,-5.337
0.249,0.052,0.343,-5.337
0.155,0.054,0.341,-5.337
0.110,0.054,0.338,-5.337
0.193,0.053,0.341,-5.337
0.266,0.052,0.345,-5.337
0.290,0.052,0.343,-5.337
0.308,0.054,0.339,-5.337
0.320,0.052,0.339,-5.337
0.301,0.049,0.341,-5.337
0.257,0.052,0.339,-5.337
0.219,0.051,0.339,-5.337
0.204,0.054,0.343,-5.337
0.177,0.055,0.341,-5.337
0.156,0.056,0.340,-5.337
0.171,0.055,0.342,-5.337
0.258,0.056,0.344,-5.337
0.256,0.053,0.340,-5.337
0.243,0.050,0.337,-5.337
0.190,0.054,0.335,-5.337
0.191,0.054,0.340,-5.337
0.290,0.052,0.343,-5.337
0.243,0.054,0.342,-5.337
0.186,0.055,0.341,-5.337
0.211,0.051,0.341,-5.337
0.279,0.044,0.341,-5.337
0.203,0.046,0.343,-5.337
0.130,0.045,0.344,-5.337
0.168,0.043,0.342,-5.337
0.273,0.044,0.338,-5.337
0.259,0.048,0.342,-5.337
0.233,0.050,0.342,-5.337
0.205,0.048,0.342,-5.337
0.200,0.049,0.344,-5.337
0.233,0.048,0.343,-5.337
0.251,0.047,0.344,-5.337
0.199,0.050,0.343,-5.337
0.175,0.049,0.344,-5.337
0.200,0.048,0.343,-5.337
0.226,0.046,0.343,-5.337
0.219,0.045,0.342,-5.337
0.127,0.048,0.343,-5.337
0.078,0.050,0.344,-5.337
0.110,0.048,0.341,-5.337
0.147,0.046,0.340,-5.337
0.139,0.047,0.345,-5.337
0.118,0.046,0.342,-5.337
0.119,0.047,0.340,-5.337
0.120,0.046,0.337,-5.337
0.026,0.049,0.337,-5.337
0.057,0.044,0.341,-5.337
0.174,0.045,0.348,-5.337
0.182,0.048,0.347,-5.337
0.139,0.049,0.342,-5.337
0.099,0.050,0.338,-5.337
0.142,0.051,0.335,-5.337
0.197,0.051,0.340,-5.337
0.213,0.049,0.343,-5.337
0.202,0.049,0.343,-5.337
0.236,0.050,0.341,-5.337
0.229,0.050,0.339,-5.337
0.198,0.047,0.339,-5.337
0.161,0.046,0.343,-5.337
0.153,0.049,0.344,-5.337
0.112,0.052,0.344,-5.337
0.112,0.049,0.342,-5.337
0.142,0.049,0.341,-5.337
0.154,0.048,0.342,-5.337
0.197,0.050,0.341,-5.337
0.260,0.047,0.334,-5.337
0.313,0.045,0.334,-5.337
0.320,0.044,0.337,-5.337
0.312,0.045,0.343,-5.337
0.212,0.048,0.344,-5.337
0.152,0.048,0.342,-5.337
0.194,0.046,0.342,-5.337
0.227,0.044,0.345,-5.337
0.152,0.044,0.344,-5.337
0.167,0.047,0.341,-5.337
0.197,0.046,0.337,-5.337
0.218,0.044,0.335,-5.337
0.258,0.044,0.337,-5.337
0.292,0.041,0.338,-5.337
0.235,0.043,0.340,-5.337
0.143,0.044,0.342,-5.337
0.124,0.041,0.344,-5.337
0.174,0.042,0.340,-5.337
0.208,0.044,0.338,-5.337
0.217,0.044,0.336,-5.337
0.180,0.044,0.335,-5.337
0.199,0.042,0.335,-5.337
0.270,0.041,0.341,-5.337
0.237,0.038,0.342,-5.337
0.202,0.039,0.342,-5.337
0.239,0.038,0.343,-5.337
0.276,0.039,0.343,-5.337
0.160,0.041,0.344,-5.337
0.070,0.041,0.342,-5.337
0.110,0.043,0.337,-5.337
0.133,0.040,0.332,-5.337
0.189,0.039,0.333,-5.337
0.211,0.040,0.341,-5.337
0.217,0.041,0.343,-5.337
0.290,0.038,0.340,-5.337
0.319,0.038,0.342,-5.337
0.355,0.036,0.343,-5.337
0.312,0.038,0.345,-5.337
0.225,0.039,0.341,-5.337
0.204,0.038,0.337,-5.337
0.212,0.039,0.333,-5.337
0.213,0.039,0.336,-5.337
0.161,0.038,0.341,-5.337
0.106,0.042,0.341,-5.337
0.143,0.043,0.335,-5.337
0.156,0.043,0.335,-5.337
0.151,0.043,0.337,-5.337
0.124,0.046,0.341,-5.337
0.119,0.043,0.342,-5.337
0.150,0.040,0.343,-5.337
0.162,0.042,0.341,-5.337
0.165,0.046,0.339,-5.337
0.141,0.049,0.342,-5.337
0.128,0.043,0.344,-5.337
0.208,0.038,0.342,-5.337
0.190,0.042,0.341,-5.337
0.169,0.045,0.342,-5.337
0.220,0.044,0.341,-5.337
0.215,0.043,0.341,-5.337
0.186,0.042,0.340,-5.337
0.212,0.041,0.339,-5.337
0.202,0.040,0.339,-5.337
0.215,0.038,0.341,-5.337
0.190,0.039,0.344,-5.337
0.136,0.043,0.343,-5.337
0.173,0.044,0.340,-5.337
0.187,0.045,0.339,-5.337
0.193,0.043,0.342,-5.337
0.143,0.042,0.344,-5.337
0.131,0.042,0.342,-5.337
0.174,0.041,0.338,-5.337
0.203,0.041,0.335,-5.337
0.270,0.037,0.335,-5.337
0.290,0.039,0.337,-5.337
0.189,0.042,0.340,-5.337
0.171,0.040,0.342,-5.337
0.196,0.040,0.339,-5.337
0.223,0.038,0.339,-5.337
0.214,0.041,0.340,-5.337
0.097,0.041,0.339,-5.337
0.052,0.043,0.339,-5.337
0.107,0.043,0.344,-5.337
0.185,0.042,0.343,-5.337
0.229,0.041,0.343,-5.337
0.243,0.039,0.343,-5.337
0.166,0.043,0.344,-5.337
0.131,0.040,0.342,-5.337
0.234,0.040,0.340,-5.337
0.259,0.042,0.337,-5.337
0.296,0.041,0.336,-5.337
0.306,0.040,0.337,-5.337
0.257,0.043,0.337,-5.337
0.207,0.043,0.337,-5.337
0.246,0.043,0.338,-5.337
0.228,0.044,0.338,-5.337
0.157,0.045,0.338,-5.337
0.079,0.044,0.340,-5.337
0.182,0.041,0.343,-5.337
0.321,0.038,0.345,-5.337
0.231,0.045,0.345,-5.337
0.120,0.042,0.341,-5.337
0.234,0.037,0.340,-5.337
0.182,0.038,0.343,-5.337
0.146,0.036,0.345,-5.337
0.145,0.042,0.342,-5.337
0.140,0.045,0.337,-5.337
0.116,0.046,0.339,-5.337
0.211,0.042,0.340,-5.337
0.205,0.042,0.337,-5.337
0.183,0.039,0.337,-5.337
0.160,0.038,0.339,-5.337
0.142,0.040,0.342,-5.337
0.157,0.040,0.343,-5.337
0.246,0.034,0.343,-5.337
0.301,0.035,0.343,-5.337
0.264,0.038,0.342,-5.337
0.215,0.041,0.339,-5.337
0.217,0.041,0.339,-5.337
0.184,0.040,0.343,-5.337
0.226,0.037,0.346,-5.337
0.281,0.038,0.345,-5.337
0.226,0.043,0.344,-5.337
0.214,0.042,0.338,-5.337
0.231,0.044,0.337,-5.337
0.249,0.043,0.336,-5.337
0.274,0.041,0.341,-5.337
0.243,0.043,0.344,-5.337
0.224,0.040,0.348,-5.337
0.220,0.040,0.346,-5.337
0.237,0.041,0.341,-5.337
0.229,0.045,0.340,-5.337
0.270,0.043,0.341,-5.337
0.250,0.042,0.336,-5.337
0.205,0.041,0.335,-5.337
0.203,0.038,0.339,-5.337
0.230,0.036,0.344,-5.337
0.121,0.038,0.343,-5.337
0.107,0.039,0.341,-5.337
0.167,0.036,0.340,-5.337
0.196,0.032,0.341,-5.337
0.203,0.037,0.343,-5.337
0.158,0.043,0.344,-5.337
0.123,0.043,0.347,-5.337
0.225,0.044,0.346,-5.337
0.205,0.046,0.343,-5.337
0.166,0.044,0.340,-5.337
0.186,0.041,0.341,-5.337
0.219,0.039,0.342,-5.337
0.198,0.038,0.341,-5.337
0.207,0.039,0.339,-5.337
0.159,0.041,0.340,-5.337
0.161,0.043,0.338,-5.337
0.115,0.044,0.339,-5.337
0.138,0.040,0.341,-5.337
0.182,0.040,0.342,-5.337
0.226,0.037,0.337,-5.337
0.176,0.039,0.339,-5.337
0.165,0.038,0.343,-5.337
0.195,0.043,0.342,-5.337
0.203,0.044,0.340,-5.337
0.219,0.043,0.341,-5.337
0.215,0.043,0.338,-5.337
0.172,0.042,0.334,-5.337
0.173,0.046,0.336,-5.337
0.211,0.045,0.342,-5.337
0.217,0.042,0.343,-5.337
0.199,0.042,0.340,-5.337
0.159,0.045,0.341,-5.337
0.122,0.049,0.343,-5.337
0.099,0.045,0.344,-5.337
0.147,0.041,0.340,-5.337
0.218,0.042,0.340,-5.337
0.222,0.045,0.342,-5.337
0.196,0.050,0.343,-5.337
0.200,0.046,0.340,-5.337
0.203,0.044,0.340,-5.337
0.197,0.046,0.339,-5.337
0.236,0.049,0.340,-5.337
0.180,0.047,0.344,-5.337
0.199,0.043,0.342,-5.337
0.221,0.043,0.341,-5.337
0.232,0.045,0.339,-5.337
0.192,0.048,0.339,-5.337
0.185,0.049,0.340,-5.337
0.214,0.050,0.341,-5.337
0.209,0.051,0.341,-5.337
0.216,0.047,0.340,-5.337
0.194,0.043,0.342,-5.337
0.141,0.044,0.347,-5.337
0.164,0.048,0.346,-5.337
0.226,0.043,0.343,-5.337
0.270,0.038,0.340,-5.337
0.234,0.043,0.338,-5.337
0.103,0.048,0.337,-5.337
0.129,0.048,0.341,-5.337
0.205,0.048,0.341,-5.337
0.177,0.051,0.340,-5.337
0.231,0.049,0.340,-5.337
0.286,0.050,0.340,-5.337
0.218,0.051,0.338,-5.337
0.214,0.048,0.338,-5.337
0.228,0.047,0.339,-5.337
0.230,0.048,0.339,-5.337
0.217,0.052,0.341,-5.337
0.108,0.056,0.343,-5.337
0.067,0.051,0.343,-5.337
0.176,0.046,0.346,-5.337
0.135,0.047,0.347,-5.337
0.104,0.049,0.344,-5.337
0.162,0.051,0.340,-5.337
0.206,0.050,0.337,-5.337
0.211,0.049,0.338,-5.337
0.188,0.046,0.340,-5.337
0.203,0.045,0.346,-5.337
0.174,0.043,0.347,-5.337
0.167,0.045,0.347,-5.337
0.148,0.050,0.344,-5.337
0.153,0.050,0.344,-5.337
0.186,0.049,0.340,-5.337
0.176,0.050,0.339,-5.337
0.201,0.051,0.338,-5.337
0.219,0.052,0.343,-5.337
0.153,0.051,0.346,-5.337
0.137,0.051,0.348,-5.337
0.166,0.051,0.347,-5.337
0.173,0.054,0.345,-5.337
0.151,0.055,0.343,-5.337
0.082,0.056,0.338,-5.337
0.054,0.057,0.336,-5.337
0.028,0.058,0.343,-5.337
0.029,0.057,0.344,-5.337
0.138,0.054,0.346,-5.337
0.180,0.053,0.347,-5.337
0.136,0.055,0.342,-5.337
0.164,0.053,0.341,-5.337
0.247,0.049,0.341,-5.337
0.294,0.050,0.340,-5.337
0.263,0.053,0.340,-5.337
0.296,0.050,0.343,-5.337
0.274,0.051,0.344,-5.337
0.201,0.056,0.344,-5.337
0.215,0.053,0.347,-5.337
0.269,0.050,0.350,-5.337
0.205,0.055,0.349,-5.337
0.206,0.054,0.344,-5.337
0.248,0.054,0.338,-5.337
0.242,0.052,0.338,-5.337
0.232,0.048,0.339,-5.337
0.239,0.047,0.336,-5.337
0.185,0.048,0.334,-5.337
0.133,0.050,0.340,-5.337
0.113,0.050,0.345,-5.337
0.183,0.047,0.346,-5.337
0.273,0.044,0.348,-5.337
0.224,0.048,0.348,-5.337
0.228,0.048,0.344,-5.337
0.263,0.045,0.341,-5.337
0.245,0.046,0.342,-5.337
0.188,0.048,0.341,-5.337
0.198,0.050,0.340,-5.337
0.176,0.049,0.337,-5.337
0.142,0.048,0.339,-5.337
0.087,0.052,0.340,-5.337
0.170,0.053,0.341,-5.337
0.254,0.054,0.341,-5.337
0.171,0.056,0.342,-5.337
0.171,0.058,0.340,-5.337
0.273,0.055,0.340,-5.337
0.269,0.056,0.344,-5.337
0.228,0.058,0.342,-5.337
0.171,0.058,0.336,-5.337
0.128,0.059,0.337,-5.337
0.068,0.060,0.341,-5.337
0.124,0.059,0.344,-5.337
0.260,0.053,0.342,-5.337
0.255,0.054,0.341,-5.337
0.203,0.053,0.339,-5.337
0.170,0.054,0.338,-5.337
0.187,0.055,0.341,-5.337
0.137,0.055,0.346,-5.337
0.155,0.052,0.349,-5.337
0.215,0.053,0.346,-5.337
0.185,0.053,0.344,-5.337
0.191,0.053,0.340,-5.337
0.227,0.052,0.340,-5.337
0.173,0.053,0.338,-5.337
0.187,0.052,0.337,-5.337
0.227,0.053,0.336,-5.337
0.231,0.056,0.337,-5.337
0.169,0.057,0.341,-5.337
0.132,0.059,0.341,-5.337
0.178,0.055,0.337,-5.337
0.174,0.053,0.332,-5.337
0.138,0.055,0.336,-5.337
0.167,0.059,0.342,-5.337
0.161,0.057,0.346,-5.337
0.155,0.055,0.343,-5.337
0.184,0.053,0.338,-5.337
0.194,0.052,0.338,-5.337
0.159,0.055,0.341,-5.337
0.182,0.057,0.340,-5.337
0.206,0.052,0.339,-5.337
0.209,0.049,0.338,-5.337
0.260,0.050,0.340,-5.337
0.225,0.055,0.337,-5.337
0.205,0.054,0.335,-5.337
0.233,0.053,0.339,-5.337
0.208,0.057,0.344,-5.337
0.170,0.058,0.345,-5.337
0.158,0.060,0.342,-5.337
0.173,0.057,0.339,-5.337
0.120,0.058,0.337,-5.337
0.162,0.057,0.337,-5.337
0.247,0.059,0.340,-5.337
0.206,0.059,0.342,-5.337
0.172,0.058,0.342,-5.337
0.197,0.058,0.340,-5.337
0.204,0.063,0.342,-5.337
0.181,0.065,0.346,-5.337
0.190,0.061,0.345,-5.337
0.245,0.061,0.342,-5.337
0.198,0.060,0.338,-5.337
0.160,0.061,0.337,-5.337
0.204,0.059,0.338,-5.337
0.176,0.058,0.344,-5.337
0.146,0.063,0.346,-5.337
0.127,0.064,0.343,-5.337
0.141,0.061,0.341,-5.337
0.123,0.063,0.343,-5.337
0.111,0.063,0.344,-5.337
0.070,0.066,0.343,-5.337
0.115,0.062,0.339,-5.337
0.126,0.062,0.337,-5.337
0.159,0.061,0.337,-5.337
0.257,0.061,0.338,-5.337
0.297,0.059,0.341,-5.337
0.236,0.060,0.345,-5.337
0.168,0.060,0.343,-5.337
0.124,0.063,0.340,-5.337
0.177,0.062,0.336,-5.337
0.199,0.062,0.334,-5.337
0.233,0.061,0.337,-5.337
0.247,0.059,0.342,-5.337
0.234,0.061,0.345,-5.337
0.226,0.064,0.342,-5.337
0.201,0.062,0.339,-5.337
0.178,0.064,0.336,-5.337
0.185,0.064,0.338,-5.337
0.156,0.065,0.340,-5.337
0.086,0.067,0.342,-5.337
0.048,0.067,0.340,-5.337
0.130,0.073,0.340,-5.337
0.162,0.069,0.344,-5.337
0.226,0.065,0.345,-5.337
0.276,0.066,0.344,-5.337
0.217,0.069,0.344,-5.337
0.144,0.071,0.340,-5.337
0.129,0.069,0.337,-5.337
0.150,0.067,0.338,-5.337
0.211,0.067,0.342,-5.337
0.233,0.068,0.340,-5.337
0.212,0.066,0.338,-5.337
0.225,0.065,0.337,-5.337
0.215,0.068,0.337,-5.337
0.151,0.069,0.338,-5.337
0.124,0.068,0.340,-5.337
0.099,0.067,0.342,-5.337
0.178,0.066,0.341,-5.337
0.217,0.067,0.337,-5.337
0.190,0.066,0.334,-5.337
0.204,0.064,0.339,-5.337
0.205,0.063,0.345,-5.337
0.175,0.066,0.348,-5.337
0.174,0.065,0.347,-5.337
0.267,0.065,0.346,-5.337
0.293,0.064,0.343,-5.337
0.267,0.065,0.341,-5.337
0.151,0.066,0.338,-5.337
0.076,0.066,0.336,-5.337
0.048,0.063,0.340,-5.337
0.061,0.059,0.342,-5.337
0.129,0.063,0.342,-5.337
0.245,0.059,0.340,-5.337
0.340,0.058,0.340,-5.337
0.231,0.061,0.346,-5.337
0.148,0.064,0.345,-5.337
0.157,0.067,0.342,-5.337
0.219,0.062,0.344,-5.337
0.202,0.064,0.344,-5.337
0.207,0.063,0.344,-5.337
0.247,0.060,0.342,-5.337
0.286,0.059,0.341,-5.337
0.292,0.057,0.339,-5.337
0.204,0.062,0.341,-5.337
0.134,0.064,0.342,-5.337
0.150,0.062,0.341,-5.337
0.172,0.061,0.339,-5.337
0.180,0.060,0.339,-5.337
0.168,0.061,0.340,-5.337
0.184,0.063,0.343,-5.337
0.183,0.059,0.343,-5.337
0.153,0.060,0.342,-5.337
0.118,0.060,0.342,-5.337
0.105,0.061,0.342,-5.337
0.192,0.059,0.340,-5.337
0.240,0.060,0.338,-5.337
0.201,0.057,0.338,-5.337
0.172,0.059,0.338,-5.337
0.186,0.060,0.340,-5.337
0.228,0.059,0.344,-5.337
0.247,0.060,0.344,-5.337
0.211,0.064,0.341,-5.337
0.199,0.060,0.344,-5.337
0.211,0.055,0.347,-5.337
0.139,0.056,0.349,-5.337
0.092,0.058,0.345,-5.337
0.101,0.054,0.342,-5.337
0.108,0.053,0.336,-5.337
0.168,0.053,0.334,-5.337
0.220,0.052,0.339,-5.337
0.223,0.057,0.345,-5.337
0.157,0.058,0.345,-5.337
0.168,0.058,0.340,-5.337
0.211,0.053,0.337,-5.337
0.171,0.055,0.338,-5.337
0.149,0.053,0.341,-5.337
0.264,0.050,0.342,-5.337
0.326,0.050,0.340,-5.337
0.323,0.051,0.340,-5.337
0.246,0.049,0.342,-5.337
0.227,0.050,0.346,-5.337
0.233,0.052,0.346,-5.337
0.148,0.053,0.343,-5.337
0.127,0.053,0.340,-5.337
0.166,0.051,0.338,-5.337
0.196,0.048,0.342,-5.337
0.204,0.049,0.342,-5.337
0.243,0.051,0.342,-5.337
0.238,0.049,0.341,-5.337
0.254,0.046,0.340,-5.337
0.272,0.046,0.336,-5.337
0.155,0.049,0.336,-5.337
0.063,0.047,0.340,-5.337
0.087,0.051,0.342,-5.337
0.127,0.050,0.342,-5.337
0.176,0.049,0.339,-5.337
0.178,0.048,0.337,-5.337
0.149,0.048,0.338,-5.337
0.068,0.050,0.336,-5.337
0.078,0.050,0.339,-5.337
0.198,0.047,0.346,-5.337
0.204,0.047,0.347,-5.337
0.169,0.046,0.342,-5.337
0.174,0.044,0.335,-5.337
0.179,0.045,0.337,-5.337
0.207,0.047,0.335,-5.337
0.256,0.049,0.338,-5.337
0.282,0.049,0.345,-5.337
0.311,0.055,0.349,-5.337
0.219,0.059,0.346,-5.337
0.112,0.059,0.345,-5.337
0.152,0.055,0.345,-5.337
0.206,0.054,0.344,-5.337
0.224,0.051,0.341,-5.337
0.231,0.051,0.339,-5.337
0.195,0.051,0.337,-5.337
0.170,0.054,0.340,-5.337
0.188,0.051,0.345,-5.337
0.163,0.050,0.347,-5.337
0.186,0.049,0.346,-5.337
0.323,0.045,0.343,-5.337
0.394,0.044,0.340,-5.337
0.297,0.047,0.338,-5.337
0.158,0.050,0.342,-5.337
0.188,0.048,0.346,-5.337
0.221,0.050,0.346,-5.337
0.189,0.051,0.346,-5.337
0.191,0.049,0.345,-5.337
0.271,0.046,0.343,-5.337
0.315,0.044,0.342,-5.337
0.311,0.043,0.342,-5.337
0.283,0.045,0.344,-5.337
0.220,0.043,0.344,-5.337
0.226,0.044,0.342,-5.337
0.223,0.042,0.340,-5.337
0.217,0.043,0.341,-5.337
0.226,0.042,0.340,-5.337
0.222,0.040,0.342,-5.337
0.166,0.042,0.343,-5.337
0.111,0.047,0.342,-5.337
0.142,0.046,0.342,-5.337
0.270,0.043,0.342,-5.337
0.206,0.048,0.344,-5.337
0.085,0.048,0.345,-5.337
0.100,0.043,0.341,-5.337
0.186,0.042,0.338,-5.337
0.169,0.043,0.341,-5.337
0.100,0.044,0.343,-5.337
0.177,0.045,0.349,-5.337
0.181,0.047,0.352,-5.337
0.140,0.047,0.347,-5.337
0.176,0.048,0.339,-5.337
0.189,0.048,0.337,-5.337
0.133,0.050,0.339,-5.337
0.125,0.044,0.346,-5.337
0.213,0.038,0.349,-5.337
0.223,0.041,0.349,-5.337
0.247,0.043,0.347,-5.337
0.218,0.043,0.347,-5.337
0.192,0.044,0.342,-5.337
0.163,0.042,0.340,-5.337
0.229,0.039,0.341,-5.337
0.322,0.038,0.345,-5.337
0.234,0.040,0.345,-5.337
0.196,0.040,0.342,-5.337
0.205,0.040,0.341,-5.337
0.226,0.040,0.340,-5.337
0.188,0.040,0.342,-5.337
0.205,0.040,0.343,-5.337
0.232,0.040,0.346,-5.337
0.201,0.042,0.348,-5.337
0.165,0.042,0.348,-5.337
0.128,0.041,0.344,-5.337
0.123,0.040,0.345,-5.337
0.191,0.038,0.343,-5.337
0.251,0.036,0.342,-5.337
0.238,0.036,0.344,-5.337
0.178,0.041,0.346,-5.337
0.184,0.036,0.345,-5.337
0.218,0.036,0.345,-5.337
0.163,0.035,0.344,-5.337
0.145,0.039,0.342,-5.337
0.105,0.044,0.342,-5.337
0.131,0.042,0.340,-5.337
0.163,0.039,0.335,-5.337
0.130,0.039,0.336,-5.337
0.139,0.039,0.341,-5.337
0.200,0.034,0.342,-5.337
0.256,0.035,0.342,-5.337
0.230,0.039,0.346,-5.337
0.222,0.040,0.347,-5.337
0.234,0.041,0.347,-5.337
0.180,0.040,0.343,-5.337
0.150,0.042,0.340,-5.337
0.148,0.040,0.338,-5.337
0.151,0.039,0.341,-5.337
0.117,0.041,0.342,-5.337
0.059,0.040,0.339,-5.337
0.145,0.038,0.337,-5.337
0.191,0.043,0.338,-5.337
0.195,0.043,0.337,-5.337
0.202,0.042,0.334,-5.337
0.140,0.041,0.336,-5.337
0.158,0.040,0.338,-5.337
0.178,0.040,0.342,-5.337
0.192,0.034,0.346,-5.337
0.211,0.032,0.347,-5.337
0.229,0.032,0.344,-5.337
0.199,0.032,0.342,-5.337
0.162,0.032,0.348,-5.337
0.213,0.031,0.350,-5.337
0.219,0.034,0.342,-5.337
0.153,0.037,0.336,-5.337
0.132,0.038,0.337,-5.337
0.220,0.036,0.342,-5.337
0.205,0.037,0.342,-5.337
0.115,0.038,0.342,-5.337
0.085,0.042,0.342,-5.337
0.149,0.040,0.343,-5.337
0.260,0.035,0.346,-5.337
0.246,0.033,0.346,-5.337
0.156,0.037,0.344,-5.337
0.138,0.038,0.340,-5.337
0.257,0.034,0.338,-5.337
0.299,0.031,0.335,-5.337
0.198,0.033,0.336,-5.337
0.150,0.033,0.337,-5.337
0.184,0.032,0.341,-5.337
0.197,0.032,0.343,-5.337
0.162,0.034,0.342,-5.337
0.226,0.035,0.343,-5.337
0.296,0.035,0.346,-5.337
0.289,0.034,0.342,-5.337
0.256,0.033,0.342,-5.337
0.227,0.036,0.344,-5.337
0.132,0.041,0.344,-5.337
0.131,0.040,0.340,-5.337
0.130,0.039,0.338,-5.337
0.164,0.039,0.339,-5.337
0.185,0.040,0.342,-5.337
0.206,0.039,0.347,-5.337
0.209,0.038,0.349,-5.337
0.237,0.040,0.351,-5.337
0.253,0.042,0.349,-5.337
0.133,0.044,0.347,-5.337
0.060,0.041,0.339,-5.337
0.166,0.041,0.335,-5.337
0.170,0.043,0.338,-5.337
0.141,0.041,0.343,-5.337
0.144,0.040,0.347,-5.337
0.215,0.037,0.346,-5.337
0.216,0.038,0.342,-5.337
0.201,0.038,0.341,-5.337
0.255,0.036,0.342,-5.337
0.341,0.037,0.343,-5.337
0.218,0.038,0.343,-5.337
0.146,0.039,0.346,-5.337
0.135,0.038,0.345,-5.337
0.188,0.036,0.340,-5.337
0.258,0.032,0.337,-5.337
0.273,0.030,0.338,-5.337
0.217,0.032,0.340,-5.337
0.180,0.034,0.339,-5.337
0.189,0.038,0.338,-5.337
0.179,0.038,0.341,-5.337
0.172,0.036,0.347,-5.337
0.172,0.033,0.347,-5.337
0.192,0.032,0.343,-5.337
0.213,0.033,0.339,-5.337
0.318,0.037,0.339,-5.337
0.306,0.035,0.344,-5.337
0.312,0.033,0.347,-5.337
0.297,0.035,0.342,-5.337
0.267,0.040,0.338,-5.337
0.222,0.037,0.338,-5.337
0.199,0.036,0.340,-5.337
0.175,0.038,0.337,-5.337
0.131,0.035,0.338,-5.337
0.149,0.037,0.343,-5.337
0.131,0.039,0.344,-5.337
0.134,0.039,0.342,-5.337
0.152,0.036,0.340,-5.337
0.108,0.036,0.340,-5.337
0.180,0.031,0.341,-5.337
0.203,0.035,0.342,-5.337
0.125,0.035,0.341,-5.337
0.181,0.037,0.342,-5.337
0.248,0.036,0.342,-5.337
0.264,0.034,0.343,-5.337
0.196,0.034,0.342,-5.337
0.158,0.037,0.343,-5.337
0.183,0.037,0.345,-5.337
0.205,0.040,0.347,-5.337
0.205,0.038,0.345,-5.337
0.248,0.035,0.343,-5.337
0.226,0.034,0.340,-5.337
0.191,0.037,0.339,-5.337
0.177,0.038,0.338,-5.337
0.262,0.033,0.339,-5.337
0.264,0.034,0.341,-5.337
0.177,0.037,0.341,-5.337
0.194,0.037,0.342,-5.337
0.177,0.037,0.346,-5.337
0.148,0.036,0.346,-5.337
0.168,0.035,0.342,-5.337
0.263,0.031,0.341,-5.337
0.238,0.031,0.346,-5.337
0.152,0.034,0.349,-5.337
0.141,0.035,0.347,-5.337
0.131,0.038,0.342,-5.337
0.121,0.038,0.340,-5.337
0.154,0.037,0.343,-5.337
0.155,0.039,0.341,-5.337
0.156,0.039,0.339,-5.337
0.103,0.042,0.338,-5.337
0.055,0.038,0.341,-5.337
0.139,0.030,0.344,-5.337
0.211,0.030,0.345,-5.337
0.240,0.030,0.343,-5.337
0.237,0.031,0.341,-5.337
0.277,0.031,0.340,-5.337
0.306,0.035,0.341,-5.337
0.213,0.035,0.345,-5.337
0.166,0.035,0.345,-5.337
0.218,0.034,0.345,-5.337
0.183,0.039,0.344,-5.337
0.135,0.041,0.338,-5.337
0.172,0.038,0.337,-5.337
0.272,0.035,0.340,-5.337
0.320,0.035,0.344,-5.337
0.248,0.040,0.349,-5.337
0.207,0.038,0.348,-5.337
0.211,0.035,0.346,-5.337
0.243,0.034,0.342,-5.337
0.229,0.035,0.342,-5.337
0.200,0.039,0.344,-5.337
0.188,0.037,0.347,-5.337
0.210,0.035,0.342,-5.337
0.194,0.038,0.335,-5.337
0.164,0.040,0.334,-5.337
0.133,0.042,0.340,-5.337
0.130,0.040,0.343,-5.337
0.153,0.039,0.344,-5.337
0.119,0.039,0.347,-5.337
0.131,0.036,0.342,-5.337
0.178,0.037,0.339,-5.337
0.204,0.039,0.341,-5.337
0.239,0.039,0.339,-5.337
0.252,0.039,0.338,-5.337
0.246,0.037,0.341,-5.337
0.296,0.037,0.343,-5.337
0.315,0.039,0.342,-5.337
0.230,0.041,0.345,-5.337
0.166,0.040,0.348,-5.337
0.195,0.041,0.345,-5.337
0.187,0.044,0.342,-5.337
0.193,0.045,0.339,-5.337
0.225,0.040,0.339,-5.337
0.256,0.040,0.339,-5.337
0.232,0.043,0.340,-5.337
0.164,0.044,0.340,-5.337
0.153,0.044,0.344,-5.337
0.199,0.042,0.348,-5.337
0.186,0.042,0.344,-5.337
0.140,0.041,0.339,-5.337
0.127,0.040,0.338,-5.337
0.165,0.043,0.339,-5.337
0.202,0.042,0.338,-5.337
0.195,0.042,0.337,-5.337
0.189,0.041,0.342,-5.337
0.184,0.042,0.346,-5.337
0.181,0.043,0.344,-5.337
0.220,0.041,0.340,-5.337
0.190,0.042,0.339,-5.337
0.208,0.043,0.342,-5.337
0.207,0.045,0.343,-5.337
0.207,0.043,0.341,-5.337
0.208,0.043,0.342,-5.337
0.198,0.047,0.344,-5.337
0.155,0.048,0.341,-5.337
0.194,0.048,0.341,-5.337
0.203,0.046,0.343,-5.337
0.176,0.046,0.344,-5.337
0.201,0.043,0.341,-5.337
0.217,0.045,0.339,-5.337
0.210,0.045,0.337,-5.337
0.218,0.045,0.340,-5.337
0.227,0.048,0.341,-5.337
0.130,0.049,0.345,-5.337
0.076,0.048,0.343,-5.337
0.083,0.049,0.343,-5.337
0.181,0.048,0.343,-5.337
0.227,0.048,0.343,-5.337
0.221,0.044,0.341,-5.337
0.255,0.044,0.342,-5.337
0.170,0.048,0.344,-5.337
0.190,0.046,0.341,-5.337
0.273,0.045,0.338,-5.337
0.269,0.046,0.338,-5.337
0.240,0.047,0.343,-5.337
0.246,0.048,0.346,-5.337
0.229,0.048,0.345,-5.337
0.248,0.046,0.342,-5.337
0.290,0.046,0.344,-5.337
0.294,0.048,0.343,-5.337
0.236,0.049,0.345,-5.337
0.176,0.047,0.343,-5.337
0.133,0.047,0.339,-5.337
0.106,0.051,0.341,-5.337
0.106,0.050,0.345,-5.337
0.143,0.046,0.349,-5.337
0.213,0.049,0.347,-5.337
0.218,0.052,0.344,-5.337
0.144,0.055,0.343,-5.337
0.193,0.050,0.339,-5.337
0.210,0.050,0.340,-5.337
0.164,0.054,0.346,-5.337
0.159,0.055,0.350,-5.337
0.173,0.054,0.348,-5.337
0.083,0.058,0.340,-5.337
0.091,0.059,0.338,-5.337
0.199,0.056,0.340,-5.337
0.241,0.057,0.344,-5.337
0.214,0.057,0.344,-5.337
0.177,0.061,0.347,-5.337
0.194,0.056,0.349,-5.337
0.229,0.057,0.352,-5.337
0.186,0.057,0.348,-5.337
0.222,0.055,0.341,-5.337
0.308,0.054,0.334,-5.337
0.332,0.052,0.334,-5.337
0.278,0.050,0.337,-5.337
0.243,0.049,0.340,-5.337
0.225,0.049,0.340,-5.337
0.190,0.050,0.342,-5.337
0.160,0.052,0.344,-5.337
0.170,0.050,0.344,-5.337
0.248,0.045,0.344,-5.337
0.232,0.046,0.346,-5.337
0.137,0.051,0.345,-5.337
0.070,0.054,0.343,-5.337
0.086,0.052,0.343,-5.337
0.203,0.047,0.343,-5.337
0.184,0.049,0.341,-5.337
0.150,0.049,0.341,-5.337
0.137,0.050,0.341,-5.337
0.181,0.050,0.338,-5.337
0.212,0.051,0.342,-5.337
0.205,0.052,0.344,-5.337
0.176,0.054,0.342,-5.337
0.182,0.052,0.341,-5.337
0.198,0.052,0.341,-5.337
0.220,0.052,0.341,-5.337
0.316,0.047,0.342,-5.337
0.261,0.050,0.342,-5.337
0.163,0.052,0.342,-5.337
0.203,0.053,0.343,-5.337
0.254,0.051,0.339,-5.337
0.188,0.052,0.341,-5.337
0.115,0.055,0.345,-5.337
0.115,0.051,0.344,-5.337
0.113,0.051,0.339,-5.337
0.097,0.050,0.339,-5.337
0.114,0.053,0.341,-5.337
0.207,0.051,0.339,-5.337
0.266,0.047,0.340,-5.337
0.221,0.051,0.344,-5.337
0.168,0.051,0.344,-5.337
0.152,0.053,0.341,-5.337
0.208,0.053,0.334,-5.337
0.189,0.056,0.335,-5.337
0.070,0.057,0.336,-5.337
0.072,0.057,0.336,-5.337
0.114,0.056,0.340,-5.337
0.118,0.057,0.346,-5.337
0.222,0.054,0.349,-5.337
0.263,0.050,0.347,-5.337
0.224,0.049,0.342,-5.337
0.195,0.051,0.338,-5.337
0.212,0.056,0.336,-5.337
0.157,0.055,0.338,-5.337
0.069,0.056,0.338,-5.337
0.098,0.055,0.337,-5.337
0.187,0.053,0.340,-5.337
0.227,0.054,0.346,-5.337
0.189,0.059,0.350,-5.337
0.197,0.056,0.344,-5.337
0.233,0.053,0.342,-5.337
0.208,0.053,0.341,-5.337
0.190,0.052,0.344,-5.337
0.163,0.054,0.340,-5.337
0.114,0.057,0.338,-5.337
0.157,0.058,0.338,-5.337
0.206,0.056,0.339,-5.337
0.171,0.051,0.340,-5.337
0.161,0.049,0.343,-5.337
0.199,0.048,0.344,-5.337
0.223,0.054,0.340,-5.337
0.167,0.057,0.336,-5.337
0.142,0.055,0.334,-5.337
0.203,0.055,0.337,-5.337
0.220,0.059,0.345,-5.337
0.165,0.062,0.345,-5.337
0.182,0.057,0.345,-5.337
0.233,0.055,0.343,-5.337
0.225,0.053,0.341,-5.337
0.183,0.056,0.341,-5.337
0.251,0.057,0.341,-5.337
0.291,0.057,0.344,-5.337
0.231,0.054,0.343,-5.337
0.151,0.062,0.343,-5.337
0.129,0.063,0.342,-5.337
0.139,0.060,0.340,-5.337
0.132,0.060,0.335,-5.337
0.125,0.062,0.335,-5.337
0.108,0.060,0.339,-5.337
0.118,0.062,0.341,-5.337
0.084,0.064,0.342,-5.337
0.101,0.063,0.341,-5.337
0.201,0.058,0.341,-5.337
0.281,0.056,0.342,-5.337
0.280,0.057,0.339,-5.337
0.191,0.060,0.337,-5.337
0.115,0.064,0.340,-5.337
0.175,0.063,0.343,-5.337
0.268,0.059,0.342,-5.337
0.311,0.054,0.342,-5.337
0.291,0.059,0.345,-5.337
0.264,0.057,0.345,-5.337
0.318,0.055,0.344,-5.337
0.300,0.057,0.338,-5.337
0.256,0.058,0.336,-5.337
0.317,0.054,0.339,-5.337
0.332,0.052,0.339,-5.337
0.310,0.058,0.338,-5.337
0.244,0.060,0.338,-5.337
0.227,0.059,0.338,-5.337
0.228,0.061,0.341,-5.337
0.195,0.059,0.340,-5.337
0.204,0.059,0.343,-5.337
0.213,0.062,0.343,-5.337
0.224,0.062,0.338,-5.337
0.218,0.062,0.336,-5.337
0.220,0.061,0.341,-5.337
0.259,0.062,0.347,-5.337
0.237,0.061,0.349,-5.337
0.215,0.061,0.347,-5.337
0.214,0.062,0.342,-5.337
0.247,0.059,0.339,-5.337
0.299,0.058,0.338,-5.337
0.240,0.060,0.340,-5.337
0.173,0.061,0.342,-5.337
0.134,0.061,0.341,-5.337
0.174,0.059,0.337,-5.337
0.244,0.057,0.341,-5.337
0.166,0.057,0.344,-5.337
0.076,0.061,0.343,-5.337
0.012,0.061,0.338,-5.337
0.073,0.060,0.338,-5.337
0.236,0.053,0.339,-5.337
0.274,0.054,0.339,-5.337
0.161,0.056,0.341,-5.337
0.075,0.055,0.344,-5.337
0.102,0.055,0.339,-5.337
0.157,0.057,0.335,-5.337
0.159,0.054,0.335,-5.337
0.196,0.052,0.336,-5.337
0.242,0.057,0.337,-5.337
0.203,0.062,0.340,-5.337
0.130,0.061,0.346,-5.337
0.161,0.062,0.350,-5.337
0.188,0.063,0.343,-5.337
0.179,0.060,0.340,-5.337
0.186,0.057,0.342,-5.337
0.232,0.058,0.343,-5.337
0.219,0.058,0.345,-5.337
0.190,0.056,0.343,-5.337
0.186,0.054,0.342,-5.337
0.208,0.056,0.340,-5.337
0.252,0.054,0.342,-5.337
0.262,0.046,0.340,-5.337
0.285,0.046,0.337,-5.337
0.270,0.051,0.340,-5.337
0.212,0.052,0.344,-5.337
0.172,0.050,0.345,-5.337
0.132,0.049,0.342,-5.337
0.136,0.048,0.343,-5.337
0.192,0.047,0.342,-5.337
0.202,0.047,0.342,-5.337
0.242,0.046,0.339,-5.337
0.250,0.048,0.338,-5.337
0.191,0.055,0.340,-5.337
0.212,0.053,0.341,-5.337
0.204,0.051,0.342,-5.337
0.195,0.052,0.339,-5.337
0.225,0.052,0.337,-5.337
0.277,0.047,0.340,-5.337
0.259,0.046,0.344,-5.337
0.249,0.045,0.345,-5.337
0.239,0.047,0.343,-5.337
0.244,0.047,0.342,-5.337
0.269,0.049,0.339,-5.337
0.232,0.050,0.340,-5.337
0.169,0.048,0.343,-5.337
0.173,0.045,0.346,-5.337
0.218,0.045,0.346,-5.337
0.214,0.047,0.343,-5.337
0.154,0.051,0.345,-5.337
0.201,0.048,0.347,-5.337
0.230,0.046,0.345,-5.337
0.228,0.047,0.342,-5.337
0.204,0.045,0.338,-5.337
0.180,0.048,0.339,-5.337
0.115,0.046,0.338,-5.337
0.136,0.044,0.341,-5.337
0.289,0.045,0.343,-5.337
0.288,0.047,0.345,-5.337
0.193,0.048,0.347,-5.337
0.150,0.049,0.346,-5.337
0.119,0.049,0.343,-5.337
0.126,0.048,0.339,-5.337
0.148,0.050,0.344,-5.337
0.143,0.049,0.346,-5.337
0.180,0.048,0.347,-5.337
0.168,0.046,0.341,-5.337
0.138,0.046,0.339,-5.337
0.173,0.044,0.340,-5.337
0.162,0.043,0.342,-5.337
0.122,0.044,0.343,-5.337
0.151,0.044,0.345,-5.337
0.199,0.043,0.344,-5.337
0.231,0.043,0.345,-5.337
0.300,0.040,0.343,-5.337
0.278,0.045,0.342,-5.337
0.184,0.047,0.339,-5.337
0.154,0.048,0.339,-5.337
0.240,0.045,0.337,-5.337
0.273,0.044,0.334,-5.337
0.173,0.047,0.336,-5.337
0.161,0.049,0.341,-5.337
0.212,0.049,0.346,-5.337
0.172,0.049,0.346,-5.337
0.137,0.046,0.344,-5.337
0.211,0.045,0.338,-5.337
0.314,0.043,0.336,-5.337
0.328,0.043,0.338,-5.337
0.224,0.048,0.344,-5.337
0.199,0.047,0.344,-5.337
0.204,0.047,0.338,-5.337
0.189,0.049,0.337,-5.337
0.183,0.047,0.341,-5.337
0.251,0.043,0.342,-5.337
0.278,0.043,0.344,-5.337
0.282,0.042,0.346,-5.337
0.181,0.043,0.344,-5.337
0.112,0.044,0.344,-5.337
0.134,0.044,0.345,-5.337
0.161,0.045,0.344,-5.337
0.162,0.045,0.343,-5.337
0.146,0.043,0.341,-5.337
0.180,0.045,0.339,-5.337
0.208,0.045,0.340,-5.337
0.154,0.046,0.342,-5.337
0.084,0.042,0.342,-5.337
0.138,0.042,0.344,-5.337
0.201,0.043,0.347,-5.337
0.238,0.039,0.343,-5.337
0.317,0.035,0.336,-5.337
0.290,0.040,0.334,-5.337
0.285,0.043,0.341,-5.337
0.269,0.042,0.343,-5.337
0.291,0.039,0.342,-5.337
0.269,0.039,0.341,-5.337
0.230,0.044,0.339,-5.337
0.193,0.044,0.343,-5.337
0.152,0.044,0.347,-5.337
0.179,0.042,0.347,-5.337
0.180,0.042,0.342,-5.337
0.181,0.042,0.339,-5.337
0.179,0.041,0.338,-5.337
0.148,0.042,0.340,-5.337
0.163,0.041,0.342,-5.337
0.209,0.037,0.342,-5.337
0.183,0.037,0.343,-5.337
0.211,0.037,0.344,-5.337
0.210,0.040,0.347,-5.337
0.198,0.043,0.350,-5.337
0.226,0.040,0.346,-5.337
0.226,0.041,0.342,-5.337
0.148,0.038,0.341,-5.337
0.155,0.039,0.344,-5.337
0.194,0.040,0.344,-5.337
0.213,0.040,0.343,-5.337
0.200,0.040,0.343,-5.337
0.172,0.040,0.341,-5.337
0.173,0.040,0.341,-5.337
0.239,0.035,0.342,-5.337
0.219,0.035,0.345,-5.337
0.174,0.041,0.343,-5.337
0.180,0.042,0.338,-5.337
0.108,0.040,0.339,-5.337
0.073,0.038,0.341,-5.337
0.137,0.039,0.345,-5.337
0.176,0.040,0.347,-5.337
0.190,0.035,0.348,-5.337
0.248,0.035,0.346,-5.337
0.278,0.034,0.342,-5.337
0.238,0.037,0.337,-5.337
0.225,0.038,0.333,-5.337
0.302,0.037,0.339,-5.337
0.344,0.034,0.346,-5.337
0.239,0.036,0.345,-5.337
0.147,0.039,0.343,-5.337
0.159,0.038,0.347,-5.337
0.195,0.037,0.346,-5.337
0.173,0.042,0.345,-5.337
0.161,0.044,0.344,-5.337
0.159,0.045,0.343,-5.337
0.179,0.039,0.341,-5.337
0.233,0.038,0.340,-5.337
0.244,0.040,0.339,-5.337
0.209,0.039,0.341,-5.337
0.216,0.035,0.344,-5.337
0.212,0.036,0.347,-5.337
0.147,0.040,0.343,-5.337
0.102,0.037,0.338,-5.337
0.178,0.038,0.337,-5.337
0.237,0.041,0.339,-5.337
0.231,0.042,0.340,-5.337
0.171,0.045,0.340,-5.337
0.158,0.041,0.339,-5.337
0.205,0.039,0.338,-5.337
0.208,0.039,0.341,-5.337
0.199,0.041,0.340,-5.337
0.197,0.041,0.342,-5.337
0.184,0.040,0.342,-5.337
0.240,0.038,0.342,-5.337
0.274,0.035,0.343,-5.337
0.158,0.039,0.345,-5.337
0.166,0.034,0.345,-5.337
0.198,0.032,0.343,-5.337
0.279,0.031,0.341,-5.337
0.283,0.033,0.339,-5.337
0.269,0.034,0.342,-5.337
0.238,0.040,0.346,-5.337
0.189,0.040,0.345,-5.337
0.173,0.037,0.340,-5.337
0.161,0.035,0.337,-5.337
0.148,0.040,0.338,-5.337
0.163,0.040,0.340,-5.337
0.216,0.039,0.341,-5.337
0.238,0.040,0.339,-5.337
0.252,0.038,0.336,-5.337
0.291,0.037,0.338,-5.337
0.322,0.037,0.343,-5.337
0.240,0.040,0.345,-5.337
0.189,0.040,0.342,-5.337
0.225,0.040,0.342,-5.337
0.239,0.036,0.341,-5.337
0.260,0.034,0.343,-5.337
0.236,0.031,0.344,-5.337
0.244,0.036,0.340,-5.337
0.164,0.039,0.333,-5.337
0.160,0.039,0.332,-5.337
0.235,0.037,0.339,-5.337
0.273,0.036,0.346,-5.337
0.213,0.038,0.348,-5.337
0.192,0.040,0.347,-5.337
0.231,0.038,0.342,-5.337
0.204,0.040,0.339,-5.337
0.147,0.040,0.336,-5.337
0.231,0.038,0.339,-5.337
0.348,0.035,0.344,-5.337
0.324,0.035,0.347,-5.337
0.261,0.040,0.346,-5.337
0.225,0.041,0.341,-5.337
0.166,0.042,0.341,-5.337
0.074,0.046,0.338,-5.337
0.087,0.045,0.341,-5.337
0.165,0.044,0.342,-5.337
0.187,0.042,0.339,-5.337
0.223,0.039,0.335,-5.337
0.225,0.041,0.334,-5.337
0.243,0.039,0.338,-5.337
0.250,0.040,0.342,-5.337
0.259,0.041,0.341,-5.337
0.237,0.037,0.342,-5.337
0.214,0.034,0.343,-5.337
0.208,0.035,0.346,-5.337
0.198,0.038,0.344,-5.337
0.219,0.041,0.343,-5.337
0.223,0.041,0.344,-5.337
0.203,0.042,0.344,-5.337
0.171,0.041,0.340,-5.337
0.278,0.040,0.333,-5.337
0.301,0.038,0.335,-5.337
0.243,0.039,0.339,-5.337
0.175,0.038,0.343,-5.337
0.256,0.038,0.345,-5.337
0.264,0.040,0.344,-5.337
0.180,0.041,0.339,-5.337
0.142,0.043,0.343,-5.337
0.080,0.043,0.349,-5.337
0.062,0.043,0.348,-5.337
0.115,0.041,0.344,-5.337
0.125,0.043,0.342,-5.337
0.104,0.045,0.339,-5.337
0.113,0.044,0.337,-5.337
0.123,0.044,0.338,-5.337
0.126,0.046,0.339,-5.337
0.110,0.045,0.338,-5.337
0.129,0.042,0.339,-5.337
0.218,0.040,0.341,-5.337
0.234,0.042,0.343,-5.337
0.183,0.045,0.339,-5.337
0.151,0.043,0.334,-5.337
0.181,0.042,0.333,-5.337
0.257,0.036,0.338,-5.337
0.323,0.034,0.343,-5.337
0.269,0.038,0.338,-5.337
0.213,0.036,0.340,-5.337
0.179,0.035,0.343,-5.337
0.181,0.034,0.344,-5.337
0.209,0.035,0.341,-5.337
0.223,0.037,0.341,-5.337
0.259,0.039,0.341,-5.337
0.265,0.043,0.341,-5.337
0.254,0.046,0.340,-5.337
0.190,0.046,0.339,-5.337
0.210,0.044,0.337,-5.337
0.216,0.046,0.340,-5.337
0.251,0.042,0.341,-5.337
0.315,0.038,0.338,-5.337
0.292,0.039,0.340,-5.337
0.204,0.046,0.344,-5.337
0.127,0.048,0.343,-5.337
0.178,0.044,0.339,-5.337
0.156,0.042,0.336,-5.337
0.190,0.041,0.338,-5.337
0.218,0.045,0.339,-5.337
0.155,0.049,0.340,-5.337
0.170,0.046,0.341,-5.337
0.195,0.043,0.340,-5.337
0.130,0.043,0.340,-5.337
0.129,0.043,0.341,-5.337
0.199,0.042,0.346,-5.337
0.184,0.042,0.343,-5.337
0.114,0.044,0.339,-5.337
0.073,0.047,0.337,-5.337
0.084,0.048,0.340,-5.337
0.161,0.047,0.340,-5.337
0.191,0.046,0.339,-5.337
0.196,0.041,0.338,-5.337
0.183,0.039,0.337,-5.337
0.214,0.036,0.337,-5.337
0.297,0.036,0.339,-5.337
0.297,0.038,0.339,-5.337
0.234,0.042,0.342,-5.337
0.174,0.042,0.343,-5.337
0.126,0.039,0.343,-5.337
0.143,0.039,0.339,-5.337
0.132,0.042,0.341,-5.337
0.121,0.044,0.343,-5.337
0.107,0.042,0.341,-5.337
0.166,0.038,0.342,-5.337
0.198,0.041,0.342,-5.337
0.180,0.047,0.345,-5.337
0.159,0.051,0.344,-5.337
0.186,0.048,0.341,-5.337
0.176,0.046,0.333,-5.337
0.126,0.048,0.334,-5.337
0.201,0.048,0.338,-5.337
0.257,0.048,0.342,-5.337
0.184,0.049,0.342,-5.337
0.107,0.050,0.341,-5.337
0.080,0.047,0.339,-5.337
0.102,0.050,0.341,-5.337
0.116,0.051,0.343,-5.337
0.130,0.051,0.343,-5.337
0.126,0.049,0.340,-5.337
0.156,0.047,0.341,-5.337
0.186,0.047,0.343,-5.337
0.231,0.048,0.345,-5.337
0.294,0.048,0.347,-5.337
0.338,0.044,0.343,-5.337
0.231,0.047,0.338,-5.337
0.191,0.048,0.337,-5.337
0.192,0.049,0.339,-5.337
0.211,0.049,0.342,-5.337
0.232,0.048,0.345,-5.337
0.206,0.049,0.343,-5.337
0.104,0.048,0.343,-5.337
0.144,0.046,0.340,-5.337
0.150,0.050,0.337,-5.337
0.121,0.047,0.339,-5.337
0.095,0.046,0.342,-5.337
0.191,0.045,0.341,-5.337
0.259,0.050,0.342,-5.337
0.320,0.051,0.340,-5.337
0.291,0.053,0.337,-5.337
0.171,0.050,0.334,-5.337
0.200,0.051,0.335,-5.337
0.220,0.048,0.338,-5.337
0.177,0.050,0.339,-5.337
0.099,0.052,0.338,-5.337
0.174,0.046,0.340,-5.337
0.235,0.045,0.342,-5.337
0.198,0.049,0.339,-5.337
0.198,0.049,0.337,-5.337
0.226,0.043,0.338,-5.337
0.253,0.043,0.340,-5.337
0.213,0.048,0.339,-5.337
0.109,0.051,0.342,-5.337
0.122,0.047,0.341,-5.337
0.178,0.045,0.343,-5.337
0.217,0.046,0.340,-5.337
0.244,0.050,0.340,-5.337
0.271,0.051,0.340,-5.337
0.233,0.051,0.339,-5.337
0.182,0.047,0.338,-5.337
0.156,0.046,0.340,-5.337
0.221,0.045,0.342,-5.337
0.247,0.046,0.343,-5.337
0.222,0.044,0.341,-5.337
0.251,0.042,0.337,-5.337
0.217,0.042,0.338,-5.337
0.167,0.043,0.338,-5.337
0.157,0.048,0.338,-5.337
0.148,0.048,0.341,-5.337
0.155,0.048,0.348,-5.337
0.131,0.051,0.346,-5.337
0.124,0.051,0.342,-5.337
0.183,0.052,0.337,-5.337
0.190,0.051,0.337,-5.337
0.150,0.051,0.335,-5.337
0.127,0.053,0.336,-5.337
0.241,0.050,0.339,-5.337
0.267,0.050,0.342,-5.337
0.165,0.055,0.340,-5.337
0.061,0.054,0.340,-5.337
0.112,0.052,0.343,-5.337
0.186,0.052,0.344,-5.337
0.200,0.055,0.342,-5.337
0.184,0.055,0.343,-5.337
0.163,0.051,0.344,-5.337
0.234,0.050,0.342,-5.337
0.221,0.052,0.342,-5.337
0.219,0.052,0.339,-5.337
0.224,0.050,0.338,-5.337
0.195,0.051,0.340,-5.337
0.216,0.052,0.343,-5.337
0.254,0.049,0.344,-5.337
0.189,0.050,0.343,-5.337
0.195,0.047,0.339,-5.337
0.233,0.047,0.338,-5.337
0.189,0.051,0.338,-5.337
0.194,0.049,0.337,-5.337
0.205,0.050,0.337,-5.337
0.201,0.049,0.339,-5.337
0.283,0.045,0.344,-5.337
0.330,0.045,0.350,-5.337
0.283,0.046,0.349,-5.337
0.240,0.050,0.342,-5.337
0.205,0.052,0.335,-5.337
0.206,0.051,0.336,-5.337
0.186,0.051,0.338,-5.337
0.185,0.053,0.341,-5.337
0.247,0.051,0.340,-5.337
0.211,0.053,0.341,-5.337
0.159,0.054,0.343,-5.337
0.124,0.058,0.343,-5.337
0.060,0.060,0.343,-5.337
0.117,0.058,0.343,-5.337
0.090,0.059,0.342,-5.337
0.122,0.062,0.341,-5.337
0.155,0.059,0.342,-5.337
0.230,0.055,0.342,-5.337
0.225,0.055,0.342,-5.337
0.198,0.056,0.343,-5.337
0.160,0.061,0.343,-5.337
0.105,0.061,0.339,-5.337
0.129,0.057,0.337,-5.337
0.213,0.054,0.339,-5.337
0.213,0.059,0.342,-5.337
0.206,0.057,0.339,-5.337
0.201,0.057,0.337,-5.337
0.156,0.056,0.338,-5.337
0.091,0.057,0.341,-5.337
0.093,0.059,0.346,-5.337
0.153,0.059,0.347,-5.337
0.234,0.059,0.342,-5.337
0.218,0.059,0.337,-5.337
0.197,0.054,0.335,-5.337
0.240,0.052,0.336,-5.337
0.183,0.056,0.338,-5.337
0.157,0.057,0.338,-5.337
0.169,0.057,0.338,-5.337
0.160,0.058,0.342,-5.337
0.150,0.059,0.343,-5.337
0.165,0.060,0.343,-5.337
0.209,0.056,0.343,-5.337
0.184,0.053,0.339,-5.337
0.186,0.056,0.338,-5.337
0.225,0.057,0.337,-5.337
0.134,0.061,0.344,-5.337
0.146,0.057,0.345,-5.337
0.185,0.054,0.344,-5.337
0.224,0.055,0.340,-5.337
0.182,0.059,0.335,-5.337
0.137,0.059,0.335,-5.337
0.167,0.055,0.337,-5.337
0.191,0.054,0.336,-5.337
0.245,0.050,0.335,-5.337
0.252,0.052,0.338,-5.337
0.168,0.054,0.340,-5.337
0.068,0.060,0.341,-5.337
0.099,0.058,0.339,-5.337
0.183,0.054,0.340,-5.337
0.207,0.056,0.343,-5.337
0.177,0.057,0.344,-5.337
0.154,0.061,0.342,-5.337
0.173,0.061,0.342,-5.337
0.210,0.056,0.339,-5.337
0.176,0.057,0.340,-5.337
0.151,0.060,0.342,-5.337
0.178,0.065,0.343,-5.337
0.148,0.061,0.338,-5.337
0.181,0.059,0.337,-5.337
0.241,0.056,0.339,-5.337
0.259,0.055,0.341,-5.337
0.250,0.057,0.339,-5.337
0.223,0.058,0.338,-5.337
0.223,0.061,0.338,-5.337
0.156,0.066,0.339,-5.337
0.106,0.065,0.342,-5.337
0.180,0.060,0.343,-5.337
0.235,0.060,0.339,-5.337
0.196,0.061,0.337,-5.337
0.161,0.062,0.340,-5.337
0.144,0.060,0.343,-5.337
0.120,0.059,0.342,-5.337
0.092,0.061,0.335,-5.337
0.098,0.064,0.335,-5.337
0.154,0.063,0.340,-5.337
0.186,0.061,0.341,-5.337
0.174,0.059,0.340,-5.337
0.151,0.062,0.342,-5.337
0.144,0.060,0.342,-5.337
0.079,0.058,0.342,-5.337
0.172,0.058,0.339,-5.337
0.297,0.058,0.335,-5.337
0.264,0.057,0.335,-5.337
0.174,0.059,0.336,-5.337
0.124,0.058,0.340,-5.337
0.217,0.058,0.342,-5.337
0.276,0.054,0.342,-5.337
0.275,0.054,0.341,-5.337
0.271,0.052,0.339,-5.337
0.327,0.052,0.339,-5.337
0.301,0.053,0.341,-5.337
0.228,0.054,0.343,-5.337
0.156,0.054,0.345,-5.337
0.184,0.054,0.342,-5.337
0.221,0.052,0.342,-5.337
0.163,0.049,0.340,-5.337
0.111,0.051,0.340,-5.337
0.183,0.052,0.338,-5.337
0.241,0.053,0.336,-5.337
0.156,0.053,0.333,-5.337
0.099,0.055,0.332,-5.337
0.087,0.052,0.332,-5.337
0.174,0.050,0.334,-5.337
0.256,0.053,0.336,-5.337
0.272,0.055,0.337,-5.337
0.186,0.056,0.341,-5.337
0.182,0.056,0.342,-5.337
0.200,0.056,0.345,-5.337
0.174,0.057,0.345,-5.337
0.169,0.056,0.343,-5.337
0.197,0.052,0.338,-5.337
0.167,0.053,0.335,-5.337
0.085,0.054,0.337,-5.337
0.069,0.051,0.341,-5.337
0.148,0.048,0.341,-5.337
0.232,0.046,0.340,-5.337
0.268,0.047,0.338,-5.337
0.296,0.047,0.341,-5.337
0.222,0.051,0.339,-5.337
0.167,0.053,0.337,-5.337
0.152,0.052,0.334,-5.337
0.165,0.053,0.335,-5.337
0.172,0.050,0.337,-5.337
0.178,0.044,0.339,-5.337
0.198,0.043,0.340,-5.337
0.209,0.046,0.340,-5.337
0.216,0.045,0.338,-5.337
0.228,0.049,0.339,-5.337
0.191,0.048,0.340,-5.337
0.140,0.051,0.342,-5.337
0.182,0.047,0.342,-5.337
0.318,0.044,0.341,-5.337
0.272,0.046,0.338,-5.337
0.185,0.050,0.336,-5.337
0.231,0.048,0.337,-5.337
0.223,0.047,0.338,-5.337
0.144,0.051,0.337,-5.337
0.079,0.053,0.339,-5.337
0.076,0.054,0.343,-5.337
0.058,0.054,0.342,-5.337
0.072,0.048,0.343,-5.337
0.124,0.049,0.341,-5.337
0.204,0.050,0.337,-5.337
0.223,0.051,0.338,-5.337
0.226,0.050,0.342,-5.337
0.231,0.047,0.341,-5.337
0.230,0.049,0.341,-5.337
0.264,0.044,0.340,-5.337
0.251,0.048,0.342,-5.337
0.187,0.046,0.343,-5.337
0.210,0.045,0.347,-5.337
0.199,0.042,0.345,-5.337
0.170,0.044,0.342,-5.337
0.128,0.047,0.341,-5.337
0.178,0.045,0.341,-5.337
0.212,0.046,0.337,-5.337
0.148,0.047,0.334,-5.337
0.171,0.043,0.335,-5.337
0.181,0.041,0.336,-5.337
0.146,0.043,0.339,-5.337
0.139,0.044,0.343,-5.337
0.136,0.046,0.345,-5.337
0.142,0.044,0.343,-5.337
0.141,0.042,0.339,-5.337
0.251,0.040,0.337,-5.337
0.260,0.043,0.334,-5.337
0.173,0.043,0.334,-5.337
0.162,0.041,0.338,-5.337
0.202,0.040,0.340,-5.337
0.205,0.043,0.342,-5.337
0.125,0.049,0.344,-5.337
0.082,0.046,0.349,-5.337
0.142,0.042,0.348,-5.337
0.200,0.043,0.342,-5.337
0.183,0.043,0.339,-5.337
0.197,0.048,0.342,-5.337
0.202,0.045,0.343,-5.337
0.218,0.045,0.342,-5.337
0.183,0.043,0.340,-5.337
0.141,0.045,0.338,-5.337
0.144,0.046,0.338,-5.337
0.213,0.041,0.337,-5.337
0.274,0.037,0.337,-5.337
0.297,0.037,0.341,-5.337
0.240,0.035,0.343,-5.337
0.240,0.039,0.341,-5.337
0.296,0.041,0.340,-5.337
0.264,0.041,0.340,-5.337
0.211,0.045,0.344,-5.337
0.235,0.043,0.343,-5.337
0.285,0.041,0.343,-5.337
0.280,0.043,0.342,-5.337
0.249,0.045,0.343,-5.337
0.264,0.042,0.342,-5.337
0.225,0.044,0.341,-5.337
0.131,0.045,0.338,-5.337
0.152,0.045,0.342,-5.337
0.209,0.044,0.344,-5.337
0.259,0.044,0.343,-5.337
0.279,0.043,0.343,-5.337
0.162,0.047,0.343,-5.337
0.160,0.044,0.341,-5.337
0.238,0.043,0.339,-5.337
0.248,0.045,0.342,-5.337
0.237,0.043,0.340,-5.337
0.216,0.040,0.340,-5.337
0.236,0.037,0.342,-5.337
0.313,0.035,0.342,-5.337
0.299,0.042,0.340,-5.337
0.264,0.046,0.342,-5.337
0.241,0.043,0.344,-5.337
0.220,0.043,0.344,-5.337
0.170,0.043,0.339,-5.337
0.092,0.042,0.338,-5.337
0.094,0.042,0.342,-5.337
0.171,0.040,0.344,-5.337
0.194,0.037,0.343,-5.337
0.177,0.038,0.340,-5.337
0.154,0.039,0.337,-5.337
0.235,0.039,0.338,-5.337
0.242,0.040,0.337,-5.337
0.175,0.042,0.336,-5.337
0.214,0.041,0.336,-5.337
0.263,0.038,0.338,-5.337
0.269,0.040,0.340,-5.337
0.216,0.044,0.341,-5.337
0.034,0.047,0.340,-5.337
-0.010,0.046,0.338,-5.337
0.085,0.045,0.341,-5.337
0.151,0.045,0.343,-5.337
0.210,0.043,0.348,-5.337
0.198,0.042,0.343,-5.337
0.224,0.046,0.339,-5.337
0.165,0.047,0.336,-5.337
0.098,0.048,0.340,-5.337
0.149,0.047,0.343,-5.337
0.190,0.047,0.346,-5.337
0.201,0.048,0.342,-5.337
0.205,0.046,0.341,-5.337
0.155,0.047,0.344,-5.337
0.144,0.045,0.345,-5.337
0.183,0.045,0.342,-5.337
0.236,0.044,0.339,-5.337
0.228,0.044,0.340,-5.337
0.193,0.045,0.339,-5.337
0.185,0.044,0.337,-5.337
0.229,0.042,0.337,-5.337
0.234,0.041,0.340,-5.337
0.221,0.041,0.342,-5.337
0.237,0.039,0.342,-5.337
0.206,0.040,0.338,-5.337
0.162,0.037,0.338,-5.337
0.233,0.033,0.344,-5.337
0.347,0.034,0.349,-5.337
0.335,0.033,0.344,-5.337
0.281,0.037,0.344,-5.337
0.282,0.036,0.344,-5.337
0.222,0.038,0.340,-5.337
0.130,0.039,0.337,-5.337
0.069,0.041,0.340,-5.337
0.124,0.038,0.341,-5.337
0.215,0.038,0.339,-5.337
0.272,0.035,0.339,-5.337
0.261,0.037,0.344,-5.337
0.198,0.038,0.343,-5.337
0.198,0.037,0.341,-5.337
0.266,0.036,0.339,-5.337
0.269,0.040,0.339,-5.337
0.203,0.043,0.338,-5.337
0.190,0.044,0.345,-5.337
0.195,0.043,0.349,-5.337
0.206,0.045,0.346,-5.337
0.214,0.045,0.345,-5.337
0.234,0.044,0.345,-5.337
0.257,0.042,0.346,-5.337
0.257,0.043,0.342,-5.337
0.199,0.044,0.343,-5.337
0.178,0.046,0.340,-5.337
0.101,0.044,0.341,-5.337
0.148,0.041,0.341,-5.337
0.286,0.035,0.341,-5.337
0.297,0.036,0.341,-5.337
0.185,0.041,0.339,-5.337
0.161,0.041,0.340,-5.337
0.158,0.043,0.342,-5.337
0.150,0.040,0.346,-5.337
0.135,0.043,0.345,-5.337
0.147,0.042,0.343,-5.337
0.201,0.038,0.342,-5.337
0.177,0.037,0.340,-5.337
0.167,0.038,0.341,-5.337
0.175,0.041,0.341,-5.337
0.182,0.038,0.340,-5.337
0.243,0.033,0.338,-5.337
0.274,0.036,0.338,-5.337
0.262,0.039,0.340,-5.337
0.260,0.038,0.340,-5.337
0.316,0.035,0.343,-5.337
0.323,0.036,0.343,-5.337
0.219,0.040,0.340,-5.337
0.125,0.045,0.339,-5.337
0.097,0.044,0.346,-5.337
0.125,0.039,0.347,-5.337
0.153,0.037,0.344,-5.337
0.171,0.036,0.342,-5.337
0.219,0.039,0.343,-5.337
0.211,0.040,0.343,-5.337
0.190,0.039,0.342,-5.337
0.162,0.039,0.341,-5.337
0.182,0.036,0.338,-5.337
0.257,0.035,0.334,-5.337
0.256,0.037,0.334,-5.337
0.260,0.041,0.338,-5.337
0.208,0.043,0.342,-5.337
0.197,0.041,0.342,-5.337
0.205,0.039,0.342,-5.337
0.244,0.036,0.340,-5.337
0.245,0.041,0.339,-5.337
0.232,0.040,0.341,-5.337
0.136,0.041,0.342,-5.337
0.077,0.038,0.341,-5.337
0.175,0.038,0.339,-5.337
0.204,0.040,0.338,-5.337
0.195,0.037,0.336,-5.337
0.169,0.039,0.336,-5.337
0.194,0.040,0.338,-5.337
0.200,0.040,0.344,-5.337
0.168,0.041,0.342,-5.337
0.236,0.042,0.340,-5.337
0.275,0.038,0.340,-5.337
0.247,0.038,0.341,-5.337
0.195,0.040,0.343,-5.337
0.161,0.040,0.344,-5.337
0.157,0.043,0.342,-5.337
0.179,0.042,0.343,-5.337
0.179,0.037,0.342,-5.337
0.119,0.039,0.339,-5.337
0.098,0.038,0.335,-5.337
0.112,0.041,0.333,-5.337
0.176,0.040,0.334,-5.337
0.179,0.040,0.336,-5.337
0.167,0.040,0.337,-5.337
0.209,0.043,0.342,-5.337
0.208,0.042,0.346,-5.337
0.190,0.042,0.341,-5.337
0.145,0.041,0.338,-5.337
0.127,0.042,0.337,-5.337
0.167,0.040,0.343,-5.337
0.233,0.037,0.343,-5.337
0.202,0.041,0.340,-5.337
0.172,0.041,0.343,-5.337
0.162,0.041,0.343,-5.337
0.193,0.043,0.341,-5.337
0.235,0.042,0.338,-5.337
0.280,0.041,0.342,-5.337
0.266,0.046,0.345,-5.337
0.207,0.047,0.343,-5.337
0.139,0.048,0.339,-5.337
0.119,0.048,0.337,-5.337
0.117,0.052,0.337,-5.337
0.137,0.051,0.339,-5.337
0.236,0.044,0.341,-5.337
0.226,0.046,0.342,-5.337
0.174,0.049,0.336,-5.337
0.221,0.048,0.332,-5.337
0.194,0.048,0.337,-5.337
0.160,0.049,0.343,-5.337
0.139,0.049,0.341,-5.337
0.155,0.046,0.335,-5.337
0.196,0.048,0.331,-5.337
0.212,0.045,0.335,-5.337
0.277,0.041,0.341,-5.337
0.279,0.041,0.341,-5.337
0.201,0.045,0.340,-5.337
0.134,0.047,0.339,-5.337
0.165,0.044,0.340,-5.337
0.208,0.046,0.341,-5.337
0.153,0.047,0.339,-5.337
0.102,0.047,0.342,-5.337
0.162,0.048,0.345,-5.337
0.236,0.048,0.342,-5.337
0.222,0.048,0.339,-5.337
0.248,0.046,0.338,-5.337
0.244,0.049,0.340,-5.337
0.214,0.047,0.339,-5.337
0.174,0.045,0.338,-5.337
0.178,0.045,0.338,-5.337
0.255,0.043,0.340,-5.337
0.292,0.044,0.338,-5.337
0.191,0.047,0.337,-5.337
0.092,0.048,0.338,-5.337
0.165,0.046,0.341,-5.337
0.210,0.041,0.343,-5.337
0.253,0.045,0.340,-5.337
0.192,0.047,0.339,-5.337
0.182,0.048,0.342,-5.337
0.118,0.045,0.340,-5.337
0.137,0.046,0.337,-5.337
0.132,0.049,0.335,-5.337
0.109,0.052,0.337,-5.337
0.081,0.053,0.338,-5.337
0.097,0.051,0.336,-5.337
0.126,0.050,0.335,-5.337
0.122,0.052,0.334,-5.337
0.122,0.050,0.335,-5.337
0.113,0.050,0.335,-5.337
0.153,0.048,0.338,-5.337
0.214,0.049,0.343,-5.337
0.197,0.050,0.345,-5.337
0.173,0.050,0.343,-5.337
0.178,0.047,0.341,-5.337
0.221,0.047,0.338,-5.337
0.239,0.051,0.337,-5.337
0.228,0.050,0.339,-5.337
0.217,0.050,0.343,-5.337
0.196,0.051,0.342,-5.337
0.205,0.055,0.340,-5.337
0.190,0.049,0.340,-5.337
0.289,0.047,0.338,-5.337
0.344,0.046,0.339,-5.337
0.297,0.047,0.340,-5.337
0.239,0.048,0.339,-5.337
0.221,0.048,0.341,-5.337
0.276,0.047,0.341,-5.337
0.206,0.050,0.340,-5.337
0.183,0.049,0.336,-5.337
0.151,0.052,0.333,-5.337
0.110,0.054,0.333,-5.337
0.097,0.057,0.339,-5.337
0.114,0.054,0.341,-5.337
0.120,0.054,0.340,-5.337
0.140,0.051,0.340,-5.337
0.190,0.052,0.343,-5.337
0.214,0.052,0.345,-5.337
0.181,0.052,0.342,-5.337
0.089,0.050,0.341,-5.337
0.064,0.052,0.341,-5.337
0.146,0.053,0.341,-5.337
0.190,0.053,0.339,-5.337
0.200,0.053,0.339,-5.337
0.188,0.052,0.339,-5.337
0.201,0.053,0.339,-5.337
0.183,0.054,0.339,-5.337
0.167,0.053,0.338,-5.337
0.269,0.051,0.338,-5.337
0.323,0.050,0.339,-5.337
0.262,0.054,0.338,-5.337
0.143,0.059,0.338,-5.337
0.162,0.058,0.340,-5.337
0.216,0.054,0.344,-5.337
0.182,0.057,0.344,-5.337
0.117,0.058,0.343,-5.337
0.120,0.055,0.342,-5.337
0.183,0.053,0.337,-5.337
0.267,0.050,0.334,-5.337
0.190,0.054,0.334,-5.337
0.120,0.053,0.341,-5.337
0.198,0.052,0.346,-5.337
0.235,0.055,0.349,-5.337
0.118,0.054,0.343,-5.337
0.063,0.060,0.338,-5.337
0.097,0.063,0.335,-5.337
0.103,0.062,0.341,-5.337
0.118,0.056,0.345,-5.337
0.174,0.055,0.345,-5.337
0.212,0.056,0.343,-5.337
0.180,0.060,0.340,-5.337
0.128,0.060,0.339,-5.337
0.172,0.061,0.339,-5.337
0.230,0.058,0.338,-5.337
0.260,0.057,0.339,-5.337
0.285,0.058,0.340,-5.337
0.279,0.058,0.339,-5.337
0.320,0.054,0.342,-5.337
0.305,0.053,0.342,-5.337
0.269,0.056,0.340,-5.337
0.273,0.058,0.337,-5.337
0.232,0.056,0.339,-5.337
0.198,0.058,0.340,-5.337
0.207,0.059,0.339,-5.337
0.220,0.057,0.339,-5.337
0.165,0.060,0.341,-5.337
0.055,0.062,0.343,-5.337
0.065,0.057,0.345,-5.337
0.248,0.052,0.346,-5.337
0.302,0.059,0.347,-5.337
0.199,0.061,0.344,-5.337
0.188,0.059,0.337,-5.337
0.198,0.061,0.332,-5.337
0.167,0.060,0.332,-5.337
0.246,0.059,0.337,-5.337
0.333,0.057,0.337,-5.337
0.263,0.060,0.337,-5.337
0.150,0.062,0.338,-5.337
0.162,0.060,0.342,-5.337
0.238,0.060,0.343,-5.337
0.253,0.064,0.339,-5.337
0.188,0.067,0.333,-5.337
0.136,0.066,0.337,-5.337
0.139,0.065,0.341,-5.337
0.207,0.065,0.343,-5.337
0.247,0.064,0.343,-5.337
0.221,0.063,0.345,-5.337
0.152,0.064,0.346,-5.337
0.144,0.066,0.343,-5.337
0.204,0.065,0.339,-5.337
0.215,0.067,0.338,-5.337
0.155,0.068,0.340,-5.337
0.191,0.068,0.339,-5.337
0.215,0.067,0.337,-5.337
0.197,0.066,0.338,-5.337
0.176,0.066,0.340,-5.337
0.180,0.066,0.341,-5.337
0.176,0.065,0.342,-5.337
0.139,0.065,0.339,-5.337
0.136,0.062,0.338,-5.337
0.196,0.065,0.341,-5.337
0.211,0.062,0.344,-5.337
0.182,0.065,0.344,-5.337
0.148,0.068,0.342,-5.337
0.111,0.066,0.339,-5.337
0.168,0.064,0.336,-5.337
0.253,0.062,0.335,-5.337
0.261,0.061,0.338,-5.337
0.195,0.060,0.337,-5.337
0.178,0.062,0.339,-5.337
0.179,0.060,0.341,-5.337
0.173,0.062,0.343,-5.337
0.134,0.065,0.343,-5.337
0.132,0.065,0.344,-5.337
0.162,0.063,0.344,-5.337
0.214,0.059,0.342,-5.337
0.281,0.062,0.343,-5.337
0.204,0.067,0.343,-5.337
0.125,0.069,0.340,-5.337
0.168,0.069,0.338,-5.337
0.228,0.065,0.339,-5.337
0.219,0.070,0.342,-5.337
0.165,0.071,0.340,-5.337
0.152,0.066,0.340,-5.337
0.230,0.063,0.341,-5.337
0.213,0.067,0.341,-5.337
0.144,0.066,0.340,-5.337
0.177,0.063,0.339,-5.337
0.175,0.061,0.340,-5.337
0.144,0.058,0.339,-5.337
0.125,0.057,0.342,-5.337
0.181,0.056,0.340,-5.337
0.188,0.059,0.339,-5.337
0.169,0.059,0.338,-5.337
0.187,0.056,0.339,-5.337
0.136,0.055,0.341,-5.337
0.161,0.057,0.342,-5.337
0.181,0.062,0.342,-5.337
0.220,0.056,0.344,-5.337
0.191,0.058,0.342,-5.337
0.218,0.061,0.339,-5.337
0.260,0.057,0.338,-5.337
0.236,0.056,0.339,-5.337
0.226,0.056,0.342,-5.337
0.217,0.059,0.341,-5.337
0.225,0.059,0.340,-5.337
0.237,0.058,0.339,-5.337
0.226,0.061,0.340,-5.337
0.146,0.065,0.339,-5.337
0.049,0.059,0.339,-5.337
0.083,0.058,0.334,-5.337
0.177,0.056,0.333,-5.337
0.221,0.054,0.332,-5.337
0.169,0.052,0.341,-5.337
0.194,0.051,0.346,-5.337
0.222,0.053,0.342,-5.337
0.152,0.056,0.336,-5.337
0.135,0.057,0.337,-5.337
0.082,0.060,0.337,-5.337
0.099,0.060,0.338,-5.337
0.149,0.055,0.340,-5.337
0.240,0.053,0.342,-5.337
0.290,0.052,0.338,-5.337
0.279,0.057,0.337,-5.337
0.208,0.054,0.340,-5.337
0.183,0.054,0.344,-5.337
0.221,0.055,0.342,-5.337
0.232,0.055,0.338,-5.337
0.197,0.058,0.340,-5.337
0.126,0.057,0.343,-5.337
0.127,0.056,0.345,-5.337
0.121,0.058,0.343,-5.337
0.086,0.056,0.344,-5.337
0.116,0.059,0.342,-5.337
0.163,0.057,0.342,-5.337
0.177,0.055,0.340,-5.337
0.236,0.055,0.336,-5.337
0.336,0.053,0.335,-5.337
0.323,0.057,0.335,-5.337
0.167,0.056,0.337,-5.337
0.164,0.056,0.338,-5.337
0.197,0.057,0.339,-5.337
0.161,0.059,0.339,-5.337
0.143,0.056,0.339,-5.337
0.136,0.056,0.340,-5.337
0.122,0.058,0.341,-5.337
0.205,0.055,0.343,-5.337
0.237,0.056,0.342,-5.337
0.187,0.057,0.336,-5.337
0.229,0.056,0.333,-5.337
0.306,0.057,0.338,-5.337
0.252,0.057,0.345,-5.337
0.160,0.057,0.346,-5.337
0.097,0.054,0.340,-5.337
0.190,0.050,0.333,-5.337
0.236,0.049,0.333,-5.337
0.196,0.051,0.334,-5.337
0.148,0.053,0.337,-5.337
0.172,0.051,0.341,-5.337
0.235,0.051,0.344,-5.337
0.249,0.052,0.343,-5.337
0.277,0.052,0.339,-5.337
0.269,0.053,0.336,-5.337
0.288,0.052,0.339,-5.337
0.281,0.048,0.343,-5.337
0.208,0.052,0.344,-5.337
0.224,0.052,0.341,-5.337
0.254,0.051,0.340,-5.337
0.247,0.053,0.341,-5.337
0.263,0.049,0.339,-5.337
0.289,0.048,0.339,-5.337
0.225,0.050,0.336,-5.337
0.130,0.050,0.336,-5.337
0.126,0.051,0.336,-5.337
0.190,0.050,0.342,-5.337
0.230,0.052,0.343,-5.337
0.176,0.060,0.342,-5.337
0.173,0.056,0.341,-5.337
0.233,0.054,0.342,-5.337
0.160,0.053,0.340,-5.337
0.163,0.054,0.339,-5.337
0.147,0.052,0.336,-5.337
0.216,0.050,0.337,-5.337
0.195,0.053,0.335,-5.337
0.082,0.056,0.334,-5.337
0.038,0.056,0.334,-5.337
0.091,0.052,0.336,-5.337
0.199,0.047,0.340,-5.337
0.236,0.047,0.344,-5.337
0.242,0.052,0.344,-5.337
0.208,0.050,0.341,-5.337
0.199,0.046,0.338,-5.337
0.228,0.051,0.338,-5.337
0.274,0.050,0.342,-5.337
0.253,0.050,0.341,-5.337
0.212,0.047,0.338,-5.337
0.269,0.046,0.336,-5.337
0.305,0.044,0.339,-5.337
0.222,0.046,0.339,-5.337
0.153,0.048,0.342,-5.337
0.250,0.045,0.341,-5.337
0.241,0.049,0.343,-5.337
0.198,0.050,0.343,-5.337
0.173,0.052,0.343,-5.337
0.150,0.048,0.339,-5.337
0.176,0.050,0.335,-5.337
0.142,0.050,0.335,-5.337
0.139,0.048,0.336,-5.337
0.193,0.049,0.339,-5.337
0.273,0.046,0.339,-5.337
0.270,0.044,0.342,-5.337
0.243,0.046,0.343,-5.337
0.220,0.045,0.342,-5.337
0.203,0.045,0.337,-5.337
0.237,0.046,0.332,-5.337
0.265,0.049,0.332,-5.337
0.206,0.050,0.338,-5.337
0.209,0.044,0.344,-5.337
0.274,0.042,0.347,-5.337
0.301,0.045,0.345,-5.337
0.306,0.049,0.341,-5.337
0.205,0.055,0.338,-5.337
0.132,0.052,0.338,-5.337
0.116,0.052,0.336,-5.337
0.110,0.050,0.336,-5.337
0.178,0.048,0.338,-5.337
0.191,0.049,0.342,-5.337
0.168,0.049,0.341,-5.337
0.147,0.049,0.337,-5.337
0.130,0.054,0.338,-5.337
0.085,0.052,0.343,-5.337
0.088,0.051,0.342,-5.337
0.212,0.048,0.341,-5.337
0.215,0.050,0.339,-5.337
0.180,0.052,0.338,-5.337
0.239,0.045,0.341,-5.337
0.300,0.046,0.341,-5.337
0.267,0.048,0.338,-5.337
0.211,0.049,0.333,-5.337
0.220,0.044,0.336,-5.337
0.279,0.045,0.341,-5.337
0.309,0.046,0.342,-5.337
0.252,0.047,0.341,-5.337
0.199,0.049,0.339,-5.337
0.181,0.048,0.332,-5.337
0.125,0.049,0.330,-5.337
0.104,0.046,0.334,-5.337
0.187,0.045,0.344,-5.337
0.187,0.047,0.347,-5.337
0.172,0.049,0.347,-5.337
0.123,0.049,0.344,-5.337
0.169,0.045,0.341,-5.337
0.228,0.042,0.339,-5.337
0.218,0.046,0.336,-5.337
0.211,0.047,0.337,-5.337
0.250,0.045,0.340,-5.337
0.215,0.048,0.343,-5.337
0.082,0.046,0.342,-5.337
0.098,0.041,0.342,-5.337
0.180,0.041,0.341,-5.337
0.233,0.042,0.338,-5.337
0.271,0.041,0.337,-5.337
0.286,0.042,0.342,-5.337
0.278,0.042,0.341,-5.337
0.259,0.041,0.340,-5.337
0.232,0.044,0.336,-5.337
0.215,0.046,0.335,-5.337
0.205,0.047,0.335,-5.337
0.186,0.048,0.341,-5.337
0.235,0.047,0.340,-5.337
0.268,0.047,0.339,-5.337
0.243,0.047,0.341,-5.337
0.217,0.046,0.345,-5.337
0.178,0.045,0.343,-5.337
0.177,0.049,0.341,-5.337
0.196,0.048,0.339,-5.337
0.205,0.043,0.339,-5.337
0.252,0.040,0.339,-5.337
0.238,0.045,0.342,-5.337
0.161,0.045,0.342,-5.337
0.128,0.043,0.338,-5.337
0.174,0.040,0.339,-5.337
0.245,0.040,0.341,-5.337
0.239,0.040,0.342,-5.337
0.230,0.041,0.343,-5.337
0.165,0.043,0.342,-5.337
0.124,0.044,0.337,-5.337
0.088,0.043,0.338,-5.337
0.143,0.043,0.339,-5.337
0.174,0.047,0.342,-5.337
0.206,0.047,0.342,-5.337
0.236,0.047,0.340,-5.337
0.284,0.043,0.341,-5.337
0.264,0.041,0.341,-5.337
0.147,0.044,0.342,-5.337
0.100,0.044,0.340,-5.337
0.243,0.039,0.340,-5.337
0.318,0.042,0.341,-5.337
0.245,0.046,0.342,-5.337
0.151,0.046,0.340,-5.337
0.167,0.042,0.337,-5.337
0.232,0.044,0.335,-5.337
0.221,0.043,0.335,-5.337
0.228,0.044,0.336,-5.337
0.265,0.044,0.340,-5.337
0.321,0.040,0.344,-5.337
0.307,0.040,0.345,-5.337
0.226,0.042,0.343,-5.337
0.194,0.042,0.341,-5.337
0.168,0.045,0.337,-5.337
0.165,0.046,0.339,-5.337
0.157,0.042,0.338,-5.337
0.161,0.043,0.339,-5.337
0.204,0.043,0.341,-5.337
0.270,0.046,0.340,-5.337
0.240,0.044,0.341,-5.337
0.188,0.040,0.343,-5.337
0.186,0.042,0.341,-5.337
0.202,0.046,0.339,-5.337
0.269,0.042,0.333,-5.337
0.288,0.041,0.334,-5.337
0.218,0.041,0.337,-5.337
0.208,0.045,0.345,-5.337
0.289,0.045,0.344,-5.337
0.255,0.043,0.339,-5.337
0.227,0.044,0.337,-5.337
0.204,0.042,0.335,-5.337
0.223,0.044,0.337,-5.337
0.169,0.046,0.340,-5.337
0.082,0.048,0.343,-5.337
0.148,0.045,0.343,-5.337
0.296,0.044,0.342,-5.337
0.283,0.044,0.342,-5.337
0.232,0.044,0.345,-5.337
0.247,0.042,0.341,-5.337
0.222,0.042,0.336,-5.337
0.178,0.046,0.339,-5.337
0.156,0.045,0.343,-5.337
0.181,0.041,0.340,-5.337
0.181,0.042,0.338,-5.337
0.220,0.039,0.341,-5.337
0.237,0.041,0.345,-5.337
0.179,0.040,0.344,-5.337
0.212,0.042,0.340,-5.337
0.239,0.042,0.338,-5.337
0.179,0.042,0.343,-5.337
0.179,0.043,0.345,-5.337
0.227,0.042,0.342,-5.337
0.230,0.042,0.339,-5.337
0.157,0.042,0.338,-5.337
0.132,0.039,0.340,-5.337
0.202,0.038,0.341,-5.337
0.254,0.036,0.342,-5.337
0.251,0.037,0.337,-5.337
0.203,0.038,0.337,-5.337
0.147,0.036,0.339,-5.337
0.160,0.032,0.340,-5.337
0.238,0.032,0.342,-5.337
0.284,0.033,0.345,-5.337
0.232,0.034,0.343,-5.337
0.175,0.035,0.339,-5.337
0.233,0.033,0.338,-5.337
0.185,0.041,0.341,-5.337
0.079,0.041,0.340,-5.337
0.109,0.039,0.336,-5.337
0.177,0.034,0.334,-5.337
0.205,0.033,0.339,-5.337
0.196,0.037,0.340,-5.337
0.160,0.034,0.340,-5.337
0.178,0.036,0.340,-5.337
0.212,0.038,0.339,-5.337
0.182,0.040,0.341,-5.337
0.195,0.038,0.344,-5.337
0.212,0.036,0.342,-5.337
0.183,0.037,0.339,-5.337
0.170,0.037,0.339,-5.337
0.143,0.037,0.338,-5.337
0.157,0.035,0.340,-5.337
0.209,0.036,0.339,-5.337
0.195,0.039,0.338,-5.337
0.204,0.038,0.337,-5.337
0.240,0.035,0.341,-5.337
0.266,0.036,0.339,-5.337
0.277,0.038,0.338,-5.337
0.284,0.036,0.340,-5.337
0.295,0.033,0.342,-5.337
0.242,0.031,0.343,-5.337
0.176,0.034,0.340,-5.337
0.190,0.033,0.334,-5.337
0.228,0.036,0.331,-5.337
0.251,0.036,0.338,-5.337
0.288,0.038,0.343,-5.337
0.195,0.041,0.342,-5.337
0.152,0.042,0.340,-5.337
0.188,0.040,0.338,-5.337
0.178,0.044,0.338,-5.337
0.208,0.043,0.339,-5.337
0.267,0.041,0.342,-5.337
0.243,0.043,0.344,-5.337
0.150,0.045,0.342,-5.337
0.131,0.046,0.344,-5.337
0.219,0.041,0.343,-5.337
0.231,0.041,0.344,-5.337
0.161,0.041,0.341,-5.337
0.184,0.040,0.338,-5.337
0.244,0.040,0.335,-5.337
0.255,0.041,0.335,-5.337
0.196,0.039,0.334,-5.337
0.175,0.039,0.337,-5.337
0.189,0.042,0.341,-5.337
0.129,0.044,0.341,-5.337
0.079,0.041,0.333,-5.337
0.085,0.038,0.331,-5.337
0.106,0.039,0.333,-5.337
0.080,0.042,0.337,-5.337
0.088,0.044,0.337,-5.337
0.172,0.041,0.338,-5.337
0.224,0.041,0.341,-5.337
0.212,0.040,0.339,-5.337
0.183,0.042,0.338,-5.337
0.151,0.041,0.342,-5.337
0.233,0.042,0.344,-5.337
0.305,0.040,0.342,-5.337
0.265,0.044,0.340,-5.337
0.135,0.045,0.338,-5.337
0.134,0.043,0.337,-5.337
0.267,0.042,0.337,-5.337
0.268,0.044,0.339,-5.337
0.219,0.042,0.342,-5.337
0.237,0.042,0.340,-5.337
0.210,0.046,0.336,-5.337
0.216,0.044,0.333,-5.337
0.271,0.041,0.336,-5.337
0.224,0.042,0.340,-5.337
0.204,0.045,0.340,-5.337
0.155,0.044,0.343,-5.337
0.121,0.044,0.340,-5.337
0.173,0.039,0.335,-5.337
0.201,0.038,0.333,-5.337
0.153,0.042,0.333,-5.337
0.172,0.046,0.337,-5.337
0.277,0.045,0.339,-5.337
0.328,0.042,0.337,-5.337
0.212,0.043,0.331,-5.337
0.152,0.043,0.332,-5.337
0.140,0.044,0.334,-5.337
0.154,0.045,0.337,-5.337
0.133,0.047,0.339,-5.337
0.133,0.048,0.341,-5.337
0.183,0.044,0.342,-5.337
0.239,0.045,0.343,-5.337
0.231,0.044,0.344,-5.337
0.227,0.051,0.344,-5.337
0.158,0.051,0.339,-5.337
0.145,0.050,0.334,-5.337
0.189,0.048,0.332,-5.337
0.263,0.049,0.335,-5.337
0.234,0.054,0.341,-5.337
0.121,0.055,0.343,-5.337
0.097,0.047,0.342,-5.337
0.129,0.041,0.341,-5.337
0.110,0.045,0.340,-5.337
0.123,0.051,0.337,-5.337
0.180,0.047,0.335,-5.337
0.163,0.043,0.336,-5.337
0.127,0.047,0.337,-5.337
0.148,0.047,0.335,-5.337
0.225,0.048,0.336,-5.337
0.258,0.048,0.335,-5.337
0.202,0.049,0.335,-5.337
0.148,0.050,0.334,-5.337
0.211,0.049,0.337,-5.337
0.226,0.050,0.339,-5.337
0.190,0.054,0.337,-5.337
0.182,0.050,0.336,-5.337
0.208,0.051,0.339,-5.337
0.173,0.052,0.342,-5.337
0.162,0.050,0.343,-5.337
0.201,0.048,0.341,-5.337
0.237,0.048,0.342,-5.337
0.186,0.050,0.342,-5.337
0.125,0.047,0.338,-5.337
0.186,0.047,0.333,-5.337
0.177,0.049,0.329,-5.337
0.161,0.047,0.330,-5.337
0.231,0.045,0.334,-5.337
0.224,0.050,0.341,-5.337
0.143,0.055,0.343,-5.337
0.058,0.058,0.343,-5.337
0.105,0.055,0.339,-5.337
0.136,0.054,0.339,-5.337
0.177,0.056,0.337,-5.337
0.243,0.057,0.338,-5.337
0.240,0.054,0.336,-5.337
0.175,0.052,0.335,-5.337
0.211,0.048,0.336,-5.337
0.253,0.052,0.337,-5.337
0.214,0.052,0.338,-5.337
0.277,0.052,0.337,-5.337
0.293,0.054,0.339,-5.337
0.216,0.053,0.339,-5.337
0.195,0.054,0.338,-5.337
0.199,0.056,0.338,-5.337
0.131,0.058,0.340,-5.337
0.141,0.054,0.341,-5.337
0.210,0.053,0.336,-5.337
0.159,0.057,0.333,-5.337
0.093,0.057,0.335,-5.337
0.107,0.054,0.338,-5.337
0.189,0.051,0.340,-5.337
0.210,0.049,0.341,-5.337
0.213,0.049,0.341,-5.337
0.204,0.054,0.336,-5.337
0.199,0.056,0.335,-5.337
0.181,0.053,0.335,-5.337
0.194,0.050,0.339,-5.337
0.285,0.049,0.340,-5.337
0.258,0.056,0.339,-5.337
0.222,0.061,0.336,-5.337
0.253,0.061,0.337,-5.337
0.229,0.058,0.337,-5.337
0.099,0.062,0.337,-5.337
0.066,0.060,0.339,-5.337
0.091,0.060,0.341,-5.337
0.179,0.058,0.340,-5.337
0.215,0.058,0.341,-5.337
0.193,0.061,0.342,-5.337
0.191,0.062,0.340,-5.337
0.134,0.060,0.336,-5.337
0.160,0.056,0.333,-5.337
0.228,0.055,0.337,-5.337
0.267,0.056,0.337,-5.337
0.272,0.056,0.340,-5.337
0.180,0.058,0.339,-5.337
0.103,0.061,0.340,-5.337
0.171,0.059,0.338,-5.337
0.203,0.061,0.339,-5.337
0.213,0.059,0.335,-5.337
0.253,0.056,0.337,-5.337
0.270,0.058,0.339,-5.337
0.249,0.060,0.343,-5.337
0.173,0.058,0.345,-5.337
0.181,0.055,0.343,-5.337
0.226,0.054,0.335,-5.337
0.218,0.055,0.332,-5.337
0.169,0.056,0.337,-5.337
0.213,0.056,0.339,-5.337
0.232,0.057,0.339,-5.337
0.182,0.060,0.337,-5.337
0.094,0.061,0.339,-5.337
0.116,0.059,0.344,-5.337
0.193,0.058,0.345,-5.337
0.155,0.062,0.340,-5.337
0.180,0.059,0.337,-5.337
0.235,0.058,0.336,-5.337
0.204,0.061,0.340,-5.337
0.176,0.062,0.341,-5.337
0.212,0.063,0.342,-5.337
0.220,0.065,0.341,-5.337
0.161,0.065,0.342,-5.337
0.103,0.063,0.340,-5.337
0.170,0.059,0.335,-5.337
0.227,0.057,0.331,-5.337
0.259,0.055,0.335,-5.337
0.242,0.057,0.340,-5.337
0.267,0.054,0.341,-5.337
0.248,0.055,0.340,-5.337
0.205,0.058,0.339,-5.337
0.198,0.059,0.341,-5.337
0.208,0.060,0.341,-5.337
0.169,0.055,0.336,-5.337
0.181,0.052,0.333,-5.337
0.215,0.057,0.336,-5.337
0.176,0.064,0.339,-5.337
0.189,0.060,0.342,-5.337
0.242,0.062,0.342,-5.337
0.280,0.060,0.343,-5.337
0.251,0.059,0.341,-5.337
0.148,0.063,0.337,-5.337
0.172,0.060,0.335,-5.337
0.185,0.057,0.338,-5.337
0.173,0.055,0.340,-5.337
0.182,0.058,0.340,-5.337
0.247,0.062,0.342,-5.337
0.273,0.058,0.343,-5.337
0.186,0.054,0.340,-5.337
0.178,0.053,0.338,-5.337
0.144,0.058,0.339,-5.337
0.158,0.059,0.340,-5.337
0.197,0.057,0.338,-5.337
0.171,0.058,0.336,-5.337
0.139,0.056,0.337,-5.337
0.197,0.060,0.341,-5.337
0.139,0.062,0.342,-5.337
0.163,0.061,0.340,-5.337
0.222,0.062,0.343,-5.337
0.193,0.061,0.342,-5.337
0.173,0.058,0.343,-5.337
0.137,0.057,0.341,-5.337
0.123,0.059,0.337,-5.337
0.151,0.056,0.334,-5.337
0.222,0.056,0.339,-5.337
0.248,0.059,0.341,-5.337
0.225,0.064,0.342,-5.337
0.217,0.065,0.341,-5.337
0.208,0.060,0.341,-5.337
0.233,0.057,0.337,-5.337
0.264,0.058,0.334,-5.337
0.226,0.060,0.340,-5.337
0.182,0.063,0.343,-5.337
0.207,0.056,0.339,-5.337
0.179,0.055,0.335,-5.337
0.186,0.058,0.335,-5.337
0.200,0.058,0.337,-5.337
0.242,0.055,0.336,-5.337
0.206,0.058,0.338,-5.337
0.132,0.060,0.338,-5.337
0.187,0.059,0.334,-5.337
0.254,0.061,0.337,-5.337
0.209,0.059,0.337,-5.337
0.152,0.058,0.339,-5.337
0.132,0.060,0.339,-5.337
0.216,0.056,0.341,-5.337
0.253,0.056,0.338,-5.337
0.222,0.054,0.336,-5.337
0.155,0.059,0.337,-5.337
0.122,0.061,0.339,-5.337
0.168,0.058,0.340,-5.337
0.242,0.056,0.339,-5.337
0.283,0.054,0.337,-5.337
0.303,0.057,0.339,-5.337
0.330,0.060,0.340,-5.337
0.285,0.060,0.342,-5.337
0.228,0.060,0.339,-5.337
0.210,0.063,0.336,-5.337
0.209,0.064,0.339,-5.337
0.197,0.062,0.341,-5.337
0.145,0.058,0.340,-5.337
0.066,0.060,0.338,-5.337
0.103,0.057,0.335,-5.337
0.171,0.052,0.335,-5.337
0.187,0.052,0.338,-5.337
0.121,0.056,0.338,-5.337
0.217,0.054,0.339,-5.337
0.219,0.053,0.338,-5.337
0.183,0.049,0.339,-5.337
0.251,0.048,0.340,-5.337
0.283,0.051,0.342,-5.337
0.219,0.052,0.341,-5.337
0.189,0.055,0.339,-5.337
0.249,0.051,0.336,-5.337
0.257,0.055,0.339,-5.337
0.183,0.053,0.339,-5.337
0.204,0.050,0.340,-5.337
0.172,0.049,0.340,-5.337
0.136,0.050,0.339,-5.337
0.112,0.050,0.336,-5.337
0.117,0.050,0.336,-5.337
0.171,0.049,0.336,-5.337
0.188,0.045,0.338,-5.337
0.286,0.042,0.342,-5.337
0.367,0.046,0.342,-5.337
0.323,0.048,0.340,-5.337
0.299,0.048,0.337,-5.337
0.264,0.050,0.337,-5.337
0.197,0.053,0.338,-5.337
0.190,0.051,0.340,-5.337
0.242,0.048,0.338,-5.337
0.315,0.050,0.339,-5.337
0.264,0.050,0.339,-5.337
0.143,0.053,0.341,-5.337
0.086,0.051,0.341,-5.337
0.150,0.051,0.341,-5.337
0.228,0.050,0.340,-5.337
0.274,0.049,0.338,-5.337
0.229,0.049,0.335,-5.337
0.135,0.049,0.335,-5.337
0.142,0.051,0.336,-5.337
0.171,0.053,0.338,-5.337
0.151,0.053,0.340,-5.337
0.193,0.052,0.340,-5.337
0.246,0.051,0.340,-5.337
0.225,0.051,0.341,-5.337
0.167,0.050,0.341,-5.337
0.117,0.050,0.339,-5.337
0.166,0.048,0.341,-5.337
0.205,0.048,0.341,-5.337
0.235,0.048,0.340,-5.337
0.305,0.042,0.336,-5.337
0.323,0.046,0.337,-5.337
0.271,0.049,0.337,-5.337
0.224,0.051,0.339,-5.337
0.153,0.052,0.338,-5.337
0.178,0.054,0.339,-5.337
0.278,0.050,0.336,-5.337
0.299,0.049,0.335,-5.337
0.228,0.050,0.338,-5.337
0.204,0.051,0.340,-5.337
0.207,0.049,0.338,-5.337
0.215,0.049,0.336,-5.337
0.213,0.048,0.337,-5.337
0.150,0.049,0.340,-5.337
0.241,0.046,0.339,-5.337
0.312,0.051,0.340,-5.337
0.199,0.053,0.344,-5.337
0.189,0.052,0.343,-5.337
0.214,0.052,0.338,-5.337
0.182,0.051,0.334,-5.337
0.226,0.052,0.335,-5.337
0.229,0.051,0.338,-5.337
0.152,0.048,0.341,-5.337
0.174,0.047,0.338,-5.337
0.271,0.043,0.339,-5.337
0.330,0.044,0.342,-5.337
0.273,0.047,0.343,-5.337
0.225,0.047,0.340,-5.337
0.253,0.044,0.337,-5.337
0.261,0.042,0.335,-5.337
0.176,0.047,0.335,-5.337
0.091,0.051,0.337,-5.337
0.099,0.048,0.342,-5.337
0.240,0.044,0.342,-5.337
0.268,0.047,0.338,-5.337
0.224,0.047,0.339,-5.337
0.170,0.044,0.338,-5.337
0.160,0.043,0.334,-5.337
0.105,0.044,0.333,-5.337
0.135,0.043,0.334,-5.337
0.147,0.042,0.335,-5.337
0.216,0.041,0.340,-5.337
0.180,0.044,0.341,-5.337
0.120,0.044,0.342,-5.337
0.105,0.043,0.341,-5.337
0.109,0.042,0.338,-5.337
0.107,0.043,0.335,-5.337
0.150,0.042,0.333,-5.337
0.170,0.041,0.334,-5.337
0.168,0.043,0.335,-5.337
0.088,0.045,0.336,-5.337
0.035,0.044,0.336,-5.337
0.098,0.042,0.338,-5.337
0.138,0.041,0.337,-5.337
0.160,0.041,0.337,-5.337
0.114,0.041,0.336,-5.337
0.091,0.040,0.337,-5.337
0.224,0.037,0.339,-5.337
0.266,0.038,0.338,-5.337
0.178,0.042,0.337,-5.337
0.117,0.042,0.335,-5.337
0.151,0.042,0.338,-5.337
0.202,0.041,0.341,-5.337
0.225,0.041,0.341,-5.337
0.315,0.039,0.341,-5.337
0.288,0.038,0.341,-5.337
0.299,0.036,0.339,-5.337
0.342,0.037,0.338,-5.337
0.239,0.040,0.339,-5.337
0.127,0.041,0.336,-5.337
0.169,0.039,0.337,-5.337
0.191,0.039,0.335,-5.337
0.230,0.043,0.336,-5.337
0.188,0.041,0.338,-5.337
0.180,0.043,0.340,-5.337
0.150,0.044,0.340,-5.337
0.097,0.047,0.341,-5.337
0.094,0.046,0.339,-5.337
0.167,0.047,0.336,-5.337
0.201,0.044,0.337,-5.337
0.310,0.042,0.341,-5.337
0.315,0.045,0.341,-5.337
0.251,0.047,0.340,-5.337
0.237,0.044,0.336,-5.337
0.222,0.044,0.334,-5.337
0.249,0.039,0.330,-5.337
0.242,0.038,0.332,-5.337
0.189,0.037,0.338,-5.337
0.208,0.035,0.337,-5.337
0.251,0.036,0.335,-5.337
0.250,0.038,0.334,-5.337
0.216,0.038,0.336,-5.337
0.190,0.040,0.337,-5.337
0.159,0.041,0.336,-5.337
0.121,0.038,0.336,-5.337
0.144,0.035,0.337,-5.337
0.159,0.037,0.339,-5.337
0.177,0.041,0.338,-5.337
0.210,0.042,0.338,-5.337
0.238,0.042,0.340,-5.337
0.208,0.041,0.341,-5.337
0.148,0.043,0.341,-5.337
0.123,0.044,0.338,-5.337
0.183,0.044,0.340,-5.337
0.221,0.042,0.339,-5.337
0.198,0.043,0.333,-5.337
0.210,0.042,0.328,-5.337
0.242,0.042,0.329,-5.337
0.237,0.043,0.340,-5.337
0.212,0.043,0.343,-5.337
0.171,0.041,0.345,-5.337
0.203,0.040,0.343,-5.337
0.220,0.042,0.341,-5.337
0.170,0.043,0.338,-5.337
0.106,0.043,0.336,-5.337
0.164,0.041,0.334,-5.337
0.306,0.041,0.334,-5.337
0.330,0.041,0.333,-5.337
0.273,0.042,0.335,-5.337
0.296,0.041,0.336,-5.337
0.322,0.043,0.337,-5.337
0.349,0.040,0.339,-5.337
0.280,0.041,0.340,-5.337
0.181,0.041,0.340,-5.337
0.199,0.037,0.341,-5.337
0.238,0.041,0.339,-5.337
0.163,0.041,0.339,-5.337
0.170,0.039,0.340,-5.337
0.225,0.041,0.340,-5.337
0.167,0.043,0.341,-5.337
0.123,0.042,0.340,-5.337
0.149,0.037,0.338,-5.337
0.216,0.036,0.335,-5.337
0.231,0.038,0.336,-5.337
0.163,0.038,0.337,-5.337
0.191,0.039,0.341,-5.337
0.245,0.039,0.343,-5.337
0.233,0.040,0.344,-5.337
0.196,0.039,0.341,-5.337
0.193,0.038,0.337,-5.337
0.154,0.037,0.335,-5.337
0.093,0.039,0.334,-5.337
0.128,0.034,0.336,-5.337
0.218,0.033,0.337,-5.337
0.217,0.034,0.336,-5.337
0.168,0.034,0.338,-5.337
0.154,0.037,0.341,-5.337
0.185,0.034,0.342,-5.337
0.239,0.031,0.339,-5.337
0.268,0.034,0.337,-5.337
0.200,0.033,0.337,-5.337
0.132,0.039,0.337,-5.337
0.146,0.039,0.340,-5.337
0.163,0.037,0.342,-5.337
0.230,0.036,0.341,-5.337
0.272,0.038,0.338,-5.337
0.212,0.041,0.337,-5.337
0.180,0.037,0.334,-5.337
0.207,0.033,0.335,-5.337
0.256,0.035,0.339,-5.337
0.247,0.039,0.339,-5.337
0.210,0.037,0.336,-5.337
0.202,0.037,0.337,-5.337
0.204,0.040,0.336,-5.337
0.196,0.040,0.337,-5.337
0.193,0.038,0.339,-5.337
0.184,0.036,0.338,-5.337
0.171,0.038,0.337,-5.337
0.170,0.041,0.340,-5.337
0.199,0.039,0.343,-5.337
0.238,0.040,0.340,-5.337
0.212,0.040,0.336,-5.337
0.177,0.041,0.334,-5.337
0.199,0.040,0.339,-5.337
0.240,0.034,0.339,-5.337
0.249,0.035,0.340,-5.337
0.159,0.037,0.340,-5.337
0.096,0.039,0.342,-5.337
0.155,0.034,0.342,-5.337
0.219,0.034,0.342,-5.337
0.243,0.036,0.339,-5.337
0.189,0.037,0.340,-5.337
0.078,0.037,0.339,-5.337
0.108,0.035,0.339,-5.337
0.097,0.036,0.340,-5.337
0.105,0.035,0.340,-5.337
0.129,0.033,0.340,-5.337
0.157,0.035,0.340,-5.337
0.170,0.036,0.339,-5.337
0.133,0.041,0.339,-5.337
0.165,0.039,0.341,-5.337
0.211,0.039,0.338,-5.337
0.257,0.035,0.336,-5.337
0.337,0.033,0.335,-5.337
0.369,0.038,0.335,-5.337
0.224,0.042,0.340,-5.337
0.183,0.041,0.340,-5.337
0.219,0.041,0.337,-5.337
0.195,0.043,0.336,-5.337
0.140,0.040,0.336,-5.337
0.144,0.042,0.337,-5.337
0.142,0.043,0.331,-5.337
0.131,0.041,0.330,-5.337
0.132,0.038,0.334,-5.337
0.188,0.039,0.340,-5.337
0.195,0.038,0.342,-5.337
0.240,0.037,0.344,-5.337
0.247,0.039,0.343,-5.337
0.210,0.042,0.342,-5.337
0.215,0.041,0.337,-5.337
0.263,0.042,0.338,-5.337
0.274,0.040,0.339,-5.337
0.252,0.042,0.338,-5.337
0.192,0.038,0.335,-5.337
0.150,0.037,0.334,-5.337
0.009,0.043,0.334,-5.337
0.063,0.039,0.335,-5.337
0.142,0.037,0.336,-5.337
0.155,0.036,0.334,-5.337
0.154,0.036,0.336,-5.337
0.158,0.036,0.337,-5.337
0.149,0.033,0.341,-5.337
0.198,0.032,0.339,-5.337
0.240,0.034,0.335,-5.337
0.231,0.032,0.334,-5.337
0.231,0.032,0.337,-5.337
0.254,0.033,0.339,-5.337
0.201,0.040,0.339,-5.337
0.232,0.035,0.337,-5.337
0.300,0.031,0.335,-5.337
0.322,0.033,0.333,-5.337
0.293,0.037,0.336,-5.337
0.228,0.036,0.341,-5.337
0.187,0.037,0.343,-5.337
0.145,0.038,0.345,-5.337
0.093,0.042,0.346,-5.337
0.055,0.042,0.341,-5.337
0.082,0.040,0.335,-5.337
0.107,0.038,0.335,-5.337
0.140,0.040,0.336,-5.337
0.132,0.041,0.334,-5.337
0.201,0.039,0.334,-5.337
0.255,0.041,0.336,-5.337
0.216,0.042,0.339,-5.337
0.140,0.040,0.342,-5.337
0.125,0.042,0.342,-5.337
0.195,0.041,0.336,-5.337
0.240,0.038,0.332,-5.337
0.237,0.039,0.340,-5.337
0.168,0.038,0.342,-5.337
0.220,0.040,0.340,-5.337
0.277,0.041,0.336,-5.337
0.225,0.047,0.334,-5.337
0.186,0.046,0.337,-5.337
0.169,0.044,0.336,-5.337
0.101,0.046,0.333,-5.337
0.060,0.048,0.333,-5.337
0.055,0.048,0.335,-5.337
0.111,0.045,0.335,-5.337
0.112,0.045,0.337,-5.337
0.093,0.047,0.339,-5.337
0.081,0.045,0.342,-5.337
0.142,0.043,0.340,-5.337
0.194,0.045,0.335,-5.337
0.180,0.049,0.337,-5.337
0.161,0.049,0.343,-5.337
0.188,0.042,0.344,-5.337
0.262,0.038,0.345,-5.337
0.258,0.039,0.345,-5.337
0.233,0.042,0.342,-5.337
0.255,0.043,0.332,-5.337
0.199,0.044,0.326,-5.337
0.147,0.043,0.329,-5.337
0.113,0.045,0.335,-5.337
0.142,0.043,0.338,-5.337
0.186,0.043,0.338,-5.337
0.185,0.043,0.336,-5.337
0.225,0.046,0.338,-5.337
0.195,0.049,0.337,-5.337
0.111,0.048,0.336,-5.337
0.200,0.047,0.337,-5.337
0.214,0.048,0.341,-5.337
0.176,0.047,0.342,-5.337
0.192,0.045,0.341,-5.337
0.204,0.046,0.338,-5.337
0.169,0.049,0.337,-5.337
0.169,0.051,0.337,-5.337
0.214,0.048,0.336,-5.337
0.237,0.049,0.335,-5.337
0.203,0.052,0.333,-5.337
0.156,0.050,0.333,-5.337
0.247,0.046,0.334,-5.337
0.233,0.048,0.339,-5.337
0.142,0.051,0.339,-5.337
0.131,0.052,0.340,-5.337
0.215,0.048,0.334,-5.337
0.248,0.049,0.331,-5.337
0.189,0.046,0.332,-5.337
0.161,0.051,0.339,-5.337
0.166,0.052,0.346,-5.337
0.148,0.052,0.345,-5.337
0.146,0.049,0.336,-5.337
0.125,0.051,0.328,-5.337
0.089,0.052,0.328,-5.337
0.073,0.054,0.333,-5.337
0.103,0.053,0.336,-5.337
0.128,0.054,0.337,-5.337
0.107,0.056,0.338,-5.337
0.048,0.055,0.337,-5.337
0.040,0.056,0.336,-5.337
0.124,0.050,0.335,-5.337
0.161,0.050,0.336,-5.337
0.182,0.050,0.335,-5.337
0.160,0.053,0.338,-5.337
0.128,0.052,0.342,-5.337
0.144,0.049,0.340,-5.337
0.163,0.050,0.334,-5.337
0.182,0.053,0.330,-5.337
0.195,0.052,0.330,-5.337
0.237,0.051,0.335,-5.337
0.242,0.049,0.339,-5.337
0.243,0.048,0.340,-5.337
0.280,0.048,0.339,-5.337
0.257,0.048,0.342,-5.337
0.189,0.051,0.339,-5.337
0.107,0.054,0.332,-5.337
0.072,0.056,0.330,-5.337
0.095,0.053,0.331,-5.337
0.152,0.054,0.336,-5.337
0.181,0.055,0.341,-5.337
0.150,0.054,0.342,-5.337
0.121,0.058,0.340,-5.337
0.153,0.057,0.337,-5.337
0.153,0.050,0.332,-5.337
0.132,0.050,0.332,-5.337
0.142,0.057,0.332,-5.337
0.145,0.058,0.337,-5.337
0.221,0.057,0.340,-5.337
0.264,0.054,0.336,-5.337
0.221,0.054,0.334,-5.337
0.252,0.053,0.336,-5.337
0.289,0.055,0.338,-5.337
0.284,0.058,0.338,-5.337
0.253,0.055,0.334,-5.337
0.175,0.062,0.333,-5.337
0.111,0.063,0.336,-5.337
0.187,0.058,0.341,-5.337
0.288,0.055,0.342,-5.337
0.260,0.056,0.345,-5.337
0.180,0.060,0.342,-5.337
0.141,0.059,0.333,-5.337
0.163,0.059,0.332,-5.337
0.129,0.060,0.336,-5.337
0.149,0.057,0.335,-5.337
0.269,0.057,0.333,-5.337
0.226,0.057,0.332,-5.337
0.162,0.056,0.331,-5.337
0.108,0.059,0.334,-5.337
0.065,0.059,0.339,-5.337
0.093,0.058,0.342,-5.337
0.196,0.056,0.340,-5.337
0.284,0.057,0.339,-5.337
0.255,0.055,0.338,-5.337
0.149,0.061,0.337,-5.337
0.114,0.060,0.338,-5.337
0.136,0.064,0.339,-5.337
0.105,0.062,0.340,-5.337
0.098,0.060,0.338,-5.337
0.141,0.057,0.332,-5.337
0.163,0.059,0.335,-5.337
0.192,0.061,0.337,-5.337
0.208,0.060,0.337,-5.337
0.189,0.058,0.333,-5.337
0.170,0.059,0.328,-5.337
0.206,0.058,0.329,-5.337
0.189,0.058,0.335,-5.337
0.134,0.057,0.340,-5.337
0.126,0.057,0.338,-5.337
0.142,0.057,0.336,-5.337
0.157,0.058,0.337,-5.337
0.192,0.056,0.341,-5.337
0.218,0.055,0.340,-5.337
0.254,0.055,0.338,-5.337
0.179,0.055,0.337,-5.337
0.149,0.056,0.339,-5.337
0.197,0.056,0.339,-5.337
0.188,0.061,0.340,-5.337
0.076,0.064,0.338,-5.337
0.059,0.059,0.335,-5.337
0.157,0.055,0.334,-5.337
0.180,0.056,0.338,-5.337
0.167,0.057,0.337,-5.337
0.220,0.058,0.334,-5.337
0.260,0.062,0.337,-5.337
0.153,0.065,0.339,-5.337
0.101,0.063,0.336,-5.337
0.140,0.062,0.334,-5.337
0.136,0.064,0.334,-5.337
0.155,0.063,0.334,-5.337
0.118,0.064,0.333,-5.337
0.114,0.062,0.336,-5.337
0.215,0.062,0.340,-5.337
0.238,0.061,0.340,-5.337
0.127,0.067,0.339,-5.337
0.052,0.067,0.338,-5.337
0.173,0.066,0.340,-5.337
0.266,0.065,0.335,-5.337
0.249,0.062,0.334,-5.337
0.257,0.059,0.335,-5.337
0.225,0.064,0.337,-5.337
0.237,0.062,0.337,-5.337
0.265,0.063,0.338,-5.337
0.209,0.064,0.341,-5.337
0.189,0.063,0.342,-5.337
0.212,0.063,0.339,-5.337
0.166,0.063,0.339,-5.337
0.125,0.062,0.340,-5.337
0.159,0.058,0.336,-5.337
0.181,0.060,0.336,-5.337
0.194,0.061,0.337,-5.337
0.193,0.063,0.337,-5.337
0.133,0.060,0.334,-5.337
0.116,0.061,0.334,-5.337
0.157,0.062,0.333,-5.337
0.156,0.062,0.336,-5.337
0.163,0.062,0.338,-5.337
0.159,0.065,0.339,-5.337
0.181,0.065,0.338,-5.337
0.206,0.065,0.336,-5.337
0.243,0.063,0.337,-5.337
0.233,0.064,0.338,-5.337
0.219,0.064,0.338,-5.337
0.171,0.063,0.335,-5.337
0.150,0.064,0.334,-5.337
0.173,0.064,0.339,-5.337
0.141,0.063,0.343,-5.337
0.114,0.063,0.342,-5.337
0.158,0.061,0.340,-5.337
0.123,0.062,0.339,-5.337
0.044,0.063,0.334,-5.337
0.100,0.059,0.335,-5.337
0.216,0.056,0.336,-5.337
0.256,0.056,0.338,-5.337
0.279,0.061,0.341,-5.337
0.249,0.058,0.340,-5.337
0.196,0.056,0.338,-5.337
0.247,0.055,0.332,-5.337
0.338,0.052,0.334,-5.337
0.351,0.054,0.334,-5.337
0.294,0.056,0.336,-5.337
0.186,0.058,0.337,-5.337
0.151,0.056,0.339,-5.337
0.196,0.054,0.340,-5.337
0.186,0.055,0.341,-5.337
0.148,0.056,0.339,-5.337
0.139,0.057,0.338,-5.337
0.192,0.058,0.334,-5.337
0.121,0.061,0.335,-5.337
0.068,0.062,0.339,-5.337
0.084,0.061,0.338,-5.337
0.178,0.057,0.336,-5.337
0.167,0.056,0.336,-5.337
0.206,0.056,0.337,-5.337
0.267,0.055,0.335,-5.337
0.201,0.057,0.336,-5.337
0.066,0.061,0.336,-5.337
0.118,0.058,0.335,-5.337
0.185,0.059,0.334,-5.337
0.163,0.058,0.336,-5.337
0.124,0.059,0.336,-5.337
0.112,0.057,0.336,-5.337
0.202,0.054,0.334,-5.337
0.282,0.056,0.334,-5.337
0.269,0.055,0.332,-5.337
0.299,0.056,0.334,-5.337
0.234,0.052,0.337,-5.337
0.207,0.052,0.340,-5.337
0.192,0.051,0.341,-5.337
0.173,0.050,0.338,-5.337
0.145,0.054,0.333,-5.337
0.120,0.053,0.332,-5.337
0.102,0.051,0.331,-5.337
0.118,0.051,0.332,-5.337
0.173,0.051,0.339,-5.337
0.173,0.054,0.346,-5.337
0.178,0.053,0.348,-5.337
0.160,0.053,0.342,-5.337
0.116,0.053,0.334,-5.337
0.181,0.052,0.332,-5.337
0.205,0.052,0.334,-5.337
0.119,0.055,0.336,-5.337
0.166,0.055,0.340,-5.337
0.222,0.053,0.337,-5.337
0.243,0.054,0.332,-5.337
0.229,0.052,0.331,-5.337
0.259,0.053,0.336,-5.337
0.218,0.054,0.339,-5.337
0.142,0.056,0.339,-5.337
0.115,0.054,0.337,-5.337
0.173,0.054,0.337,-5.337
0.184,0.052,0.339,-5.337
0.071,0.052,0.341,-5.337
0.034,0.055,0.340,-5.337
0.116,0.056,0.339,-5.337
0.218,0.053,0.339,-5.337
0.280,0.053,0.337,-5.337
0.219,0.054,0.335,-5.337
0.243,0.054,0.335,-5.337
0.211,0.053,0.337,-5.337
0.136,0.053,0.339,-5.337
0.120,0.052,0.341,-5.337
0.145,0.052,0.342,-5.337
0.171,0.051,0.340,-5.337
0.231,0.052,0.337,-5.337
0.194,0.052,0.335,-5.337
0.160,0.052,0.332,-5.337
0.175,0.052,0.335,-5.337
0.243,0.048,0.340,-5.337
0.219,0.052,0.341,-5.337
0.117,0.052,0.338,-5.337
0.115,0.048,0.335,-5.337
0.104,0.049,0.335,-5.337
0.114,0.050,0.334,-5.337
0.176,0.046,0.336,-5.337
0.159,0.049,0.335,-5.337
0.100,0.050,0.333,-5.337
0.083,0.050,0.334,-5.337
0.112,0.047,0.337,-5.337
0.127,0.046,0.336,-5.337
0.145,0.045,0.334,-5.337
0.203,0.045,0.338,-5.337
0.222,0.047,0.345,-5.337
0.206,0.048,0.344,-5.337
0.252,0.047,0.343,-5.337
0.252,0.049,0.339,-5.337
0.177,0.052,0.340,-5.337
0.144,0.053,0.337,-5.337
0.124,0.051,0.336,-5.337
0.166,0.047,0.340,-5.337
0.224,0.050,0.343,-5.337
0.187,0.049,0.340,-5.337
0.192,0.050,0.336,-5.337
0.246,0.045,0.335,-5.337
0.310,0.043,0.337,-5.337
0.268,0.047,0.340,-5.337
0.138,0.050,0.345,-5.337
0.126,0.046,0.344,-5.337
0.165,0.043,0.341,-5.337
0.209,0.043,0.336,-5.337
0.200,0.045,0.335,-5.337
0.178,0.044,0.336,-5.337
0.215,0.045,0.335,-5.337
0.250,0.043,0.335,-5.337
0.151,0.045,0.332,-5.337
0.113,0.045,0.334,-5.337
0.159,0.043,0.335,-5.337
0.139,0.046,0.336,-5.337
0.095,0.046,0.337,-5.337
0.127,0.040,0.339,-5.337
0.129,0.038,0.339,-5.337
0.173,0.038,0.337,-5.337
0.170,0.036,0.338,-5.337
0.156,0.042,0.341,-5.337
0.123,0.043,0.340,-5.337
0.070,0.048,0.336,-5.337
0.099,0.046,0.340,-5.337
0.233,0.043,0.343,-5.337
0.222,0.047,0.342,-5.337
0.179,0.049,0.335,-5.337
0.196,0.047,0.330,-5.337
0.188,0.046,0.332,-5.337
0.192,0.047,0.334,-5.337
0.144,0.048,0.333,-5.337
0.121,0.048,0.334,-5.337
0.183,0.046,0.335,-5.337
0.125,0.050,0.337,-5.337
0.120,0.050,0.335,-5.337
0.168,0.045,0.336,-5.337
0.221,0.043,0.336,-5.337
0.174,0.045,0.338,-5.337
0.148,0.044,0.340,-5.337
0.144,0.044,0.338,-5.337
0.151,0.043,0.332,-5.337
0.107,0.046,0.333,-5.337
0.160,0.044,0.338,-5.337
0.258,0.045,0.342,-5.337
0.262,0.043,0.339,-5.337
0.237,0.044,0.338,-5.337
0.212,0.045,0.337,-5.337
0.231,0.045,0.338,-5.337
0.280,0.045,0.338,-5.337
0.274,0.046,0.335,-5.337
0.223,0.047,0.332,-5.337
0.238,0.045,0.333,-5.337
0.257,0.043,0.337,-5.337
0.237,0.041,0.338,-5.337
0.159,0.042,0.336,-5.337
0.116,0.042,0.336,-5.337
0.126,0.043,0.334,-5.337
0.113,0.042,0.335,-5.337
0.178,0.042,0.337,-5.337
0.216,0.041,0.335,-5.337
0.200,0.040,0.335,-5.337
0.137,0.044,0.334,-5.337
0.175,0.046,0.336,-5.337
0.238,0.042,0.336,-5.337
0.187,0.044,0.335,-5.337
0.194,0.046,0.331,-5.337
0.168,0.045,0.335,-5.337
0.135,0.045,0.341,-5.337
0.138,0.046,0.344,-5.337
0.262,0.043,0.338,-5.337
0.255,0.049,0.335,-5.337
0.163,0.047,0.336,-5.337
0.188,0.045,0.335,-5.337
0.255,0.044,0.330,-5.337
0.250,0.046,0.330,-5.337
0.206,0.045,0.334,-5.337
0.179,0.044,0.337,-5.337
0.159,0.042,0.337,-5.337
0.184,0.041,0.334,-5.337
0.242,0.042,0.336,-5.337
0.239,0.041,0.340,-5.337
0.201,0.040,0.342,-5.337
0.197,0.043,0.337,-5.337
0.164,0.044,0.335,-5.337
0.071,0.045,0.332,-5.337
0.105,0.044,0.333,-5.337
0.166,0.043,0.332,-5.337
0.148,0.046,0.329,-5.337
0.200,0.041,0.330,-5.337
0.255,0.036,0.334,-5.337
0.190,0.039,0.340,-5.337
0.171,0.042,0.342,-5.337
0.147,0.043,0.340,-5.337
0.131,0.042,0.337,-5.337
0.085,0.041,0.335,-5.337
0.097,0.042,0.335,-5.337
0.125,0.043,0.334,-5.337
0.179,0.039,0.334,-5.337
0.207,0.037,0.338,-5.337
0.225,0.036,0.339,-5.337
0.236,0.038,0.337,-5.337
0.261,0.039,0.335,-5.337
0.205,0.035,0.336,-5.337
0.202,0.035,0.337,-5.337
0.218,0.035,0.339,-5.337
0.231,0.039,0.339,-5.337
0.155,0.039,0.339,-5.337
0.144,0.035,0.335,-5.337
0.138,0.036,0.331,-5.337
0.149,0.038,0.332,-5.337
0.198,0.043,0.332,-5.337
0.135,0.041,0.334,-5.337
0.128,0.038,0.334,-5.337
0.130,0.042,0.332,-5.337
0.153,0.045,0.336,-5.337
0.172,0.043,0.336,-5.337
0.213,0.041,0.338,-5.337
0.247,0.043,0.342,-5.337
0.251,0.041,0.346,-5.337
0.246,0.038,0.348,-5.337
0.221,0.040,0.343,-5.337
0.167,0.041,0.334,-5.337
0.191,0.039,0.328,-5.337
0.287,0.039,0.335,-5.337
0.248,0.043,0.340,-5.337
0.156,0.045,0.339,-5.337
0.189,0.043,0.334,-5.337
0.208,0.044,0.335,-5.337
0.160,0.041,0.334,-5.337
0.173,0.039,0.335,-5.337
0.236,0.038,0.335,-5.337
0.220,0.044,0.338,-5.337
0.172,0.043,0.339,-5.337
0.151,0.042,0.337,-5.337
0.161,0.039,0.333,-5.337
0.193,0.039,0.337,-5.337
0.230,0.040,0.339,-5.337
0.227,0.040,0.335,-5.337
0.243,0.038,0.330,-5.337
0.207,0.041,0.336,-5.337
0.175,0.039,0.342,-5.337
0.240,0.037,0.341,-5.337
0.225,0.037,0.335,-5.337
0.209,0.039,0.333,-5.337
0.271,0.038,0.336,-5.337
0.235,0.040,0.336,-5.337
0.187,0.042,0.336,-5.337
0.180,0.045,0.335,-5.337
0.139,0.044,0.338,-5.337
0.105,0.043,0.337,-5.337
0.109,0.044,0.336,-5.337
0.162,0.043,0.333,-5.337
0.120,0.047,0.336,-5.337
0.058,0.047,0.335,-5.337
0.088,0.044,0.335,-5.337
0.128,0.043,0.335,-5.337
0.110,0.043,0.340,-5.337
0.107,0.044,0.344,-5.337
0.143,0.040,0.341,-5.337
0.142,0.039,0.337,-5.337
0.155,0.041,0.337,-5.337
0.197,0.041,0.339,-5.337
0.204,0.042,0.335,-5.337
0.176,0.041,0.332,-5.337
0.199,0.042,0.332,-5.337
0.208,0.041,0.336,-5.337
0.244,0.041,0.339,-5.337
0.317,0.039,0.342,-5.337
0.343,0.040,0.339,-5.337
0.266,0.044,0.337,-5.337
0.185,0.045,0.336,-5.337
0.120,0.046,0.336,-5.337
0.095,0.044,0.334,-5.337
0.120,0.044,0.337,-5.337
0.110,0.045,0.336,-5.337
0.003,0.047,0.336,-5.337
0.029,0.045,0.334,-5.337
0.071,0.045,0.335,-5.337
0.091,0.046,0.339,-5.337
0.098,0.044,0.339,-5.337
0.035,0.045,0.340,-5.337
0.063,0.049,0.336,-5.337
0.142,0.050,0.331,-5.337
0.190,0.051,0.334,-5.337
0.130,0.051,0.336,-5.337
0.102,0.049,0.332,-5.337
0.178,0.047,0.329,-5.337
0.256,0.047,0.333,-5.337
0.206,0.047,0.340,-5.337
0.182,0.047,0.343,-5.337
0.166,0.046,0.343,-5.337
0.162,0.046,0.339,-5.337
0.155,0.046,0.335,-5.337
0.148,0.042,0.331,-5.337
0.178,0.044,0.333,-5.337
0.240,0.045,0.334,-5.337
0.287,0.044,0.338,-5.337
0.314,0.046,0.342,-5.337
0.280,0.046,0.342,-5.337
0.191,0.049,0.337,-5.337
0.166,0.053,0.337,-5.337
0.184,0.049,0.336,-5.337
0.221,0.047,0.333,-5.337
0.203,0.043,0.331,-5.337
0.181,0.046,0.332,-5.337
0.179,0.046,0.331,-5.337
0.146,0.051,0.334,-5.337
0.091,0.056,0.335,-5.337
0.036,0.054,0.334,-5.337
0.049,0.058,0.333,-5.337
0.081,0.057,0.334,-5.337
0.139,0.052,0.334,-5.337
0.113,0.053,0.332,-5.337
0.087,0.053,0.334,-5.337
0.205,0.051,0.337,-5.337
0.329,0.048,0.336,-5.337
0.263,0.050,0.334,-5.337
0.141,0.055,0.335,-5.337
0.121,0.052,0.335,-5.337
0.177,0.048,0.338,-5.337
0.235,0.048,0.338,-5.337
0.209,0.051,0.336,-5.337
0.191,0.050,0.335,-5.337
0.181,0.049,0.336,-5.337
0.164,0.045,0.335,-5.337
0.126,0.046,0.335,-5.337
0.078,0.044,0.333,-5.337
0.061,0.047,0.335,-5.337
0.105,0.046,0.334,-5.337
0.201,0.043,0.333,-5.337
0.256,0.044,0.337,-5.337
0.276,0.044,0.338,-5.337
0.273,0.044,0.334,-5.337
0.269,0.046,0.335,-5.337
0.297,0.043,0.339,-5.337
0.242,0.043,0.337,-5.337
0.239,0.043,0.333,-5.337
0.242,0.044,0.333,-5.337
0.177,0.046,0.337,-5.337
0.138,0.044,0.334,-5.337
0.068,0.048,0.332,-5.337
0.126,0.046,0.334,-5.337
0.197,0.046,0.338,-5.337
0.200,0.047,0.337,-5.337
0.193,0.049,0.335,-5.337
0.145,0.052,0.334,-5.337
0.096,0.055,0.332,-5.337
0.142,0.051,0.331,-5.337
0.208,0.050,0.335,-5.337
0.202,0.050,0.338,-5.337
0.198,0.053,0.337,-5.337
0.130,0.054,0.335,-5.337
0.186,0.051,0.332,-5.337
0.202,0.054,0.330,-5.337
0.187,0.058,0.334,-5.337
0.157,0.061,0.342,-5.337
0.165,0.058,0.340,-5.337
0.209,0.055,0.334,-5.337
0.205,0.055,0.330,-5.337
0.230,0.056,0.335,-5.337
0.268,0.053,0.338,-5.337
0.263,0.054,0.338,-5.337
0.216,0.055,0.337,-5.337
0.208,0.057,0.336,-5.337
0.244,0.054,0.336,-5.337
0.265,0.056,0.335,-5.337
0.154,0.055,0.334,-5.337
0.137,0.053,0.333,-5.337
0.148,0.054,0.331,-5.337
0.162,0.057,0.333,-5.337
0.133,0.058,0.335,-5.337
0.148,0.055,0.337,-5.337
0.251,0.053,0.337,-5.337
0.266,0.057,0.336,-5.337
0.181,0.059,0.334,-5.337
0.050,0.060,0.334,-5.337
0.073,0.057,0.333,-5.337
0.118,0.058,0.334,-5.337
0.070,0.059,0.337,-5.337
0.132,0.058,0.336,-5.337
0.236,0.060,0.337,-5.337
0.184,0.060,0.337,-5.337
0.116,0.060,0.338,-5.337
0.083,0.057,0.335,-5.337
0.142,0.057,0.331,-5.337
0.163,0.060,0.330,-5.337
0.152,0.059,0.331,-5.337
0.113,0.061,0.333,-5.337
0.100,0.060,0.336,-5.337
0.128,0.061,0.336,-5.337
0.088,0.064,0.333,-5.337
0.079,0.062,0.332,-5.337
0.106,0.059,0.333,-5.337
0.171,0.056,0.333,-5.337
0.248,0.056,0.335,-5.337
0.244,0.059,0.336,-5.337
0.207,0.058,0.337,-5.337
0.209,0.054,0.337,-5.337
0.234,0.055,0.335,-5.337
0.255,0.055,0.334,-5.337
0.220,0.055,0.332,-5.337
0.145,0.056,0.333,-5.337
0.111,0.055,0.338,-5.337
0.181,0.054,0.340,-5.337
0.289,0.053,0.332,-5.337
0.275,0.053,0.330,-5.337
0.234,0.054,0.333,-5.337
0.157,0.057,0.336,-5.337
0.082,0.057,0.336,-5.337
0.065,0.056,0.338,-5.337
0.183,0.051,0.339,-5.337
0.225,0.052,0.337,-5.337
0.235,0.054,0.330,-5.337
0.156,0.059,0.326,-5.337
0.088,0.058,0.327,-5.337
0.119,0.056,0.331,-5.337
0.190,0.057,0.335,-5.337
0.222,0.058,0.339,-5.337
0.304,0.055,0.337,-5.337
0.306,0.055,0.334,-5.337
0.236,0.061,0.333,-5.337
0.210,0.065,0.334,-5.337
0.277,0.062,0.335,-5.337
0.232,0.061,0.335,-5.337
0.130,0.062,0.335,-5.337
0.087,0.066,0.334,-5.337
0.147,0.067,0.337,-5.337
0.247,0.065,0.339,-5.337
0.196,0.066,0.339,-5.337
0.162,0.063,0.335,-5.337
0.155,0.062,0.332,-5.337
0.176,0.060,0.333,-5.337
0.135,0.062,0.334,-5.337
0.180,0.061,0.336,-5.337
0.240,0.060,0.334,-5.337
0.233,0.060,0.330,-5.337
0.219,0.062,0.329,-5.337
0.213,0.061,0.328,-5.337
0.213,0.061,0.329,-5.337
0.171,0.062,0.334,-5.337
0.090,0.065,0.342,-5.337
0.048,0.062,0.339,-5.337
0.064,0.061,0.335,-5.337
0.131,0.056,0.334,-5.337
0.148,0.062,0.337,-5.337
0.175,0.062,0.333,-5.337
0.253,0.059,0.330,-5.337
0.255,0.057,0.331,-5.337
0.204,0.056,0.335,-5.337
0.153,0.057,0.336,-5.337
0.200,0.057,0.333,-5.337
0.288,0.056,0.334,-5.337
0.251,0.055,0.335,-5.337
0.151,0.060,0.337,-5.337
0.110,0.061,0.336,-5.337
0.163,0.057,0.333,-5.337
0.200,0.056,0.332,-5.337
0.182,0.056,0.334,-5.337
0.182,0.057,0.337,-5.337
0.176,0.058,0.340,-5.337
0.176,0.058,0.340,-5.337
0.108,0.061,0.336,-5.337
0.199,0.060,0.331,-5.337
0.292,0.057,0.331,-5.337
0.309,0.057,0.334,-5.337
0.216,0.060,0.338,-5.337
0.157,0.065,0.341,-5.337
0.143,0.066,0.336,-5.337
0.082,0.066,0.331,-5.337
0.087,0.065,0.331,-5.337
0.080,0.067,0.336,-5.337
0.147,0.065,0.333,-5.337
0.210,0.063,0.330,-5.337
0.259,0.060,0.332,-5.337
0.241,0.059,0.335,-5.337
0.295,0.057,0.337,-5.337
0.241,0.058,0.336,-5.337
0.182,0.059,0.331,-5.337
0.212,0.062,0.329,-5.337
0.185,0.059,0.331,-5.337
0.121,0.059,0.335,-5.337
0.128,0.058,0.338,-5.337
0.186,0.065,0.339,-5.337
0.179,0.066,0.339,-5.337
0.197,0.064,0.337,-5.337
0.180,0.061,0.332,-5.337
0.225,0.057,0.329,-5.337
0.256,0.062,0.328,-5.337
0.176,0.066,0.333,-5.337
0.191,0.061,0.335,-5.337
0.253,0.060,0.333,-5.337
0.259,0.061,0.331,-5.337
0.131,0.063,0.330,-5.337
0.063,0.062,0.333,-5.337
0.098,0.057,0.332,-5.337
0.227,0.056,0.331,-5.337
0.265,0.058,0.333,-5.337
0.197,0.063,0.334,-5.337
0.113,0.063,0.334,-5.337
0.139,0.062,0.337,-5.337
0.165,0.060,0.337,-5.337
0.155,0.065,0.335,-5.337
0.120,0.065,0.332,-5.337
0.137,0.064,0.334,-5.337
0.131,0.063,0.336,-5.337
0.121,0.064,0.336,-5.337
0.168,0.064,0.334,-5.337
0.222,0.061,0.334,-5.337
0.272,0.062,0.337,-5.337
0.245,0.063,0.338,-5.337
0.196,0.063,0.341,-5.337
0.135,0.065,0.340,-5.337
0.123,0.065,0.339,-5.337
0.155,0.063,0.334,-5.337
0.147,0.060,0.331,-5.337
0.170,0.059,0.332,-5.337
0.193,0.060,0.334,-5.337
0.208,0.059,0.334,-5.337
0.186,0.060,0.335,-5.337
0.184,0.056,0.335,-5.337
0.094,0.057,0.336,-5.337
0.064,0.058,0.334,-5.337
0.147,0.057,0.335,-5.337
0.248,0.054,0.337,-5.337
0.274,0.053,0.336,-5.337
0.230,0.054,0.336,-5.337
0.243,0.054,0.337,-5.337
0.205,0.057,0.337,-5.337
0.102,0.056,0.336,-5.337
0.130,0.053,0.335,-5.337
0.207,0.053,0.336,-5.337
0.144,0.055,0.340,-5.337
0.105,0.054,0.341,-5.337
0.199,0.053,0.338,-5.337
0.252,0.055,0.337,-5.337
0.254,0.055,0.337,-5.337
0.239,0.053,0.334,-5.337
0.220,0.055,0.337,-5.337
0.219,0.055,0.337,-5.337
0.274,0.052,0.336,-5.337
0.337,0.052,0.333,-5.337
0.264,0.054,0.336,-5.337
0.168,0.055,0.338,-5.337
0.179,0.056,0.338,-5.337
0.224,0.054,0.334,-5.337
0.286,0.046,0.333,-5.337
0.293,0.044,0.333,-5.337
0.236,0.048,0.333,-5.337
0.233,0.047,0.335,-5.337
0.208,0.049,0.337,-5.337
0.218,0.048,0.336,-5.337
0.230,0.050,0.336,-5.337
0.183,0.049,0.337,-5.337
0.137,0.050,0.337,-5.337
0.163,0.049,0.335,-5.337
0.165,0.054,0.333,-5.337
0.076,0.053,0.337,-5.337
0.106,0.049,0.340,-5.337
0.134,0.049,0.339,-5.337
0.174,0.049,0.333,-5.337
0.228,0.049,0.334,-5.337
0.253,0.047,0.335,-5.337
0.305,0.046,0.336,-5.337
0.281,0.048,0.338,-5.337
0.223,0.048,0.339,-5.337
0.177,0.049,0.338,-5.337
0.175,0.053,0.336,-5.337
0.168,0.052,0.331,-5.337
0.118,0.055,0.330,-5.337
0.120,0.051,0.333,-5.337
0.178,0.049,0.333,-5.337
0.240,0.046,0.333,-5.337
0.228,0.050,0.337,-5.337
0.197,0.049,0.334,-5.337
0.195,0.048,0.331,-5.337
0.208,0.045,0.332,-5.337
0.264,0.042,0.335,-5.337
0.243,0.042,0.336,-5.337
0.240,0.043,0.332,-5.337
0.227,0.042,0.335,-5.337
0.153,0.042,0.337,-5.337
0.154,0.042,0.340,-5.337
0.207,0.044,0.339,-5.337
0.232,0.048,0.337,-5.337
0.262,0.046,0.335,-5.337
0.236,0.047,0.336,-5.337
0.178,0.045,0.331,-5.337
0.195,0.044,0.331,-5.337
0.157,0.045,0.330,-5.337
0.137,0.043,0.332,-5.337
0.173,0.041,0.338,-5.337
0.129,0.044,0.339,-5.337
0.116,0.042,0.341,-5.337
0.157,0.042,0.338,-5.337
0.172,0.042,0.338,-5.337
0.158,0.040,0.337,-5.337
0.141,0.040,0.333,-5.337
0.148,0.042,0.329,-5.337
0.193,0.045,0.329,-5.337
0.158,0.044,0.333,-5.337
0.095,0.042,0.336,-5.337
0.077,0.044,0.332,-5.337
0.133,0.043,0.329,-5.337
0.170,0.043,0.332,-5.337
0.184,0.039,0.338,-5.337
0.135,0.041,0.338,-5.337
0.119,0.042,0.336,-5.337
0.139,0.043,0.333,-5.337
0.213,0.041,0.333,-5.337
0.252,0.038,0.333,-5.337
0.212,0.040,0.337,-5.337
0.177,0.043,0.339,-5.337
0.156,0.044,0.339,-5.337
0.167,0.043,0.339,-5.337
0.259,0.042,0.335,-5.337
0.280,0.041,0.333,-5.337
0.240,0.045,0.335,-5.337
0.196,0.046,0.338,-5.337
0.154,0.046,0.342,-5.337
0.161,0.042,0.339,-5.337
0.130,0.042,0.335,-5.337
0.102,0.041,0.335,-5.337
0.156,0.038,0.341,-5.337
0.246,0.036,0.346,-5.337
0.215,0.038,0.342,-5.337
0.169,0.039,0.334,-5.337
0.200,0.040,0.329,-5.337
0.228,0.043,0.330,-5.337
0.248,0.045,0.330,-5.337
0.288,0.044,0.334,-5.337
0.312,0.041,0.336,-5.337
0.211,0.041,0.336,-5.337
0.161,0.041,0.334,-5.337
0.203,0.043,0.334,-5.337
0.212,0.045,0.333,-5.337
0.224,0.040,0.331,-5.337
0.221,0.039,0.335,-5.337
0.194,0.042,0.338,-5.337
0.175,0.044,0.338,-5.337
0.190,0.045,0.337,-5.337
0.163,0.047,0.334,-5.337
0.130,0.045,0.336,-5.337
0.103,0.042,0.336,-5.337
0.090,0.045,0.332,-5.337
0.160,0.045,0.333,-5.337
0.197,0.044,0.334,-5.337
0.115,0.042,0.338,-5.337
0.117,0.036,0.339,-5.337
0.215,0.038,0.337,-5.337
0.227,0.042,0.331,-5.337
0.155,0.044,0.330,-5.337
0.182,0.040,0.329,-5.337
0.269,0.037,0.332,-5.337
0.236,0.037,0.333,-5.337
0.129,0.042,0.331,-5.337
0.135,0.040,0.329,-5.337
0.158,0.039,0.333,-5.337
0.252,0.035,0.337,-5.337
0.275,0.034,0.337,-5.337
0.276,0.034,0.333,-5.337
0.292,0.035,0.330,-5.337
0.230,0.036,0.331,-5.337
0.178,0.035,0.333,-5.337
0.086,0.037,0.334,-5.337
0.042,0.038,0.333,-5.337
0.117,0.037,0.331,-5.337
0.162,0.038,0.334,-5.337
0.162,0.037,0.337,-5.337
0.156,0.037,0.336,-5.337
0.139,0.035,0.334,-5.337
0.178,0.037,0.333,-5.337
0.139,0.042,0.338,-5.337
0.106,0.039,0.339,-5.337
0.207,0.038,0.335,-5.337
0.256,0.036,0.332,-5.337
0.239,0.040,0.335,-5.337
0.155,0.042,0.334,-5.337
0.152,0.043,0.331,-5.337
0.201,0.041,0.329,-5.337
0.204,0.040,0.331,-5.337
0.170,0.040,0.335,-5.337
0.172,0.040,0.336,-5.337
0.151,0.039,0.335,-5.337
0.156,0.039,0.333,-5.337
0.217,0.039,0.332,-5.337
0.280,0.036,0.335,-5.337
0.222,0.041,0.337,-5.337
0.204,0.043,0.337,-5.337
0.181,0.042,0.332,-5.337
0.156,0.040,0.333,-5.337
0.164,0.039,0.338,-5.337
0.192,0.036,0.339,-5.337
0.153,0.037,0.338,-5.337
0.124,0.037,0.338,-5.337
0.186,0.036,0.339,-5.337
0.294,0.035,0.333,-5.337
0.264,0.039,0.330,-5.337
0.197,0.040,0.330,-5.337
0.186,0.037,0.332,-5.337
0.152,0.038,0.330,-5.337
0.134,0.038,0.328,-5.337
0.187,0.039,0.328,-5.337
0.155,0.041,0.332,-5.337
0.074,0.035,0.338,-5.337
0.078,0.032,0.338,-5.337
0.161,0.033,0.335,-5.337
0.180,0.039,0.335,-5.337
0.112,0.037,0.335,-5.337
0.119,0.031,0.335,-5.337
0.150,0.033,0.335,-5.337
0.120,0.035,0.336,-5.337
0.143,0.033,0.335,-5.337
0.166,0.035,0.333,-5.337
0.118,0.037,0.334,-5.337
0.186,0.032,0.334,-5.337
0.252,0.034,0.339,-5.337
0.214,0.034,0.338,-5.337
0.145,0.033,0.333,-5.337
0.175,0.036,0.328,-5.337
0.188,0.039,0.327,-5.337
0.171,0.036,0.330,-5.337
0.164,0.036,0.336,-5.337
0.128,0.038,0.335,-5.337
0.208,0.034,0.332,-5.337
0.321,0.032,0.331,-5.337
0.310,0.036,0.334,-5.337
0.206,0.036,0.336,-5.337
0.184,0.038,0.334,-5.337
0.178,0.035,0.331,-5.337
0.120,0.036,0.335,-5.337
0.106,0.036,0.338,-5.337
0.169,0.035,0.339,-5.337
0.231,0.035,0.335,-5.337
0.223,0.037,0.332,-5.337
0.143,0.038,0.335,-5.337
0.151,0.036,0.333,-5.337
0.159,0.031,0.333,-5.337
0.185,0.032,0.332,-5.337
0.213,0.032,0.333,-5.337
0.273,0.030,0.334,-5.337
0.288,0.032,0.337,-5.337
0.282,0.035,0.333,-5.337
0.219,0.036,0.332,-5.337
0.192,0.033,0.330,-5.337
0.173,0.033,0.334,-5.337
0.181,0.032,0.337,-5.337
0.210,0.035,0.340,-5.337
0.232,0.032,0.335,-5.337
0.272,0.031,0.331,-5.337
0.278,0.029,0.328,-5.337
0.228,0.034,0.327,-5.337
0.204,0.034,0.327,-5.337
0.132,0.036,0.331,-5.337
0.094,0.037,0.335,-5.337
0.199,0.037,0.337,-5.337
0.246,0.038,0.339,-5.337
0.210,0.039,0.337,-5.337
0.176,0.040,0.334,-5.337
0.154,0.041,0.328,-5.337
0.163,0.038,0.329,-5.337
0.169,0.038,0.332,-5.337
0.168,0.041,0.335,-5.337
0.198,0.039,0.332,-5.337
0.259,0.038,0.334,-5.337
0.223,0.039,0.332,-5.337
0.237,0.035,0.331,-5.337
0.252,0.032,0.333,-5.337
0.190,0.038,0.337,-5.337
0.157,0.041,0.337,-5.337
0.164,0.044,0.335,-5.337
0.151,0.042,0.334,-5.337
0.158,0.042,0.332,-5.337
0.162,0.044,0.332,-5.337
0.221,0.039,0.333,-5.337
0.280,0.037,0.331,-5.337
0.243,0.040,0.332,-5.337
0.218,0.038,0.334,-5.337
0.185,0.041,0.336,-5.337
0.227,0.040,0.336,-5.337
0.228,0.044,0.334,-5.337
0.214,0.043,0.334,-5.337
0.173,0.041,0.334,-5.337
0.145,0.041,0.337,-5.337
0.147,0.038,0.339,-5.337
0.194,0.040,0.341,-5.337
0.250,0.041,0.338,-5.337
0.188,0.045,0.334,-5.337
0.186,0.041,0.332,-5.337
0.267,0.040,0.332,-5.337
0.196,0.046,0.336,-5.337
0.154,0.049,0.338,-5.337
0.111,0.044,0.336,-5.337
0.090,0.041,0.333,-5.337
0.177,0.043,0.330,-5.337
0.207,0.049,0.333,-5.337
0.187,0.048,0.335,-5.337
0.126,0.043,0.337,-5.337
0.162,0.041,0.336,-5.337
0.205,0.044,0.336,-5.337
0.188,0.049,0.331,-5.337
0.232,0.044,0.329,-5.337
0.242,0.046,0.332,-5.337
0.258,0.050,0.334,-5.337
0.131,0.051,0.336,-5.337
0.120,0.043,0.335,-5.337
0.201,0.047,0.337,-5.337
0.095,0.051,0.337,-5.337
0.043,0.050,0.338,-5.337
0.131,0.045,0.338,-5.337
0.225,0.042,0.338,-5.337
0.218,0.044,0.333,-5.337
0.208,0.044,0.334,-5.337
0.255,0.040,0.335,-5.337
0.303,0.044,0.334,-5.337
0.185,0.051,0.335,-5.337
0.168,0.052,0.338,-5.337
0.095,0.051,0.341,-5.337
0.087,0.049,0.338,-5.337
0.147,0.047,0.334,-5.337
0.129,0.048,0.333,-5.337
0.114,0.051,0.335,-5.337
0.200,0.049,0.339,-5.337
0.322,0.045,0.340,-5.337
0.364,0.046,0.334,-5.337
0.280,0.047,0.328,-5.337
0.267,0.048,0.325,-5.337
0.284,0.047,0.331,-5.337
0.191,0.049,0.332,-5.337
0.090,0.052,0.335,-5.337
0.144,0.055,0.337,-5.337
0.164,0.052,0.336,-5.337
0.190,0.052,0.332,-5.337
0.242,0.053,0.333,-5.337
0.256,0.051,0.333,-5.337
0.225,0.050,0.335,-5.337
0.239,0.052,0.333,-5.337
0.224,0.050,0.333,-5.337
0.169,0.051,0.332,-5.337
0.164,0.053,0.331,-5.337
0.111,0.052,0.333,-5.337
0.091,0.057,0.337,-5.337
0.098,0.056,0.338,-5.337
0.161,0.054,0.334,-5.337
0.207,0.053,0.329,-5.337
0.182,0.054,0.329,-5.337
0.153,0.054,0.334,-5.337
0.185,0.050,0.334,-5.337
0.165,0.050,0.333,-5.337
0.142,0.049,0.334,-5.337
0.207,0.048,0.336,-5.337
0.144,0.052,0.335,-5.337
0.156,0.051,0.333,-5.337
0.191,0.051,0.331,-5.337
0.175,0.050,0.334,-5.337
0.126,0.048,0.332,-5.337
0.152,0.050,0.329,-5.337
0.246,0.049,0.329,-5.337
0.289,0.050,0.331,-5.337
0.238,0.051,0.331,-5.337
0.239,0.049,0.333,-5.337
0.267,0.048,0.337,-5.337
0.294,0.049,0.336,-5.337
0.153,0.052,0.333,-5.337
0.006,0.052,0.332,-5.337
0.027,0.052,0.333,-5.337
0.108,0.050,0.330,-5.337
0.111,0.050,0.328,-5.337
0.079,0.050,0.331,-5.337
0.106,0.047,0.337,-5.337
0.171,0.049,0.334,-5.337
0.201,0.051,0.331,-5.337
0.226,0.051,0.330,-5.337
0.234,0.052,0.333,-5.337
0.173,0.053,0.333,-5.337
0.157,0.052,0.336,-5.337
0.203,0.053,0.336,-5.337
0.175,0.054,0.339,-5.337
0.115,0.057,0.338,-5.337
0.101,0.058,0.335,-5.337
0.104,0.056,0.336,-5.337
0.154,0.054,0.335,-5.337
0.204,0.054,0.334,-5.337
0.184,0.056,0.331,-5.337
0.191,0.054,0.332,-5.337
0.231,0.054,0.332,-5.337
0.254,0.057,0.334,-5.337
0.196,0.061,0.337,-5.337
0.195,0.061,0.335,-5.337
0.220,0.058,0.332,-5.337
0.286,0.057,0.332,-5.337
0.255,0.058,0.334,-5.337
0.184,0.060,0.339,-5.337
0.143,0.061,0.333,-5.337
0.187,0.062,0.331,-5.337
0.239,0.061,0.331,-5.337
0.296,0.061,0.335,-5.337
0.258,0.059,0.335,-5.337
0.233,0.058,0.333,-5.337
0.202,0.058,0.330,-5.337
0.150,0.059,0.332,-5.337
0.180,0.059,0.338,-5.337
0.180,0.059,0.340,-5.337
0.174,0.058,0.337,-5.337
0.144,0.058,0.335,-5.337
0.146,0.057,0.337,-5.337
0.179,0.057,0.337,-5.337
0.197,0.056,0.336,-5.337
0.185,0.057,0.336,-5.337
0.180,0.059,0.335,-5.337
0.203,0.055,0.335,-5.337
0.175,0.054,0.333,-5.337
0.192,0.056,0.331,-5.337
0.196,0.055,0.332,-5.337
0.142,0.058,0.332,-5.337
0.086,0.060,0.331,-5.337
0.119,0.055,0.332,-5.337
0.193,0.052,0.336,-5.337
0.191,0.054,0.334,-5.337
0.210,0.055,0.335,-5.337
0.195,0.054,0.336,-5.337
0.171,0.059,0.333,-5.337
0.168,0.055,0.327,-5.337
0.231,0.053,0.329,-5.337
0.205,0.055,0.334,-5.337
0.191,0.056,0.337,-5.337
0.150,0.058,0.337,-5.337
0.075,0.058,0.333,-5.337
0.153,0.053,0.332,-5.337
0.238,0.050,0.329,-5.337
0.185,0.051,0.327,-5.337
0.216,0.052,0.334,-5.337
0.251,0.051,0.337,-5.337
0.241,0.049,0.338,-5.337
0.145,0.053,0.336,-5.337
0.134,0.057,0.336,-5.337
0.137,0.057,0.337,-5.337
0.158,0.054,0.334,-5.337
0.167,0.055,0.333,-5.337
0.208,0.058,0.329,-5.337
0.143,0.060,0.332,-5.337
0.148,0.056,0.334,-5.337
0.158,0.057,0.333,-5.337
0.150,0.057,0.332,-5.337
0.184,0.056,0.334,-5.337
0.201,0.057,0.340,-5.337
0.221,0.055,0.340,-5.337
0.283,0.054,0.336,-5.337
0.300,0.056,0.332,-5.337
0.261,0.054,0.330,-5.337
0.194,0.057,0.331,-5.337
0.217,0.056,0.330,-5.337
0.204,0.059,0.334,-5.337
0.157,0.061,0.338,-5.337
0.097,0.062,0.337,-5.337
0.154,0.060,0.333,-5.337
0.183,0.060,0.334,-5.337
0.155,0.062,0.338,-5.337
0.205,0.060,0.336,-5.337
0.252,0.057,0.334,-5.337
0.280,0.056,0.331,-5.337
0.202,0.061,0.328,-5.337
0.103,0.064,0.325,-5.337
0.122,0.061,0.332,-5.337
0.120,0.060,0.336,-5.337
0.155,0.058,0.338,-5.337
0.179,0.060,0.332,-5.337
0.212,0.060,0.330,-5.337
0.184,0.059,0.332,-5.337
0.147,0.060,0.338,-5.337
0.148,0.060,0.337,-5.337
0.191,0.060,0.333,-5.337
0.176,0.062,0.331,-5.337
0.151,0.059,0.336,-5.337
0.176,0.057,0.341,-5.337
0.194,0.058,0.338,-5.337
0.194,0.059,0.333,-5.337
0.210,0.057,0.331,-5.337
0.161,0.062,0.333,-5.337
0.135,0.061,0.334,-5.337
0.150,0.058,0.332,-5.337
0.189,0.059,0.333,-5.337
0.198,0.060,0.334,-5.337
0.257,0.058,0.334,-5.337
0.265,0.059,0.334,-5.337
0.245,0.060,0.333,-5.337
0.181,0.061,0.333,-5.337
0.230,0.062,0.336,-5.337
0.275,0.060,0.338,-5.337
0.291,0.055,0.333,-5.337
0.229,0.056,0.331,-5.337
0.188,0.056,0.331,-5.337
0.158,0.059,0.331,-5.337
0.190,0.058,0.328,-5.337
0.267,0.056,0.328,-5.337
0.216,0.059,0.330,-5.337
0.091,0.063,0.334,-5.337
0.077,0.064,0.333,-5.337
0.131,0.059,0.333,-5.337
0.193,0.056,0.333,-5.337
0.222,0.057,0.336,-5.337
0.180,0.058,0.340,-5.337
0.182,0.059,0.337,-5.337
0.217,0.055,0.331,-5.337
0.226,0.059,0.327,-5.337
0.197,0.061,0.331,-5.337
0.150,0.060,0.333,-5.337
0.128,0.057,0.333,-5.337
0.189,0.054,0.332,-5.337
0.239,0.058,0.332,-5.337
0.218,0.060,0.332,-5.337
0.231,0.060,0.334,-5.337
0.198,0.061,0.331,-5.337
0.147,0.062,0.329,-5.337
0.107,0.058,0.330,-5.337
0.093,0.056,0.334,-5.337
0.144,0.054,0.334,-5.337
0.208,0.056,0.333,-5.337
0.229,0.060,0.333,-5.337
0.226,0.058,0.334,-5.337
0.177,0.059,0.333,-5.337
0.100,0.058,0.334,-5.337
0.131,0.055,0.335,-5.337
0.172,0.057,0.334,-5.337
0.227,0.056,0.335,-5.337
0.198,0.057,0.336,-5.337
0.151,0.055,0.337,-5.337
0.171,0.050,0.331,-5.337
0.176,0.051,0.327,-5.337
0.187,0.052,0.330,-5.337
0.210,0.050,0.336,-5.337
0.158,0.047,0.337,-5.337
0.135,0.050,0.339,-5.337
0.123,0.053,0.339,-5.337
0.195,0.049,0.337,-5.337
0.244,0.047,0.334,-5.337
0.201,0.050,0.334,-5.337
0.193,0.050,0.331,-5.337
0.199,0.050,0.330,-5.337
0.256,0.048,0.333,-5.337
0.256,0.053,0.335,-5.337
0.228,0.052,0.334,-5.337
0.222,0.048,0.333,-5.337
0.224,0.049,0.334,-5.337
0.211,0.050,0.338,-5.337
0.233,0.050,0.340,-5.337
0.285,0.046,0.338,-5.337
0.276,0.049,0.338,-5.337
0.201,0.052,0.335,-5.337
0.216,0.052,0.331,-5.337
0.212,0.052,0.329,-5.337
0.154,0.054,0.334,-5.337
0.162,0.051,0.338,-5.337
0.190,0.051,0.340,-5.337
0.238,0.051,0.336,-5.337
0.237,0.051,0.333,-5.337
0.166,0.054,0.333,-5.337
0.119,0.056,0.337,-5.337
0.094,0.051,0.339,-5.337
0.193,0.048,0.338,-5.337
0.261,0.047,0.335,-5.337
0.202,0.051,0.335,-5.337
0.129,0.053,0.339,-5.337
0.124,0.050,0.340,-5.337
0.146,0.050,0.336,-5.337
0.204,0.052,0.335,-5.337
0.218,0.052,0.339,-5.337
0.205,0.048,0.338,-5.337
0.181,0.047,0.338,-5.337
0.240,0.046,0.340,-5.337
0.266,0.045,0.341,-5.337
0.213,0.045,0.339,-5.337
0.193,0.047,0.337,-5.337
0.238,0.048,0.337,-5.337
0.245,0.046,0.338,-5.337
0.146,0.046,0.336,-5.337
0.101,0.048,0.335,-5.337
0.140,0.052,0.338,-5.337
0.156,0.051,0.341,-5.337
0.161,0.046,0.338,-5.337
0.209,0.046,0.334,-5.337
0.228,0.048,0.331,-5.337
0.205,0.045,0.333,-5.337
0.229,0.044,0.337,-5.337
0.207,0.045,0.341,-5.337
0.266,0.044,0.342,-5.337
0.217,0.043,0.341,-5.337
0.186,0.045,0.339,-5.337
0.144,0.049,0.341,-5.337
0.118,0.050,0.338,-5.337
0.140,0.051,0.337,-5.337
0.206,0.050,0.337,-5.337
0.162,0.050,0.336,-5.337
0.166,0.047,0.338,-5.337
0.199,0.047,0.338,-5.337
0.237,0.046,0.333,-5.337
0.163,0.048,0.330,-5.337
0.127,0.047,0.333,-5.337
0.186,0.049,0.333,-5.337
0.252,0.048,0.332,-5.337
0.222,0.045,0.334,-5.337
0.124,0.045,0.337,-5.337
0.145,0.045,0.335,-5.337
0.240,0.044,0.332,-5.337
0.198,0.045,0.332,-5.337
0.137,0.048,0.337,-5.337
0.198,0.043,0.340,-5.337
0.179,0.040,0.341,-5.337
0.100,0.043,0.342,-5.337
0.144,0.045,0.337,-5.337
0.123,0.046,0.332,-5.337
0.105,0.049,0.331,-5.337
0.092,0.049,0.334,-5.337
0.199,0.042,0.340,-5.337
0.279,0.040,0.339,-5.337
0.200,0.044,0.333,-5.337
0.165,0.048,0.334,-5.337
0.173,0.046,0.335,-5.337
0.137,0.043,0.336,-5.337
0.105,0.045,0.334,-5.337
0.107,0.042,0.329,-5.337
0.126,0.042,0.327,-5.337
0.215,0.041,0.331,-5.337
0.250,0.037,0.337,-5.337
0.237,0.040,0.338,-5.337
0.214,0.041,0.335,-5.337
0.220,0.040,0.332,-5.337
0.292,0.040,0.332,-5.337
0.376,0.041,0.333,-5.337
0.347,0.041,0.335,-5.337
0.253,0.045,0.336,-5.337
0.245,0.045,0.334,-5.337
0.256,0.049,0.334,-5.337
0.229,0.050,0.336,-5.337
0.227,0.046,0.339,-5.337
0.202,0.043,0.339,-5.337
0.149,0.045,0.337,-5.337
0.139,0.047,0.336,-5.337
0.167,0.048,0.333,-5.337
0.212,0.046,0.337,-5.337
0.228,0.046,0.338,-5.337
0.181,0.046,0.336,-5.337
0.150,0.043,0.331,-5.337
0.145,0.043,0.331,-5.337
0.185,0.041,0.335,-5.337
0.231,0.043,0.342,-5.337
0.252,0.042,0.342,-5.337
0.262,0.041,0.337,-5.337
0.191,0.042,0.336,-5.337
0.206,0.044,0.338,-5.337
0.224,0.042,0.333,-5.337
0.218,0.037,0.329,-5.337
0.178,0.037,0.330,-5.337
0.181,0.038,0.334,-5.337
0.191,0.041,0.338,-5.337
0.252,0.041,0.335,-5.337
0.273,0.040,0.335,-5.337
0.201,0.039,0.333,-5.337
0.245,0.036,0.334,-5.337
0.318,0.037,0.335,-5.337
0.275,0.041,0.335,-5.337
0.147,0.044,0.333,-5.337
0.125,0.043,0.338,-5.337
0.185,0.038,0.341,-5.337
0.222,0.039,0.338,-5.337
0.228,0.040,0.333,-5.337
0.185,0.044,0.335,-5.337
0.108,0.043,0.336,-5.337
