[Parameters]
Operating Mode, Feedback
Subject  AA..ZZ, WT
Session  0..99, 42
No. Trials (1..9999), 500
Mouse Number, 1
Pressure Probe Serial Port, \00\00\00\04COM4
Save additional csv file, TRUE
Save using mouse number, FALSE
A/D Monitor Rate (Hz), 30000.000000
A/D Stimulate Rate (Hz), 30000.000000
A/D input range (+/- V), 5
No. Channels to acquire (N), 2
Pre-Stim Acq. time (ms), 100.000000
Post-Stim Acq. time (ms), 900.000000
Analysis window parameters.M-response Start (ms), 1.100000
Analysis window parameters.M-response Duration (ms), 5.500000
Analysis window parameters.H-response Duration (ms), 6.000000
Analysis window parameters.H-response Start (ms), 6.500000
Feedback window, H response
Proportional gain, 0.100000
Target value, 6.700000
Feedback Ch., 1
Stim Channel to Control (1-4), 4
Trial, 23
Wait for EMG Conditions, FALSE
Channel to monitor (0 - N-1), 1
EMG Hi Limit, 2.000000
EMG Lo Limit, 0.001000
Inter-Stim delay (sec), 10.000000
EMG Monitor Mode, Mean
Time to run Long Stim.(sec), 30
Save Long Stim Data?, OFF
BURST Save time (ms), 1000
BURST Save Interval (x above), 10
Long-Stim. Rep. Rate (Hz), 10.000000
Stim type cluster array.<size(s)>, 4
Stim type cluster array 0.Stimulus Output, Electrical
Stim type cluster array 1.Stimulus Output, OFF
Stim type cluster array 2.Stimulus Output, OFF
Stim type cluster array 3.Stimulus Output, Motor Length
Stim specs cluster array.<size(s)>, 4
Stim specs cluster array 0.Initial Stimulus ampl., 0.300000
Stim specs cluster array 0.Maximum Stimulus, 1.120000
Stim specs cluster array 0.#Pulses in train, 4
Stim specs cluster array 0.Peak Level time (ms), 1.000000
Stim specs cluster array 0.Total pulse period (ms), 150.000000
Stim specs cluster array 0.Start Delay (ms), -50.000000
Stim specs cluster array 0.Pulse Shape, Square
Stim specs cluster array 0.Ramp/Rel. time (ms), 0.100000
Stim specs cluster array 0.Peak Amplitude (V), 0.120000
Stim specs cluster array 1.Initial Stimulus ampl., 0.000000
Stim specs cluster array 1.Maximum Stimulus, 0.000000
Stim specs cluster array 1.#Pulses in train, 3
Stim specs cluster array 1.Peak Level time (ms), 29.000000
Stim specs cluster array 1.Total pulse period (ms), 200.000000
Stim specs cluster array 1.Start Delay (ms), 0.000000
Stim specs cluster array 1.Pulse Shape, Square
Stim specs cluster array 1.Ramp/Rel. time (ms), 0.000000
Stim specs cluster array 1.Peak Amplitude (V), 2.000000
Stim specs cluster array 2.Initial Stimulus ampl., 0.000000
Stim specs cluster array 2.Maximum Stimulus, 0.000000
Stim specs cluster array 2.#Pulses in train, 1
Stim specs cluster array 2.Peak Level time (ms), 25.000000
Stim specs cluster array 2.Total pulse period (ms), 200.000000
Stim specs cluster array 2.Start Delay (ms), 0.000000
Stim specs cluster array 2.Pulse Shape, Square
Stim specs cluster array 2.Ramp/Rel. time (ms), 20.000000
Stim specs cluster array 2.Peak Amplitude (V), 10.000000
Stim specs cluster array 3.Initial Stimulus ampl., 0.000000
Stim specs cluster array 3.Maximum Stimulus, 20.000000
Stim specs cluster array 3.#Pulses in train, 25
Stim specs cluster array 3.Peak Level time (ms), 0.100000
Stim specs cluster array 3.Total pulse period (ms), 4.000000
Stim specs cluster array 3.Start Delay (ms), 205.000000
Stim specs cluster array 3.Pulse Shape, Triangle
Stim specs cluster array 3.Ramp/Rel. time (ms), 3.000000
Stim specs cluster array 3.Peak Amplitude (V), 0.500000
Force cal. (mN/Volt), 100.000000
Force Range (mN), 100.000000
Length cal. (mm/Volt), 10.000000
Length Range (mm), 10.000000
Stim. 1, 0.300000
Stim. 2, 0.000000
Stim. 3, 0.000000
Stim. 4, 0.000000
Monitor acquire time (ms), 100.000000
EMG graph Ymax, 0.100000
Travel limit (mm), 20.000000
Use Pressure Probe, FALSE
Pressure goal (g), 100
Speed (mm/sec), 5.000000
Dwell time (ms), 100.000000
Pressure limit (g), 500.000000
Channel amplitude offset, 0.000000

[DATA]

0.289,0.041,0.330,-5.337
0.237,0.044,0.335,-5.337
0.261,0.043,0.334,-5.337
0.310,0.045,0.334,-5.337
0.289,0.045,0.334,-5.337
0.221,0.044,0.330,-5.337
0.220,0.046,0.327,-5.337
0.180,0.049,0.325,-5.337
0.210,0.048,0.329,-5.337
0.288,0.049,0.331,-5.337
0.176,0.054,0.330,-5.337
0.066,0.055,0.329,-5.337
0.006,0.059,0.333,-5.337
0.035,0.057,0.335,-5.337
0.136,0.051,0.331,-5.337
0.252,0.047,0.325,-5.337
0.221,0.048,0.324,-5.337
0.105,0.051,0.325,-5.337
0.117,0.051,0.330,-5.337
0.198,0.049,0.330,-5.337
0.215,0.045,0.330,-5.337
0.191,0.046,0.328,-5.337
0.172,0.046,0.330,-5.337
0.186,0.045,0.329,-5.337
0.181,0.045,0.328,-5.337
0.203,0.044,0.327,-5.337
0.194,0.049,0.326,-5.337
0.169,0.049,0.329,-5.337
0.200,0.052,0.329,-5.337
0.175,0.051,0.328,-5.337
0.187,0.046,0.327,-5.337
0.281,0.046,0.330,-5.337
0.275,0.047,0.335,-5.337
0.150,0.051,0.336,-5.337
0.089,0.050,0.335,-5.337
0.119,0.049,0.330,-5.337
0.122,0.050,0.327,-5.337
0.066,0.051,0.328,-5.337
0.100,0.053,0.327,-5.337
0.128,0.056,0.323,-5.337
0.128,0.056,0.325,-5.337
0.142,0.053,0.329,-5.337
0.133,0.050,0.330,-5.337
0.142,0.053,0.332,-5.337
0.203,0.051,0.327,-5.337
0.249,0.049,0.323,-5.337
0.282,0.046,0.324,-5.337
0.270,0.044,0.326,-5.337
0.287,0.045,0.329,-5.337
0.285,0.048,0.332,-5.337
0.256,0.046,0.333,-5.337
0.250,0.049,0.331,-5.337
0.200,0.050,0.325,-5.337
0.170,0.052,0.324,-5.337
0.161,0.050,0.328,-5.337
0.112,0.049,0.327,-5.337
0.131,0.049,0.323,-5.337
0.178,0.048,0.324,-5.337
0.198,0.051,0.327,-5.337
0.211,0.053,0.329,-5.337
0.176,0.055,0.329,-5.337
0.142,0.054,0.328,-5.337
0.193,0.052,0.329,-5.337
0.235,0.051,0.326,-5.337
0.220,0.051,0.329,-5.337
0.213,0.049,0.333,-5.337
0.186,0.049,0.336,-5.337
0.075,0.053,0.332,-5.337
0.042,0.052,0.328,-5.337
0.093,0.047,0.325,-5.337
0.105,0.048,0.321,-5.337
0.084,0.049,0.321,-5.337
0.105,0.051,0.322,-5.337
0.157,0.053,0.325,-5.337
0.252,0.050,0.330,-5.337
0.248,0.050,0.332,-5.337
0.212,0.045,0.327,-5.337
0.193,0.044,0.325,-5.337
0.190,0.047,0.325,-5.337
0.151,0.054,0.326,-5.337
0.135,0.053,0.329,-5.337
0.193,0.048,0.331,-5.337
0.168,0.053,0.330,-5.337
0.208,0.055,0.329,-5.337
0.207,0.056,0.328,-5.337
0.146,0.058,0.330,-5.337
0.088,0.060,0.328,-5.337
0.139,0.059,0.327,-5.337
0.188,0.057,0.325,-5.337
0.209,0.056,0.326,-5.337
0.185,0.057,0.325,-5.337
0.194,0.056,0.328,-5.337
0.149,0.056,0.329,-5.337
0.114,0.055,0.332,-5.337
0.222,0.052,0.328,-5.337
0.280,0.055,0.323,-5.337
0.284,0.054,0.324,-5.337
0.241,0.054,0.328,-5.337
0.189,0.057,0.331,-5.337
0.132,0.059,0.331,-5.337
0.115,0.058,0.333,-5.337
0.116,0.055,0.331,-5.337
0.118,0.059,0.327,-5.337
0.140,0.057,0.323,-5.337
0.181,0.055,0.322,-5.337
0.187,0.055,0.324,-5.337
0.142,0.057,0.327,-5.337
0.172,0.060,0.331,-5.337
0.175,0.057,0.332,-5.337
0.110,0.056,0.332,-5.337
0.142,0.060,0.331,-5.337
0.179,0.059,0.327,-5.337
0.183,0.060,0.330,-5.337
0.151,0.059,0.332,-5.337
0.206,0.055,0.332,-5.337
0.217,0.057,0.330,-5.337
0.167,0.060,0.326,-5.337
0.152,0.058,0.323,-5.337
0.113,0.059,0.325,-5.337
0.110,0.056,0.327,-5.337
0.193,0.056,0.329,-5.337
0.281,0.055,0.332,-5.337
0.261,0.054,0.327,-5.337
0.227,0.054,0.322,-5.337
0.185,0.056,0.324,-5.337
0.155,0.057,0.329,-5.337
0.145,0.056,0.330,-5.337
0.097,0.057,0.329,-5.337
0.093,0.057,0.328,-5.337
0.136,0.053,0.330,-5.337
0.213,0.050,0.332,-5.337
0.256,0.050,0.333,-5.337
0.240,0.051,0.330,-5.337
0.162,0.052,0.332,-5.337
0.151,0.050,0.329,-5.337
0.179,0.054,0.327,-5.337
0.139,0.054,0.326,-5.337
0.087,0.053,0.325,-5.337
0.149,0.054,0.325,-5.337
0.166,0.054,0.325,-5.337
0.128,0.056,0.330,-5.337
0.126,0.060,0.331,-5.337
0.164,0.056,0.330,-5.337
0.188,0.054,0.328,-5.337
0.174,0.055,0.331,-5.337
0.143,0.057,0.332,-5.337
0.151,0.057,0.327,-5.337
0.169,0.054,0.324,-5.337
0.201,0.052,0.327,-5.337
0.202,0.056,0.332,-5.337
0.219,0.056,0.334,-5.337
0.224,0.058,0.329,-5.337
0.236,0.056,0.325,-5.337
0.272,0.055,0.318,-5.337
0.219,0.058,0.317,-5.337
0.163,0.058,0.323,-5.337
0.128,0.055,0.328,-5.337
0.156,0.054,0.329,-5.337
0.126,0.055,0.328,-5.337
0.168,0.055,0.328,-5.337
0.195,0.057,0.327,-5.337
0.206,0.053,0.326,-5.337
0.230,0.057,0.325,-5.337
0.208,0.060,0.325,-5.337
0.182,0.060,0.329,-5.337
0.197,0.058,0.332,-5.337
0.174,0.057,0.328,-5.337
0.149,0.057,0.324,-5.337
0.229,0.055,0.323,-5.337
0.293,0.056,0.323,-5.337
0.220,0.055,0.325,-5.337
0.083,0.061,0.328,-5.337
0.077,0.062,0.325,-5.337
0.135,0.059,0.327,-5.337
0.158,0.059,0.330,-5.337
0.162,0.057,0.331,-5.337
0.151,0.058,0.328,-5.337
0.143,0.058,0.325,-5.337
0.204,0.055,0.325,-5.337
0.190,0.058,0.326,-5.337
0.203,0.055,0.328,-5.337
0.266,0.056,0.329,-5.337
0.306,0.058,0.330,-5.337
0.253,0.060,0.327,-5.337
0.165,0.059,0.325,-5.337
0.124,0.060,0.326,-5.337
0.092,0.058,0.332,-5.337
0.132,0.058,0.334,-5.337
0.154,0.059,0.334,-5.337
0.199,0.061,0.329,-5.337
0.223,0.060,0.325,-5.337
0.297,0.058,0.326,-5.337
0.267,0.055,0.329,-5.337
0.224,0.053,0.328,-5.337
0.181,0.053,0.329,-5.337
0.135,0.058,0.333,-5.337
0.196,0.055,0.332,-5.337
0.314,0.052,0.327,-5.337
0.275,0.053,0.322,-5.337
0.120,0.055,0.320,-5.337
0.172,0.053,0.324,-5.337
0.290,0.050,0.327,-5.337
0.325,0.049,0.330,-5.337
0.335,0.051,0.330,-5.337
0.202,0.057,0.330,-5.337
0.066,0.057,0.330,-5.337
0.059,0.057,0.329,-5.337
0.164,0.056,0.329,-5.337
0.211,0.056,0.327,-5.337
0.174,0.052,0.328,-5.337
0.213,0.049,0.329,-5.337
0.244,0.051,0.328,-5.337
0.250,0.054,0.323,-5.337
0.194,0.055,0.320,-5.337
0.171,0.055,0.324,-5.337
0.200,0.054,0.332,-5.337
0.246,0.054,0.335,-5.337
0.238,0.053,0.332,-5.337
0.218,0.052,0.328,-5.337
0.144,0.052,0.328,-5.337
0.182,0.050,0.329,-5.337
0.232,0.051,0.333,-5.337
0.288,0.052,0.333,-5.337
0.295,0.050,0.331,-5.337
0.233,0.051,0.324,-5.337
0.183,0.052,0.322,-5.337
0.125,0.055,0.322,-5.337
0.120,0.052,0.326,-5.337
0.134,0.050,0.330,-5.337
0.174,0.050,0.333,-5.337
0.171,0.047,0.332,-5.337
0.187,0.046,0.330,-5.337
0.191,0.046,0.326,-5.337
0.196,0.049,0.327,-5.337
0.170,0.046,0.328,-5.337
0.255,0.044,0.327,-5.337
0.333,0.044,0.328,-5.337
0.258,0.048,0.326,-5.337
0.150,0.051,0.327,-5.337
0.130,0.054,0.329,-5.337
0.156,0.053,0.332,-5.337
0.144,0.050,0.332,-5.337
0.203,0.052,0.331,-5.337
0.269,0.049,0.329,-5.337
0.226,0.047,0.330,-5.337
0.152,0.051,0.330,-5.337
0.065,0.051,0.331,-5.337
0.054,0.048,0.330,-5.337
0.148,0.046,0.330,-5.337
0.188,0.044,0.329,-5.337
0.176,0.046,0.327,-5.337
0.169,0.049,0.326,-5.337
0.196,0.053,0.325,-5.337
0.196,0.048,0.324,-5.337
0.183,0.048,0.329,-5.337
0.145,0.047,0.331,-5.337
0.202,0.046,0.328,-5.337
0.285,0.042,0.322,-5.337
0.276,0.043,0.324,-5.337
0.146,0.046,0.330,-5.337
0.169,0.047,0.332,-5.337
0.224,0.046,0.330,-5.337
0.244,0.043,0.325,-5.337
0.242,0.042,0.325,-5.337
0.250,0.043,0.327,-5.337
0.220,0.041,0.330,-5.337
0.200,0.041,0.330,-5.337
0.209,0.041,0.330,-5.337
0.200,0.042,0.333,-5.337
0.099,0.042,0.332,-5.337
0.135,0.039,0.327,-5.337
0.242,0.039,0.327,-5.337
0.169,0.039,0.328,-5.337
0.169,0.041,0.331,-5.337
0.241,0.039,0.332,-5.337
0.189,0.042,0.330,-5.337
0.155,0.041,0.325,-5.337
0.160,0.041,0.327,-5.337
0.182,0.039,0.330,-5.337
0.244,0.038,0.332,-5.337
0.205,0.040,0.330,-5.337
0.141,0.042,0.327,-5.337
0.155,0.042,0.327,-5.337
0.334,0.038,0.327,-5.337
0.440,0.036,0.330,-5.337
0.373,0.039,0.330,-5.337
0.242,0.038,0.330,-5.337
0.160,0.041,0.326,-5.337
0.165,0.042,0.326,-5.337
0.221,0.036,0.324,-5.337
0.244,0.035,0.327,-5.337
0.184,0.039,0.331,-5.337
0.226,0.037,0.335,-5.337
0.243,0.038,0.334,-5.337
0.204,0.042,0.330,-5.337
0.125,0.043,0.325,-5.337
0.128,0.043,0.326,-5.337
0.215,0.041,0.329,-5.337
0.178,0.046,0.329,-5.337
0.153,0.047,0.332,-5.337
0.186,0.047,0.332,-5.337
0.221,0.044,0.329,-5.337
0.285,0.042,0.325,-5.337
0.207,0.043,0.325,-5.337
0.119,0.044,0.329,-5.337
0.079,0.045,0.328,-5.337
0.117,0.043,0.326,-5.337
0.130,0.047,0.324,-5.337
0.154,0.043,0.325,-5.337
0.251,0.038,0.330,-5.337
0.264,0.039,0.330,-5.337
0.280,0.038,0.328,-5.337
0.309,0.038,0.327,-5.337
0.277,0.041,0.328,-5.337
0.207,0.041,0.326,-5.337
0.176,0.042,0.328,-5.337
0.211,0.038,0.328,-5.337
0.213,0.040,0.330,-5.337
0.211,0.037,0.327,-5.337
0.246,0.037,0.327,-5.337
0.271,0.035,0.329,-5.337
0.206,0.035,0.329,-5.337
0.170,0.039,0.329,-5.337
0.197,0.039,0.328,-5.337
0.272,0.038,0.326,-5.337
0.221,0.042,0.327,-5.337
0.205,0.043,0.326,-5.337
0.216,0.042,0.325,-5.337
0.185,0.042,0.326,-5.337
0.124,0.041,0.326,-5.337
0.171,0.038,0.334,-5.337
0.163,0.036,0.336,-5.337
0.160,0.041,0.333,-5.337
0.229,0.040,0.328,-5.337
0.281,0.039,0.328,-5.337
0.247,0.038,0.332,-5.337
0.184,0.040,0.331,-5.337
0.166,0.037,0.327,-5.337
0.246,0.035,0.326,-5.337
0.206,0.040,0.324,-5.337
0.154,0.043,0.325,-5.337
0.135,0.040,0.326,-5.337
0.144,0.036,0.330,-5.337
0.194,0.033,0.331,-5.337
0.204,0.035,0.333,-5.337
0.222,0.033,0.335,-5.337
0.248,0.033,0.334,-5.337
0.167,0.037,0.329,-5.337
0.194,0.035,0.325,-5.337
0.290,0.033,0.326,-5.337
0.232,0.038,0.328,-5.337
0.177,0.038,0.329,-5.337
0.187,0.039,0.331,-5.337
0.183,0.039,0.333,-5.337
0.147,0.038,0.332,-5.337
0.168,0.036,0.327,-5.337
0.267,0.034,0.324,-5.337
0.338,0.036,0.329,-5.337
0.267,0.042,0.334,-5.337
0.157,0.043,0.336,-5.337
0.185,0.039,0.335,-5.337
0.278,0.038,0.330,-5.337
0.276,0.040,0.325,-5.337
0.251,0.040,0.323,-5.337
0.130,0.046,0.326,-5.337
0.129,0.044,0.330,-5.337
0.257,0.038,0.335,-5.337
0.252,0.038,0.338,-5.337
0.224,0.039,0.336,-5.337
0.172,0.042,0.333,-5.337
0.198,0.036,0.327,-5.337
0.262,0.032,0.325,-5.337
0.256,0.035,0.326,-5.337
0.212,0.037,0.328,-5.337
0.239,0.036,0.332,-5.337
0.188,0.036,0.336,-5.337
0.132,0.038,0.335,-5.337
0.200,0.036,0.330,-5.337
0.208,0.044,0.329,-5.337
0.189,0.046,0.330,-5.337
0.235,0.044,0.331,-5.337
0.268,0.043,0.330,-5.337
0.258,0.044,0.331,-5.337
0.234,0.047,0.329,-5.337
0.215,0.045,0.329,-5.337
0.216,0.041,0.332,-5.337
0.203,0.040,0.330,-5.337
0.187,0.042,0.328,-5.337
0.236,0.041,0.329,-5.337
0.255,0.039,0.329,-5.337
0.219,0.040,0.330,-5.337
0.252,0.038,0.328,-5.337
0.251,0.039,0.328,-5.337
0.242,0.037,0.329,-5.337
0.196,0.036,0.328,-5.337
0.196,0.037,0.326,-5.337
0.220,0.036,0.329,-5.337
0.198,0.035,0.334,-5.337
0.161,0.040,0.333,-5.337
0.149,0.043,0.330,-5.337
0.146,0.043,0.327,-5.337
0.205,0.036,0.329,-5.337
0.260,0.036,0.332,-5.337
0.271,0.034,0.334,-5.337
0.210,0.035,0.331,-5.337
0.157,0.035,0.330,-5.337
0.160,0.036,0.328,-5.337
0.193,0.036,0.326,-5.337
0.207,0.035,0.325,-5.337
0.208,0.037,0.327,-5.337
0.186,0.039,0.328,-5.337
0.149,0.041,0.331,-5.337
0.194,0.040,0.331,-5.337
0.220,0.040,0.330,-5.337
0.224,0.040,0.325,-5.337
0.333,0.038,0.324,-5.337
0.341,0.038,0.325,-5.337
0.289,0.041,0.326,-5.337
0.243,0.043,0.325,-5.337
0.262,0.040,0.329,-5.337
0.228,0.036,0.331,-5.337
0.190,0.035,0.327,-5.337
0.251,0.035,0.321,-5.337
0.280,0.036,0.321,-5.337
0.260,0.033,0.325,-5.337
0.198,0.034,0.325,-5.337
0.253,0.036,0.329,-5.337
0.244,0.039,0.330,-5.337
0.196,0.042,0.330,-5.337
0.104,0.048,0.327,-5.337
0.047,0.047,0.326,-5.337
0.143,0.044,0.326,-5.337
0.225,0.044,0.325,-5.337
0.257,0.042,0.323,-5.337
0.202,0.040,0.322,-5.337
0.154,0.037,0.322,-5.337
0.115,0.040,0.325,-5.337
0.089,0.041,0.327,-5.337
0.227,0.039,0.326,-5.337
0.287,0.036,0.324,-5.337
0.235,0.040,0.323,-5.337
0.198,0.040,0.322,-5.337
0.233,0.041,0.325,-5.337
0.240,0.046,0.330,-5.337
0.194,0.047,0.327,-5.337
0.143,0.043,0.325,-5.337
0.179,0.037,0.323,-5.337
0.224,0.034,0.323,-5.337
0.163,0.038,0.322,-5.337
0.154,0.038,0.326,-5.337
0.234,0.040,0.328,-5.337
0.283,0.041,0.329,-5.337
0.237,0.038,0.325,-5.337
0.246,0.038,0.325,-5.337
0.253,0.043,0.323,-5.337
0.164,0.046,0.323,-5.337
0.087,0.042,0.320,-5.337
0.162,0.041,0.319,-5.337
0.249,0.042,0.320,-5.337
0.265,0.041,0.323,-5.337
0.164,0.042,0.325,-5.337
0.092,0.044,0.326,-5.337
0.114,0.043,0.327,-5.337
0.146,0.045,0.328,-5.337
0.170,0.049,0.326,-5.337
0.218,0.046,0.325,-5.337
0.244,0.042,0.323,-5.337
0.229,0.044,0.320,-5.337
0.164,0.046,0.321,-5.337
0.168,0.046,0.324,-5.337
0.189,0.044,0.326,-5.337
0.174,0.046,0.325,-5.337
0.235,0.042,0.328,-5.337
0.231,0.042,0.329,-5.337
0.253,0.042,0.325,-5.337
0.257,0.041,0.320,-5.337
0.232,0.045,0.321,-5.337
0.266,0.045,0.323,-5.337
0.249,0.047,0.325,-5.337
0.133,0.047,0.323,-5.337
0.101,0.050,0.323,-5.337
0.206,0.050,0.325,-5.337
0.267,0.048,0.323,-5.337
0.216,0.048,0.322,-5.337
0.159,0.049,0.321,-5.337
0.117,0.046,0.320,-5.337
0.108,0.043,0.321,-5.337
0.249,0.040,0.323,-5.337
0.307,0.040,0.324,-5.337
0.289,0.043,0.324,-5.337
0.260,0.047,0.324,-5.337
0.215,0.048,0.324,-5.337
0.194,0.046,0.321,-5.337
0.086,0.044,0.321,-5.337
0.152,0.042,0.321,-5.337
0.192,0.043,0.326,-5.337
0.217,0.041,0.328,-5.337
0.251,0.042,0.328,-5.337
0.221,0.044,0.324,-5.337
0.204,0.042,0.320,-5.337
0.229,0.039,0.319,-5.337
0.156,0.041,0.319,-5.337
0.190,0.041,0.320,-5.337
0.271,0.042,0.322,-5.337
0.283,0.040,0.327,-5.337
0.252,0.039,0.326,-5.337
0.217,0.041,0.325,-5.337
0.146,0.046,0.323,-5.337
0.133,0.046,0.323,-5.337
0.087,0.048,0.328,-5.337
0.107,0.045,0.328,-5.337
0.168,0.045,0.324,-5.337
0.120,0.049,0.324,-5.337
0.081,0.048,0.322,-5.337
0.162,0.046,0.323,-5.337
0.169,0.045,0.324,-5.337
0.109,0.048,0.324,-5.337
0.113,0.049,0.321,-5.337
0.230,0.045,0.317,-5.337
0.205,0.050,0.315,-5.337
0.143,0.049,0.321,-5.337
0.218,0.048,0.327,-5.337
0.333,0.047,0.328,-5.337
0.319,0.048,0.327,-5.337
0.291,0.046,0.329,-5.337
0.219,0.042,0.327,-5.337
0.204,0.050,0.326,-5.337
0.129,0.055,0.326,-5.337
0.119,0.054,0.326,-5.337
0.165,0.048,0.322,-5.337
0.196,0.046,0.320,-5.337
0.202,0.050,0.319,-5.337
0.180,0.048,0.320,-5.337
0.211,0.044,0.323,-5.337
0.200,0.048,0.325,-5.337
0.222,0.050,0.324,-5.337
0.211,0.052,0.325,-5.337
0.187,0.054,0.326,-5.337
0.134,0.056,0.324,-5.337
0.192,0.051,0.324,-5.337
0.258,0.051,0.323,-5.337
0.255,0.054,0.323,-5.337
0.249,0.052,0.322,-5.337
0.214,0.050,0.322,-5.337
0.178,0.049,0.321,-5.337
0.217,0.048,0.324,-5.337
0.265,0.048,0.322,-5.337
0.215,0.051,0.321,-5.337
0.190,0.050,0.320,-5.337
0.225,0.050,0.322,-5.337
0.230,0.052,0.322,-5.337
0.206,0.051,0.323,-5.337
0.150,0.053,0.322,-5.337
0.155,0.056,0.323,-5.337
0.113,0.058,0.324,-5.337
0.116,0.054,0.325,-5.337
0.118,0.050,0.322,-5.337
0.159,0.050,0.320,-5.337
0.203,0.053,0.320,-5.337
0.188,0.055,0.322,-5.337
0.131,0.054,0.322,-5.337
0.183,0.052,0.320,-5.337
0.215,0.057,0.322,-5.337
0.174,0.058,0.322,-5.337
0.198,0.057,0.318,-5.337
0.194,0.054,0.320,-5.337
0.173,0.053,0.324,-5.337
0.187,0.052,0.325,-5.337
0.136,0.056,0.323,-5.337
0.092,0.053,0.322,-5.337
0.130,0.054,0.327,-5.337
0.177,0.054,0.329,-5.337
0.158,0.053,0.324,-5.337
0.118,0.054,0.319,-5.337
0.107,0.053,0.316,-5.337
0.164,0.053,0.316,-5.337
0.197,0.058,0.320,-5.337
0.213,0.057,0.322,-5.337
0.222,0.055,0.325,-5.337
0.196,0.053,0.322,-5.337
0.172,0.053,0.320,-5.337
0.129,0.052,0.319,-5.337
0.173,0.049,0.321,-5.337
0.273,0.048,0.322,-5.337
0.241,0.051,0.320,-5.337
0.205,0.053,0.320,-5.337
0.151,0.053,0.318,-5.337
0.111,0.052,0.321,-5.337
0.132,0.048,0.323,-5.337
0.204,0.050,0.323,-5.337
0.251,0.052,0.322,-5.337
0.191,0.056,0.322,-5.337
0.192,0.053,0.318,-5.337
0.215,0.051,0.318,-5.337
0.184,0.051,0.318,-5.337
0.129,0.053,0.318,-5.337
0.115,0.053,0.319,-5.337
0.181,0.050,0.319,-5.337
0.173,0.051,0.323,-5.337
0.181,0.052,0.325,-5.337
0.225,0.053,0.326,-5.337
0.225,0.056,0.326,-5.337
0.210,0.053,0.322,-5.337
0.254,0.046,0.320,-5.337
0.305,0.047,0.318,-5.337
0.216,0.053,0.319,-5.337
0.096,0.054,0.322,-5.337
0.167,0.052,0.324,-5.337
0.219,0.050,0.325,-5.337
0.204,0.047,0.321,-5.337
0.189,0.050,0.322,-5.337
0.178,0.049,0.321,-5.337
0.168,0.050,0.321,-5.337
0.187,0.051,0.320,-5.337
0.160,0.055,0.319,-5.337
0.171,0.052,0.319,-5.337
0.176,0.052,0.322,-5.337
0.174,0.058,0.321,-5.337
0.178,0.058,0.321,-5.337
0.161,0.057,0.323,-5.337
0.113,0.056,0.324,-5.337
0.147,0.055,0.323,-5.337
0.220,0.058,0.322,-5.337
0.198,0.055,0.324,-5.337
0.189,0.052,0.323,-5.337
0.214,0.053,0.320,-5.337
0.203,0.055,0.320,-5.337
0.221,0.053,0.321,-5.337
0.254,0.049,0.320,-5.337
0.257,0.050,0.325,-5.337
0.252,0.054,0.326,-5.337
0.250,0.054,0.326,-5.337
0.260,0.049,0.320,-5.337
0.256,0.048,0.319,-5.337
0.177,0.051,0.321,-5.337
0.116,0.055,0.325,-5.337
0.128,0.056,0.322,-5.337
0.182,0.056,0.320,-5.337
0.221,0.053,0.318,-5.337
0.264,0.056,0.318,-5.337
0.259,0.053,0.320,-5.337
0.261,0.053,0.326,-5.337
0.235,0.050,0.326,-5.337
0.194,0.053,0.326,-5.337
0.195,0.054,0.326,-5.337
0.240,0.053,0.324,-5.337
0.267,0.053,0.323,-5.337
0.260,0.056,0.324,-5.337
0.108,0.059,0.321,-5.337
0.113,0.056,0.321,-5.337
0.163,0.056,0.323,-5.337
0.148,0.056,0.325,-5.337
0.130,0.056,0.328,-5.337
0.195,0.055,0.328,-5.337
0.286,0.051,0.324,-5.337
0.196,0.053,0.321,-5.337
0.096,0.058,0.321,-5.337
0.035,0.060,0.324,-5.337
0.069,0.061,0.328,-5.337
0.174,0.057,0.323,-5.337
0.165,0.058,0.318,-5.337
0.147,0.058,0.320,-5.337
0.118,0.062,0.324,-5.337
0.091,0.061,0.324,-5.337
0.166,0.060,0.324,-5.337
0.193,0.064,0.325,-5.337
0.060,0.068,0.325,-5.337
0.072,0.067,0.324,-5.337
0.177,0.058,0.323,-5.337
0.241,0.051,0.320,-5.337
0.234,0.053,0.321,-5.337
0.131,0.056,0.323,-5.337
0.144,0.054,0.326,-5.337
0.189,0.052,0.326,-5.337
0.180,0.054,0.325,-5.337
0.186,0.056,0.325,-5.337
0.242,0.056,0.322,-5.337
0.226,0.057,0.320,-5.337
0.211,0.057,0.317,-5.337
0.207,0.060,0.321,-5.337
0.161,0.059,0.323,-5.337
0.163,0.059,0.327,-5.337
0.214,0.055,0.327,-5.337
0.233,0.053,0.324,-5.337
0.229,0.054,0.320,-5.337
0.187,0.057,0.321,-5.337
0.149,0.056,0.323,-5.337
0.075,0.060,0.322,-5.337
0.090,0.056,0.322,-5.337
0.223,0.056,0.321,-5.337
0.169,0.057,0.322,-5.337
0.140,0.056,0.325,-5.337
0.226,0.056,0.324,-5.337
0.203,0.057,0.323,-5.337
0.206,0.056,0.323,-5.337
0.231,0.052,0.325,-5.337
0.224,0.055,0.323,-5.337
0.152,0.058,0.321,-5.337
0.132,0.056,0.319,-5.337
0.172,0.052,0.316,-5.337
0.131,0.054,0.319,-5.337
0.136,0.052,0.325,-5.337
0.160,0.052,0.331,-5.337
0.186,0.054,0.327,-5.337
0.195,0.055,0.319,-5.337
0.234,0.053,0.313,-5.337
0.246,0.049,0.313,-5.337
0.254,0.049,0.319,-5.337
0.223,0.051,0.324,-5.337
0.142,0.051,0.327,-5.337
0.068,0.054,0.329,-5.337
0.080,0.053,0.327,-5.337
0.199,0.053,0.327,-5.337
0.231,0.055,0.322,-5.337
0.244,0.052,0.316,-5.337
0.300,0.049,0.313,-5.337
0.302,0.051,0.316,-5.337
0.190,0.053,0.321,-5.337
0.146,0.055,0.323,-5.337
0.216,0.055,0.326,-5.337
0.246,0.053,0.321,-5.337
0.203,0.055,0.317,-5.337
0.160,0.055,0.316,-5.337
0.202,0.052,0.319,-5.337
0.208,0.053,0.322,-5.337
0.157,0.056,0.324,-5.337
0.112,0.058,0.324,-5.337
0.135,0.054,0.321,-5.337
0.219,0.051,0.322,-5.337
0.240,0.055,0.325,-5.337
0.182,0.056,0.327,-5.337
0.171,0.056,0.326,-5.337
0.226,0.051,0.324,-5.337
0.235,0.046,0.323,-5.337
0.278,0.042,0.319,-5.337
0.288,0.044,0.318,-5.337
0.189,0.048,0.322,-5.337
0.128,0.047,0.328,-5.337
0.166,0.042,0.328,-5.337
0.218,0.046,0.323,-5.337
0.202,0.050,0.315,-5.337
0.191,0.050,0.314,-5.337
0.245,0.044,0.321,-5.337
0.202,0.046,0.324,-5.337
0.182,0.047,0.321,-5.337
0.225,0.048,0.320,-5.337
0.241,0.049,0.326,-5.337
0.248,0.050,0.327,-5.337
0.247,0.052,0.327,-5.337
0.218,0.052,0.323,-5.337
0.191,0.050,0.320,-5.337
0.125,0.050,0.320,-5.337
0.145,0.051,0.321,-5.337
0.136,0.049,0.321,-5.337
0.121,0.050,0.320,-5.337
0.119,0.051,0.324,-5.337
0.178,0.046,0.327,-5.337
0.180,0.043,0.328,-5.337
0.167,0.045,0.327,-5.337
0.115,0.045,0.326,-5.337
0.163,0.044,0.325,-5.337
0.208,0.041,0.324,-5.337
0.213,0.042,0.321,-5.337
0.238,0.042,0.322,-5.337
0.279,0.041,0.324,-5.337
0.153,0.042,0.327,-5.337
0.073,0.046,0.325,-5.337
0.092,0.048,0.322,-5.337
0.062,0.043,0.318,-5.337
0.076,0.043,0.317,-5.337
0.134,0.041,0.316,-5.337
0.230,0.038,0.320,-5.337
0.300,0.039,0.324,-5.337
0.192,0.042,0.324,-5.337
0.097,0.041,0.323,-5.337
0.231,0.042,0.324,-5.337
0.331,0.045,0.327,-5.337
0.216,0.049,0.325,-5.337
0.156,0.045,0.322,-5.337
0.074,0.043,0.322,-5.337
0.175,0.041,0.322,-5.337
0.252,0.039,0.322,-5.337
0.300,0.039,0.323,-5.337
0.248,0.044,0.325,-5.337
0.198,0.043,0.327,-5.337
0.323,0.039,0.324,-5.337
0.409,0.041,0.322,-5.337
0.255,0.050,0.320,-5.337
0.129,0.046,0.319,-5.337
0.109,0.042,0.320,-5.337
0.119,0.042,0.325,-5.337
0.162,0.039,0.324,-5.337
0.241,0.040,0.322,-5.337
0.188,0.042,0.321,-5.337
0.115,0.042,0.326,-5.337
0.134,0.041,0.326,-5.337
0.144,0.044,0.325,-5.337
0.149,0.043,0.323,-5.337
0.128,0.042,0.321,-5.337
0.123,0.039,0.322,-5.337
0.139,0.038,0.323,-5.337
0.202,0.035,0.324,-5.337
0.260,0.036,0.328,-5.337
0.223,0.036,0.327,-5.337
0.234,0.037,0.326,-5.337
0.292,0.038,0.325,-5.337
0.289,0.038,0.327,-5.337
0.230,0.037,0.327,-5.337
0.221,0.038,0.326,-5.337
0.202,0.041,0.324,-5.337
0.142,0.040,0.324,-5.337
0.142,0.037,0.323,-5.337
0.223,0.036,0.320,-5.337
0.215,0.037,0.321,-5.337
0.185,0.041,0.320,-5.337
0.198,0.041,0.323,-5.337
0.246,0.036,0.318,-5.337
0.146,0.037,0.315,-5.337
0.109,0.038,0.316,-5.337
0.158,0.032,0.320,-5.337
0.208,0.033,0.327,-5.337
0.240,0.038,0.329,-5.337
0.258,0.036,0.327,-5.337
0.217,0.038,0.325,-5.337
0.165,0.038,0.323,-5.337
0.147,0.038,0.323,-5.337
0.162,0.038,0.323,-5.337
0.137,0.040,0.326,-5.337
0.065,0.042,0.328,-5.337
0.099,0.040,0.326,-5.337
0.146,0.036,0.324,-5.337
0.137,0.040,0.323,-5.337
0.203,0.039,0.322,-5.337
0.217,0.036,0.320,-5.337
0.180,0.038,0.321,-5.337
0.177,0.035,0.324,-5.337
0.177,0.038,0.326,-5.337
0.224,0.038,0.325,-5.337
0.304,0.036,0.325,-5.337
0.369,0.037,0.325,-5.337
0.289,0.040,0.323,-5.337
0.206,0.040,0.321,-5.337
0.236,0.040,0.323,-5.337
0.235,0.039,0.322,-5.337
0.146,0.039,0.322,-5.337
0.108,0.038,0.325,-5.337
0.205,0.038,0.325,-5.337
0.252,0.036,0.322,-5.337
0.227,0.034,0.319,-5.337
0.202,0.036,0.320,-5.337
0.185,0.036,0.323,-5.337
0.218,0.040,0.324,-5.337
0.257,0.036,0.320,-5.337
0.209,0.032,0.319,-5.337
0.101,0.036,0.318,-5.337
0.096,0.041,0.319,-5.337
0.199,0.038,0.322,-5.337
0.176,0.037,0.326,-5.337
0.162,0.037,0.329,-5.337
0.190,0.039,0.329,-5.337
0.193,0.037,0.324,-5.337
0.208,0.035,0.320,-5.337
0.211,0.037,0.316,-5.337
0.230,0.040,0.315,-5.337
0.182,0.042,0.318,-5.337
0.203,0.044,0.323,-5.337
0.233,0.044,0.323,-5.337
0.174,0.047,0.323,-5.337
0.180,0.045,0.327,-5.337
0.336,0.041,0.331,-5.337
0.330,0.039,0.330,-5.337
0.270,0.038,0.326,-5.337
0.264,0.040,0.322,-5.337
0.253,0.041,0.322,-5.337
0.143,0.037,0.321,-5.337
0.105,0.037,0.317,-5.337
0.142,0.039,0.316,-5.337
0.224,0.040,0.321,-5.337
0.303,0.037,0.324,-5.337
0.276,0.040,0.324,-5.337
0.246,0.040,0.325,-5.337
0.269,0.040,0.320,-5.337
0.245,0.042,0.317,-5.337
0.169,0.040,0.319,-5.337
0.193,0.035,0.328,-5.337
0.204,0.037,0.330,-5.337
0.243,0.040,0.328,-5.337
0.227,0.042,0.322,-5.337
0.177,0.040,0.321,-5.337
0.123,0.034,0.325,-5.337
0.115,0.034,0.326,-5.337
0.112,0.035,0.324,-5.337
0.167,0.035,0.322,-5.337
0.194,0.036,0.323,-5.337
0.198,0.037,0.322,-5.337
0.210,0.036,0.322,-5.337
0.205,0.037,0.326,-5.337
0.148,0.036,0.326,-5.337
0.106,0.037,0.323,-5.337
0.202,0.037,0.322,-5.337
0.214,0.039,0.321,-5.337
0.147,0.037,0.323,-5.337
0.194,0.034,0.324,-5.337
0.221,0.033,0.326,-5.337
0.231,0.034,0.326,-5.337
0.216,0.035,0.326,-5.337
0.239,0.035,0.328,-5.337
0.249,0.035,0.328,-5.337
0.257,0.037,0.324,-5.337
0.283,0.038,0.321,-5.337
0.234,0.037,0.319,-5.337
0.183,0.037,0.319,-5.337
0.200,0.039,0.320,-5.337
0.212,0.037,0.323,-5.337
0.189,0.034,0.326,-5.337
0.150,0.035,0.330,-5.337
0.215,0.034,0.327,-5.337
0.236,0.034,0.325,-5.337
0.158,0.036,0.324,-5.337
0.132,0.038,0.323,-5.337
0.221,0.036,0.322,-5.337
0.275,0.036,0.323,-5.337
0.223,0.038,0.325,-5.337
0.146,0.038,0.326,-5.337
0.168,0.035,0.326,-5.337
0.209,0.038,0.322,-5.337
0.152,0.038,0.322,-5.337
0.143,0.038,0.323,-5.337
0.185,0.035,0.323,-5.337
0.257,0.034,0.324,-5.337
0.217,0.037,0.324,-5.337
0.167,0.039,0.321,-5.337
0.162,0.042,0.320,-5.337
0.139,0.041,0.324,-5.337
0.210,0.036,0.326,-5.337
0.246,0.032,0.328,-5.337
0.159,0.035,0.330,-5.337
0.155,0.034,0.329,-5.337
0.196,0.033,0.325,-5.337
0.196,0.034,0.322,-5.337
0.167,0.036,0.324,-5.337
0.183,0.036,0.323,-5.337
0.214,0.035,0.320,-5.337
0.164,0.037,0.320,-5.337
0.141,0.040,0.327,-5.337
0.161,0.040,0.329,-5.337
0.231,0.036,0.327,-5.337
0.229,0.037,0.325,-5.337
0.239,0.039,0.329,-5.337
0.284,0.039,0.329,-5.337
0.266,0.036,0.324,-5.337
0.271,0.033,0.323,-5.337
0.177,0.034,0.323,-5.337
0.138,0.038,0.323,-5.337
0.224,0.034,0.319,-5.337
0.309,0.033,0.320,-5.337
0.316,0.030,0.321,-5.337
0.274,0.033,0.320,-5.337
0.234,0.033,0.318,-5.337
0.249,0.033,0.323,-5.337
0.289,0.033,0.328,-5.337
0.258,0.034,0.327,-5.337
0.211,0.036,0.321,-5.337
0.145,0.038,0.319,-5.337
0.125,0.037,0.321,-5.337
0.174,0.038,0.321,-5.337
0.228,0.035,0.318,-5.337
0.268,0.034,0.318,-5.337
0.222,0.033,0.321,-5.337
0.192,0.034,0.325,-5.337
0.296,0.031,0.328,-5.337
0.315,0.035,0.325,-5.337
0.190,0.037,0.322,-5.337
0.174,0.040,0.320,-5.337
0.114,0.045,0.322,-5.337
0.130,0.045,0.323,-5.337
0.108,0.043,0.322,-5.337
0.141,0.043,0.321,-5.337
0.182,0.044,0.323,-5.337
0.202,0.044,0.328,-5.337
0.166,0.045,0.328,-5.337
0.158,0.042,0.322,-5.337
0.259,0.037,0.318,-5.337
0.314,0.035,0.318,-5.337
0.285,0.037,0.321,-5.337
0.225,0.036,0.322,-5.337
0.196,0.041,0.319,-5.337
0.206,0.041,0.318,-5.337
0.242,0.038,0.319,-5.337
0.271,0.039,0.320,-5.337
0.291,0.041,0.319,-5.337
0.232,0.044,0.321,-5.337
0.154,0.046,0.323,-5.337
0.178,0.046,0.322,-5.337
0.121,0.045,0.324,-5.337
0.164,0.040,0.328,-5.337
0.258,0.038,0.326,-5.337
0.250,0.042,0.324,-5.337
0.214,0.042,0.321,-5.337
0.326,0.040,0.322,-5.337
0.373,0.041,0.323,-5.337
0.270,0.043,0.326,-5.337
0.205,0.042,0.326,-5.337
0.185,0.046,0.322,-5.337
0.142,0.045,0.319,-5.337
0.106,0.045,0.322,-5.337
0.115,0.046,0.325,-5.337
0.136,0.046,0.320,-5.337
0.158,0.046,0.316,-5.337
0.130,0.047,0.322,-5.337
0.132,0.047,0.326,-5.337
0.099,0.048,0.324,-5.337
0.163,0.044,0.321,-5.337
0.217,0.042,0.319,-5.337
0.189,0.041,0.320,-5.337
0.216,0.041,0.322,-5.337
0.265,0.042,0.324,-5.337
0.225,0.044,0.323,-5.337
0.188,0.043,0.323,-5.337
0.154,0.045,0.320,-5.337
0.158,0.049,0.320,-5.337
0.234,0.047,0.322,-5.337
0.192,0.052,0.325,-5.337
0.178,0.051,0.323,-5.337
0.200,0.051,0.325,-5.337
0.187,0.052,0.325,-5.337
0.175,0.051,0.326,-5.337
0.202,0.050,0.326,-5.337
0.182,0.054,0.326,-5.337
0.118,0.052,0.326,-5.337
0.125,0.054,0.323,-5.337
0.123,0.054,0.320,-5.337
0.199,0.051,0.319,-5.337
0.223,0.050,0.320,-5.337
0.188,0.051,0.322,-5.337
0.192,0.054,0.325,-5.337
0.227,0.053,0.327,-5.337
0.244,0.050,0.325,-5.337
0.156,0.054,0.319,-5.337
0.140,0.052,0.321,-5.337
0.228,0.050,0.322,-5.337
0.272,0.048,0.321,-5.337
0.184,0.053,0.317,-5.337
0.151,0.054,0.319,-5.337
0.091,0.053,0.324,-5.337
0.031,0.052,0.327,-5.337
0.088,0.050,0.325,-5.337
0.145,0.046,0.323,-5.337
0.191,0.044,0.323,-5.337
0.234,0.046,0.324,-5.337
0.197,0.051,0.326,-5.337
0.187,0.052,0.327,-5.337
0.276,0.047,0.325,-5.337
0.200,0.047,0.324,-5.337
0.168,0.049,0.324,-5.337
0.212,0.050,0.324,-5.337
0.234,0.052,0.322,-5.337
0.188,0.051,0.316,-5.337
0.139,0.052,0.316,-5.337
0.140,0.056,0.320,-5.337
0.220,0.052,0.324,-5.337
0.247,0.050,0.323,-5.337
0.213,0.050,0.324,-5.337
0.180,0.050,0.325,-5.337
0.229,0.049,0.325,-5.337
0.246,0.052,0.323,-5.337
0.156,0.056,0.326,-5.337
0.167,0.055,0.326,-5.337
0.166,0.057,0.324,-5.337
0.140,0.058,0.323,-5.337
0.127,0.057,0.321,-5.337
0.144,0.054,0.322,-5.337
0.187,0.056,0.321,-5.337
0.181,0.054,0.320,-5.337
0.183,0.052,0.323,-5.337
0.181,0.051,0.324,-5.337
0.236,0.050,0.324,-5.337
0.232,0.051,0.323,-5.337
0.154,0.051,0.322,-5.337
0.178,0.052,0.323,-5.337
0.263,0.054,0.319,-5.337
0.223,0.057,0.317,-5.337
0.170,0.055,0.319,-5.337
0.175,0.057,0.319,-5.337
0.122,0.058,0.320,-5.337
0.119,0.055,0.323,-5.337
0.191,0.054,0.325,-5.337
0.207,0.056,0.325,-5.337
0.160,0.056,0.321,-5.337
0.135,0.055,0.323,-5.337
0.122,0.058,0.324,-5.337
0.133,0.060,0.326,-5.337
0.137,0.056,0.326,-5.337
0.184,0.058,0.326,-5.337
0.199,0.059,0.323,-5.337
0.166,0.061,0.324,-5.337
0.174,0.057,0.328,-5.337
0.162,0.058,0.327,-5.337
0.193,0.061,0.323,-5.337
0.242,0.061,0.323,-5.337
0.207,0.062,0.325,-5.337
0.142,0.061,0.324,-5.337
0.194,0.060,0.322,-5.337
0.211,0.061,0.324,-5.337
0.228,0.063,0.325,-5.337
0.173,0.064,0.326,-5.337
0.136,0.063,0.323,-5.337
0.160,0.063,0.322,-5.337
0.155,0.062,0.325,-5.337
0.123,0.066,0.326,-5.337
0.170,0.061,0.323,-5.337
0.204,0.057,0.318,-5.337
0.144,0.059,0.317,-5.337
0.093,0.060,0.318,-5.337
0.097,0.062,0.320,-5.337
0.175,0.055,0.323,-5.337
0.189,0.059,0.325,-5.337
0.094,0.063,0.322,-5.337
0.123,0.061,0.321,-5.337
0.143,0.057,0.321,-5.337
0.174,0.057,0.323,-5.337
0.185,0.060,0.323,-5.337
0.189,0.061,0.322,-5.337
0.223,0.059,0.320,-5.337
0.232,0.058,0.318,-5.337
0.196,0.058,0.319,-5.337
0.286,0.060,0.323,-5.337
0.351,0.056,0.324,-5.337
0.359,0.054,0.323,-5.337
0.294,0.057,0.323,-5.337
0.270,0.059,0.323,-5.337
0.254,0.059,0.322,-5.337
0.239,0.058,0.319,-5.337
0.248,0.059,0.322,-5.337
0.183,0.061,0.321,-5.337
0.195,0.064,0.325,-5.337
0.155,0.062,0.325,-5.337
0.136,0.061,0.323,-5.337
0.161,0.062,0.321,-5.337
0.220,0.061,0.320,-5.337
0.244,0.061,0.321,-5.337
0.247,0.065,0.321,-5.337
0.165,0.069,0.318,-5.337
0.135,0.069,0.315,-5.337
0.182,0.066,0.316,-5.337
0.185,0.066,0.320,-5.337
0.146,0.067,0.325,-5.337
0.178,0.071,0.323,-5.337
0.171,0.067,0.319,-5.337
0.174,0.063,0.323,-5.337
0.262,0.061,0.326,-5.337
0.286,0.058,0.325,-5.337
0.206,0.061,0.327,-5.337
0.162,0.061,0.327,-5.337
0.189,0.061,0.326,-5.337
0.161,0.062,0.321,-5.337
0.141,0.062,0.318,-5.337
0.177,0.062,0.317,-5.337
0.234,0.060,0.321,-5.337
0.228,0.055,0.322,-5.337
0.187,0.059,0.321,-5.337
0.196,0.059,0.323,-5.337
0.135,0.059,0.324,-5.337
0.178,0.058,0.324,-5.337
0.224,0.058,0.325,-5.337
0.190,0.058,0.325,-5.337
0.144,0.061,0.327,-5.337
0.158,0.061,0.324,-5.337
0.242,0.059,0.320,-5.337
0.293,0.058,0.316,-5.337
0.211,0.058,0.314,-5.337
0.170,0.059,0.318,-5.337
0.214,0.058,0.322,-5.337
0.249,0.057,0.324,-5.337
0.280,0.060,0.325,-5.337
0.184,0.061,0.326,-5.337
0.134,0.060,0.325,-5.337
0.124,0.060,0.324,-5.337
0.111,0.064,0.326,-5.337
0.123,0.062,0.331,-5.337
0.092,0.060,0.331,-5.337
0.155,0.059,0.325,-5.337
0.231,0.058,0.320,-5.337
0.213,0.059,0.318,-5.337
0.191,0.058,0.316,-5.337
0.113,0.063,0.320,-5.337
0.087,0.060,0.325,-5.337
0.154,0.059,0.328,-5.337
0.246,0.056,0.327,-5.337
0.272,0.055,0.327,-5.337
0.264,0.057,0.329,-5.337
0.282,0.061,0.327,-5.337
0.264,0.058,0.324,-5.337
0.200,0.058,0.319,-5.337
0.213,0.056,0.313,-5.337
0.255,0.055,0.313,-5.337
0.264,0.057,0.318,-5.337
0.228,0.055,0.324,-5.337
0.198,0.056,0.329,-5.337
0.237,0.056,0.331,-5.337
0.197,0.055,0.330,-5.337
0.182,0.054,0.329,-5.337
0.164,0.057,0.330,-5.337
0.116,0.055,0.328,-5.337
0.134,0.055,0.325,-5.337
0.212,0.051,0.323,-5.337
0.270,0.048,0.325,-5.337
0.255,0.052,0.325,-5.337
0.198,0.053,0.323,-5.337
0.217,0.049,0.324,-5.337
0.238,0.049,0.328,-5.337
0.217,0.050,0.329,-5.337
0.248,0.047,0.320,-5.337
0.230,0.041,0.319,-5.337
0.143,0.046,0.324,-5.337
0.167,0.048,0.326,-5.337
0.191,0.044,0.326,-5.337
0.121,0.048,0.325,-5.337
0.165,0.048,0.325,-5.337
0.255,0.046,0.324,-5.337
0.235,0.045,0.319,-5.337
0.198,0.043,0.319,-5.337
0.253,0.046,0.326,-5.337
0.270,0.048,0.332,-5.337
0.247,0.047,0.329,-5.337
0.206,0.052,0.325,-5.337
0.216,0.054,0.323,-5.337
0.181,0.053,0.325,-5.337
0.137,0.050,0.325,-5.337
0.137,0.046,0.321,-5.337
0.103,0.047,0.319,-5.337
0.113,0.050,0.319,-5.337
0.190,0.046,0.321,-5.337
0.205,0.050,0.321,-5.337
0.176,0.048,0.319,-5.337
0.171,0.051,0.321,-5.337
0.166,0.052,0.325,-5.337
0.179,0.050,0.326,-5.337
0.152,0.050,0.325,-5.337
0.173,0.048,0.328,-5.337
0.245,0.048,0.330,-5.337
0.192,0.049,0.327,-5.337
0.151,0.043,0.320,-5.337
0.223,0.039,0.318,-5.337
0.268,0.043,0.324,-5.337
0.244,0.051,0.324,-5.337
0.175,0.052,0.319,-5.337
0.170,0.047,0.311,-5.337
0.187,0.048,0.313,-5.337
0.136,0.052,0.317,-5.337
0.135,0.050,0.318,-5.337
0.126,0.045,0.321,-5.337
0.198,0.048,0.325,-5.337
0.260,0.047,0.324,-5.337
0.209,0.051,0.321,-5.337
0.208,0.048,0.320,-5.337
0.210,0.047,0.320,-5.337
0.186,0.048,0.319,-5.337
0.225,0.048,0.318,-5.337
0.361,0.042,0.321,-5.337
0.377,0.041,0.323,-5.337
0.282,0.044,0.323,-5.337
0.235,0.046,0.322,-5.337
0.238,0.042,0.325,-5.337
0.185,0.041,0.327,-5.337
0.109,0.043,0.327,-5.337
0.217,0.043,0.322,-5.337
0.243,0.047,0.323,-5.337
0.162,0.046,0.324,-5.337
0.170,0.046,0.324,-5.337
0.159,0.044,0.322,-5.337
0.162,0.048,0.324,-5.337
0.136,0.048,0.324,-5.337
0.078,0.052,0.323,-5.337
0.046,0.049,0.322,-5.337
0.151,0.043,0.322,-5.337
0.221,0.044,0.319,-5.337
0.274,0.049,0.319,-5.337
0.246,0.051,0.321,-5.337
0.178,0.047,0.324,-5.337
0.201,0.044,0.325,-5.337
0.185,0.050,0.326,-5.337
0.271,0.048,0.323,-5.337
0.342,0.047,0.321,-5.337
0.275,0.049,0.320,-5.337
0.201,0.046,0.318,-5.337
0.225,0.047,0.319,-5.337
0.286,0.044,0.322,-5.337
0.268,0.041,0.325,-5.337
0.193,0.042,0.326,-5.337
0.171,0.041,0.325,-5.337
0.157,0.045,0.323,-5.337
0.112,0.048,0.320,-5.337
0.124,0.046,0.319,-5.337
0.165,0.040,0.321,-5.337
0.210,0.040,0.320,-5.337
0.177,0.043,0.323,-5.337
0.272,0.041,0.323,-5.337
0.328,0.039,0.323,-5.337
0.286,0.040,0.326,-5.337
0.264,0.041,0.324,-5.337
0.210,0.041,0.324,-5.337
0.178,0.043,0.325,-5.337
0.186,0.043,0.323,-5.337
0.169,0.043,0.322,-5.337
0.190,0.040,0.322,-5.337
0.186,0.038,0.323,-5.337
0.212,0.042,0.322,-5.337
0.276,0.036,0.320,-5.337
0.273,0.037,0.321,-5.337
0.206,0.040,0.321,-5.337
0.131,0.040,0.319,-5.337
0.193,0.037,0.317,-5.337
0.281,0.039,0.323,-5.337
0.267,0.040,0.328,-5.337
0.243,0.041,0.328,-5.337
0.250,0.036,0.326,-5.337
0.227,0.037,0.328,-5.337
0.242,0.036,0.324,-5.337
0.288,0.035,0.322,-5.337
0.252,0.040,0.319,-5.337
0.203,0.040,0.318,-5.337
0.161,0.041,0.316,-5.337
0.194,0.038,0.316,-5.337
0.193,0.038,0.319,-5.337
0.209,0.039,0.322,-5.337
0.194,0.042,0.326,-5.337
0.160,0.043,0.327,-5.337
0.156,0.042,0.323,-5.337
0.183,0.042,0.323,-5.337
0.184,0.046,0.325,-5.337
0.164,0.046,0.324,-5.337
0.170,0.044,0.322,-5.337
0.197,0.039,0.321,-5.337
0.288,0.036,0.326,-5.337
0.252,0.041,0.326,-5.337
0.193,0.045,0.323,-5.337
0.187,0.043,0.318,-5.337
0.211,0.042,0.318,-5.337
0.229,0.037,0.317,-5.337
0.215,0.041,0.319,-5.337
0.202,0.043,0.319,-5.337
0.176,0.042,0.323,-5.337
0.159,0.039,0.327,-5.337
0.180,0.038,0.328,-5.337
0.185,0.041,0.330,-5.337
0.182,0.043,0.326,-5.337
0.218,0.039,0.323,-5.337
0.206,0.038,0.323,-5.337
0.099,0.041,0.323,-5.337
0.080,0.045,0.321,-5.337
0.154,0.043,0.318,-5.337
0.221,0.039,0.317,-5.337
0.195,0.038,0.320,-5.337
0.160,0.035,0.323,-5.337
0.221,0.033,0.326,-5.337
0.249,0.033,0.329,-5.337
0.161,0.038,0.329,-5.337
0.086,0.039,0.327,-5.337
0.121,0.037,0.326,-5.337
0.208,0.035,0.326,-5.337
0.211,0.033,0.327,-5.337
0.108,0.034,0.322,-5.337
0.101,0.032,0.321,-5.337
0.219,0.031,0.319,-5.337
0.223,0.037,0.319,-5.337
0.158,0.037,0.320,-5.337
0.236,0.033,0.324,-5.337
0.262,0.034,0.327,-5.337
0.234,0.032,0.326,-5.337
0.182,0.035,0.324,-5.337
0.189,0.038,0.324,-5.337
0.234,0.034,0.323,-5.337
0.275,0.033,0.318,-5.337
0.250,0.033,0.320,-5.337
0.185,0.034,0.323,-5.337
0.204,0.032,0.323,-5.337
0.243,0.033,0.323,-5.337
0.227,0.033,0.322,-5.337
0.199,0.035,0.321,-5.337
0.226,0.037,0.322,-5.337
0.258,0.039,0.322,-5.337
0.263,0.036,0.324,-5.337
0.246,0.036,0.323,-5.337
0.176,0.037,0.322,-5.337
0.120,0.035,0.319,-5.337
0.139,0.035,0.318,-5.337
0.214,0.031,0.320,-5.337
0.258,0.034,0.322,-5.337
0.242,0.035,0.322,-5.337
0.266,0.033,0.322,-5.337
0.292,0.037,0.327,-5.337
0.289,0.035,0.331,-5.337
0.270,0.034,0.328,-5.337
0.236,0.034,0.325,-5.337
0.217,0.030,0.323,-5.337
0.249,0.031,0.321,-5.337
0.282,0.034,0.318,-5.337
0.283,0.031,0.318,-5.337
0.177,0.029,0.319,-5.337
0.191,0.028,0.319,-5.337
0.238,0.028,0.318,-5.337
0.222,0.030,0.316,-5.337
0.215,0.033,0.319,-5.337
0.150,0.035,0.321,-5.337
0.155,0.034,0.324,-5.337
0.194,0.034,0.318,-5.337
0.178,0.031,0.315,-5.337
0.207,0.027,0.318,-5.337
0.279,0.026,0.325,-5.337
0.269,0.028,0.326,-5.337
0.326,0.029,0.323,-5.337
0.329,0.026,0.324,-5.337
0.261,0.028,0.326,-5.337
0.260,0.029,0.325,-5.337
0.256,0.030,0.320,-5.337
0.275,0.027,0.315,-5.337
0.290,0.031,0.316,-5.337
0.282,0.034,0.320,-5.337
0.271,0.035,0.320,-5.337
0.190,0.036,0.318,-5.337
0.101,0.038,0.318,-5.337
0.152,0.035,0.320,-5.337
0.168,0.034,0.323,-5.337
0.107,0.036,0.324,-5.337
0.168,0.034,0.320,-5.337
0.223,0.032,0.321,-5.337
0.169,0.035,0.324,-5.337
0.167,0.033,0.324,-5.337
0.203,0.030,0.322,-5.337
0.279,0.028,0.319,-5.337
0.283,0.032,0.319,-5.337
0.203,0.036,0.327,-5.337
0.142,0.034,0.331,-5.337
0.170,0.032,0.328,-5.337
0.200,0.032,0.324,-5.337
0.204,0.036,0.319,-5.337
0.186,0.036,0.316,-5.337
0.224,0.035,0.315,-5.337
0.256,0.036,0.317,-5.337
0.191,0.038,0.321,-5.337
0.140,0.038,0.321,-5.337
0.106,0.036,0.319,-5.337
0.102,0.037,0.319,-5.337
0.132,0.034,0.322,-5.337
0.199,0.033,0.319,-5.337
0.197,0.034,0.319,-5.337
0.129,0.034,0.322,-5.337
0.172,0.037,0.325,-5.337
0.170,0.040,0.327,-5.337
0.121,0.038,0.329,-5.337
0.123,0.037,0.331,-5.337
0.177,0.035,0.326,-5.337
0.228,0.034,0.324,-5.337
0.255,0.035,0.320,-5.337
0.195,0.035,0.318,-5.337
0.248,0.033,0.317,-5.337
0.273,0.032,0.322,-5.337
0.281,0.033,0.327,-5.337
0.185,0.035,0.324,-5.337
0.147,0.034,0.321,-5.337
0.171,0.034,0.319,-5.337
0.207,0.035,0.319,-5.337
0.240,0.034,0.318,-5.337
0.255,0.034,0.319,-5.337
0.240,0.037,0.325,-5.337
0.237,0.035,0.328,-5.337
0.250,0.035,0.328,-5.337
0.188,0.036,0.325,-5.337
0.162,0.038,0.323,-5.337
0.192,0.038,0.322,-5.337
0.164,0.039,0.320,-5.337
0.155,0.037,0.324,-5.337
0.245,0.037,0.325,-5.337
0.286,0.039,0.323,-5.337
0.203,0.039,0.320,-5.337
0.251,0.039,0.321,-5.337
0.246,0.043,0.323,-5.337
0.233,0.045,0.323,-5.337
0.239,0.042,0.322,-5.337
0.275,0.038,0.323,-5.337
0.286,0.038,0.325,-5.337
0.204,0.044,0.327,-5.337
0.159,0.044,0.325,-5.337
0.194,0.045,0.324,-5.337
0.206,0.043,0.322,-5.337
0.178,0.043,0.322,-5.337
0.125,0.042,0.322,-5.337
0.137,0.041,0.324,-5.337
0.216,0.040,0.326,-5.337
0.290,0.037,0.324,-5.337
0.336,0.037,0.323,-5.337
0.242,0.039,0.321,-5.337
0.186,0.037,0.318,-5.337
0.229,0.037,0.317,-5.337
0.221,0.035,0.321,-5.337
0.210,0.036,0.321,-5.337
0.218,0.038,0.323,-5.337
0.239,0.040,0.322,-5.337
0.239,0.042,0.321,-5.337
0.177,0.042,0.321,-5.337
0.179,0.045,0.323,-5.337
0.128,0.041,0.323,-5.337
0.144,0.042,0.327,-5.337
0.195,0.042,0.324,-5.337
0.198,0.046,0.317,-5.337
0.180,0.045,0.317,-5.337
0.174,0.044,0.323,-5.337
0.167,0.041,0.327,-5.337
0.168,0.042,0.327,-5.337
0.136,0.045,0.326,-5.337
0.192,0.044,0.324,-5.337
0.240,0.041,0.318,-5.337
0.197,0.042,0.318,-5.337
0.158,0.039,0.320,-5.337
0.194,0.040,0.321,-5.337
0.236,0.037,0.323,-5.337
0.212,0.037,0.323,-5.337
0.211,0.041,0.323,-5.337
0.259,0.042,0.320,-5.337
0.274,0.041,0.321,-5.337
0.207,0.045,0.319,-5.337
0.199,0.045,0.321,-5.337
0.215,0.045,0.324,-5.337
0.161,0.049,0.329,-5.337
0.165,0.049,0.326,-5.337
0.181,0.046,0.322,-5.337
0.172,0.042,0.319,-5.337
0.205,0.042,0.316,-5.337
0.221,0.045,0.319,-5.337
0.179,0.051,0.324,-5.337
0.184,0.051,0.323,-5.337
0.202,0.049,0.320,-5.337
0.238,0.050,0.317,-5.337
0.178,0.051,0.319,-5.337
0.126,0.051,0.322,-5.337
0.121,0.049,0.321,-5.337
0.228,0.045,0.320,-5.337
0.386,0.044,0.318,-5.337
0.306,0.047,0.320,-5.337
0.172,0.052,0.321,-5.337
0.139,0.052,0.323,-5.337
0.149,0.050,0.326,-5.337
0.059,0.052,0.328,-5.337
0.031,0.048,0.326,-5.337
0.146,0.047,0.322,-5.337
0.270,0.048,0.319,-5.337
0.288,0.048,0.316,-5.337
0.286,0.046,0.317,-5.337
0.256,0.047,0.317,-5.337
0.210,0.048,0.317,-5.337
0.257,0.045,0.320,-5.337
0.271,0.047,0.321,-5.337
0.205,0.044,0.325,-5.337
0.257,0.044,0.328,-5.337
0.317,0.045,0.325,-5.337
0.234,0.049,0.323,-5.337
0.159,0.051,0.322,-5.337
0.198,0.050,0.321,-5.337
0.325,0.054,0.323,-5.337
0.253,0.055,0.325,-5.337
0.181,0.054,0.324,-5.337
0.145,0.051,0.325,-5.337
0.229,0.044,0.323,-5.337
0.346,0.047,0.323,-5.337
0.287,0.051,0.321,-5.337
0.127,0.055,0.323,-5.337
0.067,0.059,0.320,-5.337
0.096,0.055,0.318,-5.337
0.054,0.054,0.320,-5.337
0.101,0.054,0.326,-5.337
0.139,0.052,0.332,-5.337
0.180,0.049,0.333,-5.337
0.194,0.050,0.326,-5.337
0.218,0.054,0.319,-5.337
0.180,0.051,0.315,-5.337
0.157,0.050,0.312,-5.337
0.198,0.045,0.317,-5.337
0.274,0.045,0.325,-5.337
0.224,0.049,0.326,-5.337
0.147,0.054,0.326,-5.337
0.155,0.050,0.322,-5.337
0.166,0.052,0.318,-5.337
0.208,0.050,0.318,-5.337
0.255,0.050,0.318,-5.337
0.212,0.051,0.322,-5.337
0.157,0.054,0.325,-5.337
0.156,0.054,0.326,-5.337
0.187,0.052,0.326,-5.337
0.197,0.051,0.323,-5.337
0.207,0.053,0.316,-5.337
0.251,0.055,0.315,-5.337
0.251,0.052,0.320,-5.337
0.232,0.050,0.324,-5.337
0.242,0.049,0.323,-5.337
0.312,0.051,0.322,-5.337
0.311,0.053,0.323,-5.337
0.162,0.058,0.325,-5.337
0.079,0.056,0.322,-5.337
0.128,0.055,0.321,-5.337
0.128,0.057,0.326,-5.337
0.092,0.060,0.325,-5.337
0.108,0.060,0.321,-5.337
0.163,0.056,0.318,-5.337
0.242,0.052,0.319,-5.337
0.277,0.054,0.320,-5.337
0.167,0.058,0.320,-5.337
0.042,0.061,0.318,-5.337
0.076,0.055,0.320,-5.337
0.104,0.056,0.318,-5.337
0.165,0.050,0.318,-5.337
0.252,0.047,0.321,-5.337
0.241,0.050,0.320,-5.337
0.203,0.054,0.319,-5.337
0.219,0.057,0.322,-5.337
0.246,0.058,0.325,-5.337
0.163,0.059,0.325,-5.337
0.161,0.056,0.322,-5.337
0.210,0.054,0.320,-5.337
0.216,0.050,0.319,-5.337
0.164,0.050,0.321,-5.337
0.170,0.050,0.326,-5.337
0.241,0.054,0.327,-5.337
0.217,0.054,0.327,-5.337
0.212,0.052,0.326,-5.337
0.249,0.053,0.323,-5.337
0.202,0.054,0.321,-5.337
0.155,0.058,0.318,-5.337
0.190,0.059,0.320,-5.337
0.143,0.058,0.326,-5.337
0.090,0.056,0.325,-5.337
0.164,0.056,0.324,-5.337
0.216,0.058,0.325,-5.337
0.229,0.058,0.327,-5.337
0.190,0.056,0.322,-5.337
0.205,0.058,0.319,-5.337
0.215,0.054,0.318,-5.337
0.137,0.057,0.319,-5.337
0.115,0.056,0.320,-5.337
0.132,0.057,0.321,-5.337
0.104,0.059,0.318,-5.337
0.145,0.059,0.318,-5.337
0.227,0.053,0.320,-5.337
0.293,0.051,0.321,-5.337
0.283,0.054,0.324,-5.337
0.259,0.056,0.327,-5.337
0.253,0.052,0.325,-5.337
0.189,0.050,0.323,-5.337
0.192,0.049,0.323,-5.337
0.245,0.055,0.324,-5.337
0.204,0.058,0.324,-5.337
0.223,0.058,0.323,-5.337
0.280,0.056,0.324,-5.337
0.288,0.055,0.324,-5.337
0.205,0.061,0.324,-5.337
0.199,0.060,0.324,-5.337
0.259,0.058,0.322,-5.337
0.336,0.054,0.320,-5.337
0.218,0.058,0.322,-5.337
0.105,0.059,0.323,-5.337
0.147,0.063,0.321,-5.337
0.135,0.064,0.317,-5.337
0.092,0.064,0.316,-5.337
0.088,0.059,0.319,-5.337
0.194,0.058,0.319,-5.337
0.224,0.060,0.318,-5.337
0.169,0.065,0.321,-5.337
0.129,0.065,0.323,-5.337
0.159,0.063,0.323,-5.337
0.141,0.065,0.321,-5.337
0.125,0.061,0.320,-5.337
0.146,0.062,0.321,-5.337
0.204,0.058,0.320,-5.337
0.278,0.057,0.323,-5.337
0.237,0.061,0.324,-5.337
0.176,0.067,0.326,-5.337
0.161,0.068,0.321,-5.337
0.168,0.065,0.318,-5.337
0.178,0.062,0.318,-5.337
0.195,0.061,0.319,-5.337
0.125,0.066,0.319,-5.337
0.126,0.062,0.318,-5.337
0.236,0.055,0.318,-5.337
0.300,0.058,0.317,-5.337
0.207,0.061,0.320,-5.337
0.110,0.062,0.323,-5.337
0.078,0.057,0.324,-5.337
0.155,0.056,0.324,-5.337
0.149,0.057,0.323,-5.337
0.134,0.057,0.322,-5.337
0.147,0.059,0.326,-5.337
0.124,0.057,0.327,-5.337
0.225,0.057,0.323,-5.337
0.236,0.055,0.319,-5.337
0.192,0.054,0.317,-5.337
0.208,0.051,0.314,-5.337
0.220,0.053,0.314,-5.337
0.149,0.057,0.317,-5.337
0.174,0.055,0.321,-5.337
0.233,0.053,0.325,-5.337
0.319,0.052,0.328,-5.337
0.327,0.050,0.323,-5.337
0.258,0.054,0.321,-5.337
0.214,0.056,0.321,-5.337
0.191,0.056,0.324,-5.337
0.151,0.051,0.325,-5.337
0.161,0.053,0.325,-5.337
0.164,0.057,0.323,-5.337
0.112,0.056,0.323,-5.337
0.135,0.058,0.325,-5.337
0.187,0.058,0.326,-5.337
0.179,0.056,0.324,-5.337
0.152,0.056,0.321,-5.337
0.119,0.053,0.319,-5.337
0.150,0.055,0.322,-5.337
0.194,0.053,0.326,-5.337
0.261,0.050,0.328,-5.337
0.308,0.051,0.328,-5.337
0.239,0.054,0.325,-5.337
0.201,0.054,0.321,-5.337
0.199,0.051,0.320,-5.337
0.183,0.052,0.320,-5.337
0.099,0.050,0.320,-5.337
0.105,0.051,0.319,-5.337
0.231,0.048,0.318,-5.337
0.294,0.046,0.324,-5.337
0.246,0.047,0.326,-5.337
0.212,0.048,0.323,-5.337
0.185,0.049,0.318,-5.337
0.173,0.049,0.317,-5.337
0.180,0.044,0.322,-5.337
0.151,0.047,0.323,-5.337
0.145,0.045,0.324,-5.337
0.215,0.045,0.324,-5.337
0.202,0.044,0.327,-5.337
0.216,0.045,0.329,-5.337
0.176,0.046,0.326,-5.337
0.109,0.046,0.325,-5.337
0.116,0.050,0.324,-5.337
0.149,0.050,0.324,-5.337
0.185,0.046,0.325,-5.337
0.237,0.044,0.325,-5.337
0.225,0.045,0.326,-5.337
0.191,0.045,0.325,-5.337
0.220,0.045,0.324,-5.337
0.241,0.044,0.321,-5.337
0.280,0.045,0.322,-5.337
0.222,0.049,0.322,-5.337
0.187,0.045,0.321,-5.337
0.216,0.046,0.322,-5.337
0.176,0.050,0.323,-5.337
0.157,0.050,0.323,-5.337
0.173,0.049,0.321,-5.337
0.206,0.045,0.320,-5.337
0.233,0.048,0.321,-5.337
0.205,0.047,0.323,-5.337
0.221,0.044,0.325,-5.337
0.263,0.042,0.326,-5.337
0.239,0.046,0.330,-5.337
0.149,0.045,0.329,-5.337
0.109,0.043,0.327,-5.337
0.215,0.041,0.326,-5.337
0.284,0.038,0.323,-5.337
0.261,0.038,0.324,-5.337
0.231,0.035,0.323,-5.337
0.220,0.036,0.324,-5.337
0.218,0.038,0.323,-5.337
0.227,0.037,0.322,-5.337
0.255,0.039,0.323,-5.337
0.196,0.043,0.324,-5.337
0.165,0.044,0.322,-5.337
0.176,0.041,0.322,-5.337
0.179,0.037,0.323,-5.337
0.128,0.040,0.322,-5.337
0.141,0.038,0.317,-5.337
0.167,0.040,0.316,-5.337
0.179,0.042,0.322,-5.337
0.188,0.039,0.325,-5.337
0.176,0.035,0.322,-5.337
0.207,0.034,0.322,-5.337
0.216,0.039,0.324,-5.337
0.169,0.043,0.326,-5.337
0.140,0.039,0.325,-5.337
0.165,0.038,0.322,-5.337
0.195,0.040,0.318,-5.337
0.197,0.039,0.317,-5.337
0.161,0.039,0.317,-5.337
0.179,0.042,0.320,-5.337
0.253,0.040,0.323,-5.337
0.274,0.040,0.323,-5.337
0.243,0.039,0.321,-5.337
0.240,0.035,0.320,-5.337
0.287,0.035,0.324,-5.337
0.284,0.036,0.325,-5.337
0.232,0.038,0.324,-5.337
0.218,0.036,0.323,-5.337
0.193,0.037,0.325,-5.337
0.091,0.037,0.324,-5.337
0.058,0.035,0.323,-5.337
0.201,0.030,0.326,-5.337
0.280,0.033,0.327,-5.337
0.224,0.039,0.320,-5.337
0.191,0.042,0.318,-5.337
0.201,0.040,0.320,-5.337
0.192,0.041,0.324,-5.337
0.131,0.041,0.323,-5.337
0.147,0.041,0.321,-5.337
0.183,0.042,0.320,-5.337
0.225,0.037,0.322,-5.337
0.327,0.033,0.322,-5.337
0.257,0.037,0.319,-5.337
0.122,0.040,0.321,-5.337
0.166,0.035,0.323,-5.337
0.250,0.033,0.326,-5.337
0.203,0.032,0.325,-5.337
0.182,0.036,0.324,-5.337
0.176,0.039,0.321,-5.337
0.163,0.040,0.320,-5.337
0.128,0.038,0.317,-5.337
0.145,0.037,0.322,-5.337
0.201,0.036,0.326,-5.337
0.161,0.040,0.325,-5.337
0.091,0.040,0.324,-5.337
0.075,0.038,0.324,-5.337
0.151,0.038,0.323,-5.337
0.212,0.038,0.320,-5.337
0.260,0.036,0.318,-5.337
0.290,0.037,0.319,-5.337
0.274,0.041,0.324,-5.337
0.238,0.040,0.328,-5.337
0.240,0.039,0.329,-5.337
0.259,0.036,0.325,-5.337
0.174,0.039,0.320,-5.337
0.172,0.041,0.318,-5.337
0.238,0.035,0.318,-5.337
0.197,0.034,0.318,-5.337
0.208,0.034,0.320,-5.337
0.216,0.037,0.321,-5.337
0.201,0.039,0.324,-5.337
0.184,0.036,0.322,-5.337
0.120,0.038,0.321,-5.337
0.119,0.038,0.320,-5.337
0.168,0.034,0.324,-5.337
0.238,0.036,0.326,-5.337
0.192,0.042,0.327,-5.337
0.181,0.042,0.329,-5.337
0.219,0.042,0.327,-5.337
0.220,0.038,0.325,-5.337
0.128,0.043,0.326,-5.337
0.075,0.047,0.326,-5.337
0.090,0.045,0.325,-5.337
0.224,0.042,0.323,-5.337
0.267,0.043,0.320,-5.337
0.172,0.050,0.319,-5.337
0.150,0.050,0.320,-5.337
0.160,0.047,0.320,-5.337
0.234,0.044,0.318,-5.337
0.342,0.041,0.322,-5.337
0.365,0.039,0.327,-5.337
0.265,0.039,0.324,-5.337
0.186,0.040,0.320,-5.337
0.132,0.041,0.319,-5.337
0.181,0.040,0.322,-5.337
0.263,0.038,0.326,-5.337
0.278,0.037,0.326,-5.337
0.285,0.039,0.327,-5.337
0.275,0.043,0.324,-5.337
0.162,0.048,0.321,-5.337
0.107,0.047,0.317,-5.337
0.107,0.052,0.319,-5.337
0.098,0.051,0.322,-5.337
0.140,0.046,0.323,-5.337
0.213,0.043,0.320,-5.337
0.240,0.043,0.319,-5.337
0.191,0.044,0.323,-5.337
0.188,0.042,0.323,-5.337
0.157,0.040,0.321,-5.337
0.159,0.038,0.321,-5.337
0.204,0.040,0.323,-5.337
0.216,0.039,0.323,-5.337
0.223,0.038,0.324,-5.337
0.287,0.038,0.324,-5.337
0.303,0.038,0.323,-5.337
0.227,0.039,0.323,-5.337
0.168,0.041,0.323,-5.337
0.149,0.041,0.323,-5.337
0.132,0.041,0.323,-5.337
0.178,0.038,0.320,-5.337
0.302,0.033,0.320,-5.337
0.321,0.036,0.320,-5.337
0.242,0.041,0.325,-5.337
0.185,0.042,0.325,-5.337
0.165,0.042,0.322,-5.337
0.170,0.040,0.319,-5.337
0.177,0.040,0.319,-5.337
0.137,0.041,0.325,-5.337
0.191,0.043,0.328,-5.337
0.249,0.043,0.327,-5.337
0.218,0.043,0.328,-5.337
0.184,0.039,0.325,-5.337
0.172,0.041,0.319,-5.337
0.149,0.043,0.321,-5.337
0.142,0.043,0.324,-5.337
0.257,0.040,0.324,-5.337
0.293,0.041,0.321,-5.337
0.161,0.047,0.321,-5.337
0.176,0.043,0.318,-5.337
0.279,0.044,0.317,-5.337
0.232,0.045,0.318,-5.337
0.159,0.043,0.321,-5.337
0.160,0.043,0.322,-5.337
0.194,0.044,0.324,-5.337
0.129,0.042,0.323,-5.337
0.158,0.039,0.320,-5.337
0.269,0.039,0.320,-5.337
0.283,0.043,0.326,-5.337
0.189,0.043,0.330,-5.337
0.168,0.040,0.328,-5.337
0.241,0.037,0.323,-5.337
0.202,0.039,0.324,-5.337
0.124,0.041,0.327,-5.337
0.113,0.043,0.328,-5.337
0.147,0.045,0.330,-5.337
0.179,0.047,0.326,-5.337
0.143,0.048,0.325,-5.337
0.145,0.044,0.321,-5.337
0.213,0.042,0.319,-5.337
0.268,0.041,0.319,-5.337
0.254,0.042,0.323,-5.337
0.196,0.041,0.323,-5.337
0.188,0.035,0.320,-5.337
0.255,0.037,0.316,-5.337
0.218,0.040,0.316,-5.337
0.198,0.038,0.321,-5.337
0.218,0.038,0.325,-5.337
0.219,0.035,0.324,-5.337
0.158,0.043,0.323,-5.337
0.114,0.043,0.325,-5.337
0.116,0.039,0.326,-5.337
0.148,0.037,0.322,-5.337
0.219,0.039,0.318,-5.337
0.188,0.045,0.318,-5.337
0.174,0.039,0.321,-5.337
0.208,0.035,0.319,-5.337
0.238,0.036,0.316,-5.337
0.244,0.037,0.319,-5.337
0.204,0.040,0.322,-5.337
0.204,0.038,0.324,-5.337
0.186,0.040,0.320,-5.337
0.185,0.037,0.319,-5.337
0.205,0.039,0.321,-5.337
0.207,0.041,0.323,-5.337
0.192,0.042,0.321,-5.337
0.157,0.043,0.320,-5.337
0.220,0.039,0.319,-5.337
0.343,0.036,0.320,-5.337
0.341,0.037,0.323,-5.337
0.330,0.040,0.322,-5.337
0.318,0.040,0.319,-5.337
0.298,0.040,0.317,-5.337
0.277,0.039,0.317,-5.337
0.299,0.037,0.316,-5.337
0.246,0.043,0.320,-5.337
0.083,0.048,0.324,-5.337
0.046,0.044,0.326,-5.337
0.127,0.047,0.324,-5.337
0.149,0.046,0.320,-5.337
0.151,0.046,0.319,-5.337
0.200,0.045,0.318,-5.337
0.291,0.040,0.319,-5.337
0.314,0.042,0.322,-5.337
0.239,0.045,0.321,-5.337
0.117,0.048,0.323,-5.337
0.089,0.045,0.322,-5.337
0.203,0.044,0.322,-5.337
0.264,0.043,0.321,-5.337
0.266,0.042,0.320,-5.337
0.280,0.041,0.318,-5.337
0.282,0.042,0.319,-5.337
0.229,0.048,0.320,-5.337
0.212,0.046,0.322,-5.337
0.187,0.043,0.324,-5.337
0.203,0.041,0.321,-5.337
0.211,0.040,0.318,-5.337
0.171,0.042,0.316,-5.337
0.173,0.042,0.318,-5.337
0.211,0.043,0.324,-5.337
0.185,0.043,0.327,-5.337
0.110,0.044,0.326,-5.337
0.114,0.044,0.322,-5.337
0.176,0.043,0.320,-5.337
0.228,0.044,0.319,-5.337
0.239,0.043,0.320,-5.337
0.191,0.044,0.321,-5.337
0.207,0.042,0.321,-5.337
0.208,0.039,0.322,-5.337
0.127,0.042,0.324,-5.337
0.169,0.037,0.322,-5.337
0.176,0.039,0.317,-5.337
0.179,0.040,0.318,-5.337
0.181,0.041,0.321,-5.337
0.177,0.041,0.324,-5.337
0.189,0.039,0.324,-5.337
0.235,0.041,0.325,-5.337
0.270,0.037,0.326,-5.337
0.190,0.039,0.324,-5.337
0.073,0.043,0.320,-5.337
0.019,0.047,0.320,-5.337
0.117,0.045,0.323,-5.337
0.190,0.043,0.322,-5.337
0.147,0.043,0.320,-5.337
0.138,0.046,0.326,-5.337
0.191,0.043,0.332,-5.337
0.271,0.040,0.330,-5.337
0.276,0.041,0.324,-5.337
0.274,0.044,0.323,-5.337
0.282,0.043,0.324,-5.337
0.276,0.046,0.324,-5.337
0.176,0.044,0.323,-5.337
0.099,0.045,0.320,-5.337
0.192,0.047,0.324,-5.337
0.242,0.047,0.327,-5.337
0.210,0.044,0.327,-5.337
0.205,0.043,0.323,-5.337
0.192,0.049,0.323,-5.337
0.203,0.046,0.323,-5.337
0.152,0.049,0.323,-5.337
0.145,0.045,0.322,-5.337
0.121,0.047,0.320,-5.337
0.167,0.044,0.321,-5.337
0.195,0.043,0.323,-5.337
0.230,0.042,0.319,-5.337
0.257,0.045,0.318,-5.337
0.242,0.046,0.320,-5.337
0.248,0.044,0.324,-5.337
0.231,0.042,0.322,-5.337
0.146,0.044,0.315,-5.337
0.093,0.048,0.316,-5.337
0.170,0.044,0.318,-5.337
0.235,0.046,0.324,-5.337
0.155,0.050,0.322,-5.337
0.097,0.048,0.320,-5.337
0.069,0.049,0.325,-5.337
0.098,0.048,0.328,-5.337
0.166,0.048,0.323,-5.337
0.250,0.051,0.320,-5.337
0.217,0.049,0.319,-5.337
0.218,0.048,0.321,-5.337
0.216,0.046,0.322,-5.337
0.278,0.045,0.322,-5.337
0.336,0.044,0.324,-5.337
0.289,0.046,0.324,-5.337
0.231,0.048,0.318,-5.337
0.156,0.051,0.319,-5.337
0.158,0.047,0.320,-5.337
0.180,0.049,0.317,-5.337
0.183,0.046,0.313,-5.337
0.177,0.048,0.313,-5.337
0.193,0.048,0.319,-5.337
0.296,0.047,0.324,-5.337
0.194,0.050,0.324,-5.337
0.153,0.050,0.323,-5.337
0.263,0.047,0.322,-5.337
0.274,0.051,0.322,-5.337
0.239,0.053,0.324,-5.337
0.238,0.055,0.319,-5.337
0.286,0.050,0.316,-5.337
0.294,0.048,0.311,-5.337
0.284,0.048,0.313,-5.337
0.261,0.047,0.320,-5.337
0.221,0.052,0.326,-5.337
0.237,0.048,0.327,-5.337
0.230,0.048,0.323,-5.337
0.179,0.049,0.319,-5.337
0.157,0.050,0.321,-5.337
0.131,0.050,0.321,-5.337
0.202,0.047,0.320,-5.337
0.179,0.051,0.321,-5.337
0.161,0.051,0.322,-5.337
0.220,0.047,0.322,-5.337
0.222,0.048,0.318,-5.337
0.169,0.051,0.317,-5.337
0.133,0.051,0.322,-5.337
0.206,0.049,0.327,-5.337
0.274,0.051,0.324,-5.337
0.231,0.051,0.321,-5.337
0.114,0.053,0.319,-5.337
0.059,0.054,0.323,-5.337
0.112,0.051,0.323,-5.337
0.154,0.047,0.322,-5.337
0.188,0.045,0.320,-5.337
0.172,0.047,0.317,-5.337
0.193,0.050,0.318,-5.337
0.133,0.052,0.318,-5.337
0.087,0.051,0.321,-5.337
0.163,0.050,0.323,-5.337
0.139,0.052,0.325,-5.337
0.085,0.058,0.322,-5.337
0.145,0.058,0.319,-5.337
0.157,0.060,0.319,-5.337
0.153,0.057,0.320,-5.337
0.210,0.060,0.323,-5.337
0.259,0.061,0.323,-5.337
0.198,0.059,0.318,-5.337
0.165,0.057,0.315,-5.337
0.219,0.055,0.316,-5.337
0.228,0.055,0.319,-5.337
0.080,0.059,0.319,-5.337
-0.019,0.063,0.319,-5.337
0.026,0.061,0.321,-5.337
0.100,0.060,0.322,-5.337
0.197,0.059,0.324,-5.337
0.278,0.056,0.327,-5.337
0.216,0.059,0.325,-5.337
0.188,0.058,0.321,-5.337
0.239,0.052,0.319,-5.337
0.220,0.054,0.317,-5.337
0.203,0.054,0.316,-5.337
0.218,0.054,0.320,-5.337
0.255,0.051,0.325,-5.337
0.172,0.058,0.327,-5.337
0.147,0.056,0.324,-5.337
0.149,0.055,0.322,-5.337
0.126,0.058,0.319,-5.337
0.118,0.061,0.319,-5.337
0.156,0.056,0.321,-5.337
0.129,0.058,0.321,-5.337
0.082,0.059,0.317,-5.337
0.177,0.055,0.316,-5.337
0.172,0.057,0.318,-5.337
0.145,0.058,0.320,-5.337
0.182,0.056,0.325,-5.337
0.175,0.056,0.326,-5.337
0.238,0.053,0.323,-5.337
0.314,0.051,0.318,-5.337
0.258,0.054,0.317,-5.337
0.176,0.052,0.317,-5.337
0.179,0.052,0.321,-5.337
0.117,0.054,0.324,-5.337
0.078,0.058,0.324,-5.337
0.162,0.055,0.326,-5.337
0.256,0.053,0.325,-5.337
0.300,0.053,0.322,-5.337
0.309,0.055,0.319,-5.337
0.219,0.059,0.320,-5.337
0.132,0.057,0.324,-5.337
0.145,0.054,0.323,-5.337
0.190,0.056,0.319,-5.337
0.201,0.057,0.318,-5.337
0.156,0.057,0.320,-5.337
0.148,0.054,0.322,-5.337
0.216,0.052,0.324,-5.337
0.213,0.053,0.322,-5.337
0.181,0.056,0.317,-5.337
0.184,0.056,0.319,-5.337
0.195,0.054,0.324,-5.337
0.212,0.054,0.323,-5.337
0.229,0.056,0.316,-5.337
0.203,0.062,0.314,-5.337
0.120,0.063,0.317,-5.337
0.092,0.060,0.320,-5.337
0.128,0.057,0.317,-5.337
0.276,0.057,0.316,-5.337
0.265,0.054,0.320,-5.337
0.192,0.056,0.321,-5.337
0.221,0.055,0.322,-5.337
0.263,0.052,0.324,-5.337
0.243,0.053,0.321,-5.337
0.221,0.060,0.321,-5.337
0.176,0.062,0.324,-5.337
0.205,0.059,0.324,-5.337
0.183,0.061,0.319,-5.337
0.140,0.061,0.317,-5.337
0.201,0.060,0.321,-5.337
0.249,0.057,0.321,-5.337
0.213,0.055,0.321,-5.337
0.143,0.056,0.322,-5.337
0.122,0.058,0.325,-5.337
0.140,0.057,0.320,-5.337
0.204,0.055,0.316,-5.337
0.264,0.057,0.316,-5.337
0.295,0.057,0.322,-5.337
0.231,0.059,0.323,-5.337
0.206,0.062,0.323,-5.337
0.240,0.061,0.323,-5.337
0.218,0.062,0.324,-5.337
0.142,0.060,0.319,-5.337
0.086,0.061,0.317,-5.337
0.134,0.061,0.317,-5.337
0.154,0.062,0.323,-5.337
0.189,0.061,0.327,-5.337
0.179,0.063,0.327,-5.337
0.165,0.061,0.327,-5.337
0.105,0.060,0.324,-5.337
0.084,0.059,0.327,-5.337
0.126,0.057,0.325,-5.337
0.127,0.059,0.322,-5.337
0.100,0.057,0.318,-5.337
0.124,0.060,0.321,-5.337
0.093,0.058,0.321,-5.337
0.054,0.059,0.322,-5.337
0.083,0.057,0.320,-5.337
0.169,0.055,0.317,-5.337
0.269,0.055,0.317,-5.337
0.255,0.057,0.318,-5.337
0.212,0.054,0.322,-5.337
0.252,0.054,0.326,-5.337
0.327,0.052,0.322,-5.337
0.259,0.055,0.319,-5.337
0.117,0.055,0.318,-5.337
0.165,0.055,0.316,-5.337
0.244,0.056,0.319,-5.337
0.299,0.055,0.321,-5.337
0.274,0.054,0.323,-5.337
0.233,0.059,0.324,-5.337
0.145,0.058,0.322,-5.337
0.122,0.056,0.322,-5.337
0.142,0.053,0.321,-5.337
0.114,0.057,0.318,-5.337
0.118,0.052,0.316,-5.337
0.133,0.050,0.317,-5.337
0.217,0.049,0.320,-5.337
0.223,0.049,0.319,-5.337
0.176,0.046,0.316,-5.337
0.193,0.045,0.312,-5.337
0.212,0.050,0.315,-5.337
0.277,0.050,0.319,-5.337
0.271,0.054,0.320,-5.337
0.256,0.051,0.320,-5.337
0.164,0.051,0.320,-5.337
0.188,0.048,0.318,-5.337
0.250,0.051,0.320,-5.337
0.205,0.054,0.325,-5.337
0.215,0.054,0.326,-5.337
0.297,0.049,0.322,-5.337
0.291,0.050,0.319,-5.337
0.224,0.051,0.320,-5.337
0.179,0.053,0.322,-5.337
0.254,0.052,0.321,-5.337
0.298,0.052,0.320,-5.337
0.227,0.051,0.320,-5.337
0.188,0.049,0.320,-5.337
0.180,0.049,0.323,-5.337
0.174,0.048,0.328,-5.337
0.156,0.050,0.331,-5.337
0.196,0.049,0.322,-5.337
0.210,0.046,0.319,-5.337
0.153,0.050,0.318,-5.337
0.155,0.050,0.317,-5.337
0.203,0.050,0.318,-5.337
0.182,0.051,0.318,-5.337
0.184,0.050,0.322,-5.337
0.254,0.048,0.327,-5.337
0.273,0.048,0.325,-5.337
0.257,0.049,0.321,-5.337
0.193,0.049,0.317,-5.337
0.157,0.048,0.318,-5.337
0.191,0.044,0.319,-5.337
0.190,0.045,0.322,-5.337
0.116,0.048,0.324,-5.337
0.095,0.046,0.320,-5.337
0.144,0.046,0.319,-5.337
0.142,0.047,0.320,-5.337
0.165,0.046,0.320,-5.337
0.217,0.044,0.320,-5.337
0.233,0.044,0.319,-5.337
0.250,0.045,0.318,-5.337
0.215,0.045,0.323,-5.337
0.180,0.047,0.326,-5.337
0.197,0.045,0.328,-5.337
0.266,0.042,0.326,-5.337
0.291,0.040,0.329,-5.337
0.228,0.045,0.328,-5.337
0.238,0.047,0.322,-5.337
0.230,0.045,0.316,-5.337
0.181,0.045,0.320,-5.337
0.171,0.045,0.324,-5.337
0.213,0.047,0.326,-5.337
0.239,0.048,0.326,-5.337
0.249,0.047,0.327,-5.337
0.201,0.045,0.326,-5.337
0.164,0.043,0.322,-5.337
0.160,0.043,0.319,-5.337
0.163,0.046,0.319,-5.337
0.215,0.044,0.320,-5.337
0.219,0.042,0.323,-5.337
0.152,0.043,0.325,-5.337
0.162,0.041,0.322,-5.337
0.181,0.041,0.321,-5.337
0.171,0.041,0.320,-5.337
0.219,0.042,0.320,-5.337
0.231,0.041,0.318,-5.337
0.208,0.041,0.319,-5.337
0.234,0.046,0.321,-5.337
0.221,0.048,0.324,-5.337
0.204,0.046,0.322,-5.337
0.265,0.043,0.321,-5.337
0.305,0.040,0.321,-5.337
0.317,0.042,0.324,-5.337
0.247,0.040,0.325,-5.337
0.123,0.040,0.326,-5.337
0.131,0.038,0.323,-5.337
0.195,0.039,0.320,-5.337
0.210,0.036,0.320,-5.337
0.194,0.040,0.326,-5.337
0.192,0.039,0.330,-5.337
0.240,0.038,0.330,-5.337
0.239,0.038,0.324,-5.337
0.222,0.038,0.320,-5.337
0.228,0.038,0.323,-5.337
0.222,0.039,0.324,-5.337
0.225,0.038,0.322,-5.337
0.192,0.040,0.318,-5.337
0.219,0.035,0.315,-5.337
0.212,0.034,0.313,-5.337
0.180,0.034,0.315,-5.337
0.189,0.036,0.319,-5.337
0.274,0.037,0.325,-5.337
0.251,0.037,0.325,-5.337
0.196,0.037,0.323,-5.337
0.208,0.035,0.320,-5.337
0.249,0.036,0.318,-5.337
0.197,0.040,0.319,-5.337
0.151,0.040,0.319,-5.337
0.144,0.038,0.319,-5.337
0.169,0.042,0.319,-5.337
0.155,0.041,0.321,-5.337
0.185,0.041,0.322,-5.337
0.160,0.043,0.321,-5.337
0.171,0.043,0.319,-5.337
0.254,0.038,0.317,-5.337
0.289,0.040,0.315,-5.337
0.288,0.043,0.316,-5.337
0.318,0.041,0.319,-5.337
0.324,0.042,0.322,-5.337
0.289,0.042,0.322,-5.337
0.274,0.042,0.321,-5.337
0.224,0.042,0.319,-5.337
0.242,0.039,0.322,-5.337
0.190,0.041,0.324,-5.337
0.184,0.041,0.324,-5.337
0.189,0.038,0.322,-5.337
0.161,0.043,0.323,-5.337
0.145,0.041,0.322,-5.337
0.201,0.036,0.319,-5.337
0.231,0.033,0.318,-5.337
0.266,0.035,0.321,-5.337
0.229,0.038,0.319,-5.337
0.188,0.038,0.317,-5.337
0.197,0.037,0.319,-5.337
0.247,0.038,0.322,-5.337
0.209,0.040,0.322,-5.337
0.128,0.041,0.318,-5.337
0.066,0.040,0.319,-5.337
0.078,0.039,0.319,-5.337
0.114,0.040,0.320,-5.337
0.170,0.040,0.319,-5.337
0.155,0.042,0.323,-5.337
0.237,0.038,0.325,-5.337
0.332,0.040,0.324,-5.337
0.357,0.043,0.320,-5.337
0.391,0.041,0.320,-5.337
0.390,0.038,0.318,-5.337
0.295,0.040,0.320,-5.337
0.226,0.041,0.319,-5.337
0.178,0.039,0.319,-5.337
0.168,0.038,0.322,-5.337
0.189,0.039,0.324,-5.337
0.239,0.037,0.322,-5.337
0.254,0.036,0.320,-5.337
0.233,0.033,0.317,-5.337
0.229,0.035,0.317,-5.337
0.255,0.032,0.319,-5.337
0.286,0.035,0.322,-5.337
0.277,0.033,0.323,-5.337
0.329,0.028,0.324,-5.337
0.335,0.032,0.323,-5.337
0.225,0.036,0.321,-5.337
0.148,0.034,0.323,-5.337
0.217,0.032,0.322,-5.337
0.273,0.035,0.321,-5.337
0.220,0.037,0.320,-5.337
0.165,0.038,0.321,-5.337
0.145,0.039,0.323,-5.337
0.216,0.039,0.322,-5.337
0.259,0.030,0.321,-5.337
0.194,0.034,0.322,-5.337
0.096,0.039,0.324,-5.337
0.159,0.042,0.323,-5.337
0.177,0.041,0.323,-5.337
0.257,0.041,0.324,-5.337
0.298,0.039,0.320,-5.337
0.215,0.040,0.317,-5.337
0.125,0.040,0.314,-5.337
0.117,0.040,0.316,-5.337
0.197,0.040,0.319,-5.337
0.204,0.038,0.323,-5.337
0.190,0.036,0.325,-5.337
0.172,0.035,0.324,-5.337
0.230,0.036,0.319,-5.337
0.318,0.034,0.317,-5.337
0.298,0.036,0.319,-5.337
0.292,0.035,0.322,-5.337
0.238,0.036,0.324,-5.337
0.155,0.036,0.324,-5.337
0.175,0.030,0.326,-5.337
0.272,0.029,0.323,-5.337
0.257,0.032,0.319,-5.337
0.167,0.035,0.320,-5.337
0.135,0.035,0.322,-5.337
0.195,0.033,0.319,-5.337
0.174,0.036,0.321,-5.337
0.170,0.034,0.322,-5.337
0.255,0.032,0.323,-5.337
0.361,0.031,0.321,-5.337
0.282,0.034,0.323,-5.337
0.202,0.034,0.324,-5.337
0.211,0.034,0.322,-5.337
0.158,0.035,0.319,-5.337
0.106,0.038,0.318,-5.337
0.086,0.037,0.317,-5.337
0.131,0.033,0.318,-5.337
0.155,0.033,0.320,-5.337
0.136,0.035,0.321,-5.337
0.183,0.035,0.325,-5.337
0.237,0.034,0.327,-5.337
0.236,0.035,0.327,-5.337
0.206,0.033,0.321,-5.337
0.224,0.033,0.319,-5.337
0.264,0.031,0.319,-5.337
0.219,0.031,0.322,-5.337
0.165,0.034,0.319,-5.337
0.176,0.036,0.316,-5.337
0.185,0.038,0.317,-5.337
0.205,0.033,0.321,-5.337
0.150,0.034,0.321,-5.337
0.195,0.035,0.321,-5.337
0.276,0.033,0.322,-5.337
0.270,0.034,0.324,-5.337
0.238,0.037,0.320,-5.337
0.237,0.036,0.318,-5.337
0.161,0.036,0.317,-5.337
0.174,0.034,0.321,-5.337
0.213,0.032,0.320,-5.337
0.262,0.030,0.319,-5.337
0.287,0.034,0.323,-5.337
0.268,0.037,0.327,-5.337
0.246,0.037,0.328,-5.337
0.250,0.040,0.320,-5.337
0.243,0.039,0.315,-5.337
0.215,0.036,0.316,-5.337
0.301,0.033,0.318,-5.337
0.331,0.029,0.317,-5.337
0.233,0.031,0.322,-5.337
0.193,0.031,0.326,-5.337
0.187,0.031,0.327,-5.337
0.163,0.032,0.325,-5.337
0.174,0.037,0.320,-5.337
0.125,0.038,0.319,-5.337
0.134,0.032,0.322,-5.337
0.154,0.029,0.322,-5.337
0.155,0.031,0.319,-5.337
0.228,0.031,0.320,-5.337
0.224,0.032,0.323,-5.337
0.128,0.033,0.323,-5.337
0.181,0.032,0.323,-5.337
0.271,0.035,0.324,-5.337
0.239,0.040,0.322,-5.337
0.205,0.038,0.319,-5.337
0.243,0.036,0.319,-5.337
0.271,0.034,0.323,-5.337
0.278,0.035,0.326,-5.337
0.304,0.036,0.323,-5.337
0.244,0.037,0.319,-5.337
0.182,0.041,0.321,-5.337
0.112,0.045,0.319,-5.337
0.126,0.043,0.321,-5.337
0.137,0.041,0.321,-5.337
0.174,0.044,0.321,-5.337
0.200,0.043,0.324,-5.337
0.178,0.043,0.326,-5.337
0.209,0.039,0.322,-5.337
0.188,0.039,0.322,-5.337
0.206,0.041,0.325,-5.337
0.217,0.041,0.320,-5.337
0.190,0.046,0.313,-5.337
0.132,0.044,0.316,-5.337
0.131,0.044,0.320,-5.337
0.169,0.043,0.322,-5.337
0.193,0.041,0.320,-5.337
0.142,0.039,0.316,-5.337
0.110,0.037,0.314,-5.337
0.158,0.034,0.316,-5.337
0.210,0.038,0.322,-5.337
0.159,0.042,0.323,-5.337
0.162,0.041,0.327,-5.337
0.186,0.040,0.327,-5.337
0.146,0.044,0.326,-5.337
0.126,0.046,0.322,-5.337
0.111,0.047,0.321,-5.337
0.104,0.045,0.319,-5.337
0.184,0.043,0.319,-5.337
0.251,0.045,0.320,-5.337
0.232,0.046,0.321,-5.337
0.212,0.041,0.322,-5.337
0.138,0.045,0.321,-5.337
0.117,0.045,0.320,-5.337
0.117,0.048,0.320,-5.337
0.230,0.045,0.319,-5.337
0.312,0.044,0.319,-5.337
0.251,0.045,0.318,-5.337
0.198,0.044,0.319,-5.337
0.148,0.046,0.320,-5.337
0.176,0.046,0.323,-5.337
0.248,0.044,0.323,-5.337
0.203,0.045,0.319,-5.337
0.161,0.047,0.319,-5.337
0.175,0.047,0.319,-5.337
0.189,0.044,0.322,-5.337
0.166,0.046,0.323,-5.337
0.116,0.048,0.323,-5.337
0.142,0.048,0.324,-5.337
0.239,0.043,0.321,-5.337
0.260,0.041,0.318,-5.337
0.234,0.042,0.319,-5.337
0.266,0.042,0.318,-5.337
0.246,0.046,0.319,-5.337
0.159,0.048,0.321,-5.337
0.138,0.046,0.324,-5.337
0.175,0.043,0.324,-5.337
0.163,0.043,0.323,-5.337
0.162,0.044,0.320,-5.337
0.169,0.046,0.318,-5.337
0.188,0.043,0.317,-5.337
0.225,0.043,0.319,-5.337
0.233,0.048,0.321,-5.337
0.255,0.047,0.324,-5.337
0.266,0.043,0.323,-5.337
0.260,0.043,0.323,-5.337
0.198,0.043,0.322,-5.337
0.118,0.042,0.319,-5.337
0.090,0.047,0.326,-5.337
0.077,0.044,0.328,-5.337
0.106,0.044,0.323,-5.337
0.115,0.047,0.321,-5.337
0.158,0.046,0.320,-5.337
0.214,0.045,0.320,-5.337
0.199,0.050,0.321,-5.337
0.193,0.051,0.322,-5.337
0.203,0.047,0.323,-5.337
0.230,0.046,0.324,-5.337
0.235,0.046,0.324,-5.337
0.271,0.049,0.320,-5.337
0.245,0.053,0.322,-5.337
0.126,0.054,0.326,-5.337
0.121,0.052,0.327,-5.337
0.094,0.050,0.322,-5.337
0.148,0.047,0.321,-5.337
0.242,0.047,0.324,-5.337
0.266,0.043,0.327,-5.337
0.250,0.047,0.324,-5.337
0.226,0.047,0.317,-5.337
0.187,0.049,0.315,-5.337
0.132,0.050,0.317,-5.337
0.229,0.049,0.318,-5.337
0.283,0.049,0.320,-5.337
0.327,0.045,0.325,-5.337
0.285,0.049,0.325,-5.337
0.196,0.053,0.325,-5.337
0.103,0.056,0.321,-5.337
0.105,0.052,0.320,-5.337
0.148,0.049,0.318,-5.337
0.105,0.051,0.317,-5.337
0.143,0.050,0.318,-5.337
0.159,0.052,0.319,-5.337
0.197,0.051,0.323,-5.337
0.273,0.054,0.323,-5.337
0.214,0.053,0.319,-5.337
0.217,0.052,0.320,-5.337
0.277,0.051,0.319,-5.337
0.291,0.054,0.319,-5.337
0.229,0.053,0.321,-5.337
0.157,0.053,0.325,-5.337
0.235,0.049,0.328,-5.337
0.296,0.048,0.325,-5.337
0.222,0.056,0.321,-5.337
0.078,0.059,0.317,-5.337
0.092,0.057,0.316,-5.337
0.154,0.056,0.317,-5.337
0.108,0.060,0.317,-5.337
0.064,0.059,0.315,-5.337
0.092,0.057,0.315,-5.337
0.185,0.054,0.318,-5.337
0.299,0.054,0.323,-5.337
0.249,0.053,0.324,-5.337
0.122,0.053,0.323,-5.337
0.165,0.052,0.322,-5.337
0.282,0.052,0.321,-5.337
0.298,0.054,0.317,-5.337
0.225,0.057,0.319,-5.337
0.171,0.058,0.318,-5.337
0.172,0.058,0.315,-5.337
0.207,0.057,0.315,-5.337
0.198,0.060,0.316,-5.337
0.136,0.058,0.318,-5.337
0.186,0.053,0.319,-5.337
0.264,0.051,0.318,-5.337
0.264,0.053,0.317,-5.337
0.261,0.052,0.319,-5.337
0.249,0.053,0.317,-5.337
0.193,0.057,0.319,-5.337
0.075,0.056,0.321,-5.337
0.012,0.059,0.325,-5.337
0.063,0.058,0.324,-5.337
0.200,0.057,0.323,-5.337
0.193,0.058,0.322,-5.337
0.142,0.061,0.322,-5.337
0.162,0.065,0.317,-5.337
0.179,0.060,0.313,-5.337
0.110,0.060,0.316,-5.337
0.084,0.062,0.320,-5.337
0.157,0.060,0.324,-5.337
0.259,0.058,0.326,-5.337
0.264,0.057,0.326,-5.337
0.207,0.054,0.324,-5.337
0.211,0.057,0.319,-5.337
0.239,0.057,0.315,-5.337
0.241,0.057,0.316,-5.337
0.211,0.056,0.317,-5.337
0.204,0.054,0.319,-5.337
0.155,0.056,0.317,-5.337
0.094,0.062,0.320,-5.337
0.114,0.063,0.319,-5.337
0.117,0.064,0.319,-5.337
0.132,0.063,0.318,-5.337
0.157,0.064,0.316,-5.337
0.181,0.065,0.316,-5.337
0.148,0.067,0.317,-5.337
0.082,0.068,0.318,-5.337
0.205,0.066,0.320,-5.337
0.285,0.062,0.317,-5.337
0.259,0.062,0.315,-5.337
0.231,0.065,0.317,-5.337
0.138,0.067,0.323,-5.337
0.128,0.067,0.323,-5.337
0.117,0.067,0.321,-5.337
0.169,0.058,0.319,-5.337
0.218,0.058,0.320,-5.337
0.179,0.062,0.319,-5.337
0.124,0.062,0.316,-5.337
0.193,0.060,0.315,-5.337
0.173,0.061,0.318,-5.337
0.198,0.063,0.325,-5.337
0.224,0.067,0.324,-5.337
0.142,0.065,0.321,-5.337
0.175,0.062,0.319,-5.337
0.264,0.059,0.316,-5.337
0.321,0.059,0.316,-5.337
0.238,0.065,0.322,-5.337
0.154,0.067,0.325,-5.337
0.247,0.066,0.323,-5.337
0.313,0.065,0.317,-5.337
0.267,0.067,0.317,-5.337
0.252,0.064,0.314,-5.337
0.186,0.065,0.316,-5.337
0.192,0.062,0.320,-5.337
0.262,0.064,0.321,-5.337
0.214,0.065,0.321,-5.337
0.138,0.063,0.321,-5.337
0.175,0.058,0.322,-5.337
0.210,0.061,0.324,-5.337
0.197,0.063,0.323,-5.337
0.172,0.066,0.320,-5.337
0.167,0.065,0.318,-5.337
0.195,0.069,0.319,-5.337
0.201,0.069,0.320,-5.337
0.145,0.071,0.322,-5.337
0.184,0.068,0.323,-5.337
0.234,0.065,0.323,-5.337
0.210,0.066,0.326,-5.337
0.230,0.067,0.323,-5.337
0.233,0.065,0.318,-5.337
0.227,0.065,0.316,-5.337
0.238,0.064,0.319,-5.337
0.232,0.064,0.324,-5.337
0.192,0.067,0.323,-5.337
0.159,0.069,0.318,-5.337
0.133,0.070,0.312,-5.337
0.082,0.072,0.315,-5.337
0.127,0.068,0.316,-5.337
0.216,0.065,0.315,-5.337
0.198,0.066,0.316,-5.337
0.234,0.062,0.316,-5.337
0.255,0.064,0.318,-5.337
0.188,0.066,0.322,-5.337
0.172,0.068,0.324,-5.337
0.187,0.070,0.324,-5.337
0.184,0.068,0.319,-5.337
0.181,0.067,0.320,-5.337
0.177,0.063,0.322,-5.337
0.159,0.067,0.324,-5.337
0.152,0.068,0.321,-5.337
0.119,0.062,0.320,-5.337
0.191,0.061,0.316,-5.337
0.221,0.064,0.315,-5.337
0.218,0.065,0.317,-5.337
0.218,0.065,0.322,-5.337
0.193,0.067,0.324,-5.337
0.203,0.067,0.321,-5.337
0.232,0.065,0.316,-5.337
0.221,0.061,0.317,-5.337
0.135,0.061,0.320,-5.337
0.128,0.061,0.319,-5.337
0.118,0.065,0.318,-5.337
0.088,0.065,0.324,-5.337
0.117,0.059,0.329,-5.337
0.107,0.059,0.328,-5.337
0.229,0.059,0.323,-5.337
0.335,0.060,0.316,-5.337
0.249,0.062,0.317,-5.337
0.135,0.061,0.320,-5.337
0.199,0.062,0.324,-5.337
0.269,0.062,0.322,-5.337
0.241,0.063,0.320,-5.337
0.127,0.065,0.317,-5.337
0.113,0.064,0.318,-5.337
0.211,0.062,0.319,-5.337
0.301,0.061,0.322,-5.337
0.280,0.057,0.323,-5.337
0.249,0.058,0.319,-5.337
0.172,0.059,0.317,-5.337
0.151,0.065,0.319,-5.337
0.144,0.063,0.321,-5.337
0.114,0.064,0.322,-5.337
0.175,0.064,0.319,-5.337
0.289,0.059,0.317,-5.337
0.282,0.062,0.318,-5.337
0.206,0.061,0.319,-5.337
0.161,0.060,0.319,-5.337
0.227,0.059,0.321,-5.337
0.242,0.060,0.325,-5.337
0.119,0.060,0.324,-5.337
0.135,0.057,0.321,-5.337
0.197,0.056,0.321,-5.337
0.137,0.056,0.322,-5.337
0.119,0.060,0.323,-5.337
0.153,0.054,0.325,-5.337
0.217,0.052,0.322,-5.337
0.217,0.057,0.320,-5.337
0.178,0.058,0.320,-5.337
0.147,0.056,0.319,-5.337
0.178,0.051,0.317,-5.337
0.224,0.053,0.314,-5.337
0.219,0.053,0.315,-5.337
0.276,0.049,0.321,-5.337
0.283,0.049,0.322,-5.337
0.195,0.050,0.322,-5.337
0.198,0.050,0.322,-5.337
0.256,0.052,0.322,-5.337
0.260,0.051,0.321,-5.337
0.241,0.051,0.319,-5.337
0.228,0.054,0.322,-5.337
0.218,0.057,0.322,-5.337
0.253,0.052,0.319,-5.337
0.228,0.052,0.317,-5.337
0.178,0.053,0.319,-5.337
0.189,0.054,0.317,-5.337
0.128,0.056,0.318,-5.337
0.141,0.052,0.317,-5.337
0.186,0.053,0.316,-5.337
0.215,0.050,0.316,-5.337
0.303,0.049,0.319,-5.337
0.332,0.050,0.321,-5.337
0.284,0.051,0.320,-5.337
0.216,0.054,0.322,-5.337
0.177,0.055,0.321,-5.337
0.198,0.052,0.321,-5.337
0.282,0.048,0.320,-5.337
0.316,0.046,0.321,-5.337
0.244,0.049,0.318,-5.337
0.217,0.052,0.317,-5.337
0.238,0.052,0.318,-5.337
0.196,0.052,0.320,-5.337
0.103,0.051,0.323,-5.337
0.074,0.049,0.324,-5.337
0.177,0.047,0.320,-5.337
0.237,0.048,0.316,-5.337
0.156,0.054,0.318,-5.337
0.092,0.053,0.323,-5.337
0.151,0.049,0.326,-5.337
0.214,0.050,0.322,-5.337
0.241,0.050,0.319,-5.337
0.266,0.053,0.320,-5.337
0.248,0.051,0.321,-5.337
0.191,0.049,0.322,-5.337
0.136,0.048,0.321,-5.337
0.219,0.046,0.321,-5.337
0.250,0.048,0.322,-5.337
0.199,0.051,0.321,-5.337
0.173,0.049,0.320,-5.337
0.152,0.051,0.323,-5.337
0.119,0.048,0.320,-5.337
0.089,0.050,0.319,-5.337
0.151,0.049,0.320,-5.337
0.205,0.047,0.321,-5.337
0.209,0.046,0.320,-5.337
0.186,0.045,0.319,-5.337
0.178,0.047,0.321,-5.337
0.153,0.045,0.319,-5.337
0.180,0.043,0.316,-5.337
0.224,0.045,0.316,-5.337
0.240,0.043,0.318,-5.337
0.214,0.042,0.318,-5.337
0.229,0.041,0.320,-5.337
0.246,0.046,0.324,-5.337
0.195,0.052,0.331,-5.337
0.184,0.048,0.331,-5.337
0.217,0.046,0.326,-5.337
0.184,0.048,0.321,-5.337
0.191,0.049,0.317,-5.337
0.238,0.047,0.317,-5.337
0.201,0.050,0.319,-5.337
0.224,0.047,0.321,-5.337
0.244,0.048,0.320,-5.337
0.160,0.045,0.323,-5.337
0.156,0.045,0.327,-5.337
0.176,0.047,0.322,-5.337
0.193,0.044,0.317,-5.337
0.215,0.040,0.318,-5.337
0.149,0.042,0.318,-5.337
0.126,0.044,0.321,-5.337
0.167,0.047,0.323,-5.337
0.268,0.043,0.323,-5.337
0.284,0.042,0.318,-5.337
0.212,0.044,0.318,-5.337
0.166,0.048,0.321,-5.337
0.168,0.049,0.325,-5.337
0.161,0.045,0.324,-5.337
0.178,0.041,0.326,-5.337
0.258,0.041,0.327,-5.337
0.237,0.045,0.324,-5.337
0.155,0.047,0.321,-5.337
0.146,0.045,0.318,-5.337
0.198,0.042,0.317,-5.337
0.221,0.042,0.318,-5.337
0.224,0.044,0.321,-5.337
0.257,0.046,0.321,-5.337
0.225,0.049,0.321,-5.337
0.243,0.045,0.322,-5.337
0.229,0.047,0.324,-5.337
0.191,0.050,0.321,-5.337
0.158,0.054,0.319,-5.337
0.104,0.057,0.319,-5.337
0.146,0.053,0.322,-5.337
0.260,0.049,0.321,-5.337
0.260,0.049,0.317,-5.337
0.178,0.051,0.317,-5.337
0.245,0.047,0.323,-5.337
0.286,0.045,0.324,-5.337
0.260,0.045,0.325,-5.337
0.207,0.048,0.323,-5.337
0.148,0.053,0.320,-5.337
0.182,0.049,0.318,-5.337
0.146,0.052,0.317,-5.337
0.121,0.052,0.314,-5.337
0.183,0.050,0.316,-5.337
0.242,0.047,0.316,-5.337
0.308,0.048,0.316,-5.337
0.300,0.048,0.316,-5.337
0.174,0.051,0.318,-5.337
0.143,0.054,0.321,-5.337
0.202,0.051,0.318,-5.337
0.223,0.053,0.317,-5.337
0.165,0.054,0.317,-5.337
0.127,0.050,0.316,-5.337
0.242,0.046,0.319,-5.337
0.310,0.044,0.321,-5.337
0.242,0.050,0.319,-5.337
0.123,0.051,0.321,-5.337
0.087,0.049,0.327,-5.337
0.078,0.051,0.329,-5.337
0.077,0.051,0.327,-5.337
0.145,0.050,0.327,-5.337
0.136,0.048,0.323,-5.337
0.079,0.045,0.321,-5.337
0.191,0.044,0.318,-5.337
0.192,0.045,0.317,-5.337
0.109,0.046,0.315,-5.337
0.121,0.047,0.315,-5.337
0.259,0.045,0.316,-5.337
0.369,0.048,0.319,-5.337
0.283,0.051,0.323,-5.337
0.193,0.049,0.325,-5.337
0.240,0.042,0.322,-5.337
0.288,0.043,0.320,-5.337
0.296,0.046,0.317,-5.337
0.254,0.050,0.318,-5.337
0.254,0.048,0.318,-5.337
0.229,0.049,0.317,-5.337
0.222,0.050,0.316,-5.337
0.287,0.047,0.316,-5.337
0.329,0.048,0.320,-5.337
0.278,0.050,0.320,-5.337
0.230,0.049,0.320,-5.337
0.242,0.048,0.319,-5.337
0.262,0.049,0.320,-5.337
0.313,0.051,0.319,-5.337
0.292,0.051,0.320,-5.337
0.208,0.051,0.321,-5.337
0.172,0.053,0.320,-5.337
0.176,0.050,0.318,-5.337
0.235,0.046,0.320,-5.337
0.252,0.043,0.323,-5.337
0.262,0.045,0.325,-5.337
0.243,0.043,0.323,-5.337
0.212,0.046,0.322,-5.337
0.177,0.049,0.322,-5.337
0.145,0.054,0.323,-5.337
0.172,0.056,0.321,-5.337
0.211,0.052,0.319,-5.337
0.201,0.048,0.316,-5.337
0.216,0.046,0.316,-5.337
0.220,0.046,0.321,-5.337
0.231,0.047,0.322,-5.337
0.213,0.048,0.321,-5.337
0.203,0.049,0.319,-5.337
0.213,0.047,0.319,-5.337
0.187,0.046,0.320,-5.337
0.169,0.043,0.321,-5.337
0.228,0.043,0.318,-5.337
0.235,0.045,0.318,-5.337
0.167,0.045,0.320,-5.337
0.204,0.043,0.324,-5.337
0.207,0.042,0.324,-5.337
0.227,0.041,0.321,-5.337
0.306,0.040,0.317,-5.337
0.247,0.041,0.318,-5.337
0.155,0.042,0.319,-5.337
0.157,0.043,0.321,-5.337
0.201,0.043,0.324,-5.337
0.180,0.045,0.326,-5.337
0.165,0.045,0.320,-5.337
0.221,0.045,0.317,-5.337
0.215,0.041,0.320,-5.337
0.186,0.043,0.324,-5.337
0.178,0.045,0.324,-5.337
0.232,0.048,0.322,-5.337
0.225,0.049,0.320,-5.337
0.267,0.044,0.319,-5.337
0.283,0.044,0.320,-5.337
0.322,0.042,0.322,-5.337
0.261,0.047,0.321,-5.337
0.180,0.048,0.319,-5.337
0.091,0.048,0.322,-5.337
0.119,0.044,0.322,-5.337
0.207,0.045,0.321,-5.337
0.167,0.049,0.319,-5.337
0.123,0.046,0.317,-5.337
0.103,0.047,0.315,-5.337
0.094,0.050,0.315,-5.337
0.112,0.050,0.320,-5.337
0.116,0.050,0.320,-5.337
0.144,0.049,0.319,-5.337
0.199,0.049,0.321,-5.337
0.215,0.047,0.322,-5.337
0.236,0.051,0.322,-5.337
0.301,0.049,0.321,-5.337
0.296,0.048,0.323,-5.337
0.277,0.045,0.319,-5.337
0.230,0.045,0.317,-5.337
0.246,0.048,0.321,-5.337
0.163,0.052,0.322,-5.337
0.125,0.050,0.322,-5.337
0.181,0.048,0.320,-5.337
0.224,0.050,0.319,-5.337
0.202,0.054,0.317,-5.337
0.246,0.049,0.319,-5.337
0.192,0.050,0.320,-5.337
0.144,0.052,0.321,-5.337
0.104,0.052,0.322,-5.337
0.141,0.050,0.324,-5.337
0.093,0.049,0.323,-5.337
0.179,0.049,0.321,-5.337
0.193,0.049,0.323,-5.337
0.220,0.047,0.325,-5.337
0.225,0.048,0.323,-5.337
0.205,0.052,0.317,-5.337
0.165,0.054,0.317,-5.337
0.173,0.052,0.316,-5.337
0.226,0.052,0.318,-5.337
0.216,0.052,0.321,-5.337
0.183,0.050,0.323,-5.337
0.124,0.053,0.323,-5.337
0.130,0.053,0.323,-5.337
0.202,0.050,0.322,-5.337
0.274,0.049,0.320,-5.337
0.239,0.054,0.318,-5.337
0.202,0.054,0.318,-5.337
0.189,0.051,0.318,-5.337
0.175,0.051,0.321,-5.337
0.174,0.050,0.323,-5.337
0.183,0.055,0.325,-5.337
0.184,0.054,0.326,-5.337
0.168,0.055,0.322,-5.337
0.124,0.056,0.318,-5.337
0.220,0.052,0.321,-5.337
0.320,0.049,0.323,-5.337
0.265,0.048,0.325,-5.337
0.189,0.051,0.323,-5.337
0.150,0.056,0.323,-5.337
0.174,0.053,0.323,-5.337
0.236,0.053,0.321,-5.337
0.228,0.052,0.320,-5.337
0.209,0.055,0.318,-5.337
0.219,0.056,0.318,-5.337
0.157,0.059,0.320,-5.337
0.106,0.062,0.324,-5.337
0.137,0.060,0.323,-5.337
0.135,0.056,0.322,-5.337
0.137,0.054,0.320,-5.337
0.171,0.055,0.322,-5.337
0.128,0.052,0.321,-5.337
0.173,0.050,0.320,-5.337
0.210,0.054,0.319,-5.337
0.196,0.059,0.320,-5.337
0.174,0.056,0.320,-5.337
0.210,0.052,0.319,-5.337
0.292,0.053,0.316,-5.337
0.293,0.057,0.320,-5.337
0.249,0.060,0.326,-5.337
0.228,0.058,0.326,-5.337
0.287,0.054,0.321,-5.337
0.307,0.055,0.320,-5.337
0.329,0.052,0.322,-5.337
0.225,0.054,0.323,-5.337
0.121,0.057,0.323,-5.337
0.177,0.058,0.319,-5.337
0.195,0.057,0.316,-5.337
0.169,0.054,0.317,-5.337
0.148,0.055,0.321,-5.337
0.199,0.056,0.320,-5.337
0.208,0.053,0.320,-5.337
0.150,0.052,0.317,-5.337
0.156,0.055,0.316,-5.337
0.131,0.059,0.315,-5.337
0.097,0.060,0.320,-5.337
0.112,0.059,0.327,-5.337
0.130,0.060,0.329,-5.337
0.176,0.056,0.323,-5.337
0.219,0.057,0.318,-5.337
0.239,0.057,0.316,-5.337
0.188,0.060,0.313,-5.337
0.160,0.060,0.316,-5.337
0.172,0.056,0.320,-5.337
0.210,0.059,0.320,-5.337
0.165,0.059,0.320,-5.337
0.140,0.062,0.322,-5.337
0.142,0.061,0.326,-5.337
0.153,0.061,0.328,-5.337
0.140,0.065,0.323,-5.337
0.098,0.064,0.318,-5.337
0.121,0.062,0.314,-5.337
0.180,0.059,0.319,-5.337
0.219,0.064,0.322,-5.337
0.245,0.066,0.326,-5.337
0.261,0.064,0.325,-5.337
0.270,0.060,0.321,-5.337
0.198,0.059,0.318,-5.337
0.089,0.061,0.319,-5.337
0.145,0.060,0.321,-5.337
0.194,0.059,0.318,-5.337
0.189,0.059,0.315,-5.337
0.232,0.059,0.317,-5.337
0.210,0.061,0.321,-5.337
0.076,0.064,0.325,-5.337
0.057,0.064,0.323,-5.337
0.144,0.062,0.319,-5.337
0.231,0.060,0.319,-5.337
0.217,0.059,0.320,-5.337
0.220,0.059,0.322,-5.337
0.192,0.061,0.324,-5.337
0.219,0.060,0.324,-5.337
0.268,0.058,0.323,-5.337
0.199,0.060,0.324,-5.337
0.176,0.061,0.320,-5.337
0.209,0.060,0.317,-5.337
0.240,0.056,0.312,-5.337
0.323,0.059,0.316,-5.337
0.246,0.062,0.320,-5.337
0.134,0.063,0.330,-5.337
0.216,0.061,0.330,-5.337
0.274,0.062,0.327,-5.337
0.219,0.063,0.322,-5.337
0.191,0.064,0.316,-5.337
0.120,0.065,0.319,-5.337
0.097,0.066,0.323,-5.337
0.229,0.058,0.321,-5.337
0.335,0.054,0.319,-5.337
0.296,0.056,0.320,-5.337
0.253,0.063,0.321,-5.337
0.191,0.065,0.325,-5.337
0.136,0.063,0.326,-5.337
0.126,0.061,0.323,-5.337
0.191,0.060,0.320,-5.337
0.235,0.060,0.320,-5.337
0.175,0.062,0.318,-5.337
0.190,0.061,0.316,-5.337
0.179,0.062,0.313,-5.337
0.107,0.063,0.318,-5.337
0.119,0.061,0.323,-5.337
0.129,0.062,0.323,-5.337
0.063,0.066,0.320,-5.337
0.079,0.066,0.321,-5.337
0.149,0.064,0.320,-5.337
0.179,0.066,0.319,-5.337
0.110,0.065,0.319,-5.337
0.071,0.065,0.322,-5.337
0.162,0.061,0.323,-5.337
0.257,0.057,0.324,-5.337
0.222,0.056,0.325,-5.337
0.188,0.058,0.323,-5.337
0.192,0.060,0.320,-5.337
0.221,0.062,0.325,-5.337
0.193,0.062,0.326,-5.337
0.163,0.061,0.323,-5.337
0.177,0.061,0.322,-5.337
0.206,0.064,0.321,-5.337
0.168,0.065,0.320,-5.337
0.189,0.062,0.317,-5.337
0.194,0.063,0.319,-5.337
0.131,0.068,0.321,-5.337
0.136,0.067,0.322,-5.337
0.170,0.068,0.316,-5.337
0.180,0.073,0.312,-5.337
0.127,0.074,0.311,-5.337
0.117,0.072,0.315,-5.337
0.170,0.067,0.319,-5.337
0.204,0.072,0.320,-5.337
0.265,0.074,0.319,-5.337
0.182,0.075,0.318,-5.337
0.111,0.073,0.320,-5.337
0.158,0.071,0.321,-5.337
0.206,0.071,0.323,-5.337
0.227,0.070,0.323,-5.337
0.204,0.072,0.321,-5.337
0.205,0.072,0.316,-5.337
0.180,0.071,0.311,-5.337
0.183,0.072,0.315,-5.337
0.175,0.068,0.319,-5.337
0.200,0.065,0.323,-5.337
0.187,0.064,0.324,-5.337
0.203,0.061,0.325,-5.337
0.222,0.062,0.326,-5.337
0.194,0.062,0.323,-5.337
0.157,0.064,0.321,-5.337
0.185,0.065,0.317,-5.337
0.162,0.065,0.317,-5.337
0.181,0.062,0.316,-5.337
0.182,0.061,0.319,-5.337
0.153,0.063,0.320,-5.337
0.206,0.063,0.317,-5.337
0.200,0.063,0.319,-5.337
0.193,0.062,0.321,-5.337
0.259,0.059,0.322,-5.337
0.260,0.062,0.317,-5.337
0.238,0.065,0.314,-5.337
0.190,0.068,0.317,-5.337
0.189,0.065,0.321,-5.337
0.178,0.065,0.322,-5.337
0.199,0.065,0.321,-5.337
0.154,0.069,0.321,-5.337
0.180,0.067,0.323,-5.337
0.210,0.066,0.321,-5.337
0.213,0.066,0.322,-5.337
0.159,0.063,0.326,-5.337
0.124,0.062,0.322,-5.337
0.219,0.063,0.317,-5.337
0.301,0.065,0.316,-5.337
0.325,0.066,0.317,-5.337
0.244,0.066,0.319,-5.337
0.213,0.061,0.320,-5.337
0.251,0.061,0.319,-5.337
0.230,0.056,0.316,-5.337
0.217,0.059,0.317,-5.337
0.231,0.059,0.319,-5.337
0.220,0.061,0.323,-5.337
0.289,0.060,0.321,-5.337
0.282,0.065,0.319,-5.337
0.209,0.066,0.322,-5.337
0.149,0.067,0.322,-5.337
0.182,0.068,0.318,-5.337
0.235,0.069,0.313,-5.337
0.233,0.065,0.315,-5.337
0.218,0.063,0.319,-5.337
0.137,0.065,0.324,-5.337
0.089,0.066,0.324,-5.337
0.078,0.067,0.318,-5.337
0.120,0.069,0.316,-5.337
0.187,0.067,0.317,-5.337
0.196,0.068,0.319,-5.337
0.110,0.068,0.320,-5.337
0.107,0.066,0.321,-5.337
0.141,0.068,0.321,-5.337
0.186,0.070,0.319,-5.337
0.193,0.070,0.319,-5.337
0.199,0.065,0.319,-5.337
0.159,0.063,0.322,-5.337
0.073,0.064,0.323,-5.337
0.074,0.067,0.320,-5.337
0.222,0.065,0.318,-5.337
0.312,0.063,0.319,-5.337
0.294,0.063,0.319,-5.337
0.235,0.063,0.321,-5.337
0.202,0.063,0.323,-5.337
0.175,0.061,0.324,-5.337
0.245,0.062,0.323,-5.337
0.251,0.064,0.319,-5.337
0.289,0.059,0.312,-5.337
0.280,0.062,0.311,-5.337
0.253,0.059,0.317,-5.337
0.241,0.056,0.319,-5.337
0.220,0.059,0.317,-5.337
0.167,0.063,0.312,-5.337
0.157,0.065,0.312,-5.337
0.229,0.058,0.318,-5.337
0.191,0.057,0.323,-5.337
0.181,0.054,0.321,-5.337
0.158,0.055,0.322,-5.337
0.090,0.061,0.324,-5.337
0.133,0.061,0.319,-5.337
0.243,0.059,0.314,-5.337
0.233,0.059,0.317,-5.337
0.189,0.056,0.322,-5.337
0.166,0.056,0.322,-5.337
0.224,0.056,0.319,-5.337
0.272,0.059,0.320,-5.337
0.205,0.059,0.321,-5.337
0.091,0.057,0.320,-5.337
0.054,0.056,0.322,-5.337
0.166,0.055,0.324,-5.337
0.297,0.054,0.328,-5.337
0.343,0.053,0.325,-5.337
0.319,0.054,0.321,-5.337
0.284,0.054,0.320,-5.337
0.276,0.056,0.322,-5.337
0.249,0.054,0.318,-5.337
0.219,0.055,0.318,-5.337
0.130,0.055,0.316,-5.337
0.120,0.055,0.316,-5.337
0.137,0.054,0.319,-5.337
0.211,0.052,0.323,-5.337
0.199,0.050,0.321,-5.337
0.073,0.053,0.321,-5.337
0.024,0.050,0.322,-5.337
0.070,0.052,0.319,-5.337
0.125,0.052,0.316,-5.337
0.222,0.050,0.315,-5.337
0.265,0.051,0.317,-5.337
0.259,0.050,0.318,-5.337
0.283,0.049,0.318,-5.337
0.325,0.050,0.322,-5.337
0.307,0.053,0.327,-5.337
0.239,0.053,0.325,-5.337
0.238,0.054,0.324,-5.337
0.198,0.055,0.322,-5.337
0.225,0.054,0.323,-5.337
0.280,0.058,0.324,-5.337
0.288,0.057,0.322,-5.337
0.237,0.054,0.321,-5.337
0.115,0.055,0.321,-5.337
0.163,0.053,0.322,-5.337
0.222,0.051,0.324,-5.337
0.147,0.051,0.322,-5.337
0.140,0.049,0.323,-5.337
0.200,0.045,0.325,-5.337
0.232,0.049,0.323,-5.337
0.273,0.051,0.319,-5.337
0.315,0.049,0.318,-5.337
0.279,0.051,0.321,-5.337
0.190,0.056,0.323,-5.337
0.147,0.058,0.322,-5.337
0.177,0.053,0.320,-5.337
0.211,0.050,0.321,-5.337
0.160,0.049,0.323,-5.337
0.187,0.046,0.326,-5.337
0.174,0.048,0.326,-5.337
0.172,0.048,0.325,-5.337
0.178,0.048,0.317,-5.337
0.173,0.047,0.317,-5.337
0.125,0.049,0.317,-5.337
0.222,0.044,0.324,-5.337
0.252,0.044,0.324,-5.337
0.189,0.045,0.321,-5.337
0.205,0.045,0.322,-5.337
0.268,0.043,0.325,-5.337
0.272,0.040,0.326,-5.337
0.201,0.046,0.326,-5.337
0.183,0.046,0.323,-5.337
0.193,0.048,0.321,-5.337
0.201,0.046,0.319,-5.337
0.170,0.045,0.320,-5.337
0.116,0.045,0.321,-5.337
0.144,0.040,0.318,-5.337
0.201,0.040,0.315,-5.337
0.152,0.045,0.318,-5.337
0.131,0.045,0.319,-5.337
0.208,0.040,0.318,-5.337
0.213,0.040,0.321,-5.337
0.199,0.042,0.320,-5.337
0.194,0.042,0.320,-5.337
0.230,0.042,0.321,-5.337
0.274,0.041,0.321,-5.337
0.223,0.043,0.320,-5.337
0.140,0.047,0.324,-5.337
0.220,0.042,0.323,-5.337
0.272,0.041,0.319,-5.337
0.237,0.044,0.316,-5.337
0.233,0.046,0.321,-5.337
0.268,0.039,0.321,-5.337
0.284,0.039,0.322,-5.337
0.260,0.040,0.323,-5.337
0.182,0.041,0.326,-5.337
0.195,0.037,0.328,-5.337
0.215,0.040,0.328,-5.337
0.204,0.038,0.325,-5.337
0.206,0.042,0.323,-5.337
0.240,0.042,0.322,-5.337
0.223,0.044,0.322,-5.337
0.237,0.043,0.321,-5.337
0.203,0.041,0.323,-5.337
0.146,0.041,0.320,-5.337
0.122,0.041,0.319,-5.337
0.103,0.041,0.319,-5.337
0.218,0.042,0.321,-5.337
0.262,0.042,0.324,-5.337
0.269,0.043,0.326,-5.337
0.265,0.045,0.324,-5.337
0.194,0.048,0.320,-5.337
0.194,0.048,0.317,-5.337
0.217,0.048,0.317,-5.337
0.213,0.049,0.318,-5.337
0.147,0.049,0.318,-5.337
0.177,0.048,0.321,-5.337
0.147,0.047,0.322,-5.337
0.175,0.047,0.319,-5.337
0.220,0.049,0.317,-5.337
0.261,0.047,0.318,-5.337
0.230,0.047,0.322,-5.337
0.126,0.047,0.321,-5.337
0.132,0.040,0.319,-5.337
0.229,0.041,0.323,-5.337
0.254,0.041,0.326,-5.337
0.243,0.040,0.328,-5.337
0.184,0.040,0.327,-5.337
0.146,0.041,0.323,-5.337
0.136,0.044,0.321,-5.337
0.171,0.043,0.322,-5.337
0.162,0.041,0.322,-5.337
0.220,0.041,0.319,-5.337
0.282,0.041,0.318,-5.337
0.234,0.046,0.319,-5.337
0.140,0.050,0.325,-5.337
0.170,0.049,0.326,-5.337
0.180,0.049,0.322,-5.337
0.214,0.047,0.321,-5.337
0.230,0.049,0.323,-5.337
0.209,0.049,0.323,-5.337
0.161,0.049,0.323,-5.337
0.172,0.045,0.325,-5.337
0.160,0.044,0.327,-5.337
0.238,0.042,0.324,-5.337
0.263,0.040,0.320,-5.337
0.236,0.037,0.320,-5.337
0.254,0.037,0.320,-5.337
0.247,0.037,0.320,-5.337
0.251,0.039,0.319,-5.337
0.235,0.042,0.318,-5.337
0.145,0.044,0.317,-5.337
0.174,0.040,0.323,-5.337
0.292,0.038,0.325,-5.337
0.257,0.039,0.326,-5.337
0.164,0.040,0.325,-5.337
0.128,0.043,0.326,-5.337
0.182,0.041,0.323,-5.337
0.201,0.040,0.321,-5.337
0.172,0.039,0.322,-5.337
0.192,0.042,0.325,-5.337
0.224,0.038,0.322,-5.337
0.173,0.040,0.317,-5.337
0.105,0.040,0.317,-5.337
0.148,0.037,0.321,-5.337
0.235,0.036,0.322,-5.337
0.261,0.037,0.323,-5.337
0.256,0.037,0.321,-5.337
0.203,0.040,0.319,-5.337
0.197,0.038,0.319,-5.337
0.213,0.037,0.320,-5.337
0.256,0.034,0.323,-5.337
0.230,0.037,0.323,-5.337
0.202,0.035,0.324,-5.337
0.240,0.033,0.327,-5.337
0.308,0.035,0.325,-5.337
0.233,0.037,0.319,-5.337
0.202,0.037,0.318,-5.337
0.252,0.036,0.319,-5.337
0.263,0.035,0.322,-5.337
0.286,0.034,0.322,-5.337
0.265,0.037,0.323,-5.337
0.243,0.036,0.321,-5.337
0.234,0.038,0.320,-5.337
0.265,0.037,0.324,-5.337
0.240,0.034,0.326,-5.337
0.218,0.035,0.322,-5.337
0.198,0.036,0.319,-5.337
0.154,0.036,0.321,-5.337
0.249,0.034,0.325,-5.337
0.281,0.033,0.323,-5.337
0.264,0.033,0.319,-5.337
0.204,0.034,0.317,-5.337
0.169,0.036,0.319,-5.337
0.195,0.038,0.317,-5.337
0.222,0.040,0.317,-5.337
0.125,0.042,0.321,-5.337
0.072,0.039,0.321,-5.337
0.131,0.037,0.321,-5.337
0.218,0.035,0.320,-5.337
0.196,0.038,0.321,-5.337
0.216,0.038,0.318,-5.337
0.275,0.037,0.319,-5.337
0.258,0.039,0.317,-5.337
0.258,0.038,0.317,-5.337
0.203,0.039,0.317,-5.337
0.131,0.038,0.324,-5.337
0.075,0.038,0.329,-5.337
0.142,0.038,0.326,-5.337
0.274,0.035,0.325,-5.337
0.247,0.034,0.328,-5.337
0.215,0.034,0.323,-5.337
0.242,0.035,0.315,-5.337
0.237,0.035,0.315,-5.337
0.191,0.036,0.322,-5.337
0.207,0.035,0.325,-5.337
0.298,0.032,0.321,-5.337
0.285,0.033,0.322,-5.337
0.241,0.032,0.323,-5.337
0.281,0.029,0.324,-5.337
0.299,0.032,0.322,-5.337
0.250,0.033,0.320,-5.337
0.194,0.032,0.320,-5.337
0.218,0.032,0.322,-5.337
0.243,0.032,0.321,-5.337
0.219,0.034,0.317,-5.337
0.267,0.033,0.315,-5.337
0.266,0.036,0.316,-5.337
0.196,0.041,0.318,-5.337
0.181,0.042,0.316,-5.337
0.242,0.040,0.314,-5.337
0.255,0.039,0.318,-5.337
0.206,0.039,0.321,-5.337
0.150,0.042,0.328,-5.337
0.155,0.044,0.330,-5.337
0.256,0.043,0.327,-5.337
0.225,0.042,0.322,-5.337
0.111,0.041,0.320,-5.337
0.114,0.039,0.320,-5.337
0.172,0.039,0.319,-5.337
0.113,0.042,0.317,-5.337
0.158,0.044,0.322,-5.337
0.262,0.042,0.323,-5.337
0.264,0.040,0.316,-5.337
0.198,0.042,0.319,-5.337
0.140,0.045,0.322,-5.337
0.153,0.046,0.318,-5.337
0.137,0.044,0.314,-5.337
0.148,0.039,0.319,-5.337
0.188,0.040,0.320,-5.337
0.242,0.042,0.321,-5.337
0.179,0.043,0.323,-5.337
0.073,0.047,0.324,-5.337
0.161,0.042,0.324,-5.337
0.195,0.042,0.323,-5.337
0.075,0.043,0.321,-5.337
0.042,0.046,0.321,-5.337
0.148,0.044,0.322,-5.337
0.175,0.044,0.324,-5.337
0.159,0.043,0.322,-5.337
0.170,0.042,0.323,-5.337
0.254,0.042,0.321,-5.337
0.308,0.040,0.320,-5.337
0.270,0.043,0.317,-5.337
0.231,0.042,0.316,-5.337
0.245,0.040,0.317,-5.337
0.158,0.048,0.318,-5.337
0.176,0.048,0.321,-5.337
0.276,0.046,0.323,-5.337
0.298,0.043,0.328,-5.337
0.281,0.046,0.326,-5.337
0.235,0.049,0.320,-5.337
0.201,0.048,0.320,-5.337
0.161,0.048,0.320,-5.337
0.222,0.048,0.318,-5.337
0.319,0.047,0.317,-5.337
0.215,0.050,0.319,-5.337
0.186,0.049,0.317,-5.337
0.221,0.050,0.317,-5.337
0.231,0.052,0.322,-5.337
0.270,0.050,0.328,-5.337
0.282,0.051,0.328,-5.337
0.185,0.052,0.322,-5.337
0.172,0.050,0.321,-5.337
0.175,0.052,0.324,-5.337
0.150,0.052,0.325,-5.337
0.162,0.048,0.325,-5.337
0.176,0.046,0.322,-5.337
0.194,0.046,0.317,-5.337
0.213,0.047,0.314,-5.337
0.202,0.045,0.317,-5.337
0.137,0.046,0.318,-5.337
0.175,0.048,0.321,-5.337
0.208,0.049,0.322,-5.337
0.124,0.053,0.324,-5.337
0.131,0.052,0.325,-5.337
0.214,0.053,0.328,-5.337
0.143,0.053,0.324,-5.337
0.102,0.054,0.319,-5.337
0.103,0.056,0.319,-5.337
0.127,0.054,0.325,-5.337
0.254,0.047,0.327,-5.337
0.338,0.044,0.323,-5.337
0.249,0.044,0.316,-5.337
0.138,0.049,0.317,-5.337
0.105,0.052,0.323,-5.337
0.166,0.049,0.325,-5.337
0.190,0.051,0.326,-5.337
0.160,0.050,0.324,-5.337
0.142,0.050,0.321,-5.337
0.168,0.050,0.318,-5.337
0.145,0.049,0.318,-5.337
0.170,0.049,0.320,-5.337
0.192,0.052,0.323,-5.337
0.137,0.054,0.321,-5.337
0.143,0.051,0.320,-5.337
0.163,0.050,0.321,-5.337
0.179,0.051,0.324,-5.337
0.176,0.049,0.319,-5.337
0.134,0.050,0.314,-5.337
0.159,0.048,0.316,-5.337
0.176,0.052,0.320,-5.337
0.152,0.050,0.322,-5.337
0.134,0.051,0.324,-5.337
0.118,0.051,0.322,-5.337
0.103,0.053,0.321,-5.337
0.128,0.052,0.320,-5.337
0.185,0.056,0.321,-5.337
0.188,0.057,0.320,-5.337
0.198,0.054,0.323,-5.337
0.210,0.054,0.324,-5.337
0.229,0.053,0.317,-5.337
0.238,0.049,0.318,-5.337
0.253,0.053,0.321,-5.337
0.235,0.055,0.324,-5.337
0.267,0.052,0.324,-5.337
0.310,0.052,0.324,-5.337
0.302,0.053,0.322,-5.337
0.213,0.059,0.320,-5.337
0.082,0.060,0.319,-5.337
0.078,0.059,0.322,-5.337
0.099,0.059,0.320,-5.337
0.122,0.058,0.319,-5.337
0.244,0.052,0.318,-5.337
0.300,0.054,0.322,-5.337
0.186,0.060,0.331,-5.337
0.131,0.061,0.330,-5.337
0.127,0.058,0.320,-5.337
0.177,0.056,0.314,-5.337
0.288,0.055,0.311,-5.337
0.332,0.054,0.314,-5.337
0.325,0.053,0.317,-5.337
0.297,0.052,0.319,-5.337
0.213,0.056,0.320,-5.337
0.190,0.055,0.320,-5.337
0.224,0.052,0.319,-5.337
0.217,0.053,0.321,-5.337
0.212,0.053,0.327,-5.337
0.250,0.051,0.327,-5.337
0.219,0.054,0.325,-5.337
0.121,0.056,0.320,-5.337
0.040,0.055,0.319,-5.337
0.188,0.051,0.317,-5.337
0.308,0.050,0.314,-5.337
0.216,0.054,0.313,-5.337
0.147,0.054,0.318,-5.337
0.210,0.054,0.323,-5.337
0.234,0.055,0.325,-5.337
0.238,0.056,0.322,-5.337
0.237,0.057,0.319,-5.337
0.209,0.053,0.323,-5.337
0.165,0.057,0.327,-5.337
0.200,0.058,0.325,-5.337
0.207,0.058,0.327,-5.337
0.167,0.056,0.327,-5.337
0.115,0.056,0.322,-5.337
0.137,0.057,0.317,-5.337
0.177,0.058,0.318,-5.337
0.103,0.059,0.319,-5.337
0.142,0.057,0.319,-5.337
0.198,0.056,0.321,-5.337
0.222,0.057,0.321,-5.337
0.175,0.057,0.322,-5.337
0.146,0.060,0.321,-5.337
0.191,0.060,0.320,-5.337
0.223,0.056,0.316,-5.337
0.179,0.055,0.314,-5.337
0.146,0.057,0.315,-5.337
0.161,0.059,0.319,-5.337
0.188,0.059,0.323,-5.337
0.128,0.060,0.322,-5.337
0.153,0.058,0.321,-5.337
0.224,0.056,0.324,-5.337
0.221,0.059,0.321,-5.337
0.183,0.059,0.319,-5.337
0.199,0.056,0.319,-5.337
0.132,0.055,0.320,-5.337
0.064,0.056,0.322,-5.337
0.132,0.055,0.323,-5.337
0.239,0.051,0.323,-5.337
0.264,0.050,0.323,-5.337
0.144,0.056,0.321,-5.337
0.136,0.058,0.320,-5.337
0.214,0.055,0.319,-5.337
0.193,0.054,0.319,-5.337
0.176,0.058,0.319,-5.337
0.161,0.060,0.320,-5.337
0.168,0.060,0.324,-5.337
0.137,0.059,0.324,-5.337
0.095,0.059,0.325,-5.337
0.161,0.059,0.325,-5.337
0.213,0.056,0.325,-5.337
0.192,0.055,0.321,-5.337
0.166,0.055,0.317,-5.337
0.162,0.053,0.315,-5.337
0.246,0.054,0.318,-5.337
0.234,0.056,0.324,-5.337
0.239,0.055,0.325,-5.337
0.264,0.055,0.324,-5.337
0.202,0.056,0.325,-5.337
0.217,0.056,0.325,-5.337
0.269,0.051,0.322,-5.337
0.209,0.054,0.321,-5.337
0.138,0.056,0.323,-5.337
0.181,0.056,0.324,-5.337
0.164,0.058,0.321,-5.337
0.168,0.057,0.319,-5.337
0.201,0.054,0.317,-5.337
0.213,0.052,0.320,-5.337
0.201,0.054,0.318,-5.337
0.167,0.059,0.320,-5.337
0.208,0.059,0.322,-5.337
0.169,0.058,0.323,-5.337
0.125,0.056,0.322,-5.337
0.112,0.058,0.321,-5.337
0.168,0.055,0.322,-5.337
0.185,0.054,0.323,-5.337
0.165,0.052,0.322,-5.337
0.243,0.051,0.321,-5.337
0.170,0.052,0.320,-5.337
0.177,0.054,0.319,-5.337
0.195,0.053,0.318,-5.337
0.274,0.050,0.318,-5.337
0.260,0.050,0.321,-5.337
0.195,0.053,0.323,-5.337
0.123,0.057,0.321,-5.337
0.154,0.056,0.317,-5.337
0.225,0.052,0.318,-5.337
0.204,0.052,0.320,-5.337
0.153,0.057,0.325,-5.337
0.242,0.060,0.324,-5.337
0.268,0.060,0.321,-5.337
0.214,0.055,0.318,-5.337
0.181,0.056,0.318,-5.337
0.205,0.054,0.319,-5.337
0.240,0.056,0.321,-5.337
0.252,0.052,0.321,-5.337
0.240,0.051,0.321,-5.337
0.224,0.053,0.321,-5.337
0.270,0.054,0.319,-5.337
0.245,0.053,0.317,-5.337
0.238,0.053,0.315,-5.337
0.242,0.053,0.317,-5.337
0.150,0.056,0.320,-5.337
0.097,0.055,0.321,-5.337
0.083,0.053,0.320,-5.337
0.100,0.051,0.318,-5.337
0.172,0.052,0.317,-5.337
0.224,0.052,0.320,-5.337
0.218,0.053,0.319,-5.337
0.209,0.050,0.318,-5.337
0.142,0.053,0.319,-5.337
0.143,0.053,0.323,-5.337
0.204,0.052,0.323,-5.337
0.190,0.050,0.322,-5.337
0.177,0.052,0.319,-5.337
0.238,0.054,0.318,-5.337
0.292,0.052,0.318,-5.337
0.267,0.050,0.320,-5.337
0.263,0.050,0.319,-5.337
0.263,0.053,0.319,-5.337
0.235,0.052,0.318,-5.337
0.186,0.049,0.318,-5.337
0.154,0.049,0.319,-5.337
0.115,0.048,0.316,-5.337
0.118,0.044,0.318,-5.337
0.180,0.045,0.321,-5.337
0.234,0.039,0.320,-5.337
0.250,0.041,0.318,-5.337
0.177,0.042,0.317,-5.337
0.146,0.045,0.318,-5.337
0.180,0.045,0.320,-5.337
0.177,0.046,0.320,-5.337
0.143,0.046,0.319,-5.337
0.146,0.047,0.317,-5.337
0.145,0.048,0.318,-5.337
0.195,0.047,0.318,-5.337
0.220,0.046,0.316,-5.337
0.259,0.046,0.317,-5.337
0.163,0.047,0.320,-5.337
0.223,0.046,0.320,-5.337
0.277,0.046,0.319,-5.337
0.219,0.048,0.317,-5.337
0.177,0.048,0.319,-5.337
0.171,0.046,0.320,-5.337
0.231,0.043,0.320,-5.337
0.253,0.047,0.319,-5.337
0.239,0.046,0.323,-5.337
0.243,0.044,0.324,-5.337
0.125,0.046,0.325,-5.337
0.098,0.048,0.323,-5.337
0.212,0.044,0.320,-5.337
0.241,0.041,0.318,-5.337
0.208,0.040,0.317,-5.337
0.204,0.042,0.317,-5.337
0.151,0.044,0.318,-5.337
0.179,0.046,0.321,-5.337
0.190,0.044,0.317,-5.337
0.237,0.042,0.315,-5.337
0.237,0.046,0.311,-5.337
0.228,0.046,0.312,-5.337
0.231,0.042,0.316,-5.337
0.248,0.045,0.322,-5.337
0.168,0.049,0.323,-5.337
0.155,0.048,0.321,-5.337
0.170,0.042,0.323,-5.337
0.195,0.041,0.327,-5.337
0.265,0.041,0.325,-5.337
0.284,0.043,0.319,-5.337
0.252,0.039,0.317,-5.337
0.245,0.037,0.320,-5.337
0.188,0.038,0.317,-5.337
0.222,0.042,0.317,-5.337
0.196,0.042,0.323,-5.337
0.213,0.038,0.325,-5.337
0.258,0.038,0.320,-5.337
0.237,0.038,0.317,-5.337
0.231,0.041,0.318,-5.337
0.169,0.044,0.319,-5.337
0.110,0.046,0.320,-5.337
0.148,0.043,0.318,-5.337
0.154,0.040,0.315,-5.337
0.125,0.039,0.316,-5.337
0.184,0.041,0.321,-5.337
0.221,0.042,0.322,-5.337
0.196,0.044,0.326,-5.337
0.207,0.041,0.323,-5.337
0.282,0.040,0.320,-5.337
0.229,0.042,0.318,-5.337
0.158,0.043,0.320,-5.337
0.125,0.044,0.321,-5.337
0.138,0.042,0.320,-5.337
0.138,0.042,0.318,-5.337
0.141,0.042,0.320,-5.337
0.161,0.040,0.322,-5.337
0.173,0.039,0.324,-5.337
0.210,0.037,0.320,-5.337
0.237,0.039,0.317,-5.337
0.257,0.038,0.318,-5.337
0.243,0.039,0.318,-5.337
0.213,0.041,0.320,-5.337
0.265,0.041,0.317,-5.337
0.292,0.041,0.316,-5.337
0.241,0.041,0.319,-5.337
0.195,0.042,0.326,-5.337
0.200,0.044,0.327,-5.337
0.178,0.046,0.325,-5.337
0.174,0.040,0.319,-5.337
0.174,0.043,0.318,-5.337
0.199,0.041,0.322,-5.337
0.194,0.043,0.325,-5.337
0.223,0.039,0.328,-5.337
0.218,0.039,0.326,-5.337
0.231,0.040,0.324,-5.337
0.242,0.040,0.322,-5.337
0.216,0.043,0.319,-5.337
0.237,0.045,0.317,-5.337
0.214,0.047,0.317,-5.337
0.149,0.043,0.318,-5.337
0.195,0.040,0.317,-5.337
0.284,0.041,0.314,-5.337
0.234,0.043,0.319,-5.337
0.185,0.043,0.322,-5.337
0.190,0.041,0.324,-5.337
0.248,0.041,0.323,-5.337
0.240,0.044,0.321,-5.337
0.238,0.042,0.319,-5.337
0.245,0.041,0.321,-5.337
0.162,0.043,0.322,-5.337
0.174,0.038,0.322,-5.337
0.214,0.038,0.320,-5.337
0.120,0.042,0.323,-5.337
0.122,0.041,0.323,-5.337
0.220,0.040,0.322,-5.337
0.211,0.040,0.323,-5.337
0.248,0.039,0.322,-5.337
0.254,0.039,0.320,-5.337
0.232,0.039,0.318,-5.337
0.183,0.041,0.320,-5.337
0.138,0.041,0.324,-5.337
0.177,0.039,0.321,-5.337
0.207,0.041,0.319,-5.337
0.220,0.038,0.323,-5.337
0.243,0.034,0.324,-5.337
0.241,0.034,0.324,-5.337
0.289,0.040,0.323,-5.337
0.302,0.042,0.325,-5.337
0.263,0.039,0.322,-5.337
0.207,0.037,0.321,-5.337
0.205,0.036,0.319,-5.337
0.232,0.036,0.320,-5.337
0.267,0.033,0.317,-5.337
0.309,0.036,0.315,-5.337
0.276,0.037,0.318,-5.337
0.214,0.035,0.324,-5.337
0.166,0.031,0.325,-5.337
0.178,0.033,0.319,-5.337
0.203,0.034,0.317,-5.337
0.158,0.033,0.319,-5.337
0.140,0.034,0.322,-5.337
0.212,0.036,0.328,-5.337
0.294,0.033,0.326,-5.337
0.261,0.033,0.324,-5.337
0.298,0.031,0.321,-5.337
0.311,0.035,0.318,-5.337
0.289,0.035,0.314,-5.337
0.301,0.035,0.317,-5.337
0.317,0.035,0.324,-5.337
0.194,0.038,0.326,-5.337
0.057,0.038,0.327,-5.337
0.144,0.039,0.323,-5.337
0.239,0.035,0.322,-5.337
0.221,0.035,0.324,-5.337
0.220,0.035,0.327,-5.337
0.262,0.035,0.322,-5.337
0.267,0.032,0.317,-5.337
0.231,0.035,0.316,-5.337
0.143,0.034,0.317,-5.337
0.135,0.033,0.316,-5.337
0.149,0.036,0.318,-5.337
0.158,0.038,0.322,-5.337
0.118,0.040,0.324,-5.337
0.075,0.040,0.324,-5.337
0.052,0.041,0.321,-5.337
0.141,0.042,0.319,-5.337
0.260,0.041,0.318,-5.337
0.242,0.040,0.319,-5.337
0.177,0.040,0.321,-5.337
0.280,0.039,0.323,-5.337
0.325,0.042,0.322,-5.337
0.260,0.045,0.322,-5.337
0.191,0.045,0.322,-5.337
0.162,0.040,0.325,-5.337
0.122,0.040,0.323,-5.337
0.136,0.042,0.323,-5.337
0.195,0.043,0.320,-5.337
0.166,0.045,0.325,-5.337
0.174,0.041,0.325,-5.337
0.165,0.042,0.320,-5.337
0.175,0.043,0.319,-5.337
0.224,0.040,0.322,-5.337
0.269,0.035,0.324,-5.337
0.290,0.033,0.322,-5.337
0.246,0.035,0.321,-5.337
0.181,0.036,0.321,-5.337
0.113,0.036,0.319,-5.337
0.148,0.033,0.317,-5.337
0.184,0.033,0.318,-5.337
0.141,0.035,0.316,-5.337
0.176,0.036,0.315,-5.337
0.183,0.038,0.318,-5.337
0.222,0.036,0.320,-5.337
0.246,0.036,0.321,-5.337
0.192,0.038,0.320,-5.337
0.210,0.037,0.321,-5.337
0.186,0.037,0.326,-5.337
0.161,0.037,0.328,-5.337
0.169,0.037,0.328,-5.337
0.258,0.033,0.321,-5.337
0.275,0.035,0.321,-5.337
0.249,0.038,0.322,-5.337
0.216,0.038,0.323,-5.337
0.224,0.036,0.321,-5.337
0.264,0.034,0.322,-5.337
0.256,0.037,0.321,-5.337
0.205,0.038,0.319,-5.337
0.221,0.037,0.320,-5.337
0.234,0.040,0.323,-5.337
0.272,0.038,0.322,-5.337
0.265,0.037,0.323,-5.337
0.156,0.040,0.323,-5.337
0.107,0.040,0.324,-5.337
0.245,0.031,0.326,-5.337
0.343,0.027,0.322,-5.337
0.270,0.034,0.319,-5.337
0.245,0.038,0.320,-5.337
0.275,0.039,0.323,-5.337
0.238,0.037,0.322,-5.337
0.201,0.039,0.321,-5.337
0.207,0.041,0.320,-5.337
0.229,0.038,0.322,-5.337
0.279,0.036,0.324,-5.337
0.252,0.036,0.322,-5.337
0.196,0.037,0.321,-5.337
0.173,0.040,0.321,-5.337
0.176,0.041,0.322,-5.337
0.174,0.039,0.320,-5.337
0.184,0.036,0.314,-5.337
0.206,0.038,0.316,-5.337
0.215,0.039,0.320,-5.337
0.298,0.036,0.321,-5.337
0.272,0.037,0.320,-5.337
0.111,0.042,0.320,-5.337
0.131,0.042,0.321,-5.337
0.247,0.039,0.323,-5.337
0.245,0.042,0.325,-5.337
0.168,0.045,0.324,-5.337
0.129,0.041,0.319,-5.337
0.241,0.038,0.317,-5.337
0.274,0.036,0.318,-5.337
0.188,0.043,0.322,-5.337
0.135,0.041,0.326,-5.337
0.228,0.039,0.322,-5.337
0.225,0.042,0.322,-5.337
0.219,0.042,0.320,-5.337
0.257,0.045,0.321,-5.337
0.226,0.047,0.319,-5.337
0.165,0.047,0.319,-5.337
0.234,0.042,0.317,-5.337
0.274,0.044,0.318,-5.337
0.248,0.047,0.319,-5.337
0.249,0.044,0.318,-5.337
0.292,0.040,0.321,-5.337
0.276,0.040,0.324,-5.337
0.191,0.045,0.324,-5.337
0.117,0.046,0.324,-5.337
0.124,0.046,0.322,-5.337
0.235,0.044,0.322,-5.337
0.251,0.044,0.322,-5.337
0.203,0.046,0.322,-5.337
0.153,0.049,0.320,-5.337
0.063,0.049,0.319,-5.337
0.057,0.047,0.320,-5.337
0.140,0.047,0.319,-5.337
0.227,0.046,0.320,-5.337
0.289,0.043,0.318,-5.337
0.324,0.040,0.317,-5.337
0.357,0.039,0.315,-5.337
0.274,0.046,0.318,-5.337
0.188,0.046,0.322,-5.337
0.213,0.043,0.325,-5.337
0.177,0.041,0.318,-5.337
0.231,0.043,0.316,-5.337
0.273,0.042,0.317,-5.337
0.221,0.043,0.318,-5.337
0.071,0.043,0.320,-5.337
0.082,0.044,0.321,-5.337
0.221,0.042,0.322,-5.337
0.237,0.044,0.326,-5.337
0.219,0.043,0.324,-5.337
0.139,0.047,0.322,-5.337
0.121,0.050,0.320,-5.337
0.164,0.049,0.319,-5.337
0.179,0.045,0.319,-5.337
0.230,0.046,0.321,-5.337
0.248,0.047,0.325,-5.337
0.180,0.045,0.321,-5.337
0.159,0.041,0.315,-5.337
0.219,0.037,0.313,-5.337
0.302,0.039,0.317,-5.337
0.283,0.044,0.319,-5.337
0.165,0.044,0.319,-5.337
0.089,0.043,0.317,-5.337
0.175,0.042,0.318,-5.337
0.219,0.043,0.319,-5.337
0.154,0.049,0.319,-5.337
0.138,0.048,0.315,-5.337
0.245,0.046,0.319,-5.337
0.270,0.047,0.322,-5.337
0.169,0.048,0.323,-5.337
0.150,0.050,0.322,-5.337
0.139,0.051,0.320,-5.337
0.120,0.051,0.320,-5.337
0.123,0.049,0.318,-5.337
0.162,0.047,0.317,-5.337
0.205,0.047,0.318,-5.337
0.083,0.051,0.317,-5.337
0.031,0.054,0.315,-5.337
0.105,0.053,0.317,-5.337
0.193,0.049,0.322,-5.337
0.165,0.045,0.323,-5.337
0.220,0.042,0.320,-5.337
0.199,0.046,0.322,-5.337
0.200,0.044,0.320,-5.337
0.179,0.047,0.321,-5.337
0.162,0.049,0.321,-5.337
0.254,0.047,0.322,-5.337
0.256,0.049,0.322,-5.337
0.191,0.047,0.324,-5.337
0.232,0.043,0.318,-5.337
0.285,0.045,0.312,-5.337
0.317,0.045,0.313,-5.337
0.308,0.046,0.319,-5.337
0.295,0.047,0.320,-5.337
0.233,0.048,0.319,-5.337
0.175,0.048,0.319,-5.337
0.103,0.047,0.321,-5.337
0.130,0.046,0.322,-5.337
0.215,0.045,0.323,-5.337
0.292,0.044,0.325,-5.337
0.226,0.047,0.324,-5.337
0.140,0.044,0.318,-5.337
0.117,0.044,0.314,-5.337
0.143,0.049,0.313,-5.337
0.218,0.049,0.314,-5.337
0.235,0.050,0.318,-5.337
0.183,0.052,0.319,-5.337
0.144,0.055,0.320,-5.337
0.197,0.056,0.318,-5.337
0.238,0.055,0.321,-5.337
0.234,0.053,0.323,-5.337
0.230,0.052,0.321,-5.337
0.215,0.054,0.319,-5.337
0.268,0.051,0.322,-5.337
0.231,0.052,0.322,-5.337
0.165,0.052,0.323,-5.337
0.160,0.052,0.318,-5.337
0.168,0.055,0.317,-5.337
0.196,0.055,0.317,-5.337
0.226,0.052,0.318,-5.337
0.305,0.047,0.321,-5.337
0.330,0.047,0.321,-5.337
0.222,0.052,0.319,-5.337
0.158,0.057,0.316,-5.337
0.156,0.056,0.314,-5.337
0.158,0.057,0.316,-5.337
0.134,0.057,0.317,-5.337
0.150,0.057,0.314,-5.337
0.221,0.055,0.319,-5.337
0.254,0.058,0.321,-5.337
0.185,0.062,0.323,-5.337
0.084,0.063,0.320,-5.337
0.122,0.060,0.317,-5.337
0.146,0.056,0.315,-5.337
0.220,0.055,0.315,-5.337
0.291,0.052,0.319,-5.337
0.244,0.056,0.322,-5.337
0.164,0.056,0.321,-5.337
0.128,0.054,0.321,-5.337
0.109,0.054,0.321,-5.337
0.136,0.054,0.321,-5.337
0.206,0.054,0.318,-5.337
0.212,0.055,0.318,-5.337
0.185,0.052,0.321,-5.337
0.194,0.052,0.317,-5.337
0.223,0.050,0.318,-5.337
0.291,0.050,0.318,-5.337
0.321,0.048,0.321,-5.337
0.283,0.051,0.318,-5.337
0.132,0.056,0.319,-5.337
0.103,0.057,0.318,-5.337
0.127,0.058,0.322,-5.337
0.112,0.059,0.321,-5.337
0.082,0.059,0.321,-5.337
0.117,0.057,0.321,-5.337
0.173,0.058,0.320,-5.337
0.108,0.063,0.321,-5.337
0.121,0.059,0.320,-5.337
0.215,0.055,0.318,-5.337
0.243,0.054,0.319,-5.337
0.203,0.055,0.320,-5.337
0.176,0.059,0.317,-5.337
0.211,0.058,0.316,-5.337
0.164,0.059,0.317,-5.337
0.084,0.063,0.318,-5.337
0.052,0.064,0.320,-5.337
0.105,0.065,0.320,-5.337
0.201,0.062,0.319,-5.337
0.164,0.059,0.322,-5.337
0.131,0.056,0.323,-5.337
0.141,0.058,0.321,-5.337
0.215,0.059,0.318,-5.337
0.249,0.058,0.317,-5.337
0.219,0.059,0.315,-5.337
0.159,0.059,0.318,-5.337
0.172,0.058,0.321,-5.337
0.211,0.058,0.323,-5.337
0.178,0.057,0.324,-5.337
0.108,0.060,0.326,-5.337
0.076,0.060,0.324,-5.337
0.130,0.060,0.324,-5.337
0.140,0.056,0.323,-5.337
0.149,0.057,0.323,-5.337
0.140,0.061,0.319,-5.337
0.139,0.061,0.320,-5.337
0.207,0.057,0.320,-5.337
0.195,0.056,0.321,-5.337
0.119,0.061,0.321,-5.337
0.130,0.062,0.321,-5.337
0.217,0.057,0.322,-5.337
0.317,0.054,0.321,-5.337
0.330,0.053,0.319,-5.337
0.277,0.059,0.317,-5.337
0.222,0.066,0.320,-5.337
0.188,0.066,0.322,-5.337
0.223,0.062,0.323,-5.337
0.241,0.061,0.320,-5.337
0.188,0.065,0.320,-5.337
0.192,0.066,0.318,-5.337
0.166,0.066,0.320,-5.337
0.224,0.065,0.320,-5.337
0.275,0.067,0.320,-5.337
0.157,0.070,0.321,-5.337
0.122,0.069,0.321,-5.337
0.151,0.070,0.323,-5.337
0.107,0.068,0.323,-5.337
0.155,0.067,0.322,-5.337
0.205,0.064,0.319,-5.337
0.203,0.064,0.318,-5.337
0.170,0.065,0.321,-5.337
0.129,0.063,0.320,-5.337
0.131,0.063,0.318,-5.337
0.202,0.063,0.318,-5.337
0.309,0.064,0.320,-5.337
0.298,0.063,0.321,-5.337
0.267,0.064,0.319,-5.337
0.227,0.064,0.320,-5.337
0.215,0.062,0.323,-5.337
0.251,0.061,0.322,-5.337
0.253,0.063,0.320,-5.337
0.234,0.059,0.322,-5.337
0.251,0.057,0.320,-5.337
0.187,0.061,0.323,-5.337
0.075,0.062,0.325,-5.337
0.131,0.059,0.325,-5.337
0.301,0.057,0.321,-5.337
0.353,0.059,0.317,-5.337
0.149,0.064,0.320,-5.337
0.026,0.067,0.326,-5.337
0.089,0.063,0.327,-5.337
0.127,0.058,0.322,-5.337
0.154,0.062,0.315,-5.337
0.049,0.068,0.313,-5.337
0.026,0.071,0.318,-5.337
0.129,0.067,0.321,-5.337
0.231,0.063,0.320,-5.337
0.245,0.062,0.317,-5.337
0.119,0.065,0.319,-5.337
0.135,0.065,0.322,-5.337
0.282,0.062,0.323,-5.337
0.317,0.060,0.323,-5.337
0.259,0.061,0.322,-5.337
0.192,0.063,0.319,-5.337
0.215,0.066,0.319,-5.337
0.230,0.065,0.317,-5.337
0.205,0.067,0.318,-5.337
0.196,0.066,0.317,-5.337
0.229,0.067,0.318,-5.337
0.223,0.063,0.318,-5.337
0.199,0.065,0.316,-5.337
0.120,0.063,0.315,-5.337
0.182,0.064,0.317,-5.337
0.193,0.069,0.321,-5.337
0.205,0.071,0.322,-5.337
0.222,0.067,0.322,-5.337
0.216,0.066,0.321,-5.337
0.159,0.064,0.317,-5.337
0.176,0.064,0.315,-5.337
0.284,0.060,0.317,-5.337
0.263,0.059,0.322,-5.337
0.218,0.059,0.320,-5.337
0.205,0.060,0.320,-5.337
0.201,0.061,0.322,-5.337
0.147,0.061,0.321,-5.337
0.119,0.062,0.322,-5.337
0.129,0.061,0.319,-5.337
0.180,0.060,0.317,-5.337
0.104,0.062,0.317,-5.337
0.114,0.058,0.321,-5.337
0.203,0.054,0.318,-5.337
0.240,0.054,0.318,-5.337
0.286,0.055,0.319,-5.337
0.171,0.061,0.320,-5.337
0.049,0.060,0.319,-5.337
0.044,0.055,0.317,-5.337
0.114,0.056,0.318,-5.337
0.146,0.061,0.320,-5.337
0.159,0.062,0.322,-5.337
0.171,0.062,0.321,-5.337
0.202,0.060,0.321,-5.337
0.271,0.055,0.320,-5.337
0.294,0.050,0.318,-5.337
0.276,0.052,0.321,-5.337
0.170,0.059,0.323,-5.337
0.101,0.058,0.321,-5.337
0.126,0.055,0.320,-5.337
0.122,0.054,0.321,-5.337
0.123,0.052,0.321,-5.337
0.172,0.053,0.320,-5.337
0.229,0.055,0.323,-5.337
0.208,0.055,0.324,-5.337
0.219,0.051,0.322,-5.337
0.207,0.050,0.319,-5.337
0.199,0.051,0.316,-5.337
0.226,0.049,0.314,-5.337
0.182,0.052,0.314,-5.337
0.241,0.052,0.318,-5.337
0.238,0.055,0.319,-5.337
0.138,0.058,0.317,-5.337
0.118,0.054,0.320,-5.337
0.212,0.053,0.323,-5.337
0.244,0.053,0.324,-5.337
0.219,0.055,0.326,-5.337
0.187,0.054,0.322,-5.337
0.167,0.058,0.320,-5.337
0.185,0.057,0.319,-5.337
0.131,0.056,0.318,-5.337
0.081,0.054,0.313,-5.337
0.113,0.054,0.311,-5.337
0.153,0.053,0.315,-5.337
0.141,0.055,0.320,-5.337
0.076,0.055,0.319,-5.337
0.162,0.055,0.316,-5.337
0.273,0.049,0.315,-5.337
0.320,0.046,0.317,-5.337
0.305,0.045,0.317,-5.337
0.203,0.049,0.319,-5.337
0.210,0.047,0.323,-5.337
0.276,0.050,0.325,-5.337
0.246,0.050,0.322,-5.337
0.224,0.046,0.320,-5.337
0.203,0.047,0.318,-5.337
0.194,0.047,0.315,-5.337
0.222,0.046,0.315,-5.337
0.208,0.044,0.319,-5.337
0.181,0.040,0.323,-5.337
0.163,0.040,0.324,-5.337
0.160,0.041,0.324,-5.337
0.187,0.039,0.320,-5.337
0.186,0.040,0.318,-5.337
0.227,0.042,0.319,-5.337
0.206,0.046,0.322,-5.337
0.161,0.048,0.319,-5.337
0.150,0.046,0.318,-5.337
0.145,0.043,0.317,-5.337
0.150,0.042,0.317,-5.337
0.206,0.039,0.318,-5.337
0.310,0.042,0.317,-5.337
0.290,0.041,0.314,-5.337
0.171,0.043,0.317,-5.337
0.189,0.043,0.320,-5.337
0.253,0.044,0.318,-5.337
0.151,0.047,0.316,-5.337
0.153,0.043,0.316,-5.337
0.207,0.044,0.317,-5.337
0.221,0.043,0.321,-5.337
0.208,0.044,0.322,-5.337
0.183,0.042,0.321,-5.337
0.161,0.044,0.320,-5.337
0.236,0.046,0.319,-5.337
0.233,0.046,0.322,-5.337
0.275,0.046,0.325,-5.337
0.304,0.046,0.322,-5.337
0.236,0.047,0.320,-5.337
0.177,0.048,0.320,-5.337
0.143,0.042,0.319,-5.337
0.169,0.044,0.317,-5.337
0.168,0.048,0.316,-5.337
0.190,0.048,0.319,-5.337
0.229,0.041,0.318,-5.337
0.252,0.041,0.321,-5.337
0.214,0.046,0.322,-5.337
0.204,0.046,0.322,-5.337
0.235,0.042,0.316,-5.337
0.261,0.039,0.311,-5.337
0.251,0.042,0.313,-5.337
0.201,0.043,0.319,-5.337
0.188,0.043,0.322,-5.337
0.168,0.046,0.324,-5.337
0.178,0.046,0.324,-5.337
0.167,0.045,0.321,-5.337
0.136,0.049,0.317,-5.337
0.099,0.046,0.316,-5.337
0.156,0.044,0.318,-5.337
0.263,0.043,0.321,-5.337
0.311,0.042,0.322,-5.337
0.258,0.039,0.318,-5.337
0.239,0.042,0.321,-5.337
0.253,0.041,0.323,-5.337
0.254,0.039,0.323,-5.337
0.145,0.042,0.321,-5.337
0.032,0.043,0.320,-5.337
0.108,0.038,0.319,-5.337
0.178,0.041,0.324,-5.337
0.139,0.043,0.325,-5.337
0.120,0.042,0.324,-5.337
0.183,0.039,0.322,-5.337
0.250,0.040,0.321,-5.337
0.263,0.042,0.318,-5.337
0.192,0.045,0.319,-5.337
0.198,0.043,0.319,-5.337
0.209,0.044,0.316,-5.337
0.166,0.044,0.316,-5.337
0.206,0.043,0.321,-5.337
0.156,0.045,0.326,-5.337
0.177,0.046,0.327,-5.337
0.205,0.047,0.322,-5.337
0.246,0.043,0.317,-5.337
0.212,0.043,0.318,-5.337
0.155,0.043,0.320,-5.337
0.199,0.040,0.324,-5.337
0.162,0.040,0.324,-5.337
0.129,0.038,0.323,-5.337
0.124,0.040,0.319,-5.337
0.170,0.038,0.316,-5.337
0.192,0.036,0.313,-5.337
0.157,0.039,0.313,-5.337
0.149,0.039,0.318,-5.337
0.232,0.040,0.322,-5.337
0.249,0.039,0.321,-5.337
0.173,0.044,0.319,-5.337
0.154,0.043,0.318,-5.337
0.178,0.042,0.315,-5.337
0.163,0.041,0.315,-5.337
0.142,0.038,0.322,-5.337
0.140,0.039,0.324,-5.337
0.134,0.037,0.322,-5.337
0.130,0.037,0.320,-5.337
0.210,0.036,0.320,-5.337
0.250,0.037,0.323,-5.337
0.206,0.035,0.321,-5.337
0.210,0.035,0.319,-5.337
0.251,0.039,0.320,-5.337
0.240,0.040,0.324,-5.337
0.205,0.039,0.323,-5.337
0.235,0.035,0.322,-5.337
0.300,0.035,0.318,-5.337
0.320,0.038,0.319,-5.337
0.246,0.040,0.320,-5.337
0.274,0.041,0.320,-5.337
0.203,0.041,0.319,-5.337
0.188,0.040,0.319,-5.337
0.224,0.037,0.320,-5.337
0.236,0.041,0.321,-5.337
0.226,0.040,0.322,-5.337
0.199,0.037,0.323,-5.337
0.141,0.037,0.321,-5.337
0.091,0.041,0.319,-5.337
0.075,0.040,0.322,-5.337
0.183,0.037,0.324,-5.337
0.253,0.032,0.321,-5.337
0.277,0.033,0.318,-5.337
0.263,0.035,0.322,-5.337
0.186,0.038,0.324,-5.337
0.236,0.042,0.323,-5.337
0.281,0.043,0.322,-5.337
0.292,0.044,0.323,-5.337
0.185,0.041,0.320,-5.337
0.252,0.039,0.318,-5.337
0.329,0.035,0.316,-5.337
0.325,0.038,0.322,-5.337
0.221,0.041,0.325,-5.337
0.206,0.039,0.323,-5.337
0.203,0.039,0.321,-5.337
0.232,0.039,0.320,-5.337
0.227,0.040,0.322,-5.337
0.205,0.040,0.322,-5.337
0.160,0.036,0.320,-5.337
0.136,0.039,0.320,-5.337
0.220,0.037,0.322,-5.337
0.293,0.037,0.323,-5.337
0.198,0.039,0.323,-5.337
0.140,0.039,0.320,-5.337
0.133,0.038,0.316,-5.337
0.148,0.039,0.319,-5.337
0.181,0.038,0.324,-5.337
0.181,0.038,0.323,-5.337
0.248,0.038,0.321,-5.337
0.242,0.036,0.321,-5.337
0.251,0.035,0.322,-5.337
0.251,0.035,0.321,-5.337
0.250,0.034,0.319,-5.337
0.249,0.038,0.316,-5.337
0.213,0.044,0.320,-5.337
0.169,0.041,0.326,-5.337
0.214,0.034,0.325,-5.337
0.199,0.034,0.323,-5.337
0.117,0.040,0.322,-5.337
0.147,0.040,0.320,-5.337
0.210,0.040,0.319,-5.337
0.199,0.041,0.317,-5.337
0.193,0.042,0.319,-5.337
0.242,0.039,0.321,-5.337
0.249,0.040,0.325,-5.337
0.193,0.039,0.326,-5.337
0.176,0.039,0.325,-5.337
0.186,0.040,0.322,-5.337
0.174,0.041,0.318,-5.337
0.176,0.041,0.312,-5.337
0.188,0.039,0.314,-5.337
0.202,0.043,0.321,-5.337
0.188,0.044,0.324,-5.337
0.163,0.043,0.323,-5.337
0.152,0.042,0.320,-5.337
0.205,0.042,0.320,-5.337
0.247,0.041,0.321,-5.337
0.179,0.043,0.319,-5.337
0.083,0.041,0.318,-5.337
0.153,0.040,0.314,-5.337
0.194,0.041,0.312,-5.337
0.192,0.042,0.315,-5.337
0.186,0.038,0.320,-5.337
0.235,0.035,0.324,-5.337
0.262,0.037,0.325,-5.337
0.306,0.034,0.320,-5.337
0.339,0.030,0.318,-5.337
0.293,0.034,0.320,-5.337
0.187,0.033,0.323,-5.337
0.206,0.031,0.325,-5.337
0.258,0.033,0.325,-5.337
0.320,0.036,0.320,-5.337
0.232,0.039,0.315,-5.337
0.126,0.043,0.312,-5.337
0.136,0.043,0.316,-5.337
0.174,0.043,0.315,-5.337
0.105,0.045,0.319,-5.337
0.054,0.041,0.318,-5.337
0.079,0.041,0.319,-5.337
0.117,0.041,0.320,-5.337
0.188,0.041,0.323,-5.337
0.234,0.040,0.322,-5.337
0.221,0.043,0.317,-5.337
0.220,0.039,0.316,-5.337
0.184,0.036,0.319,-5.337
0.154,0.040,0.318,-5.337
0.148,0.042,0.321,-5.337
0.187,0.038,0.326,-5.337
0.225,0.034,0.325,-5.337
0.302,0.037,0.322,-5.337
0.303,0.042,0.319,-5.337
0.168,0.042,0.318,-5.337
0.152,0.039,0.318,-5.337
0.222,0.037,0.320,-5.337
0.247,0.038,0.319,-5.337
0.245,0.040,0.320,-5.337
0.205,0.040,0.319,-5.337
0.163,0.041,0.320,-5.337
0.159,0.040,0.317,-5.337
0.220,0.038,0.317,-5.337
0.237,0.040,0.317,-5.337
0.182,0.042,0.317,-5.337
0.200,0.039,0.318,-5.337
0.272,0.036,0.315,-5.337
0.255,0.039,0.314,-5.337
0.152,0.045,0.317,-5.337
0.126,0.044,0.315,-5.337
0.147,0.042,0.311,-5.337
0.131,0.042,0.312,-5.337
0.098,0.045,0.321,-5.337
0.200,0.045,0.325,-5.337
0.214,0.042,0.322,-5.337
0.229,0.039,0.320,-5.337
0.267,0.042,0.318,-5.337
0.270,0.040,0.320,-5.337
0.267,0.040,0.320,-5.337
0.229,0.042,0.322,-5.337
0.197,0.043,0.323,-5.337
0.198,0.041,0.324,-5.337
0.198,0.044,0.321,-5.337
0.164,0.044,0.315,-5.337
0.174,0.046,0.316,-5.337
0.234,0.044,0.321,-5.337
0.241,0.044,0.321,-5.337
0.176,0.047,0.318,-5.337
0.172,0.043,0.319,-5.337
0.184,0.043,0.323,-5.337
0.143,0.043,0.324,-5.337
0.126,0.045,0.322,-5.337
0.235,0.044,0.319,-5.337
0.323,0.042,0.321,-5.337
0.322,0.045,0.325,-5.337
0.248,0.046,0.323,-5.337
0.188,0.044,0.319,-5.337
0.140,0.048,0.315,-5.337
0.095,0.049,0.313,-5.337
0.114,0.047,0.314,-5.337
0.104,0.043,0.314,-5.337
0.097,0.047,0.317,-5.337
0.085,0.050,0.321,-5.337
0.124,0.046,0.320,-5.337
0.210,0.040,0.320,-5.337
0.283,0.041,0.319,-5.337
0.309,0.043,0.322,-5.337
0.225,0.045,0.320,-5.337
0.168,0.046,0.318,-5.337
0.198,0.042,0.315,-5.337
0.168,0.046,0.318,-5.337
0.161,0.046,0.324,-5.337
0.190,0.046,0.326,-5.337
0.199,0.048,0.320,-5.337
0.216,0.047,0.318,-5.337
0.215,0.047,0.318,-5.337
0.188,0.047,0.316,-5.337
0.212,0.045,0.317,-5.337
0.173,0.045,0.318,-5.337
0.152,0.048,0.316,-5.337
0.153,0.049,0.317,-5.337
0.196,0.048,0.320,-5.337
0.126,0.048,0.322,-5.337
0.080,0.051,0.320,-5.337
0.097,0.051,0.318,-5.337
0.186,0.048,0.317,-5.337
0.231,0.045,0.315,-5.337
0.257,0.044,0.315,-5.337
0.247,0.046,0.317,-5.337
0.228,0.044,0.319,-5.337
0.237,0.043,0.316,-5.337
0.267,0.046,0.315,-5.337
0.247,0.043,0.316,-5.337
0.176,0.046,0.321,-5.337
0.192,0.049,0.323,-5.337
0.245,0.047,0.323,-5.337
0.276,0.045,0.319,-5.337
0.253,0.048,0.313,-5.337
0.277,0.048,0.313,-5.337
0.211,0.052,0.312,-5.337
0.146,0.050,0.312,-5.337
0.147,0.050,0.317,-5.337
0.166,0.051,0.321,-5.337
0.235,0.052,0.322,-5.337
0.185,0.059,0.319,-5.337
0.108,0.056,0.316,-5.337
0.159,0.053,0.316,-5.337
0.215,0.053,0.316,-5.337
0.191,0.052,0.315,-5.337
0.190,0.053,0.318,-5.337
0.161,0.055,0.322,-5.337
0.117,0.053,0.317,-5.337
0.110,0.053,0.316,-5.337
0.114,0.052,0.317,-5.337
0.181,0.052,0.319,-5.337
0.169,0.050,0.319,-5.337
0.117,0.049,0.322,-5.337
0.100,0.052,0.323,-5.337
0.087,0.052,0.319,-5.337
0.119,0.048,0.315,-5.337
0.154,0.051,0.317,-5.337
0.167,0.050,0.315,-5.337
0.205,0.048,0.312,-5.337
0.233,0.050,0.309,-5.337
0.275,0.052,0.310,-5.337
0.254,0.052,0.314,-5.337
0.204,0.052,0.319,-5.337
0.227,0.053,0.320,-5.337
0.221,0.057,0.316,-5.337
0.166,0.056,0.314,-5.337
0.117,0.058,0.317,-5.337
0.123,0.057,0.321,-5.337
0.188,0.055,0.322,-5.337
0.193,0.054,0.322,-5.337
0.203,0.055,0.317,-5.337
0.218,0.056,0.317,-5.337
0.188,0.054,0.322,-5.337
0.211,0.053,0.323,-5.337
0.221,0.059,0.321,-5.337
0.223,0.061,0.318,-5.337
0.200,0.058,0.314,-5.337
0.197,0.059,0.312,-5.337
0.246,0.060,0.314,-5.337
0.290,0.064,0.317,-5.337
0.201,0.067,0.317,-5.337
0.114,0.065,0.318,-5.337
0.101,0.064,0.316,-5.337
0.124,0.064,0.315,-5.337
0.159,0.064,0.318,-5.337
0.126,0.064,0.320,-5.337
0.183,0.061,0.321,-5.337
0.237,0.062,0.318,-5.337
0.182,0.063,0.321,-5.337
0.232,0.057,0.323,-5.337
0.339,0.057,0.322,-5.337
0.339,0.061,0.318,-5.337
0.222,0.062,0.313,-5.337
0.160,0.063,0.313,-5.337
0.189,0.064,0.317,-5.337
0.233,0.063,0.321,-5.337
0.199,0.065,0.321,-5.337
0.179,0.061,0.321,-5.337
0.098,0.062,0.320,-5.337
0.049,0.062,0.316,-5.337
0.052,0.067,0.314,-5.337
0.189,0.065,0.317,-5.337
0.161,0.066,0.317,-5.337
0.163,0.061,0.318,-5.337
0.202,0.058,0.318,-5.337
0.192,0.062,0.316,-5.337
0.205,0.063,0.320,-5.337
0.153,0.064,0.323,-5.337
0.123,0.060,0.320,-5.337
0.175,0.056,0.319,-5.337
0.233,0.062,0.318,-5.337
0.198,0.067,0.317,-5.337
0.193,0.066,0.316,-5.337
0.245,0.063,0.316,-5.337
0.308,0.065,0.317,-5.337
0.317,0.067,0.317,-5.337
0.220,0.068,0.316,-5.337
0.246,0.066,0.317,-5.337
0.277,0.069,0.316,-5.337
0.195,0.071,0.316,-5.337
0.131,0.067,0.313,-5.337
0.178,0.067,0.317,-5.337
0.191,0.065,0.320,-5.337
0.184,0.068,0.320,-5.337
0.184,0.070,0.318,-5.337
0.183,0.071,0.318,-5.337
0.244,0.068,0.319,-5.337
0.240,0.069,0.324,-5.337
0.120,0.071,0.325,-5.337
