[Parameters]
Operating Mode, Feedback
Subject  AA..ZZ, WT
Session  0..99, 42
No. Trials (1..9999), 500
Mouse Number, 1
Pressure Probe Serial Port, \00\00\00\04COM4
Save additional csv file, TRUE
Save using mouse number, FALSE
A/D Monitor Rate (Hz), 30000.000000
A/D Stimulate Rate (Hz), 30000.000000
A/D input range (+/- V), 5
No. Channels to acquire (N), 2
Pre-Stim Acq. time (ms), 100.000000
Post-Stim Acq. time (ms), 900.000000
Analysis window parameters.M-response Start (ms), 1.100000
Analysis window parameters.M-response Duration (ms), 5.500000
Analysis window parameters.H-response Duration (ms), 6.000000
Analysis window parameters.H-response Start (ms), 6.500000
Feedback window, H response
Proportional gain, 0.100000
Target value, 6.700000
Feedback Ch., 1
Stim Channel to Control (1-4), 4
Trial, 23
Wait for EMG Conditions, FALSE
Channel to monitor (0 - N-1), 1
EMG Hi Limit, 2.000000
EMG Lo Limit, 0.001000
Inter-Stim delay (sec), 10.000000
EMG Monitor Mode, Mean
Time to run Long Stim.(sec), 30
Save Long Stim Data?, OFF
BURST Save time (ms), 1000
BURST Save Interval (x above), 10
Long-Stim. Rep. Rate (Hz), 10.000000
Stim type cluster array.<size(s)>, 4
Stim type cluster array 0.Stimulus Output, Electrical
Stim type cluster array 1.Stimulus Output, OFF
Stim type cluster array 2.Stimulus Output, OFF
Stim type cluster array 3.Stimulus Output, Motor Length
Stim specs cluster array.<size(s)>, 4
Stim specs cluster array 0.Initial Stimulus ampl., 0.300000
Stim specs cluster array 0.Maximum Stimulus, 1.120000
Stim specs cluster array 0.#Pulses in train, 4
Stim specs cluster array 0.Peak Level time (ms), 1.000000
Stim specs cluster array 0.Total pulse period (ms), 150.000000
Stim specs cluster array 0.Start Delay (ms), -50.000000
Stim specs cluster array 0.Pulse Shape, Square
Stim specs cluster array 0.Ramp/Rel. time (ms), 0.100000
Stim specs cluster array 0.Peak Amplitude (V), 0.120000
Stim specs cluster array 1.Initial Stimulus ampl., 0.000000
Stim specs cluster array 1.Maximum Stimulus, 0.000000
Stim specs cluster array 1.#Pulses in train, 3
Stim specs cluster array 1.Peak Level time (ms), 29.000000
Stim specs cluster array 1.Total pulse period (ms), 200.000000
Stim specs cluster array 1.Start Delay (ms), 0.000000
Stim specs cluster array 1.Pulse Shape, Square
Stim specs cluster array 1.Ramp/Rel. time (ms), 0.000000
Stim specs cluster array 1.Peak Amplitude (V), 2.000000
Stim specs cluster array 2.Initial Stimulus ampl., 0.000000
Stim specs cluster array 2.Maximum Stimulus, 0.000000
Stim specs cluster array 2.#Pulses in train, 1
Stim specs cluster array 2.Peak Level time (ms), 25.000000
Stim specs cluster array 2.Total pulse period (ms), 200.000000
Stim specs cluster array 2.Start Delay (ms), 0.000000
Stim specs cluster array 2.Pulse Shape, Square
Stim specs cluster array 2.Ramp/Rel. time (ms), 20.000000
Stim specs cluster array 2.Peak Amplitude (V), 10.000000
Stim specs cluster array 3.Initial Stimulus ampl., 0.000000
Stim specs cluster array 3.Maximum Stimulus, 20.000000
Stim specs cluster array 3.#Pulses in train, 25
Stim specs cluster array 3.Peak Level time (ms), 0.100000
Stim specs cluster array 3.Total pulse period (ms), 4.000000
Stim specs cluster array 3.Start Delay (ms), 205.000000
Stim specs cluster array 3.Pulse Shape, Triangle
Stim specs cluster array 3.Ramp/Rel. time (ms), 3.000000
Stim specs cluster array 3.Peak Amplitude (V), 0.500000
Force cal. (mN/Volt), 100.000000
Force Range (mN), 100.000000
Length cal. (mm/Volt), 10.000000
Length Range (mm), 10.000000
Stim. 1, 0.300000
Stim. 2, 0.000000
Stim. 3, 0.000000
Stim. 4, 0.000000
Monitor acquire time (ms), 100.000000
EMG graph Ymax, 0.100000
Travel limit (mm), 20.000000
Use Pressure Probe, FALSE
Pressure goal (g), 100
Speed (mm/sec), 5.000000
Dwell time (ms), 100.000000
Pressure limit (g), 500.000000
Channel amplitude offset, 0.000000

[DATA]

0.123,0.040,0.313,-5.337
0.103,0.041,0.314,-5.337
0.177,0.040,0.312,-5.337
0.202,0.043,0.308,-5.337
0.189,0.041,0.310,-5.337
0.221,0.042,0.310,-5.337
0.245,0.040,0.308,-5.337
0.240,0.040,0.313,-5.337
0.189,0.042,0.318,-5.337
0.192,0.041,0.314,-5.337
0.266,0.036,0.308,-5.337
0.240,0.036,0.306,-5.337
0.205,0.037,0.311,-5.337
0.151,0.038,0.315,-5.337
0.173,0.037,0.316,-5.337
0.173,0.040,0.311,-5.337
0.103,0.044,0.311,-5.337
0.119,0.042,0.311,-5.337
0.203,0.037,0.312,-5.337
0.183,0.038,0.313,-5.337
0.167,0.038,0.314,-5.337
0.192,0.040,0.314,-5.337
0.157,0.039,0.315,-5.337
0.130,0.040,0.316,-5.337
0.163,0.039,0.314,-5.337
0.185,0.038,0.312,-5.337
0.121,0.041,0.313,-5.337
0.167,0.039,0.315,-5.337
0.165,0.039,0.316,-5.337
0.212,0.036,0.316,-5.337
0.225,0.037,0.315,-5.337
0.214,0.038,0.312,-5.337
0.194,0.038,0.308,-5.337
0.176,0.037,0.304,-5.337
0.267,0.032,0.305,-5.337
0.340,0.031,0.308,-5.337
0.225,0.034,0.309,-5.337
0.151,0.036,0.309,-5.337
0.143,0.039,0.311,-5.337
0.169,0.038,0.314,-5.337
0.120,0.034,0.310,-5.337
0.092,0.034,0.310,-5.337
0.126,0.036,0.309,-5.337
0.172,0.035,0.312,-5.337
0.241,0.034,0.315,-5.337
0.205,0.035,0.317,-5.337
0.170,0.034,0.313,-5.337
0.220,0.034,0.309,-5.337
0.273,0.038,0.303,-5.337
0.254,0.037,0.304,-5.337
0.273,0.035,0.309,-5.337
0.217,0.035,0.313,-5.337
0.146,0.036,0.316,-5.337
0.227,0.036,0.314,-5.337
0.226,0.037,0.309,-5.337
0.171,0.036,0.306,-5.337
0.230,0.033,0.306,-5.337
0.233,0.035,0.312,-5.337
0.188,0.034,0.312,-5.337
0.130,0.035,0.309,-5.337
0.188,0.033,0.310,-5.337
0.228,0.034,0.309,-5.337
0.167,0.039,0.309,-5.337
0.190,0.037,0.310,-5.337
0.262,0.033,0.314,-5.337
0.265,0.034,0.311,-5.337
0.156,0.037,0.312,-5.337
0.094,0.038,0.313,-5.337
0.098,0.041,0.315,-5.337
0.143,0.040,0.312,-5.337
0.254,0.036,0.310,-5.337
0.197,0.035,0.305,-5.337
0.188,0.034,0.303,-5.337
0.259,0.031,0.306,-5.337
0.272,0.036,0.307,-5.337
0.262,0.033,0.307,-5.337
0.302,0.035,0.310,-5.337
0.269,0.039,0.310,-5.337
0.250,0.040,0.311,-5.337
0.196,0.039,0.309,-5.337
0.178,0.039,0.309,-5.337
0.181,0.042,0.310,-5.337
0.236,0.039,0.310,-5.337
0.258,0.042,0.311,-5.337
0.170,0.042,0.309,-5.337
0.138,0.041,0.309,-5.337
0.133,0.041,0.312,-5.337
0.166,0.040,0.311,-5.337
0.198,0.042,0.308,-5.337
0.224,0.040,0.308,-5.337
0.228,0.044,0.306,-5.337
0.176,0.043,0.307,-5.337
0.176,0.040,0.309,-5.337
0.267,0.040,0.311,-5.337
0.327,0.040,0.308,-5.337
0.283,0.045,0.308,-5.337
0.303,0.042,0.312,-5.337
0.351,0.042,0.312,-5.337
0.259,0.044,0.311,-5.337
0.180,0.044,0.309,-5.337
0.109,0.044,0.306,-5.337
0.084,0.045,0.304,-5.337
0.122,0.044,0.305,-5.337
0.253,0.040,0.309,-5.337
0.267,0.039,0.313,-5.337
0.246,0.042,0.315,-5.337
0.239,0.043,0.314,-5.337
0.242,0.042,0.311,-5.337
0.241,0.044,0.308,-5.337
0.190,0.047,0.309,-5.337
0.174,0.046,0.314,-5.337
0.098,0.046,0.312,-5.337
0.088,0.044,0.309,-5.337
0.177,0.042,0.306,-5.337
0.271,0.043,0.307,-5.337
0.219,0.041,0.303,-5.337
0.151,0.039,0.304,-5.337
0.147,0.041,0.311,-5.337
0.233,0.044,0.318,-5.337
0.200,0.046,0.320,-5.337
0.234,0.043,0.316,-5.337
0.220,0.044,0.307,-5.337
0.196,0.049,0.306,-5.337
0.219,0.046,0.308,-5.337
0.186,0.043,0.310,-5.337
0.204,0.039,0.311,-5.337
0.195,0.045,0.313,-5.337
0.128,0.048,0.312,-5.337
0.108,0.047,0.308,-5.337
0.127,0.044,0.310,-5.337
0.186,0.041,0.311,-5.337
0.176,0.044,0.314,-5.337
0.144,0.041,0.316,-5.337
0.165,0.041,0.314,-5.337
0.196,0.043,0.311,-5.337
0.242,0.044,0.311,-5.337
0.218,0.046,0.312,-5.337
0.254,0.044,0.315,-5.337
0.339,0.042,0.314,-5.337
0.281,0.042,0.310,-5.337
0.209,0.046,0.309,-5.337
0.204,0.048,0.310,-5.337
0.190,0.049,0.313,-5.337
0.158,0.048,0.318,-5.337
0.190,0.047,0.315,-5.337
0.175,0.047,0.310,-5.337
0.115,0.052,0.303,-5.337
0.094,0.054,0.306,-5.337
0.129,0.048,0.312,-5.337
0.141,0.049,0.313,-5.337
0.059,0.053,0.310,-5.337
-0.000,0.051,0.308,-5.337
0.077,0.048,0.310,-5.337
0.206,0.044,0.311,-5.337
0.289,0.043,0.312,-5.337
0.284,0.044,0.311,-5.337
0.250,0.049,0.307,-5.337
0.262,0.046,0.306,-5.337
0.264,0.046,0.308,-5.337
0.154,0.049,0.310,-5.337
0.156,0.048,0.313,-5.337
0.152,0.046,0.315,-5.337
0.129,0.048,0.315,-5.337
0.188,0.045,0.313,-5.337
0.216,0.044,0.311,-5.337
0.170,0.045,0.311,-5.337
0.148,0.049,0.315,-5.337
0.186,0.050,0.316,-5.337
0.178,0.046,0.314,-5.337
0.180,0.046,0.310,-5.337
0.168,0.045,0.307,-5.337
0.194,0.047,0.307,-5.337
0.230,0.049,0.308,-5.337
0.212,0.047,0.306,-5.337
0.183,0.047,0.307,-5.337
0.096,0.049,0.313,-5.337
0.120,0.051,0.311,-5.337
0.224,0.045,0.310,-5.337
0.229,0.045,0.311,-5.337
0.191,0.048,0.312,-5.337
0.161,0.049,0.306,-5.337
0.139,0.051,0.305,-5.337
0.164,0.048,0.307,-5.337
0.238,0.042,0.311,-5.337
0.236,0.044,0.310,-5.337
0.141,0.048,0.306,-5.337
0.148,0.048,0.308,-5.337
0.166,0.046,0.309,-5.337
0.220,0.040,0.307,-5.337
0.258,0.043,0.310,-5.337
0.320,0.042,0.309,-5.337
0.321,0.046,0.308,-5.337
0.287,0.045,0.307,-5.337
0.259,0.049,0.311,-5.337
0.232,0.048,0.313,-5.337
0.154,0.051,0.311,-5.337
0.140,0.049,0.311,-5.337
0.206,0.050,0.309,-5.337
0.237,0.053,0.309,-5.337
0.170,0.055,0.309,-5.337
0.155,0.054,0.310,-5.337
0.219,0.052,0.309,-5.337
0.244,0.053,0.309,-5.337
0.186,0.054,0.305,-5.337
0.250,0.052,0.304,-5.337
0.282,0.054,0.305,-5.337
0.221,0.058,0.304,-5.337
0.215,0.050,0.305,-5.337
0.271,0.049,0.310,-5.337
0.255,0.051,0.310,-5.337
0.141,0.054,0.311,-5.337
0.061,0.053,0.312,-5.337
0.105,0.054,0.314,-5.337
0.109,0.056,0.311,-5.337
0.147,0.053,0.306,-5.337
0.154,0.050,0.311,-5.337
0.197,0.052,0.314,-5.337
0.168,0.053,0.310,-5.337
0.096,0.051,0.309,-5.337
0.135,0.051,0.310,-5.337
0.214,0.049,0.308,-5.337
0.244,0.047,0.308,-5.337
0.250,0.048,0.305,-5.337
0.236,0.050,0.305,-5.337
0.187,0.054,0.308,-5.337
0.184,0.052,0.312,-5.337
0.195,0.054,0.315,-5.337
0.156,0.055,0.315,-5.337
0.174,0.054,0.313,-5.337
0.190,0.054,0.313,-5.337
0.227,0.054,0.309,-5.337
0.170,0.057,0.305,-5.337
0.119,0.056,0.304,-5.337
0.192,0.051,0.307,-5.337
0.245,0.050,0.311,-5.337
0.235,0.054,0.310,-5.337
0.213,0.054,0.306,-5.337
0.255,0.054,0.307,-5.337
0.269,0.054,0.309,-5.337
0.272,0.054,0.313,-5.337
0.286,0.057,0.319,-5.337
0.262,0.054,0.317,-5.337
0.175,0.056,0.314,-5.337
0.131,0.055,0.309,-5.337
0.239,0.049,0.308,-5.337
0.261,0.048,0.311,-5.337
0.254,0.053,0.311,-5.337
0.247,0.052,0.308,-5.337
0.156,0.052,0.305,-5.337
0.210,0.051,0.303,-5.337
0.265,0.051,0.306,-5.337
0.219,0.053,0.308,-5.337
0.189,0.052,0.307,-5.337
0.179,0.052,0.305,-5.337
0.183,0.052,0.305,-5.337
0.215,0.051,0.305,-5.337
0.173,0.055,0.309,-5.337
0.157,0.059,0.313,-5.337
0.196,0.059,0.315,-5.337
0.271,0.054,0.315,-5.337
0.250,0.055,0.310,-5.337
0.231,0.056,0.307,-5.337
0.226,0.054,0.306,-5.337
0.188,0.057,0.307,-5.337
0.254,0.054,0.309,-5.337
0.243,0.052,0.314,-5.337
0.181,0.053,0.316,-5.337
0.196,0.053,0.313,-5.337
0.262,0.053,0.310,-5.337
0.212,0.055,0.309,-5.337
0.223,0.054,0.306,-5.337
0.169,0.056,0.307,-5.337
0.120,0.057,0.307,-5.337
0.197,0.054,0.308,-5.337
0.239,0.052,0.312,-5.337
0.194,0.050,0.316,-5.337
0.216,0.051,0.314,-5.337
0.274,0.048,0.315,-5.337
0.269,0.047,0.316,-5.337
0.156,0.054,0.315,-5.337
0.144,0.055,0.309,-5.337
0.171,0.056,0.310,-5.337
0.215,0.057,0.310,-5.337
0.214,0.058,0.309,-5.337
0.154,0.058,0.310,-5.337
0.217,0.057,0.310,-5.337
0.312,0.056,0.313,-5.337
0.216,0.055,0.314,-5.337
0.145,0.055,0.310,-5.337
0.205,0.052,0.307,-5.337
0.300,0.050,0.313,-5.337
0.342,0.054,0.316,-5.337
0.232,0.057,0.318,-5.337
0.114,0.056,0.317,-5.337
0.111,0.056,0.315,-5.337
0.162,0.055,0.314,-5.337
0.193,0.057,0.314,-5.337
0.216,0.057,0.311,-5.337
0.215,0.059,0.308,-5.337
0.116,0.062,0.305,-5.337
0.147,0.060,0.306,-5.337
0.250,0.057,0.307,-5.337
0.300,0.061,0.308,-5.337
0.284,0.058,0.310,-5.337
0.207,0.057,0.308,-5.337
0.166,0.057,0.311,-5.337
0.139,0.057,0.313,-5.337
0.165,0.060,0.312,-5.337
0.215,0.058,0.312,-5.337
0.138,0.055,0.313,-5.337
0.120,0.054,0.310,-5.337
0.257,0.050,0.311,-5.337
0.265,0.053,0.313,-5.337
0.234,0.051,0.315,-5.337
0.204,0.051,0.313,-5.337
0.123,0.054,0.312,-5.337
0.138,0.058,0.311,-5.337
0.140,0.062,0.311,-5.337
0.208,0.058,0.308,-5.337
0.270,0.053,0.309,-5.337
0.315,0.055,0.309,-5.337
0.326,0.058,0.311,-5.337
0.230,0.060,0.311,-5.337
0.157,0.058,0.309,-5.337
0.169,0.054,0.309,-5.337
0.205,0.057,0.309,-5.337
0.229,0.057,0.307,-5.337
0.199,0.060,0.306,-5.337
0.191,0.057,0.308,-5.337
0.240,0.055,0.310,-5.337
0.210,0.052,0.311,-5.337
0.174,0.055,0.312,-5.337
0.148,0.059,0.310,-5.337
0.120,0.063,0.309,-5.337
0.167,0.058,0.309,-5.337
0.194,0.055,0.312,-5.337
0.214,0.054,0.313,-5.337
0.256,0.057,0.310,-5.337
0.250,0.061,0.310,-5.337
0.190,0.059,0.309,-5.337
0.136,0.057,0.310,-5.337
0.197,0.058,0.307,-5.337
0.226,0.059,0.308,-5.337
0.217,0.060,0.310,-5.337
0.178,0.055,0.309,-5.337
0.238,0.049,0.310,-5.337
0.275,0.049,0.311,-5.337
0.204,0.053,0.309,-5.337
0.167,0.053,0.305,-5.337
0.152,0.052,0.305,-5.337
0.166,0.049,0.306,-5.337
0.182,0.047,0.306,-5.337
0.223,0.047,0.306,-5.337
0.216,0.047,0.305,-5.337
0.182,0.044,0.305,-5.337
0.230,0.045,0.309,-5.337
0.190,0.049,0.312,-5.337
0.173,0.053,0.314,-5.337
0.135,0.051,0.310,-5.337
0.218,0.050,0.307,-5.337
0.255,0.048,0.303,-5.337
0.247,0.049,0.306,-5.337
0.233,0.047,0.308,-5.337
0.296,0.046,0.309,-5.337
0.298,0.048,0.309,-5.337
0.291,0.049,0.311,-5.337
0.260,0.049,0.313,-5.337
0.232,0.051,0.315,-5.337
0.201,0.044,0.312,-5.337
0.121,0.046,0.310,-5.337
0.152,0.043,0.309,-5.337
0.136,0.044,0.311,-5.337
0.127,0.044,0.312,-5.337
0.194,0.042,0.314,-5.337
0.149,0.042,0.313,-5.337
0.160,0.046,0.309,-5.337
0.193,0.049,0.305,-5.337
0.176,0.048,0.303,-5.337
0.157,0.052,0.303,-5.337
0.208,0.052,0.304,-5.337
0.240,0.047,0.310,-5.337
0.246,0.048,0.312,-5.337
0.251,0.050,0.315,-5.337
0.272,0.046,0.318,-5.337
0.230,0.044,0.316,-5.337
0.224,0.047,0.313,-5.337
0.240,0.048,0.314,-5.337
0.248,0.046,0.313,-5.337
0.211,0.048,0.313,-5.337
0.216,0.048,0.311,-5.337
0.184,0.048,0.313,-5.337
0.225,0.046,0.312,-5.337
0.243,0.045,0.312,-5.337
0.240,0.044,0.309,-5.337
0.225,0.043,0.308,-5.337
0.286,0.044,0.311,-5.337
0.227,0.044,0.315,-5.337
0.223,0.041,0.316,-5.337
0.312,0.040,0.315,-5.337
0.388,0.041,0.309,-5.337
0.339,0.048,0.308,-5.337
0.253,0.051,0.311,-5.337
0.240,0.048,0.313,-5.337
0.243,0.045,0.314,-5.337
0.239,0.046,0.310,-5.337
0.168,0.047,0.309,-5.337
0.190,0.047,0.306,-5.337
0.201,0.049,0.310,-5.337
0.208,0.049,0.316,-5.337
0.220,0.049,0.314,-5.337
0.234,0.049,0.308,-5.337
0.212,0.047,0.306,-5.337
0.192,0.044,0.310,-5.337
0.160,0.044,0.311,-5.337
0.124,0.042,0.308,-5.337
0.166,0.045,0.308,-5.337
0.225,0.048,0.308,-5.337
0.246,0.046,0.311,-5.337
0.250,0.044,0.313,-5.337
0.279,0.044,0.311,-5.337
0.249,0.048,0.310,-5.337
0.207,0.047,0.311,-5.337
0.233,0.045,0.313,-5.337
0.257,0.044,0.314,-5.337
0.199,0.044,0.312,-5.337
0.155,0.043,0.307,-5.337
0.160,0.044,0.304,-5.337
0.150,0.043,0.307,-5.337
0.168,0.040,0.312,-5.337
0.177,0.038,0.306,-5.337
0.161,0.041,0.304,-5.337
0.186,0.041,0.306,-5.337
0.206,0.042,0.308,-5.337
0.212,0.043,0.311,-5.337
0.219,0.046,0.314,-5.337
0.262,0.040,0.313,-5.337
0.298,0.038,0.311,-5.337
0.198,0.040,0.307,-5.337
0.113,0.039,0.307,-5.337
0.247,0.038,0.307,-5.337
0.312,0.038,0.307,-5.337
0.230,0.042,0.306,-5.337
0.147,0.044,0.304,-5.337
0.107,0.045,0.302,-5.337
0.110,0.043,0.303,-5.337
0.145,0.045,0.305,-5.337
0.193,0.046,0.306,-5.337
0.216,0.044,0.303,-5.337
0.231,0.041,0.304,-5.337
0.237,0.045,0.310,-5.337
0.228,0.043,0.315,-5.337
0.252,0.040,0.316,-5.337
0.209,0.040,0.307,-5.337
0.166,0.037,0.301,-5.337
0.112,0.040,0.300,-5.337
0.101,0.042,0.302,-5.337
0.194,0.035,0.304,-5.337
0.244,0.036,0.306,-5.337
0.242,0.035,0.306,-5.337
0.228,0.035,0.306,-5.337
0.265,0.036,0.309,-5.337
0.222,0.038,0.311,-5.337
0.162,0.036,0.311,-5.337
0.246,0.035,0.309,-5.337
0.268,0.037,0.307,-5.337
0.250,0.037,0.308,-5.337
0.212,0.036,0.306,-5.337
0.239,0.032,0.304,-5.337
0.289,0.033,0.300,-5.337
0.209,0.035,0.300,-5.337
0.126,0.035,0.305,-5.337
0.158,0.034,0.307,-5.337
0.203,0.036,0.309,-5.337
0.179,0.039,0.309,-5.337
0.183,0.036,0.308,-5.337
0.276,0.034,0.305,-5.337
0.285,0.037,0.304,-5.337
0.205,0.042,0.299,-5.337
0.171,0.043,0.299,-5.337
0.168,0.039,0.301,-5.337
0.175,0.038,0.306,-5.337
0.151,0.037,0.306,-5.337
0.135,0.041,0.311,-5.337
0.120,0.041,0.311,-5.337
0.122,0.035,0.307,-5.337
0.086,0.035,0.305,-5.337
0.142,0.038,0.307,-5.337
0.195,0.036,0.306,-5.337
0.219,0.034,0.304,-5.337
0.274,0.032,0.303,-5.337
0.259,0.031,0.306,-5.337
0.181,0.033,0.308,-5.337
0.150,0.036,0.307,-5.337
0.110,0.039,0.305,-5.337
0.133,0.041,0.304,-5.337
0.227,0.037,0.304,-5.337
0.263,0.036,0.303,-5.337
0.220,0.037,0.306,-5.337
0.148,0.037,0.306,-5.337
0.180,0.038,0.305,-5.337
0.226,0.038,0.304,-5.337
0.191,0.041,0.305,-5.337
0.178,0.043,0.307,-5.337
0.155,0.042,0.308,-5.337
0.156,0.041,0.305,-5.337
0.163,0.041,0.301,-5.337
0.152,0.037,0.302,-5.337
0.198,0.039,0.305,-5.337
0.193,0.042,0.309,-5.337
0.153,0.044,0.308,-5.337
0.184,0.041,0.309,-5.337
0.210,0.041,0.310,-5.337
0.255,0.042,0.308,-5.337
0.203,0.043,0.308,-5.337
0.146,0.048,0.308,-5.337
0.092,0.045,0.308,-5.337
0.097,0.039,0.305,-5.337
0.194,0.038,0.301,-5.337
0.219,0.040,0.303,-5.337
0.225,0.041,0.306,-5.337
0.227,0.037,0.307,-5.337
0.240,0.038,0.305,-5.337
0.245,0.037,0.302,-5.337
0.246,0.033,0.301,-5.337
0.229,0.033,0.303,-5.337
0.200,0.037,0.305,-5.337
0.227,0.039,0.306,-5.337
0.232,0.036,0.303,-5.337
0.203,0.035,0.304,-5.337
0.258,0.031,0.308,-5.337
0.286,0.033,0.311,-5.337
0.213,0.035,0.311,-5.337
0.141,0.036,0.310,-5.337
0.166,0.036,0.308,-5.337
0.229,0.036,0.304,-5.337
0.224,0.039,0.303,-5.337
0.180,0.042,0.305,-5.337
0.180,0.043,0.309,-5.337
0.133,0.044,0.308,-5.337
0.135,0.040,0.305,-5.337
0.213,0.042,0.306,-5.337
0.290,0.039,0.308,-5.337
0.241,0.041,0.306,-5.337
0.177,0.045,0.306,-5.337
0.243,0.042,0.305,-5.337
0.245,0.045,0.305,-5.337
0.177,0.046,0.305,-5.337
0.145,0.043,0.306,-5.337
0.219,0.037,0.305,-5.337
0.263,0.042,0.306,-5.337
0.229,0.042,0.304,-5.337
0.268,0.040,0.305,-5.337
0.215,0.042,0.306,-5.337
0.157,0.048,0.305,-5.337
0.225,0.043,0.307,-5.337
0.320,0.044,0.308,-5.337
0.241,0.048,0.309,-5.337
0.156,0.048,0.309,-5.337
0.173,0.044,0.308,-5.337
0.244,0.040,0.311,-5.337
0.193,0.040,0.312,-5.337
0.164,0.040,0.305,-5.337
0.230,0.042,0.302,-5.337
0.224,0.044,0.303,-5.337
0.182,0.042,0.306,-5.337
0.163,0.038,0.306,-5.337
0.123,0.040,0.307,-5.337
0.190,0.039,0.307,-5.337
0.239,0.041,0.309,-5.337
0.202,0.040,0.306,-5.337
0.176,0.038,0.304,-5.337
0.173,0.039,0.305,-5.337
0.188,0.039,0.307,-5.337
0.233,0.033,0.306,-5.337
0.274,0.037,0.305,-5.337
0.246,0.036,0.308,-5.337
0.205,0.034,0.313,-5.337
0.142,0.037,0.314,-5.337
0.062,0.039,0.310,-5.337
0.062,0.042,0.306,-5.337
0.109,0.039,0.305,-5.337
0.141,0.037,0.305,-5.337
0.221,0.035,0.305,-5.337
0.244,0.032,0.302,-5.337
0.265,0.033,0.300,-5.337
0.244,0.034,0.301,-5.337
0.173,0.037,0.304,-5.337
0.147,0.039,0.307,-5.337
0.162,0.042,0.309,-5.337
0.155,0.044,0.308,-5.337
0.139,0.043,0.303,-5.337
0.180,0.041,0.304,-5.337
0.180,0.040,0.304,-5.337
0.211,0.038,0.307,-5.337
0.267,0.035,0.309,-5.337
0.293,0.034,0.309,-5.337
0.247,0.038,0.307,-5.337
0.175,0.043,0.305,-5.337
0.140,0.045,0.302,-5.337
0.167,0.045,0.301,-5.337
0.210,0.042,0.304,-5.337
0.205,0.042,0.306,-5.337
0.210,0.042,0.303,-5.337
0.217,0.047,0.304,-5.337
0.207,0.048,0.303,-5.337
0.166,0.046,0.305,-5.337
0.174,0.045,0.307,-5.337
0.217,0.046,0.303,-5.337
0.300,0.045,0.300,-5.337
0.297,0.042,0.303,-5.337
0.243,0.043,0.306,-5.337
0.159,0.045,0.310,-5.337
0.109,0.043,0.314,-5.337
0.141,0.040,0.313,-5.337
0.240,0.041,0.307,-5.337
0.220,0.044,0.300,-5.337
0.188,0.042,0.301,-5.337
0.236,0.038,0.303,-5.337
0.222,0.039,0.301,-5.337
0.146,0.042,0.297,-5.337
0.173,0.042,0.297,-5.337
0.191,0.045,0.299,-5.337
0.186,0.046,0.300,-5.337
0.212,0.047,0.302,-5.337
0.209,0.048,0.307,-5.337
0.165,0.046,0.305,-5.337
0.157,0.045,0.302,-5.337
0.236,0.043,0.302,-5.337
0.283,0.044,0.301,-5.337
0.188,0.046,0.301,-5.337
0.116,0.046,0.302,-5.337
0.161,0.046,0.305,-5.337
0.158,0.046,0.305,-5.337
0.194,0.045,0.301,-5.337
0.212,0.043,0.299,-5.337
0.174,0.043,0.303,-5.337
0.149,0.045,0.305,-5.337
0.226,0.045,0.308,-5.337
0.271,0.044,0.306,-5.337
0.263,0.045,0.306,-5.337
0.262,0.046,0.304,-5.337
0.215,0.045,0.306,-5.337
0.136,0.043,0.308,-5.337
0.119,0.047,0.306,-5.337
0.221,0.046,0.303,-5.337
0.291,0.047,0.301,-5.337
0.251,0.045,0.306,-5.337
0.175,0.045,0.311,-5.337
0.157,0.044,0.310,-5.337
0.149,0.044,0.303,-5.337
0.120,0.044,0.299,-5.337
0.159,0.043,0.300,-5.337
0.172,0.043,0.301,-5.337
0.195,0.043,0.303,-5.337
0.100,0.048,0.306,-5.337
0.079,0.047,0.309,-5.337
0.095,0.045,0.310,-5.337
0.123,0.043,0.307,-5.337
0.198,0.041,0.306,-5.337
0.220,0.042,0.306,-5.337
0.207,0.039,0.307,-5.337
0.188,0.038,0.307,-5.337
0.193,0.043,0.307,-5.337
0.197,0.048,0.305,-5.337
0.229,0.047,0.304,-5.337
0.215,0.044,0.307,-5.337
0.106,0.050,0.306,-5.337
0.057,0.052,0.303,-5.337
0.111,0.048,0.303,-5.337
0.185,0.044,0.307,-5.337
0.182,0.048,0.309,-5.337
0.127,0.054,0.309,-5.337
0.152,0.051,0.311,-5.337
0.191,0.049,0.310,-5.337
0.206,0.052,0.308,-5.337
0.182,0.051,0.303,-5.337
0.274,0.049,0.301,-5.337
0.302,0.048,0.301,-5.337
0.248,0.045,0.300,-5.337
0.233,0.045,0.303,-5.337
0.310,0.046,0.305,-5.337
0.317,0.049,0.307,-5.337
0.278,0.047,0.305,-5.337
0.285,0.048,0.305,-5.337
0.247,0.051,0.306,-5.337
0.214,0.056,0.309,-5.337
0.203,0.056,0.309,-5.337
0.182,0.054,0.306,-5.337
0.194,0.049,0.303,-5.337
0.211,0.052,0.303,-5.337
0.153,0.054,0.305,-5.337
0.179,0.051,0.307,-5.337
0.179,0.050,0.308,-5.337
0.160,0.052,0.307,-5.337
0.199,0.049,0.303,-5.337
0.275,0.048,0.302,-5.337
0.220,0.052,0.303,-5.337
0.188,0.054,0.305,-5.337
0.211,0.052,0.306,-5.337
0.252,0.048,0.306,-5.337
0.255,0.050,0.305,-5.337
0.266,0.048,0.305,-5.337
0.255,0.052,0.306,-5.337
0.188,0.056,0.306,-5.337
0.248,0.054,0.307,-5.337
0.342,0.053,0.307,-5.337
0.303,0.050,0.304,-5.337
0.242,0.050,0.301,-5.337
0.246,0.052,0.302,-5.337
0.222,0.054,0.301,-5.337
0.209,0.052,0.300,-5.337
0.192,0.054,0.302,-5.337
0.159,0.052,0.304,-5.337
0.141,0.051,0.302,-5.337
0.128,0.055,0.299,-5.337
0.155,0.054,0.300,-5.337
0.184,0.053,0.303,-5.337
0.132,0.053,0.305,-5.337
0.111,0.052,0.307,-5.337
0.094,0.050,0.310,-5.337
0.100,0.052,0.307,-5.337
0.145,0.056,0.300,-5.337
0.222,0.058,0.299,-5.337
0.135,0.057,0.303,-5.337
0.109,0.057,0.305,-5.337
0.222,0.053,0.306,-5.337
0.283,0.055,0.303,-5.337
0.197,0.056,0.305,-5.337
0.145,0.051,0.304,-5.337
0.230,0.054,0.305,-5.337
0.255,0.054,0.304,-5.337
0.203,0.058,0.306,-5.337
0.192,0.057,0.309,-5.337
0.233,0.054,0.307,-5.337
0.266,0.052,0.302,-5.337
0.288,0.058,0.296,-5.337
0.213,0.062,0.297,-5.337
0.122,0.063,0.302,-5.337
0.166,0.061,0.303,-5.337
0.222,0.057,0.302,-5.337
0.171,0.059,0.304,-5.337
0.132,0.059,0.304,-5.337
0.266,0.055,0.303,-5.337
0.328,0.052,0.302,-5.337
0.271,0.051,0.300,-5.337
0.232,0.050,0.304,-5.337
0.181,0.054,0.306,-5.337
0.140,0.052,0.303,-5.337
0.185,0.050,0.299,-5.337
0.156,0.052,0.299,-5.337
0.106,0.055,0.306,-5.337
0.139,0.050,0.308,-5.337
0.198,0.047,0.306,-5.337
0.197,0.050,0.302,-5.337
0.160,0.054,0.301,-5.337
0.146,0.053,0.301,-5.337
0.147,0.056,0.307,-5.337
0.110,0.061,0.313,-5.337
0.158,0.060,0.311,-5.337
0.263,0.054,0.310,-5.337
0.275,0.054,0.311,-5.337
0.331,0.052,0.304,-5.337
0.323,0.056,0.301,-5.337
0.264,0.054,0.301,-5.337
0.238,0.055,0.303,-5.337
0.221,0.057,0.302,-5.337
0.323,0.057,0.304,-5.337
0.335,0.058,0.306,-5.337
0.257,0.061,0.304,-5.337
0.296,0.059,0.304,-5.337
0.307,0.057,0.305,-5.337
0.290,0.057,0.308,-5.337
0.217,0.057,0.306,-5.337
0.170,0.058,0.303,-5.337
0.136,0.059,0.302,-5.337
0.190,0.064,0.305,-5.337
0.236,0.064,0.308,-5.337
0.246,0.058,0.308,-5.337
0.227,0.056,0.306,-5.337
0.191,0.056,0.307,-5.337
0.175,0.058,0.301,-5.337
0.165,0.059,0.298,-5.337
0.105,0.055,0.300,-5.337
0.118,0.055,0.305,-5.337
0.220,0.056,0.307,-5.337
0.239,0.061,0.304,-5.337
0.168,0.061,0.304,-5.337
0.110,0.058,0.305,-5.337
0.205,0.058,0.306,-5.337
0.237,0.061,0.310,-5.337
0.165,0.061,0.313,-5.337
0.187,0.061,0.308,-5.337
0.237,0.057,0.302,-5.337
0.208,0.058,0.297,-5.337
0.210,0.057,0.297,-5.337
0.183,0.058,0.301,-5.337
0.150,0.065,0.309,-5.337
0.117,0.064,0.310,-5.337
0.128,0.064,0.311,-5.337
0.186,0.061,0.310,-5.337
0.198,0.061,0.309,-5.337
0.202,0.060,0.305,-5.337
0.187,0.062,0.302,-5.337
0.174,0.059,0.304,-5.337
0.183,0.057,0.303,-5.337
0.257,0.056,0.304,-5.337
0.278,0.058,0.308,-5.337
0.288,0.060,0.311,-5.337
0.271,0.062,0.306,-5.337
0.240,0.060,0.305,-5.337
0.258,0.056,0.307,-5.337
0.229,0.056,0.305,-5.337
0.203,0.057,0.303,-5.337
0.271,0.056,0.299,-5.337
0.322,0.057,0.295,-5.337
0.289,0.059,0.301,-5.337
0.236,0.056,0.307,-5.337
0.249,0.052,0.311,-5.337
0.205,0.054,0.308,-5.337
0.149,0.060,0.309,-5.337
0.175,0.058,0.309,-5.337
0.184,0.055,0.307,-5.337
0.195,0.053,0.307,-5.337
0.163,0.055,0.307,-5.337
0.211,0.057,0.306,-5.337
0.228,0.056,0.305,-5.337
0.228,0.054,0.305,-5.337
0.293,0.053,0.304,-5.337
0.265,0.057,0.300,-5.337
0.093,0.063,0.301,-5.337
-0.014,0.060,0.304,-5.337
0.078,0.059,0.308,-5.337
0.129,0.058,0.309,-5.337
0.205,0.057,0.305,-5.337
0.273,0.057,0.303,-5.337
0.320,0.055,0.304,-5.337
0.310,0.054,0.307,-5.337
0.215,0.055,0.308,-5.337
0.159,0.057,0.310,-5.337
0.246,0.053,0.310,-5.337
0.319,0.052,0.311,-5.337
0.175,0.056,0.306,-5.337
0.103,0.056,0.305,-5.337
0.109,0.059,0.306,-5.337
0.228,0.055,0.308,-5.337
0.322,0.050,0.309,-5.337
0.257,0.055,0.311,-5.337
0.200,0.053,0.311,-5.337
0.254,0.055,0.307,-5.337
0.216,0.056,0.304,-5.337
0.236,0.054,0.305,-5.337
0.325,0.047,0.305,-5.337
0.227,0.047,0.306,-5.337
0.142,0.047,0.306,-5.337
0.134,0.046,0.303,-5.337
0.159,0.046,0.304,-5.337
0.146,0.044,0.309,-5.337
0.127,0.047,0.311,-5.337
0.209,0.047,0.309,-5.337
0.286,0.049,0.308,-5.337
0.215,0.053,0.306,-5.337
0.186,0.049,0.306,-5.337
0.125,0.049,0.306,-5.337
0.073,0.050,0.309,-5.337
0.089,0.048,0.311,-5.337
0.164,0.046,0.306,-5.337
0.249,0.044,0.300,-5.337
0.276,0.046,0.301,-5.337
0.157,0.046,0.305,-5.337
0.149,0.048,0.310,-5.337
0.248,0.047,0.309,-5.337
0.254,0.046,0.307,-5.337
0.247,0.044,0.306,-5.337
0.264,0.049,0.304,-5.337
0.250,0.052,0.302,-5.337
0.201,0.049,0.304,-5.337
0.221,0.048,0.308,-5.337
0.225,0.049,0.310,-5.337
0.262,0.050,0.306,-5.337
0.257,0.050,0.305,-5.337
0.203,0.047,0.306,-5.337
0.145,0.048,0.307,-5.337
0.232,0.047,0.304,-5.337
0.275,0.047,0.299,-5.337
0.255,0.043,0.297,-5.337
0.258,0.041,0.297,-5.337
0.261,0.041,0.298,-5.337
0.335,0.040,0.303,-5.337
0.277,0.044,0.310,-5.337
0.186,0.044,0.307,-5.337
0.125,0.044,0.302,-5.337
0.170,0.045,0.302,-5.337
0.203,0.046,0.305,-5.337
0.176,0.046,0.308,-5.337
0.182,0.042,0.308,-5.337
0.216,0.042,0.308,-5.337
0.212,0.044,0.306,-5.337
0.192,0.043,0.304,-5.337
0.226,0.044,0.302,-5.337
0.261,0.048,0.302,-5.337
0.256,0.047,0.302,-5.337
0.252,0.045,0.302,-5.337
0.276,0.040,0.305,-5.337
0.293,0.042,0.308,-5.337
0.271,0.044,0.308,-5.337
0.245,0.044,0.309,-5.337
0.201,0.041,0.308,-5.337
0.279,0.040,0.309,-5.337
0.270,0.044,0.307,-5.337
0.099,0.049,0.306,-5.337
0.084,0.045,0.301,-5.337
0.158,0.041,0.302,-5.337
0.177,0.042,0.304,-5.337
0.219,0.041,0.307,-5.337
0.274,0.038,0.305,-5.337
0.216,0.043,0.303,-5.337
0.142,0.042,0.301,-5.337
0.217,0.039,0.305,-5.337
0.375,0.038,0.306,-5.337
0.412,0.038,0.308,-5.337
0.266,0.043,0.310,-5.337
0.200,0.044,0.310,-5.337
0.145,0.040,0.308,-5.337
0.158,0.039,0.302,-5.337
0.219,0.041,0.300,-5.337
0.171,0.042,0.303,-5.337
0.153,0.042,0.307,-5.337
0.181,0.041,0.310,-5.337
0.250,0.038,0.312,-5.337
0.311,0.034,0.309,-5.337
0.255,0.034,0.308,-5.337
0.232,0.035,0.307,-5.337
0.232,0.034,0.307,-5.337
0.227,0.032,0.307,-5.337
0.156,0.032,0.310,-5.337
0.235,0.030,0.307,-5.337
0.342,0.035,0.307,-5.337
0.351,0.040,0.309,-5.337
0.253,0.044,0.313,-5.337
0.229,0.040,0.313,-5.337
0.258,0.039,0.308,-5.337
0.301,0.037,0.305,-5.337
0.317,0.033,0.307,-5.337
0.288,0.034,0.308,-5.337
0.226,0.038,0.308,-5.337
0.219,0.039,0.306,-5.337
0.212,0.039,0.304,-5.337
0.251,0.037,0.304,-5.337
0.237,0.038,0.306,-5.337
0.258,0.036,0.307,-5.337
0.234,0.040,0.305,-5.337
0.218,0.042,0.303,-5.337
0.237,0.040,0.304,-5.337
0.251,0.037,0.308,-5.337
0.197,0.037,0.310,-5.337
0.199,0.038,0.307,-5.337
0.217,0.041,0.307,-5.337
0.194,0.040,0.309,-5.337
0.182,0.036,0.304,-5.337
0.143,0.037,0.304,-5.337
0.107,0.042,0.306,-5.337
0.110,0.042,0.308,-5.337
0.163,0.042,0.307,-5.337
0.163,0.038,0.308,-5.337
0.159,0.037,0.309,-5.337
0.201,0.040,0.306,-5.337
0.179,0.042,0.303,-5.337
0.131,0.039,0.300,-5.337
0.152,0.036,0.301,-5.337
0.223,0.034,0.305,-5.337
0.219,0.037,0.309,-5.337
0.174,0.038,0.310,-5.337
0.179,0.034,0.307,-5.337
0.212,0.033,0.303,-5.337
0.218,0.035,0.304,-5.337
0.210,0.039,0.304,-5.337
0.192,0.039,0.305,-5.337
0.250,0.035,0.305,-5.337
0.219,0.034,0.303,-5.337
0.150,0.034,0.305,-5.337
0.162,0.038,0.311,-5.337
0.182,0.040,0.313,-5.337
0.163,0.041,0.312,-5.337
0.161,0.037,0.306,-5.337
0.198,0.035,0.303,-5.337
0.231,0.035,0.301,-5.337
0.192,0.036,0.302,-5.337
0.145,0.037,0.304,-5.337
0.193,0.039,0.305,-5.337
0.212,0.040,0.306,-5.337
0.227,0.042,0.305,-5.337
0.211,0.039,0.307,-5.337
0.130,0.038,0.308,-5.337
0.137,0.036,0.304,-5.337
0.236,0.035,0.303,-5.337
0.267,0.033,0.303,-5.337
0.230,0.036,0.304,-5.337
0.169,0.037,0.305,-5.337
0.159,0.030,0.304,-5.337
0.244,0.029,0.306,-5.337
0.309,0.032,0.305,-5.337
0.270,0.036,0.308,-5.337
0.197,0.036,0.308,-5.337
0.224,0.034,0.308,-5.337
0.245,0.034,0.304,-5.337
0.321,0.031,0.300,-5.337
0.293,0.032,0.300,-5.337
0.250,0.037,0.307,-5.337
0.232,0.039,0.310,-5.337
0.220,0.036,0.309,-5.337
0.213,0.033,0.303,-5.337
0.237,0.035,0.301,-5.337
0.240,0.035,0.304,-5.337
0.187,0.036,0.307,-5.337
0.190,0.036,0.305,-5.337
0.189,0.036,0.304,-5.337
0.176,0.034,0.306,-5.337
0.152,0.033,0.307,-5.337
0.168,0.036,0.305,-5.337
0.172,0.037,0.302,-5.337
0.141,0.039,0.302,-5.337
0.192,0.036,0.304,-5.337
0.210,0.036,0.306,-5.337
0.270,0.035,0.304,-5.337
0.282,0.037,0.306,-5.337
0.280,0.038,0.308,-5.337
0.256,0.039,0.305,-5.337
0.215,0.037,0.302,-5.337
0.167,0.038,0.302,-5.337
0.145,0.040,0.304,-5.337
0.201,0.042,0.305,-5.337
0.134,0.040,0.303,-5.337
0.162,0.040,0.304,-5.337
0.310,0.038,0.307,-5.337
0.319,0.042,0.308,-5.337
0.229,0.042,0.304,-5.337
0.155,0.040,0.302,-5.337
0.150,0.041,0.305,-5.337
0.192,0.042,0.308,-5.337
0.233,0.037,0.309,-5.337
0.276,0.038,0.305,-5.337
0.194,0.039,0.305,-5.337
0.138,0.045,0.304,-5.337
0.095,0.043,0.306,-5.337
0.135,0.036,0.305,-5.337
0.218,0.034,0.304,-5.337
0.207,0.036,0.303,-5.337
0.196,0.038,0.306,-5.337
0.209,0.038,0.306,-5.337
0.306,0.036,0.309,-5.337
0.294,0.038,0.310,-5.337
0.291,0.038,0.309,-5.337
0.184,0.041,0.306,-5.337
0.166,0.039,0.302,-5.337
0.200,0.038,0.300,-5.337
0.158,0.040,0.300,-5.337
0.157,0.039,0.299,-5.337
0.196,0.039,0.298,-5.337
0.188,0.038,0.302,-5.337
0.164,0.035,0.305,-5.337
0.209,0.034,0.305,-5.337
0.293,0.037,0.304,-5.337
0.297,0.037,0.303,-5.337
0.232,0.034,0.302,-5.337
0.220,0.031,0.303,-5.337
0.186,0.031,0.306,-5.337
0.098,0.035,0.310,-5.337
0.085,0.037,0.310,-5.337
0.197,0.036,0.308,-5.337
0.287,0.035,0.305,-5.337
0.253,0.033,0.305,-5.337
0.250,0.036,0.301,-5.337
0.283,0.038,0.299,-5.337
0.261,0.039,0.301,-5.337
0.216,0.038,0.307,-5.337
0.242,0.040,0.311,-5.337
0.288,0.040,0.311,-5.337
0.247,0.040,0.310,-5.337
0.128,0.044,0.307,-5.337
0.229,0.040,0.304,-5.337
0.265,0.039,0.303,-5.337
0.229,0.039,0.305,-5.337
0.223,0.041,0.307,-5.337
0.251,0.040,0.305,-5.337
0.227,0.039,0.305,-5.337
0.188,0.039,0.307,-5.337
0.138,0.040,0.309,-5.337
0.232,0.035,0.306,-5.337
0.365,0.035,0.303,-5.337
0.323,0.040,0.305,-5.337
0.203,0.041,0.304,-5.337
0.183,0.041,0.305,-5.337
0.265,0.038,0.303,-5.337
0.312,0.036,0.304,-5.337
0.298,0.037,0.306,-5.337
0.251,0.039,0.307,-5.337
0.255,0.037,0.308,-5.337
0.262,0.037,0.310,-5.337
0.242,0.038,0.309,-5.337
0.218,0.041,0.304,-5.337
0.157,0.041,0.300,-5.337
0.150,0.040,0.299,-5.337
0.177,0.040,0.302,-5.337
0.133,0.042,0.303,-5.337
0.072,0.043,0.301,-5.337
0.098,0.038,0.302,-5.337
0.208,0.036,0.306,-5.337
0.190,0.038,0.308,-5.337
0.149,0.042,0.306,-5.337
0.236,0.042,0.308,-5.337
0.267,0.043,0.307,-5.337
0.195,0.046,0.303,-5.337
0.195,0.046,0.304,-5.337
0.206,0.046,0.308,-5.337
0.190,0.049,0.314,-5.337
0.159,0.048,0.315,-5.337
0.203,0.045,0.312,-5.337
0.247,0.045,0.305,-5.337
0.295,0.046,0.304,-5.337
0.347,0.047,0.305,-5.337
0.263,0.047,0.305,-5.337
0.229,0.046,0.306,-5.337
0.188,0.049,0.309,-5.337
0.107,0.047,0.308,-5.337
0.147,0.046,0.305,-5.337
0.172,0.046,0.302,-5.337
0.095,0.048,0.304,-5.337
0.053,0.044,0.306,-5.337
0.121,0.039,0.308,-5.337
0.140,0.042,0.305,-5.337
0.093,0.043,0.301,-5.337
0.122,0.038,0.304,-5.337
0.188,0.037,0.309,-5.337
0.267,0.040,0.310,-5.337
0.242,0.040,0.309,-5.337
0.205,0.039,0.306,-5.337
0.160,0.042,0.305,-5.337
0.244,0.037,0.309,-5.337
0.247,0.040,0.306,-5.337
0.232,0.039,0.305,-5.337
0.270,0.041,0.305,-5.337
0.269,0.042,0.308,-5.337
0.261,0.038,0.308,-5.337
0.246,0.037,0.305,-5.337
0.179,0.039,0.302,-5.337
0.163,0.041,0.305,-5.337
0.225,0.040,0.307,-5.337
0.179,0.041,0.307,-5.337
0.116,0.039,0.306,-5.337
0.114,0.036,0.304,-5.337
0.147,0.042,0.303,-5.337
0.157,0.043,0.306,-5.337
0.188,0.043,0.308,-5.337
0.137,0.049,0.303,-5.337
0.150,0.044,0.298,-5.337
0.174,0.045,0.298,-5.337
0.180,0.042,0.304,-5.337
0.247,0.045,0.305,-5.337
0.213,0.043,0.306,-5.337
0.184,0.041,0.306,-5.337
0.172,0.044,0.305,-5.337
0.213,0.042,0.301,-5.337
0.225,0.041,0.303,-5.337
0.225,0.043,0.302,-5.337
0.233,0.044,0.301,-5.337
0.268,0.044,0.301,-5.337
0.301,0.042,0.304,-5.337
0.275,0.041,0.306,-5.337
0.225,0.039,0.306,-5.337
0.194,0.037,0.306,-5.337
0.186,0.039,0.303,-5.337
0.200,0.041,0.303,-5.337
0.194,0.038,0.306,-5.337
0.185,0.041,0.311,-5.337
0.205,0.042,0.310,-5.337
0.227,0.047,0.304,-5.337
0.178,0.046,0.302,-5.337
0.153,0.046,0.303,-5.337
0.176,0.047,0.304,-5.337
0.214,0.045,0.304,-5.337
0.257,0.043,0.303,-5.337
0.175,0.046,0.303,-5.337
0.072,0.051,0.302,-5.337
0.164,0.054,0.306,-5.337
0.263,0.053,0.305,-5.337
0.264,0.050,0.306,-5.337
0.137,0.047,0.302,-5.337
0.102,0.048,0.301,-5.337
0.170,0.046,0.303,-5.337
0.202,0.049,0.305,-5.337
0.157,0.047,0.305,-5.337
0.155,0.044,0.307,-5.337
0.199,0.045,0.308,-5.337
0.298,0.044,0.306,-5.337
0.276,0.043,0.302,-5.337
0.222,0.046,0.302,-5.337
0.182,0.046,0.304,-5.337
0.169,0.048,0.307,-5.337
0.198,0.048,0.306,-5.337
0.233,0.046,0.308,-5.337
0.266,0.046,0.311,-5.337
0.229,0.045,0.309,-5.337
0.269,0.045,0.306,-5.337
0.231,0.046,0.301,-5.337
0.223,0.045,0.300,-5.337
0.242,0.046,0.300,-5.337
0.262,0.048,0.301,-5.337
0.272,0.046,0.304,-5.337
0.321,0.044,0.310,-5.337
0.334,0.041,0.314,-5.337
0.293,0.046,0.312,-5.337
0.276,0.044,0.307,-5.337
0.239,0.044,0.304,-5.337
0.198,0.046,0.299,-5.337
0.191,0.046,0.298,-5.337
0.154,0.047,0.301,-5.337
0.240,0.045,0.303,-5.337
0.318,0.043,0.303,-5.337
0.287,0.045,0.302,-5.337
0.207,0.047,0.306,-5.337
0.120,0.047,0.311,-5.337
0.107,0.048,0.312,-5.337
0.120,0.046,0.306,-5.337
0.145,0.049,0.304,-5.337
0.195,0.052,0.306,-5.337
0.165,0.049,0.309,-5.337
0.182,0.050,0.308,-5.337
0.157,0.049,0.304,-5.337
0.188,0.048,0.298,-5.337
0.233,0.052,0.301,-5.337
0.220,0.049,0.306,-5.337
0.237,0.049,0.312,-5.337
0.159,0.049,0.312,-5.337
0.146,0.050,0.309,-5.337
0.138,0.050,0.307,-5.337
0.110,0.048,0.306,-5.337
0.129,0.049,0.305,-5.337
0.211,0.050,0.306,-5.337
0.243,0.051,0.306,-5.337
0.201,0.047,0.305,-5.337
0.212,0.047,0.304,-5.337
0.186,0.050,0.303,-5.337
0.147,0.051,0.304,-5.337
0.174,0.049,0.302,-5.337
0.251,0.049,0.300,-5.337
0.295,0.053,0.301,-5.337
0.271,0.051,0.304,-5.337
0.170,0.053,0.305,-5.337
0.142,0.052,0.305,-5.337
0.179,0.053,0.303,-5.337
0.187,0.054,0.304,-5.337
0.230,0.054,0.305,-5.337
0.158,0.055,0.308,-5.337
0.087,0.053,0.305,-5.337
0.186,0.053,0.305,-5.337
0.287,0.051,0.307,-5.337
0.260,0.054,0.305,-5.337
0.177,0.054,0.306,-5.337
0.160,0.053,0.306,-5.337
0.244,0.052,0.307,-5.337
0.375,0.050,0.309,-5.337
0.385,0.048,0.308,-5.337
0.297,0.052,0.305,-5.337
0.221,0.053,0.303,-5.337
0.276,0.051,0.301,-5.337
0.336,0.049,0.302,-5.337
0.226,0.051,0.306,-5.337
0.236,0.051,0.304,-5.337
0.318,0.051,0.301,-5.337
0.261,0.054,0.300,-5.337
0.205,0.053,0.302,-5.337
0.202,0.055,0.306,-5.337
0.240,0.054,0.306,-5.337
0.251,0.053,0.306,-5.337
0.234,0.052,0.306,-5.337
0.161,0.055,0.306,-5.337
0.143,0.055,0.300,-5.337
0.154,0.054,0.296,-5.337
0.122,0.056,0.300,-5.337
0.151,0.055,0.305,-5.337
0.218,0.053,0.305,-5.337
0.259,0.057,0.303,-5.337
0.247,0.054,0.303,-5.337
0.203,0.057,0.305,-5.337
0.206,0.051,0.305,-5.337
0.274,0.051,0.302,-5.337
0.301,0.052,0.300,-5.337
0.294,0.053,0.304,-5.337
0.242,0.053,0.308,-5.337
0.290,0.050,0.309,-5.337
0.284,0.054,0.304,-5.337
0.219,0.053,0.300,-5.337
0.265,0.050,0.302,-5.337
0.297,0.051,0.302,-5.337
0.224,0.058,0.301,-5.337
0.108,0.060,0.302,-5.337
0.111,0.056,0.307,-5.337
0.177,0.053,0.304,-5.337
0.251,0.050,0.300,-5.337
0.265,0.050,0.300,-5.337
0.232,0.050,0.304,-5.337
0.228,0.051,0.304,-5.337
0.249,0.054,0.301,-5.337
0.179,0.050,0.300,-5.337
0.185,0.051,0.304,-5.337
0.270,0.051,0.304,-5.337
0.234,0.054,0.305,-5.337
0.216,0.057,0.306,-5.337
0.284,0.055,0.305,-5.337
0.284,0.052,0.303,-5.337
0.235,0.052,0.305,-5.337
0.161,0.052,0.306,-5.337
0.199,0.049,0.306,-5.337
0.278,0.050,0.305,-5.337
0.179,0.055,0.304,-5.337
0.080,0.053,0.306,-5.337
0.145,0.053,0.309,-5.337
0.217,0.053,0.312,-5.337
0.220,0.054,0.310,-5.337
0.226,0.055,0.305,-5.337
0.221,0.054,0.302,-5.337
0.158,0.058,0.303,-5.337
0.132,0.058,0.302,-5.337
0.204,0.054,0.299,-5.337
0.274,0.050,0.298,-5.337
0.249,0.053,0.302,-5.337
0.142,0.055,0.304,-5.337
0.121,0.055,0.306,-5.337
0.170,0.053,0.307,-5.337
0.301,0.051,0.306,-5.337
0.273,0.051,0.304,-5.337
0.227,0.052,0.303,-5.337
0.265,0.048,0.304,-5.337
0.342,0.044,0.305,-5.337
0.287,0.047,0.304,-5.337
0.279,0.051,0.302,-5.337
0.308,0.052,0.306,-5.337
0.303,0.049,0.307,-5.337
0.310,0.049,0.306,-5.337
0.271,0.050,0.304,-5.337
0.203,0.052,0.306,-5.337
0.213,0.051,0.302,-5.337
0.298,0.049,0.300,-5.337
0.354,0.047,0.301,-5.337
0.298,0.048,0.305,-5.337
0.243,0.049,0.308,-5.337
0.215,0.047,0.305,-5.337
0.182,0.048,0.302,-5.337
0.087,0.054,0.302,-5.337
0.018,0.054,0.303,-5.337
0.112,0.053,0.304,-5.337
0.194,0.044,0.304,-5.337
0.204,0.043,0.306,-5.337
0.194,0.046,0.306,-5.337
0.180,0.049,0.304,-5.337
0.141,0.050,0.302,-5.337
0.111,0.050,0.301,-5.337
0.129,0.050,0.305,-5.337
0.184,0.050,0.308,-5.337
0.212,0.051,0.312,-5.337
0.225,0.051,0.312,-5.337
0.224,0.047,0.307,-5.337
0.304,0.045,0.303,-5.337
0.355,0.045,0.300,-5.337
0.351,0.043,0.299,-5.337
0.252,0.049,0.302,-5.337
0.183,0.050,0.301,-5.337
0.160,0.050,0.304,-5.337
0.123,0.046,0.305,-5.337
0.161,0.048,0.310,-5.337
0.176,0.047,0.309,-5.337
0.144,0.050,0.304,-5.337
0.179,0.047,0.299,-5.337
0.208,0.047,0.300,-5.337
0.194,0.047,0.305,-5.337
0.155,0.047,0.309,-5.337
0.164,0.045,0.309,-5.337
0.211,0.043,0.308,-5.337
0.179,0.045,0.306,-5.337
0.261,0.045,0.302,-5.337
0.308,0.042,0.301,-5.337
0.260,0.042,0.303,-5.337
0.185,0.042,0.302,-5.337
0.160,0.041,0.302,-5.337
0.214,0.038,0.305,-5.337
0.273,0.040,0.308,-5.337
0.255,0.041,0.310,-5.337
0.259,0.037,0.305,-5.337
0.240,0.040,0.305,-5.337
0.182,0.042,0.305,-5.337
0.155,0.042,0.306,-5.337
0.160,0.039,0.306,-5.337
0.147,0.039,0.308,-5.337
0.174,0.039,0.308,-5.337
0.163,0.040,0.307,-5.337
0.137,0.038,0.306,-5.337
0.163,0.040,0.305,-5.337
0.197,0.038,0.302,-5.337
0.242,0.040,0.304,-5.337
0.338,0.040,0.306,-5.337
0.384,0.037,0.307,-5.337
0.320,0.034,0.303,-5.337
0.222,0.037,0.302,-5.337
0.198,0.040,0.303,-5.337
0.196,0.041,0.303,-5.337
0.211,0.038,0.304,-5.337
0.267,0.038,0.308,-5.337
0.307,0.034,0.310,-5.337
0.319,0.033,0.306,-5.337
0.380,0.030,0.303,-5.337
0.378,0.034,0.302,-5.337
0.302,0.037,0.301,-5.337
0.202,0.038,0.300,-5.337
0.162,0.037,0.301,-5.337
0.151,0.038,0.301,-5.337
0.258,0.036,0.303,-5.337
0.280,0.038,0.302,-5.337
0.150,0.041,0.305,-5.337
0.093,0.045,0.308,-5.337
0.155,0.045,0.308,-5.337
0.234,0.042,0.307,-5.337
0.177,0.045,0.306,-5.337
0.117,0.043,0.305,-5.337
0.152,0.041,0.304,-5.337
0.243,0.042,0.301,-5.337
0.281,0.042,0.300,-5.337
0.207,0.043,0.300,-5.337
0.186,0.042,0.300,-5.337
0.191,0.041,0.305,-5.337
0.197,0.043,0.304,-5.337
0.222,0.040,0.303,-5.337
0.251,0.039,0.302,-5.337
0.258,0.040,0.301,-5.337
0.200,0.040,0.301,-5.337
0.152,0.041,0.302,-5.337
0.108,0.040,0.303,-5.337
0.137,0.038,0.303,-5.337
0.142,0.038,0.303,-5.337
0.116,0.041,0.305,-5.337
0.168,0.039,0.307,-5.337
0.252,0.037,0.305,-5.337
0.271,0.037,0.304,-5.337
0.314,0.034,0.305,-5.337
0.327,0.032,0.305,-5.337
0.222,0.036,0.305,-5.337
0.195,0.037,0.303,-5.337
0.336,0.035,0.303,-5.337
0.303,0.037,0.305,-5.337
0.198,0.033,0.304,-5.337
0.133,0.035,0.301,-5.337
0.119,0.037,0.302,-5.337
0.187,0.032,0.303,-5.337
0.212,0.032,0.302,-5.337
0.243,0.031,0.303,-5.337
0.270,0.034,0.302,-5.337
0.269,0.034,0.304,-5.337
0.259,0.030,0.305,-5.337
0.170,0.034,0.308,-5.337
0.155,0.034,0.307,-5.337
0.187,0.036,0.304,-5.337
0.252,0.035,0.303,-5.337
0.283,0.036,0.305,-5.337
0.343,0.030,0.307,-5.337
0.304,0.033,0.309,-5.337
0.249,0.031,0.306,-5.337
0.242,0.033,0.305,-5.337
0.172,0.038,0.303,-5.337
0.155,0.036,0.304,-5.337
0.170,0.034,0.306,-5.337
0.216,0.033,0.305,-5.337
0.250,0.033,0.306,-5.337
0.248,0.037,0.306,-5.337
0.223,0.038,0.302,-5.337
0.178,0.037,0.297,-5.337
0.151,0.035,0.298,-5.337
0.192,0.034,0.302,-5.337
0.194,0.034,0.304,-5.337
0.126,0.036,0.303,-5.337
0.150,0.034,0.304,-5.337
0.160,0.029,0.304,-5.337
0.217,0.028,0.306,-5.337
0.201,0.027,0.306,-5.337
0.160,0.029,0.304,-5.337
0.147,0.030,0.303,-5.337
0.212,0.033,0.302,-5.337
0.176,0.030,0.303,-5.337
0.152,0.029,0.305,-5.337
0.202,0.031,0.305,-5.337
0.256,0.033,0.308,-5.337
0.230,0.031,0.310,-5.337
0.211,0.029,0.308,-5.337
0.208,0.028,0.304,-5.337
0.218,0.031,0.301,-5.337
0.286,0.029,0.302,-5.337
0.350,0.028,0.306,-5.337
0.257,0.033,0.307,-5.337
0.212,0.033,0.305,-5.337
0.216,0.033,0.305,-5.337
0.205,0.035,0.306,-5.337
0.200,0.037,0.308,-5.337
0.190,0.034,0.309,-5.337
0.216,0.030,0.309,-5.337
0.191,0.035,0.304,-5.337
0.122,0.039,0.301,-5.337
0.151,0.034,0.300,-5.337
0.155,0.032,0.301,-5.337
0.162,0.033,0.303,-5.337
0.161,0.035,0.304,-5.337
0.223,0.029,0.305,-5.337
0.301,0.025,0.304,-5.337
0.259,0.024,0.302,-5.337
0.167,0.030,0.305,-5.337
0.121,0.033,0.306,-5.337
0.174,0.034,0.304,-5.337
0.197,0.036,0.299,-5.337
0.192,0.034,0.299,-5.337
0.224,0.035,0.300,-5.337
0.214,0.033,0.301,-5.337
0.241,0.032,0.299,-5.337
0.232,0.031,0.300,-5.337
0.251,0.032,0.304,-5.337
0.288,0.031,0.306,-5.337
0.281,0.030,0.305,-5.337
0.208,0.033,0.302,-5.337
0.158,0.031,0.300,-5.337
0.146,0.030,0.299,-5.337
0.151,0.030,0.303,-5.337
0.175,0.026,0.305,-5.337
0.233,0.029,0.308,-5.337
0.165,0.033,0.305,-5.337
0.060,0.035,0.305,-5.337
0.048,0.033,0.304,-5.337
0.044,0.032,0.300,-5.337
0.120,0.032,0.300,-5.337
0.273,0.031,0.301,-5.337
0.284,0.030,0.303,-5.337
0.212,0.033,0.305,-5.337
0.202,0.034,0.303,-5.337
0.247,0.035,0.301,-5.337
0.237,0.034,0.299,-5.337
0.239,0.031,0.301,-5.337
0.255,0.028,0.302,-5.337
0.271,0.029,0.304,-5.337
0.249,0.032,0.304,-5.337
0.202,0.029,0.304,-5.337
0.224,0.024,0.308,-5.337
0.250,0.025,0.307,-5.337
0.270,0.027,0.305,-5.337
0.225,0.028,0.300,-5.337
0.200,0.027,0.298,-5.337
0.212,0.029,0.300,-5.337
0.267,0.033,0.301,-5.337
0.293,0.035,0.301,-5.337
0.192,0.040,0.303,-5.337
0.072,0.037,0.304,-5.337
0.142,0.030,0.307,-5.337
0.247,0.029,0.307,-5.337
0.273,0.031,0.304,-5.337
0.284,0.027,0.302,-5.337
0.322,0.027,0.299,-5.337
0.192,0.029,0.300,-5.337
0.168,0.030,0.301,-5.337
0.281,0.028,0.300,-5.337
0.233,0.031,0.300,-5.337
0.181,0.033,0.298,-5.337
0.101,0.035,0.299,-5.337
0.187,0.033,0.306,-5.337
0.216,0.034,0.310,-5.337
0.186,0.035,0.307,-5.337
0.103,0.037,0.303,-5.337
0.087,0.035,0.301,-5.337
0.105,0.032,0.297,-5.337
0.125,0.035,0.298,-5.337
0.187,0.034,0.300,-5.337
0.220,0.038,0.302,-5.337
0.245,0.038,0.299,-5.337
0.244,0.036,0.299,-5.337
0.186,0.038,0.302,-5.337
0.196,0.038,0.306,-5.337
0.185,0.038,0.306,-5.337
0.149,0.038,0.304,-5.337
0.183,0.034,0.305,-5.337
0.103,0.036,0.307,-5.337
0.076,0.036,0.306,-5.337
0.209,0.036,0.305,-5.337
0.242,0.031,0.301,-5.337
0.220,0.029,0.300,-5.337
0.193,0.028,0.300,-5.337
0.131,0.032,0.298,-5.337
0.119,0.034,0.299,-5.337
0.187,0.035,0.301,-5.337
0.219,0.035,0.299,-5.337
0.252,0.035,0.297,-5.337
0.257,0.035,0.303,-5.337
0.227,0.036,0.303,-5.337
0.189,0.037,0.305,-5.337
0.167,0.036,0.307,-5.337
0.220,0.037,0.310,-5.337
0.276,0.036,0.309,-5.337
0.253,0.036,0.305,-5.337
0.277,0.034,0.300,-5.337
0.235,0.036,0.297,-5.337
0.193,0.036,0.300,-5.337
0.250,0.034,0.306,-5.337
0.297,0.033,0.309,-5.337
0.287,0.039,0.310,-5.337
0.271,0.040,0.307,-5.337
0.190,0.039,0.305,-5.337
0.150,0.040,0.300,-5.337
0.146,0.041,0.298,-5.337
0.089,0.045,0.303,-5.337
0.084,0.041,0.305,-5.337
0.204,0.040,0.306,-5.337
0.212,0.041,0.302,-5.337
0.135,0.042,0.299,-5.337
0.136,0.045,0.296,-5.337
0.174,0.042,0.298,-5.337
0.214,0.037,0.304,-5.337
0.179,0.036,0.306,-5.337
0.103,0.036,0.303,-5.337
0.105,0.036,0.303,-5.337
0.131,0.034,0.303,-5.337
0.147,0.032,0.302,-5.337
0.101,0.035,0.297,-5.337
0.149,0.039,0.298,-5.337
0.181,0.041,0.300,-5.337
0.163,0.041,0.304,-5.337
0.125,0.043,0.306,-5.337
0.148,0.043,0.307,-5.337
0.183,0.042,0.308,-5.337
0.206,0.040,0.308,-5.337
0.192,0.039,0.306,-5.337
0.170,0.040,0.303,-5.337
0.135,0.042,0.304,-5.337
0.133,0.045,0.306,-5.337
0.165,0.043,0.307,-5.337
0.239,0.041,0.303,-5.337
0.193,0.041,0.304,-5.337
0.147,0.042,0.301,-5.337
0.163,0.044,0.303,-5.337
0.231,0.043,0.306,-5.337
0.207,0.045,0.306,-5.337
0.140,0.048,0.303,-5.337
0.184,0.046,0.303,-5.337
0.259,0.040,0.303,-5.337
0.312,0.038,0.303,-5.337
0.296,0.040,0.303,-5.337
0.239,0.046,0.302,-5.337
0.242,0.043,0.302,-5.337
0.254,0.043,0.305,-5.337
0.219,0.045,0.307,-5.337
0.177,0.043,0.306,-5.337
0.178,0.042,0.305,-5.337
0.077,0.044,0.303,-5.337
-0.041,0.045,0.300,-5.337
0.041,0.044,0.303,-5.337
0.168,0.044,0.307,-5.337
0.225,0.042,0.307,-5.337
0.187,0.042,0.306,-5.337
0.111,0.041,0.303,-5.337
0.129,0.039,0.303,-5.337
0.181,0.042,0.304,-5.337
0.232,0.046,0.306,-5.337
0.201,0.043,0.302,-5.337
0.115,0.046,0.299,-5.337
0.069,0.046,0.303,-5.337
0.109,0.045,0.308,-5.337
0.137,0.045,0.305,-5.337
0.137,0.048,0.301,-5.337
0.158,0.045,0.301,-5.337
0.186,0.046,0.303,-5.337
0.147,0.049,0.304,-5.337
0.183,0.047,0.304,-5.337
0.274,0.044,0.302,-5.337
0.319,0.043,0.303,-5.337
0.214,0.049,0.305,-5.337
0.132,0.050,0.305,-5.337
0.186,0.045,0.302,-5.337
0.209,0.048,0.299,-5.337
0.193,0.049,0.300,-5.337
0.154,0.048,0.302,-5.337
0.199,0.048,0.303,-5.337
0.166,0.048,0.301,-5.337
0.095,0.050,0.303,-5.337
0.109,0.046,0.302,-5.337
0.219,0.045,0.303,-5.337
0.223,0.044,0.303,-5.337
0.162,0.046,0.307,-5.337
0.207,0.044,0.308,-5.337
0.204,0.046,0.307,-5.337
0.183,0.046,0.306,-5.337
0.228,0.047,0.301,-5.337
0.219,0.049,0.296,-5.337
0.166,0.052,0.296,-5.337
0.109,0.051,0.297,-5.337
0.184,0.047,0.299,-5.337
0.197,0.046,0.301,-5.337
0.177,0.051,0.303,-5.337
0.184,0.052,0.302,-5.337
0.196,0.049,0.304,-5.337
0.165,0.050,0.306,-5.337
0.120,0.053,0.307,-5.337
0.176,0.051,0.304,-5.337
0.181,0.056,0.300,-5.337
0.177,0.056,0.301,-5.337
0.261,0.050,0.303,-5.337
0.241,0.050,0.303,-5.337
0.229,0.052,0.298,-5.337
0.222,0.052,0.301,-5.337
0.167,0.052,0.300,-5.337
0.198,0.051,0.298,-5.337
0.238,0.050,0.298,-5.337
0.223,0.048,0.298,-5.337
0.267,0.048,0.302,-5.337
0.233,0.050,0.306,-5.337
0.175,0.051,0.303,-5.337
0.169,0.051,0.300,-5.337
0.207,0.045,0.303,-5.337
0.271,0.046,0.306,-5.337
0.220,0.052,0.304,-5.337
0.185,0.054,0.305,-5.337
0.172,0.052,0.304,-5.337
0.174,0.051,0.302,-5.337
0.177,0.052,0.304,-5.337
0.186,0.054,0.305,-5.337
0.151,0.056,0.302,-5.337
0.188,0.055,0.298,-5.337
0.189,0.052,0.300,-5.337
0.198,0.052,0.300,-5.337
0.214,0.055,0.300,-5.337
0.218,0.054,0.297,-5.337
0.187,0.051,0.303,-5.337
0.224,0.047,0.308,-5.337
0.254,0.048,0.307,-5.337
0.254,0.053,0.304,-5.337
0.235,0.053,0.300,-5.337
0.212,0.054,0.298,-5.337
0.203,0.054,0.296,-5.337
0.198,0.053,0.298,-5.337
0.213,0.053,0.305,-5.337
0.175,0.055,0.307,-5.337
0.149,0.055,0.308,-5.337
0.208,0.055,0.306,-5.337
0.200,0.052,0.302,-5.337
0.186,0.055,0.298,-5.337
0.248,0.052,0.300,-5.337
0.239,0.052,0.304,-5.337
0.181,0.050,0.302,-5.337
0.185,0.052,0.305,-5.337
0.183,0.054,0.304,-5.337
0.202,0.052,0.301,-5.337
0.227,0.050,0.298,-5.337
0.238,0.052,0.299,-5.337
0.114,0.055,0.301,-5.337
0.124,0.056,0.304,-5.337
0.217,0.056,0.303,-5.337
0.230,0.056,0.304,-5.337
0.153,0.054,0.304,-5.337
0.173,0.055,0.307,-5.337
0.159,0.053,0.311,-5.337
0.223,0.055,0.313,-5.337
0.312,0.056,0.310,-5.337
0.330,0.055,0.307,-5.337
0.325,0.056,0.305,-5.337
0.243,0.061,0.305,-5.337
0.171,0.066,0.305,-5.337
0.140,0.060,0.303,-5.337
0.175,0.055,0.298,-5.337
0.233,0.055,0.298,-5.337
0.234,0.056,0.300,-5.337
0.296,0.055,0.300,-5.337
0.257,0.057,0.303,-5.337
0.177,0.058,0.305,-5.337
0.108,0.057,0.304,-5.337
0.104,0.059,0.301,-5.337
0.124,0.061,0.303,-5.337
0.167,0.060,0.301,-5.337
0.172,0.058,0.299,-5.337
0.218,0.054,0.298,-5.337
0.220,0.058,0.300,-5.337
0.169,0.058,0.300,-5.337
0.202,0.060,0.301,-5.337
0.203,0.063,0.300,-5.337
0.240,0.062,0.301,-5.337
0.288,0.058,0.306,-5.337
0.296,0.057,0.310,-5.337
0.342,0.057,0.307,-5.337
0.320,0.057,0.304,-5.337
0.270,0.053,0.302,-5.337
0.214,0.057,0.304,-5.337
0.196,0.055,0.302,-5.337
0.221,0.056,0.298,-5.337
0.193,0.057,0.298,-5.337
0.137,0.060,0.301,-5.337
0.189,0.058,0.305,-5.337
0.257,0.058,0.305,-5.337
0.221,0.058,0.305,-5.337
0.229,0.059,0.305,-5.337
0.257,0.059,0.303,-5.337
0.259,0.061,0.300,-5.337
0.265,0.063,0.301,-5.337
0.255,0.062,0.302,-5.337
0.232,0.062,0.300,-5.337
0.264,0.061,0.303,-5.337
0.263,0.062,0.306,-5.337
0.285,0.058,0.303,-5.337
0.382,0.058,0.301,-5.337
0.280,0.060,0.299,-5.337
0.121,0.061,0.300,-5.337
0.133,0.061,0.303,-5.337
0.221,0.061,0.305,-5.337
0.294,0.062,0.303,-5.337
0.262,0.062,0.300,-5.337
0.185,0.061,0.300,-5.337
0.121,0.061,0.302,-5.337
0.135,0.065,0.305,-5.337
0.164,0.064,0.304,-5.337
0.155,0.059,0.303,-5.337
0.181,0.059,0.304,-5.337
0.265,0.056,0.303,-5.337
0.170,0.058,0.301,-5.337
0.151,0.056,0.299,-5.337
0.190,0.056,0.297,-5.337
0.191,0.055,0.300,-5.337
0.222,0.050,0.299,-5.337
0.251,0.053,0.301,-5.337
0.254,0.054,0.300,-5.337
0.176,0.062,0.302,-5.337
0.113,0.060,0.304,-5.337
0.152,0.060,0.303,-5.337
0.170,0.062,0.303,-5.337
0.225,0.059,0.304,-5.337
0.197,0.063,0.305,-5.337
0.240,0.059,0.304,-5.337
0.328,0.055,0.301,-5.337
0.255,0.058,0.300,-5.337
0.158,0.062,0.300,-5.337
0.097,0.060,0.304,-5.337
0.073,0.057,0.302,-5.337
0.178,0.053,0.296,-5.337
0.271,0.051,0.296,-5.337
0.281,0.055,0.298,-5.337
0.245,0.058,0.301,-5.337
0.249,0.056,0.298,-5.337
0.208,0.058,0.298,-5.337
0.224,0.061,0.297,-5.337
0.181,0.063,0.299,-5.337
0.181,0.059,0.300,-5.337
0.200,0.061,0.302,-5.337
0.191,0.060,0.302,-5.337
0.193,0.061,0.302,-5.337
0.130,0.063,0.305,-5.337
0.156,0.063,0.304,-5.337
0.246,0.058,0.300,-5.337
0.254,0.056,0.301,-5.337
0.204,0.058,0.300,-5.337
0.174,0.061,0.300,-5.337
0.266,0.058,0.298,-5.337
0.257,0.058,0.300,-5.337
0.242,0.055,0.304,-5.337
0.259,0.055,0.303,-5.337
0.280,0.058,0.303,-5.337
0.300,0.058,0.305,-5.337
0.284,0.061,0.309,-5.337
0.211,0.060,0.308,-5.337
0.208,0.057,0.306,-5.337
0.220,0.056,0.298,-5.337
0.217,0.056,0.300,-5.337
0.241,0.056,0.303,-5.337
0.189,0.054,0.303,-5.337
0.166,0.052,0.299,-5.337
0.278,0.048,0.300,-5.337
0.327,0.049,0.303,-5.337
0.345,0.048,0.304,-5.337
0.355,0.050,0.304,-5.337
0.288,0.055,0.305,-5.337
0.151,0.056,0.304,-5.337
0.117,0.053,0.303,-5.337
0.159,0.049,0.303,-5.337
0.155,0.051,0.305,-5.337
0.165,0.051,0.305,-5.337
0.204,0.051,0.302,-5.337
0.192,0.056,0.300,-5.337
0.161,0.057,0.298,-5.337
0.152,0.054,0.300,-5.337
0.100,0.055,0.300,-5.337
0.066,0.056,0.301,-5.337
0.131,0.055,0.301,-5.337
0.233,0.052,0.301,-5.337
0.218,0.057,0.300,-5.337
0.191,0.058,0.303,-5.337
0.230,0.055,0.303,-5.337
0.246,0.054,0.304,-5.337
0.286,0.049,0.303,-5.337
0.283,0.053,0.302,-5.337
0.207,0.055,0.303,-5.337
0.178,0.054,0.305,-5.337
0.194,0.052,0.307,-5.337
0.156,0.052,0.306,-5.337
0.104,0.053,0.303,-5.337
0.134,0.056,0.301,-5.337
0.156,0.054,0.304,-5.337
0.137,0.049,0.308,-5.337
0.208,0.045,0.309,-5.337
0.300,0.047,0.306,-5.337
0.277,0.047,0.306,-5.337
0.175,0.050,0.306,-5.337
0.258,0.050,0.304,-5.337
0.369,0.050,0.299,-5.337
0.296,0.051,0.298,-5.337
0.247,0.049,0.296,-5.337
0.281,0.049,0.299,-5.337
0.289,0.051,0.303,-5.337
0.283,0.050,0.308,-5.337
0.283,0.050,0.308,-5.337
0.265,0.052,0.304,-5.337
0.168,0.049,0.304,-5.337
0.124,0.048,0.304,-5.337
0.150,0.043,0.305,-5.337
0.203,0.043,0.308,-5.337
0.191,0.046,0.305,-5.337
0.159,0.049,0.303,-5.337
0.125,0.049,0.304,-5.337
0.206,0.049,0.308,-5.337
0.217,0.053,0.305,-5.337
0.179,0.054,0.301,-5.337
0.203,0.050,0.305,-5.337
0.305,0.052,0.308,-5.337
0.244,0.054,0.301,-5.337
0.205,0.055,0.295,-5.337
0.273,0.052,0.300,-5.337
0.257,0.047,0.303,-5.337
0.149,0.048,0.302,-5.337
0.129,0.047,0.300,-5.337
0.215,0.046,0.303,-5.337
0.225,0.046,0.304,-5.337
0.180,0.044,0.308,-5.337
0.174,0.044,0.307,-5.337
0.182,0.046,0.303,-5.337
0.210,0.045,0.305,-5.337
0.224,0.046,0.308,-5.337
0.184,0.045,0.303,-5.337
0.120,0.046,0.299,-5.337
0.135,0.045,0.301,-5.337
0.113,0.045,0.307,-5.337
0.130,0.043,0.307,-5.337
0.135,0.045,0.306,-5.337
0.205,0.046,0.303,-5.337
0.244,0.047,0.302,-5.337
0.182,0.047,0.302,-5.337
0.185,0.048,0.304,-5.337
0.191,0.051,0.305,-5.337
0.185,0.050,0.303,-5.337
0.217,0.048,0.303,-5.337
0.267,0.044,0.304,-5.337
0.298,0.042,0.312,-5.337
0.301,0.044,0.310,-5.337
0.285,0.045,0.304,-5.337
0.207,0.046,0.300,-5.337
0.178,0.046,0.302,-5.337
0.193,0.047,0.300,-5.337
0.141,0.050,0.300,-5.337
0.139,0.047,0.302,-5.337
0.149,0.045,0.304,-5.337
0.176,0.044,0.303,-5.337
0.185,0.047,0.303,-5.337
0.128,0.046,0.302,-5.337
0.091,0.047,0.302,-5.337
0.190,0.045,0.303,-5.337
0.244,0.046,0.301,-5.337
0.150,0.047,0.302,-5.337
0.136,0.045,0.306,-5.337
0.229,0.040,0.307,-5.337
0.233,0.041,0.304,-5.337
0.166,0.042,0.300,-5.337
0.137,0.041,0.299,-5.337
0.180,0.042,0.299,-5.337
0.175,0.044,0.298,-5.337
0.117,0.042,0.298,-5.337
0.062,0.042,0.299,-5.337
0.085,0.041,0.303,-5.337
0.124,0.042,0.308,-5.337
0.184,0.038,0.310,-5.337
0.256,0.033,0.306,-5.337
0.288,0.036,0.305,-5.337
0.222,0.040,0.303,-5.337
0.222,0.042,0.303,-5.337
0.299,0.036,0.304,-5.337
0.338,0.036,0.307,-5.337
0.371,0.033,0.308,-5.337
0.351,0.034,0.305,-5.337
0.292,0.036,0.303,-5.337
0.249,0.036,0.303,-5.337
0.279,0.034,0.301,-5.337
0.244,0.036,0.303,-5.337
0.199,0.034,0.306,-5.337
0.221,0.036,0.305,-5.337
0.210,0.037,0.301,-5.337
0.109,0.042,0.301,-5.337
0.135,0.045,0.305,-5.337
0.252,0.041,0.306,-5.337
0.284,0.041,0.307,-5.337
0.252,0.043,0.303,-5.337
0.180,0.044,0.300,-5.337
0.159,0.042,0.301,-5.337
0.195,0.043,0.306,-5.337
0.224,0.044,0.306,-5.337
0.178,0.044,0.302,-5.337
0.258,0.041,0.299,-5.337
0.290,0.043,0.305,-5.337
0.240,0.042,0.309,-5.337
0.233,0.041,0.311,-5.337
0.180,0.041,0.312,-5.337
0.199,0.040,0.309,-5.337
0.180,0.040,0.304,-5.337
0.136,0.042,0.299,-5.337
0.132,0.045,0.299,-5.337
0.085,0.047,0.302,-5.337
0.097,0.044,0.302,-5.337
0.146,0.043,0.298,-5.337
0.205,0.041,0.299,-5.337
0.201,0.038,0.308,-5.337
0.144,0.037,0.314,-5.337
0.128,0.038,0.308,-5.337
0.201,0.042,0.303,-5.337
0.276,0.039,0.301,-5.337
0.262,0.035,0.303,-5.337
0.161,0.035,0.304,-5.337
0.120,0.036,0.305,-5.337
0.176,0.035,0.301,-5.337
0.189,0.037,0.298,-5.337
0.168,0.037,0.302,-5.337
0.158,0.039,0.308,-5.337
0.192,0.037,0.307,-5.337
0.267,0.037,0.303,-5.337
0.297,0.035,0.300,-5.337
0.257,0.034,0.302,-5.337
0.256,0.036,0.304,-5.337
0.209,0.041,0.305,-5.337
0.123,0.045,0.303,-5.337
0.111,0.043,0.303,-5.337
0.200,0.038,0.306,-5.337
0.251,0.039,0.304,-5.337
0.205,0.043,0.303,-5.337
0.146,0.045,0.304,-5.337
0.151,0.041,0.304,-5.337
0.186,0.040,0.305,-5.337
0.160,0.042,0.304,-5.337
0.110,0.043,0.301,-5.337
0.142,0.040,0.302,-5.337
0.286,0.036,0.302,-5.337
0.343,0.038,0.303,-5.337
0.275,0.038,0.301,-5.337
0.197,0.041,0.303,-5.337
0.200,0.041,0.305,-5.337
0.232,0.042,0.302,-5.337
0.244,0.042,0.300,-5.337
0.226,0.043,0.299,-5.337
0.259,0.042,0.303,-5.337
0.150,0.041,0.305,-5.337
0.091,0.039,0.305,-5.337
0.191,0.040,0.303,-5.337
0.255,0.038,0.303,-5.337
0.250,0.037,0.303,-5.337
0.175,0.039,0.300,-5.337
0.154,0.037,0.303,-5.337
0.166,0.037,0.307,-5.337
0.214,0.037,0.309,-5.337
0.232,0.041,0.305,-5.337
0.233,0.042,0.302,-5.337
0.181,0.040,0.302,-5.337
0.144,0.036,0.303,-5.337
0.181,0.033,0.309,-5.337
0.204,0.035,0.309,-5.337
0.265,0.032,0.305,-5.337
0.275,0.030,0.303,-5.337
0.200,0.034,0.303,-5.337
0.179,0.034,0.304,-5.337
0.135,0.039,0.305,-5.337
0.193,0.039,0.303,-5.337
0.261,0.038,0.302,-5.337
0.202,0.035,0.301,-5.337
0.148,0.037,0.299,-5.337
0.172,0.035,0.300,-5.337
0.179,0.035,0.306,-5.337
0.248,0.036,0.308,-5.337
0.214,0.037,0.303,-5.337
0.151,0.037,0.299,-5.337
0.200,0.035,0.296,-5.337
0.250,0.035,0.299,-5.337
0.181,0.035,0.301,-5.337
0.161,0.037,0.305,-5.337
0.193,0.037,0.308,-5.337
0.218,0.036,0.307,-5.337
0.219,0.038,0.304,-5.337
0.210,0.039,0.304,-5.337
0.173,0.039,0.307,-5.337
0.104,0.042,0.307,-5.337
0.108,0.042,0.303,-5.337
0.166,0.042,0.301,-5.337
0.217,0.038,0.300,-5.337
0.240,0.042,0.299,-5.337
0.216,0.044,0.300,-5.337
0.129,0.043,0.301,-5.337
0.103,0.041,0.303,-5.337
0.092,0.042,0.306,-5.337
0.070,0.046,0.307,-5.337
0.074,0.048,0.306,-5.337
0.178,0.043,0.306,-5.337
0.230,0.040,0.306,-5.337
0.244,0.041,0.301,-5.337
0.300,0.043,0.297,-5.337
0.272,0.043,0.299,-5.337
0.221,0.041,0.301,-5.337
0.233,0.039,0.304,-5.337
0.275,0.038,0.306,-5.337
0.257,0.042,0.308,-5.337
0.184,0.042,0.306,-5.337
0.167,0.041,0.305,-5.337
0.088,0.042,0.303,-5.337
0.088,0.044,0.302,-5.337
0.168,0.044,0.301,-5.337
0.193,0.043,0.304,-5.337
0.158,0.044,0.306,-5.337
0.156,0.044,0.309,-5.337
0.188,0.041,0.308,-5.337
0.137,0.040,0.306,-5.337
0.133,0.042,0.303,-5.337
0.181,0.039,0.301,-5.337
0.169,0.042,0.298,-5.337
0.177,0.047,0.300,-5.337
0.134,0.047,0.300,-5.337
0.127,0.045,0.301,-5.337
0.177,0.044,0.303,-5.337
0.234,0.045,0.305,-5.337
0.174,0.048,0.306,-5.337
0.123,0.046,0.303,-5.337
0.131,0.043,0.303,-5.337
0.204,0.041,0.306,-5.337
0.253,0.041,0.310,-5.337
0.246,0.042,0.305,-5.337
0.211,0.042,0.302,-5.337
0.128,0.047,0.303,-5.337
0.048,0.049,0.306,-5.337
0.126,0.046,0.304,-5.337
0.210,0.046,0.304,-5.337
0.160,0.044,0.303,-5.337
0.140,0.048,0.302,-5.337
0.232,0.045,0.303,-5.337
0.211,0.047,0.303,-5.337
0.188,0.044,0.303,-5.337
0.199,0.042,0.306,-5.337
0.252,0.043,0.311,-5.337
0.263,0.045,0.313,-5.337
0.247,0.043,0.307,-5.337
0.358,0.041,0.305,-5.337
0.383,0.041,0.307,-5.337
0.293,0.044,0.305,-5.337
0.212,0.043,0.304,-5.337
0.177,0.042,0.303,-5.337
0.184,0.043,0.301,-5.337
0.250,0.044,0.301,-5.337
0.220,0.050,0.302,-5.337
0.196,0.047,0.301,-5.337
0.172,0.044,0.304,-5.337
0.171,0.045,0.305,-5.337
0.211,0.047,0.306,-5.337
0.176,0.050,0.306,-5.337
0.151,0.051,0.308,-5.337
0.189,0.046,0.309,-5.337
0.215,0.046,0.310,-5.337
0.176,0.046,0.307,-5.337
0.123,0.051,0.304,-5.337
0.111,0.049,0.303,-5.337
0.174,0.049,0.306,-5.337
0.224,0.048,0.310,-5.337
0.212,0.048,0.308,-5.337
0.172,0.049,0.303,-5.337
0.163,0.044,0.300,-5.337
0.198,0.044,0.303,-5.337
0.206,0.044,0.307,-5.337
0.264,0.044,0.306,-5.337
0.263,0.045,0.304,-5.337
0.284,0.044,0.303,-5.337
0.300,0.050,0.302,-5.337
0.248,0.049,0.305,-5.337
0.318,0.044,0.303,-5.337
0.318,0.043,0.302,-5.337
0.268,0.045,0.303,-5.337
0.262,0.051,0.305,-5.337
0.172,0.054,0.308,-5.337
0.116,0.056,0.312,-5.337
0.185,0.053,0.310,-5.337
0.227,0.052,0.304,-5.337
0.247,0.050,0.302,-5.337
0.225,0.053,0.304,-5.337
0.246,0.053,0.307,-5.337
0.211,0.056,0.305,-5.337
0.203,0.056,0.302,-5.337
0.209,0.056,0.299,-5.337
0.178,0.056,0.297,-5.337
0.114,0.056,0.297,-5.337
0.162,0.055,0.300,-5.337
0.226,0.055,0.306,-5.337
0.290,0.054,0.310,-5.337
0.247,0.050,0.307,-5.337
0.161,0.048,0.303,-5.337
0.142,0.049,0.299,-5.337
0.221,0.051,0.303,-5.337
0.315,0.052,0.307,-5.337
0.301,0.056,0.309,-5.337
0.179,0.061,0.307,-5.337
0.177,0.060,0.304,-5.337
0.231,0.058,0.303,-5.337
0.247,0.061,0.306,-5.337
0.187,0.063,0.306,-5.337
0.177,0.060,0.305,-5.337
0.176,0.060,0.303,-5.337
0.217,0.060,0.302,-5.337
0.223,0.058,0.302,-5.337
0.251,0.055,0.302,-5.337
0.198,0.056,0.300,-5.337
0.175,0.060,0.303,-5.337
0.144,0.062,0.305,-5.337
0.164,0.060,0.307,-5.337
0.154,0.058,0.309,-5.337
0.197,0.058,0.307,-5.337
0.160,0.059,0.305,-5.337
0.178,0.058,0.303,-5.337
0.140,0.059,0.303,-5.337
0.125,0.056,0.301,-5.337
0.188,0.052,0.303,-5.337
0.207,0.054,0.304,-5.337
0.190,0.053,0.303,-5.337
0.146,0.059,0.302,-5.337
0.162,0.059,0.304,-5.337
0.264,0.055,0.301,-5.337
0.211,0.057,0.304,-5.337
0.140,0.056,0.309,-5.337
0.141,0.058,0.307,-5.337
0.202,0.055,0.301,-5.337
0.243,0.054,0.298,-5.337
0.187,0.055,0.300,-5.337
0.126,0.054,0.305,-5.337
0.252,0.051,0.308,-5.337
0.347,0.050,0.308,-5.337
0.283,0.053,0.304,-5.337
0.167,0.056,0.300,-5.337
0.140,0.056,0.300,-5.337
0.165,0.056,0.301,-5.337
0.187,0.054,0.301,-5.337
0.226,0.054,0.303,-5.337
0.292,0.053,0.304,-5.337
0.353,0.053,0.301,-5.337
0.278,0.058,0.303,-5.337
0.180,0.065,0.305,-5.337
0.149,0.064,0.309,-5.337
0.217,0.059,0.310,-5.337
0.291,0.059,0.310,-5.337
0.288,0.058,0.306,-5.337
0.266,0.060,0.302,-5.337
0.213,0.062,0.300,-5.337
0.138,0.062,0.303,-5.337
0.129,0.059,0.306,-5.337
0.149,0.058,0.304,-5.337
0.167,0.060,0.304,-5.337
0.188,0.060,0.303,-5.337
0.235,0.060,0.299,-5.337
0.152,0.059,0.299,-5.337
0.067,0.059,0.301,-5.337
0.029,0.059,0.306,-5.337
0.101,0.057,0.307,-5.337
0.147,0.060,0.307,-5.337
0.197,0.061,0.306,-5.337
0.261,0.061,0.304,-5.337
0.273,0.059,0.303,-5.337
0.276,0.056,0.298,-5.337
0.267,0.060,0.303,-5.337
0.187,0.065,0.309,-5.337
0.164,0.063,0.309,-5.337
0.177,0.060,0.309,-5.337
0.152,0.061,0.309,-5.337
0.157,0.062,0.306,-5.337
0.213,0.060,0.302,-5.337
0.177,0.060,0.304,-5.337
0.114,0.060,0.306,-5.337
0.106,0.063,0.305,-5.337
0.118,0.064,0.303,-5.337
0.210,0.061,0.303,-5.337
0.229,0.060,0.306,-5.337
0.203,0.064,0.303,-5.337
0.285,0.061,0.300,-5.337
0.276,0.059,0.303,-5.337
0.190,0.061,0.305,-5.337
0.133,0.063,0.308,-5.337
0.170,0.063,0.309,-5.337
0.190,0.061,0.311,-5.337
0.242,0.060,0.306,-5.337
0.259,0.057,0.304,-5.337
0.229,0.055,0.304,-5.337
0.242,0.057,0.303,-5.337
0.314,0.058,0.300,-5.337
0.281,0.056,0.304,-5.337
0.210,0.058,0.305,-5.337
0.186,0.058,0.307,-5.337
0.256,0.054,0.304,-5.337
0.370,0.052,0.304,-5.337
0.366,0.052,0.305,-5.337
0.182,0.059,0.305,-5.337
0.080,0.061,0.306,-5.337
0.122,0.059,0.309,-5.337
0.197,0.059,0.306,-5.337
0.194,0.061,0.303,-5.337
0.126,0.061,0.300,-5.337
0.127,0.057,0.302,-5.337
0.177,0.057,0.303,-5.337
0.192,0.057,0.300,-5.337
0.238,0.055,0.300,-5.337
0.296,0.058,0.306,-5.337
0.261,0.062,0.309,-5.337
0.268,0.061,0.302,-5.337
0.228,0.063,0.299,-5.337
0.152,0.061,0.302,-5.337
0.237,0.063,0.309,-5.337
0.237,0.064,0.310,-5.337
0.240,0.065,0.311,-5.337
0.180,0.065,0.305,-5.337
0.100,0.065,0.301,-5.337
0.168,0.060,0.300,-5.337
0.265,0.057,0.304,-5.337
0.319,0.059,0.305,-5.337
0.292,0.062,0.303,-5.337
0.229,0.062,0.302,-5.337
0.129,0.065,0.304,-5.337
0.108,0.060,0.306,-5.337
0.188,0.056,0.305,-5.337
0.244,0.054,0.305,-5.337
0.264,0.055,0.305,-5.337
0.203,0.061,0.303,-5.337
0.157,0.059,0.301,-5.337
0.211,0.058,0.303,-5.337
0.219,0.056,0.304,-5.337
0.204,0.053,0.306,-5.337
0.204,0.054,0.304,-5.337
0.257,0.053,0.305,-5.337
0.273,0.054,0.302,-5.337
0.157,0.055,0.300,-5.337
0.198,0.053,0.304,-5.337
0.343,0.054,0.309,-5.337
0.353,0.054,0.309,-5.337
0.249,0.058,0.306,-5.337
0.227,0.053,0.303,-5.337
0.226,0.053,0.301,-5.337
0.288,0.050,0.301,-5.337
0.335,0.053,0.301,-5.337
0.251,0.056,0.301,-5.337
0.167,0.057,0.306,-5.337
0.207,0.054,0.305,-5.337
0.232,0.051,0.305,-5.337
0.173,0.054,0.302,-5.337
0.184,0.055,0.300,-5.337
0.241,0.055,0.300,-5.337
0.236,0.055,0.300,-5.337
0.189,0.054,0.302,-5.337
0.137,0.054,0.301,-5.337
0.133,0.051,0.304,-5.337
0.189,0.052,0.306,-5.337
0.206,0.054,0.307,-5.337
0.230,0.051,0.307,-5.337
0.310,0.052,0.305,-5.337
0.356,0.053,0.300,-5.337
0.280,0.055,0.302,-5.337
0.146,0.059,0.305,-5.337
0.075,0.060,0.307,-5.337
0.104,0.054,0.307,-5.337
0.156,0.052,0.304,-5.337
0.240,0.050,0.302,-5.337
0.270,0.049,0.301,-5.337
0.262,0.050,0.302,-5.337
0.236,0.051,0.302,-5.337
0.249,0.049,0.301,-5.337
0.282,0.050,0.302,-5.337
0.288,0.048,0.302,-5.337
0.292,0.048,0.302,-5.337
0.268,0.048,0.303,-5.337
0.256,0.048,0.306,-5.337
0.215,0.048,0.309,-5.337
0.264,0.046,0.305,-5.337
0.242,0.046,0.303,-5.337
0.162,0.045,0.303,-5.337
0.162,0.047,0.305,-5.337
0.142,0.048,0.304,-5.337
0.163,0.049,0.302,-5.337
0.202,0.052,0.303,-5.337
0.258,0.049,0.304,-5.337
0.232,0.047,0.303,-5.337
0.202,0.044,0.303,-5.337
0.167,0.046,0.304,-5.337
0.168,0.045,0.302,-5.337
0.220,0.043,0.301,-5.337
0.197,0.045,0.303,-5.337
0.112,0.042,0.305,-5.337
0.083,0.041,0.310,-5.337
0.123,0.042,0.308,-5.337
0.177,0.043,0.310,-5.337
0.165,0.043,0.310,-5.337
0.167,0.041,0.306,-5.337
0.158,0.044,0.303,-5.337
0.135,0.045,0.298,-5.337
0.141,0.044,0.297,-5.337
0.168,0.045,0.297,-5.337
0.140,0.048,0.302,-5.337
0.136,0.047,0.300,-5.337
0.174,0.047,0.300,-5.337
0.247,0.046,0.302,-5.337
0.272,0.044,0.306,-5.337
0.219,0.045,0.306,-5.337
0.193,0.048,0.304,-5.337
0.212,0.045,0.302,-5.337
0.297,0.042,0.304,-5.337
0.363,0.039,0.305,-5.337
0.409,0.042,0.305,-5.337
0.338,0.042,0.304,-5.337
0.291,0.045,0.303,-5.337
0.176,0.044,0.305,-5.337
0.107,0.046,0.307,-5.337
0.069,0.043,0.305,-5.337
0.064,0.042,0.304,-5.337
0.178,0.041,0.303,-5.337
0.231,0.041,0.302,-5.337
0.246,0.038,0.303,-5.337
0.225,0.039,0.307,-5.337
0.207,0.040,0.313,-5.337
0.161,0.042,0.311,-5.337
0.169,0.042,0.309,-5.337
0.154,0.043,0.307,-5.337
0.150,0.044,0.305,-5.337
0.113,0.043,0.302,-5.337
0.124,0.043,0.302,-5.337
0.083,0.043,0.303,-5.337
0.153,0.040,0.305,-5.337
0.258,0.034,0.304,-5.337
0.252,0.034,0.303,-5.337
0.174,0.039,0.304,-5.337
0.171,0.041,0.307,-5.337
0.297,0.034,0.307,-5.337
0.327,0.033,0.306,-5.337
0.237,0.035,0.305,-5.337
0.222,0.039,0.303,-5.337
0.165,0.042,0.300,-5.337
0.104,0.042,0.303,-5.337
0.131,0.040,0.307,-5.337
0.214,0.042,0.307,-5.337
0.215,0.044,0.305,-5.337
0.112,0.046,0.301,-5.337
0.106,0.042,0.303,-5.337
0.166,0.042,0.307,-5.337
0.249,0.044,0.308,-5.337
0.292,0.041,0.306,-5.337
0.289,0.041,0.306,-5.337
0.246,0.041,0.305,-5.337
0.182,0.043,0.307,-5.337
0.155,0.042,0.308,-5.337
0.190,0.038,0.308,-5.337
0.225,0.038,0.305,-5.337
0.206,0.038,0.303,-5.337
0.175,0.037,0.305,-5.337
0.157,0.041,0.309,-5.337
0.130,0.037,0.309,-5.337
0.146,0.038,0.305,-5.337
0.177,0.039,0.303,-5.337
0.214,0.041,0.304,-5.337
0.238,0.041,0.307,-5.337
0.196,0.040,0.308,-5.337
0.170,0.040,0.305,-5.337
0.212,0.040,0.305,-5.337
0.214,0.037,0.306,-5.337
0.265,0.034,0.305,-5.337
0.282,0.035,0.304,-5.337
0.162,0.039,0.306,-5.337
0.139,0.041,0.308,-5.337
0.143,0.042,0.306,-5.337
0.210,0.038,0.303,-5.337
0.221,0.037,0.300,-5.337
0.146,0.042,0.306,-5.337
0.116,0.041,0.309,-5.337
0.182,0.038,0.310,-5.337
0.178,0.033,0.307,-5.337
0.175,0.035,0.303,-5.337
0.202,0.040,0.303,-5.337
0.140,0.041,0.303,-5.337
0.085,0.041,0.305,-5.337
0.140,0.039,0.307,-5.337
0.298,0.037,0.310,-5.337
0.277,0.042,0.309,-5.337
0.231,0.039,0.305,-5.337
0.186,0.039,0.302,-5.337
0.176,0.040,0.299,-5.337
0.230,0.041,0.300,-5.337
0.159,0.041,0.301,-5.337
0.109,0.038,0.302,-5.337
0.115,0.036,0.306,-5.337
0.102,0.039,0.308,-5.337
0.137,0.037,0.308,-5.337
0.230,0.036,0.305,-5.337
0.258,0.034,0.303,-5.337
0.295,0.032,0.301,-5.337
0.244,0.035,0.304,-5.337
0.134,0.040,0.309,-5.337
0.116,0.041,0.310,-5.337
0.152,0.040,0.306,-5.337
0.198,0.037,0.306,-5.337
0.219,0.036,0.305,-5.337
0.178,0.038,0.307,-5.337
0.160,0.033,0.309,-5.337
0.204,0.032,0.306,-5.337
0.219,0.031,0.306,-5.337
0.225,0.029,0.308,-5.337
0.221,0.033,0.309,-5.337
0.195,0.034,0.309,-5.337
0.201,0.037,0.309,-5.337
0.224,0.033,0.307,-5.337
0.234,0.032,0.305,-5.337
0.234,0.032,0.302,-5.337
0.206,0.032,0.299,-5.337
0.170,0.036,0.299,-5.337
0.152,0.034,0.301,-5.337
0.147,0.030,0.304,-5.337
0.124,0.029,0.307,-5.337
0.140,0.031,0.307,-5.337
0.214,0.032,0.308,-5.337
0.229,0.034,0.306,-5.337
0.143,0.035,0.307,-5.337
0.180,0.034,0.301,-5.337
0.257,0.033,0.298,-5.337
0.294,0.031,0.302,-5.337
0.174,0.033,0.307,-5.337
0.088,0.030,0.306,-5.337
0.137,0.033,0.306,-5.337
0.148,0.034,0.307,-5.337
0.158,0.035,0.306,-5.337
0.155,0.033,0.303,-5.337
0.208,0.030,0.301,-5.337
0.186,0.031,0.303,-5.337
0.157,0.036,0.307,-5.337
0.160,0.034,0.308,-5.337
0.142,0.034,0.309,-5.337
0.191,0.034,0.308,-5.337
0.250,0.035,0.301,-5.337
0.288,0.033,0.301,-5.337
0.272,0.034,0.302,-5.337
0.216,0.038,0.302,-5.337
0.213,0.039,0.305,-5.337
0.259,0.041,0.307,-5.337
0.259,0.045,0.306,-5.337
0.245,0.045,0.305,-5.337
0.217,0.043,0.303,-5.337
0.171,0.039,0.300,-5.337
0.222,0.033,0.300,-5.337
0.244,0.037,0.305,-5.337
0.210,0.038,0.308,-5.337
0.155,0.039,0.308,-5.337
0.201,0.037,0.305,-5.337
0.232,0.036,0.301,-5.337
0.158,0.037,0.304,-5.337
0.129,0.034,0.307,-5.337
0.222,0.034,0.309,-5.337
0.184,0.038,0.310,-5.337
0.128,0.038,0.310,-5.337
0.182,0.034,0.306,-5.337
0.221,0.031,0.303,-5.337
0.193,0.032,0.303,-5.337
0.256,0.031,0.302,-5.337
0.295,0.030,0.304,-5.337
0.272,0.031,0.303,-5.337
0.183,0.036,0.298,-5.337
0.118,0.039,0.301,-5.337
0.136,0.039,0.304,-5.337
0.252,0.037,0.308,-5.337
0.224,0.038,0.306,-5.337
0.150,0.041,0.306,-5.337
0.140,0.040,0.305,-5.337
0.173,0.037,0.303,-5.337
0.220,0.035,0.302,-5.337
0.197,0.037,0.300,-5.337
0.201,0.039,0.304,-5.337
0.192,0.038,0.304,-5.337
0.129,0.039,0.303,-5.337
0.105,0.040,0.303,-5.337
0.135,0.040,0.303,-5.337
0.133,0.044,0.303,-5.337
0.148,0.040,0.306,-5.337
0.232,0.036,0.307,-5.337
0.298,0.037,0.306,-5.337
0.239,0.041,0.307,-5.337
0.180,0.044,0.309,-5.337
0.208,0.039,0.305,-5.337
0.204,0.039,0.305,-5.337
0.207,0.042,0.304,-5.337
0.203,0.042,0.305,-5.337
0.158,0.042,0.302,-5.337
0.167,0.040,0.305,-5.337
0.217,0.042,0.302,-5.337
0.206,0.043,0.301,-5.337
0.190,0.040,0.304,-5.337
0.205,0.041,0.305,-5.337
0.202,0.041,0.304,-5.337
0.183,0.044,0.304,-5.337
0.161,0.044,0.304,-5.337
0.164,0.041,0.306,-5.337
0.136,0.039,0.304,-5.337
0.174,0.037,0.303,-5.337
0.134,0.039,0.302,-5.337
0.067,0.042,0.301,-5.337
0.108,0.040,0.302,-5.337
0.187,0.043,0.306,-5.337
0.170,0.047,0.310,-5.337
0.152,0.049,0.309,-5.337
0.240,0.044,0.307,-5.337
0.234,0.041,0.303,-5.337
0.227,0.038,0.300,-5.337
0.263,0.041,0.300,-5.337
0.269,0.044,0.299,-5.337
0.248,0.043,0.297,-5.337
0.287,0.040,0.299,-5.337
0.267,0.041,0.303,-5.337
0.189,0.042,0.308,-5.337
0.167,0.038,0.309,-5.337
0.193,0.044,0.307,-5.337
0.181,0.047,0.302,-5.337
0.209,0.046,0.301,-5.337
0.168,0.045,0.305,-5.337
0.135,0.046,0.304,-5.337
0.202,0.044,0.304,-5.337
0.215,0.044,0.306,-5.337
0.202,0.044,0.307,-5.337
0.210,0.044,0.302,-5.337
0.133,0.041,0.302,-5.337
0.056,0.044,0.303,-5.337
0.114,0.044,0.302,-5.337
0.194,0.042,0.304,-5.337
0.206,0.044,0.303,-5.337
0.161,0.047,0.304,-5.337
0.172,0.046,0.308,-5.337
0.216,0.043,0.306,-5.337
0.205,0.044,0.304,-5.337
0.152,0.044,0.301,-5.337
0.128,0.049,0.302,-5.337
0.177,0.046,0.302,-5.337
0.217,0.045,0.303,-5.337
0.208,0.043,0.301,-5.337
0.223,0.042,0.301,-5.337
0.144,0.043,0.302,-5.337
0.141,0.045,0.303,-5.337
0.195,0.044,0.302,-5.337
0.201,0.043,0.302,-5.337
0.200,0.039,0.304,-5.337
0.233,0.038,0.306,-5.337
0.283,0.039,0.302,-5.337
0.258,0.044,0.302,-5.337
0.169,0.046,0.303,-5.337
0.214,0.047,0.301,-5.337
0.264,0.047,0.305,-5.337
0.195,0.050,0.308,-5.337
0.179,0.047,0.308,-5.337
0.235,0.044,0.305,-5.337
0.217,0.046,0.305,-5.337
0.236,0.048,0.307,-5.337
0.168,0.049,0.305,-5.337
0.123,0.047,0.299,-5.337
0.208,0.045,0.301,-5.337
0.214,0.047,0.302,-5.337
0.132,0.048,0.302,-5.337
0.098,0.049,0.298,-5.337
0.101,0.048,0.297,-5.337
0.209,0.044,0.301,-5.337
0.251,0.044,0.308,-5.337
0.153,0.048,0.306,-5.337
0.112,0.049,0.304,-5.337
0.135,0.046,0.306,-5.337
0.171,0.045,0.307,-5.337
0.173,0.047,0.307,-5.337
0.197,0.049,0.300,-5.337
0.184,0.054,0.298,-5.337
0.155,0.053,0.302,-5.337
0.152,0.049,0.307,-5.337
0.182,0.048,0.310,-5.337
0.204,0.048,0.311,-5.337
0.174,0.050,0.305,-5.337
0.180,0.048,0.302,-5.337
0.285,0.047,0.301,-5.337
0.280,0.046,0.301,-5.337
0.227,0.046,0.299,-5.337
0.194,0.046,0.298,-5.337
0.278,0.044,0.302,-5.337
0.276,0.046,0.304,-5.337
0.283,0.045,0.305,-5.337
0.271,0.044,0.306,-5.337
0.255,0.045,0.304,-5.337
0.229,0.048,0.304,-5.337
0.169,0.051,0.303,-5.337
0.106,0.050,0.306,-5.337
0.200,0.049,0.307,-5.337
0.301,0.046,0.305,-5.337
0.315,0.046,0.302,-5.337
0.261,0.047,0.303,-5.337
0.152,0.052,0.307,-5.337
0.140,0.057,0.307,-5.337
0.141,0.055,0.310,-5.337
0.144,0.052,0.308,-5.337
0.198,0.053,0.304,-5.337
0.243,0.052,0.299,-5.337
0.215,0.055,0.298,-5.337
0.135,0.054,0.301,-5.337
0.224,0.051,0.306,-5.337
0.348,0.050,0.305,-5.337
0.324,0.052,0.303,-5.337
0.280,0.054,0.304,-5.337
0.188,0.054,0.303,-5.337
0.194,0.054,0.304,-5.337
0.221,0.054,0.305,-5.337
0.202,0.052,0.305,-5.337
0.238,0.055,0.304,-5.337
0.228,0.056,0.302,-5.337
0.206,0.055,0.303,-5.337
0.239,0.056,0.308,-5.337
0.261,0.053,0.312,-5.337
0.273,0.050,0.309,-5.337
0.240,0.051,0.307,-5.337
0.163,0.052,0.306,-5.337
0.178,0.055,0.306,-5.337
0.179,0.051,0.304,-5.337
0.143,0.051,0.301,-5.337
0.149,0.051,0.300,-5.337
0.210,0.049,0.298,-5.337
0.250,0.049,0.297,-5.337
0.287,0.051,0.295,-5.337
0.314,0.053,0.302,-5.337
0.241,0.053,0.307,-5.337
0.210,0.053,0.309,-5.337
0.132,0.057,0.306,-5.337
0.148,0.056,0.304,-5.337
0.099,0.057,0.303,-5.337
0.097,0.056,0.301,-5.337
0.130,0.055,0.301,-5.337
0.169,0.054,0.300,-5.337
0.240,0.056,0.302,-5.337
0.259,0.055,0.305,-5.337
0.231,0.053,0.305,-5.337
0.236,0.054,0.307,-5.337
0.257,0.055,0.307,-5.337
0.191,0.055,0.306,-5.337
0.067,0.055,0.303,-5.337
0.018,0.055,0.303,-5.337
0.103,0.052,0.305,-5.337
0.218,0.048,0.304,-5.337
0.223,0.049,0.306,-5.337
0.232,0.052,0.307,-5.337
0.316,0.051,0.311,-5.337
0.244,0.052,0.309,-5.337
0.160,0.053,0.305,-5.337
0.068,0.054,0.300,-5.337
0.143,0.052,0.301,-5.337
0.226,0.053,0.301,-5.337
0.216,0.053,0.301,-5.337
0.234,0.049,0.303,-5.337
0.257,0.053,0.303,-5.337
0.275,0.053,0.305,-5.337
0.203,0.051,0.308,-5.337
0.178,0.050,0.307,-5.337
0.168,0.054,0.304,-5.337
0.185,0.054,0.301,-5.337
0.201,0.050,0.304,-5.337
0.197,0.052,0.308,-5.337
0.136,0.054,0.306,-5.337
0.109,0.052,0.306,-5.337
0.117,0.056,0.305,-5.337
0.201,0.054,0.308,-5.337
0.284,0.051,0.306,-5.337
0.253,0.050,0.302,-5.337
0.158,0.052,0.300,-5.337
0.094,0.052,0.301,-5.337
0.087,0.051,0.302,-5.337
0.175,0.050,0.302,-5.337
0.212,0.051,0.303,-5.337
0.255,0.053,0.304,-5.337
0.230,0.052,0.304,-5.337
0.211,0.053,0.304,-5.337
0.187,0.053,0.304,-5.337
0.113,0.056,0.306,-5.337
0.132,0.053,0.308,-5.337
0.192,0.052,0.307,-5.337
0.129,0.055,0.305,-5.337
0.127,0.057,0.305,-5.337
0.235,0.056,0.306,-5.337
0.246,0.057,0.308,-5.337
0.197,0.055,0.310,-5.337
0.177,0.057,0.306,-5.337
0.170,0.057,0.303,-5.337
0.153,0.059,0.301,-5.337
0.163,0.055,0.302,-5.337
0.163,0.054,0.303,-5.337
0.242,0.057,0.306,-5.337
0.342,0.058,0.306,-5.337
0.303,0.059,0.305,-5.337
0.265,0.054,0.302,-5.337
0.321,0.056,0.300,-5.337
0.275,0.057,0.301,-5.337
0.244,0.057,0.303,-5.337
0.243,0.055,0.305,-5.337
0.201,0.055,0.305,-5.337
0.180,0.057,0.305,-5.337
0.202,0.058,0.305,-5.337
0.111,0.058,0.305,-5.337
0.081,0.053,0.307,-5.337
0.144,0.053,0.308,-5.337
0.217,0.054,0.305,-5.337
0.201,0.051,0.304,-5.337
0.185,0.051,0.304,-5.337
0.224,0.053,0.301,-5.337
0.253,0.055,0.301,-5.337
0.254,0.062,0.301,-5.337
0.203,0.064,0.304,-5.337
0.170,0.060,0.308,-5.337
0.238,0.056,0.310,-5.337
0.295,0.058,0.307,-5.337
0.318,0.058,0.301,-5.337
0.268,0.056,0.299,-5.337
0.220,0.057,0.302,-5.337
0.257,0.059,0.307,-5.337
0.314,0.059,0.307,-5.337
0.196,0.061,0.306,-5.337
0.174,0.058,0.304,-5.337
0.165,0.059,0.299,-5.337
0.155,0.059,0.299,-5.337
0.202,0.057,0.303,-5.337
0.234,0.056,0.306,-5.337
0.197,0.056,0.308,-5.337
0.196,0.054,0.306,-5.337
0.140,0.054,0.304,-5.337
0.128,0.055,0.301,-5.337
0.173,0.055,0.303,-5.337
0.186,0.058,0.307,-5.337
0.154,0.055,0.304,-5.337
0.171,0.054,0.303,-5.337
0.134,0.054,0.303,-5.337
0.174,0.054,0.308,-5.337
0.218,0.054,0.307,-5.337
0.219,0.054,0.304,-5.337
0.221,0.058,0.301,-5.337
0.148,0.060,0.301,-5.337
0.146,0.055,0.302,-5.337
0.269,0.052,0.304,-5.337
0.270,0.050,0.303,-5.337
0.133,0.054,0.304,-5.337
0.056,0.051,0.305,-5.337
0.146,0.051,0.301,-5.337
0.243,0.052,0.299,-5.337
0.246,0.053,0.303,-5.337
0.272,0.052,0.305,-5.337
0.214,0.051,0.308,-5.337
0.192,0.050,0.307,-5.337
0.230,0.051,0.305,-5.337
0.205,0.053,0.306,-5.337
0.257,0.051,0.306,-5.337
0.218,0.049,0.306,-5.337
0.094,0.049,0.305,-5.337
0.061,0.048,0.305,-5.337
0.148,0.047,0.304,-5.337
0.186,0.049,0.303,-5.337
0.202,0.049,0.305,-5.337
0.257,0.051,0.310,-5.337
0.198,0.053,0.310,-5.337
0.139,0.051,0.309,-5.337
0.206,0.046,0.305,-5.337
0.188,0.051,0.305,-5.337
0.150,0.051,0.304,-5.337
0.153,0.052,0.304,-5.337
0.163,0.048,0.304,-5.337
0.192,0.047,0.304,-5.337
0.207,0.047,0.303,-5.337
0.221,0.048,0.305,-5.337
0.215,0.048,0.302,-5.337
0.294,0.045,0.304,-5.337
0.254,0.043,0.308,-5.337
0.191,0.042,0.306,-5.337
0.239,0.045,0.300,-5.337
0.183,0.048,0.301,-5.337
0.146,0.042,0.306,-5.337
0.184,0.042,0.305,-5.337
0.217,0.045,0.301,-5.337
0.191,0.045,0.299,-5.337
0.167,0.044,0.300,-5.337
0.249,0.040,0.301,-5.337
0.290,0.039,0.302,-5.337
0.222,0.040,0.300,-5.337
0.160,0.043,0.303,-5.337
0.204,0.044,0.305,-5.337
0.216,0.044,0.302,-5.337
0.274,0.039,0.300,-5.337
0.281,0.039,0.302,-5.337
0.203,0.042,0.305,-5.337
0.168,0.043,0.305,-5.337
0.142,0.043,0.307,-5.337
0.164,0.042,0.309,-5.337
0.228,0.041,0.305,-5.337
0.230,0.042,0.302,-5.337
0.191,0.038,0.304,-5.337
0.177,0.037,0.308,-5.337
0.230,0.037,0.308,-5.337
0.242,0.037,0.306,-5.337
0.157,0.040,0.302,-5.337
0.098,0.043,0.302,-5.337
0.113,0.041,0.300,-5.337
0.182,0.042,0.298,-5.337
0.214,0.040,0.299,-5.337
0.173,0.039,0.301,-5.337
0.181,0.041,0.303,-5.337
0.205,0.042,0.303,-5.337
0.147,0.043,0.305,-5.337
0.086,0.042,0.306,-5.337
0.160,0.042,0.309,-5.337
0.180,0.043,0.310,-5.337
0.081,0.047,0.308,-5.337
0.068,0.046,0.302,-5.337
0.106,0.044,0.296,-5.337
0.112,0.045,0.297,-5.337
0.119,0.045,0.304,-5.337
0.143,0.039,0.307,-5.337
0.193,0.037,0.308,-5.337
0.211,0.039,0.307,-5.337
0.257,0.037,0.305,-5.337
0.240,0.036,0.303,-5.337
0.151,0.040,0.301,-5.337
0.119,0.040,0.303,-5.337
0.174,0.040,0.306,-5.337
0.197,0.039,0.304,-5.337
0.228,0.038,0.302,-5.337
0.219,0.040,0.304,-5.337
0.213,0.040,0.303,-5.337
0.221,0.040,0.302,-5.337
0.276,0.037,0.304,-5.337
0.248,0.039,0.306,-5.337
0.185,0.038,0.305,-5.337
0.192,0.037,0.305,-5.337
0.295,0.036,0.305,-5.337
0.262,0.037,0.306,-5.337
0.212,0.037,0.307,-5.337
0.203,0.039,0.303,-5.337
0.169,0.038,0.304,-5.337
0.163,0.037,0.307,-5.337
0.174,0.041,0.307,-5.337
0.200,0.042,0.305,-5.337
0.181,0.043,0.302,-5.337
0.165,0.043,0.296,-5.337
0.290,0.039,0.297,-5.337
0.330,0.043,0.305,-5.337
0.243,0.047,0.309,-5.337
0.176,0.046,0.305,-5.337
0.271,0.041,0.308,-5.337
0.285,0.039,0.308,-5.337
0.186,0.040,0.308,-5.337
0.133,0.040,0.302,-5.337
0.068,0.042,0.301,-5.337
0.087,0.040,0.301,-5.337
0.164,0.042,0.303,-5.337
0.138,0.045,0.305,-5.337
0.090,0.042,0.305,-5.337
0.153,0.037,0.306,-5.337
0.147,0.039,0.310,-5.337
0.122,0.038,0.309,-5.337
0.191,0.037,0.305,-5.337
0.177,0.038,0.302,-5.337
0.147,0.041,0.302,-5.337
0.259,0.041,0.306,-5.337
0.304,0.041,0.307,-5.337
0.251,0.040,0.304,-5.337
0.253,0.038,0.303,-5.337
0.266,0.039,0.305,-5.337
0.208,0.042,0.309,-5.337
0.171,0.038,0.309,-5.337
0.221,0.036,0.306,-5.337
0.250,0.037,0.304,-5.337
0.248,0.037,0.304,-5.337
0.162,0.041,0.308,-5.337
0.153,0.038,0.306,-5.337
0.177,0.038,0.306,-5.337
0.143,0.041,0.306,-5.337
0.194,0.039,0.309,-5.337
0.260,0.037,0.309,-5.337
0.272,0.035,0.306,-5.337
0.198,0.040,0.302,-5.337
0.177,0.041,0.305,-5.337
0.222,0.037,0.309,-5.337
0.223,0.036,0.307,-5.337
0.210,0.034,0.303,-5.337
0.204,0.038,0.304,-5.337
0.208,0.039,0.308,-5.337
0.223,0.039,0.310,-5.337
0.241,0.039,0.308,-5.337
0.307,0.039,0.309,-5.337
0.295,0.039,0.307,-5.337
0.220,0.038,0.305,-5.337
0.159,0.035,0.305,-5.337
0.191,0.037,0.305,-5.337
0.241,0.037,0.303,-5.337
0.205,0.038,0.305,-5.337
0.152,0.042,0.305,-5.337
0.183,0.040,0.305,-5.337
0.204,0.039,0.304,-5.337
0.188,0.038,0.304,-5.337
0.187,0.039,0.302,-5.337
0.193,0.041,0.301,-5.337
0.151,0.042,0.303,-5.337
0.136,0.043,0.305,-5.337
0.153,0.044,0.306,-5.337
0.175,0.043,0.302,-5.337
0.167,0.044,0.303,-5.337
0.082,0.046,0.309,-5.337
0.089,0.047,0.308,-5.337
0.134,0.047,0.308,-5.337
0.155,0.045,0.307,-5.337
0.187,0.042,0.301,-5.337
0.259,0.039,0.298,-5.337
0.299,0.039,0.304,-5.337
0.219,0.043,0.309,-5.337
0.145,0.041,0.312,-5.337
0.192,0.040,0.308,-5.337
0.217,0.042,0.306,-5.337
0.210,0.044,0.302,-5.337
0.118,0.046,0.305,-5.337
0.064,0.043,0.307,-5.337
0.167,0.040,0.306,-5.337
0.241,0.041,0.304,-5.337
0.271,0.040,0.303,-5.337
0.266,0.041,0.305,-5.337
0.220,0.040,0.308,-5.337
0.200,0.036,0.306,-5.337
0.199,0.036,0.304,-5.337
0.229,0.035,0.303,-5.337
0.274,0.035,0.305,-5.337
0.263,0.033,0.308,-5.337
0.300,0.033,0.310,-5.337
0.265,0.037,0.308,-5.337
0.245,0.035,0.302,-5.337
0.296,0.034,0.299,-5.337
0.270,0.034,0.305,-5.337
0.211,0.035,0.305,-5.337
0.202,0.037,0.307,-5.337
0.220,0.039,0.312,-5.337
0.237,0.039,0.313,-5.337
0.286,0.037,0.307,-5.337
0.230,0.039,0.301,-5.337
0.135,0.042,0.301,-5.337
0.114,0.038,0.301,-5.337
0.217,0.034,0.304,-5.337
0.235,0.036,0.306,-5.337
0.127,0.039,0.307,-5.337
0.133,0.038,0.303,-5.337
0.224,0.036,0.305,-5.337
0.253,0.035,0.309,-5.337
0.237,0.038,0.306,-5.337
0.208,0.036,0.302,-5.337
0.263,0.036,0.303,-5.337
0.254,0.037,0.305,-5.337
0.217,0.039,0.309,-5.337
0.190,0.038,0.308,-5.337
0.197,0.038,0.308,-5.337
0.105,0.040,0.304,-5.337
0.036,0.040,0.302,-5.337
0.105,0.039,0.304,-5.337
0.166,0.038,0.304,-5.337
0.184,0.037,0.302,-5.337
0.180,0.037,0.302,-5.337
0.185,0.036,0.308,-5.337
0.171,0.037,0.309,-5.337
0.217,0.038,0.312,-5.337
0.249,0.039,0.309,-5.337
0.167,0.042,0.309,-5.337
0.129,0.043,0.309,-5.337
0.130,0.043,0.309,-5.337
0.166,0.039,0.308,-5.337
0.179,0.042,0.306,-5.337
0.113,0.044,0.304,-5.337
0.122,0.043,0.306,-5.337
0.191,0.040,0.306,-5.337
0.191,0.042,0.304,-5.337
0.132,0.039,0.304,-5.337
0.168,0.038,0.304,-5.337
0.193,0.038,0.304,-5.337
0.176,0.037,0.300,-5.337
0.140,0.036,0.301,-5.337
0.153,0.036,0.308,-5.337
0.235,0.035,0.309,-5.337
0.275,0.038,0.305,-5.337
0.296,0.039,0.305,-5.337
0.249,0.040,0.304,-5.337
0.154,0.044,0.305,-5.337
0.109,0.041,0.305,-5.337
0.130,0.041,0.306,-5.337
0.127,0.040,0.302,-5.337
0.177,0.038,0.298,-5.337
0.208,0.038,0.298,-5.337
0.182,0.041,0.301,-5.337
0.155,0.043,0.303,-5.337
0.161,0.042,0.307,-5.337
0.161,0.038,0.308,-5.337
0.159,0.038,0.309,-5.337
0.091,0.039,0.309,-5.337
0.078,0.037,0.309,-5.337
0.074,0.037,0.308,-5.337
0.076,0.038,0.306,-5.337
0.088,0.038,0.304,-5.337
0.047,0.041,0.301,-5.337
0.054,0.044,0.301,-5.337
0.182,0.041,0.303,-5.337
0.240,0.039,0.305,-5.337
0.224,0.042,0.306,-5.337
0.191,0.041,0.304,-5.337
0.261,0.040,0.302,-5.337
0.299,0.038,0.304,-5.337
0.243,0.038,0.305,-5.337
0.177,0.039,0.305,-5.337
0.170,0.041,0.305,-5.337
0.167,0.044,0.307,-5.337
0.209,0.042,0.308,-5.337
0.290,0.039,0.308,-5.337
0.226,0.039,0.305,-5.337
0.185,0.040,0.306,-5.337
0.271,0.037,0.307,-5.337
0.217,0.040,0.305,-5.337
0.118,0.043,0.305,-5.337
0.226,0.046,0.304,-5.337
0.243,0.049,0.300,-5.337
0.171,0.046,0.299,-5.337
0.122,0.045,0.300,-5.337
0.124,0.044,0.305,-5.337
0.174,0.042,0.307,-5.337
0.157,0.045,0.305,-5.337
0.193,0.040,0.303,-5.337
0.237,0.043,0.304,-5.337
0.291,0.042,0.306,-5.337
0.370,0.043,0.304,-5.337
0.343,0.045,0.302,-5.337
0.201,0.043,0.302,-5.337
0.207,0.046,0.305,-5.337
0.180,0.047,0.306,-5.337
0.096,0.049,0.308,-5.337
0.138,0.048,0.309,-5.337
0.213,0.045,0.310,-5.337
0.225,0.046,0.307,-5.337
0.134,0.049,0.303,-5.337
0.101,0.046,0.302,-5.337
0.166,0.042,0.301,-5.337
0.225,0.039,0.303,-5.337
0.142,0.047,0.306,-5.337
0.097,0.047,0.308,-5.337
0.143,0.046,0.309,-5.337
0.184,0.050,0.307,-5.337
0.171,0.052,0.307,-5.337
0.226,0.051,0.306,-5.337
0.284,0.049,0.306,-5.337
0.248,0.050,0.304,-5.337
0.205,0.052,0.300,-5.337
0.189,0.052,0.300,-5.337
0.151,0.051,0.304,-5.337
0.112,0.049,0.305,-5.337
0.140,0.050,0.307,-5.337
0.131,0.050,0.308,-5.337
0.189,0.047,0.305,-5.337
0.215,0.047,0.305,-5.337
0.163,0.046,0.303,-5.337
0.093,0.050,0.303,-5.337
0.118,0.049,0.303,-5.337
0.109,0.049,0.306,-5.337
0.120,0.048,0.305,-5.337
0.192,0.049,0.300,-5.337
0.192,0.047,0.296,-5.337
0.239,0.047,0.300,-5.337
0.251,0.048,0.306,-5.337
0.191,0.050,0.307,-5.337
0.169,0.045,0.305,-5.337
0.195,0.047,0.305,-5.337
0.166,0.051,0.307,-5.337
0.204,0.050,0.305,-5.337
0.198,0.050,0.303,-5.337
0.154,0.051,0.304,-5.337
0.086,0.048,0.303,-5.337
0.097,0.047,0.303,-5.337
0.148,0.046,0.302,-5.337
0.205,0.047,0.302,-5.337
0.168,0.046,0.304,-5.337
0.178,0.044,0.304,-5.337
0.208,0.043,0.303,-5.337
0.221,0.046,0.304,-5.337
0.180,0.049,0.304,-5.337
0.183,0.045,0.306,-5.337
0.246,0.047,0.305,-5.337
0.273,0.048,0.303,-5.337
0.223,0.053,0.300,-5.337
0.244,0.048,0.301,-5.337
0.267,0.045,0.304,-5.337
0.249,0.049,0.303,-5.337
0.246,0.049,0.300,-5.337
0.224,0.047,0.300,-5.337
0.233,0.046,0.304,-5.337
0.180,0.051,0.304,-5.337
0.078,0.051,0.304,-5.337
0.199,0.041,0.307,-5.337
0.344,0.042,0.306,-5.337
0.347,0.048,0.304,-5.337
0.268,0.051,0.302,-5.337
0.201,0.049,0.304,-5.337
0.196,0.047,0.305,-5.337
0.166,0.048,0.306,-5.337
0.150,0.043,0.307,-5.337
0.139,0.046,0.306,-5.337
0.162,0.046,0.305,-5.337
0.165,0.043,0.302,-5.337
0.141,0.046,0.297,-5.337
0.147,0.046,0.301,-5.337
0.203,0.048,0.304,-5.337
0.234,0.048,0.305,-5.337
0.236,0.046,0.303,-5.337
0.173,0.049,0.303,-5.337
0.182,0.048,0.301,-5.337
0.277,0.048,0.301,-5.337
0.310,0.050,0.303,-5.337
0.254,0.051,0.303,-5.337
0.221,0.052,0.302,-5.337
0.248,0.054,0.301,-5.337
0.268,0.054,0.303,-5.337
0.264,0.054,0.307,-5.337
0.255,0.052,0.308,-5.337
0.232,0.053,0.308,-5.337
0.211,0.054,0.307,-5.337
0.200,0.053,0.305,-5.337
0.177,0.052,0.307,-5.337
0.137,0.050,0.307,-5.337
0.164,0.054,0.309,-5.337
0.098,0.055,0.309,-5.337
0.062,0.054,0.306,-5.337
0.054,0.051,0.305,-5.337
0.131,0.046,0.301,-5.337
0.176,0.054,0.302,-5.337
0.134,0.055,0.306,-5.337
0.200,0.051,0.307,-5.337
0.230,0.053,0.305,-5.337
0.199,0.057,0.306,-5.337
0.178,0.060,0.309,-5.337
0.204,0.058,0.309,-5.337
0.224,0.054,0.309,-5.337
0.268,0.051,0.307,-5.337
0.293,0.051,0.301,-5.337
0.214,0.051,0.300,-5.337
0.155,0.052,0.301,-5.337
0.197,0.054,0.302,-5.337
0.272,0.053,0.302,-5.337
0.342,0.054,0.303,-5.337
0.297,0.056,0.300,-5.337
0.203,0.057,0.303,-5.337
0.204,0.054,0.304,-5.337
0.248,0.056,0.306,-5.337
0.270,0.054,0.308,-5.337
0.256,0.057,0.310,-5.337
0.199,0.054,0.310,-5.337
0.169,0.054,0.307,-5.337
0.121,0.056,0.302,-5.337
0.197,0.056,0.300,-5.337
0.301,0.054,0.302,-5.337
0.357,0.054,0.306,-5.337
0.323,0.053,0.306,-5.337
0.314,0.050,0.305,-5.337
0.288,0.052,0.305,-5.337
0.234,0.055,0.304,-5.337
0.185,0.056,0.305,-5.337
0.132,0.052,0.307,-5.337
0.135,0.049,0.309,-5.337
0.176,0.051,0.307,-5.337
0.196,0.053,0.305,-5.337
0.219,0.052,0.301,-5.337
0.212,0.052,0.299,-5.337
0.221,0.053,0.302,-5.337
0.139,0.057,0.307,-5.337
0.153,0.050,0.305,-5.337
0.247,0.051,0.303,-5.337
0.295,0.053,0.304,-5.337
0.256,0.052,0.311,-5.337
0.228,0.053,0.313,-5.337
0.265,0.050,0.309,-5.337
0.345,0.049,0.303,-5.337
0.265,0.052,0.300,-5.337
0.207,0.053,0.300,-5.337
0.214,0.051,0.302,-5.337
0.211,0.051,0.305,-5.337
0.170,0.053,0.307,-5.337
0.122,0.053,0.304,-5.337
0.165,0.052,0.299,-5.337
0.131,0.053,0.299,-5.337
0.121,0.058,0.304,-5.337
0.193,0.055,0.302,-5.337
0.235,0.054,0.302,-5.337
0.239,0.057,0.304,-5.337
0.218,0.059,0.302,-5.337
0.205,0.058,0.303,-5.337
0.200,0.057,0.303,-5.337
0.208,0.055,0.304,-5.337
0.241,0.053,0.305,-5.337
0.296,0.052,0.308,-5.337
0.305,0.055,0.309,-5.337
0.315,0.056,0.310,-5.337
0.255,0.058,0.311,-5.337
0.244,0.053,0.313,-5.337
0.243,0.051,0.312,-5.337
0.177,0.056,0.308,-5.337
0.166,0.056,0.305,-5.337
0.257,0.055,0.301,-5.337
0.280,0.052,0.299,-5.337
0.215,0.053,0.301,-5.337
0.172,0.054,0.304,-5.337
0.156,0.055,0.305,-5.337
0.139,0.056,0.306,-5.337
0.227,0.054,0.306,-5.337
0.179,0.051,0.307,-5.337
0.167,0.051,0.306,-5.337
0.275,0.051,0.307,-5.337
0.324,0.052,0.303,-5.337
0.213,0.055,0.303,-5.337
0.195,0.052,0.304,-5.337
0.222,0.052,0.306,-5.337
0.161,0.054,0.304,-5.337
0.127,0.055,0.307,-5.337
0.227,0.054,0.309,-5.337
0.251,0.056,0.307,-5.337
0.252,0.053,0.304,-5.337
0.225,0.055,0.306,-5.337
0.198,0.054,0.308,-5.337
0.163,0.057,0.305,-5.337
0.191,0.057,0.302,-5.337
0.230,0.056,0.308,-5.337
0.244,0.054,0.313,-5.337
0.143,0.054,0.309,-5.337
0.149,0.056,0.305,-5.337
0.238,0.050,0.304,-5.337
0.290,0.050,0.308,-5.337
0.209,0.051,0.307,-5.337
0.153,0.051,0.303,-5.337
0.176,0.052,0.301,-5.337
0.204,0.050,0.301,-5.337
0.179,0.049,0.303,-5.337
0.193,0.048,0.309,-5.337
0.260,0.047,0.309,-5.337
0.304,0.048,0.304,-5.337
0.246,0.051,0.301,-5.337
0.290,0.052,0.304,-5.337
0.272,0.050,0.307,-5.337
0.217,0.052,0.308,-5.337
0.246,0.049,0.308,-5.337
0.218,0.052,0.309,-5.337
0.154,0.052,0.311,-5.337
0.221,0.049,0.310,-5.337
0.187,0.048,0.305,-5.337
0.225,0.044,0.304,-5.337
0.248,0.050,0.304,-5.337
0.206,0.050,0.307,-5.337
0.203,0.048,0.307,-5.337
0.211,0.048,0.305,-5.337
0.198,0.046,0.305,-5.337
0.177,0.046,0.302,-5.337
0.195,0.047,0.297,-5.337
0.189,0.051,0.297,-5.337
0.187,0.047,0.300,-5.337
0.238,0.044,0.304,-5.337
0.226,0.047,0.307,-5.337
0.193,0.048,0.307,-5.337
0.157,0.049,0.310,-5.337
0.183,0.045,0.305,-5.337
0.126,0.046,0.300,-5.337
0.083,0.047,0.299,-5.337
0.139,0.044,0.301,-5.337
0.355,0.037,0.307,-5.337
0.394,0.043,0.305,-5.337
0.171,0.048,0.301,-5.337
0.150,0.047,0.302,-5.337
0.290,0.044,0.304,-5.337
0.281,0.046,0.306,-5.337
0.246,0.046,0.309,-5.337
0.204,0.047,0.312,-5.337
0.179,0.048,0.310,-5.337
0.207,0.047,0.307,-5.337
0.245,0.047,0.307,-5.337
0.275,0.047,0.306,-5.337
0.273,0.044,0.302,-5.337
0.257,0.045,0.296,-5.337
0.266,0.047,0.295,-5.337
0.301,0.047,0.298,-5.337
0.286,0.047,0.302,-5.337
0.177,0.050,0.303,-5.337
0.191,0.044,0.303,-5.337
0.228,0.047,0.301,-5.337
0.159,0.047,0.303,-5.337
0.182,0.044,0.308,-5.337
0.228,0.044,0.311,-5.337
0.212,0.040,0.311,-5.337
0.234,0.043,0.308,-5.337
0.210,0.045,0.304,-5.337
0.151,0.044,0.304,-5.337
0.162,0.042,0.304,-5.337
0.160,0.042,0.306,-5.337
0.143,0.042,0.305,-5.337
0.191,0.039,0.301,-5.337
0.306,0.036,0.301,-5.337
0.321,0.038,0.303,-5.337
0.185,0.039,0.305,-5.337
0.085,0.041,0.304,-5.337
0.142,0.037,0.304,-5.337
0.274,0.036,0.303,-5.337
0.309,0.035,0.302,-5.337
0.307,0.041,0.304,-5.337
0.264,0.044,0.306,-5.337
0.256,0.045,0.305,-5.337
0.286,0.042,0.307,-5.337
0.213,0.042,0.309,-5.337
0.225,0.042,0.309,-5.337
0.276,0.044,0.304,-5.337
0.192,0.047,0.301,-5.337
0.095,0.044,0.303,-5.337
0.124,0.042,0.307,-5.337
0.135,0.045,0.309,-5.337
0.147,0.042,0.310,-5.337
0.196,0.038,0.307,-5.337
0.208,0.041,0.305,-5.337
0.202,0.043,0.304,-5.337
0.209,0.043,0.302,-5.337
0.215,0.038,0.301,-5.337
0.196,0.035,0.307,-5.337
0.204,0.037,0.310,-5.337
0.181,0.039,0.307,-5.337
0.191,0.038,0.306,-5.337
0.245,0.038,0.300,-5.337
0.248,0.035,0.302,-5.337
0.248,0.035,0.304,-5.337
0.219,0.038,0.309,-5.337
0.212,0.038,0.310,-5.337
0.258,0.034,0.305,-5.337
0.315,0.034,0.303,-5.337
0.276,0.037,0.303,-5.337
0.247,0.038,0.301,-5.337
0.234,0.037,0.301,-5.337
0.204,0.037,0.305,-5.337
0.164,0.037,0.305,-5.337
0.156,0.039,0.307,-5.337
0.194,0.038,0.309,-5.337
0.222,0.035,0.308,-5.337
0.194,0.037,0.304,-5.337
0.173,0.038,0.302,-5.337
0.163,0.038,0.306,-5.337
0.179,0.039,0.308,-5.337
0.196,0.039,0.302,-5.337
0.116,0.044,0.299,-5.337
0.089,0.044,0.300,-5.337
0.150,0.042,0.305,-5.337
0.192,0.040,0.305,-5.337
0.166,0.042,0.303,-5.337
0.152,0.041,0.302,-5.337
0.147,0.039,0.303,-5.337
0.155,0.040,0.307,-5.337
0.164,0.042,0.310,-5.337
0.201,0.039,0.310,-5.337
0.189,0.040,0.304,-5.337
0.181,0.039,0.298,-5.337
0.190,0.037,0.301,-5.337
0.203,0.037,0.305,-5.337
0.229,0.037,0.306,-5.337
0.226,0.036,0.307,-5.337
0.216,0.038,0.306,-5.337
0.155,0.041,0.302,-5.337
0.154,0.042,0.301,-5.337
0.182,0.040,0.303,-5.337
0.216,0.038,0.307,-5.337
0.190,0.036,0.306,-5.337
0.198,0.036,0.303,-5.337
0.188,0.039,0.304,-5.337
0.170,0.038,0.304,-5.337
0.182,0.035,0.306,-5.337
0.229,0.033,0.306,-5.337
0.215,0.034,0.306,-5.337
0.213,0.036,0.302,-5.337
0.207,0.035,0.300,-5.337
0.232,0.033,0.299,-5.337
0.193,0.036,0.298,-5.337
0.202,0.038,0.304,-5.337
0.275,0.036,0.310,-5.337
0.287,0.035,0.312,-5.337
0.259,0.038,0.313,-5.337
0.124,0.041,0.312,-5.337
0.153,0.041,0.308,-5.337
0.227,0.038,0.305,-5.337
0.138,0.040,0.303,-5.337
0.122,0.039,0.297,-5.337
0.126,0.037,0.297,-5.337
0.132,0.033,0.303,-5.337
0.229,0.032,0.306,-5.337
0.291,0.039,0.309,-5.337
0.157,0.041,0.309,-5.337
0.170,0.035,0.310,-5.337
0.207,0.035,0.304,-5.337
0.212,0.035,0.301,-5.337
0.234,0.037,0.302,-5.337
0.228,0.034,0.307,-5.337
0.214,0.034,0.309,-5.337
0.217,0.032,0.311,-5.337
0.240,0.033,0.311,-5.337
0.151,0.037,0.310,-5.337
0.135,0.034,0.307,-5.337
0.212,0.033,0.307,-5.337
0.262,0.034,0.306,-5.337
0.226,0.036,0.304,-5.337
0.200,0.034,0.303,-5.337
0.193,0.032,0.301,-5.337
0.160,0.036,0.299,-5.337
0.184,0.038,0.299,-5.337
0.217,0.038,0.302,-5.337
0.156,0.037,0.304,-5.337
0.135,0.037,0.303,-5.337
0.215,0.037,0.303,-5.337
0.244,0.038,0.305,-5.337
0.225,0.039,0.307,-5.337
0.230,0.038,0.307,-5.337
0.164,0.038,0.307,-5.337
0.100,0.040,0.307,-5.337
0.117,0.039,0.306,-5.337
0.179,0.036,0.309,-5.337
0.259,0.034,0.311,-5.337
0.259,0.037,0.310,-5.337
0.241,0.038,0.304,-5.337
0.181,0.034,0.301,-5.337
0.154,0.034,0.302,-5.337
0.243,0.036,0.303,-5.337
0.253,0.039,0.304,-5.337
0.289,0.038,0.306,-5.337
0.305,0.034,0.308,-5.337
0.243,0.034,0.306,-5.337
0.242,0.033,0.303,-5.337
0.235,0.036,0.303,-5.337
0.166,0.038,0.301,-5.337
0.169,0.038,0.300,-5.337
0.198,0.040,0.303,-5.337
0.215,0.039,0.306,-5.337
0.160,0.040,0.309,-5.337
0.084,0.043,0.310,-5.337
0.159,0.040,0.306,-5.337
0.175,0.038,0.303,-5.337
0.184,0.035,0.308,-5.337
0.193,0.035,0.307,-5.337
0.152,0.037,0.305,-5.337
0.183,0.032,0.300,-5.337
0.239,0.031,0.300,-5.337
0.284,0.034,0.300,-5.337
0.195,0.037,0.303,-5.337
0.140,0.035,0.305,-5.337
0.117,0.036,0.308,-5.337
0.067,0.038,0.311,-5.337
0.079,0.041,0.312,-5.337
0.084,0.038,0.308,-5.337
0.092,0.038,0.304,-5.337
0.166,0.041,0.303,-5.337
0.179,0.040,0.305,-5.337
0.236,0.037,0.307,-5.337
0.287,0.037,0.308,-5.337
0.268,0.041,0.304,-5.337
0.169,0.039,0.304,-5.337
0.143,0.039,0.303,-5.337
0.152,0.042,0.300,-5.337
0.186,0.041,0.298,-5.337
0.275,0.037,0.300,-5.337
0.259,0.037,0.307,-5.337
0.229,0.036,0.311,-5.337
0.253,0.037,0.312,-5.337
0.240,0.037,0.311,-5.337
0.193,0.036,0.308,-5.337
0.192,0.032,0.302,-5.337
0.203,0.030,0.300,-5.337
0.187,0.032,0.303,-5.337
0.136,0.037,0.308,-5.337
0.037,0.039,0.309,-5.337
0.021,0.038,0.308,-5.337
0.095,0.031,0.308,-5.337
0.217,0.031,0.304,-5.337
0.224,0.030,0.304,-5.337
0.230,0.031,0.309,-5.337
0.208,0.031,0.309,-5.337
0.136,0.035,0.307,-5.337
0.123,0.035,0.303,-5.337
0.159,0.037,0.302,-5.337
0.133,0.039,0.303,-5.337
0.192,0.037,0.309,-5.337
0.271,0.032,0.311,-5.337
0.311,0.030,0.309,-5.337
0.303,0.034,0.308,-5.337
0.237,0.035,0.303,-5.337
0.144,0.038,0.300,-5.337
0.152,0.038,0.302,-5.337
0.210,0.040,0.306,-5.337
0.254,0.037,0.309,-5.337
0.237,0.038,0.308,-5.337
0.116,0.039,0.305,-5.337
0.061,0.039,0.308,-5.337
0.041,0.037,0.310,-5.337
0.158,0.036,0.307,-5.337
0.252,0.034,0.304,-5.337
0.142,0.040,0.299,-5.337
0.034,0.044,0.298,-5.337
0.077,0.040,0.304,-5.337
0.246,0.034,0.312,-5.337
0.284,0.035,0.312,-5.337
0.164,0.042,0.309,-5.337
0.106,0.040,0.305,-5.337
0.122,0.039,0.305,-5.337
0.068,0.039,0.306,-5.337
0.134,0.035,0.307,-5.337
0.283,0.033,0.308,-5.337
0.315,0.034,0.313,-5.337
0.286,0.035,0.313,-5.337
0.261,0.037,0.313,-5.337
0.235,0.037,0.310,-5.337
0.170,0.042,0.306,-5.337
0.113,0.040,0.304,-5.337
0.104,0.040,0.304,-5.337
0.059,0.039,0.303,-5.337
0.122,0.037,0.307,-5.337
0.226,0.038,0.307,-5.337
0.225,0.040,0.307,-5.337
0.233,0.038,0.304,-5.337
0.195,0.040,0.302,-5.337
0.135,0.042,0.305,-5.337
0.190,0.040,0.307,-5.337
0.239,0.040,0.304,-5.337
0.161,0.044,0.302,-5.337
0.129,0.048,0.303,-5.337
0.158,0.047,0.304,-5.337
0.214,0.042,0.305,-5.337
0.209,0.040,0.307,-5.337
0.169,0.040,0.308,-5.337
0.130,0.043,0.306,-5.337
0.121,0.045,0.304,-5.337
0.163,0.044,0.304,-5.337
0.216,0.045,0.302,-5.337
0.228,0.043,0.299,-5.337
0.188,0.042,0.301,-5.337
0.212,0.041,0.303,-5.337
0.253,0.039,0.306,-5.337
0.321,0.039,0.307,-5.337
0.298,0.043,0.308,-5.337
0.304,0.041,0.305,-5.337
0.292,0.044,0.301,-5.337
0.278,0.044,0.302,-5.337
0.187,0.050,0.305,-5.337
0.075,0.048,0.306,-5.337
0.086,0.046,0.310,-5.337
0.134,0.047,0.309,-5.337
0.166,0.046,0.301,-5.337
0.182,0.044,0.296,-5.337
0.095,0.046,0.299,-5.337
0.124,0.041,0.302,-5.337
0.246,0.042,0.305,-5.337
0.243,0.043,0.308,-5.337
0.189,0.045,0.305,-5.337
0.204,0.047,0.305,-5.337
0.267,0.048,0.306,-5.337
0.263,0.050,0.309,-5.337
0.209,0.050,0.307,-5.337
0.241,0.047,0.302,-5.337
0.305,0.046,0.302,-5.337
0.273,0.045,0.303,-5.337
0.209,0.045,0.304,-5.337
0.140,0.052,0.305,-5.337
0.089,0.050,0.305,-5.337
0.132,0.044,0.309,-5.337
0.187,0.045,0.308,-5.337
0.135,0.052,0.304,-5.337
0.146,0.053,0.304,-5.337
0.211,0.048,0.304,-5.337
0.256,0.047,0.305,-5.337
0.217,0.052,0.306,-5.337
0.164,0.050,0.306,-5.337
0.158,0.050,0.307,-5.337
0.196,0.049,0.309,-5.337
0.184,0.047,0.308,-5.337
0.167,0.046,0.303,-5.337
0.216,0.043,0.301,-5.337
0.199,0.047,0.306,-5.337
0.186,0.046,0.307,-5.337
0.206,0.045,0.308,-5.337
0.198,0.048,0.305,-5.337
0.133,0.050,0.305,-5.337
0.147,0.049,0.304,-5.337
0.223,0.053,0.307,-5.337
0.244,0.051,0.307,-5.337
0.214,0.049,0.303,-5.337
0.267,0.043,0.303,-5.337
0.285,0.047,0.303,-5.337
0.205,0.050,0.304,-5.337
0.169,0.049,0.305,-5.337
0.155,0.052,0.304,-5.337
0.227,0.051,0.306,-5.337
0.312,0.053,0.307,-5.337
0.307,0.050,0.301,-5.337
0.243,0.049,0.296,-5.337
0.143,0.053,0.298,-5.337
0.168,0.056,0.304,-5.337
0.248,0.055,0.304,-5.337
0.277,0.054,0.302,-5.337
0.202,0.054,0.301,-5.337
0.117,0.055,0.304,-5.337
0.064,0.057,0.307,-5.337
0.074,0.057,0.309,-5.337
0.124,0.055,0.305,-5.337
0.170,0.055,0.303,-5.337
0.214,0.054,0.304,-5.337
0.254,0.056,0.305,-5.337
0.265,0.055,0.305,-5.337
0.135,0.057,0.306,-5.337
0.102,0.055,0.304,-5.337
0.154,0.052,0.304,-5.337
0.144,0.052,0.305,-5.337
0.166,0.051,0.305,-5.337
0.176,0.052,0.304,-5.337
0.116,0.053,0.302,-5.337
0.142,0.053,0.298,-5.337
0.182,0.054,0.298,-5.337
0.183,0.055,0.302,-5.337
0.202,0.056,0.306,-5.337
0.162,0.056,0.309,-5.337
0.171,0.053,0.306,-5.337
0.222,0.055,0.304,-5.337
0.215,0.055,0.300,-5.337
0.176,0.054,0.304,-5.337
0.169,0.056,0.303,-5.337
0.179,0.058,0.302,-5.337
0.148,0.057,0.302,-5.337
0.168,0.052,0.305,-5.337
0.230,0.049,0.305,-5.337
0.236,0.053,0.302,-5.337
0.216,0.053,0.300,-5.337
0.196,0.054,0.299,-5.337
0.208,0.052,0.298,-5.337
0.170,0.053,0.300,-5.337
0.162,0.051,0.302,-5.337
0.185,0.052,0.308,-5.337
0.207,0.052,0.306,-5.337
0.188,0.054,0.306,-5.337
0.159,0.054,0.306,-5.337
0.169,0.056,0.303,-5.337
0.176,0.054,0.306,-5.337
0.217,0.052,0.307,-5.337
0.289,0.051,0.309,-5.337
0.309,0.054,0.309,-5.337
0.237,0.056,0.308,-5.337
0.143,0.055,0.300,-5.337
0.192,0.055,0.298,-5.337
0.261,0.060,0.301,-5.337
0.289,0.059,0.304,-5.337
0.284,0.056,0.305,-5.337
0.247,0.056,0.304,-5.337
0.207,0.059,0.299,-5.337
0.166,0.065,0.298,-5.337
0.211,0.060,0.302,-5.337
0.190,0.058,0.305,-5.337
0.190,0.055,0.309,-5.337
0.213,0.057,0.308,-5.337
0.267,0.060,0.303,-5.337
0.218,0.060,0.299,-5.337
0.148,0.061,0.303,-5.337
0.174,0.064,0.304,-5.337
0.236,0.065,0.305,-5.337
0.169,0.067,0.307,-5.337
0.157,0.060,0.305,-5.337
0.244,0.057,0.303,-5.337
0.243,0.055,0.306,-5.337
0.269,0.054,0.309,-5.337
0.288,0.055,0.307,-5.337
0.240,0.056,0.302,-5.337
0.180,0.058,0.306,-5.337
0.175,0.059,0.306,-5.337
0.150,0.060,0.305,-5.337
0.173,0.059,0.305,-5.337
0.189,0.061,0.306,-5.337
0.164,0.061,0.305,-5.337
0.127,0.061,0.304,-5.337
0.182,0.060,0.305,-5.337
0.260,0.058,0.310,-5.337
0.255,0.061,0.311,-5.337
0.252,0.062,0.305,-5.337
0.233,0.064,0.301,-5.337
0.236,0.063,0.301,-5.337
0.260,0.059,0.304,-5.337
0.202,0.062,0.308,-5.337
0.036,0.066,0.309,-5.337
0.091,0.064,0.306,-5.337
0.203,0.061,0.300,-5.337
0.266,0.062,0.301,-5.337
0.251,0.064,0.307,-5.337
0.224,0.062,0.309,-5.337
0.224,0.062,0.306,-5.337
0.176,0.064,0.301,-5.337
0.216,0.062,0.306,-5.337
0.263,0.063,0.306,-5.337
0.267,0.064,0.306,-5.337
0.183,0.066,0.305,-5.337
0.144,0.067,0.306,-5.337
0.177,0.064,0.304,-5.337
0.202,0.064,0.302,-5.337
0.267,0.065,0.301,-5.337
0.274,0.062,0.305,-5.337
0.279,0.062,0.306,-5.337
0.263,0.064,0.305,-5.337
0.291,0.064,0.300,-5.337
0.260,0.067,0.301,-5.337
0.184,0.067,0.302,-5.337
0.177,0.063,0.304,-5.337
0.185,0.065,0.305,-5.337
0.271,0.064,0.308,-5.337
0.292,0.064,0.309,-5.337
0.229,0.060,0.306,-5.337
0.234,0.054,0.302,-5.337
0.238,0.057,0.300,-5.337
0.279,0.059,0.303,-5.337
0.341,0.054,0.302,-5.337
0.257,0.058,0.302,-5.337
0.149,0.063,0.301,-5.337
0.156,0.062,0.306,-5.337
0.122,0.061,0.308,-5.337
0.116,0.062,0.307,-5.337
0.119,0.061,0.302,-5.337
0.156,0.061,0.300,-5.337
0.167,0.057,0.301,-5.337
0.132,0.059,0.305,-5.337
0.120,0.059,0.307,-5.337
0.134,0.059,0.303,-5.337
0.181,0.059,0.299,-5.337
0.203,0.054,0.302,-5.337
0.190,0.055,0.304,-5.337
0.194,0.054,0.306,-5.337
0.210,0.058,0.306,-5.337
0.247,0.060,0.302,-5.337
0.218,0.060,0.304,-5.337
0.275,0.060,0.307,-5.337
0.306,0.057,0.306,-5.337
0.246,0.057,0.307,-5.337
0.173,0.057,0.308,-5.337
0.168,0.057,0.302,-5.337
0.215,0.056,0.302,-5.337
0.267,0.055,0.305,-5.337
0.210,0.057,0.308,-5.337
0.112,0.054,0.308,-5.337
0.112,0.051,0.310,-5.337
0.191,0.050,0.310,-5.337
0.231,0.049,0.310,-5.337
0.232,0.049,0.307,-5.337
0.242,0.046,0.303,-5.337
0.259,0.045,0.303,-5.337
0.244,0.049,0.306,-5.337
0.185,0.053,0.310,-5.337
0.201,0.054,0.307,-5.337
0.214,0.053,0.305,-5.337
0.229,0.054,0.307,-5.337
0.267,0.053,0.307,-5.337
0.251,0.055,0.309,-5.337
0.260,0.051,0.308,-5.337
0.265,0.049,0.304,-5.337
0.314,0.051,0.306,-5.337
0.278,0.051,0.309,-5.337
0.274,0.049,0.312,-5.337
0.206,0.049,0.311,-5.337
0.185,0.051,0.308,-5.337
0.251,0.050,0.304,-5.337
0.183,0.054,0.303,-5.337
0.130,0.055,0.301,-5.337
0.152,0.053,0.299,-5.337
0.144,0.051,0.299,-5.337
0.115,0.056,0.304,-5.337
0.165,0.053,0.312,-5.337
0.194,0.050,0.316,-5.337
0.235,0.047,0.315,-5.337
0.265,0.051,0.312,-5.337
0.259,0.054,0.309,-5.337
0.228,0.053,0.309,-5.337
0.208,0.050,0.308,-5.337
0.234,0.051,0.307,-5.337
0.312,0.052,0.309,-5.337
0.227,0.050,0.307,-5.337
0.131,0.052,0.304,-5.337
0.102,0.052,0.303,-5.337
0.145,0.051,0.304,-5.337
0.146,0.050,0.303,-5.337
0.138,0.049,0.306,-5.337
0.116,0.047,0.307,-5.337
0.104,0.046,0.306,-5.337
0.179,0.047,0.307,-5.337
0.197,0.051,0.309,-5.337
0.190,0.051,0.308,-5.337
0.141,0.050,0.308,-5.337
0.101,0.051,0.306,-5.337
0.132,0.052,0.303,-5.337
0.194,0.052,0.303,-5.337
0.233,0.048,0.305,-5.337
0.201,0.048,0.305,-5.337
0.187,0.050,0.304,-5.337
0.206,0.051,0.304,-5.337
0.156,0.052,0.309,-5.337
0.136,0.047,0.308,-5.337
0.182,0.046,0.304,-5.337
0.207,0.047,0.304,-5.337
0.156,0.045,0.306,-5.337
0.173,0.042,0.307,-5.337
0.249,0.040,0.305,-5.337
0.277,0.040,0.307,-5.337
0.236,0.040,0.310,-5.337
0.198,0.043,0.315,-5.337
0.120,0.043,0.311,-5.337
0.073,0.045,0.305,-5.337
0.163,0.042,0.299,-5.337
0.246,0.042,0.300,-5.337
0.305,0.041,0.303,-5.337
0.298,0.043,0.305,-5.337
0.247,0.042,0.306,-5.337
0.178,0.043,0.305,-5.337
0.221,0.040,0.299,-5.337
0.290,0.039,0.298,-5.337
0.304,0.041,0.305,-5.337
0.260,0.044,0.310,-5.337
0.222,0.041,0.307,-5.337
0.231,0.043,0.306,-5.337
0.211,0.042,0.305,-5.337
0.258,0.041,0.304,-5.337
0.255,0.040,0.304,-5.337
0.170,0.039,0.306,-5.337
0.166,0.037,0.308,-5.337
0.219,0.039,0.307,-5.337
0.204,0.039,0.305,-5.337
0.167,0.038,0.302,-5.337
0.112,0.038,0.304,-5.337
0.114,0.040,0.308,-5.337
0.180,0.038,0.309,-5.337
0.225,0.038,0.310,-5.337
0.219,0.037,0.309,-5.337
0.202,0.040,0.306,-5.337
0.213,0.042,0.302,-5.337
0.253,0.039,0.298,-5.337
0.244,0.042,0.301,-5.337
0.223,0.046,0.307,-5.337
0.245,0.046,0.310,-5.337
0.248,0.044,0.305,-5.337
0.202,0.042,0.303,-5.337
0.144,0.044,0.306,-5.337
0.207,0.044,0.311,-5.337
0.296,0.041,0.312,-5.337
0.302,0.037,0.307,-5.337
0.241,0.038,0.303,-5.337
0.260,0.036,0.303,-5.337
0.259,0.034,0.303,-5.337
0.256,0.035,0.305,-5.337
0.212,0.035,0.308,-5.337
0.256,0.035,0.305,-5.337
0.297,0.039,0.304,-5.337
0.233,0.041,0.304,-5.337
0.151,0.042,0.305,-5.337
0.095,0.043,0.306,-5.337
0.128,0.045,0.308,-5.337
0.151,0.043,0.307,-5.337
0.205,0.039,0.309,-5.337
0.276,0.034,0.307,-5.337
0.211,0.033,0.303,-5.337
0.153,0.037,0.299,-5.337
0.102,0.041,0.304,-5.337
0.173,0.038,0.309,-5.337
0.292,0.035,0.309,-5.337
0.321,0.036,0.306,-5.337
0.234,0.041,0.306,-5.337
0.229,0.041,0.306,-5.337
0.257,0.039,0.305,-5.337
0.242,0.038,0.307,-5.337
0.176,0.038,0.309,-5.337
0.183,0.042,0.309,-5.337
0.223,0.041,0.304,-5.337
0.192,0.037,0.301,-5.337
0.166,0.036,0.303,-5.337
0.244,0.036,0.309,-5.337
0.290,0.037,0.309,-5.337
0.288,0.036,0.311,-5.337
0.331,0.031,0.309,-5.337
0.261,0.033,0.304,-5.337
0.195,0.035,0.303,-5.337
0.121,0.040,0.305,-5.337
0.121,0.040,0.302,-5.337
0.188,0.042,0.302,-5.337
0.202,0.039,0.301,-5.337
0.118,0.040,0.304,-5.337
0.119,0.037,0.305,-5.337
0.175,0.038,0.307,-5.337
0.227,0.038,0.308,-5.337
0.191,0.037,0.307,-5.337
0.177,0.039,0.307,-5.337
0.203,0.040,0.307,-5.337
0.234,0.039,0.309,-5.337
0.240,0.035,0.309,-5.337
0.234,0.032,0.308,-5.337
0.235,0.032,0.303,-5.337
0.257,0.030,0.302,-5.337
0.185,0.035,0.304,-5.337
0.159,0.038,0.309,-5.337
0.156,0.038,0.309,-5.337
0.128,0.036,0.305,-5.337
0.102,0.034,0.300,-5.337
0.093,0.035,0.301,-5.337
0.155,0.033,0.303,-5.337
0.225,0.032,0.304,-5.337
0.226,0.037,0.307,-5.337
0.258,0.035,0.309,-5.337
0.261,0.036,0.308,-5.337
0.197,0.035,0.304,-5.337
0.164,0.032,0.299,-5.337
0.208,0.030,0.300,-5.337
0.210,0.033,0.307,-5.337
0.221,0.034,0.313,-5.337
0.182,0.035,0.310,-5.337
0.185,0.032,0.303,-5.337
0.207,0.031,0.301,-5.337
0.242,0.035,0.304,-5.337
0.219,0.039,0.306,-5.337
0.121,0.041,0.305,-5.337
0.079,0.040,0.308,-5.337
0.125,0.038,0.307,-5.337
0.183,0.035,0.307,-5.337
0.216,0.035,0.305,-5.337
0.206,0.035,0.305,-5.337
0.147,0.033,0.304,-5.337
0.139,0.031,0.301,-5.337
0.151,0.032,0.302,-5.337
0.158,0.035,0.304,-5.337
0.225,0.033,0.306,-5.337
0.304,0.033,0.308,-5.337
0.218,0.034,0.307,-5.337
0.179,0.037,0.312,-5.337
0.213,0.037,0.313,-5.337
0.223,0.036,0.309,-5.337
0.333,0.038,0.306,-5.337
0.298,0.042,0.303,-5.337
0.181,0.041,0.305,-5.337
0.269,0.035,0.304,-5.337
0.375,0.037,0.305,-5.337
0.321,0.040,0.308,-5.337
0.256,0.041,0.310,-5.337
0.200,0.043,0.310,-5.337
0.142,0.044,0.308,-5.337
0.150,0.041,0.308,-5.337
0.162,0.039,0.310,-5.337
0.211,0.041,0.309,-5.337
0.255,0.041,0.306,-5.337
0.246,0.043,0.304,-5.337
0.180,0.044,0.309,-5.337
0.159,0.038,0.311,-5.337
0.108,0.041,0.308,-5.337
0.105,0.041,0.302,-5.337
0.056,0.042,0.302,-5.337
0.086,0.041,0.305,-5.337
0.159,0.038,0.310,-5.337
0.201,0.034,0.310,-5.337
0.242,0.033,0.306,-5.337
0.260,0.034,0.305,-5.337
0.326,0.039,0.308,-5.337
0.293,0.041,0.308,-5.337
0.178,0.042,0.302,-5.337
0.158,0.039,0.297,-5.337
0.183,0.041,0.301,-5.337
0.197,0.044,0.305,-5.337
0.153,0.042,0.306,-5.337
0.163,0.038,0.305,-5.337
0.232,0.034,0.303,-5.337
0.253,0.035,0.307,-5.337
0.208,0.038,0.309,-5.337
0.249,0.037,0.306,-5.337
0.298,0.037,0.305,-5.337
0.199,0.039,0.308,-5.337
0.183,0.039,0.305,-5.337
0.186,0.041,0.304,-5.337
0.193,0.040,0.305,-5.337
0.163,0.041,0.304,-5.337
0.155,0.038,0.301,-5.337
0.188,0.037,0.304,-5.337
0.243,0.036,0.305,-5.337
0.304,0.041,0.304,-5.337
0.242,0.041,0.304,-5.337
0.237,0.040,0.304,-5.337
0.292,0.039,0.308,-5.337
0.222,0.042,0.309,-5.337
0.204,0.041,0.309,-5.337
0.184,0.042,0.309,-5.337
0.079,0.047,0.307,-5.337
0.032,0.047,0.304,-5.337
0.094,0.042,0.302,-5.337
0.147,0.042,0.303,-5.337
0.149,0.043,0.304,-5.337
0.162,0.045,0.302,-5.337
0.196,0.047,0.301,-5.337
0.222,0.044,0.302,-5.337
0.250,0.044,0.305,-5.337
0.251,0.043,0.307,-5.337
0.211,0.043,0.311,-5.337
0.116,0.043,0.308,-5.337
0.158,0.042,0.308,-5.337
0.208,0.041,0.305,-5.337
0.192,0.037,0.302,-5.337
0.237,0.037,0.301,-5.337
0.252,0.040,0.301,-5.337
0.147,0.042,0.304,-5.337
0.167,0.040,0.305,-5.337
0.187,0.042,0.307,-5.337
0.219,0.045,0.309,-5.337
0.183,0.047,0.307,-5.337
0.228,0.045,0.305,-5.337
0.241,0.044,0.303,-5.337
0.180,0.047,0.303,-5.337
0.174,0.048,0.307,-5.337
0.188,0.048,0.311,-5.337
0.162,0.047,0.312,-5.337
0.179,0.046,0.310,-5.337
0.177,0.049,0.310,-5.337
0.126,0.049,0.309,-5.337
0.180,0.046,0.306,-5.337
0.188,0.043,0.304,-5.337
0.220,0.043,0.306,-5.337
0.271,0.045,0.305,-5.337
0.236,0.043,0.303,-5.337
0.231,0.040,0.302,-5.337
0.249,0.042,0.304,-5.337
0.212,0.042,0.305,-5.337
0.243,0.042,0.306,-5.337
0.254,0.041,0.308,-5.337
0.163,0.043,0.308,-5.337
0.136,0.045,0.305,-5.337
0.142,0.045,0.303,-5.337
0.113,0.048,0.306,-5.337
0.127,0.044,0.309,-5.337
0.205,0.045,0.310,-5.337
0.155,0.048,0.309,-5.337
0.084,0.051,0.311,-5.337
0.101,0.047,0.311,-5.337
0.130,0.043,0.311,-5.337
0.167,0.040,0.309,-5.337
0.232,0.038,0.302,-5.337
0.268,0.039,0.301,-5.337
0.176,0.042,0.308,-5.337
0.125,0.042,0.310,-5.337
0.173,0.045,0.309,-5.337
0.218,0.045,0.310,-5.337
0.243,0.045,0.314,-5.337
0.234,0.048,0.312,-5.337
0.207,0.050,0.309,-5.337
0.273,0.049,0.310,-5.337
0.354,0.047,0.310,-5.337
0.334,0.047,0.311,-5.337
0.267,0.051,0.307,-5.337
0.151,0.049,0.304,-5.337
0.075,0.048,0.305,-5.337
0.121,0.048,0.306,-5.337
0.216,0.046,0.306,-5.337
0.224,0.047,0.311,-5.337
0.169,0.049,0.311,-5.337
0.168,0.050,0.309,-5.337
0.156,0.052,0.306,-5.337
0.197,0.052,0.304,-5.337
0.217,0.051,0.305,-5.337
0.191,0.048,0.304,-5.337
0.260,0.042,0.300,-5.337
0.262,0.044,0.301,-5.337
0.150,0.043,0.302,-5.337
0.143,0.044,0.304,-5.337
0.108,0.045,0.305,-5.337
0.069,0.045,0.305,-5.337
0.071,0.044,0.304,-5.337
0.088,0.044,0.306,-5.337
0.078,0.047,0.306,-5.337
0.174,0.048,0.303,-5.337
0.277,0.048,0.304,-5.337
0.292,0.047,0.310,-5.337
0.270,0.044,0.311,-5.337
0.286,0.046,0.305,-5.337
0.246,0.049,0.304,-5.337
0.217,0.046,0.302,-5.337
0.220,0.046,0.304,-5.337
0.265,0.048,0.306,-5.337
0.266,0.048,0.306,-5.337
0.257,0.050,0.301,-5.337
0.273,0.048,0.302,-5.337
0.308,0.049,0.305,-5.337
0.295,0.048,0.309,-5.337
0.240,0.043,0.305,-5.337
0.200,0.044,0.303,-5.337
0.207,0.047,0.302,-5.337
0.246,0.049,0.306,-5.337
0.290,0.046,0.310,-5.337
0.235,0.049,0.309,-5.337
0.132,0.051,0.305,-5.337
0.128,0.051,0.302,-5.337
0.190,0.051,0.302,-5.337
0.148,0.054,0.301,-5.337
0.126,0.055,0.302,-5.337
0.180,0.054,0.305,-5.337
0.295,0.052,0.304,-5.337
0.341,0.046,0.304,-5.337
0.249,0.049,0.306,-5.337
0.216,0.052,0.308,-5.337
0.162,0.053,0.309,-5.337
0.140,0.053,0.307,-5.337
0.214,0.049,0.308,-5.337
0.293,0.049,0.308,-5.337
0.283,0.050,0.310,-5.337
0.247,0.050,0.308,-5.337
0.167,0.050,0.304,-5.337
0.109,0.051,0.302,-5.337
0.084,0.052,0.304,-5.337
0.032,0.054,0.306,-5.337
0.071,0.057,0.308,-5.337
0.217,0.056,0.305,-5.337
0.249,0.055,0.300,-5.337
0.163,0.055,0.301,-5.337
0.078,0.055,0.306,-5.337
0.143,0.055,0.308,-5.337
0.154,0.056,0.306,-5.337
0.128,0.053,0.304,-5.337
0.122,0.053,0.303,-5.337
0.165,0.053,0.306,-5.337
0.257,0.049,0.305,-5.337
0.303,0.050,0.304,-5.337
0.242,0.052,0.303,-5.337
0.199,0.054,0.308,-5.337
0.132,0.057,0.310,-5.337
0.136,0.058,0.307,-5.337
0.154,0.059,0.300,-5.337
0.233,0.057,0.304,-5.337
0.202,0.060,0.306,-5.337
0.107,0.057,0.306,-5.337
0.118,0.052,0.305,-5.337
0.157,0.052,0.303,-5.337
0.152,0.056,0.301,-5.337
0.139,0.060,0.302,-5.337
0.164,0.057,0.304,-5.337
0.205,0.056,0.307,-5.337
0.196,0.054,0.306,-5.337
0.139,0.057,0.306,-5.337
0.147,0.057,0.305,-5.337
0.221,0.056,0.306,-5.337
0.274,0.055,0.304,-5.337
0.263,0.058,0.305,-5.337
0.235,0.057,0.306,-5.337
0.195,0.054,0.303,-5.337
0.211,0.055,0.302,-5.337
0.203,0.057,0.306,-5.337
0.215,0.054,0.312,-5.337
0.270,0.053,0.314,-5.337
0.242,0.055,0.312,-5.337
0.186,0.062,0.309,-5.337
0.201,0.058,0.308,-5.337
0.236,0.054,0.307,-5.337
0.203,0.056,0.304,-5.337
0.130,0.060,0.299,-5.337
0.104,0.061,0.302,-5.337
0.224,0.055,0.303,-5.337
0.342,0.053,0.303,-5.337
0.298,0.055,0.304,-5.337
0.266,0.056,0.305,-5.337
0.202,0.063,0.306,-5.337
0.178,0.065,0.304,-5.337
0.234,0.057,0.302,-5.337
0.199,0.061,0.300,-5.337
0.184,0.061,0.303,-5.337
0.256,0.063,0.306,-5.337
0.260,0.063,0.306,-5.337
0.197,0.059,0.305,-5.337
0.203,0.056,0.305,-5.337
0.187,0.059,0.306,-5.337
0.189,0.056,0.307,-5.337
0.252,0.055,0.304,-5.337
0.237,0.058,0.305,-5.337
0.145,0.059,0.306,-5.337
0.089,0.062,0.309,-5.337
0.103,0.059,0.311,-5.337
0.115,0.058,0.308,-5.337
0.163,0.057,0.304,-5.337
0.184,0.059,0.302,-5.337
0.146,0.058,0.305,-5.337
0.152,0.058,0.305,-5.337
0.158,0.059,0.305,-5.337
0.233,0.056,0.308,-5.337
0.323,0.056,0.310,-5.337
0.345,0.058,0.307,-5.337
0.273,0.059,0.304,-5.337
0.179,0.063,0.305,-5.337
0.155,0.064,0.305,-5.337
0.216,0.059,0.304,-5.337
0.280,0.056,0.303,-5.337
0.281,0.055,0.303,-5.337
0.255,0.057,0.304,-5.337
0.224,0.057,0.306,-5.337
0.208,0.058,0.306,-5.337
0.194,0.060,0.303,-5.337
0.209,0.062,0.305,-5.337
0.256,0.059,0.305,-5.337
0.257,0.058,0.307,-5.337
0.265,0.063,0.306,-5.337
0.203,0.064,0.306,-5.337
0.237,0.060,0.310,-5.337
0.174,0.060,0.312,-5.337
0.176,0.057,0.304,-5.337
0.241,0.061,0.298,-5.337
0.296,0.060,0.299,-5.337
0.267,0.058,0.305,-5.337
0.247,0.056,0.305,-5.337
0.262,0.059,0.306,-5.337
0.208,0.065,0.305,-5.337
0.177,0.063,0.305,-5.337
0.176,0.062,0.307,-5.337
0.222,0.063,0.311,-5.337
0.280,0.063,0.313,-5.337
0.248,0.062,0.311,-5.337
0.196,0.059,0.310,-5.337
0.167,0.059,0.306,-5.337
0.191,0.058,0.303,-5.337
0.166,0.061,0.299,-5.337
0.168,0.059,0.300,-5.337
0.207,0.058,0.300,-5.337
0.195,0.053,0.301,-5.337
0.255,0.049,0.303,-5.337
0.176,0.059,0.307,-5.337
0.105,0.059,0.306,-5.337
0.211,0.055,0.305,-5.337
0.267,0.056,0.309,-5.337
0.203,0.058,0.313,-5.337
0.149,0.059,0.309,-5.337
0.192,0.057,0.306,-5.337
0.153,0.055,0.307,-5.337
0.172,0.056,0.308,-5.337
0.182,0.056,0.305,-5.337
0.168,0.058,0.303,-5.337
0.190,0.055,0.303,-5.337
0.212,0.050,0.299,-5.337
0.155,0.049,0.296,-5.337
0.164,0.051,0.301,-5.337
0.232,0.050,0.306,-5.337
0.247,0.050,0.307,-5.337
0.271,0.051,0.310,-5.337
0.222,0.051,0.310,-5.337
0.192,0.052,0.309,-5.337
0.178,0.054,0.308,-5.337
0.159,0.056,0.310,-5.337
0.171,0.053,0.308,-5.337
0.203,0.053,0.306,-5.337
0.260,0.055,0.305,-5.337
0.273,0.055,0.303,-5.337
0.246,0.056,0.302,-5.337
0.248,0.055,0.302,-5.337
0.219,0.053,0.308,-5.337
0.241,0.051,0.310,-5.337
0.208,0.051,0.305,-5.337
0.219,0.052,0.306,-5.337
0.281,0.045,0.306,-5.337
0.254,0.046,0.303,-5.337
0.236,0.046,0.302,-5.337
0.257,0.046,0.303,-5.337
0.251,0.048,0.307,-5.337
0.270,0.046,0.309,-5.337
0.228,0.047,0.306,-5.337
0.197,0.048,0.303,-5.337
0.218,0.052,0.305,-5.337
0.283,0.052,0.303,-5.337
0.269,0.051,0.301,-5.337
0.207,0.049,0.302,-5.337
0.212,0.050,0.302,-5.337
0.205,0.053,0.304,-5.337
0.189,0.055,0.303,-5.337
0.203,0.049,0.302,-5.337
0.207,0.047,0.300,-5.337
0.166,0.047,0.302,-5.337
0.177,0.048,0.308,-5.337
0.255,0.047,0.312,-5.337
0.300,0.048,0.310,-5.337
0.281,0.047,0.308,-5.337
0.237,0.045,0.309,-5.337
0.256,0.045,0.309,-5.337
0.239,0.046,0.307,-5.337
0.211,0.044,0.304,-5.337
0.181,0.043,0.304,-5.337
0.161,0.043,0.306,-5.337
0.149,0.043,0.310,-5.337
0.096,0.046,0.314,-5.337
0.141,0.048,0.311,-5.337
0.222,0.045,0.309,-5.337
0.209,0.043,0.305,-5.337
0.222,0.042,0.304,-5.337
0.244,0.038,0.304,-5.337
0.237,0.042,0.308,-5.337
0.289,0.043,0.308,-5.337
0.317,0.045,0.310,-5.337
0.230,0.048,0.308,-5.337
0.234,0.044,0.309,-5.337
0.286,0.041,0.309,-5.337
0.230,0.045,0.305,-5.337
0.248,0.042,0.303,-5.337
0.326,0.040,0.306,-5.337
0.276,0.038,0.310,-5.337
0.220,0.042,0.311,-5.337
0.140,0.046,0.311,-5.337
0.101,0.045,0.310,-5.337
0.166,0.042,0.309,-5.337
0.251,0.040,0.307,-5.337
0.327,0.041,0.305,-5.337
0.276,0.042,0.305,-5.337
0.171,0.043,0.308,-5.337
0.147,0.046,0.312,-5.337
0.204,0.047,0.311,-5.337
0.172,0.047,0.308,-5.337
0.167,0.047,0.310,-5.337
0.131,0.043,0.307,-5.337
0.062,0.043,0.303,-5.337
0.169,0.044,0.303,-5.337
0.244,0.044,0.309,-5.337
0.245,0.042,0.313,-5.337
0.221,0.044,0.313,-5.337
0.218,0.044,0.308,-5.337
0.215,0.048,0.307,-5.337
0.197,0.048,0.308,-5.337
0.208,0.046,0.310,-5.337
0.215,0.043,0.311,-5.337
0.209,0.044,0.310,-5.337
0.206,0.043,0.307,-5.337
0.201,0.044,0.306,-5.337
0.232,0.042,0.307,-5.337
0.199,0.040,0.306,-5.337
0.193,0.040,0.307,-5.337
0.199,0.041,0.302,-5.337
0.259,0.040,0.304,-5.337
0.237,0.042,0.311,-5.337
0.192,0.044,0.313,-5.337
0.212,0.042,0.307,-5.337
0.266,0.040,0.308,-5.337
0.345,0.037,0.307,-5.337
0.288,0.041,0.306,-5.337
0.181,0.041,0.310,-5.337
0.150,0.036,0.310,-5.337
0.169,0.035,0.304,-5.337
0.202,0.035,0.302,-5.337
0.166,0.039,0.302,-5.337
0.147,0.042,0.302,-5.337
0.188,0.041,0.304,-5.337
0.297,0.041,0.305,-5.337
0.347,0.041,0.306,-5.337
0.331,0.040,0.305,-5.337
0.300,0.038,0.307,-5.337
0.264,0.037,0.305,-5.337
0.172,0.038,0.302,-5.337
0.205,0.037,0.303,-5.337
0.278,0.036,0.307,-5.337
0.305,0.037,0.308,-5.337
0.223,0.038,0.309,-5.337
0.156,0.037,0.308,-5.337
0.179,0.035,0.308,-5.337
0.237,0.037,0.304,-5.337
0.250,0.039,0.304,-5.337
0.235,0.040,0.303,-5.337
0.207,0.041,0.307,-5.337
0.188,0.037,0.307,-5.337
0.150,0.037,0.304,-5.337
0.091,0.037,0.302,-5.337
0.103,0.037,0.300,-5.337
0.190,0.037,0.302,-5.337
0.231,0.034,0.308,-5.337
0.229,0.034,0.310,-5.337
0.206,0.038,0.307,-5.337
0.256,0.039,0.302,-5.337
0.269,0.035,0.299,-5.337
0.243,0.033,0.301,-5.337
0.235,0.035,0.304,-5.337
0.178,0.042,0.306,-5.337
0.098,0.042,0.307,-5.337
0.083,0.040,0.305,-5.337
0.145,0.038,0.307,-5.337
0.138,0.035,0.314,-5.337
0.184,0.033,0.315,-5.337
0.183,0.033,0.315,-5.337
0.129,0.037,0.309,-5.337
0.079,0.039,0.306,-5.337
0.091,0.038,0.303,-5.337
0.086,0.042,0.301,-5.337
0.137,0.040,0.298,-5.337
0.200,0.041,0.302,-5.337
0.226,0.041,0.300,-5.337
0.208,0.038,0.303,-5.337
0.224,0.038,0.307,-5.337
0.265,0.039,0.307,-5.337
0.302,0.040,0.306,-5.337
0.261,0.039,0.308,-5.337
0.238,0.038,0.311,-5.337
0.177,0.041,0.311,-5.337
0.181,0.042,0.313,-5.337
0.285,0.042,0.311,-5.337
0.325,0.042,0.303,-5.337
0.215,0.043,0.297,-5.337
0.188,0.044,0.300,-5.337
0.235,0.041,0.307,-5.337
0.221,0.039,0.312,-5.337
0.264,0.035,0.310,-5.337
0.279,0.034,0.310,-5.337
0.199,0.037,0.308,-5.337
0.230,0.035,0.306,-5.337
0.198,0.037,0.305,-5.337
0.166,0.039,0.307,-5.337
0.248,0.037,0.309,-5.337
0.255,0.038,0.313,-5.337
0.141,0.039,0.313,-5.337
0.120,0.040,0.311,-5.337
0.164,0.040,0.307,-5.337
0.186,0.041,0.306,-5.337
0.114,0.042,0.307,-5.337
0.088,0.046,0.308,-5.337
0.150,0.039,0.308,-5.337
0.258,0.035,0.308,-5.337
0.270,0.038,0.311,-5.337
0.237,0.041,0.312,-5.337
0.194,0.040,0.308,-5.337
0.177,0.037,0.305,-5.337
0.178,0.039,0.307,-5.337
0.178,0.040,0.309,-5.337
0.204,0.039,0.308,-5.337
0.173,0.042,0.303,-5.337
0.136,0.039,0.300,-5.337
0.137,0.034,0.303,-5.337
0.124,0.038,0.310,-5.337
0.074,0.042,0.311,-5.337
0.130,0.042,0.309,-5.337
0.275,0.037,0.306,-5.337
0.275,0.039,0.305,-5.337
0.225,0.040,0.306,-5.337
0.266,0.039,0.307,-5.337
0.320,0.039,0.308,-5.337
0.295,0.037,0.306,-5.337
0.341,0.037,0.304,-5.337
0.347,0.036,0.304,-5.337
0.272,0.038,0.305,-5.337
0.214,0.036,0.303,-5.337
0.249,0.035,0.303,-5.337
0.282,0.040,0.305,-5.337
0.285,0.042,0.309,-5.337
0.282,0.041,0.312,-5.337
0.249,0.042,0.311,-5.337
0.251,0.042,0.309,-5.337
0.280,0.041,0.306,-5.337
0.254,0.043,0.302,-5.337
0.217,0.044,0.303,-5.337
0.213,0.044,0.304,-5.337
0.173,0.047,0.307,-5.337
0.131,0.044,0.307,-5.337
0.138,0.042,0.309,-5.337
0.127,0.040,0.309,-5.337
0.161,0.038,0.305,-5.337
0.209,0.036,0.307,-5.337
0.202,0.035,0.310,-5.337
0.124,0.039,0.311,-5.337
0.105,0.036,0.309,-5.337
0.139,0.035,0.308,-5.337
0.149,0.035,0.307,-5.337
0.223,0.033,0.307,-5.337
0.274,0.036,0.311,-5.337
0.259,0.038,0.312,-5.337
0.221,0.039,0.310,-5.337
0.172,0.040,0.307,-5.337
0.190,0.037,0.305,-5.337
0.265,0.039,0.310,-5.337
0.226,0.040,0.310,-5.337
0.127,0.042,0.310,-5.337
0.081,0.042,0.305,-5.337
0.149,0.042,0.301,-5.337
0.193,0.044,0.301,-5.337
0.192,0.044,0.305,-5.337
0.183,0.040,0.306,-5.337
0.147,0.042,0.308,-5.337
0.157,0.040,0.309,-5.337
0.184,0.042,0.310,-5.337
0.229,0.038,0.310,-5.337
0.232,0.036,0.309,-5.337
0.220,0.037,0.307,-5.337
0.289,0.038,0.309,-5.337
0.353,0.035,0.309,-5.337
0.310,0.036,0.309,-5.337
0.196,0.034,0.306,-5.337
0.200,0.037,0.305,-5.337
0.252,0.041,0.305,-5.337
0.192,0.042,0.306,-5.337
0.224,0.039,0.308,-5.337
0.257,0.041,0.306,-5.337
0.255,0.042,0.307,-5.337
0.197,0.046,0.307,-5.337
0.147,0.047,0.305,-5.337
0.188,0.050,0.305,-5.337
0.148,0.051,0.305,-5.337
0.137,0.048,0.303,-5.337
0.198,0.045,0.307,-5.337
0.311,0.045,0.308,-5.337
0.349,0.048,0.310,-5.337
0.207,0.045,0.309,-5.337
0.095,0.046,0.307,-5.337
0.147,0.048,0.307,-5.337
0.248,0.049,0.308,-5.337
0.250,0.046,0.309,-5.337
0.208,0.046,0.309,-5.337
0.152,0.046,0.310,-5.337
0.120,0.046,0.308,-5.337
0.123,0.047,0.304,-5.337
0.189,0.046,0.305,-5.337
0.177,0.046,0.308,-5.337
0.184,0.047,0.308,-5.337
0.206,0.050,0.303,-5.337
0.170,0.052,0.304,-5.337
0.128,0.050,0.310,-5.337
0.117,0.047,0.306,-5.337
0.239,0.043,0.304,-5.337
0.231,0.046,0.305,-5.337
0.119,0.050,0.309,-5.337
0.146,0.048,0.309,-5.337
0.249,0.044,0.309,-5.337
0.259,0.044,0.308,-5.337
0.230,0.043,0.303,-5.337
0.204,0.046,0.300,-5.337
0.185,0.048,0.304,-5.337
0.111,0.050,0.303,-5.337
0.138,0.048,0.302,-5.337
0.254,0.046,0.303,-5.337
0.331,0.046,0.307,-5.337
0.307,0.048,0.308,-5.337
0.314,0.048,0.306,-5.337
0.295,0.049,0.306,-5.337
0.233,0.050,0.303,-5.337
0.199,0.050,0.302,-5.337
0.231,0.046,0.305,-5.337
