[Parameters]
Operating Mode, Feedback
Subject  AA..ZZ, WT
Session  0..99, 42
No. Trials (1..9999), 500
Mouse Number, 1
Pressure Probe Serial Port, \00\00\00\04COM4
Save additional csv file, TRUE
Save using mouse number, FALSE
A/D Monitor Rate (Hz), 30000.000000
A/D Stimulate Rate (Hz), 30000.000000
A/D input range (+/- V), 5
No. Channels to acquire (N), 2
Pre-Stim Acq. time (ms), 100.000000
Post-Stim Acq. time (ms), 900.000000
Analysis window parameters.M-response Start (ms), 1.100000
Analysis window parameters.M-response Duration (ms), 5.500000
Analysis window parameters.H-response Duration (ms), 6.000000
Analysis window parameters.H-response Start (ms), 6.500000
Feedback window, H response
Proportional gain, 0.100000
Target value, 6.700000
Feedback Ch., 1
Stim Channel to Control (1-4), 4
Trial, 23
Wait for EMG Conditions, FALSE
Channel to monitor (0 - N-1), 1
EMG Hi Limit, 2.000000
EMG Lo Limit, 0.001000
Inter-Stim delay (sec), 10.000000
EMG Monitor Mode, Mean
Time to run Long Stim.(sec), 30
Save Long Stim Data?, OFF
BURST Save time (ms), 1000
BURST Save Interval (x above), 10
Long-Stim. Rep. Rate (Hz), 10.000000
Stim type cluster array.<size(s)>, 4
Stim type cluster array 0.Stimulus Output, Electrical
Stim type cluster array 1.Stimulus Output, OFF
Stim type cluster array 2.Stimulus Output, OFF
Stim type cluster array 3.Stimulus Output, Motor Length
Stim specs cluster array.<size(s)>, 4
Stim specs cluster array 0.Initial Stimulus ampl., 0.300000
Stim specs cluster array 0.Maximum Stimulus, 1.120000
Stim specs cluster array 0.#Pulses in train, 4
Stim specs cluster array 0.Peak Level time (ms), 1.000000
Stim specs cluster array 0.Total pulse period (ms), 150.000000
Stim specs cluster array 0.Start Delay (ms), -50.000000
Stim specs cluster array 0.Pulse Shape, Square
Stim specs cluster array 0.Ramp/Rel. time (ms), 0.100000
Stim specs cluster array 0.Peak Amplitude (V), 0.120000
Stim specs cluster array 1.Initial Stimulus ampl., 0.000000
Stim specs cluster array 1.Maximum Stimulus, 0.000000
Stim specs cluster array 1.#Pulses in train, 3
Stim specs cluster array 1.Peak Level time (ms), 29.000000
Stim specs cluster array 1.Total pulse period (ms), 200.000000
Stim specs cluster array 1.Start Delay (ms), 0.000000
Stim specs cluster array 1.Pulse Shape, Square
Stim specs cluster array 1.Ramp/Rel. time (ms), 0.000000
Stim specs cluster array 1.Peak Amplitude (V), 2.000000
Stim specs cluster array 2.Initial Stimulus ampl., 0.000000
Stim specs cluster array 2.Maximum Stimulus, 0.000000
Stim specs cluster array 2.#Pulses in train, 1
Stim specs cluster array 2.Peak Level time (ms), 25.000000
Stim specs cluster array 2.Total pulse period (ms), 200.000000
Stim specs cluster array 2.Start Delay (ms), 0.000000
Stim specs cluster array 2.Pulse Shape, Square
Stim specs cluster array 2.Ramp/Rel. time (ms), 20.000000
Stim specs cluster array 2.Peak Amplitude (V), 10.000000
Stim specs cluster array 3.Initial Stimulus ampl., 0.000000
Stim specs cluster array 3.Maximum Stimulus, 20.000000
Stim specs cluster array 3.#Pulses in train, 25
Stim specs cluster array 3.Peak Level time (ms), 0.100000
Stim specs cluster array 3.Total pulse period (ms), 4.000000
Stim specs cluster array 3.Start Delay (ms), 205.000000
Stim specs cluster array 3.Pulse Shape, Triangle
Stim specs cluster array 3.Ramp/Rel. time (ms), 3.000000
Stim specs cluster array 3.Peak Amplitude (V), 0.500000
Force cal. (mN/Volt), 100.000000
Force Range (mN), 100.000000
Length cal. (mm/Volt), 10.000000
Length Range (mm), 10.000000
Stim. 1, 0.300000
Stim. 2, 0.000000
Stim. 3, 0.000000
Stim. 4, 0.000000
Monitor acquire time (ms), 100.000000
EMG graph Ymax, 0.100000
Travel limit (mm), 20.000000
Use Pressure Probe, FALSE
Pressure goal (g), 100
Speed (mm/sec), 5.000000
Dwell time (ms), 100.000000
Pressure limit (g), 500.000000
Channel amplitude offset, 0.000000

[DATA]

0.309,0.030,0.266,-5.337
0.308,0.029,0.266,-5.337
0.196,0.030,0.269,-5.337
0.153,0.028,0.274,-5.337
0.238,0.028,0.273,-5.337
0.274,0.030,0.271,-5.337
0.188,0.033,0.271,-5.337
0.170,0.032,0.272,-5.337
0.197,0.030,0.267,-5.337
0.238,0.033,0.266,-5.337
0.250,0.030,0.266,-5.337
0.174,0.031,0.264,-5.337
0.093,0.034,0.264,-5.337
0.155,0.031,0.268,-5.337
0.267,0.031,0.271,-5.337
0.237,0.036,0.273,-5.337
0.156,0.038,0.270,-5.337
0.146,0.039,0.267,-5.337
0.169,0.037,0.269,-5.337
0.207,0.037,0.271,-5.337
0.180,0.034,0.271,-5.337
0.232,0.036,0.270,-5.337
0.256,0.039,0.267,-5.337
0.247,0.039,0.263,-5.337
0.184,0.043,0.262,-5.337
0.243,0.038,0.267,-5.337
0.329,0.035,0.267,-5.337
0.231,0.037,0.266,-5.337
0.137,0.038,0.268,-5.337
0.085,0.040,0.269,-5.337
0.148,0.041,0.272,-5.337
0.227,0.042,0.272,-5.337
0.281,0.038,0.271,-5.337
0.288,0.035,0.267,-5.337
0.253,0.035,0.266,-5.337
0.225,0.040,0.265,-5.337
0.190,0.040,0.268,-5.337
0.209,0.036,0.267,-5.337
0.193,0.035,0.269,-5.337
0.155,0.036,0.271,-5.337
0.136,0.043,0.269,-5.337
0.199,0.041,0.269,-5.337
0.254,0.042,0.270,-5.337
0.199,0.044,0.271,-5.337
0.135,0.046,0.274,-5.337
0.191,0.045,0.274,-5.337
0.120,0.047,0.270,-5.337
0.072,0.052,0.266,-5.337
0.163,0.048,0.267,-5.337
0.216,0.043,0.269,-5.337
0.158,0.047,0.270,-5.337
0.097,0.050,0.270,-5.337
0.075,0.053,0.269,-5.337
0.107,0.047,0.270,-5.337
0.187,0.040,0.267,-5.337
0.205,0.042,0.268,-5.337
0.261,0.041,0.269,-5.337
0.299,0.044,0.268,-5.337
0.256,0.045,0.264,-5.337
0.199,0.043,0.269,-5.337
0.186,0.044,0.272,-5.337
0.217,0.042,0.276,-5.337
0.284,0.041,0.275,-5.337
0.223,0.044,0.271,-5.337
0.145,0.044,0.270,-5.337
0.190,0.048,0.266,-5.337
0.209,0.049,0.266,-5.337
0.186,0.049,0.269,-5.337
0.234,0.050,0.268,-5.337
0.195,0.049,0.267,-5.337
0.167,0.048,0.265,-5.337
0.175,0.050,0.265,-5.337
0.179,0.052,0.267,-5.337
0.163,0.049,0.268,-5.337
0.200,0.049,0.268,-5.337
0.285,0.050,0.270,-5.337
0.280,0.051,0.270,-5.337
0.218,0.050,0.267,-5.337
0.140,0.049,0.267,-5.337
0.161,0.047,0.268,-5.337
0.172,0.047,0.270,-5.337
0.194,0.050,0.269,-5.337
0.129,0.052,0.267,-5.337
0.090,0.050,0.265,-5.337
0.170,0.049,0.266,-5.337
0.229,0.049,0.269,-5.337
0.204,0.051,0.272,-5.337
0.237,0.050,0.272,-5.337
0.243,0.054,0.271,-5.337
0.249,0.052,0.268,-5.337
0.238,0.048,0.269,-5.337
0.197,0.051,0.269,-5.337
0.127,0.053,0.267,-5.337
0.145,0.052,0.268,-5.337
0.192,0.053,0.266,-5.337
0.240,0.053,0.266,-5.337
0.252,0.051,0.266,-5.337
0.184,0.049,0.265,-5.337
0.181,0.050,0.265,-5.337
0.150,0.052,0.269,-5.337
0.128,0.052,0.268,-5.337
0.167,0.048,0.267,-5.337
0.231,0.047,0.264,-5.337
0.290,0.049,0.266,-5.337
0.305,0.053,0.265,-5.337
0.287,0.054,0.264,-5.337
0.237,0.055,0.262,-5.337
0.159,0.057,0.266,-5.337
0.132,0.053,0.271,-5.337
0.202,0.055,0.273,-5.337
0.216,0.053,0.268,-5.337
0.223,0.052,0.262,-5.337
0.133,0.055,0.265,-5.337
0.062,0.054,0.268,-5.337
0.134,0.052,0.268,-5.337
0.213,0.053,0.265,-5.337
0.183,0.054,0.265,-5.337
0.141,0.055,0.267,-5.337
0.126,0.056,0.264,-5.337
0.196,0.052,0.264,-5.337
0.179,0.053,0.263,-5.337
0.177,0.052,0.260,-5.337
0.239,0.048,0.261,-5.337
0.264,0.052,0.264,-5.337
0.205,0.051,0.269,-5.337
0.250,0.053,0.272,-5.337
0.305,0.054,0.274,-5.337
0.191,0.055,0.273,-5.337
0.035,0.059,0.270,-5.337
0.073,0.055,0.267,-5.337
0.193,0.053,0.268,-5.337
0.233,0.054,0.267,-5.337
0.179,0.056,0.266,-5.337
0.173,0.056,0.267,-5.337
0.191,0.057,0.266,-5.337
0.141,0.057,0.265,-5.337
0.135,0.062,0.263,-5.337
0.136,0.059,0.261,-5.337
0.133,0.056,0.264,-5.337
0.206,0.056,0.267,-5.337
0.227,0.055,0.267,-5.337
0.186,0.057,0.269,-5.337
0.160,0.058,0.266,-5.337
0.174,0.056,0.264,-5.337
0.232,0.058,0.265,-5.337
0.181,0.059,0.264,-5.337
0.089,0.062,0.261,-5.337
0.153,0.063,0.262,-5.337
0.238,0.063,0.267,-5.337
0.237,0.063,0.270,-5.337
0.152,0.064,0.270,-5.337
0.135,0.065,0.270,-5.337
0.208,0.060,0.267,-5.337
0.222,0.056,0.267,-5.337
0.258,0.054,0.267,-5.337
0.293,0.054,0.267,-5.337
0.255,0.057,0.267,-5.337
0.152,0.059,0.272,-5.337
0.166,0.057,0.272,-5.337
0.206,0.059,0.269,-5.337
0.233,0.057,0.271,-5.337
0.248,0.056,0.270,-5.337
0.302,0.057,0.267,-5.337
0.237,0.062,0.266,-5.337
0.132,0.062,0.265,-5.337
0.161,0.058,0.264,-5.337
0.238,0.060,0.265,-5.337
0.170,0.058,0.267,-5.337
0.121,0.059,0.267,-5.337
0.172,0.062,0.268,-5.337
0.183,0.065,0.268,-5.337
0.161,0.067,0.266,-5.337
0.177,0.065,0.267,-5.337
0.220,0.062,0.266,-5.337
0.214,0.061,0.263,-5.337
0.109,0.061,0.261,-5.337
0.100,0.063,0.265,-5.337
0.181,0.064,0.267,-5.337
0.185,0.063,0.268,-5.337
0.223,0.061,0.262,-5.337
0.256,0.061,0.261,-5.337
0.238,0.061,0.262,-5.337
0.196,0.060,0.264,-5.337
0.164,0.061,0.267,-5.337
0.214,0.060,0.267,-5.337
0.265,0.058,0.264,-5.337
0.249,0.057,0.261,-5.337
0.145,0.059,0.263,-5.337
0.084,0.064,0.264,-5.337
0.117,0.063,0.264,-5.337
0.112,0.064,0.267,-5.337
0.095,0.062,0.272,-5.337
0.124,0.059,0.269,-5.337
0.129,0.060,0.264,-5.337
0.212,0.058,0.264,-5.337
0.291,0.060,0.270,-5.337
0.250,0.061,0.270,-5.337
0.149,0.065,0.266,-5.337
0.094,0.062,0.264,-5.337
0.094,0.058,0.263,-5.337
0.138,0.058,0.260,-5.337
0.243,0.061,0.262,-5.337
0.242,0.064,0.264,-5.337
0.133,0.065,0.266,-5.337
0.128,0.062,0.265,-5.337
0.173,0.063,0.260,-5.337
0.212,0.064,0.261,-5.337
0.178,0.065,0.263,-5.337
0.147,0.062,0.265,-5.337
0.120,0.065,0.268,-5.337
0.128,0.064,0.266,-5.337
0.182,0.065,0.264,-5.337
0.244,0.063,0.263,-5.337
0.233,0.063,0.266,-5.337
0.181,0.062,0.268,-5.337
0.163,0.064,0.266,-5.337
0.192,0.065,0.267,-5.337
0.201,0.068,0.266,-5.337
0.184,0.066,0.266,-5.337
0.198,0.065,0.265,-5.337
0.203,0.063,0.263,-5.337
0.235,0.064,0.266,-5.337
0.273,0.061,0.269,-5.337
0.256,0.063,0.267,-5.337
0.220,0.068,0.266,-5.337
0.180,0.067,0.264,-5.337
0.194,0.064,0.265,-5.337
0.228,0.063,0.267,-5.337
0.238,0.066,0.267,-5.337
0.231,0.063,0.270,-5.337
0.221,0.059,0.270,-5.337
0.176,0.059,0.266,-5.337
0.109,0.064,0.265,-5.337
0.154,0.065,0.266,-5.337
0.184,0.064,0.266,-5.337
0.117,0.061,0.269,-5.337
0.157,0.060,0.268,-5.337
0.204,0.061,0.263,-5.337
0.214,0.062,0.264,-5.337
0.218,0.059,0.269,-5.337
0.229,0.062,0.267,-5.337
0.112,0.067,0.263,-5.337
0.087,0.067,0.260,-5.337
0.173,0.065,0.265,-5.337
0.185,0.066,0.266,-5.337
0.197,0.067,0.267,-5.337
0.201,0.066,0.264,-5.337
0.125,0.065,0.264,-5.337
0.144,0.060,0.265,-5.337
0.183,0.064,0.264,-5.337
0.105,0.066,0.266,-5.337
0.122,0.065,0.267,-5.337
0.189,0.067,0.265,-5.337
0.153,0.068,0.264,-5.337
0.149,0.063,0.262,-5.337
0.283,0.063,0.263,-5.337
0.321,0.066,0.264,-5.337
0.217,0.070,0.266,-5.337
0.135,0.068,0.262,-5.337
0.135,0.067,0.263,-5.337
0.260,0.067,0.269,-5.337
0.267,0.066,0.270,-5.337
0.145,0.067,0.266,-5.337
0.152,0.064,0.262,-5.337
0.218,0.063,0.266,-5.337
0.252,0.063,0.269,-5.337
0.202,0.060,0.272,-5.337
0.180,0.062,0.268,-5.337
0.210,0.064,0.265,-5.337
0.179,0.061,0.264,-5.337
0.182,0.057,0.266,-5.337
0.218,0.056,0.267,-5.337
0.139,0.059,0.271,-5.337
0.172,0.057,0.271,-5.337
0.246,0.057,0.271,-5.337
0.150,0.062,0.266,-5.337
0.067,0.063,0.262,-5.337
0.122,0.059,0.260,-5.337
0.196,0.058,0.265,-5.337
0.184,0.058,0.270,-5.337
0.207,0.057,0.271,-5.337
0.273,0.054,0.266,-5.337
0.196,0.056,0.265,-5.337
0.092,0.057,0.268,-5.337
0.035,0.055,0.269,-5.337
0.118,0.052,0.269,-5.337
0.260,0.053,0.265,-5.337
0.179,0.055,0.262,-5.337
0.084,0.053,0.265,-5.337
0.110,0.049,0.268,-5.337
0.161,0.052,0.266,-5.337
0.195,0.053,0.264,-5.337
0.192,0.052,0.264,-5.337
0.244,0.049,0.266,-5.337
0.216,0.049,0.266,-5.337
0.195,0.047,0.268,-5.337
0.160,0.048,0.271,-5.337
0.183,0.046,0.276,-5.337
0.217,0.045,0.270,-5.337
0.275,0.044,0.264,-5.337
0.139,0.049,0.261,-5.337
0.124,0.052,0.266,-5.337
0.225,0.051,0.271,-5.337
0.236,0.051,0.270,-5.337
0.254,0.047,0.266,-5.337
0.314,0.049,0.266,-5.337
0.224,0.049,0.266,-5.337
0.157,0.050,0.269,-5.337
0.212,0.052,0.271,-5.337
0.238,0.051,0.271,-5.337
0.231,0.050,0.269,-5.337
0.218,0.051,0.266,-5.337
0.258,0.053,0.267,-5.337
0.219,0.054,0.266,-5.337
0.206,0.052,0.266,-5.337
0.184,0.050,0.266,-5.337
0.136,0.049,0.267,-5.337
0.187,0.047,0.265,-5.337
0.208,0.049,0.268,-5.337
0.214,0.050,0.269,-5.337
0.287,0.050,0.268,-5.337
0.273,0.046,0.265,-5.337
0.238,0.048,0.268,-5.337
0.188,0.049,0.267,-5.337
0.145,0.050,0.268,-5.337
0.183,0.049,0.267,-5.337
0.190,0.048,0.265,-5.337
0.189,0.047,0.265,-5.337
0.119,0.048,0.270,-5.337
0.161,0.048,0.272,-5.337
0.228,0.048,0.271,-5.337
0.273,0.047,0.270,-5.337
0.222,0.047,0.272,-5.337
0.212,0.050,0.271,-5.337
0.251,0.053,0.268,-5.337
0.253,0.054,0.266,-5.337
0.228,0.053,0.267,-5.337
0.203,0.050,0.269,-5.337
0.178,0.050,0.269,-5.337
0.210,0.052,0.272,-5.337
0.119,0.053,0.272,-5.337
0.079,0.051,0.270,-5.337
0.199,0.049,0.267,-5.337
0.270,0.048,0.267,-5.337
0.279,0.048,0.268,-5.337
0.238,0.046,0.270,-5.337
0.186,0.045,0.266,-5.337
0.222,0.048,0.266,-5.337
0.265,0.046,0.268,-5.337
0.217,0.049,0.271,-5.337
0.114,0.048,0.271,-5.337
0.116,0.044,0.271,-5.337
0.231,0.043,0.271,-5.337
0.238,0.044,0.270,-5.337
0.205,0.045,0.268,-5.337
0.260,0.044,0.268,-5.337
0.248,0.045,0.267,-5.337
0.260,0.043,0.268,-5.337
0.238,0.045,0.269,-5.337
0.183,0.050,0.270,-5.337
0.182,0.047,0.272,-5.337
0.217,0.047,0.272,-5.337
0.187,0.048,0.267,-5.337
0.190,0.049,0.257,-5.337
0.192,0.049,0.257,-5.337
0.171,0.051,0.263,-5.337
0.138,0.053,0.268,-5.337
0.117,0.051,0.269,-5.337
0.115,0.048,0.271,-5.337
0.186,0.044,0.269,-5.337
0.263,0.045,0.263,-5.337
0.196,0.046,0.264,-5.337
0.203,0.045,0.270,-5.337
0.319,0.043,0.272,-5.337
0.330,0.043,0.271,-5.337
0.313,0.042,0.267,-5.337
0.287,0.045,0.267,-5.337
0.246,0.044,0.267,-5.337
0.274,0.045,0.265,-5.337
0.335,0.046,0.263,-5.337
0.306,0.046,0.264,-5.337
0.343,0.041,0.263,-5.337
0.331,0.041,0.265,-5.337
0.204,0.047,0.268,-5.337
0.182,0.049,0.266,-5.337
0.189,0.046,0.263,-5.337
0.170,0.042,0.264,-5.337
0.098,0.045,0.266,-5.337
0.039,0.044,0.265,-5.337
0.086,0.046,0.269,-5.337
0.239,0.047,0.269,-5.337
0.302,0.043,0.268,-5.337
0.280,0.041,0.266,-5.337
0.220,0.046,0.267,-5.337
0.148,0.046,0.267,-5.337
0.181,0.042,0.266,-5.337
0.316,0.038,0.264,-5.337
0.318,0.041,0.265,-5.337
0.249,0.042,0.270,-5.337
0.260,0.043,0.269,-5.337
0.215,0.040,0.265,-5.337
0.279,0.039,0.264,-5.337
0.340,0.037,0.263,-5.337
0.314,0.038,0.264,-5.337
0.288,0.039,0.266,-5.337
0.240,0.042,0.265,-5.337
0.177,0.042,0.263,-5.337
0.118,0.040,0.265,-5.337
0.123,0.038,0.268,-5.337
0.124,0.041,0.270,-5.337
0.141,0.040,0.268,-5.337
0.174,0.038,0.262,-5.337
0.187,0.037,0.258,-5.337
0.222,0.037,0.261,-5.337
0.247,0.036,0.268,-5.337
0.217,0.035,0.273,-5.337
0.206,0.034,0.274,-5.337
0.235,0.038,0.267,-5.337
0.285,0.040,0.262,-5.337
0.270,0.041,0.262,-5.337
0.170,0.044,0.267,-5.337
0.170,0.042,0.268,-5.337
0.197,0.043,0.266,-5.337
0.284,0.040,0.265,-5.337
0.291,0.043,0.266,-5.337
0.276,0.043,0.266,-5.337
0.301,0.041,0.265,-5.337
0.310,0.036,0.263,-5.337
0.267,0.040,0.266,-5.337
0.211,0.040,0.264,-5.337
0.185,0.043,0.263,-5.337
0.206,0.044,0.265,-5.337
0.251,0.044,0.268,-5.337
0.172,0.047,0.268,-5.337
0.177,0.045,0.265,-5.337
0.259,0.042,0.265,-5.337
0.265,0.045,0.266,-5.337
0.273,0.046,0.267,-5.337
0.294,0.045,0.264,-5.337
0.287,0.043,0.263,-5.337
0.244,0.043,0.263,-5.337
0.156,0.044,0.265,-5.337
0.157,0.045,0.265,-5.337
0.201,0.046,0.262,-5.337
0.187,0.047,0.262,-5.337
0.223,0.046,0.265,-5.337
0.220,0.044,0.267,-5.337
0.300,0.045,0.265,-5.337
0.317,0.046,0.268,-5.337
0.270,0.042,0.271,-5.337
0.273,0.043,0.268,-5.337
0.315,0.043,0.264,-5.337
0.309,0.043,0.264,-5.337
0.374,0.042,0.265,-5.337
0.407,0.042,0.265,-5.337
0.360,0.047,0.264,-5.337
0.315,0.046,0.262,-5.337
0.260,0.044,0.259,-5.337
0.184,0.046,0.256,-5.337
0.167,0.045,0.256,-5.337
0.230,0.044,0.264,-5.337
0.222,0.045,0.265,-5.337
0.240,0.045,0.262,-5.337
0.283,0.043,0.258,-5.337
0.251,0.045,0.258,-5.337
0.140,0.048,0.260,-5.337
0.181,0.045,0.263,-5.337
0.235,0.046,0.261,-5.337
0.169,0.051,0.260,-5.337
0.181,0.048,0.261,-5.337
0.131,0.049,0.265,-5.337
0.146,0.045,0.267,-5.337
0.219,0.044,0.267,-5.337
0.299,0.043,0.262,-5.337
0.229,0.045,0.260,-5.337
0.260,0.039,0.262,-5.337
0.302,0.040,0.262,-5.337
0.241,0.044,0.261,-5.337
0.163,0.045,0.260,-5.337
0.132,0.047,0.261,-5.337
0.142,0.046,0.263,-5.337
0.222,0.043,0.266,-5.337
0.317,0.037,0.266,-5.337
0.369,0.038,0.264,-5.337
0.291,0.044,0.262,-5.337
0.265,0.046,0.265,-5.337
0.217,0.048,0.264,-5.337
0.142,0.049,0.265,-5.337
0.150,0.047,0.263,-5.337
0.154,0.046,0.263,-5.337
0.152,0.044,0.260,-5.337
0.174,0.048,0.262,-5.337
0.125,0.048,0.263,-5.337
0.082,0.044,0.263,-5.337
0.114,0.041,0.259,-5.337
0.213,0.042,0.258,-5.337
0.283,0.043,0.259,-5.337
0.231,0.042,0.260,-5.337
0.167,0.042,0.261,-5.337
0.184,0.047,0.260,-5.337
0.180,0.045,0.262,-5.337
0.225,0.041,0.264,-5.337
0.254,0.039,0.264,-5.337
0.239,0.044,0.264,-5.337
0.214,0.045,0.263,-5.337
0.214,0.044,0.265,-5.337
0.263,0.041,0.265,-5.337
0.294,0.041,0.261,-5.337
0.314,0.042,0.258,-5.337
0.332,0.039,0.259,-5.337
0.313,0.038,0.263,-5.337
0.285,0.036,0.262,-5.337
0.190,0.042,0.261,-5.337
0.183,0.043,0.263,-5.337
0.279,0.039,0.265,-5.337
0.356,0.038,0.263,-5.337
0.282,0.039,0.263,-5.337
0.257,0.038,0.262,-5.337
0.277,0.040,0.265,-5.337
0.223,0.038,0.267,-5.337
0.321,0.036,0.266,-5.337
0.401,0.035,0.264,-5.337
0.244,0.040,0.265,-5.337
0.159,0.044,0.265,-5.337
0.170,0.046,0.265,-5.337
0.219,0.046,0.262,-5.337
0.251,0.046,0.261,-5.337
0.311,0.046,0.263,-5.337
0.311,0.044,0.267,-5.337
0.284,0.048,0.266,-5.337
0.169,0.049,0.262,-5.337
0.105,0.051,0.261,-5.337
0.101,0.055,0.263,-5.337
0.128,0.057,0.265,-5.337
0.171,0.054,0.264,-5.337
0.240,0.047,0.259,-5.337
0.244,0.046,0.256,-5.337
0.194,0.049,0.260,-5.337
0.153,0.050,0.265,-5.337
0.137,0.049,0.267,-5.337
0.188,0.048,0.262,-5.337
0.194,0.047,0.264,-5.337
0.153,0.048,0.264,-5.337
0.170,0.053,0.260,-5.337
0.200,0.053,0.254,-5.337
0.148,0.052,0.254,-5.337
0.144,0.049,0.262,-5.337
0.213,0.048,0.267,-5.337
0.226,0.049,0.267,-5.337
0.222,0.050,0.266,-5.337
0.220,0.049,0.264,-5.337
0.188,0.050,0.265,-5.337
0.208,0.049,0.265,-5.337
0.219,0.050,0.263,-5.337
0.257,0.054,0.260,-5.337
0.224,0.055,0.259,-5.337
0.187,0.055,0.265,-5.337
0.159,0.054,0.271,-5.337
0.234,0.052,0.273,-5.337
0.292,0.051,0.266,-5.337
0.171,0.052,0.263,-5.337
0.113,0.049,0.261,-5.337
0.240,0.045,0.262,-5.337
0.340,0.048,0.259,-5.337
0.327,0.051,0.261,-5.337
0.291,0.051,0.265,-5.337
0.180,0.052,0.267,-5.337
0.090,0.052,0.266,-5.337
0.125,0.053,0.263,-5.337
0.227,0.052,0.262,-5.337
0.292,0.054,0.265,-5.337
0.259,0.052,0.265,-5.337
0.200,0.054,0.265,-5.337
0.212,0.055,0.267,-5.337
0.236,0.058,0.267,-5.337
0.206,0.061,0.265,-5.337
0.170,0.061,0.264,-5.337
0.072,0.060,0.263,-5.337
0.070,0.057,0.261,-5.337
0.189,0.052,0.259,-5.337
0.191,0.052,0.260,-5.337
0.172,0.056,0.261,-5.337
0.188,0.058,0.266,-5.337
0.130,0.056,0.267,-5.337
0.105,0.055,0.265,-5.337
0.135,0.053,0.264,-5.337
0.213,0.053,0.262,-5.337
0.211,0.055,0.269,-5.337
0.199,0.052,0.270,-5.337
0.198,0.053,0.269,-5.337
0.238,0.053,0.263,-5.337
0.258,0.056,0.258,-5.337
0.220,0.056,0.257,-5.337
0.165,0.054,0.259,-5.337
0.166,0.050,0.261,-5.337
0.209,0.050,0.266,-5.337
0.144,0.054,0.267,-5.337
0.084,0.054,0.268,-5.337
0.130,0.055,0.267,-5.337
0.173,0.055,0.262,-5.337
0.217,0.055,0.264,-5.337
0.239,0.056,0.267,-5.337
0.289,0.054,0.270,-5.337
0.244,0.056,0.270,-5.337
0.197,0.055,0.267,-5.337
0.200,0.055,0.264,-5.337
0.139,0.058,0.270,-5.337
0.157,0.057,0.272,-5.337
0.214,0.058,0.272,-5.337
0.216,0.058,0.267,-5.337
0.193,0.061,0.261,-5.337
0.129,0.060,0.255,-5.337
0.089,0.055,0.258,-5.337
0.156,0.054,0.261,-5.337
0.258,0.054,0.264,-5.337
0.270,0.054,0.260,-5.337
0.202,0.055,0.263,-5.337
0.180,0.054,0.267,-5.337
0.214,0.054,0.268,-5.337
0.242,0.053,0.267,-5.337
0.283,0.051,0.268,-5.337
0.346,0.052,0.270,-5.337
0.297,0.055,0.271,-5.337
0.185,0.056,0.271,-5.337
0.189,0.054,0.268,-5.337
0.227,0.055,0.262,-5.337
0.240,0.056,0.261,-5.337
0.263,0.055,0.262,-5.337
0.242,0.058,0.262,-5.337
0.135,0.059,0.265,-5.337
0.077,0.054,0.267,-5.337
0.087,0.052,0.266,-5.337
0.097,0.055,0.263,-5.337
0.220,0.056,0.259,-5.337
0.302,0.055,0.261,-5.337
0.231,0.055,0.266,-5.337
0.173,0.054,0.263,-5.337
0.171,0.059,0.260,-5.337
0.180,0.059,0.259,-5.337
0.192,0.058,0.260,-5.337
0.181,0.059,0.262,-5.337
0.100,0.061,0.263,-5.337
0.131,0.058,0.264,-5.337
0.198,0.055,0.263,-5.337
0.195,0.056,0.262,-5.337
0.139,0.059,0.263,-5.337
0.154,0.055,0.264,-5.337
0.258,0.053,0.261,-5.337
0.238,0.056,0.260,-5.337
0.261,0.058,0.262,-5.337
0.268,0.062,0.266,-5.337
0.223,0.060,0.267,-5.337
0.160,0.060,0.264,-5.337
0.100,0.061,0.262,-5.337
0.131,0.062,0.262,-5.337
0.278,0.061,0.265,-5.337
0.339,0.061,0.267,-5.337
0.286,0.061,0.264,-5.337
0.235,0.059,0.263,-5.337
0.224,0.057,0.264,-5.337
0.274,0.057,0.264,-5.337
0.304,0.056,0.261,-5.337
0.308,0.059,0.259,-5.337
0.263,0.058,0.260,-5.337
0.222,0.057,0.265,-5.337
0.195,0.058,0.271,-5.337
0.197,0.060,0.268,-5.337
0.249,0.055,0.260,-5.337
0.201,0.058,0.258,-5.337
0.132,0.060,0.263,-5.337
0.118,0.059,0.265,-5.337
0.141,0.059,0.266,-5.337
0.138,0.064,0.266,-5.337
0.131,0.063,0.264,-5.337
0.158,0.062,0.265,-5.337
0.144,0.059,0.265,-5.337
0.068,0.060,0.263,-5.337
0.098,0.065,0.265,-5.337
0.146,0.066,0.266,-5.337
0.231,0.063,0.265,-5.337
0.255,0.065,0.264,-5.337
0.231,0.067,0.265,-5.337
0.187,0.069,0.264,-5.337
0.180,0.069,0.265,-5.337
0.184,0.068,0.267,-5.337
0.240,0.068,0.267,-5.337
0.240,0.067,0.263,-5.337
0.255,0.067,0.265,-5.337
0.277,0.067,0.269,-5.337
0.285,0.065,0.269,-5.337
0.215,0.064,0.265,-5.337
0.140,0.067,0.264,-5.337
0.127,0.067,0.261,-5.337
0.170,0.069,0.262,-5.337
0.144,0.068,0.263,-5.337
0.136,0.065,0.262,-5.337
0.199,0.059,0.263,-5.337
0.186,0.057,0.267,-5.337
0.125,0.065,0.267,-5.337
0.105,0.066,0.267,-5.337
0.071,0.062,0.267,-5.337
0.007,0.065,0.264,-5.337
0.014,0.063,0.264,-5.337
0.114,0.065,0.265,-5.337
0.147,0.065,0.266,-5.337
0.142,0.064,0.262,-5.337
0.170,0.062,0.259,-5.337
0.196,0.061,0.258,-5.337
0.289,0.062,0.263,-5.337
0.333,0.060,0.268,-5.337
0.378,0.061,0.269,-5.337
0.372,0.060,0.265,-5.337
0.284,0.064,0.263,-5.337
0.174,0.068,0.263,-5.337
0.133,0.068,0.261,-5.337
0.139,0.068,0.261,-5.337
0.082,0.069,0.265,-5.337
0.140,0.065,0.266,-5.337
0.256,0.067,0.265,-5.337
0.186,0.068,0.263,-5.337
0.023,0.070,0.263,-5.337
0.038,0.067,0.262,-5.337
0.189,0.067,0.263,-5.337
0.262,0.068,0.265,-5.337
0.238,0.070,0.265,-5.337
0.212,0.071,0.267,-5.337
0.227,0.067,0.267,-5.337
0.236,0.067,0.266,-5.337
0.140,0.069,0.261,-5.337
0.075,0.071,0.264,-5.337
0.144,0.065,0.267,-5.337
0.207,0.064,0.267,-5.337
0.217,0.066,0.265,-5.337
0.205,0.068,0.263,-5.337
0.188,0.063,0.263,-5.337
0.239,0.065,0.265,-5.337
0.271,0.065,0.266,-5.337
0.211,0.067,0.264,-5.337
0.200,0.062,0.264,-5.337
0.233,0.063,0.267,-5.337
0.242,0.062,0.267,-5.337
0.192,0.065,0.265,-5.337
0.107,0.068,0.262,-5.337
0.129,0.068,0.265,-5.337
0.153,0.068,0.264,-5.337
0.193,0.070,0.261,-5.337
0.223,0.069,0.262,-5.337
0.218,0.067,0.263,-5.337
0.194,0.066,0.261,-5.337
0.239,0.068,0.263,-5.337
0.228,0.067,0.263,-5.337
0.237,0.064,0.264,-5.337
0.214,0.064,0.267,-5.337
0.182,0.070,0.266,-5.337
0.060,0.072,0.263,-5.337
0.058,0.073,0.261,-5.337
0.128,0.072,0.262,-5.337
0.179,0.068,0.261,-5.337
0.177,0.068,0.265,-5.337
0.153,0.065,0.269,-5.337
0.142,0.067,0.267,-5.337
0.180,0.067,0.264,-5.337
0.214,0.063,0.262,-5.337
0.248,0.060,0.263,-5.337
0.274,0.060,0.268,-5.337
0.220,0.061,0.269,-5.337
0.165,0.063,0.264,-5.337
0.151,0.063,0.260,-5.337
0.153,0.063,0.258,-5.337
0.190,0.059,0.259,-5.337
0.232,0.058,0.262,-5.337
0.289,0.059,0.267,-5.337
0.262,0.059,0.267,-5.337
0.186,0.060,0.264,-5.337
0.117,0.061,0.263,-5.337
0.104,0.062,0.266,-5.337
0.130,0.060,0.265,-5.337
0.152,0.057,0.267,-5.337
0.167,0.057,0.265,-5.337
0.184,0.059,0.262,-5.337
0.222,0.059,0.259,-5.337
0.179,0.057,0.263,-5.337
0.188,0.053,0.265,-5.337
0.244,0.054,0.264,-5.337
0.210,0.055,0.265,-5.337
0.213,0.056,0.267,-5.337
0.267,0.054,0.266,-5.337
0.272,0.054,0.264,-5.337
0.156,0.054,0.265,-5.337
0.149,0.054,0.264,-5.337
0.266,0.051,0.262,-5.337
0.271,0.052,0.262,-5.337
0.165,0.053,0.263,-5.337
0.143,0.052,0.265,-5.337
0.218,0.053,0.270,-5.337
0.274,0.051,0.269,-5.337
0.297,0.049,0.264,-5.337
0.323,0.048,0.261,-5.337
0.327,0.051,0.263,-5.337
0.192,0.056,0.263,-5.337
0.078,0.058,0.261,-5.337
0.132,0.052,0.262,-5.337
0.254,0.049,0.266,-5.337
0.255,0.052,0.266,-5.337
0.170,0.054,0.266,-5.337
0.164,0.053,0.261,-5.337
0.179,0.053,0.261,-5.337
0.201,0.052,0.263,-5.337
0.233,0.050,0.263,-5.337
0.272,0.048,0.266,-5.337
0.232,0.047,0.265,-5.337
0.190,0.047,0.263,-5.337
0.217,0.054,0.263,-5.337
0.241,0.055,0.264,-5.337
0.233,0.055,0.267,-5.337
0.287,0.053,0.267,-5.337
0.334,0.049,0.265,-5.337
0.340,0.048,0.265,-5.337
0.214,0.048,0.263,-5.337
0.192,0.048,0.264,-5.337
0.297,0.047,0.269,-5.337
0.287,0.047,0.270,-5.337
0.274,0.046,0.264,-5.337
0.235,0.046,0.263,-5.337
0.208,0.044,0.266,-5.337
0.200,0.045,0.270,-5.337
0.217,0.050,0.267,-5.337
0.188,0.048,0.265,-5.337
0.180,0.046,0.263,-5.337
0.193,0.047,0.265,-5.337
0.135,0.049,0.266,-5.337
0.171,0.047,0.263,-5.337
0.233,0.044,0.260,-5.337
0.225,0.042,0.264,-5.337
0.269,0.042,0.270,-5.337
0.239,0.048,0.273,-5.337
0.218,0.048,0.274,-5.337
0.176,0.047,0.268,-5.337
0.226,0.043,0.263,-5.337
0.239,0.047,0.263,-5.337
0.202,0.046,0.271,-5.337
0.288,0.042,0.272,-5.337
0.337,0.041,0.267,-5.337
0.253,0.040,0.265,-5.337
0.251,0.043,0.262,-5.337
0.259,0.043,0.262,-5.337
0.263,0.046,0.265,-5.337
0.271,0.051,0.267,-5.337
0.224,0.050,0.269,-5.337
0.167,0.048,0.265,-5.337
0.181,0.049,0.266,-5.337
0.196,0.052,0.266,-5.337
0.158,0.053,0.270,-5.337
0.182,0.047,0.271,-5.337
0.231,0.045,0.270,-5.337
0.186,0.049,0.267,-5.337
0.104,0.054,0.265,-5.337
0.191,0.050,0.261,-5.337
0.312,0.048,0.259,-5.337
0.266,0.049,0.260,-5.337
0.229,0.049,0.264,-5.337
0.191,0.046,0.267,-5.337
0.228,0.045,0.269,-5.337
0.232,0.045,0.267,-5.337
0.210,0.047,0.268,-5.337
0.199,0.050,0.269,-5.337
0.184,0.050,0.268,-5.337
0.193,0.046,0.267,-5.337
0.151,0.045,0.269,-5.337
0.082,0.044,0.273,-5.337
0.174,0.048,0.271,-5.337
0.266,0.048,0.266,-5.337
0.236,0.044,0.262,-5.337
0.173,0.046,0.264,-5.337
0.148,0.044,0.266,-5.337
0.241,0.043,0.270,-5.337
0.305,0.045,0.267,-5.337
0.241,0.044,0.264,-5.337
0.196,0.041,0.264,-5.337
0.178,0.041,0.267,-5.337
0.114,0.045,0.267,-5.337
0.166,0.041,0.267,-5.337
0.277,0.038,0.269,-5.337
0.279,0.041,0.274,-5.337
0.286,0.039,0.273,-5.337
0.270,0.042,0.271,-5.337
0.279,0.041,0.268,-5.337
0.301,0.039,0.269,-5.337
0.289,0.037,0.269,-5.337
0.274,0.039,0.269,-5.337
0.254,0.042,0.269,-5.337
0.263,0.040,0.269,-5.337
0.248,0.042,0.270,-5.337
0.199,0.044,0.266,-5.337
0.162,0.043,0.260,-5.337
0.141,0.043,0.261,-5.337
0.089,0.045,0.266,-5.337
0.011,0.049,0.269,-5.337
0.026,0.048,0.271,-5.337
0.108,0.044,0.267,-5.337
0.176,0.047,0.263,-5.337
0.163,0.047,0.263,-5.337
0.095,0.045,0.264,-5.337
0.197,0.043,0.266,-5.337
0.250,0.045,0.265,-5.337
0.192,0.050,0.265,-5.337
0.166,0.047,0.263,-5.337
0.144,0.040,0.263,-5.337
0.177,0.038,0.264,-5.337
0.196,0.037,0.260,-5.337
0.203,0.037,0.260,-5.337
0.172,0.041,0.267,-5.337
0.162,0.041,0.273,-5.337
0.223,0.039,0.274,-5.337
0.232,0.040,0.270,-5.337
0.163,0.045,0.265,-5.337
0.200,0.042,0.263,-5.337
0.268,0.041,0.266,-5.337
0.266,0.040,0.268,-5.337
0.277,0.039,0.267,-5.337
0.267,0.038,0.262,-5.337
0.169,0.041,0.265,-5.337
0.122,0.041,0.267,-5.337
0.192,0.041,0.267,-5.337
0.302,0.039,0.265,-5.337
0.325,0.042,0.265,-5.337
0.266,0.045,0.262,-5.337
0.212,0.042,0.264,-5.337
0.174,0.039,0.267,-5.337
0.240,0.039,0.268,-5.337
0.299,0.041,0.270,-5.337
0.313,0.037,0.270,-5.337
0.284,0.037,0.265,-5.337
0.253,0.040,0.262,-5.337
0.235,0.043,0.262,-5.337
0.221,0.042,0.266,-5.337
0.257,0.037,0.265,-5.337
0.277,0.036,0.262,-5.337
0.312,0.036,0.264,-5.337
0.263,0.042,0.267,-5.337
0.214,0.041,0.270,-5.337
0.229,0.041,0.271,-5.337
0.240,0.043,0.270,-5.337
0.248,0.038,0.267,-5.337
0.211,0.036,0.270,-5.337
0.229,0.036,0.266,-5.337
0.207,0.040,0.262,-5.337
0.295,0.039,0.264,-5.337
0.302,0.040,0.269,-5.337
0.198,0.040,0.268,-5.337
0.163,0.040,0.265,-5.337
0.118,0.045,0.260,-5.337
0.139,0.044,0.258,-5.337
0.233,0.042,0.260,-5.337
0.228,0.042,0.266,-5.337
0.256,0.034,0.266,-5.337
0.251,0.035,0.270,-5.337
0.243,0.036,0.273,-5.337
0.264,0.039,0.270,-5.337
0.269,0.040,0.266,-5.337
0.228,0.039,0.265,-5.337
0.233,0.036,0.267,-5.337
0.262,0.036,0.267,-5.337
0.249,0.036,0.268,-5.337
0.301,0.036,0.270,-5.337
0.282,0.039,0.268,-5.337
0.199,0.041,0.267,-5.337
0.200,0.037,0.269,-5.337
0.233,0.035,0.270,-5.337
0.206,0.039,0.269,-5.337
0.216,0.039,0.266,-5.337
0.252,0.039,0.264,-5.337
0.248,0.040,0.263,-5.337
0.180,0.043,0.264,-5.337
0.164,0.044,0.263,-5.337
0.161,0.044,0.263,-5.337
0.181,0.045,0.263,-5.337
0.183,0.043,0.267,-5.337
0.222,0.042,0.266,-5.337
0.293,0.041,0.264,-5.337
0.267,0.042,0.265,-5.337
0.246,0.043,0.264,-5.337
0.280,0.040,0.265,-5.337
0.260,0.040,0.267,-5.337
0.214,0.039,0.266,-5.337
0.311,0.038,0.268,-5.337
0.330,0.041,0.269,-5.337
0.186,0.040,0.270,-5.337
0.197,0.038,0.269,-5.337
0.317,0.041,0.266,-5.337
0.429,0.037,0.264,-5.337
0.353,0.037,0.263,-5.337
0.243,0.040,0.267,-5.337
0.243,0.044,0.270,-5.337
0.240,0.042,0.271,-5.337
0.218,0.043,0.269,-5.337
0.105,0.045,0.266,-5.337
0.080,0.046,0.261,-5.337
0.157,0.043,0.261,-5.337
0.186,0.041,0.262,-5.337
0.236,0.041,0.264,-5.337
0.226,0.042,0.265,-5.337
0.206,0.044,0.264,-5.337
0.260,0.037,0.262,-5.337
0.325,0.032,0.263,-5.337
0.286,0.036,0.265,-5.337
0.220,0.040,0.267,-5.337
0.211,0.043,0.266,-5.337
0.220,0.041,0.264,-5.337
0.216,0.040,0.265,-5.337
0.235,0.040,0.267,-5.337
0.166,0.037,0.267,-5.337
0.083,0.042,0.265,-5.337
0.078,0.043,0.262,-5.337
0.150,0.038,0.261,-5.337
0.199,0.040,0.261,-5.337
0.210,0.043,0.258,-5.337
0.225,0.042,0.261,-5.337
0.239,0.039,0.264,-5.337
0.214,0.041,0.267,-5.337
0.145,0.040,0.267,-5.337
0.147,0.041,0.268,-5.337
0.204,0.042,0.267,-5.337
0.219,0.038,0.265,-5.337
0.240,0.037,0.265,-5.337
0.191,0.041,0.266,-5.337
0.136,0.045,0.267,-5.337
0.093,0.047,0.270,-5.337
0.143,0.044,0.268,-5.337
0.202,0.042,0.263,-5.337
0.226,0.043,0.260,-5.337
0.175,0.044,0.264,-5.337
0.156,0.042,0.264,-5.337
0.184,0.043,0.263,-5.337
0.250,0.043,0.265,-5.337
0.230,0.044,0.264,-5.337
0.223,0.041,0.264,-5.337
0.162,0.042,0.263,-5.337
0.121,0.047,0.267,-5.337
0.171,0.044,0.268,-5.337
0.223,0.042,0.268,-5.337
0.227,0.043,0.267,-5.337
0.207,0.048,0.267,-5.337
0.213,0.050,0.265,-5.337
0.288,0.050,0.265,-5.337
0.270,0.050,0.264,-5.337
0.196,0.051,0.262,-5.337
0.192,0.049,0.262,-5.337
0.190,0.049,0.267,-5.337
0.213,0.047,0.268,-5.337
0.200,0.050,0.265,-5.337
0.181,0.052,0.262,-5.337
0.140,0.053,0.263,-5.337
0.166,0.049,0.262,-5.337
0.179,0.044,0.265,-5.337
0.168,0.043,0.267,-5.337
0.209,0.046,0.263,-5.337
0.260,0.046,0.263,-5.337
0.260,0.044,0.266,-5.337
0.230,0.042,0.266,-5.337
0.209,0.043,0.265,-5.337
0.203,0.049,0.264,-5.337
0.152,0.052,0.265,-5.337
0.161,0.049,0.267,-5.337
0.172,0.047,0.267,-5.337
0.199,0.046,0.266,-5.337
0.240,0.044,0.264,-5.337
0.262,0.047,0.266,-5.337
0.325,0.046,0.266,-5.337
0.333,0.042,0.267,-5.337
0.342,0.040,0.264,-5.337
0.305,0.045,0.262,-5.337
0.237,0.048,0.267,-5.337
0.211,0.049,0.267,-5.337
0.207,0.045,0.264,-5.337
0.279,0.046,0.262,-5.337
0.273,0.043,0.264,-5.337
0.216,0.045,0.266,-5.337
0.230,0.043,0.267,-5.337
0.232,0.044,0.267,-5.337
0.209,0.043,0.263,-5.337
0.232,0.042,0.260,-5.337
0.186,0.045,0.260,-5.337
0.065,0.044,0.265,-5.337
0.096,0.043,0.268,-5.337
0.151,0.045,0.272,-5.337
0.196,0.044,0.272,-5.337
0.144,0.042,0.267,-5.337
0.152,0.042,0.267,-5.337
0.197,0.046,0.265,-5.337
0.188,0.044,0.263,-5.337
0.131,0.044,0.265,-5.337
0.125,0.047,0.268,-5.337
0.201,0.046,0.267,-5.337
0.227,0.049,0.264,-5.337
0.151,0.047,0.262,-5.337
0.068,0.047,0.264,-5.337
0.119,0.049,0.269,-5.337
0.150,0.049,0.272,-5.337
0.149,0.050,0.269,-5.337
0.247,0.051,0.267,-5.337
0.263,0.051,0.266,-5.337
0.219,0.054,0.265,-5.337
0.178,0.056,0.262,-5.337
0.255,0.053,0.260,-5.337
0.306,0.049,0.260,-5.337
0.249,0.051,0.259,-5.337
0.147,0.056,0.262,-5.337
0.121,0.060,0.272,-5.337
0.074,0.062,0.276,-5.337
0.105,0.060,0.271,-5.337
0.125,0.056,0.265,-5.337
0.157,0.052,0.264,-5.337
0.238,0.052,0.265,-5.337
0.303,0.051,0.266,-5.337
0.238,0.051,0.272,-5.337
0.197,0.053,0.272,-5.337
0.199,0.053,0.269,-5.337
0.228,0.056,0.265,-5.337
0.232,0.057,0.265,-5.337
0.181,0.057,0.267,-5.337
0.155,0.058,0.271,-5.337
0.182,0.057,0.268,-5.337
0.165,0.057,0.261,-5.337
0.124,0.057,0.261,-5.337
0.110,0.056,0.262,-5.337
0.127,0.050,0.264,-5.337
0.147,0.053,0.267,-5.337
0.169,0.054,0.266,-5.337
0.212,0.053,0.265,-5.337
0.214,0.052,0.266,-5.337
0.266,0.051,0.270,-5.337
0.190,0.052,0.268,-5.337
0.129,0.054,0.265,-5.337
0.174,0.052,0.266,-5.337
0.148,0.050,0.265,-5.337
0.223,0.051,0.265,-5.337
0.224,0.054,0.264,-5.337
0.182,0.057,0.269,-5.337
0.212,0.058,0.268,-5.337
0.134,0.059,0.269,-5.337
0.114,0.056,0.269,-5.337
0.116,0.060,0.272,-5.337
0.146,0.058,0.271,-5.337
0.188,0.058,0.270,-5.337
0.198,0.060,0.268,-5.337
0.252,0.060,0.266,-5.337
0.237,0.061,0.266,-5.337
0.146,0.061,0.267,-5.337
0.085,0.059,0.268,-5.337
0.118,0.060,0.271,-5.337
0.178,0.059,0.271,-5.337
0.181,0.062,0.270,-5.337
0.165,0.059,0.266,-5.337
0.184,0.056,0.265,-5.337
0.191,0.058,0.266,-5.337
0.154,0.060,0.267,-5.337
0.150,0.062,0.268,-5.337
0.184,0.059,0.269,-5.337
0.159,0.057,0.268,-5.337
0.154,0.059,0.267,-5.337
0.214,0.059,0.267,-5.337
0.256,0.061,0.264,-5.337
0.246,0.062,0.264,-5.337
0.189,0.059,0.267,-5.337
0.170,0.059,0.269,-5.337
0.198,0.059,0.269,-5.337
0.264,0.057,0.265,-5.337
0.267,0.055,0.258,-5.337
0.170,0.060,0.261,-5.337
0.131,0.057,0.268,-5.337
0.171,0.059,0.271,-5.337
0.129,0.061,0.270,-5.337
0.067,0.060,0.266,-5.337
0.119,0.057,0.262,-5.337
0.213,0.061,0.261,-5.337
0.278,0.060,0.266,-5.337
0.202,0.061,0.268,-5.337
0.149,0.060,0.266,-5.337
0.222,0.059,0.267,-5.337
0.212,0.060,0.264,-5.337
0.172,0.063,0.264,-5.337
0.179,0.064,0.265,-5.337
0.125,0.065,0.267,-5.337
0.079,0.062,0.266,-5.337
0.120,0.061,0.263,-5.337
0.149,0.060,0.266,-5.337
0.133,0.059,0.265,-5.337
0.125,0.062,0.265,-5.337
0.155,0.065,0.264,-5.337
0.202,0.062,0.264,-5.337
0.205,0.057,0.267,-5.337
0.222,0.054,0.267,-5.337
0.198,0.056,0.264,-5.337
0.208,0.060,0.264,-5.337
0.167,0.059,0.265,-5.337
0.116,0.059,0.266,-5.337
0.131,0.058,0.265,-5.337
0.175,0.058,0.264,-5.337
0.208,0.055,0.264,-5.337
0.193,0.056,0.268,-5.337
0.215,0.054,0.269,-5.337
0.185,0.054,0.267,-5.337
0.153,0.058,0.266,-5.337
0.184,0.060,0.264,-5.337
0.144,0.064,0.263,-5.337
0.117,0.065,0.264,-5.337
0.151,0.065,0.264,-5.337
0.202,0.065,0.263,-5.337
0.187,0.062,0.265,-5.337
0.162,0.060,0.265,-5.337
0.189,0.061,0.266,-5.337
0.261,0.064,0.263,-5.337
0.305,0.063,0.263,-5.337
0.342,0.057,0.263,-5.337
0.285,0.057,0.266,-5.337
0.170,0.061,0.267,-5.337
0.138,0.063,0.269,-5.337
0.135,0.060,0.268,-5.337
0.120,0.058,0.265,-5.337
0.127,0.055,0.265,-5.337
0.205,0.054,0.266,-5.337
0.171,0.057,0.266,-5.337
0.167,0.056,0.263,-5.337
0.187,0.055,0.265,-5.337
0.193,0.054,0.267,-5.337
0.143,0.056,0.267,-5.337
0.086,0.056,0.266,-5.337
0.127,0.053,0.262,-5.337
0.271,0.054,0.261,-5.337
0.349,0.056,0.265,-5.337
0.341,0.055,0.265,-5.337
0.282,0.056,0.264,-5.337
0.214,0.056,0.264,-5.337
0.190,0.056,0.268,-5.337
0.163,0.061,0.269,-5.337
0.113,0.061,0.268,-5.337
0.120,0.060,0.265,-5.337
0.097,0.063,0.263,-5.337
0.111,0.069,0.264,-5.337
0.229,0.065,0.268,-5.337
0.199,0.066,0.268,-5.337
0.073,0.068,0.262,-5.337
0.104,0.065,0.261,-5.337
0.195,0.061,0.265,-5.337
0.211,0.057,0.267,-5.337
0.198,0.058,0.266,-5.337
0.087,0.059,0.264,-5.337
0.157,0.060,0.267,-5.337
0.312,0.059,0.269,-5.337
0.281,0.058,0.268,-5.337
0.177,0.057,0.263,-5.337
0.245,0.056,0.257,-5.337
0.303,0.056,0.259,-5.337
0.248,0.058,0.266,-5.337
0.182,0.058,0.269,-5.337
0.196,0.055,0.269,-5.337
0.183,0.055,0.270,-5.337
0.139,0.057,0.268,-5.337
0.133,0.055,0.265,-5.337
0.248,0.052,0.261,-5.337
0.301,0.052,0.263,-5.337
0.228,0.052,0.262,-5.337
0.164,0.054,0.265,-5.337
0.150,0.053,0.268,-5.337
0.222,0.052,0.268,-5.337
0.245,0.051,0.266,-5.337
0.211,0.056,0.263,-5.337
0.186,0.053,0.264,-5.337
0.244,0.050,0.265,-5.337
0.260,0.050,0.265,-5.337
0.193,0.050,0.265,-5.337
0.179,0.047,0.267,-5.337
0.197,0.048,0.269,-5.337
0.152,0.047,0.268,-5.337
0.149,0.050,0.269,-5.337
0.167,0.051,0.269,-5.337
0.202,0.048,0.270,-5.337
0.188,0.052,0.268,-5.337
0.156,0.053,0.266,-5.337
0.166,0.053,0.263,-5.337
0.229,0.049,0.262,-5.337
0.218,0.052,0.263,-5.337
0.103,0.054,0.263,-5.337
0.085,0.050,0.263,-5.337
0.160,0.049,0.263,-5.337
0.181,0.049,0.263,-5.337
0.110,0.050,0.264,-5.337
0.143,0.049,0.267,-5.337
0.166,0.046,0.264,-5.337
0.154,0.046,0.262,-5.337
0.129,0.047,0.263,-5.337
0.150,0.047,0.263,-5.337
0.264,0.045,0.262,-5.337
0.309,0.050,0.265,-5.337
0.253,0.050,0.266,-5.337
0.244,0.047,0.266,-5.337
0.266,0.045,0.264,-5.337
0.273,0.047,0.261,-5.337
0.259,0.044,0.264,-5.337
0.206,0.045,0.267,-5.337
0.219,0.045,0.266,-5.337
0.280,0.042,0.266,-5.337
0.259,0.041,0.269,-5.337
0.175,0.042,0.269,-5.337
0.125,0.045,0.268,-5.337
0.157,0.047,0.263,-5.337
0.230,0.042,0.263,-5.337
0.228,0.039,0.267,-5.337
0.144,0.042,0.265,-5.337
0.161,0.041,0.261,-5.337
0.233,0.044,0.264,-5.337
0.187,0.047,0.267,-5.337
0.146,0.050,0.263,-5.337
0.181,0.048,0.260,-5.337
0.240,0.046,0.261,-5.337
0.253,0.045,0.264,-5.337
0.240,0.043,0.267,-5.337
0.203,0.040,0.270,-5.337
0.232,0.037,0.270,-5.337
0.173,0.040,0.267,-5.337
0.139,0.045,0.265,-5.337
0.188,0.042,0.262,-5.337
0.230,0.040,0.264,-5.337
0.237,0.039,0.265,-5.337
0.237,0.040,0.265,-5.337
0.243,0.040,0.264,-5.337
0.213,0.041,0.262,-5.337
0.156,0.041,0.263,-5.337
0.125,0.040,0.263,-5.337
0.084,0.042,0.268,-5.337
0.116,0.041,0.268,-5.337
0.250,0.036,0.267,-5.337
0.285,0.041,0.266,-5.337
0.211,0.046,0.267,-5.337
0.186,0.045,0.266,-5.337
0.150,0.046,0.264,-5.337
0.217,0.046,0.263,-5.337
0.191,0.043,0.266,-5.337
0.174,0.041,0.268,-5.337
0.235,0.043,0.269,-5.337
0.221,0.047,0.268,-5.337
0.199,0.045,0.266,-5.337
0.206,0.045,0.264,-5.337
0.242,0.043,0.268,-5.337
0.257,0.045,0.271,-5.337
0.304,0.044,0.271,-5.337
0.363,0.040,0.266,-5.337
0.280,0.040,0.261,-5.337
0.242,0.042,0.259,-5.337
0.274,0.044,0.261,-5.337
0.297,0.041,0.265,-5.337
0.246,0.041,0.266,-5.337
0.228,0.039,0.267,-5.337
0.233,0.037,0.262,-5.337
0.213,0.038,0.260,-5.337
0.182,0.042,0.260,-5.337
0.166,0.041,0.264,-5.337
0.145,0.042,0.266,-5.337
0.234,0.041,0.264,-5.337
0.315,0.039,0.261,-5.337
0.299,0.042,0.266,-5.337
0.258,0.042,0.272,-5.337
0.227,0.044,0.278,-5.337
0.217,0.043,0.275,-5.337
0.191,0.042,0.266,-5.337
0.165,0.042,0.262,-5.337
0.137,0.046,0.262,-5.337
0.123,0.043,0.265,-5.337
0.175,0.041,0.268,-5.337
0.154,0.044,0.267,-5.337
0.156,0.042,0.262,-5.337
0.204,0.038,0.258,-5.337
0.230,0.035,0.261,-5.337
0.307,0.038,0.266,-5.337
0.323,0.042,0.269,-5.337
0.305,0.039,0.271,-5.337
0.196,0.039,0.270,-5.337
0.178,0.041,0.266,-5.337
0.190,0.040,0.266,-5.337
0.208,0.038,0.266,-5.337
0.149,0.041,0.266,-5.337
0.129,0.044,0.269,-5.337
0.119,0.043,0.270,-5.337
0.125,0.039,0.271,-5.337
0.144,0.043,0.265,-5.337
0.194,0.046,0.266,-5.337
0.242,0.042,0.272,-5.337
0.306,0.040,0.275,-5.337
0.308,0.036,0.272,-5.337
0.225,0.036,0.269,-5.337
0.244,0.036,0.264,-5.337
0.301,0.039,0.261,-5.337
0.362,0.038,0.261,-5.337
0.407,0.036,0.264,-5.337
0.329,0.038,0.269,-5.337
0.212,0.040,0.273,-5.337
0.203,0.039,0.271,-5.337
0.244,0.039,0.267,-5.337
0.191,0.038,0.265,-5.337
0.177,0.040,0.265,-5.337
0.178,0.041,0.267,-5.337
0.207,0.038,0.271,-5.337
0.217,0.038,0.273,-5.337
0.211,0.042,0.268,-5.337
0.172,0.046,0.267,-5.337
0.169,0.042,0.270,-5.337
0.167,0.039,0.271,-5.337
0.173,0.040,0.269,-5.337
0.187,0.038,0.267,-5.337
0.162,0.042,0.265,-5.337
0.236,0.042,0.265,-5.337
0.294,0.038,0.269,-5.337
0.319,0.038,0.270,-5.337
0.254,0.039,0.267,-5.337
0.305,0.042,0.266,-5.337
0.356,0.041,0.262,-5.337
0.273,0.041,0.262,-5.337
0.125,0.048,0.267,-5.337
0.107,0.046,0.269,-5.337
0.276,0.038,0.269,-5.337
0.286,0.036,0.269,-5.337
0.234,0.036,0.270,-5.337
0.182,0.041,0.271,-5.337
0.124,0.044,0.269,-5.337
0.125,0.044,0.268,-5.337
0.169,0.041,0.269,-5.337
0.180,0.041,0.269,-5.337
0.258,0.039,0.267,-5.337
0.293,0.037,0.267,-5.337
0.323,0.037,0.269,-5.337
0.229,0.038,0.266,-5.337
0.112,0.041,0.266,-5.337
0.193,0.039,0.267,-5.337
0.263,0.039,0.270,-5.337
0.251,0.040,0.269,-5.337
0.155,0.046,0.269,-5.337
0.102,0.042,0.271,-5.337
0.145,0.040,0.267,-5.337
0.242,0.039,0.263,-5.337
0.327,0.040,0.266,-5.337
0.316,0.037,0.267,-5.337
0.316,0.036,0.269,-5.337
0.255,0.039,0.267,-5.337
0.219,0.038,0.269,-5.337
0.294,0.036,0.267,-5.337
0.331,0.038,0.262,-5.337
0.258,0.037,0.266,-5.337
0.251,0.036,0.272,-5.337
0.213,0.037,0.273,-5.337
0.182,0.034,0.267,-5.337
0.191,0.036,0.263,-5.337
0.166,0.037,0.264,-5.337
0.096,0.037,0.268,-5.337
0.108,0.035,0.268,-5.337
0.197,0.035,0.266,-5.337
0.253,0.036,0.268,-5.337
0.271,0.036,0.273,-5.337
0.231,0.035,0.270,-5.337
0.263,0.036,0.267,-5.337
0.302,0.037,0.266,-5.337
0.323,0.039,0.267,-5.337
0.291,0.037,0.266,-5.337
0.180,0.040,0.263,-5.337
0.123,0.039,0.260,-5.337
0.155,0.039,0.263,-5.337
0.206,0.043,0.267,-5.337
0.237,0.045,0.267,-5.337
0.252,0.044,0.266,-5.337
0.226,0.045,0.267,-5.337
0.215,0.045,0.267,-5.337
0.250,0.042,0.263,-5.337
0.318,0.043,0.260,-5.337
0.300,0.045,0.260,-5.337
0.251,0.046,0.263,-5.337
0.183,0.047,0.265,-5.337
0.158,0.049,0.267,-5.337
0.167,0.050,0.267,-5.337
0.216,0.048,0.269,-5.337
0.216,0.046,0.267,-5.337
0.228,0.046,0.263,-5.337
0.154,0.044,0.260,-5.337
0.192,0.044,0.261,-5.337
0.204,0.044,0.264,-5.337
0.197,0.040,0.266,-5.337
0.205,0.038,0.266,-5.337
0.171,0.040,0.266,-5.337
0.139,0.041,0.270,-5.337
0.178,0.040,0.273,-5.337
0.163,0.041,0.273,-5.337
0.145,0.044,0.272,-5.337
0.230,0.040,0.268,-5.337
0.249,0.040,0.266,-5.337
0.214,0.041,0.267,-5.337
0.234,0.042,0.266,-5.337
0.216,0.042,0.264,-5.337
0.182,0.042,0.265,-5.337
0.186,0.045,0.271,-5.337
0.162,0.042,0.274,-5.337
0.283,0.036,0.273,-5.337
0.323,0.035,0.270,-5.337
0.300,0.037,0.267,-5.337
0.293,0.041,0.266,-5.337
0.323,0.040,0.267,-5.337
0.305,0.037,0.265,-5.337
0.290,0.039,0.262,-5.337
0.231,0.041,0.261,-5.337
0.233,0.042,0.263,-5.337
0.274,0.037,0.262,-5.337
0.272,0.039,0.266,-5.337
0.196,0.039,0.268,-5.337
0.181,0.038,0.267,-5.337
0.223,0.037,0.267,-5.337
0.221,0.036,0.271,-5.337
0.182,0.039,0.271,-5.337
0.201,0.042,0.269,-5.337
0.214,0.045,0.266,-5.337
0.242,0.044,0.265,-5.337
0.230,0.044,0.266,-5.337
0.269,0.042,0.267,-5.337
0.229,0.041,0.267,-5.337
0.122,0.046,0.269,-5.337
0.129,0.047,0.267,-5.337
0.156,0.048,0.264,-5.337
0.226,0.046,0.265,-5.337
0.238,0.043,0.267,-5.337
0.181,0.044,0.270,-5.337
0.182,0.045,0.269,-5.337
0.230,0.046,0.271,-5.337
0.267,0.045,0.269,-5.337
0.272,0.044,0.268,-5.337
0.224,0.046,0.267,-5.337
0.154,0.047,0.266,-5.337
0.189,0.045,0.266,-5.337
0.245,0.047,0.269,-5.337
0.243,0.043,0.272,-5.337
0.206,0.041,0.274,-5.337
0.191,0.043,0.271,-5.337
0.170,0.052,0.269,-5.337
0.223,0.047,0.271,-5.337
0.242,0.045,0.268,-5.337
0.168,0.051,0.263,-5.337
0.121,0.053,0.264,-5.337
0.189,0.052,0.268,-5.337
0.244,0.048,0.272,-5.337
0.245,0.049,0.274,-5.337
0.236,0.049,0.270,-5.337
0.179,0.052,0.266,-5.337
0.160,0.053,0.264,-5.337
0.229,0.050,0.264,-5.337
0.271,0.044,0.263,-5.337
0.285,0.045,0.264,-5.337
0.202,0.050,0.265,-5.337
0.127,0.049,0.267,-5.337
0.107,0.045,0.266,-5.337
0.209,0.045,0.266,-5.337
0.228,0.046,0.263,-5.337
0.192,0.048,0.263,-5.337
0.163,0.049,0.265,-5.337
0.157,0.048,0.268,-5.337
0.207,0.049,0.272,-5.337
0.258,0.050,0.271,-5.337
0.318,0.051,0.270,-5.337
0.275,0.049,0.269,-5.337
0.226,0.049,0.269,-5.337
0.254,0.051,0.268,-5.337
0.215,0.052,0.263,-5.337
0.187,0.052,0.263,-5.337
0.176,0.050,0.264,-5.337
0.222,0.051,0.266,-5.337
0.294,0.049,0.271,-5.337
0.299,0.049,0.270,-5.337
0.299,0.050,0.268,-5.337
0.212,0.050,0.264,-5.337
0.151,0.050,0.266,-5.337
0.191,0.050,0.271,-5.337
0.279,0.048,0.272,-5.337
0.330,0.047,0.270,-5.337
0.296,0.050,0.268,-5.337
0.298,0.049,0.266,-5.337
0.314,0.047,0.264,-5.337
0.255,0.045,0.265,-5.337
0.185,0.046,0.270,-5.337
0.173,0.050,0.271,-5.337
0.209,0.054,0.269,-5.337
0.198,0.055,0.265,-5.337
0.150,0.056,0.265,-5.337
0.160,0.055,0.264,-5.337
0.131,0.055,0.267,-5.337
0.143,0.052,0.272,-5.337
0.186,0.050,0.272,-5.337
0.200,0.047,0.270,-5.337
0.243,0.046,0.271,-5.337
0.201,0.053,0.273,-5.337
0.100,0.057,0.273,-5.337
0.089,0.055,0.270,-5.337
0.084,0.051,0.266,-5.337
0.078,0.048,0.265,-5.337
0.038,0.052,0.264,-5.337
0.074,0.057,0.266,-5.337
0.116,0.058,0.266,-5.337
0.144,0.057,0.267,-5.337
0.173,0.053,0.267,-5.337
0.229,0.049,0.268,-5.337
0.240,0.048,0.270,-5.337
0.149,0.053,0.270,-5.337
0.039,0.054,0.273,-5.337
0.115,0.052,0.276,-5.337
0.217,0.051,0.274,-5.337
0.237,0.053,0.270,-5.337
0.277,0.053,0.264,-5.337
0.288,0.054,0.262,-5.337
0.294,0.057,0.267,-5.337
0.221,0.058,0.269,-5.337
0.231,0.055,0.270,-5.337
0.267,0.053,0.271,-5.337
0.253,0.054,0.269,-5.337
0.180,0.056,0.268,-5.337
0.212,0.054,0.270,-5.337
0.294,0.051,0.268,-5.337
0.218,0.054,0.267,-5.337
0.183,0.056,0.267,-5.337
0.204,0.054,0.266,-5.337
0.174,0.056,0.267,-5.337
0.170,0.055,0.270,-5.337
0.179,0.054,0.270,-5.337
0.194,0.057,0.273,-5.337
0.196,0.057,0.273,-5.337
0.265,0.056,0.271,-5.337
0.235,0.052,0.273,-5.337
0.211,0.052,0.274,-5.337
0.259,0.052,0.272,-5.337
0.253,0.052,0.269,-5.337
0.214,0.051,0.267,-5.337
0.200,0.052,0.271,-5.337
0.197,0.054,0.274,-5.337
0.130,0.056,0.275,-5.337
0.120,0.056,0.273,-5.337
0.065,0.060,0.270,-5.337
0.073,0.057,0.266,-5.337
0.101,0.059,0.264,-5.337
0.120,0.058,0.267,-5.337
0.221,0.054,0.267,-5.337
0.238,0.054,0.267,-5.337
0.235,0.056,0.265,-5.337
0.260,0.055,0.266,-5.337
0.268,0.057,0.271,-5.337
0.246,0.056,0.274,-5.337
0.224,0.055,0.274,-5.337
0.110,0.054,0.277,-5.337
0.122,0.055,0.274,-5.337
0.256,0.054,0.273,-5.337
0.323,0.054,0.272,-5.337
0.234,0.054,0.270,-5.337
0.145,0.057,0.266,-5.337
0.075,0.057,0.269,-5.337
0.035,0.059,0.275,-5.337
0.126,0.059,0.275,-5.337
0.195,0.055,0.271,-5.337
0.139,0.053,0.271,-5.337
0.027,0.054,0.268,-5.337
0.068,0.057,0.268,-5.337
0.113,0.058,0.267,-5.337
0.137,0.057,0.268,-5.337
0.156,0.057,0.270,-5.337
0.197,0.054,0.271,-5.337
0.212,0.056,0.273,-5.337
0.196,0.055,0.276,-5.337
0.242,0.054,0.274,-5.337
0.282,0.056,0.269,-5.337
0.257,0.056,0.268,-5.337
0.177,0.057,0.270,-5.337
0.120,0.058,0.274,-5.337
0.163,0.061,0.273,-5.337
0.200,0.059,0.277,-5.337
0.247,0.055,0.278,-5.337
0.225,0.058,0.277,-5.337
0.206,0.060,0.272,-5.337
0.189,0.064,0.271,-5.337
0.150,0.059,0.273,-5.337
0.122,0.059,0.273,-5.337
0.066,0.057,0.271,-5.337
0.114,0.056,0.270,-5.337
0.192,0.058,0.269,-5.337
0.162,0.061,0.270,-5.337
0.171,0.060,0.272,-5.337
0.110,0.060,0.271,-5.337
0.240,0.057,0.267,-5.337
0.330,0.062,0.269,-5.337
0.167,0.062,0.274,-5.337
0.077,0.062,0.276,-5.337
0.119,0.061,0.276,-5.337
0.117,0.062,0.273,-5.337
0.132,0.060,0.271,-5.337
0.122,0.058,0.271,-5.337
0.192,0.058,0.275,-5.337
0.225,0.058,0.272,-5.337
0.202,0.059,0.270,-5.337
0.240,0.060,0.268,-5.337
0.255,0.061,0.270,-5.337
0.210,0.062,0.273,-5.337
0.256,0.057,0.277,-5.337
0.307,0.058,0.276,-5.337
0.255,0.061,0.271,-5.337
0.213,0.060,0.267,-5.337
0.243,0.059,0.268,-5.337
0.274,0.064,0.270,-5.337
0.167,0.068,0.273,-5.337
0.069,0.066,0.272,-5.337
0.111,0.065,0.271,-5.337
0.160,0.064,0.272,-5.337
0.095,0.066,0.273,-5.337
0.102,0.064,0.271,-5.337
0.130,0.065,0.270,-5.337
0.122,0.067,0.273,-5.337
0.143,0.067,0.272,-5.337
0.180,0.065,0.270,-5.337
0.195,0.068,0.270,-5.337
0.195,0.067,0.271,-5.337
0.152,0.070,0.272,-5.337
0.178,0.069,0.273,-5.337
0.201,0.067,0.271,-5.337
0.239,0.065,0.271,-5.337
0.261,0.064,0.269,-5.337
0.211,0.065,0.268,-5.337
0.104,0.068,0.269,-5.337
0.129,0.069,0.269,-5.337
0.173,0.065,0.270,-5.337
0.222,0.066,0.273,-5.337
0.247,0.064,0.274,-5.337
0.239,0.065,0.272,-5.337
0.239,0.063,0.270,-5.337
0.213,0.061,0.267,-5.337
0.239,0.060,0.265,-5.337
0.251,0.063,0.265,-5.337
0.209,0.061,0.267,-5.337
0.170,0.062,0.269,-5.337
0.169,0.058,0.275,-5.337
0.197,0.057,0.277,-5.337
0.210,0.060,0.272,-5.337
0.202,0.064,0.265,-5.337
0.229,0.063,0.265,-5.337
0.223,0.061,0.266,-5.337
0.234,0.064,0.268,-5.337
0.236,0.061,0.264,-5.337
0.163,0.064,0.265,-5.337
0.084,0.067,0.272,-5.337
0.153,0.067,0.278,-5.337
0.220,0.064,0.278,-5.337
0.261,0.065,0.277,-5.337
0.186,0.067,0.273,-5.337
0.134,0.067,0.265,-5.337
0.201,0.061,0.262,-5.337
0.200,0.061,0.264,-5.337
0.194,0.061,0.268,-5.337
0.184,0.061,0.272,-5.337
0.177,0.064,0.272,-5.337
0.222,0.064,0.271,-5.337
0.267,0.062,0.269,-5.337
0.242,0.061,0.269,-5.337
0.200,0.065,0.273,-5.337
0.166,0.067,0.276,-5.337
0.212,0.064,0.276,-5.337
0.231,0.060,0.271,-5.337
0.178,0.062,0.271,-5.337
0.174,0.064,0.274,-5.337
0.250,0.060,0.277,-5.337
0.251,0.061,0.272,-5.337
0.192,0.061,0.265,-5.337
0.139,0.064,0.263,-5.337
0.106,0.064,0.268,-5.337
0.157,0.063,0.271,-5.337
0.200,0.062,0.272,-5.337
0.185,0.064,0.268,-5.337
0.155,0.062,0.268,-5.337
0.224,0.060,0.269,-5.337
0.273,0.061,0.270,-5.337
0.260,0.062,0.271,-5.337
0.201,0.063,0.269,-5.337
0.117,0.063,0.267,-5.337
0.150,0.057,0.269,-5.337
0.232,0.052,0.271,-5.337
0.223,0.054,0.273,-5.337
0.195,0.052,0.273,-5.337
0.258,0.050,0.272,-5.337
0.255,0.049,0.269,-5.337
0.217,0.056,0.269,-5.337
0.105,0.060,0.274,-5.337
0.185,0.057,0.276,-5.337
0.234,0.055,0.275,-5.337
0.168,0.054,0.270,-5.337
0.177,0.053,0.267,-5.337
0.200,0.052,0.265,-5.337
0.232,0.052,0.269,-5.337
0.232,0.053,0.272,-5.337
0.156,0.053,0.273,-5.337
0.145,0.052,0.273,-5.337
0.227,0.050,0.270,-5.337
0.244,0.048,0.271,-5.337
0.190,0.049,0.273,-5.337
0.180,0.048,0.271,-5.337
0.241,0.049,0.271,-5.337
0.262,0.042,0.274,-5.337
0.193,0.047,0.276,-5.337
0.170,0.048,0.272,-5.337
0.157,0.049,0.272,-5.337
0.186,0.050,0.275,-5.337
0.234,0.052,0.276,-5.337
0.140,0.053,0.274,-5.337
0.154,0.053,0.271,-5.337
0.205,0.055,0.270,-5.337
0.152,0.055,0.268,-5.337
0.167,0.054,0.268,-5.337
0.253,0.055,0.269,-5.337
0.217,0.058,0.270,-5.337
0.191,0.057,0.271,-5.337
0.253,0.057,0.270,-5.337
0.283,0.056,0.271,-5.337
0.209,0.055,0.272,-5.337
0.197,0.052,0.271,-5.337
0.241,0.048,0.270,-5.337
0.222,0.045,0.269,-5.337
0.159,0.051,0.269,-5.337
0.108,0.054,0.269,-5.337
0.209,0.050,0.266,-5.337
0.227,0.048,0.266,-5.337
0.144,0.049,0.273,-5.337
0.110,0.051,0.277,-5.337
0.038,0.052,0.273,-5.337
0.114,0.047,0.269,-5.337
0.260,0.044,0.269,-5.337
0.226,0.050,0.275,-5.337
0.153,0.049,0.278,-5.337
0.156,0.043,0.273,-5.337
0.186,0.044,0.269,-5.337
0.272,0.043,0.271,-5.337
0.282,0.047,0.272,-5.337
0.248,0.047,0.272,-5.337
0.233,0.046,0.271,-5.337
0.293,0.045,0.272,-5.337
0.311,0.049,0.268,-5.337
0.221,0.050,0.269,-5.337
0.153,0.047,0.269,-5.337
0.217,0.047,0.268,-5.337
0.246,0.043,0.266,-5.337
0.263,0.041,0.265,-5.337
0.249,0.042,0.267,-5.337
0.261,0.045,0.268,-5.337
0.274,0.043,0.268,-5.337
0.235,0.044,0.268,-5.337
0.182,0.046,0.268,-5.337
0.201,0.045,0.271,-5.337
0.248,0.046,0.275,-5.337
0.210,0.049,0.274,-5.337
0.102,0.046,0.273,-5.337
0.063,0.046,0.274,-5.337
0.121,0.046,0.277,-5.337
0.155,0.044,0.275,-5.337
0.180,0.042,0.268,-5.337
0.252,0.041,0.264,-5.337
0.238,0.044,0.267,-5.337
0.165,0.046,0.270,-5.337
0.164,0.047,0.276,-5.337
0.167,0.046,0.275,-5.337
0.177,0.044,0.270,-5.337
0.225,0.041,0.265,-5.337
0.232,0.043,0.266,-5.337
0.152,0.044,0.271,-5.337
0.173,0.044,0.273,-5.337
0.177,0.042,0.269,-5.337
0.159,0.041,0.266,-5.337
0.182,0.042,0.268,-5.337
0.219,0.043,0.271,-5.337
0.171,0.043,0.271,-5.337
0.179,0.043,0.269,-5.337
0.288,0.039,0.267,-5.337
0.299,0.042,0.271,-5.337
0.277,0.040,0.275,-5.337
0.273,0.039,0.272,-5.337
0.214,0.042,0.273,-5.337
0.179,0.041,0.276,-5.337
0.149,0.044,0.275,-5.337
0.176,0.044,0.273,-5.337
0.203,0.043,0.270,-5.337
0.208,0.046,0.268,-5.337
0.250,0.045,0.266,-5.337
0.255,0.044,0.264,-5.337
0.176,0.045,0.269,-5.337
0.196,0.043,0.271,-5.337
0.261,0.043,0.271,-5.337
0.249,0.044,0.269,-5.337
0.159,0.043,0.271,-5.337
0.170,0.040,0.270,-5.337
0.177,0.042,0.269,-5.337
0.158,0.042,0.268,-5.337
0.160,0.041,0.268,-5.337
0.160,0.039,0.269,-5.337
0.192,0.038,0.273,-5.337
0.232,0.038,0.275,-5.337
0.275,0.041,0.274,-5.337
0.308,0.041,0.273,-5.337
0.344,0.043,0.274,-5.337
0.192,0.045,0.276,-5.337
0.136,0.043,0.273,-5.337
0.210,0.042,0.267,-5.337
0.298,0.040,0.267,-5.337
0.294,0.040,0.272,-5.337
0.212,0.040,0.275,-5.337
0.202,0.038,0.272,-5.337
0.200,0.039,0.268,-5.337
0.190,0.042,0.267,-5.337
0.191,0.038,0.267,-5.337
0.181,0.039,0.273,-5.337
0.191,0.043,0.275,-5.337
0.264,0.044,0.278,-5.337
0.305,0.040,0.274,-5.337
0.312,0.036,0.268,-5.337
0.301,0.036,0.267,-5.337
0.229,0.038,0.273,-5.337
0.178,0.038,0.276,-5.337
0.267,0.038,0.276,-5.337
0.350,0.037,0.275,-5.337
0.288,0.042,0.270,-5.337
0.218,0.038,0.268,-5.337
0.233,0.036,0.270,-5.337
0.193,0.039,0.271,-5.337
0.198,0.042,0.273,-5.337
0.193,0.040,0.273,-5.337
0.180,0.039,0.274,-5.337
0.234,0.038,0.275,-5.337
0.231,0.039,0.273,-5.337
0.235,0.037,0.269,-5.337
0.243,0.037,0.268,-5.337
0.225,0.035,0.272,-5.337
0.239,0.034,0.276,-5.337
0.237,0.034,0.276,-5.337
0.255,0.036,0.275,-5.337
0.268,0.036,0.272,-5.337
0.207,0.041,0.267,-5.337
0.144,0.044,0.265,-5.337
0.228,0.044,0.269,-5.337
0.293,0.042,0.274,-5.337
0.253,0.044,0.274,-5.337
0.194,0.044,0.275,-5.337
0.200,0.044,0.273,-5.337
0.185,0.041,0.272,-5.337
0.148,0.043,0.272,-5.337
0.194,0.045,0.273,-5.337
0.299,0.043,0.273,-5.337
0.323,0.042,0.272,-5.337
0.251,0.042,0.271,-5.337
0.204,0.042,0.274,-5.337
0.177,0.043,0.276,-5.337
0.139,0.044,0.271,-5.337
0.151,0.044,0.267,-5.337
0.240,0.044,0.270,-5.337
0.232,0.045,0.274,-5.337
0.139,0.048,0.271,-5.337
0.162,0.045,0.268,-5.337
0.216,0.047,0.267,-5.337
0.146,0.048,0.271,-5.337
0.153,0.046,0.271,-5.337
0.238,0.043,0.273,-5.337
0.302,0.040,0.274,-5.337
0.306,0.042,0.276,-5.337
0.344,0.043,0.275,-5.337
0.277,0.048,0.271,-5.337
0.235,0.046,0.269,-5.337
0.245,0.047,0.272,-5.337
0.277,0.045,0.274,-5.337
0.317,0.045,0.273,-5.337
0.249,0.045,0.269,-5.337
0.148,0.047,0.270,-5.337
0.211,0.046,0.272,-5.337
0.242,0.047,0.272,-5.337
0.224,0.047,0.272,-5.337
0.290,0.044,0.271,-5.337
0.260,0.046,0.271,-5.337
0.230,0.042,0.267,-5.337
0.194,0.042,0.265,-5.337
0.157,0.039,0.267,-5.337
0.205,0.039,0.272,-5.337
0.263,0.042,0.275,-5.337
0.186,0.046,0.276,-5.337
0.171,0.043,0.271,-5.337
0.220,0.037,0.266,-5.337
0.277,0.036,0.265,-5.337
0.309,0.036,0.268,-5.337
0.237,0.031,0.269,-5.337
0.145,0.032,0.270,-5.337
0.126,0.034,0.268,-5.337
0.176,0.035,0.271,-5.337
0.123,0.036,0.274,-5.337
0.115,0.036,0.272,-5.337
0.184,0.035,0.270,-5.337
0.219,0.037,0.271,-5.337
0.166,0.036,0.272,-5.337
0.242,0.032,0.268,-5.337
0.285,0.031,0.265,-5.337
0.211,0.036,0.267,-5.337
0.203,0.036,0.269,-5.337
0.274,0.036,0.269,-5.337
0.264,0.036,0.268,-5.337
0.183,0.035,0.266,-5.337
0.177,0.037,0.268,-5.337
0.166,0.037,0.273,-5.337
0.166,0.035,0.274,-5.337
0.297,0.032,0.269,-5.337
0.369,0.033,0.267,-5.337
0.365,0.036,0.265,-5.337
0.299,0.037,0.269,-5.337
0.216,0.036,0.267,-5.337
0.192,0.039,0.264,-5.337
0.173,0.045,0.265,-5.337
0.170,0.046,0.269,-5.337
0.183,0.042,0.271,-5.337
0.109,0.043,0.269,-5.337
0.113,0.038,0.265,-5.337
0.166,0.039,0.262,-5.337
0.190,0.043,0.265,-5.337
0.187,0.047,0.267,-5.337
0.136,0.043,0.267,-5.337
0.204,0.042,0.268,-5.337
0.215,0.043,0.269,-5.337
0.188,0.044,0.271,-5.337
0.252,0.046,0.270,-5.337
0.258,0.046,0.268,-5.337
0.260,0.046,0.269,-5.337
0.278,0.047,0.270,-5.337
0.248,0.042,0.271,-5.337
0.221,0.042,0.270,-5.337
0.199,0.045,0.269,-5.337
0.195,0.048,0.268,-5.337
0.263,0.048,0.271,-5.337
0.219,0.048,0.272,-5.337
0.161,0.049,0.269,-5.337
0.205,0.050,0.267,-5.337
0.276,0.049,0.272,-5.337
0.232,0.046,0.276,-5.337
0.198,0.046,0.271,-5.337
0.199,0.049,0.269,-5.337
0.212,0.050,0.270,-5.337
0.182,0.049,0.269,-5.337
0.176,0.049,0.272,-5.337
0.129,0.050,0.272,-5.337
0.088,0.050,0.273,-5.337
0.102,0.050,0.271,-5.337
0.181,0.053,0.268,-5.337
0.246,0.052,0.269,-5.337
0.223,0.054,0.272,-5.337
0.184,0.054,0.274,-5.337
0.167,0.054,0.273,-5.337
0.119,0.056,0.272,-5.337
0.078,0.053,0.270,-5.337
0.081,0.049,0.270,-5.337
0.156,0.050,0.269,-5.337
0.218,0.050,0.269,-5.337
0.222,0.050,0.266,-5.337
0.262,0.044,0.268,-5.337
0.230,0.045,0.269,-5.337
0.230,0.043,0.271,-5.337
0.264,0.041,0.275,-5.337
0.226,0.041,0.274,-5.337
0.206,0.040,0.267,-5.337
0.313,0.042,0.265,-5.337
0.367,0.043,0.266,-5.337
0.309,0.042,0.266,-5.337
0.260,0.042,0.266,-5.337
0.173,0.048,0.273,-5.337
0.169,0.048,0.274,-5.337
0.193,0.049,0.272,-5.337
0.244,0.049,0.270,-5.337
0.326,0.050,0.271,-5.337
0.280,0.054,0.273,-5.337
0.150,0.057,0.271,-5.337
0.113,0.057,0.268,-5.337
0.177,0.054,0.268,-5.337
0.207,0.053,0.268,-5.337
0.126,0.057,0.271,-5.337
0.019,0.055,0.272,-5.337
0.049,0.054,0.268,-5.337
0.132,0.052,0.271,-5.337
0.210,0.049,0.272,-5.337
0.182,0.050,0.273,-5.337
0.171,0.050,0.268,-5.337
0.147,0.053,0.266,-5.337
0.150,0.052,0.268,-5.337
0.158,0.051,0.271,-5.337
0.181,0.046,0.271,-5.337
0.184,0.049,0.272,-5.337
0.214,0.053,0.269,-5.337
0.269,0.053,0.267,-5.337
0.209,0.052,0.268,-5.337
0.189,0.052,0.268,-5.337
0.193,0.053,0.266,-5.337
0.263,0.053,0.267,-5.337
0.255,0.056,0.265,-5.337
0.100,0.057,0.265,-5.337
0.018,0.060,0.266,-5.337
0.139,0.056,0.268,-5.337
0.207,0.057,0.271,-5.337
0.176,0.058,0.273,-5.337
0.162,0.054,0.272,-5.337
0.167,0.051,0.271,-5.337
0.170,0.052,0.268,-5.337
0.175,0.052,0.265,-5.337
0.205,0.054,0.265,-5.337
0.282,0.055,0.264,-5.337
0.316,0.054,0.265,-5.337
0.247,0.058,0.267,-5.337
0.166,0.059,0.269,-5.337
0.124,0.059,0.269,-5.337
0.159,0.056,0.269,-5.337
0.224,0.054,0.270,-5.337
0.212,0.056,0.270,-5.337
0.217,0.055,0.268,-5.337
0.229,0.054,0.269,-5.337
0.236,0.052,0.269,-5.337
0.262,0.049,0.268,-5.337
0.270,0.051,0.266,-5.337
0.250,0.053,0.265,-5.337
0.227,0.056,0.264,-5.337
0.150,0.060,0.263,-5.337
0.146,0.059,0.267,-5.337
0.128,0.059,0.268,-5.337
0.114,0.057,0.268,-5.337
0.151,0.056,0.266,-5.337
0.163,0.059,0.268,-5.337
0.128,0.060,0.267,-5.337
0.167,0.061,0.268,-5.337
0.290,0.058,0.271,-5.337
0.317,0.057,0.270,-5.337
0.231,0.060,0.266,-5.337
0.171,0.060,0.264,-5.337
0.184,0.058,0.265,-5.337
0.171,0.060,0.267,-5.337
0.158,0.059,0.266,-5.337
0.181,0.058,0.264,-5.337
0.198,0.063,0.263,-5.337
0.141,0.064,0.265,-5.337
0.134,0.063,0.270,-5.337
0.150,0.062,0.269,-5.337
0.077,0.062,0.269,-5.337
0.054,0.069,0.269,-5.337
0.152,0.065,0.267,-5.337
0.217,0.064,0.264,-5.337
0.186,0.067,0.266,-5.337
0.181,0.063,0.268,-5.337
0.162,0.065,0.269,-5.337
0.167,0.063,0.267,-5.337
0.223,0.058,0.271,-5.337
0.251,0.058,0.275,-5.337
0.224,0.059,0.273,-5.337
0.100,0.063,0.266,-5.337
0.057,0.065,0.266,-5.337
0.120,0.064,0.266,-5.337
0.137,0.065,0.265,-5.337
0.183,0.062,0.261,-5.337
0.230,0.063,0.265,-5.337
0.269,0.063,0.270,-5.337
0.217,0.067,0.275,-5.337
0.128,0.069,0.271,-5.337
0.131,0.068,0.269,-5.337
0.128,0.064,0.269,-5.337
0.084,0.064,0.270,-5.337
0.052,0.066,0.269,-5.337
0.115,0.063,0.267,-5.337
0.221,0.059,0.266,-5.337
0.197,0.063,0.268,-5.337
0.139,0.066,0.269,-5.337
0.178,0.064,0.268,-5.337
0.210,0.062,0.265,-5.337
0.264,0.061,0.262,-5.337
0.255,0.062,0.262,-5.337
0.253,0.061,0.262,-5.337
0.285,0.062,0.265,-5.337
0.268,0.061,0.267,-5.337
0.220,0.060,0.274,-5.337
0.135,0.060,0.272,-5.337
0.061,0.064,0.269,-5.337
0.127,0.066,0.265,-5.337
0.178,0.067,0.267,-5.337
0.185,0.067,0.270,-5.337
0.218,0.065,0.270,-5.337
0.196,0.065,0.270,-5.337
0.255,0.068,0.273,-5.337
0.254,0.069,0.276,-5.337
0.226,0.068,0.274,-5.337
0.108,0.066,0.269,-5.337
0.072,0.065,0.266,-5.337
0.155,0.066,0.264,-5.337
0.171,0.069,0.265,-5.337
0.145,0.071,0.267,-5.337
0.136,0.068,0.270,-5.337
0.093,0.070,0.269,-5.337
0.124,0.066,0.269,-5.337
0.266,0.061,0.271,-5.337
0.260,0.067,0.270,-5.337
0.236,0.072,0.270,-5.337
0.186,0.073,0.267,-5.337
0.105,0.072,0.265,-5.337
0.129,0.068,0.263,-5.337
0.164,0.068,0.263,-5.337
0.180,0.069,0.263,-5.337
0.099,0.069,0.265,-5.337
0.117,0.067,0.268,-5.337
0.264,0.064,0.270,-5.337
0.365,0.065,0.269,-5.337
0.285,0.069,0.271,-5.337
0.264,0.067,0.272,-5.337
0.234,0.068,0.272,-5.337
0.165,0.072,0.271,-5.337
0.200,0.074,0.270,-5.337
0.210,0.073,0.269,-5.337
0.185,0.076,0.267,-5.337
0.250,0.076,0.267,-5.337
0.298,0.072,0.269,-5.337
0.233,0.072,0.268,-5.337
0.215,0.073,0.267,-5.337
0.222,0.068,0.267,-5.337
0.237,0.066,0.269,-5.337
0.200,0.067,0.270,-5.337
0.157,0.068,0.270,-5.337
0.128,0.066,0.274,-5.337
0.146,0.063,0.275,-5.337
0.154,0.066,0.271,-5.337
0.173,0.063,0.263,-5.337
0.190,0.064,0.266,-5.337
0.242,0.067,0.274,-5.337
0.211,0.070,0.274,-5.337
0.186,0.069,0.271,-5.337
0.200,0.066,0.266,-5.337
0.138,0.065,0.262,-5.337
0.198,0.066,0.263,-5.337
0.280,0.064,0.270,-5.337
0.210,0.067,0.273,-5.337
0.158,0.068,0.268,-5.337
0.199,0.068,0.268,-5.337
0.255,0.066,0.270,-5.337
0.268,0.068,0.270,-5.337
0.192,0.071,0.268,-5.337
0.158,0.065,0.268,-5.337
0.225,0.059,0.269,-5.337
0.262,0.062,0.270,-5.337
0.195,0.066,0.271,-5.337
0.126,0.067,0.269,-5.337
0.181,0.064,0.268,-5.337
0.120,0.067,0.266,-5.337
0.024,0.071,0.268,-5.337
-0.002,0.070,0.269,-5.337
0.051,0.073,0.269,-5.337
0.121,0.073,0.265,-5.337
0.185,0.073,0.263,-5.337
0.222,0.071,0.264,-5.337
0.174,0.071,0.267,-5.337
0.140,0.069,0.268,-5.337
0.195,0.068,0.271,-5.337
0.249,0.066,0.273,-5.337
0.284,0.065,0.269,-5.337
0.203,0.065,0.265,-5.337
0.151,0.062,0.263,-5.337
0.181,0.061,0.263,-5.337
0.293,0.061,0.264,-5.337
0.287,0.062,0.265,-5.337
0.189,0.061,0.267,-5.337
0.161,0.060,0.267,-5.337
0.235,0.063,0.266,-5.337
0.188,0.064,0.267,-5.337
0.169,0.064,0.269,-5.337
0.191,0.061,0.270,-5.337
0.179,0.060,0.268,-5.337
0.174,0.063,0.267,-5.337
0.187,0.061,0.271,-5.337
0.184,0.060,0.274,-5.337
0.117,0.059,0.269,-5.337
0.071,0.061,0.265,-5.337
0.124,0.061,0.260,-5.337
0.178,0.059,0.262,-5.337
0.223,0.055,0.264,-5.337
0.256,0.057,0.267,-5.337
0.258,0.057,0.271,-5.337
0.225,0.056,0.270,-5.337
0.205,0.056,0.268,-5.337
0.277,0.054,0.267,-5.337
0.262,0.053,0.266,-5.337
0.198,0.054,0.267,-5.337
0.198,0.052,0.265,-5.337
0.225,0.053,0.263,-5.337
0.202,0.054,0.263,-5.337
0.218,0.054,0.267,-5.337
0.194,0.058,0.269,-5.337
0.179,0.057,0.266,-5.337
0.147,0.059,0.266,-5.337
0.216,0.057,0.270,-5.337
0.305,0.053,0.272,-5.337
0.209,0.054,0.266,-5.337
0.200,0.051,0.268,-5.337
0.211,0.054,0.268,-5.337
0.170,0.051,0.266,-5.337
0.224,0.047,0.265,-5.337
0.313,0.051,0.267,-5.337
0.296,0.051,0.266,-5.337
0.184,0.053,0.266,-5.337
0.137,0.051,0.267,-5.337
0.195,0.049,0.269,-5.337
0.184,0.051,0.269,-5.337
0.163,0.054,0.268,-5.337
0.114,0.057,0.266,-5.337
0.051,0.053,0.263,-5.337
0.083,0.046,0.262,-5.337
0.214,0.042,0.266,-5.337
0.185,0.045,0.273,-5.337
0.154,0.052,0.275,-5.337
0.130,0.047,0.271,-5.337
0.115,0.044,0.267,-5.337
0.153,0.047,0.264,-5.337
0.256,0.047,0.263,-5.337
0.278,0.049,0.267,-5.337
0.236,0.049,0.268,-5.337
0.243,0.050,0.269,-5.337
0.279,0.051,0.267,-5.337
0.358,0.048,0.265,-5.337
0.310,0.051,0.266,-5.337
0.237,0.051,0.267,-5.337
0.296,0.052,0.263,-5.337
0.241,0.058,0.263,-5.337
0.173,0.058,0.267,-5.337
0.161,0.056,0.269,-5.337
0.186,0.053,0.272,-5.337
0.187,0.057,0.272,-5.337
0.150,0.054,0.271,-5.337
0.179,0.052,0.269,-5.337
0.222,0.048,0.267,-5.337
0.271,0.047,0.266,-5.337
0.245,0.048,0.267,-5.337
0.279,0.049,0.267,-5.337
0.299,0.048,0.267,-5.337
0.267,0.050,0.271,-5.337
0.230,0.052,0.271,-5.337
0.261,0.049,0.274,-5.337
0.242,0.049,0.275,-5.337
0.181,0.053,0.269,-5.337
0.144,0.054,0.262,-5.337
0.153,0.056,0.260,-5.337
0.174,0.054,0.264,-5.337
0.166,0.055,0.266,-5.337
0.177,0.055,0.267,-5.337
0.243,0.052,0.267,-5.337
0.254,0.054,0.270,-5.337
0.240,0.054,0.271,-5.337
0.236,0.054,0.271,-5.337
0.201,0.055,0.272,-5.337
0.182,0.052,0.270,-5.337
0.249,0.048,0.266,-5.337
0.233,0.048,0.263,-5.337
0.177,0.049,0.261,-5.337
0.205,0.046,0.263,-5.337
0.235,0.046,0.266,-5.337
0.221,0.044,0.268,-5.337
0.163,0.044,0.272,-5.337
0.167,0.045,0.274,-5.337
0.214,0.045,0.271,-5.337
0.200,0.047,0.267,-5.337
0.176,0.045,0.265,-5.337
0.248,0.045,0.263,-5.337
0.298,0.046,0.262,-5.337
0.303,0.045,0.262,-5.337
0.259,0.049,0.266,-5.337
0.154,0.052,0.270,-5.337
0.115,0.048,0.273,-5.337
0.242,0.047,0.270,-5.337
0.284,0.044,0.268,-5.337
0.295,0.041,0.264,-5.337
0.285,0.043,0.264,-5.337
0.258,0.044,0.264,-5.337
0.246,0.048,0.265,-5.337
0.278,0.045,0.266,-5.337
0.251,0.043,0.265,-5.337
0.253,0.044,0.264,-5.337
0.263,0.047,0.264,-5.337
0.227,0.047,0.266,-5.337
0.205,0.046,0.268,-5.337
0.123,0.049,0.270,-5.337
0.084,0.050,0.271,-5.337
0.132,0.049,0.268,-5.337
0.183,0.048,0.266,-5.337
0.168,0.047,0.264,-5.337
0.166,0.044,0.260,-5.337
0.209,0.042,0.261,-5.337
0.220,0.045,0.263,-5.337
0.187,0.043,0.267,-5.337
0.218,0.042,0.268,-5.337
0.294,0.041,0.270,-5.337
0.286,0.044,0.267,-5.337
0.217,0.045,0.266,-5.337
0.220,0.047,0.265,-5.337
0.270,0.049,0.267,-5.337
0.244,0.046,0.266,-5.337
0.215,0.042,0.268,-5.337
0.277,0.036,0.268,-5.337
0.352,0.037,0.268,-5.337
0.314,0.041,0.267,-5.337
0.206,0.044,0.267,-5.337
0.149,0.042,0.267,-5.337
0.157,0.045,0.267,-5.337
0.187,0.045,0.264,-5.337
0.188,0.049,0.267,-5.337
0.220,0.043,0.270,-5.337
0.238,0.039,0.269,-5.337
0.247,0.039,0.264,-5.337
0.292,0.041,0.264,-5.337
0.302,0.040,0.267,-5.337
0.221,0.041,0.269,-5.337
0.208,0.039,0.267,-5.337
0.262,0.038,0.267,-5.337
0.260,0.035,0.271,-5.337
0.290,0.037,0.272,-5.337
0.247,0.042,0.268,-5.337
0.220,0.043,0.264,-5.337
0.241,0.039,0.263,-5.337
0.242,0.038,0.266,-5.337
0.174,0.042,0.273,-5.337
0.191,0.042,0.273,-5.337
0.158,0.042,0.269,-5.337
0.218,0.040,0.268,-5.337
0.262,0.041,0.270,-5.337
0.246,0.039,0.268,-5.337
0.259,0.040,0.267,-5.337
0.252,0.039,0.264,-5.337
0.220,0.040,0.264,-5.337
0.194,0.042,0.265,-5.337
0.209,0.046,0.265,-5.337
0.167,0.047,0.267,-5.337
0.120,0.044,0.269,-5.337
0.171,0.040,0.271,-5.337
0.187,0.042,0.271,-5.337
0.187,0.045,0.270,-5.337
0.205,0.047,0.268,-5.337
0.223,0.045,0.269,-5.337
0.163,0.045,0.272,-5.337
0.145,0.043,0.271,-5.337
0.232,0.039,0.265,-5.337
0.320,0.042,0.264,-5.337
0.324,0.043,0.265,-5.337
0.288,0.039,0.269,-5.337
0.262,0.034,0.267,-5.337
0.270,0.038,0.269,-5.337
0.231,0.042,0.271,-5.337
0.184,0.045,0.270,-5.337
0.256,0.042,0.269,-5.337
0.233,0.042,0.267,-5.337
0.137,0.040,0.269,-5.337
0.138,0.042,0.273,-5.337
0.165,0.042,0.271,-5.337
0.241,0.039,0.267,-5.337
0.271,0.038,0.265,-5.337
0.295,0.038,0.268,-5.337
0.275,0.040,0.272,-5.337
0.226,0.041,0.273,-5.337
0.281,0.041,0.272,-5.337
0.354,0.042,0.270,-5.337
0.347,0.044,0.270,-5.337
0.340,0.045,0.267,-5.337
0.312,0.044,0.268,-5.337
0.154,0.047,0.269,-5.337
0.088,0.046,0.270,-5.337
0.241,0.039,0.269,-5.337
0.345,0.036,0.268,-5.337
0.320,0.039,0.265,-5.337
0.263,0.043,0.268,-5.337
0.283,0.042,0.270,-5.337
0.282,0.043,0.271,-5.337
0.257,0.040,0.268,-5.337
0.285,0.040,0.271,-5.337
0.282,0.040,0.276,-5.337
0.239,0.042,0.275,-5.337
0.169,0.042,0.275,-5.337
0.130,0.042,0.271,-5.337
0.104,0.041,0.269,-5.337
0.185,0.038,0.269,-5.337
0.238,0.038,0.269,-5.337
0.203,0.041,0.270,-5.337
0.187,0.040,0.267,-5.337
0.213,0.043,0.265,-5.337
0.195,0.042,0.264,-5.337
0.157,0.039,0.264,-5.337
0.153,0.039,0.268,-5.337
0.187,0.037,0.274,-5.337
0.229,0.039,0.278,-5.337
0.233,0.039,0.271,-5.337
0.261,0.034,0.268,-5.337
0.207,0.036,0.268,-5.337
0.180,0.039,0.271,-5.337
0.214,0.036,0.270,-5.337
0.220,0.032,0.271,-5.337
0.242,0.032,0.267,-5.337
0.254,0.032,0.267,-5.337
0.266,0.031,0.270,-5.337
0.309,0.034,0.275,-5.337
0.329,0.036,0.280,-5.337
0.330,0.038,0.280,-5.337
0.373,0.036,0.278,-5.337
0.318,0.043,0.275,-5.337
0.230,0.045,0.271,-5.337
0.252,0.042,0.266,-5.337
0.276,0.041,0.267,-5.337
0.224,0.043,0.272,-5.337
0.183,0.045,0.273,-5.337
0.146,0.041,0.271,-5.337
0.170,0.040,0.268,-5.337
0.229,0.042,0.268,-5.337
0.157,0.045,0.268,-5.337
0.175,0.045,0.268,-5.337
0.230,0.038,0.268,-5.337
0.223,0.036,0.266,-5.337
0.238,0.038,0.268,-5.337
0.236,0.038,0.271,-5.337
0.216,0.035,0.271,-5.337
0.242,0.036,0.271,-5.337
0.250,0.043,0.270,-5.337
0.205,0.044,0.267,-5.337
0.086,0.048,0.269,-5.337
0.079,0.047,0.267,-5.337
0.201,0.046,0.265,-5.337
0.207,0.046,0.268,-5.337
0.221,0.043,0.274,-5.337
0.251,0.040,0.274,-5.337
0.266,0.042,0.271,-5.337
0.219,0.043,0.271,-5.337
0.285,0.043,0.267,-5.337
0.336,0.046,0.264,-5.337
0.294,0.049,0.266,-5.337
0.313,0.043,0.267,-5.337
0.363,0.044,0.272,-5.337
0.282,0.045,0.274,-5.337
0.180,0.049,0.270,-5.337
0.126,0.047,0.267,-5.337
0.252,0.046,0.264,-5.337
0.310,0.046,0.269,-5.337
0.225,0.045,0.270,-5.337
0.222,0.045,0.267,-5.337
0.242,0.043,0.264,-5.337
0.232,0.046,0.267,-5.337
0.161,0.048,0.268,-5.337
0.153,0.045,0.267,-5.337
0.184,0.044,0.264,-5.337
0.257,0.040,0.267,-5.337
0.326,0.037,0.272,-5.337
0.303,0.042,0.273,-5.337
0.238,0.044,0.272,-5.337
0.201,0.045,0.270,-5.337
0.166,0.045,0.269,-5.337
0.107,0.043,0.272,-5.337
0.142,0.045,0.272,-5.337
0.189,0.047,0.271,-5.337
0.216,0.049,0.267,-5.337
0.217,0.044,0.262,-5.337
0.198,0.042,0.263,-5.337
0.165,0.044,0.265,-5.337
0.158,0.043,0.272,-5.337
0.121,0.043,0.276,-5.337
0.087,0.046,0.274,-5.337
0.079,0.046,0.269,-5.337
0.160,0.043,0.266,-5.337
0.174,0.048,0.265,-5.337
0.128,0.055,0.269,-5.337
0.125,0.052,0.269,-5.337
0.198,0.049,0.267,-5.337
0.225,0.052,0.265,-5.337
0.171,0.058,0.268,-5.337
0.107,0.054,0.271,-5.337
0.120,0.054,0.270,-5.337
0.162,0.052,0.266,-5.337
0.122,0.054,0.263,-5.337
0.120,0.054,0.267,-5.337
0.184,0.051,0.269,-5.337
0.185,0.056,0.268,-5.337
0.185,0.054,0.265,-5.337
0.268,0.049,0.264,-5.337
0.268,0.049,0.269,-5.337
0.288,0.047,0.272,-5.337
0.265,0.050,0.267,-5.337
0.167,0.052,0.266,-5.337
0.188,0.043,0.270,-5.337
0.230,0.043,0.271,-5.337
0.205,0.043,0.268,-5.337
0.223,0.042,0.270,-5.337
0.200,0.042,0.272,-5.337
0.214,0.046,0.271,-5.337
0.153,0.050,0.268,-5.337
0.131,0.049,0.268,-5.337
0.221,0.048,0.268,-5.337
0.266,0.050,0.270,-5.337
0.184,0.053,0.266,-5.337
0.172,0.056,0.268,-5.337
0.177,0.055,0.269,-5.337
0.163,0.056,0.267,-5.337
0.141,0.057,0.269,-5.337
0.241,0.057,0.273,-5.337
0.264,0.054,0.272,-5.337
0.214,0.055,0.267,-5.337
0.166,0.057,0.266,-5.337
0.167,0.054,0.270,-5.337
0.178,0.052,0.267,-5.337
0.142,0.053,0.267,-5.337
0.172,0.054,0.271,-5.337
0.105,0.055,0.270,-5.337
0.055,0.056,0.269,-5.337
0.088,0.053,0.269,-5.337
0.132,0.055,0.269,-5.337
0.160,0.060,0.268,-5.337
0.172,0.060,0.272,-5.337
0.197,0.059,0.271,-5.337
0.204,0.055,0.274,-5.337
0.173,0.053,0.270,-5.337
0.181,0.058,0.270,-5.337
0.195,0.057,0.269,-5.337
0.202,0.059,0.271,-5.337
0.166,0.062,0.271,-5.337
0.097,0.061,0.268,-5.337
0.121,0.060,0.268,-5.337
0.191,0.061,0.269,-5.337
0.210,0.058,0.268,-5.337
0.182,0.055,0.268,-5.337
0.153,0.053,0.268,-5.337
0.175,0.053,0.270,-5.337
0.226,0.054,0.267,-5.337
0.292,0.058,0.265,-5.337
0.266,0.056,0.266,-5.337
0.273,0.054,0.265,-5.337
0.274,0.053,0.266,-5.337
0.206,0.056,0.267,-5.337
0.186,0.054,0.270,-5.337
0.256,0.054,0.271,-5.337
0.281,0.054,0.273,-5.337
0.219,0.058,0.271,-5.337
0.138,0.060,0.271,-5.337
0.087,0.059,0.267,-5.337
0.119,0.060,0.269,-5.337
0.142,0.056,0.268,-5.337
0.195,0.057,0.265,-5.337
0.172,0.057,0.263,-5.337
0.173,0.056,0.263,-5.337
0.128,0.058,0.265,-5.337
0.146,0.059,0.269,-5.337
0.214,0.056,0.269,-5.337
0.240,0.055,0.265,-5.337
0.192,0.055,0.262,-5.337
0.141,0.056,0.265,-5.337
0.201,0.059,0.268,-5.337
0.259,0.059,0.268,-5.337
0.276,0.058,0.268,-5.337
0.276,0.058,0.268,-5.337
0.251,0.056,0.270,-5.337
0.203,0.056,0.267,-5.337
0.245,0.054,0.265,-5.337
0.320,0.055,0.263,-5.337
0.250,0.060,0.265,-5.337
0.199,0.060,0.272,-5.337
0.151,0.059,0.274,-5.337
0.089,0.058,0.268,-5.337
0.214,0.054,0.265,-5.337
0.257,0.052,0.264,-5.337
0.208,0.055,0.265,-5.337
0.221,0.056,0.266,-5.337
0.141,0.057,0.267,-5.337
0.125,0.058,0.271,-5.337
0.133,0.057,0.269,-5.337
0.146,0.057,0.267,-5.337
0.169,0.058,0.264,-5.337
0.173,0.059,0.261,-5.337
0.125,0.060,0.268,-5.337
0.117,0.056,0.276,-5.337
0.161,0.056,0.279,-5.337
0.221,0.054,0.273,-5.337
0.232,0.057,0.268,-5.337
0.185,0.058,0.263,-5.337
0.133,0.061,0.262,-5.337
0.149,0.061,0.262,-5.337
0.154,0.061,0.260,-5.337
0.210,0.060,0.263,-5.337
0.310,0.059,0.268,-5.337
0.304,0.060,0.273,-5.337
0.236,0.060,0.273,-5.337
0.231,0.059,0.272,-5.337
0.242,0.058,0.268,-5.337
0.211,0.063,0.269,-5.337
0.212,0.058,0.268,-5.337
0.166,0.059,0.265,-5.337
0.204,0.057,0.265,-5.337
0.263,0.057,0.269,-5.337
0.184,0.056,0.268,-5.337
0.192,0.053,0.268,-5.337
0.266,0.053,0.268,-5.337
0.291,0.057,0.267,-5.337
0.216,0.059,0.267,-5.337
0.158,0.059,0.270,-5.337
0.218,0.060,0.271,-5.337
0.268,0.061,0.273,-5.337
0.167,0.062,0.270,-5.337
0.104,0.067,0.265,-5.337
0.011,0.066,0.262,-5.337
0.016,0.059,0.267,-5.337
0.135,0.057,0.269,-5.337
0.179,0.061,0.267,-5.337
0.169,0.064,0.268,-5.337
0.219,0.063,0.268,-5.337
0.268,0.062,0.271,-5.337
0.291,0.060,0.271,-5.337
0.221,0.064,0.270,-5.337
0.147,0.062,0.266,-5.337
0.165,0.061,0.267,-5.337
0.200,0.062,0.268,-5.337
0.177,0.065,0.268,-5.337
0.105,0.068,0.267,-5.337
0.111,0.068,0.271,-5.337
0.119,0.062,0.272,-5.337
0.147,0.059,0.271,-5.337
0.159,0.058,0.267,-5.337
0.014,0.068,0.267,-5.337
0.019,0.066,0.265,-5.337
0.131,0.064,0.265,-5.337
0.172,0.063,0.266,-5.337
0.118,0.063,0.262,-5.337
0.142,0.060,0.264,-5.337
0.205,0.058,0.266,-5.337
0.239,0.061,0.269,-5.337
0.231,0.063,0.271,-5.337
0.151,0.064,0.270,-5.337
0.129,0.064,0.266,-5.337
0.217,0.063,0.266,-5.337
0.226,0.065,0.269,-5.337
0.257,0.065,0.270,-5.337
0.265,0.063,0.268,-5.337
0.239,0.064,0.267,-5.337
0.205,0.063,0.269,-5.337
0.139,0.066,0.271,-5.337
0.104,0.067,0.270,-5.337
0.127,0.067,0.268,-5.337
0.149,0.064,0.266,-5.337
0.175,0.066,0.267,-5.337
0.187,0.064,0.269,-5.337
0.180,0.066,0.269,-5.337
0.171,0.065,0.273,-5.337
0.227,0.062,0.275,-5.337
0.249,0.062,0.272,-5.337
0.262,0.062,0.267,-5.337
0.226,0.061,0.266,-5.337
0.223,0.062,0.270,-5.337
0.220,0.062,0.269,-5.337
0.250,0.063,0.268,-5.337
0.262,0.058,0.264,-5.337
0.278,0.061,0.261,-5.337
0.248,0.066,0.265,-5.337
0.171,0.067,0.267,-5.337
0.207,0.064,0.271,-5.337
0.106,0.066,0.267,-5.337
0.101,0.066,0.270,-5.337
0.196,0.061,0.273,-5.337
0.194,0.063,0.276,-5.337
0.142,0.062,0.274,-5.337
0.214,0.059,0.273,-5.337
0.264,0.060,0.274,-5.337
0.246,0.062,0.272,-5.337
0.234,0.063,0.270,-5.337
0.301,0.062,0.271,-5.337
0.254,0.062,0.272,-5.337
0.237,0.061,0.272,-5.337
0.251,0.062,0.270,-5.337
0.201,0.065,0.267,-5.337
0.194,0.063,0.265,-5.337
0.206,0.061,0.267,-5.337
0.219,0.062,0.271,-5.337
0.255,0.060,0.271,-5.337
0.264,0.057,0.272,-5.337
0.227,0.057,0.268,-5.337
0.209,0.058,0.267,-5.337
0.183,0.061,0.267,-5.337
0.153,0.058,0.269,-5.337
0.206,0.055,0.269,-5.337
0.255,0.055,0.270,-5.337
0.228,0.057,0.269,-5.337
0.235,0.057,0.267,-5.337
0.218,0.055,0.266,-5.337
0.131,0.057,0.266,-5.337
0.177,0.057,0.266,-5.337
0.253,0.057,0.269,-5.337
0.213,0.058,0.272,-5.337
0.165,0.062,0.273,-5.337
0.170,0.058,0.271,-5.337
0.158,0.054,0.271,-5.337
0.229,0.054,0.267,-5.337
0.217,0.060,0.264,-5.337
0.158,0.063,0.267,-5.337
0.180,0.060,0.270,-5.337
0.232,0.058,0.270,-5.337
0.238,0.055,0.268,-5.337
0.239,0.055,0.268,-5.337
0.259,0.059,0.272,-5.337
0.247,0.057,0.274,-5.337
0.245,0.057,0.272,-5.337
0.152,0.056,0.270,-5.337
0.088,0.061,0.267,-5.337
0.179,0.060,0.272,-5.337
0.217,0.053,0.274,-5.337
0.204,0.049,0.269,-5.337
0.142,0.052,0.262,-5.337
0.160,0.054,0.263,-5.337
0.204,0.054,0.265,-5.337
0.194,0.055,0.268,-5.337
0.176,0.054,0.265,-5.337
0.203,0.057,0.263,-5.337
0.177,0.056,0.260,-5.337
0.139,0.055,0.260,-5.337
0.097,0.053,0.264,-5.337
0.128,0.053,0.270,-5.337
0.197,0.052,0.273,-5.337
0.239,0.053,0.274,-5.337
0.213,0.055,0.271,-5.337
0.198,0.053,0.267,-5.337
0.233,0.049,0.264,-5.337
0.275,0.051,0.262,-5.337
0.258,0.054,0.263,-5.337
0.255,0.053,0.263,-5.337
0.272,0.054,0.263,-5.337
0.344,0.052,0.268,-5.337
0.302,0.053,0.274,-5.337
0.210,0.057,0.273,-5.337
0.165,0.056,0.270,-5.337
0.282,0.050,0.267,-5.337
0.324,0.049,0.267,-5.337
0.207,0.049,0.267,-5.337
0.180,0.053,0.269,-5.337
0.228,0.050,0.267,-5.337
0.309,0.048,0.268,-5.337
0.371,0.052,0.266,-5.337
0.261,0.056,0.267,-5.337
0.213,0.051,0.267,-5.337
0.189,0.049,0.267,-5.337
0.164,0.050,0.265,-5.337
0.186,0.049,0.262,-5.337
0.225,0.049,0.265,-5.337
0.218,0.053,0.269,-5.337
0.197,0.049,0.268,-5.337
0.172,0.048,0.267,-5.337
0.176,0.046,0.267,-5.337
0.170,0.047,0.268,-5.337
0.193,0.048,0.271,-5.337
0.180,0.045,0.269,-5.337
0.202,0.045,0.270,-5.337
0.281,0.047,0.269,-5.337
0.353,0.049,0.266,-5.337
0.349,0.050,0.264,-5.337
0.325,0.051,0.267,-5.337
0.238,0.050,0.269,-5.337
0.143,0.050,0.273,-5.337
0.192,0.051,0.273,-5.337
0.285,0.050,0.271,-5.337
0.275,0.051,0.270,-5.337
0.200,0.050,0.270,-5.337
0.197,0.046,0.270,-5.337
0.227,0.048,0.272,-5.337
0.197,0.050,0.271,-5.337
0.114,0.052,0.266,-5.337
0.066,0.052,0.263,-5.337
0.123,0.051,0.268,-5.337
0.149,0.049,0.268,-5.337
0.128,0.049,0.264,-5.337
0.168,0.047,0.265,-5.337
0.157,0.046,0.269,-5.337
0.106,0.043,0.271,-5.337
0.116,0.043,0.271,-5.337
0.216,0.043,0.270,-5.337
0.325,0.042,0.271,-5.337
0.330,0.043,0.270,-5.337
0.283,0.044,0.267,-5.337
0.274,0.046,0.268,-5.337
0.245,0.049,0.268,-5.337
0.182,0.047,0.267,-5.337
0.249,0.044,0.268,-5.337
0.262,0.041,0.268,-5.337
0.215,0.042,0.269,-5.337
0.140,0.046,0.267,-5.337
0.109,0.044,0.267,-5.337
0.160,0.039,0.268,-5.337
0.264,0.042,0.271,-5.337
0.241,0.047,0.274,-5.337
0.191,0.048,0.272,-5.337
0.221,0.043,0.271,-5.337
0.212,0.041,0.268,-5.337
0.148,0.044,0.270,-5.337
0.158,0.042,0.269,-5.337
0.246,0.043,0.268,-5.337
0.284,0.045,0.270,-5.337
0.283,0.044,0.273,-5.337
0.261,0.042,0.273,-5.337
0.242,0.042,0.271,-5.337
0.265,0.044,0.270,-5.337
0.296,0.042,0.269,-5.337
0.338,0.038,0.267,-5.337
0.336,0.041,0.266,-5.337
0.234,0.040,0.267,-5.337
0.154,0.042,0.267,-5.337
0.158,0.042,0.270,-5.337
0.245,0.038,0.272,-5.337
0.322,0.041,0.269,-5.337
0.324,0.041,0.265,-5.337
0.236,0.045,0.265,-5.337
0.220,0.044,0.268,-5.337
0.238,0.042,0.271,-5.337
0.245,0.042,0.269,-5.337
0.259,0.042,0.268,-5.337
0.235,0.040,0.269,-5.337
0.254,0.042,0.271,-5.337
0.234,0.042,0.268,-5.337
0.286,0.043,0.265,-5.337
0.287,0.042,0.266,-5.337
0.167,0.043,0.267,-5.337
0.125,0.042,0.266,-5.337
0.133,0.044,0.267,-5.337
0.141,0.045,0.271,-5.337
0.153,0.042,0.274,-5.337
0.166,0.042,0.270,-5.337
0.175,0.041,0.268,-5.337
0.238,0.041,0.267,-5.337
0.232,0.043,0.264,-5.337
0.211,0.046,0.269,-5.337
0.240,0.044,0.272,-5.337
0.195,0.046,0.270,-5.337
0.188,0.043,0.267,-5.337
0.164,0.041,0.269,-5.337
0.102,0.042,0.270,-5.337
0.110,0.042,0.270,-5.337
0.286,0.042,0.266,-5.337
0.422,0.042,0.267,-5.337
0.344,0.040,0.269,-5.337
0.223,0.041,0.268,-5.337
0.229,0.040,0.265,-5.337
0.275,0.042,0.262,-5.337
0.224,0.040,0.264,-5.337
0.138,0.038,0.265,-5.337
0.172,0.036,0.265,-5.337
0.273,0.037,0.265,-5.337
0.242,0.043,0.268,-5.337
0.256,0.044,0.272,-5.337
0.297,0.042,0.278,-5.337
0.276,0.040,0.275,-5.337
0.193,0.039,0.270,-5.337
0.228,0.042,0.268,-5.337
0.202,0.041,0.265,-5.337
0.169,0.037,0.262,-5.337
0.218,0.039,0.267,-5.337
0.221,0.042,0.271,-5.337
0.192,0.041,0.273,-5.337
0.179,0.041,0.269,-5.337
0.208,0.040,0.268,-5.337
0.182,0.042,0.271,-5.337
0.187,0.042,0.273,-5.337
0.167,0.040,0.271,-5.337
0.217,0.038,0.269,-5.337
0.320,0.036,0.267,-5.337
0.317,0.040,0.265,-5.337
0.237,0.041,0.269,-5.337
0.265,0.041,0.268,-5.337
0.242,0.041,0.265,-5.337
0.164,0.041,0.265,-5.337
0.189,0.039,0.267,-5.337
0.266,0.040,0.267,-5.337
0.325,0.041,0.269,-5.337
0.274,0.044,0.270,-5.337
0.224,0.046,0.272,-5.337
0.204,0.044,0.274,-5.337
0.202,0.042,0.275,-5.337
0.204,0.042,0.270,-5.337
0.175,0.042,0.270,-5.337
0.132,0.043,0.272,-5.337
0.149,0.042,0.273,-5.337
0.181,0.038,0.270,-5.337
0.228,0.035,0.267,-5.337
0.303,0.037,0.265,-5.337
0.304,0.038,0.267,-5.337
0.267,0.036,0.266,-5.337
0.219,0.039,0.264,-5.337
0.214,0.037,0.265,-5.337
0.229,0.038,0.269,-5.337
0.233,0.035,0.271,-5.337
0.226,0.034,0.269,-5.337
0.108,0.039,0.265,-5.337
0.081,0.037,0.268,-5.337
0.166,0.038,0.272,-5.337
0.257,0.035,0.270,-5.337
0.300,0.035,0.269,-5.337
0.259,0.036,0.270,-5.337
0.233,0.038,0.274,-5.337
0.187,0.038,0.272,-5.337
0.104,0.038,0.271,-5.337
0.169,0.034,0.269,-5.337
0.234,0.034,0.269,-5.337
0.236,0.036,0.265,-5.337
0.166,0.037,0.268,-5.337
0.165,0.036,0.272,-5.337
0.185,0.039,0.272,-5.337
0.160,0.033,0.269,-5.337
0.184,0.035,0.270,-5.337
0.258,0.034,0.270,-5.337
0.320,0.034,0.268,-5.337
0.283,0.037,0.270,-5.337
0.263,0.036,0.274,-5.337
0.286,0.034,0.273,-5.337
0.296,0.031,0.272,-5.337
0.268,0.034,0.273,-5.337
0.285,0.035,0.271,-5.337
0.282,0.033,0.268,-5.337
0.263,0.034,0.271,-5.337
0.270,0.036,0.274,-5.337
0.239,0.038,0.272,-5.337
0.182,0.036,0.272,-5.337
0.167,0.036,0.270,-5.337
0.209,0.039,0.269,-5.337
0.282,0.039,0.268,-5.337
0.258,0.042,0.274,-5.337
0.146,0.040,0.275,-5.337
0.152,0.039,0.271,-5.337
0.167,0.042,0.264,-5.337
0.236,0.043,0.268,-5.337
0.291,0.044,0.272,-5.337
0.187,0.046,0.275,-5.337
0.091,0.042,0.272,-5.337
0.122,0.042,0.268,-5.337
0.135,0.044,0.269,-5.337
0.116,0.044,0.271,-5.337
0.196,0.043,0.272,-5.337
0.238,0.042,0.276,-5.337
0.191,0.042,0.279,-5.337
0.154,0.043,0.278,-5.337
0.192,0.039,0.273,-5.337
0.265,0.037,0.269,-5.337
0.282,0.036,0.268,-5.337
0.234,0.037,0.269,-5.337
0.256,0.039,0.274,-5.337
0.268,0.045,0.276,-5.337
0.335,0.043,0.272,-5.337
0.319,0.042,0.268,-5.337
0.252,0.042,0.267,-5.337
0.260,0.046,0.268,-5.337
0.266,0.046,0.269,-5.337
0.227,0.045,0.270,-5.337
0.251,0.044,0.270,-5.337
0.252,0.043,0.267,-5.337
0.186,0.044,0.268,-5.337
0.124,0.045,0.269,-5.337
0.077,0.050,0.270,-5.337
0.094,0.049,0.269,-5.337
0.162,0.050,0.268,-5.337
0.189,0.048,0.270,-5.337
0.208,0.045,0.272,-5.337
0.153,0.045,0.272,-5.337
0.181,0.042,0.271,-5.337
0.220,0.042,0.274,-5.337
0.215,0.045,0.278,-5.337
0.153,0.045,0.278,-5.337
0.109,0.046,0.270,-5.337
0.082,0.047,0.267,-5.337
0.156,0.045,0.270,-5.337
0.245,0.042,0.272,-5.337
0.257,0.042,0.268,-5.337
0.271,0.042,0.269,-5.337
0.279,0.042,0.270,-5.337
0.317,0.036,0.269,-5.337
0.255,0.037,0.270,-5.337
0.204,0.041,0.274,-5.337
0.171,0.044,0.275,-5.337
0.174,0.044,0.271,-5.337
0.212,0.042,0.268,-5.337
0.255,0.043,0.266,-5.337
0.242,0.045,0.265,-5.337
0.171,0.051,0.267,-5.337
0.130,0.053,0.268,-5.337
0.163,0.051,0.271,-5.337
0.132,0.050,0.270,-5.337
0.135,0.050,0.269,-5.337
0.202,0.047,0.270,-5.337
0.225,0.048,0.269,-5.337
0.254,0.048,0.266,-5.337
0.232,0.049,0.266,-5.337
0.176,0.051,0.264,-5.337
0.143,0.053,0.263,-5.337
0.101,0.054,0.268,-5.337
0.146,0.050,0.269,-5.337
0.157,0.052,0.267,-5.337
0.100,0.051,0.264,-5.337
0.165,0.051,0.265,-5.337
0.169,0.052,0.268,-5.337
0.073,0.052,0.273,-5.337
0.057,0.050,0.272,-5.337
0.135,0.050,0.272,-5.337
0.242,0.046,0.267,-5.337
0.280,0.049,0.266,-5.337
0.263,0.052,0.265,-5.337
0.216,0.053,0.266,-5.337
0.171,0.052,0.270,-5.337
0.108,0.051,0.274,-5.337
0.111,0.050,0.272,-5.337
0.200,0.049,0.269,-5.337
0.309,0.048,0.268,-5.337
0.324,0.048,0.267,-5.337
0.212,0.047,0.265,-5.337
0.167,0.045,0.265,-5.337
0.263,0.047,0.265,-5.337
0.255,0.050,0.268,-5.337
0.206,0.052,0.268,-5.337
0.201,0.053,0.270,-5.337
0.175,0.055,0.270,-5.337
0.130,0.056,0.267,-5.337
0.114,0.057,0.266,-5.337
0.118,0.056,0.264,-5.337
0.117,0.055,0.265,-5.337
0.143,0.055,0.267,-5.337
0.162,0.056,0.273,-5.337
0.149,0.056,0.273,-5.337
0.209,0.055,0.271,-5.337
0.243,0.053,0.266,-5.337
0.143,0.056,0.263,-5.337
0.080,0.056,0.264,-5.337
0.169,0.055,0.267,-5.337
0.238,0.053,0.268,-5.337
0.172,0.054,0.272,-5.337
0.103,0.053,0.269,-5.337
0.105,0.056,0.271,-5.337
0.162,0.053,0.272,-5.337
0.177,0.052,0.271,-5.337
0.180,0.054,0.269,-5.337
0.113,0.058,0.268,-5.337
0.129,0.059,0.273,-5.337
0.104,0.060,0.273,-5.337
0.079,0.058,0.269,-5.337
0.138,0.058,0.268,-5.337
0.164,0.057,0.267,-5.337
0.153,0.053,0.268,-5.337
0.183,0.054,0.265,-5.337
0.221,0.053,0.264,-5.337
0.246,0.053,0.265,-5.337
0.230,0.055,0.265,-5.337
0.127,0.058,0.267,-5.337
0.164,0.056,0.270,-5.337
0.234,0.057,0.270,-5.337
0.191,0.056,0.266,-5.337
0.161,0.055,0.267,-5.337
0.162,0.054,0.270,-5.337
0.115,0.055,0.271,-5.337
0.097,0.055,0.272,-5.337
0.088,0.053,0.272,-5.337
0.133,0.052,0.267,-5.337
0.160,0.054,0.264,-5.337
0.158,0.057,0.267,-5.337
0.154,0.057,0.273,-5.337
0.153,0.059,0.273,-5.337
0.172,0.060,0.268,-5.337
0.134,0.061,0.266,-5.337
0.069,0.061,0.266,-5.337
0.181,0.058,0.265,-5.337
0.303,0.055,0.266,-5.337
0.274,0.057,0.265,-5.337
0.220,0.062,0.267,-5.337
0.200,0.059,0.269,-5.337
0.197,0.055,0.269,-5.337
0.299,0.052,0.268,-5.337
0.307,0.054,0.267,-5.337
0.201,0.059,0.271,-5.337
0.236,0.054,0.271,-5.337
0.247,0.057,0.268,-5.337
0.195,0.060,0.266,-5.337
0.160,0.058,0.268,-5.337
0.199,0.056,0.269,-5.337
0.209,0.054,0.268,-5.337
0.204,0.057,0.266,-5.337
0.232,0.057,0.268,-5.337
0.256,0.057,0.270,-5.337
0.251,0.056,0.270,-5.337
0.296,0.052,0.267,-5.337
0.220,0.056,0.266,-5.337
0.205,0.055,0.269,-5.337
0.229,0.060,0.268,-5.337
0.185,0.060,0.267,-5.337
0.142,0.059,0.267,-5.337
0.125,0.060,0.269,-5.337
0.109,0.061,0.267,-5.337
0.097,0.063,0.266,-5.337
0.132,0.061,0.262,-5.337
0.174,0.059,0.262,-5.337
0.184,0.059,0.263,-5.337
0.206,0.059,0.266,-5.337
0.280,0.060,0.266,-5.337
0.289,0.060,0.266,-5.337
0.185,0.058,0.267,-5.337
0.194,0.061,0.268,-5.337
0.279,0.058,0.268,-5.337
0.239,0.058,0.270,-5.337
0.186,0.055,0.270,-5.337
0.179,0.059,0.271,-5.337
0.148,0.061,0.268,-5.337
0.178,0.060,0.266,-5.337
0.164,0.063,0.265,-5.337
0.130,0.066,0.264,-5.337
0.145,0.067,0.266,-5.337
0.237,0.066,0.265,-5.337
0.220,0.064,0.264,-5.337
0.171,0.063,0.264,-5.337
0.220,0.064,0.265,-5.337
0.219,0.066,0.268,-5.337
0.269,0.065,0.271,-5.337
0.192,0.065,0.270,-5.337
0.176,0.067,0.266,-5.337
0.160,0.066,0.262,-5.337
0.221,0.066,0.265,-5.337
0.267,0.063,0.266,-5.337
0.203,0.064,0.266,-5.337
0.171,0.067,0.264,-5.337
0.132,0.064,0.266,-5.337
0.072,0.062,0.269,-5.337
0.134,0.063,0.271,-5.337
0.200,0.063,0.270,-5.337
0.182,0.065,0.265,-5.337
0.138,0.064,0.263,-5.337
0.099,0.065,0.265,-5.337
0.074,0.066,0.266,-5.337
0.055,0.065,0.267,-5.337
0.092,0.057,0.268,-5.337
0.136,0.055,0.269,-5.337
0.136,0.060,0.268,-5.337
0.190,0.062,0.267,-5.337
0.244,0.060,0.264,-5.337
0.235,0.059,0.263,-5.337
0.177,0.060,0.265,-5.337
0.217,0.060,0.264,-5.337
0.244,0.061,0.268,-5.337
0.255,0.060,0.269,-5.337
0.200,0.060,0.269,-5.337
0.132,0.061,0.267,-5.337
0.135,0.065,0.267,-5.337
0.175,0.069,0.269,-5.337
0.189,0.067,0.269,-5.337
0.121,0.067,0.268,-5.337
0.126,0.067,0.270,-5.337
0.148,0.067,0.267,-5.337
0.198,0.065,0.263,-5.337
0.277,0.063,0.259,-5.337
0.254,0.066,0.258,-5.337
0.260,0.066,0.263,-5.337
0.264,0.065,0.271,-5.337
0.218,0.062,0.274,-5.337
0.176,0.062,0.271,-5.337
0.175,0.061,0.270,-5.337
0.131,0.061,0.268,-5.337
0.104,0.060,0.261,-5.337
0.077,0.060,0.259,-5.337
0.026,0.058,0.265,-5.337
0.092,0.058,0.269,-5.337
0.166,0.058,0.271,-5.337
0.212,0.056,0.273,-5.337
0.139,0.060,0.272,-5.337
0.097,0.060,0.270,-5.337
0.158,0.056,0.268,-5.337
0.203,0.052,0.268,-5.337
0.179,0.053,0.270,-5.337
0.151,0.056,0.268,-5.337
0.178,0.059,0.267,-5.337
0.216,0.060,0.267,-5.337
0.152,0.059,0.269,-5.337
0.091,0.061,0.270,-5.337
0.145,0.062,0.272,-5.337
0.188,0.062,0.276,-5.337
0.182,0.066,0.277,-5.337
0.126,0.063,0.273,-5.337
0.120,0.061,0.269,-5.337
0.143,0.062,0.267,-5.337
0.185,0.061,0.269,-5.337
0.135,0.061,0.263,-5.337
0.152,0.058,0.256,-5.337
0.182,0.059,0.259,-5.337
0.174,0.060,0.269,-5.337
0.249,0.060,0.274,-5.337
0.344,0.059,0.272,-5.337
0.296,0.063,0.271,-5.337
0.224,0.063,0.269,-5.337
0.252,0.063,0.269,-5.337
0.292,0.057,0.266,-5.337
0.283,0.053,0.267,-5.337
0.231,0.053,0.268,-5.337
0.200,0.054,0.270,-5.337
0.219,0.053,0.272,-5.337
0.213,0.054,0.273,-5.337
0.185,0.051,0.273,-5.337
0.208,0.053,0.271,-5.337
0.187,0.055,0.270,-5.337
0.068,0.057,0.268,-5.337
0.066,0.056,0.267,-5.337
0.158,0.050,0.271,-5.337
0.237,0.050,0.274,-5.337
0.266,0.052,0.273,-5.337
0.154,0.054,0.273,-5.337
0.106,0.049,0.274,-5.337
0.151,0.047,0.273,-5.337
0.208,0.049,0.269,-5.337
0.237,0.051,0.265,-5.337
0.121,0.054,0.265,-5.337
0.096,0.051,0.269,-5.337
0.218,0.048,0.267,-5.337
0.257,0.050,0.266,-5.337
0.123,0.049,0.269,-5.337
0.097,0.048,0.274,-5.337
0.220,0.048,0.272,-5.337
0.289,0.048,0.272,-5.337
0.252,0.050,0.270,-5.337
0.177,0.049,0.271,-5.337
0.147,0.050,0.269,-5.337
0.180,0.049,0.265,-5.337
0.171,0.050,0.265,-5.337
0.136,0.051,0.265,-5.337
0.155,0.048,0.266,-5.337
0.083,0.045,0.269,-5.337
0.138,0.041,0.271,-5.337
0.242,0.044,0.272,-5.337
0.248,0.045,0.270,-5.337
0.237,0.044,0.271,-5.337
0.245,0.044,0.268,-5.337
0.237,0.045,0.267,-5.337
0.224,0.046,0.269,-5.337
0.313,0.039,0.270,-5.337
0.337,0.038,0.271,-5.337
0.276,0.040,0.269,-5.337
0.238,0.043,0.269,-5.337
0.165,0.044,0.268,-5.337
0.074,0.045,0.272,-5.337
0.109,0.042,0.269,-5.337
0.253,0.037,0.266,-5.337
0.308,0.037,0.264,-5.337
0.234,0.040,0.267,-5.337
0.212,0.039,0.269,-5.337
0.237,0.040,0.269,-5.337
0.272,0.038,0.268,-5.337
0.302,0.038,0.267,-5.337
0.243,0.039,0.268,-5.337
0.203,0.037,0.267,-5.337
0.263,0.033,0.264,-5.337
0.307,0.035,0.264,-5.337
0.209,0.039,0.264,-5.337
0.156,0.044,0.268,-5.337
0.087,0.042,0.270,-5.337
0.091,0.039,0.273,-5.337
0.159,0.038,0.271,-5.337
0.195,0.043,0.268,-5.337
0.191,0.044,0.264,-5.337
0.163,0.043,0.263,-5.337
0.187,0.040,0.266,-5.337
0.200,0.042,0.270,-5.337
0.240,0.040,0.270,-5.337
0.265,0.038,0.268,-5.337
0.219,0.042,0.268,-5.337
0.159,0.043,0.268,-5.337
0.185,0.042,0.268,-5.337
0.233,0.041,0.267,-5.337
0.233,0.041,0.266,-5.337
0.268,0.039,0.266,-5.337
0.267,0.040,0.267,-5.337
0.269,0.039,0.268,-5.337
0.255,0.041,0.270,-5.337
0.186,0.044,0.271,-5.337
0.163,0.041,0.267,-5.337
0.244,0.036,0.265,-5.337
0.266,0.036,0.265,-5.337
0.223,0.037,0.262,-5.337
0.138,0.036,0.263,-5.337
0.150,0.031,0.265,-5.337
0.241,0.026,0.261,-5.337
0.241,0.028,0.260,-5.337
0.213,0.031,0.266,-5.337
0.186,0.036,0.271,-5.337
0.194,0.037,0.270,-5.337
0.154,0.033,0.268,-5.337
0.187,0.033,0.267,-5.337
0.193,0.036,0.269,-5.337
0.181,0.041,0.271,-5.337
0.222,0.041,0.273,-5.337
0.226,0.038,0.275,-5.337
0.279,0.034,0.273,-5.337
0.299,0.031,0.267,-5.337
0.318,0.032,0.268,-5.337
0.282,0.036,0.268,-5.337
0.230,0.036,0.266,-5.337
0.239,0.036,0.264,-5.337
0.212,0.036,0.264,-5.337
0.187,0.034,0.265,-5.337
0.165,0.034,0.266,-5.337
0.189,0.034,0.265,-5.337
0.171,0.038,0.265,-5.337
0.132,0.034,0.267,-5.337
0.176,0.035,0.268,-5.337
0.265,0.030,0.267,-5.337
0.233,0.032,0.267,-5.337
0.185,0.035,0.267,-5.337
0.245,0.034,0.267,-5.337
0.319,0.032,0.266,-5.337
0.301,0.031,0.264,-5.337
0.224,0.031,0.263,-5.337
0.303,0.033,0.268,-5.337
0.370,0.031,0.272,-5.337
0.335,0.031,0.272,-5.337
0.281,0.034,0.270,-5.337
0.237,0.034,0.266,-5.337
0.230,0.037,0.266,-5.337
0.237,0.038,0.266,-5.337
0.246,0.038,0.266,-5.337
0.322,0.037,0.268,-5.337
0.302,0.040,0.272,-5.337
0.269,0.041,0.274,-5.337
0.247,0.037,0.271,-5.337
0.205,0.037,0.267,-5.337
0.149,0.037,0.263,-5.337
0.172,0.038,0.261,-5.337
0.173,0.040,0.265,-5.337
0.173,0.035,0.270,-5.337
0.156,0.039,0.272,-5.337
0.151,0.041,0.273,-5.337
0.162,0.042,0.275,-5.337
0.114,0.042,0.275,-5.337
0.136,0.040,0.271,-5.337
0.189,0.040,0.264,-5.337
0.203,0.038,0.261,-5.337
0.212,0.036,0.265,-5.337
0.186,0.034,0.267,-5.337
0.253,0.034,0.267,-5.337
0.242,0.038,0.268,-5.337
0.227,0.037,0.270,-5.337
0.242,0.033,0.268,-5.337
0.213,0.034,0.268,-5.337
0.220,0.033,0.271,-5.337
0.216,0.034,0.270,-5.337
0.245,0.029,0.269,-5.337
0.249,0.029,0.268,-5.337
0.295,0.027,0.266,-5.337
0.306,0.029,0.268,-5.337
0.268,0.032,0.268,-5.337
0.178,0.034,0.270,-5.337
0.191,0.032,0.273,-5.337
0.206,0.034,0.272,-5.337
0.206,0.037,0.272,-5.337
0.161,0.037,0.272,-5.337
0.232,0.038,0.267,-5.337
0.178,0.036,0.265,-5.337
0.117,0.032,0.267,-5.337
0.173,0.033,0.272,-5.337
0.212,0.037,0.272,-5.337
0.199,0.037,0.266,-5.337
0.182,0.034,0.264,-5.337
0.150,0.032,0.261,-5.337
0.188,0.030,0.264,-5.337
0.210,0.033,0.267,-5.337
0.221,0.039,0.267,-5.337
0.205,0.039,0.264,-5.337
0.231,0.036,0.266,-5.337
0.183,0.035,0.268,-5.337
0.151,0.035,0.270,-5.337
0.257,0.035,0.271,-5.337
0.342,0.036,0.271,-5.337
0.260,0.033,0.269,-5.337
0.211,0.030,0.266,-5.337
0.278,0.030,0.263,-5.337
0.304,0.033,0.261,-5.337
0.238,0.035,0.265,-5.337
0.192,0.034,0.271,-5.337
0.260,0.032,0.271,-5.337
0.259,0.037,0.270,-5.337
0.190,0.036,0.268,-5.337
0.212,0.033,0.266,-5.337
0.280,0.031,0.267,-5.337
0.295,0.031,0.264,-5.337
0.224,0.034,0.265,-5.337
0.239,0.033,0.267,-5.337
0.272,0.032,0.265,-5.337
0.261,0.032,0.265,-5.337
0.269,0.031,0.269,-5.337
0.246,0.032,0.270,-5.337
0.174,0.035,0.267,-5.337
0.175,0.035,0.265,-5.337
0.226,0.032,0.264,-5.337
0.219,0.030,0.264,-5.337
0.216,0.033,0.266,-5.337
0.221,0.029,0.267,-5.337
0.261,0.028,0.268,-5.337
0.257,0.029,0.270,-5.337
0.236,0.032,0.274,-5.337
0.244,0.031,0.271,-5.337
0.261,0.033,0.267,-5.337
0.184,0.033,0.264,-5.337
0.203,0.032,0.265,-5.337
0.221,0.032,0.267,-5.337
0.191,0.036,0.268,-5.337
0.168,0.036,0.267,-5.337
0.190,0.037,0.266,-5.337
0.221,0.034,0.269,-5.337
0.250,0.032,0.272,-5.337
0.205,0.036,0.271,-5.337
0.129,0.036,0.271,-5.337
0.180,0.031,0.269,-5.337
0.239,0.029,0.267,-5.337
0.317,0.029,0.267,-5.337
0.334,0.031,0.267,-5.337
0.266,0.032,0.268,-5.337
0.261,0.032,0.267,-5.337
0.238,0.037,0.265,-5.337
0.241,0.033,0.267,-5.337
0.238,0.038,0.268,-5.337
0.191,0.040,0.268,-5.337
0.231,0.038,0.272,-5.337
0.306,0.031,0.276,-5.337
0.277,0.033,0.277,-5.337
0.187,0.034,0.270,-5.337
0.250,0.034,0.264,-5.337
0.330,0.037,0.261,-5.337
0.245,0.039,0.265,-5.337
0.234,0.036,0.266,-5.337
0.236,0.039,0.265,-5.337
0.181,0.040,0.266,-5.337
0.186,0.039,0.265,-5.337
0.234,0.038,0.265,-5.337
0.265,0.040,0.270,-5.337
0.198,0.041,0.274,-5.337
0.182,0.044,0.275,-5.337
0.175,0.045,0.272,-5.337
0.175,0.043,0.271,-5.337
0.198,0.041,0.271,-5.337
0.272,0.038,0.272,-5.337
0.255,0.040,0.275,-5.337
0.197,0.041,0.270,-5.337
0.156,0.045,0.266,-5.337
0.191,0.043,0.264,-5.337
0.280,0.043,0.265,-5.337
0.335,0.043,0.269,-5.337
0.309,0.044,0.269,-5.337
0.270,0.045,0.269,-5.337
0.268,0.043,0.271,-5.337
0.271,0.043,0.272,-5.337
0.206,0.046,0.269,-5.337
0.210,0.047,0.267,-5.337
0.228,0.047,0.269,-5.337
0.230,0.049,0.268,-5.337
0.208,0.047,0.266,-5.337
0.164,0.047,0.263,-5.337
0.109,0.047,0.266,-5.337
0.127,0.048,0.273,-5.337
0.185,0.047,0.272,-5.337
0.205,0.045,0.273,-5.337
0.245,0.043,0.273,-5.337
0.287,0.043,0.273,-5.337
0.252,0.049,0.269,-5.337
0.210,0.052,0.269,-5.337
0.197,0.051,0.270,-5.337
0.195,0.047,0.272,-5.337
0.156,0.043,0.268,-5.337
0.149,0.045,0.268,-5.337
0.107,0.045,0.270,-5.337
0.153,0.042,0.269,-5.337
0.194,0.042,0.269,-5.337
0.217,0.045,0.271,-5.337
0.219,0.047,0.271,-5.337
0.162,0.050,0.272,-5.337
0.245,0.050,0.270,-5.337
0.253,0.051,0.266,-5.337
0.152,0.051,0.266,-5.337
0.154,0.051,0.269,-5.337
0.161,0.050,0.272,-5.337
0.090,0.053,0.272,-5.337
0.075,0.051,0.272,-5.337
0.194,0.048,0.269,-5.337
0.277,0.046,0.271,-5.337
0.305,0.047,0.269,-5.337
0.263,0.049,0.268,-5.337
0.123,0.052,0.269,-5.337
0.159,0.053,0.271,-5.337
0.247,0.049,0.268,-5.337
0.214,0.053,0.270,-5.337
0.137,0.052,0.273,-5.337
0.110,0.053,0.273,-5.337
0.062,0.053,0.274,-5.337
0.147,0.048,0.273,-5.337
0.164,0.046,0.267,-5.337
0.166,0.045,0.262,-5.337
0.243,0.045,0.265,-5.337
0.251,0.046,0.270,-5.337
0.248,0.047,0.271,-5.337
0.224,0.049,0.270,-5.337
0.159,0.048,0.268,-5.337
0.161,0.049,0.271,-5.337
0.228,0.050,0.273,-5.337
0.258,0.047,0.270,-5.337
0.262,0.049,0.267,-5.337
0.245,0.051,0.269,-5.337
0.218,0.048,0.275,-5.337
0.189,0.050,0.273,-5.337
0.177,0.052,0.269,-5.337
0.151,0.054,0.266,-5.337
0.161,0.055,0.268,-5.337
0.181,0.056,0.271,-5.337
0.173,0.058,0.273,-5.337
0.213,0.060,0.272,-5.337
0.210,0.060,0.266,-5.337
0.170,0.054,0.265,-5.337
0.255,0.054,0.266,-5.337
0.201,0.054,0.265,-5.337
0.117,0.055,0.268,-5.337
0.178,0.051,0.271,-5.337
0.216,0.051,0.269,-5.337
0.202,0.055,0.265,-5.337
0.252,0.055,0.264,-5.337
0.243,0.054,0.269,-5.337
0.165,0.057,0.275,-5.337
0.171,0.057,0.273,-5.337
0.219,0.055,0.272,-5.337
0.186,0.054,0.271,-5.337
0.127,0.055,0.272,-5.337
0.144,0.052,0.271,-5.337
0.236,0.053,0.267,-5.337
0.156,0.060,0.266,-5.337
0.060,0.061,0.263,-5.337
0.054,0.057,0.266,-5.337
0.128,0.054,0.268,-5.337
0.152,0.055,0.270,-5.337
0.172,0.055,0.265,-5.337
0.190,0.057,0.265,-5.337
0.219,0.055,0.267,-5.337
0.210,0.052,0.272,-5.337
0.176,0.051,0.271,-5.337
0.161,0.052,0.265,-5.337
0.141,0.054,0.265,-5.337
0.136,0.055,0.265,-5.337
0.098,0.054,0.265,-5.337
0.136,0.052,0.265,-5.337
0.198,0.053,0.268,-5.337
0.172,0.056,0.273,-5.337
0.148,0.054,0.271,-5.337
0.210,0.051,0.269,-5.337
0.224,0.057,0.269,-5.337
0.169,0.059,0.267,-5.337
0.162,0.058,0.266,-5.337
0.195,0.058,0.266,-5.337
0.164,0.058,0.267,-5.337
0.163,0.057,0.267,-5.337
0.223,0.055,0.269,-5.337
0.247,0.057,0.268,-5.337
0.182,0.059,0.269,-5.337
0.113,0.058,0.270,-5.337
0.137,0.058,0.272,-5.337
0.220,0.052,0.269,-5.337
0.290,0.048,0.268,-5.337
0.285,0.051,0.266,-5.337
0.248,0.055,0.265,-5.337
0.241,0.054,0.262,-5.337
0.197,0.054,0.262,-5.337
0.220,0.054,0.265,-5.337
0.297,0.054,0.268,-5.337
0.238,0.055,0.270,-5.337
0.158,0.056,0.270,-5.337
0.140,0.053,0.272,-5.337
0.105,0.055,0.271,-5.337
0.092,0.059,0.268,-5.337
0.094,0.060,0.265,-5.337
0.078,0.062,0.266,-5.337
0.091,0.060,0.262,-5.337
0.116,0.061,0.264,-5.337
0.170,0.059,0.268,-5.337
0.162,0.061,0.272,-5.337
0.116,0.061,0.272,-5.337
0.096,0.055,0.268,-5.337
0.156,0.056,0.266,-5.337
0.230,0.059,0.268,-5.337
0.286,0.054,0.269,-5.337
0.288,0.055,0.270,-5.337
0.189,0.056,0.271,-5.337
0.146,0.059,0.270,-5.337
0.215,0.061,0.269,-5.337
0.225,0.057,0.268,-5.337
0.262,0.052,0.265,-5.337
0.271,0.055,0.262,-5.337
0.257,0.061,0.261,-5.337
0.166,0.062,0.265,-5.337
0.092,0.061,0.268,-5.337
0.120,0.061,0.273,-5.337
0.190,0.059,0.276,-5.337
0.224,0.057,0.276,-5.337
0.278,0.053,0.270,-5.337
0.290,0.056,0.268,-5.337
0.205,0.060,0.271,-5.337
0.223,0.060,0.273,-5.337
0.216,0.057,0.270,-5.337
0.134,0.057,0.261,-5.337
0.119,0.058,0.260,-5.337
0.128,0.061,0.261,-5.337
0.179,0.062,0.266,-5.337
0.276,0.058,0.268,-5.337
0.247,0.061,0.268,-5.337
0.107,0.061,0.272,-5.337
0.110,0.060,0.273,-5.337
0.222,0.059,0.270,-5.337
0.223,0.058,0.266,-5.337
0.199,0.060,0.266,-5.337
0.232,0.060,0.268,-5.337
0.272,0.054,0.268,-5.337
0.285,0.054,0.268,-5.337
0.268,0.057,0.265,-5.337
0.260,0.062,0.265,-5.337
0.188,0.059,0.264,-5.337
0.133,0.055,0.267,-5.337
0.217,0.052,0.271,-5.337
0.264,0.053,0.272,-5.337
0.210,0.055,0.270,-5.337
0.159,0.056,0.265,-5.337
0.118,0.058,0.263,-5.337
0.159,0.059,0.263,-5.337
0.161,0.058,0.267,-5.337
0.176,0.060,0.266,-5.337
0.233,0.060,0.268,-5.337
0.212,0.059,0.268,-5.337
0.129,0.061,0.267,-5.337
0.116,0.062,0.266,-5.337
0.124,0.060,0.268,-5.337
0.127,0.063,0.269,-5.337
0.130,0.068,0.268,-5.337
0.121,0.067,0.269,-5.337
0.158,0.064,0.266,-5.337
0.177,0.061,0.265,-5.337
0.242,0.061,0.267,-5.337
0.244,0.063,0.269,-5.337
0.228,0.061,0.269,-5.337
0.220,0.063,0.268,-5.337
0.239,0.063,0.267,-5.337
0.215,0.063,0.268,-5.337
0.179,0.060,0.267,-5.337
0.148,0.059,0.265,-5.337
0.168,0.059,0.266,-5.337
0.198,0.059,0.270,-5.337
0.175,0.065,0.272,-5.337
0.090,0.067,0.269,-5.337
0.105,0.066,0.264,-5.337
0.124,0.066,0.266,-5.337
0.136,0.064,0.267,-5.337
0.122,0.065,0.269,-5.337
0.196,0.064,0.268,-5.337
0.213,0.064,0.268,-5.337
0.131,0.060,0.264,-5.337
0.092,0.061,0.264,-5.337
0.099,0.060,0.265,-5.337
0.194,0.060,0.269,-5.337
0.229,0.060,0.272,-5.337
0.215,0.059,0.268,-5.337
0.141,0.058,0.264,-5.337
0.161,0.062,0.264,-5.337
0.200,0.063,0.267,-5.337
0.162,0.065,0.270,-5.337
0.132,0.065,0.268,-5.337
0.118,0.064,0.266,-5.337
0.198,0.061,0.266,-5.337
0.262,0.060,0.266,-5.337
0.205,0.062,0.269,-5.337
0.182,0.062,0.273,-5.337
0.247,0.061,0.273,-5.337
0.221,0.064,0.272,-5.337
0.169,0.061,0.270,-5.337
0.129,0.059,0.266,-5.337
0.190,0.058,0.266,-5.337
0.253,0.060,0.266,-5.337
0.238,0.063,0.267,-5.337
0.225,0.059,0.265,-5.337
0.251,0.059,0.265,-5.337
0.218,0.060,0.263,-5.337
0.193,0.057,0.267,-5.337
0.153,0.054,0.269,-5.337
0.158,0.058,0.267,-5.337
0.204,0.060,0.267,-5.337
0.153,0.060,0.268,-5.337
0.130,0.052,0.269,-5.337
0.218,0.050,0.268,-5.337
0.246,0.055,0.267,-5.337
0.234,0.056,0.268,-5.337
0.242,0.053,0.267,-5.337
0.289,0.052,0.266,-5.337
0.330,0.055,0.265,-5.337
0.323,0.058,0.264,-5.337
0.271,0.057,0.264,-5.337
0.262,0.054,0.263,-5.337
0.262,0.055,0.263,-5.337
0.182,0.054,0.265,-5.337
0.172,0.056,0.272,-5.337
0.174,0.057,0.274,-5.337
0.189,0.057,0.273,-5.337
0.201,0.054,0.268,-5.337
0.150,0.057,0.268,-5.337
0.120,0.060,0.266,-5.337
0.121,0.059,0.264,-5.337
0.131,0.056,0.262,-5.337
0.187,0.057,0.263,-5.337
0.205,0.057,0.267,-5.337
0.239,0.056,0.267,-5.337
0.238,0.054,0.270,-5.337
0.168,0.057,0.274,-5.337
0.117,0.056,0.275,-5.337
0.145,0.055,0.275,-5.337
0.192,0.052,0.272,-5.337
0.199,0.054,0.271,-5.337
0.199,0.052,0.268,-5.337
0.155,0.053,0.267,-5.337
0.132,0.054,0.267,-5.337
0.187,0.053,0.269,-5.337
0.229,0.054,0.270,-5.337
0.198,0.055,0.267,-5.337
0.169,0.053,0.266,-5.337
0.197,0.048,0.268,-5.337
0.236,0.048,0.271,-5.337
0.283,0.052,0.271,-5.337
0.265,0.048,0.273,-5.337
0.237,0.046,0.272,-5.337
0.244,0.050,0.274,-5.337
0.256,0.048,0.276,-5.337
0.333,0.053,0.274,-5.337
0.332,0.051,0.269,-5.337
0.308,0.050,0.268,-5.337
0.309,0.047,0.270,-5.337
0.322,0.047,0.269,-5.337
0.180,0.050,0.270,-5.337
0.070,0.052,0.272,-5.337
0.127,0.049,0.269,-5.337
0.164,0.051,0.265,-5.337
0.200,0.050,0.266,-5.337
0.240,0.049,0.268,-5.337
0.254,0.048,0.272,-5.337
0.205,0.049,0.274,-5.337
0.185,0.050,0.269,-5.337
0.244,0.051,0.269,-5.337
0.316,0.051,0.271,-5.337
0.188,0.052,0.269,-5.337
0.092,0.050,0.265,-5.337
0.159,0.047,0.262,-5.337
0.203,0.047,0.267,-5.337
0.157,0.050,0.268,-5.337
0.217,0.051,0.271,-5.337
0.304,0.047,0.274,-5.337
0.349,0.047,0.272,-5.337
0.317,0.047,0.272,-5.337
0.241,0.050,0.271,-5.337
0.178,0.050,0.270,-5.337
0.144,0.051,0.269,-5.337
0.159,0.051,0.271,-5.337
0.153,0.047,0.272,-5.337
0.213,0.049,0.271,-5.337
0.202,0.048,0.270,-5.337
0.215,0.050,0.267,-5.337
0.240,0.051,0.269,-5.337
0.188,0.047,0.272,-5.337
0.166,0.047,0.273,-5.337
0.238,0.045,0.274,-5.337
0.298,0.042,0.271,-5.337
0.228,0.043,0.272,-5.337
0.165,0.044,0.268,-5.337
0.200,0.044,0.265,-5.337
0.295,0.043,0.260,-5.337
0.274,0.046,0.262,-5.337
0.240,0.046,0.267,-5.337
0.179,0.051,0.272,-5.337
0.193,0.051,0.272,-5.337
0.262,0.045,0.272,-5.337
0.269,0.048,0.266,-5.337
0.232,0.047,0.264,-5.337
0.202,0.047,0.269,-5.337
0.220,0.049,0.274,-5.337
0.159,0.047,0.273,-5.337
0.143,0.046,0.271,-5.337
0.184,0.045,0.273,-5.337
0.228,0.044,0.273,-5.337
0.301,0.046,0.269,-5.337
0.253,0.048,0.266,-5.337
0.171,0.047,0.266,-5.337
0.167,0.045,0.267,-5.337
0.255,0.045,0.270,-5.337
0.261,0.043,0.271,-5.337
0.231,0.043,0.272,-5.337
0.226,0.046,0.272,-5.337
0.253,0.046,0.273,-5.337
0.217,0.043,0.271,-5.337
0.171,0.045,0.270,-5.337
0.131,0.046,0.267,-5.337
0.115,0.050,0.270,-5.337
0.120,0.051,0.272,-5.337
0.142,0.047,0.271,-5.337
0.166,0.044,0.268,-5.337
0.261,0.044,0.266,-5.337
0.281,0.045,0.268,-5.337
0.236,0.048,0.270,-5.337
0.233,0.047,0.267,-5.337
0.269,0.044,0.264,-5.337
0.188,0.045,0.261,-5.337
0.135,0.048,0.262,-5.337
0.220,0.047,0.267,-5.337
0.307,0.048,0.272,-5.337
0.286,0.044,0.274,-5.337
0.278,0.042,0.271,-5.337
0.255,0.045,0.271,-5.337
0.211,0.046,0.270,-5.337
0.176,0.043,0.269,-5.337
0.182,0.042,0.268,-5.337
0.226,0.042,0.267,-5.337
0.273,0.047,0.270,-5.337
0.226,0.045,0.270,-5.337
0.213,0.045,0.271,-5.337
0.219,0.048,0.272,-5.337
0.232,0.048,0.272,-5.337
0.216,0.048,0.273,-5.337
0.180,0.047,0.271,-5.337
0.233,0.048,0.268,-5.337
0.271,0.045,0.269,-5.337
0.316,0.047,0.271,-5.337
0.293,0.048,0.269,-5.337
0.197,0.050,0.267,-5.337
0.180,0.045,0.265,-5.337
0.259,0.042,0.268,-5.337
0.249,0.041,0.269,-5.337
0.234,0.041,0.267,-5.337
0.287,0.039,0.264,-5.337
0.275,0.042,0.264,-5.337
0.216,0.044,0.267,-5.337
0.212,0.043,0.271,-5.337
0.247,0.042,0.271,-5.337
0.251,0.043,0.269,-5.337
0.265,0.042,0.267,-5.337
0.266,0.044,0.267,-5.337
0.221,0.043,0.273,-5.337
0.213,0.038,0.275,-5.337
0.319,0.037,0.273,-5.337
0.385,0.042,0.268,-5.337
0.337,0.046,0.262,-5.337
0.233,0.044,0.260,-5.337
0.245,0.046,0.266,-5.337
0.244,0.045,0.268,-5.337
0.215,0.045,0.268,-5.337
0.132,0.044,0.268,-5.337
0.125,0.043,0.270,-5.337
0.187,0.042,0.269,-5.337
0.241,0.044,0.269,-5.337
0.221,0.046,0.270,-5.337
0.168,0.044,0.271,-5.337
0.188,0.040,0.271,-5.337
0.205,0.041,0.271,-5.337
0.224,0.042,0.271,-5.337
0.228,0.044,0.266,-5.337
0.227,0.044,0.262,-5.337
0.253,0.042,0.264,-5.337
0.290,0.041,0.268,-5.337
0.239,0.044,0.271,-5.337
0.178,0.046,0.272,-5.337
0.154,0.047,0.269,-5.337
0.204,0.042,0.268,-5.337
0.189,0.043,0.267,-5.337
0.135,0.042,0.270,-5.337
0.170,0.042,0.269,-5.337
0.207,0.044,0.269,-5.337
0.274,0.041,0.269,-5.337
0.283,0.039,0.267,-5.337
0.281,0.039,0.265,-5.337
0.254,0.040,0.264,-5.337
0.257,0.040,0.266,-5.337
0.309,0.040,0.269,-5.337
0.292,0.038,0.271,-5.337
0.283,0.041,0.272,-5.337
0.231,0.045,0.269,-5.337
0.200,0.047,0.268,-5.337
0.233,0.046,0.267,-5.337
0.212,0.047,0.267,-5.337
0.246,0.042,0.269,-5.337
0.259,0.040,0.273,-5.337
0.196,0.044,0.274,-5.337
0.113,0.046,0.272,-5.337
0.141,0.044,0.272,-5.337
0.250,0.046,0.270,-5.337
0.280,0.044,0.274,-5.337
0.271,0.045,0.270,-5.337
0.264,0.044,0.267,-5.337
0.195,0.045,0.267,-5.337
0.195,0.044,0.268,-5.337
0.258,0.045,0.268,-5.337
0.265,0.048,0.268,-5.337
0.232,0.041,0.267,-5.337
0.275,0.039,0.268,-5.337
0.277,0.040,0.269,-5.337
0.259,0.044,0.269,-5.337
0.196,0.045,0.267,-5.337
0.167,0.047,0.272,-5.337
0.184,0.044,0.274,-5.337
0.188,0.047,0.271,-5.337
0.198,0.047,0.267,-5.337
0.222,0.046,0.269,-5.337
0.246,0.044,0.271,-5.337
0.237,0.043,0.272,-5.337
0.247,0.041,0.272,-5.337
0.277,0.041,0.268,-5.337
0.293,0.044,0.262,-5.337
0.293,0.044,0.264,-5.337
0.291,0.042,0.268,-5.337
0.286,0.040,0.269,-5.337
0.238,0.041,0.271,-5.337
0.230,0.039,0.270,-5.337
0.214,0.043,0.268,-5.337
0.230,0.046,0.267,-5.337
0.226,0.045,0.270,-5.337
0.215,0.040,0.272,-5.337
0.218,0.039,0.270,-5.337
0.176,0.044,0.266,-5.337
0.189,0.045,0.266,-5.337
0.264,0.045,0.266,-5.337
0.252,0.047,0.267,-5.337
0.278,0.043,0.270,-5.337
0.323,0.046,0.272,-5.337
0.321,0.044,0.267,-5.337
0.233,0.042,0.264,-5.337
0.214,0.041,0.266,-5.337
0.263,0.042,0.272,-5.337
0.273,0.042,0.273,-5.337
0.261,0.041,0.270,-5.337
0.192,0.041,0.269,-5.337
0.136,0.043,0.267,-5.337
0.151,0.047,0.267,-5.337
0.219,0.049,0.269,-5.337
0.225,0.044,0.268,-5.337
0.204,0.045,0.266,-5.337
0.260,0.047,0.266,-5.337
0.303,0.048,0.266,-5.337
0.241,0.049,0.270,-5.337
0.177,0.046,0.273,-5.337
0.217,0.043,0.272,-5.337
0.208,0.045,0.268,-5.337
0.183,0.047,0.266,-5.337
0.143,0.047,0.265,-5.337
0.066,0.048,0.266,-5.337
0.104,0.049,0.267,-5.337
0.170,0.048,0.267,-5.337
0.179,0.043,0.266,-5.337
0.165,0.045,0.263,-5.337
0.148,0.049,0.266,-5.337
0.208,0.048,0.271,-5.337
0.270,0.046,0.274,-5.337
0.176,0.053,0.277,-5.337
0.177,0.053,0.275,-5.337
0.263,0.053,0.272,-5.337
0.280,0.051,0.268,-5.337
0.273,0.046,0.269,-5.337
0.205,0.046,0.269,-5.337
0.154,0.049,0.270,-5.337
0.158,0.049,0.275,-5.337
0.188,0.048,0.272,-5.337
0.215,0.047,0.267,-5.337
0.239,0.046,0.262,-5.337
0.286,0.043,0.260,-5.337
0.302,0.044,0.263,-5.337
0.275,0.047,0.268,-5.337
0.281,0.049,0.275,-5.337
0.261,0.050,0.279,-5.337
0.225,0.045,0.274,-5.337
0.235,0.043,0.270,-5.337
0.228,0.045,0.269,-5.337
0.146,0.048,0.272,-5.337
0.087,0.051,0.273,-5.337
0.068,0.051,0.271,-5.337
0.130,0.047,0.269,-5.337
0.149,0.045,0.268,-5.337
0.130,0.048,0.269,-5.337
0.128,0.048,0.270,-5.337
0.157,0.048,0.268,-5.337
0.163,0.049,0.269,-5.337
0.177,0.047,0.272,-5.337
0.157,0.050,0.272,-5.337
0.199,0.049,0.270,-5.337
0.265,0.049,0.265,-5.337
0.261,0.052,0.266,-5.337
0.199,0.050,0.268,-5.337
0.219,0.046,0.271,-5.337
0.234,0.050,0.267,-5.337
0.194,0.051,0.270,-5.337
0.229,0.052,0.273,-5.337
0.253,0.052,0.275,-5.337
0.223,0.050,0.274,-5.337
0.237,0.048,0.272,-5.337
0.247,0.047,0.268,-5.337
0.271,0.053,0.267,-5.337
0.218,0.054,0.271,-5.337
0.158,0.054,0.276,-5.337
0.162,0.054,0.280,-5.337
0.180,0.051,0.279,-5.337
0.137,0.051,0.275,-5.337
0.147,0.050,0.271,-5.337
0.238,0.053,0.266,-5.337
0.232,0.055,0.264,-5.337
0.233,0.052,0.268,-5.337
0.282,0.053,0.272,-5.337
0.216,0.057,0.273,-5.337
0.158,0.055,0.273,-5.337
0.239,0.051,0.272,-5.337
0.220,0.054,0.270,-5.337
0.170,0.054,0.267,-5.337
0.191,0.052,0.266,-5.337
0.166,0.057,0.270,-5.337
0.115,0.058,0.272,-5.337
0.072,0.055,0.271,-5.337
0.092,0.057,0.270,-5.337
0.226,0.058,0.273,-5.337
0.269,0.055,0.270,-5.337
0.199,0.056,0.269,-5.337
0.265,0.053,0.270,-5.337
0.249,0.057,0.271,-5.337
0.193,0.054,0.272,-5.337
0.252,0.051,0.274,-5.337
0.213,0.052,0.275,-5.337
0.232,0.057,0.274,-5.337
0.272,0.058,0.271,-5.337
0.227,0.059,0.268,-5.337
0.157,0.058,0.268,-5.337
0.166,0.060,0.270,-5.337
0.149,0.065,0.270,-5.337
0.082,0.067,0.269,-5.337
0.112,0.062,0.269,-5.337
0.157,0.058,0.270,-5.337
0.192,0.054,0.269,-5.337
0.213,0.055,0.267,-5.337
0.225,0.055,0.267,-5.337
0.265,0.055,0.268,-5.337
0.252,0.059,0.269,-5.337
0.226,0.056,0.271,-5.337
0.187,0.056,0.277,-5.337
0.090,0.057,0.276,-5.337
0.085,0.059,0.271,-5.337
0.165,0.057,0.271,-5.337
0.200,0.058,0.271,-5.337
0.189,0.054,0.269,-5.337
0.150,0.057,0.267,-5.337
0.117,0.059,0.265,-5.337
0.231,0.057,0.264,-5.337
0.259,0.058,0.266,-5.337
0.169,0.062,0.269,-5.337
0.148,0.061,0.272,-5.337
0.245,0.059,0.271,-5.337
0.327,0.055,0.267,-5.337
0.365,0.059,0.266,-5.337
0.342,0.062,0.270,-5.337
0.317,0.062,0.273,-5.337
0.296,0.063,0.274,-5.337
0.282,0.061,0.270,-5.337
0.228,0.062,0.269,-5.337
0.232,0.061,0.270,-5.337
0.245,0.060,0.271,-5.337
0.228,0.057,0.267,-5.337
0.205,0.058,0.265,-5.337
0.248,0.059,0.265,-5.337
0.259,0.062,0.265,-5.337
0.220,0.062,0.271,-5.337
0.230,0.062,0.274,-5.337
0.194,0.064,0.270,-5.337
0.148,0.064,0.267,-5.337
0.181,0.060,0.266,-5.337
0.206,0.059,0.264,-5.337
0.134,0.062,0.265,-5.337
0.081,0.065,0.272,-5.337
0.173,0.061,0.275,-5.337
0.214,0.059,0.273,-5.337
0.171,0.059,0.271,-5.337
0.195,0.060,0.269,-5.337
0.145,0.062,0.271,-5.337
0.124,0.058,0.270,-5.337
0.216,0.060,0.268,-5.337
0.209,0.060,0.268,-5.337
0.119,0.059,0.270,-5.337
0.144,0.057,0.270,-5.337
0.220,0.058,0.269,-5.337
0.252,0.066,0.265,-5.337
0.128,0.068,0.267,-5.337
0.027,0.064,0.270,-5.337
0.137,0.062,0.270,-5.337
0.179,0.064,0.269,-5.337
0.148,0.066,0.268,-5.337
0.220,0.061,0.268,-5.337
0.259,0.059,0.269,-5.337
0.184,0.057,0.271,-5.337
0.186,0.056,0.271,-5.337
0.157,0.057,0.271,-5.337
0.087,0.059,0.272,-5.337
0.127,0.055,0.271,-5.337
0.163,0.054,0.272,-5.337
0.103,0.057,0.270,-5.337
0.123,0.062,0.265,-5.337
0.229,0.060,0.264,-5.337
0.239,0.054,0.265,-5.337
0.244,0.056,0.265,-5.337
0.240,0.058,0.265,-5.337
0.233,0.063,0.266,-5.337
0.237,0.063,0.267,-5.337
0.209,0.061,0.270,-5.337
0.203,0.060,0.270,-5.337
0.143,0.063,0.272,-5.337
0.124,0.061,0.270,-5.337
0.203,0.060,0.269,-5.337
0.314,0.057,0.265,-5.337
0.292,0.061,0.262,-5.337
0.161,0.064,0.261,-5.337
0.094,0.063,0.263,-5.337
0.132,0.064,0.265,-5.337
0.184,0.068,0.270,-5.337
0.169,0.064,0.272,-5.337
0.247,0.063,0.270,-5.337
0.251,0.063,0.268,-5.337
0.220,0.067,0.268,-5.337
0.190,0.067,0.267,-5.337
0.227,0.065,0.269,-5.337
0.250,0.066,0.272,-5.337
0.209,0.063,0.268,-5.337
0.180,0.066,0.267,-5.337
0.197,0.067,0.267,-5.337
0.236,0.065,0.268,-5.337
0.192,0.065,0.267,-5.337
0.076,0.066,0.267,-5.337
0.081,0.067,0.268,-5.337
0.176,0.065,0.272,-5.337
0.190,0.065,0.273,-5.337
0.197,0.065,0.271,-5.337
0.199,0.067,0.267,-5.337
0.193,0.067,0.266,-5.337
0.190,0.064,0.266,-5.337
0.235,0.062,0.268,-5.337
0.252,0.063,0.266,-5.337
0.215,0.068,0.266,-5.337
0.130,0.068,0.267,-5.337
0.144,0.068,0.267,-5.337
0.245,0.065,0.270,-5.337
0.224,0.063,0.271,-5.337
0.227,0.065,0.273,-5.337
0.260,0.068,0.271,-5.337
0.256,0.068,0.265,-5.337
0.317,0.067,0.266,-5.337
0.329,0.065,0.268,-5.337
0.287,0.065,0.270,-5.337
0.198,0.067,0.270,-5.337
0.216,0.066,0.271,-5.337
0.206,0.064,0.271,-5.337
0.092,0.064,0.265,-5.337
0.144,0.064,0.265,-5.337
0.206,0.061,0.271,-5.337
0.211,0.060,0.274,-5.337
0.160,0.064,0.272,-5.337
0.144,0.062,0.269,-5.337
0.132,0.061,0.267,-5.337
0.146,0.062,0.266,-5.337
0.193,0.064,0.266,-5.337
0.175,0.067,0.264,-5.337
0.143,0.065,0.265,-5.337
0.172,0.066,0.268,-5.337
0.198,0.070,0.269,-5.337
0.189,0.072,0.266,-5.337
0.199,0.067,0.265,-5.337
0.203,0.066,0.268,-5.337
0.213,0.063,0.267,-5.337
0.250,0.065,0.266,-5.337
0.241,0.062,0.270,-5.337
0.264,0.058,0.273,-5.337
0.242,0.056,0.270,-5.337
0.251,0.056,0.265,-5.337
0.270,0.057,0.269,-5.337
0.265,0.058,0.273,-5.337
0.378,0.056,0.273,-5.337
0.357,0.055,0.271,-5.337
0.309,0.054,0.268,-5.337
0.281,0.053,0.267,-5.337
0.242,0.051,0.266,-5.337
0.214,0.053,0.265,-5.337
0.151,0.055,0.266,-5.337
0.140,0.054,0.270,-5.337
0.130,0.052,0.273,-5.337
0.132,0.053,0.271,-5.337
0.173,0.055,0.267,-5.337
0.174,0.053,0.264,-5.337
0.178,0.051,0.266,-5.337
0.168,0.052,0.268,-5.337
0.172,0.054,0.266,-5.337
0.199,0.056,0.266,-5.337
0.229,0.056,0.270,-5.337
0.241,0.054,0.271,-5.337
0.248,0.051,0.269,-5.337
0.236,0.048,0.269,-5.337
0.253,0.052,0.268,-5.337
0.263,0.055,0.268,-5.337
0.267,0.055,0.267,-5.337
0.261,0.055,0.267,-5.337
0.203,0.056,0.269,-5.337
0.145,0.058,0.271,-5.337
0.147,0.057,0.270,-5.337
0.139,0.056,0.269,-5.337
0.187,0.055,0.268,-5.337
0.209,0.057,0.269,-5.337
0.224,0.060,0.269,-5.337
0.230,0.057,0.271,-5.337
0.209,0.056,0.269,-5.337
0.207,0.057,0.268,-5.337
0.222,0.051,0.267,-5.337
0.143,0.054,0.265,-5.337
0.121,0.057,0.262,-5.337
0.146,0.055,0.261,-5.337
0.165,0.055,0.264,-5.337
0.182,0.055,0.271,-5.337
0.241,0.054,0.270,-5.337
0.234,0.051,0.268,-5.337
0.257,0.050,0.271,-5.337
0.265,0.051,0.267,-5.337
0.229,0.051,0.263,-5.337
0.189,0.052,0.263,-5.337
0.153,0.052,0.267,-5.337
0.207,0.053,0.273,-5.337
0.273,0.051,0.275,-5.337
0.191,0.055,0.271,-5.337
0.106,0.053,0.267,-5.337
0.181,0.048,0.265,-5.337
0.235,0.046,0.268,-5.337
0.272,0.050,0.269,-5.337
0.230,0.053,0.270,-5.337
0.240,0.048,0.266,-5.337
0.270,0.048,0.263,-5.337
0.270,0.050,0.265,-5.337
0.251,0.050,0.267,-5.337
0.239,0.046,0.269,-5.337
0.242,0.046,0.272,-5.337
0.231,0.046,0.271,-5.337
0.211,0.046,0.272,-5.337
0.197,0.046,0.271,-5.337
0.136,0.050,0.271,-5.337
0.124,0.047,0.271,-5.337
0.190,0.046,0.273,-5.337
0.241,0.044,0.268,-5.337
0.262,0.045,0.264,-5.337
0.268,0.044,0.265,-5.337
0.189,0.045,0.267,-5.337
0.123,0.046,0.268,-5.337
0.171,0.045,0.271,-5.337
0.282,0.044,0.270,-5.337
0.311,0.048,0.266,-5.337
0.187,0.051,0.268,-5.337
0.153,0.047,0.272,-5.337
0.265,0.047,0.273,-5.337
0.196,0.048,0.270,-5.337
0.141,0.051,0.270,-5.337
0.237,0.047,0.267,-5.337
0.261,0.047,0.268,-5.337
0.239,0.045,0.271,-5.337
0.252,0.048,0.272,-5.337
0.248,0.047,0.274,-5.337
0.237,0.051,0.274,-5.337
0.214,0.051,0.274,-5.337
0.206,0.051,0.273,-5.337
0.223,0.051,0.268,-5.337
0.248,0.049,0.266,-5.337
0.248,0.048,0.265,-5.337
0.250,0.048,0.272,-5.337
0.226,0.048,0.275,-5.337
0.239,0.048,0.273,-5.337
0.193,0.049,0.270,-5.337
0.152,0.050,0.270,-5.337
0.192,0.047,0.274,-5.337
0.252,0.045,0.271,-5.337
0.227,0.050,0.273,-5.337
0.230,0.049,0.274,-5.337
0.266,0.051,0.275,-5.337
0.167,0.049,0.268,-5.337
0.044,0.048,0.266,-5.337
0.118,0.047,0.272,-5.337
0.160,0.042,0.275,-5.337
0.199,0.038,0.273,-5.337
0.218,0.041,0.270,-5.337
0.171,0.046,0.271,-5.337
0.139,0.046,0.271,-5.337
0.197,0.046,0.268,-5.337
0.197,0.050,0.268,-5.337
0.218,0.046,0.269,-5.337
0.274,0.043,0.271,-5.337
0.282,0.046,0.272,-5.337
0.212,0.049,0.273,-5.337
0.190,0.046,0.275,-5.337
0.219,0.044,0.274,-5.337
0.271,0.045,0.271,-5.337
0.292,0.046,0.266,-5.337
0.282,0.050,0.264,-5.337
0.232,0.051,0.266,-5.337
0.104,0.047,0.270,-5.337
0.161,0.045,0.273,-5.337
0.273,0.046,0.274,-5.337
0.284,0.049,0.274,-5.337
0.234,0.049,0.271,-5.337
0.213,0.048,0.266,-5.337
0.287,0.043,0.266,-5.337
0.276,0.040,0.265,-5.337
0.213,0.047,0.267,-5.337
0.251,0.047,0.269,-5.337
0.331,0.042,0.273,-5.337
0.307,0.044,0.277,-5.337
0.301,0.046,0.277,-5.337
0.284,0.047,0.276,-5.337
0.275,0.045,0.274,-5.337
0.208,0.048,0.275,-5.337
0.148,0.045,0.273,-5.337
0.135,0.043,0.268,-5.337
0.168,0.043,0.268,-5.337
0.238,0.042,0.269,-5.337
0.232,0.041,0.271,-5.337
0.224,0.037,0.272,-5.337
0.241,0.037,0.270,-5.337
0.297,0.040,0.269,-5.337
0.349,0.045,0.266,-5.337
0.306,0.046,0.269,-5.337
0.258,0.043,0.271,-5.337
0.269,0.044,0.271,-5.337
0.230,0.041,0.273,-5.337
0.197,0.040,0.275,-5.337
0.224,0.041,0.273,-5.337
0.306,0.042,0.269,-5.337
0.351,0.041,0.268,-5.337
0.278,0.045,0.267,-5.337
0.211,0.043,0.264,-5.337
0.234,0.042,0.266,-5.337
0.200,0.043,0.269,-5.337
0.166,0.042,0.269,-5.337
0.191,0.039,0.270,-5.337
0.220,0.039,0.272,-5.337
0.242,0.038,0.273,-5.337
0.251,0.037,0.272,-5.337
0.223,0.041,0.271,-5.337
0.257,0.040,0.268,-5.337
0.289,0.041,0.270,-5.337
0.284,0.040,0.273,-5.337
0.207,0.040,0.273,-5.337
0.207,0.037,0.272,-5.337
0.285,0.035,0.268,-5.337
0.293,0.036,0.266,-5.337
0.281,0.039,0.271,-5.337
0.209,0.041,0.273,-5.337
0.143,0.043,0.271,-5.337
0.133,0.045,0.268,-5.337
0.185,0.048,0.270,-5.337
0.230,0.048,0.271,-5.337
0.246,0.045,0.273,-5.337
0.218,0.039,0.267,-5.337
0.225,0.041,0.266,-5.337
0.155,0.043,0.270,-5.337
0.141,0.042,0.275,-5.337
0.216,0.039,0.273,-5.337
0.204,0.040,0.266,-5.337
0.174,0.042,0.264,-5.337
0.203,0.043,0.268,-5.337
0.186,0.041,0.270,-5.337
0.158,0.042,0.270,-5.337
0.165,0.044,0.268,-5.337
0.237,0.043,0.269,-5.337
0.311,0.041,0.269,-5.337
0.291,0.040,0.264,-5.337
0.214,0.038,0.263,-5.337
0.194,0.037,0.267,-5.337
0.192,0.038,0.272,-5.337
0.212,0.038,0.273,-5.337
0.254,0.038,0.271,-5.337
0.272,0.037,0.267,-5.337
0.290,0.033,0.265,-5.337
0.251,0.034,0.268,-5.337
0.201,0.040,0.271,-5.337
0.227,0.040,0.270,-5.337
0.234,0.039,0.269,-5.337
0.285,0.041,0.269,-5.337
0.282,0.043,0.266,-5.337
0.296,0.038,0.264,-5.337
0.293,0.039,0.269,-5.337
0.221,0.041,0.277,-5.337
0.233,0.040,0.278,-5.337
0.222,0.039,0.271,-5.337
0.235,0.036,0.263,-5.337
0.232,0.039,0.263,-5.337
0.160,0.045,0.268,-5.337
0.082,0.045,0.273,-5.337
0.145,0.042,0.275,-5.337
0.248,0.040,0.270,-5.337
0.271,0.043,0.267,-5.337
0.212,0.046,0.269,-5.337
0.208,0.046,0.271,-5.337
0.188,0.043,0.272,-5.337
0.196,0.038,0.269,-5.337
0.270,0.041,0.272,-5.337
0.287,0.042,0.274,-5.337
0.279,0.042,0.272,-5.337
0.240,0.041,0.268,-5.337
0.252,0.041,0.272,-5.337
0.238,0.044,0.273,-5.337
0.150,0.047,0.270,-5.337
0.121,0.045,0.269,-5.337
0.138,0.043,0.267,-5.337
0.215,0.040,0.266,-5.337
0.343,0.039,0.266,-5.337
0.344,0.038,0.266,-5.337
0.274,0.039,0.271,-5.337
0.253,0.038,0.272,-5.337
0.269,0.039,0.272,-5.337
0.212,0.041,0.271,-5.337
0.166,0.042,0.272,-5.337
0.195,0.043,0.274,-5.337
0.232,0.041,0.270,-5.337
0.195,0.041,0.267,-5.337
0.166,0.040,0.265,-5.337
0.166,0.043,0.266,-5.337
0.229,0.042,0.268,-5.337
0.289,0.042,0.273,-5.337
0.225,0.041,0.275,-5.337
0.174,0.043,0.272,-5.337
0.209,0.040,0.268,-5.337
0.221,0.041,0.267,-5.337
0.150,0.042,0.264,-5.337
0.104,0.043,0.270,-5.337
0.148,0.041,0.276,-5.337
0.253,0.041,0.279,-5.337
0.240,0.044,0.278,-5.337
0.188,0.049,0.275,-5.337
0.195,0.049,0.267,-5.337
0.168,0.049,0.264,-5.337
0.140,0.048,0.265,-5.337
0.118,0.051,0.268,-5.337
0.217,0.049,0.271,-5.337
0.225,0.049,0.270,-5.337
0.226,0.042,0.267,-5.337
0.319,0.042,0.265,-5.337
0.320,0.047,0.267,-5.337
0.201,0.049,0.268,-5.337
0.101,0.050,0.272,-5.337
0.097,0.048,0.272,-5.337
0.155,0.049,0.274,-5.337
0.176,0.047,0.274,-5.337
0.196,0.046,0.276,-5.337
0.206,0.048,0.274,-5.337
0.244,0.049,0.275,-5.337
0.224,0.050,0.270,-5.337
0.229,0.047,0.268,-5.337
0.283,0.044,0.269,-5.337
0.260,0.047,0.271,-5.337
0.210,0.050,0.270,-5.337
0.229,0.047,0.271,-5.337
0.210,0.042,0.271,-5.337
0.207,0.042,0.269,-5.337
0.221,0.043,0.268,-5.337
0.293,0.045,0.269,-5.337
0.192,0.045,0.271,-5.337
0.077,0.043,0.276,-5.337
0.093,0.043,0.279,-5.337
0.124,0.047,0.275,-5.337
0.151,0.050,0.270,-5.337
0.188,0.051,0.267,-5.337
0.225,0.047,0.267,-5.337
0.215,0.044,0.267,-5.337
0.212,0.043,0.269,-5.337
0.267,0.045,0.269,-5.337
0.269,0.045,0.268,-5.337
0.164,0.049,0.270,-5.337
0.226,0.048,0.275,-5.337
0.376,0.042,0.273,-5.337
0.310,0.040,0.270,-5.337
0.141,0.043,0.266,-5.337
0.116,0.050,0.265,-5.337
0.231,0.047,0.264,-5.337
0.278,0.045,0.267,-5.337
0.277,0.043,0.269,-5.337
0.225,0.048,0.271,-5.337
0.154,0.050,0.273,-5.337
0.183,0.051,0.275,-5.337
0.209,0.053,0.272,-5.337
0.147,0.055,0.268,-5.337
0.217,0.049,0.267,-5.337
0.257,0.049,0.268,-5.337
0.201,0.051,0.273,-5.337
0.164,0.056,0.277,-5.337
0.143,0.058,0.274,-5.337
0.185,0.050,0.270,-5.337
0.235,0.050,0.269,-5.337
0.261,0.053,0.270,-5.337
0.149,0.052,0.273,-5.337
0.232,0.051,0.272,-5.337
0.327,0.048,0.269,-5.337
0.323,0.050,0.267,-5.337
0.216,0.056,0.267,-5.337
0.104,0.059,0.267,-5.337
0.138,0.055,0.269,-5.337
0.128,0.051,0.269,-5.337
0.124,0.052,0.268,-5.337
0.117,0.054,0.268,-5.337
0.156,0.052,0.270,-5.337
0.239,0.052,0.272,-5.337
0.230,0.050,0.273,-5.337
0.144,0.049,0.268,-5.337
0.020,0.052,0.264,-5.337
0.029,0.051,0.261,-5.337
0.157,0.048,0.264,-5.337
0.251,0.048,0.267,-5.337
0.219,0.047,0.269,-5.337
0.167,0.050,0.272,-5.337
0.184,0.050,0.274,-5.337
0.228,0.050,0.275,-5.337
0.182,0.053,0.272,-5.337
0.113,0.053,0.269,-5.337
0.164,0.053,0.270,-5.337
0.266,0.053,0.271,-5.337
0.211,0.055,0.273,-5.337
0.224,0.056,0.276,-5.337
0.228,0.057,0.274,-5.337
0.165,0.054,0.274,-5.337
0.151,0.052,0.272,-5.337
0.241,0.053,0.273,-5.337
0.254,0.055,0.274,-5.337
0.246,0.053,0.275,-5.337
0.247,0.049,0.271,-5.337
0.243,0.053,0.267,-5.337
0.191,0.057,0.262,-5.337
0.116,0.059,0.263,-5.337
0.105,0.056,0.269,-5.337
0.193,0.052,0.274,-5.337
0.216,0.055,0.277,-5.337
0.152,0.058,0.277,-5.337
0.123,0.058,0.277,-5.337
0.132,0.060,0.275,-5.337
0.162,0.061,0.273,-5.337
0.184,0.057,0.270,-5.337
0.155,0.057,0.268,-5.337
0.149,0.056,0.266,-5.337
0.174,0.053,0.269,-5.337
0.262,0.049,0.268,-5.337
0.293,0.055,0.268,-5.337
0.225,0.060,0.269,-5.337
0.117,0.059,0.271,-5.337
0.121,0.055,0.272,-5.337
0.193,0.055,0.274,-5.337
0.315,0.057,0.271,-5.337
0.365,0.058,0.267,-5.337
0.249,0.060,0.267,-5.337
