[Parameters]
Operating Mode, Feedback
Subject  AA..ZZ, WT
Session  0..99, 42
No. Trials (1..9999), 500
Mouse Number, 1
Pressure Probe Serial Port, \00\00\00\04COM4
Save additional csv file, TRUE
Save using mouse number, FALSE
A/D Monitor Rate (Hz), 30000.000000
A/D Stimulate Rate (Hz), 30000.000000
A/D input range (+/- V), 5
No. Channels to acquire (N), 2
Pre-Stim Acq. time (ms), 100.000000
Post-Stim Acq. time (ms), 900.000000
Analysis window parameters.M-response Start (ms), 1.100000
Analysis window parameters.M-response Duration (ms), 5.500000
Analysis window parameters.H-response Duration (ms), 6.000000
Analysis window parameters.H-response Start (ms), 6.500000
Feedback window, H response
Proportional gain, 0.100000
Target value, 6.700000
Feedback Ch., 1
Stim Channel to Control (1-4), 4
Trial, 23
Wait for EMG Conditions, FALSE
Channel to monitor (0 - N-1), 1
EMG Hi Limit, 2.000000
EMG Lo Limit, 0.001000
Inter-Stim delay (sec), 10.000000
EMG Monitor Mode, Mean
Time to run Long Stim.(sec), 30
Save Long Stim Data?, OFF
BURST Save time (ms), 1000
BURST Save Interval (x above), 10
Long-Stim. Rep. Rate (Hz), 10.000000
Stim type cluster array.<size(s)>, 4
Stim type cluster array 0.Stimulus Output, Electrical
Stim type cluster array 1.Stimulus Output, OFF
Stim type cluster array 2.Stimulus Output, OFF
Stim type cluster array 3.Stimulus Output, Motor Length
Stim specs cluster array.<size(s)>, 4
Stim specs cluster array 0.Initial Stimulus ampl., 0.300000
Stim specs cluster array 0.Maximum Stimulus, 1.120000
Stim specs cluster array 0.#Pulses in train, 4
Stim specs cluster array 0.Peak Level time (ms), 1.000000
Stim specs cluster array 0.Total pulse period (ms), 150.000000
Stim specs cluster array 0.Start Delay (ms), -50.000000
Stim specs cluster array 0.Pulse Shape, Square
Stim specs cluster array 0.Ramp/Rel. time (ms), 0.100000
Stim specs cluster array 0.Peak Amplitude (V), 0.120000
Stim specs cluster array 1.Initial Stimulus ampl., 0.000000
Stim specs cluster array 1.Maximum Stimulus, 0.000000
Stim specs cluster array 1.#Pulses in train, 3
Stim specs cluster array 1.Peak Level time (ms), 29.000000
Stim specs cluster array 1.Total pulse period (ms), 200.000000
Stim specs cluster array 1.Start Delay (ms), 0.000000
Stim specs cluster array 1.Pulse Shape, Square
Stim specs cluster array 1.Ramp/Rel. time (ms), 0.000000
Stim specs cluster array 1.Peak Amplitude (V), 2.000000
Stim specs cluster array 2.Initial Stimulus ampl., 0.000000
Stim specs cluster array 2.Maximum Stimulus, 0.000000
Stim specs cluster array 2.#Pulses in train, 1
Stim specs cluster array 2.Peak Level time (ms), 25.000000
Stim specs cluster array 2.Total pulse period (ms), 200.000000
Stim specs cluster array 2.Start Delay (ms), 0.000000
Stim specs cluster array 2.Pulse Shape, Square
Stim specs cluster array 2.Ramp/Rel. time (ms), 20.000000
Stim specs cluster array 2.Peak Amplitude (V), 10.000000
Stim specs cluster array 3.Initial Stimulus ampl., 0.000000
Stim specs cluster array 3.Maximum Stimulus, 20.000000
Stim specs cluster array 3.#Pulses in train, 25
Stim specs cluster array 3.Peak Level time (ms), 0.100000
Stim specs cluster array 3.Total pulse period (ms), 4.000000
Stim specs cluster array 3.Start Delay (ms), 205.000000
Stim specs cluster array 3.Pulse Shape, Triangle
Stim specs cluster array 3.Ramp/Rel. time (ms), 3.000000
Stim specs cluster array 3.Peak Amplitude (V), 0.500000
Force cal. (mN/Volt), 100.000000
Force Range (mN), 100.000000
Length cal. (mm/Volt), 10.000000
Length Range (mm), 10.000000
Stim. 1, 0.300000
Stim. 2, 0.000000
Stim. 3, 0.000000
Stim. 4, 0.000000
Monitor acquire time (ms), 100.000000
EMG graph Ymax, 0.100000
Travel limit (mm), 20.000000
Use Pressure Probe, FALSE
Pressure goal (g), 100
Speed (mm/sec), 5.000000
Dwell time (ms), 100.000000
Pressure limit (g), 500.000000
Channel amplitude offset, 0.000000

[DATA]

0.338,0.028,0.367,-5.337
0.443,0.024,0.368,-5.337
1.436,0.014,0.367,-5.337
2.891,0.008,0.366,-5.337
3.491,0.008,0.369,-5.337
3.487,0.011,0.374,-5.337
3.446,0.007,0.376,-5.337
3.425,0.006,0.374,-5.337
3.322,0.005,0.372,-5.337
3.185,0.006,0.372,-5.337
3.087,0.003,0.374,-5.337
2.991,0.002,0.372,-5.337
2.886,0.000,0.370,-5.337
2.843,0.002,0.375,-5.337
2.725,0.004,0.377,-5.337
2.638,0.004,0.375,-5.337
2.459,0.005,0.372,-5.337
2.274,0.004,0.371,-5.337
2.204,0.006,0.369,-5.337
2.112,0.005,0.365,-5.337
1.997,-0.003,0.363,-5.337
1.924,-0.004,0.361,-5.337
1.889,-0.003,0.363,-5.337
1.802,-0.003,0.364,-5.337
1.766,-0.005,0.364,-5.337
1.713,-0.008,0.364,-5.337
1.632,-0.006,0.363,-5.337
1.560,-0.005,0.362,-5.337
1.521,-0.005,0.366,-5.337
1.546,-0.007,0.367,-5.337
1.541,-0.003,0.367,-5.337
1.466,-0.006,0.364,-5.337
1.386,-0.003,0.362,-5.337
1.324,-0.004,0.361,-5.337
1.354,-0.007,0.362,-5.337
1.362,-0.008,0.361,-5.337
1.276,-0.012,0.359,-5.337
1.216,-0.018,0.360,-5.337
1.313,-0.026,0.361,-5.337
1.396,-0.036,0.362,-5.337
1.398,-0.050,0.361,-5.337
1.274,-0.065,0.363,-5.337
1.299,-0.081,0.363,-5.337
1.435,-0.090,0.364,-5.337
1.502,-0.104,0.363,-5.337
1.507,-0.120,0.361,-5.337
1.452,-0.136,0.360,-5.337
1.375,-0.153,0.365,-5.337
1.293,-0.177,0.361,-5.337
1.327,-0.207,0.357,-5.337
1.328,-0.246,0.352,-5.337
1.335,-0.287,0.353,-5.337
1.350,-0.330,0.356,-5.337
1.291,-0.360,0.356,-5.337
1.155,-0.371,0.353,-5.337
1.062,-0.373,0.354,-5.337
0.975,-0.376,0.354,-5.337
0.942,-0.371,0.352,-5.337
0.891,-0.351,0.354,-5.337
0.848,-0.311,0.357,-5.337
0.845,-0.256,0.356,-5.337
0.760,-0.194,0.357,-5.337
0.669,-0.145,0.360,-5.337
0.558,-0.097,0.360,-5.337
0.570,-0.049,0.359,-5.337
0.601,0.008,0.360,-5.337
0.587,0.067,0.358,-5.337
0.466,0.132,0.351,-5.337
0.388,0.202,0.349,-5.337
0.469,0.261,0.353,-5.337
0.469,0.307,0.355,-5.337
0.461,0.336,0.356,-5.337
0.500,0.348,0.358,-5.337
0.500,0.341,0.353,-5.337
0.510,0.319,0.351,-5.337
0.539,0.284,0.350,-5.337
0.435,0.246,0.350,-5.337
0.366,0.205,0.353,-5.337
0.430,0.159,0.352,-5.337
0.475,0.117,0.349,-5.337
0.431,0.083,0.348,-5.337
0.374,0.057,0.350,-5.337
0.430,0.041,0.353,-5.337
0.452,0.031,0.352,-5.337
0.390,0.030,0.349,-5.337
0.363,0.036,0.352,-5.337
0.371,0.045,0.352,-5.337
0.298,0.060,0.347,-5.337
0.231,0.074,0.343,-5.337
0.280,0.087,0.346,-5.337
0.345,0.101,0.351,-5.337
0.328,0.115,0.352,-5.337
0.310,0.120,0.351,-5.337
0.396,0.125,0.353,-5.337
0.462,0.126,0.353,-5.337
0.427,0.129,0.350,-5.337
0.387,0.125,0.345,-5.337
0.394,0.122,0.345,-5.337
0.413,0.116,0.348,-5.337
0.397,0.110,0.347,-5.337
0.358,0.100,0.346,-5.337
0.306,0.088,0.345,-5.337
0.334,0.081,0.342,-5.337
0.376,0.075,0.343,-5.337
0.401,0.065,0.350,-5.337
0.377,0.057,0.353,-5.337
0.331,0.049,0.351,-5.337
0.300,0.046,0.345,-5.337
0.365,0.043,0.340,-5.337
0.392,0.038,0.338,-5.337
0.437,0.033,0.341,-5.337
0.435,0.027,0.341,-5.337
0.317,0.024,0.342,-5.337
0.308,0.021,0.342,-5.337
0.371,0.019,0.344,-5.337
0.355,0.017,0.343,-5.337
0.354,0.014,0.347,-5.337
0.405,0.012,0.351,-5.337
0.378,0.011,0.346,-5.337
0.334,0.009,0.339,-5.337
0.356,0.009,0.332,-5.337
0.353,0.004,0.335,-5.337
0.347,0.003,0.340,-5.337
0.373,0.002,0.341,-5.337
0.354,0.005,0.342,-5.337
0.429,0.002,0.340,-5.337
0.359,-0.003,0.341,-5.337
0.273,-0.004,0.341,-5.337
0.249,0.002,0.341,-5.337
0.260,0.000,0.343,-5.337
0.343,-0.001,0.339,-5.337
0.369,-0.001,0.336,-5.337
0.355,-0.001,0.337,-5.337
0.373,0.001,0.345,-5.337
0.365,0.003,0.345,-5.337
0.361,-0.001,0.340,-5.337
0.445,-0.004,0.333,-5.337
0.401,-0.001,0.331,-5.337
0.293,0.002,0.333,-5.337
0.242,0.000,0.335,-5.337
0.271,-0.002,0.335,-5.337
0.328,0.001,0.335,-5.337
0.291,0.003,0.338,-5.337
0.215,0.004,0.335,-5.337
0.160,0.004,0.335,-5.337
0.124,0.003,0.339,-5.337
0.178,0.002,0.342,-5.337
0.285,0.002,0.339,-5.337
0.261,0.000,0.335,-5.337
0.266,0.003,0.334,-5.337
0.304,0.002,0.338,-5.337
0.240,0.002,0.339,-5.337
0.194,0.003,0.336,-5.337
0.168,-0.000,0.335,-5.337
0.175,0.002,0.337,-5.337
0.239,0.004,0.336,-5.337
0.313,0.001,0.336,-5.337
0.369,0.002,0.336,-5.337
0.347,0.001,0.337,-5.337
0.310,-0.000,0.336,-5.337
0.248,0.001,0.336,-5.337
0.208,0.001,0.334,-5.337
0.237,-0.001,0.332,-5.337
0.311,0.003,0.327,-5.337
0.201,0.007,0.328,-5.337
0.171,0.003,0.330,-5.337
0.240,0.004,0.334,-5.337
0.239,0.004,0.337,-5.337
0.201,0.006,0.338,-5.337
0.175,0.008,0.334,-5.337
0.231,0.006,0.332,-5.337
0.245,0.004,0.332,-5.337
0.268,0.006,0.332,-5.337
0.176,0.006,0.332,-5.337
0.111,0.007,0.331,-5.337
0.088,0.012,0.331,-5.337
0.117,0.013,0.333,-5.337
0.204,0.014,0.333,-5.337
0.201,0.013,0.331,-5.337
0.130,0.007,0.330,-5.337
0.140,0.010,0.332,-5.337
0.090,0.011,0.334,-5.337
0.053,0.008,0.332,-5.337
0.072,0.006,0.332,-5.337
0.069,0.007,0.331,-5.337
0.104,0.009,0.332,-5.337
0.143,0.005,0.332,-5.337
0.096,0.003,0.334,-5.337
0.160,0.004,0.335,-5.337
0.229,0.004,0.334,-5.337
0.211,0.007,0.333,-5.337
0.172,0.007,0.331,-5.337
0.157,0.006,0.327,-5.337
0.123,0.006,0.327,-5.337
0.092,0.009,0.329,-5.337
0.038,0.009,0.333,-5.337
0.115,0.007,0.338,-5.337
0.246,0.010,0.336,-5.337
0.232,0.015,0.331,-5.337
0.173,0.018,0.323,-5.337
0.117,0.020,0.320,-5.337
0.102,0.018,0.317,-5.337
0.129,0.016,0.320,-5.337
0.166,0.015,0.324,-5.337
0.272,0.014,0.332,-5.337
0.227,0.017,0.333,-5.337
0.109,0.020,0.332,-5.337
0.149,0.018,0.330,-5.337
0.254,0.018,0.330,-5.337
0.225,0.016,0.329,-5.337
0.162,0.018,0.326,-5.337
0.078,0.019,0.326,-5.337
0.120,0.017,0.329,-5.337
0.194,0.017,0.327,-5.337
0.197,0.020,0.325,-5.337
0.174,0.022,0.323,-5.337
0.277,0.019,0.326,-5.337
0.240,0.019,0.325,-5.337
0.158,0.020,0.321,-5.337
0.129,0.017,0.320,-5.337
0.111,0.022,0.322,-5.337
0.061,0.023,0.324,-5.337
0.079,0.025,0.323,-5.337
0.169,0.024,0.320,-5.337
0.189,0.023,0.322,-5.337
0.107,0.025,0.328,-5.337
0.071,0.026,0.326,-5.337
0.112,0.029,0.319,-5.337
0.137,0.027,0.316,-5.337
0.216,0.028,0.317,-5.337
0.251,0.029,0.320,-5.337
0.183,0.028,0.322,-5.337
0.062,0.026,0.320,-5.337
0.066,0.029,0.319,-5.337
0.146,0.028,0.319,-5.337
0.147,0.028,0.321,-5.337
0.095,0.028,0.324,-5.337
0.104,0.029,0.321,-5.337
0.148,0.028,0.319,-5.337
0.193,0.030,0.319,-5.337
0.188,0.029,0.319,-5.337
0.156,0.028,0.322,-5.337
0.131,0.029,0.321,-5.337
0.114,0.030,0.320,-5.337
0.097,0.031,0.320,-5.337
0.094,0.030,0.320,-5.337
0.118,0.029,0.322,-5.337
0.147,0.028,0.317,-5.337
0.175,0.028,0.312,-5.337
0.121,0.031,0.314,-5.337
0.059,0.034,0.319,-5.337
0.003,0.031,0.322,-5.337
-0.025,0.033,0.321,-5.337
0.072,0.031,0.321,-5.337
0.163,0.032,0.317,-5.337
0.175,0.031,0.316,-5.337
0.231,0.032,0.319,-5.337
0.196,0.029,0.319,-5.337
0.161,0.031,0.316,-5.337
0.109,0.036,0.316,-5.337
0.037,0.033,0.318,-5.337
0.025,0.029,0.320,-5.337
0.124,0.029,0.319,-5.337
0.116,0.031,0.315,-5.337
0.030,0.034,0.313,-5.337
0.049,0.036,0.318,-5.337
0.105,0.036,0.320,-5.337
0.115,0.036,0.321,-5.337
0.107,0.033,0.320,-5.337
0.080,0.038,0.319,-5.337
0.049,0.039,0.317,-5.337
0.026,0.037,0.318,-5.337
0.074,0.040,0.315,-5.337
0.097,0.040,0.316,-5.337
0.056,0.042,0.316,-5.337
-0.050,0.041,0.317,-5.337
0.002,0.036,0.318,-5.337
0.156,0.036,0.317,-5.337
0.103,0.036,0.318,-5.337
-0.001,0.037,0.318,-5.337
0.042,0.035,0.318,-5.337
0.080,0.034,0.316,-5.337
-0.008,0.032,0.316,-5.337
-0.012,0.032,0.318,-5.337
0.049,0.031,0.316,-5.337
0.028,0.028,0.319,-5.337
-0.015,0.029,0.318,-5.337
0.049,0.031,0.312,-5.337
0.094,0.031,0.311,-5.337
0.012,0.031,0.312,-5.337
0.027,0.034,0.316,-5.337
0.147,0.034,0.317,-5.337
0.091,0.032,0.320,-5.337
0.054,0.032,0.317,-5.337
0.112,0.032,0.317,-5.337
0.092,0.026,0.314,-5.337
0.095,0.011,0.317,-5.337
0.074,-0.004,0.314,-5.337
0.066,-0.008,0.313,-5.337
0.031,-0.003,0.316,-5.337
0.054,0.012,0.319,-5.337
0.117,0.023,0.316,-5.337
0.087,0.035,0.312,-5.337
0.091,0.049,0.313,-5.337
0.062,0.063,0.314,-5.337
0.036,0.075,0.317,-5.337
0.105,0.093,0.320,-5.337
0.118,0.104,0.317,-5.337
0.057,0.112,0.314,-5.337
-0.003,0.114,0.313,-5.337
0.015,0.110,0.316,-5.337
0.111,0.103,0.316,-5.337
0.120,0.103,0.311,-5.337
0.099,0.101,0.312,-5.337
0.092,0.098,0.314,-5.337
0.143,0.093,0.317,-5.337
0.126,0.083,0.316,-5.337
0.075,0.079,0.316,-5.337
0.060,0.076,0.315,-5.337
0.083,0.075,0.317,-5.337
0.093,0.073,0.316,-5.337
0.099,0.072,0.315,-5.337
0.101,0.069,0.314,-5.337
0.093,0.067,0.316,-5.337
0.128,0.059,0.314,-5.337
0.177,0.054,0.311,-5.337
0.171,0.058,0.308,-5.337
0.121,0.061,0.308,-5.337
0.093,0.059,0.313,-5.337
0.067,0.058,0.317,-5.337
0.075,0.057,0.316,-5.337
0.021,0.062,0.315,-5.337
-0.073,0.063,0.316,-5.337
-0.017,0.059,0.319,-5.337
0.079,0.057,0.317,-5.337
0.118,0.059,0.315,-5.337
0.121,0.060,0.310,-5.337
0.062,0.060,0.307,-5.337
0.037,0.063,0.308,-5.337
0.135,0.057,0.310,-5.337
0.143,0.055,0.313,-5.337
0.024,0.055,0.315,-5.337
0.036,0.058,0.317,-5.337
0.150,0.060,0.318,-5.337
0.168,0.059,0.319,-5.337
0.120,0.059,0.318,-5.337
0.040,0.060,0.318,-5.337
0.131,0.055,0.318,-5.337
0.230,0.058,0.316,-5.337
0.178,0.059,0.308,-5.337
0.196,0.059,0.307,-5.337
0.247,0.057,0.309,-5.337
0.119,0.059,0.316,-5.337
-0.000,0.057,0.320,-5.337
0.076,0.058,0.321,-5.337
0.128,0.055,0.316,-5.337
0.132,0.055,0.312,-5.337
0.137,0.054,0.313,-5.337
0.153,0.056,0.315,-5.337
0.086,0.054,0.317,-5.337
0.113,0.052,0.315,-5.337
0.156,0.056,0.314,-5.337
0.158,0.058,0.316,-5.337
0.078,0.057,0.316,-5.337
0.000,0.057,0.312,-5.337
0.046,0.055,0.307,-5.337
0.077,0.054,0.310,-5.337
0.110,0.055,0.309,-5.337
0.079,0.054,0.310,-5.337
0.062,0.053,0.313,-5.337
0.075,0.054,0.315,-5.337
0.163,0.056,0.317,-5.337
0.176,0.053,0.314,-5.337
0.152,0.054,0.312,-5.337
0.069,0.055,0.313,-5.337
0.043,0.049,0.315,-5.337
0.029,0.049,0.312,-5.337
0.056,0.049,0.309,-5.337
0.075,0.050,0.314,-5.337
0.086,0.049,0.312,-5.337
0.137,0.048,0.315,-5.337
0.116,0.049,0.314,-5.337
0.048,0.055,0.316,-5.337
0.060,0.053,0.318,-5.337
0.106,0.053,0.318,-5.337
0.082,0.050,0.311,-5.337
0.013,0.054,0.310,-5.337
0.008,0.053,0.315,-5.337
0.148,0.053,0.317,-5.337
0.201,0.052,0.315,-5.337
0.165,0.056,0.313,-5.337
0.148,0.058,0.311,-5.337
0.137,0.060,0.313,-5.337
0.124,0.058,0.314,-5.337
0.158,0.060,0.314,-5.337
0.175,0.061,0.313,-5.337
0.161,0.061,0.311,-5.337
0.129,0.058,0.315,-5.337
0.182,0.053,0.318,-5.337
0.193,0.053,0.317,-5.337
0.082,0.055,0.315,-5.337
-0.004,0.055,0.316,-5.337
0.063,0.055,0.313,-5.337
0.137,0.055,0.309,-5.337
0.121,0.056,0.306,-5.337
0.168,0.056,0.310,-5.337
0.119,0.058,0.312,-5.337
0.048,0.059,0.313,-5.337
0.047,0.053,0.313,-5.337
0.006,0.053,0.314,-5.337
-0.041,0.056,0.314,-5.337
-0.004,0.054,0.315,-5.337
0.056,0.048,0.314,-5.337
0.131,0.048,0.318,-5.337
0.160,0.048,0.319,-5.337
0.170,0.049,0.318,-5.337
0.187,0.045,0.315,-5.337
0.224,0.044,0.316,-5.337
0.244,0.045,0.317,-5.337
0.147,0.045,0.314,-5.337
0.060,0.045,0.311,-5.337
0.045,0.045,0.311,-5.337
0.070,0.046,0.315,-5.337
0.084,0.043,0.318,-5.337
-0.002,0.042,0.316,-5.337
-0.061,0.043,0.316,-5.337
0.052,0.046,0.319,-5.337
0.193,0.046,0.316,-5.337
0.135,0.047,0.313,-5.337
0.134,0.044,0.312,-5.337
0.174,0.042,0.316,-5.337
0.124,0.043,0.316,-5.337
0.054,0.046,0.315,-5.337
0.004,0.044,0.315,-5.337
0.073,0.045,0.319,-5.337
0.128,0.043,0.322,-5.337
0.115,0.044,0.319,-5.337
0.096,0.043,0.314,-5.337
0.100,0.044,0.312,-5.337
0.142,0.041,0.317,-5.337
0.133,0.043,0.322,-5.337
0.071,0.042,0.323,-5.337
0.058,0.044,0.322,-5.337
0.071,0.048,0.322,-5.337
0.011,0.051,0.325,-5.337
0.017,0.047,0.320,-5.337
0.054,0.048,0.314,-5.337
0.040,0.048,0.313,-5.337
0.093,0.044,0.314,-5.337
0.105,0.043,0.320,-5.337
0.094,0.041,0.324,-5.337
0.051,0.042,0.321,-5.337
0.032,0.042,0.318,-5.337
0.015,0.039,0.323,-5.337
0.096,0.036,0.325,-5.337
0.132,0.034,0.321,-5.337
0.074,0.034,0.319,-5.337
0.135,0.033,0.320,-5.337
0.117,0.033,0.318,-5.337
0.072,0.029,0.317,-5.337
0.044,0.029,0.322,-5.337
0.015,0.029,0.326,-5.337
0.087,0.030,0.325,-5.337
0.180,0.031,0.323,-5.337
0.185,0.040,0.321,-5.337
0.213,0.047,0.320,-5.337
0.166,0.050,0.323,-5.337
0.108,0.050,0.324,-5.337
0.201,0.048,0.324,-5.337
0.213,0.046,0.324,-5.337
0.158,0.048,0.324,-5.337
0.089,0.046,0.322,-5.337
0.109,0.039,0.323,-5.337
0.146,0.031,0.325,-5.337
0.166,0.025,0.328,-5.337
0.172,0.019,0.327,-5.337
0.150,0.015,0.326,-5.337
0.117,0.006,0.324,-5.337
-0.005,0.005,0.322,-5.337
0.017,0.002,0.318,-5.337
0.092,0.002,0.319,-5.337
0.055,0.000,0.317,-5.337
0.070,0.000,0.319,-5.337
0.038,0.003,0.323,-5.337
-0.002,0.003,0.324,-5.337
0.013,0.003,0.322,-5.337
0.042,0.007,0.323,-5.337
0.034,0.013,0.321,-5.337
0.040,0.019,0.319,-5.337
0.074,0.021,0.319,-5.337
0.114,0.023,0.320,-5.337
0.084,0.026,0.321,-5.337
0.035,0.032,0.323,-5.337
0.011,0.035,0.323,-5.337
0.001,0.037,0.318,-5.337
0.010,0.035,0.316,-5.337
-0.016,0.033,0.317,-5.337
0.072,0.037,0.323,-5.337
0.116,0.039,0.323,-5.337
0.054,0.042,0.321,-5.337
-0.045,0.042,0.323,-5.337
0.044,0.040,0.325,-5.337
0.163,0.036,0.320,-5.337
0.157,0.039,0.321,-5.337
0.142,0.044,0.324,-5.337
0.086,0.045,0.326,-5.337
0.022,0.041,0.322,-5.337
0.025,0.042,0.322,-5.337
0.111,0.042,0.325,-5.337
0.121,0.043,0.322,-5.337
0.110,0.044,0.321,-5.337
0.123,0.044,0.320,-5.337
0.060,0.044,0.321,-5.337
0.019,0.045,0.323,-5.337
0.056,0.045,0.327,-5.337
0.091,0.042,0.327,-5.337
0.087,0.041,0.328,-5.337
0.079,0.041,0.321,-5.337
0.124,0.038,0.317,-5.337
0.208,0.037,0.318,-5.337
0.210,0.039,0.321,-5.337
0.125,0.038,0.321,-5.337
0.087,0.040,0.320,-5.337
0.100,0.042,0.322,-5.337
0.035,0.044,0.327,-5.337
0.061,0.040,0.326,-5.337
0.109,0.038,0.323,-5.337
0.117,0.038,0.320,-5.337
0.170,0.039,0.319,-5.337
0.226,0.034,0.320,-5.337
0.190,0.033,0.324,-5.337
0.182,0.036,0.326,-5.337
0.158,0.037,0.329,-5.337
0.083,0.037,0.327,-5.337
0.093,0.038,0.322,-5.337
0.148,0.039,0.318,-5.337
0.192,0.040,0.320,-5.337
0.154,0.038,0.324,-5.337
0.163,0.038,0.324,-5.337
0.194,0.034,0.326,-5.337
0.197,0.034,0.327,-5.337
0.144,0.032,0.328,-5.337
0.121,0.030,0.324,-5.337
0.160,0.029,0.326,-5.337
0.110,0.030,0.324,-5.337
0.041,0.032,0.323,-5.337
0.044,0.026,0.319,-5.337
0.045,0.020,0.320,-5.337
0.023,0.010,0.321,-5.337
0.019,0.002,0.324,-5.337
-0.007,-0.002,0.327,-5.337
-0.019,-0.004,0.326,-5.337
0.010,-0.000,0.326,-5.337
0.091,0.013,0.328,-5.337
0.101,0.026,0.328,-5.337
0.079,0.036,0.325,-5.337
0.136,0.046,0.326,-5.337
0.096,0.062,0.327,-5.337
0.109,0.076,0.324,-5.337
0.209,0.088,0.320,-5.337
0.211,0.100,0.322,-5.337
0.122,0.109,0.324,-5.337
0.084,0.116,0.326,-5.337
0.047,0.119,0.327,-5.337
0.092,0.121,0.329,-5.337
0.142,0.121,0.327,-5.337
0.169,0.120,0.327,-5.337
0.208,0.115,0.326,-5.337
0.123,0.112,0.328,-5.337
0.042,0.112,0.328,-5.337
0.012,0.108,0.329,-5.337
0.039,0.100,0.328,-5.337
0.072,0.097,0.326,-5.337
0.119,0.095,0.325,-5.337
0.098,0.092,0.328,-5.337
0.068,0.087,0.327,-5.337
0.106,0.085,0.327,-5.337
0.177,0.081,0.325,-5.337
0.223,0.075,0.326,-5.337
0.113,0.074,0.326,-5.337
-0.002,0.072,0.326,-5.337
0.091,0.070,0.326,-5.337
0.214,0.067,0.323,-5.337
0.132,0.064,0.325,-5.337
0.050,0.064,0.324,-5.337
0.094,0.062,0.325,-5.337
0.106,0.061,0.325,-5.337
0.044,0.057,0.327,-5.337
0.023,0.055,0.328,-5.337
0.021,0.058,0.331,-5.337
0.051,0.055,0.332,-5.337
0.074,0.051,0.331,-5.337
0.087,0.052,0.328,-5.337
0.083,0.053,0.326,-5.337
0.076,0.051,0.326,-5.337
0.046,0.051,0.328,-5.337
0.034,0.049,0.330,-5.337
0.091,0.051,0.331,-5.337
0.004,0.056,0.331,-5.337
0.006,0.055,0.330,-5.337
0.088,0.051,0.330,-5.337
0.095,0.050,0.329,-5.337
0.133,0.050,0.328,-5.337
0.190,0.048,0.329,-5.337
0.132,0.049,0.332,-5.337
0.088,0.048,0.333,-5.337
0.048,0.049,0.334,-5.337
-0.021,0.050,0.334,-5.337
0.020,0.046,0.333,-5.337
0.095,0.043,0.328,-5.337
0.135,0.043,0.326,-5.337
0.159,0.042,0.327,-5.337
0.094,0.045,0.327,-5.337
-0.005,0.045,0.328,-5.337
0.035,0.042,0.330,-5.337
0.117,0.037,0.332,-5.337
0.137,0.041,0.336,-5.337
0.129,0.038,0.333,-5.337
0.180,0.039,0.332,-5.337
0.192,0.038,0.332,-5.337
0.192,0.040,0.334,-5.337
0.203,0.037,0.333,-5.337
0.173,0.039,0.330,-5.337
0.195,0.038,0.328,-5.337
0.208,0.037,0.331,-5.337
0.163,0.035,0.333,-5.337
0.161,0.034,0.332,-5.337
0.213,0.033,0.329,-5.337
0.237,0.038,0.325,-5.337
0.201,0.035,0.329,-5.337
0.092,0.032,0.334,-5.337
0.081,0.033,0.337,-5.337
0.131,0.036,0.334,-5.337
0.177,0.035,0.331,-5.337
0.222,0.036,0.329,-5.337
0.265,0.033,0.329,-5.337
0.243,0.033,0.328,-5.337
0.240,0.034,0.330,-5.337
0.244,0.035,0.335,-5.337
0.237,0.039,0.338,-5.337
0.268,0.038,0.337,-5.337
0.224,0.037,0.336,-5.337
0.106,0.040,0.335,-5.337
0.069,0.041,0.332,-5.337
0.155,0.040,0.329,-5.337
0.228,0.042,0.332,-5.337
0.173,0.042,0.335,-5.337
0.135,0.042,0.334,-5.337
0.163,0.044,0.333,-5.337
0.165,0.047,0.333,-5.337
0.245,0.043,0.332,-5.337
0.266,0.041,0.329,-5.337
0.195,0.043,0.334,-5.337
0.144,0.040,0.335,-5.337
0.116,0.043,0.336,-5.337
0.111,0.045,0.334,-5.337
0.140,0.043,0.333,-5.337
0.100,0.041,0.331,-5.337
0.113,0.040,0.331,-5.337
0.207,0.033,0.332,-5.337
0.241,0.027,0.336,-5.337
0.232,0.021,0.337,-5.337
0.267,0.019,0.334,-5.337
0.245,0.015,0.332,-5.337
0.170,0.014,0.332,-5.337
0.131,0.010,0.331,-5.337
0.142,0.007,0.330,-5.337
0.201,0.005,0.328,-5.337
0.310,0.008,0.333,-5.337
0.363,0.016,0.338,-5.337
0.267,0.025,0.338,-5.337
0.239,0.034,0.337,-5.337
0.299,0.040,0.333,-5.337
0.303,0.049,0.330,-5.337
0.328,0.053,0.330,-5.337
0.425,0.054,0.333,-5.337
0.367,0.058,0.336,-5.337
0.231,0.065,0.338,-5.337
0.227,0.068,0.337,-5.337
0.264,0.061,0.335,-5.337
0.201,0.051,0.333,-5.337
0.170,0.046,0.336,-5.337
0.236,0.040,0.336,-5.337
0.250,0.037,0.335,-5.337
0.252,0.030,0.337,-5.337
0.291,0.028,0.336,-5.337
0.339,0.022,0.335,-5.337
0.277,0.019,0.338,-5.337
0.109,0.019,0.340,-5.337
0.114,0.023,0.336,-5.337
0.209,0.023,0.330,-5.337
0.186,0.022,0.332,-5.337
0.164,0.022,0.337,-5.337
0.235,0.025,0.336,-5.337
0.178,0.029,0.336,-5.337
0.201,0.031,0.336,-5.337
0.312,0.034,0.334,-5.337
0.305,0.037,0.331,-5.337
0.205,0.038,0.332,-5.337
0.180,0.039,0.334,-5.337
0.223,0.038,0.335,-5.337
0.199,0.041,0.339,-5.337
0.224,0.042,0.343,-5.337
0.252,0.042,0.340,-5.337
0.267,0.042,0.336,-5.337
0.243,0.040,0.335,-5.337
0.248,0.041,0.336,-5.337
0.355,0.043,0.340,-5.337
0.375,0.043,0.341,-5.337
0.317,0.044,0.340,-5.337
0.288,0.046,0.342,-5.337
0.236,0.043,0.343,-5.337
0.188,0.046,0.342,-5.337
0.104,0.050,0.340,-5.337
0.208,0.051,0.339,-5.337
0.247,0.048,0.338,-5.337
0.175,0.047,0.338,-5.337
0.154,0.047,0.340,-5.337
0.172,0.048,0.339,-5.337
0.227,0.046,0.338,-5.337
0.133,0.051,0.335,-5.337
0.086,0.052,0.335,-5.337
0.118,0.055,0.337,-5.337
0.093,0.055,0.340,-5.337
0.117,0.053,0.341,-5.337
0.174,0.054,0.339,-5.337
0.176,0.052,0.334,-5.337
0.176,0.053,0.335,-5.337
0.205,0.055,0.337,-5.337
0.217,0.055,0.337,-5.337
0.260,0.053,0.339,-5.337
0.266,0.057,0.342,-5.337
0.209,0.058,0.341,-5.337
0.247,0.062,0.340,-5.337
0.247,0.061,0.341,-5.337
0.211,0.063,0.345,-5.337
0.205,0.063,0.343,-5.337
0.227,0.064,0.336,-5.337
0.188,0.066,0.337,-5.337
0.139,0.065,0.339,-5.337
0.182,0.062,0.339,-5.337
0.179,0.061,0.338,-5.337
0.121,0.062,0.342,-5.337
0.143,0.065,0.343,-5.337
0.185,0.062,0.343,-5.337
0.223,0.059,0.337,-5.337
0.232,0.061,0.336,-5.337
0.222,0.059,0.339,-5.337
0.230,0.061,0.343,-5.337
0.229,0.059,0.342,-5.337
0.213,0.061,0.339,-5.337
0.244,0.058,0.341,-5.337
0.256,0.058,0.343,-5.337
0.219,0.060,0.346,-5.337
0.172,0.060,0.343,-5.337
0.129,0.058,0.338,-5.337
0.168,0.057,0.333,-5.337
0.164,0.059,0.333,-5.337
0.228,0.054,0.337,-5.337
0.306,0.055,0.338,-5.337
0.277,0.056,0.333,-5.337
0.230,0.059,0.335,-5.337
0.230,0.060,0.333,-5.337
0.170,0.064,0.335,-5.337
0.217,0.063,0.338,-5.337
0.366,0.061,0.344,-5.337
0.367,0.061,0.343,-5.337
0.323,0.063,0.344,-5.337
0.282,0.063,0.342,-5.337
0.236,0.066,0.338,-5.337
0.282,0.066,0.336,-5.337
0.335,0.067,0.336,-5.337
0.259,0.065,0.334,-5.337
0.166,0.065,0.337,-5.337
0.129,0.065,0.340,-5.337
0.159,0.067,0.339,-5.337
0.181,0.067,0.337,-5.337
0.163,0.065,0.336,-5.337
0.103,0.066,0.339,-5.337
0.061,0.066,0.339,-5.337
0.116,0.068,0.338,-5.337
0.171,0.069,0.337,-5.337
0.111,0.067,0.338,-5.337
0.082,0.067,0.338,-5.337
0.156,0.068,0.340,-5.337
0.238,0.066,0.339,-5.337
0.326,0.061,0.336,-5.337
0.318,0.063,0.334,-5.337
0.255,0.064,0.338,-5.337
0.195,0.062,0.340,-5.337
0.207,0.061,0.339,-5.337
0.274,0.062,0.338,-5.337
0.308,0.062,0.340,-5.337
0.245,0.061,0.336,-5.337
0.147,0.062,0.332,-5.337
0.066,0.061,0.336,-5.337
0.107,0.062,0.339,-5.337
0.086,0.062,0.339,-5.337
0.157,0.059,0.342,-5.337
0.165,0.060,0.342,-5.337
0.132,0.062,0.340,-5.337
0.118,0.063,0.336,-5.337
0.139,0.062,0.337,-5.337
0.203,0.059,0.337,-5.337
0.226,0.061,0.337,-5.337
0.206,0.061,0.339,-5.337
0.216,0.064,0.344,-5.337
0.203,0.064,0.346,-5.337
0.118,0.061,0.343,-5.337
0.122,0.063,0.338,-5.337
0.194,0.069,0.335,-5.337
0.191,0.072,0.336,-5.337
0.231,0.067,0.336,-5.337
0.192,0.067,0.334,-5.337
0.157,0.070,0.329,-5.337
0.186,0.072,0.334,-5.337
0.262,0.069,0.338,-5.337
0.359,0.067,0.341,-5.337
0.324,0.068,0.342,-5.337
0.248,0.070,0.341,-5.337
0.238,0.066,0.340,-5.337
0.186,0.062,0.340,-5.337
0.203,0.064,0.341,-5.337
0.280,0.068,0.341,-5.337
0.252,0.067,0.340,-5.337
0.150,0.068,0.340,-5.337
0.146,0.064,0.340,-5.337
0.195,0.065,0.338,-5.337
0.203,0.065,0.337,-5.337
0.195,0.062,0.338,-5.337
0.206,0.059,0.336,-5.337
0.270,0.060,0.337,-5.337
0.326,0.061,0.342,-5.337
0.351,0.054,0.341,-5.337
0.303,0.053,0.338,-5.337
0.229,0.052,0.337,-5.337
0.252,0.055,0.340,-5.337
0.242,0.056,0.340,-5.337
0.210,0.057,0.339,-5.337
0.236,0.058,0.340,-5.337
0.179,0.059,0.338,-5.337
0.124,0.058,0.337,-5.337
0.152,0.058,0.337,-5.337
0.219,0.059,0.337,-5.337
0.221,0.061,0.336,-5.337
0.142,0.057,0.339,-5.337
0.149,0.056,0.338,-5.337
0.142,0.057,0.339,-5.337
0.205,0.059,0.345,-5.337
0.195,0.062,0.347,-5.337
0.157,0.063,0.343,-5.337
0.259,0.061,0.340,-5.337
0.250,0.061,0.337,-5.337
0.166,0.058,0.333,-5.337
0.136,0.054,0.330,-5.337
0.169,0.049,0.335,-5.337
0.254,0.048,0.338,-5.337
0.292,0.055,0.342,-5.337
0.205,0.063,0.340,-5.337
0.143,0.077,0.340,-5.337
0.198,0.086,0.340,-5.337
0.225,0.093,0.342,-5.337
0.232,0.103,0.343,-5.337
0.179,0.114,0.340,-5.337
0.192,0.120,0.337,-5.337
0.227,0.130,0.337,-5.337
0.284,0.137,0.341,-5.337
0.230,0.142,0.345,-5.337
0.166,0.142,0.342,-5.337
0.167,0.142,0.335,-5.337
0.252,0.142,0.330,-5.337
0.297,0.141,0.332,-5.337
0.258,0.138,0.335,-5.337
0.269,0.130,0.338,-5.337
0.302,0.126,0.339,-5.337
0.192,0.121,0.340,-5.337
0.175,0.111,0.347,-5.337
0.238,0.105,0.350,-5.337
0.208,0.099,0.350,-5.337
0.185,0.097,0.342,-5.337
0.188,0.096,0.335,-5.337
0.217,0.088,0.331,-5.337
0.252,0.082,0.332,-5.337
0.245,0.079,0.334,-5.337
0.314,0.080,0.338,-5.337
0.337,0.076,0.341,-5.337
0.309,0.072,0.340,-5.337
0.284,0.068,0.338,-5.337
0.254,0.067,0.340,-5.337
0.272,0.060,0.341,-5.337
0.266,0.057,0.341,-5.337
0.276,0.054,0.338,-5.337
0.353,0.053,0.335,-5.337
0.335,0.052,0.338,-5.337
0.228,0.050,0.336,-5.337
0.270,0.049,0.335,-5.337
0.330,0.051,0.339,-5.337
0.277,0.052,0.342,-5.337
0.238,0.050,0.340,-5.337
0.197,0.049,0.341,-5.337
0.090,0.048,0.339,-5.337
0.051,0.048,0.335,-5.337
0.115,0.044,0.333,-5.337
0.170,0.041,0.338,-5.337
0.153,0.041,0.341,-5.337
0.124,0.047,0.342,-5.337
0.207,0.043,0.339,-5.337
0.253,0.040,0.337,-5.337
0.190,0.035,0.341,-5.337
0.211,0.029,0.344,-5.337
0.195,0.026,0.342,-5.337
0.193,0.019,0.339,-5.337
0.225,0.012,0.336,-5.337
0.279,0.008,0.337,-5.337
0.270,0.001,0.341,-5.337
0.324,-0.003,0.343,-5.337
0.284,-0.003,0.344,-5.337
0.283,-0.007,0.340,-5.337
0.278,-0.011,0.337,-5.337
0.229,-0.009,0.337,-5.337
0.231,-0.009,0.341,-5.337
0.255,-0.009,0.341,-5.337
0.205,-0.007,0.338,-5.337
0.188,-0.005,0.333,-5.337
0.206,-0.002,0.332,-5.337
0.194,0.004,0.335,-5.337
0.170,0.010,0.341,-5.337
0.233,0.010,0.344,-5.337
0.279,0.011,0.345,-5.337
0.254,0.016,0.344,-5.337
0.234,0.024,0.346,-5.337
0.294,0.025,0.340,-5.337
0.247,0.027,0.335,-5.337
0.201,0.028,0.335,-5.337
0.212,0.030,0.335,-5.337
0.231,0.034,0.334,-5.337
0.215,0.038,0.334,-5.337
0.201,0.037,0.334,-5.337
0.215,0.036,0.338,-5.337
0.186,0.035,0.342,-5.337
0.194,0.037,0.341,-5.337
0.266,0.035,0.340,-5.337
0.345,0.040,0.341,-5.337
0.373,0.040,0.343,-5.337
0.333,0.039,0.342,-5.337
0.279,0.042,0.339,-5.337
0.243,0.044,0.337,-5.337
0.241,0.045,0.337,-5.337
0.174,0.047,0.338,-5.337
0.213,0.044,0.339,-5.337
0.232,0.043,0.338,-5.337
0.236,0.043,0.336,-5.337
0.227,0.046,0.336,-5.337
0.249,0.046,0.338,-5.337
0.284,0.044,0.340,-5.337
0.220,0.046,0.339,-5.337
0.194,0.042,0.335,-5.337
0.208,0.045,0.334,-5.337
0.288,0.042,0.338,-5.337
0.308,0.041,0.342,-5.337
0.241,0.043,0.345,-5.337
0.295,0.043,0.340,-5.337
0.343,0.046,0.336,-5.337
0.211,0.047,0.334,-5.337
0.118,0.044,0.334,-5.337
0.050,0.047,0.334,-5.337
0.123,0.046,0.335,-5.337
0.249,0.043,0.337,-5.337
0.268,0.043,0.342,-5.337
0.233,0.044,0.341,-5.337
0.269,0.041,0.337,-5.337
0.271,0.040,0.332,-5.337
0.191,0.042,0.335,-5.337
0.191,0.039,0.339,-5.337
0.265,0.034,0.342,-5.337
0.287,0.034,0.342,-5.337
0.193,0.037,0.340,-5.337
0.231,0.037,0.336,-5.337
0.311,0.038,0.336,-5.337
0.323,0.038,0.336,-5.337
0.268,0.038,0.338,-5.337
0.189,0.039,0.338,-5.337
0.175,0.039,0.339,-5.337
0.194,0.037,0.340,-5.337
0.120,0.039,0.341,-5.337
0.142,0.038,0.341,-5.337
0.210,0.038,0.341,-5.337
0.220,0.039,0.341,-5.337
0.213,0.041,0.342,-5.337
0.210,0.040,0.343,-5.337
0.177,0.039,0.343,-5.337
0.132,0.039,0.342,-5.337
0.190,0.040,0.339,-5.337
0.156,0.041,0.336,-5.337
0.123,0.042,0.333,-5.337
0.163,0.042,0.335,-5.337
0.199,0.040,0.334,-5.337
0.224,0.041,0.334,-5.337
0.227,0.041,0.338,-5.337
0.234,0.045,0.341,-5.337
0.175,0.047,0.341,-5.337
0.131,0.053,0.342,-5.337
0.166,0.059,0.342,-5.337
0.185,0.062,0.342,-5.337
0.063,0.066,0.340,-5.337
0.023,0.071,0.339,-5.337
0.054,0.077,0.340,-5.337
0.137,0.075,0.341,-5.337
0.162,0.070,0.344,-5.337
0.152,0.062,0.342,-5.337
0.135,0.056,0.341,-5.337
0.178,0.050,0.337,-5.337
0.209,0.040,0.335,-5.337
0.211,0.031,0.338,-5.337
0.221,0.023,0.339,-5.337
0.239,0.014,0.339,-5.337
0.276,0.013,0.343,-5.337
0.258,0.011,0.342,-5.337
0.239,0.006,0.340,-5.337
0.156,0.004,0.339,-5.337
0.126,0.006,0.341,-5.337
0.163,0.007,0.340,-5.337
0.200,0.011,0.336,-5.337
0.233,0.009,0.334,-5.337
0.219,0.008,0.334,-5.337
0.272,0.006,0.337,-5.337
0.273,0.009,0.339,-5.337
0.162,0.011,0.338,-5.337
0.212,0.011,0.339,-5.337
0.250,0.012,0.339,-5.337
0.254,0.013,0.337,-5.337
0.256,0.014,0.336,-5.337
0.256,0.015,0.337,-5.337
0.173,0.014,0.339,-5.337
0.103,0.016,0.339,-5.337
0.186,0.018,0.338,-5.337
0.246,0.020,0.335,-5.337
0.248,0.023,0.335,-5.337
0.228,0.022,0.333,-5.337
0.123,0.022,0.333,-5.337
0.085,0.021,0.338,-5.337
0.149,0.023,0.340,-5.337
0.251,0.023,0.341,-5.337
0.241,0.025,0.338,-5.337
0.158,0.024,0.335,-5.337
0.130,0.023,0.333,-5.337
0.130,0.026,0.334,-5.337
0.202,0.030,0.338,-5.337
0.212,0.028,0.339,-5.337
0.194,0.025,0.339,-5.337
0.205,0.025,0.337,-5.337
0.238,0.030,0.337,-5.337
0.204,0.034,0.333,-5.337
0.163,0.034,0.332,-5.337
0.113,0.036,0.336,-5.337
0.149,0.042,0.337,-5.337
0.213,0.050,0.339,-5.337
0.160,0.058,0.336,-5.337
0.117,0.063,0.333,-5.337
0.176,0.068,0.336,-5.337
0.179,0.076,0.340,-5.337
0.178,0.087,0.344,-5.337
0.164,0.096,0.343,-5.337
0.133,0.107,0.338,-5.337
0.233,0.113,0.332,-5.337
0.282,0.117,0.333,-5.337
0.211,0.124,0.336,-5.337
0.142,0.126,0.331,-5.337
0.143,0.128,0.330,-5.337
0.200,0.127,0.334,-5.337
0.199,0.128,0.339,-5.337
0.139,0.124,0.338,-5.337
0.180,0.119,0.339,-5.337
0.232,0.116,0.341,-5.337
0.292,0.112,0.338,-5.337
0.272,0.103,0.330,-5.337
0.188,0.094,0.332,-5.337
0.138,0.086,0.334,-5.337
0.115,0.085,0.333,-5.337
0.146,0.080,0.333,-5.337
0.239,0.074,0.337,-5.337
0.265,0.070,0.338,-5.337
0.270,0.067,0.337,-5.337
0.286,0.063,0.338,-5.337
0.217,0.059,0.337,-5.337
0.160,0.054,0.338,-5.337
0.169,0.047,0.339,-5.337
0.223,0.046,0.337,-5.337
0.312,0.042,0.332,-5.337
0.284,0.042,0.330,-5.337
0.203,0.041,0.333,-5.337
0.168,0.037,0.341,-5.337
0.109,0.034,0.342,-5.337
0.206,0.031,0.339,-5.337
0.342,0.029,0.336,-5.337
0.318,0.027,0.337,-5.337
0.224,0.027,0.336,-5.337
0.144,0.031,0.332,-5.337
0.078,0.032,0.331,-5.337
0.068,0.028,0.335,-5.337
0.114,0.024,0.338,-5.337
0.113,0.026,0.339,-5.337
0.146,0.025,0.338,-5.337
0.180,0.026,0.334,-5.337
0.161,0.025,0.332,-5.337
0.220,0.023,0.332,-5.337
0.247,0.023,0.335,-5.337
0.190,0.025,0.336,-5.337
0.105,0.027,0.338,-5.337
0.097,0.020,0.335,-5.337
0.153,0.017,0.333,-5.337
0.153,0.022,0.330,-5.337
0.112,0.021,0.332,-5.337
0.163,0.018,0.336,-5.337
0.199,0.019,0.337,-5.337
0.268,0.020,0.335,-5.337
0.298,0.021,0.335,-5.337
0.246,0.022,0.332,-5.337
0.247,0.021,0.332,-5.337
0.233,0.019,0.332,-5.337
0.167,0.023,0.331,-5.337
0.153,0.024,0.332,-5.337
0.118,0.022,0.336,-5.337
0.045,0.023,0.336,-5.337
0.092,0.022,0.332,-5.337
0.079,0.021,0.334,-5.337
0.085,0.019,0.337,-5.337
0.132,0.018,0.337,-5.337
0.167,0.018,0.336,-5.337
0.239,0.018,0.338,-5.337
0.310,0.017,0.335,-5.337
0.237,0.020,0.331,-5.337
0.164,0.019,0.331,-5.337
0.182,0.023,0.334,-5.337
0.203,0.024,0.338,-5.337
0.192,0.022,0.337,-5.337
0.197,0.017,0.333,-5.337
0.244,0.015,0.331,-5.337
0.299,0.015,0.329,-5.337
0.322,0.018,0.329,-5.337
0.197,0.019,0.331,-5.337
0.156,0.020,0.332,-5.337
0.133,0.021,0.332,-5.337
0.104,0.024,0.333,-5.337
0.191,0.028,0.336,-5.337
0.285,0.029,0.336,-5.337
0.236,0.031,0.335,-5.337
0.128,0.033,0.332,-5.337
0.198,0.030,0.332,-5.337
0.256,0.032,0.332,-5.337
0.167,0.033,0.331,-5.337
0.093,0.033,0.330,-5.337
0.090,0.032,0.333,-5.337
0.161,0.030,0.332,-5.337
0.285,0.032,0.331,-5.337
0.205,0.033,0.335,-5.337
0.105,0.034,0.337,-5.337
0.133,0.033,0.338,-5.337
0.285,0.030,0.339,-5.337
0.261,0.028,0.333,-5.337
0.140,0.031,0.329,-5.337
0.132,0.030,0.329,-5.337
0.144,0.030,0.336,-5.337
0.167,0.029,0.341,-5.337
0.191,0.032,0.337,-5.337
0.210,0.033,0.333,-5.337
0.115,0.031,0.333,-5.337
0.138,0.028,0.334,-5.337
0.163,0.033,0.332,-5.337
0.124,0.033,0.330,-5.337
0.194,0.034,0.329,-5.337
0.309,0.030,0.330,-5.337
0.179,0.030,0.331,-5.337
0.147,0.030,0.333,-5.337
0.138,0.029,0.333,-5.337
0.127,0.029,0.330,-5.337
0.153,0.027,0.329,-5.337
0.189,0.031,0.330,-5.337
0.147,0.031,0.332,-5.337
0.139,0.031,0.337,-5.337
0.116,0.034,0.336,-5.337
0.119,0.033,0.336,-5.337
0.179,0.031,0.335,-5.337
0.170,0.030,0.334,-5.337
0.190,0.029,0.332,-5.337
0.305,0.028,0.330,-5.337
0.213,0.030,0.329,-5.337
0.161,0.032,0.331,-5.337
0.201,0.031,0.333,-5.337
0.183,0.032,0.335,-5.337
0.124,0.031,0.340,-5.337
0.146,0.028,0.336,-5.337
0.133,0.028,0.329,-5.337
0.122,0.032,0.329,-5.337
0.168,0.032,0.337,-5.337
0.238,0.029,0.339,-5.337
0.179,0.030,0.336,-5.337
0.189,0.027,0.331,-5.337
0.240,0.031,0.329,-5.337
0.192,0.031,0.328,-5.337
0.103,0.032,0.329,-5.337
0.065,0.033,0.333,-5.337
0.088,0.033,0.335,-5.337
0.111,0.032,0.335,-5.337
0.139,0.034,0.337,-5.337
0.280,0.035,0.335,-5.337
0.308,0.036,0.330,-5.337
0.224,0.039,0.330,-5.337
0.172,0.039,0.332,-5.337
0.196,0.038,0.330,-5.337
0.125,0.039,0.329,-5.337
0.141,0.040,0.331,-5.337
0.185,0.039,0.333,-5.337
0.235,0.037,0.334,-5.337
0.186,0.035,0.333,-5.337
0.134,0.037,0.337,-5.337
0.103,0.037,0.337,-5.337
0.185,0.033,0.331,-5.337
0.283,0.031,0.323,-5.337
0.287,0.029,0.326,-5.337
0.253,0.033,0.332,-5.337
0.203,0.037,0.338,-5.337
0.210,0.037,0.336,-5.337
0.217,0.034,0.332,-5.337
0.217,0.031,0.331,-5.337
0.221,0.033,0.331,-5.337
0.226,0.032,0.336,-5.337
0.226,0.033,0.339,-5.337
0.135,0.034,0.334,-5.337
0.096,0.033,0.331,-5.337
0.085,0.033,0.331,-5.337
0.049,0.033,0.333,-5.337
0.069,0.036,0.332,-5.337
0.094,0.038,0.330,-5.337
0.006,0.040,0.328,-5.337
-0.006,0.040,0.333,-5.337
0.111,0.035,0.336,-5.337
0.173,0.038,0.335,-5.337
0.145,0.041,0.338,-5.337
0.131,0.043,0.338,-5.337
0.164,0.042,0.335,-5.337
0.135,0.041,0.331,-5.337
0.013,0.041,0.330,-5.337
0.054,0.038,0.326,-5.337
0.141,0.038,0.325,-5.337
0.138,0.038,0.328,-5.337
0.144,0.037,0.333,-5.337
0.160,0.037,0.334,-5.337
0.155,0.036,0.333,-5.337
0.176,0.035,0.332,-5.337
0.194,0.035,0.337,-5.337
0.180,0.035,0.334,-5.337
0.130,0.040,0.332,-5.337
0.134,0.038,0.333,-5.337
0.174,0.040,0.335,-5.337
0.194,0.043,0.336,-5.337
0.228,0.043,0.336,-5.337
0.173,0.040,0.333,-5.337
0.161,0.039,0.331,-5.337
0.192,0.039,0.333,-5.337
0.244,0.043,0.337,-5.337
0.201,0.045,0.335,-5.337
0.098,0.045,0.330,-5.337
0.070,0.042,0.332,-5.337
0.185,0.043,0.334,-5.337
0.227,0.043,0.337,-5.337
0.262,0.040,0.335,-5.337
0.244,0.040,0.332,-5.337
0.206,0.039,0.332,-5.337
0.202,0.038,0.335,-5.337
0.171,0.036,0.335,-5.337
0.144,0.037,0.332,-5.337
0.107,0.040,0.333,-5.337
0.120,0.038,0.336,-5.337
0.145,0.037,0.337,-5.337
0.195,0.036,0.337,-5.337
0.183,0.032,0.335,-5.337
0.191,0.037,0.335,-5.337
0.203,0.038,0.338,-5.337
0.169,0.038,0.340,-5.337
0.127,0.038,0.339,-5.337
0.095,0.041,0.333,-5.337
0.099,0.042,0.330,-5.337
0.076,0.039,0.327,-5.337
0.045,0.037,0.327,-5.337
0.081,0.038,0.329,-5.337
0.162,0.040,0.335,-5.337
0.213,0.040,0.336,-5.337
0.236,0.038,0.335,-5.337
0.265,0.034,0.333,-5.337
0.202,0.034,0.335,-5.337
0.132,0.036,0.339,-5.337
0.144,0.038,0.340,-5.337
0.154,0.038,0.339,-5.337
0.083,0.041,0.336,-5.337
0.026,0.041,0.332,-5.337
0.089,0.041,0.332,-5.337
0.194,0.039,0.335,-5.337
0.321,0.040,0.332,-5.337
0.306,0.042,0.333,-5.337
0.186,0.046,0.334,-5.337
0.134,0.050,0.334,-5.337
0.134,0.050,0.332,-5.337
0.154,0.051,0.333,-5.337
0.183,0.052,0.333,-5.337
0.197,0.056,0.335,-5.337
0.205,0.065,0.331,-5.337
0.232,0.078,0.330,-5.337
0.252,0.090,0.330,-5.337
0.209,0.095,0.335,-5.337
0.139,0.102,0.336,-5.337
0.161,0.114,0.337,-5.337
0.155,0.124,0.337,-5.337
0.146,0.132,0.335,-5.337
0.145,0.139,0.330,-5.337
0.115,0.148,0.327,-5.337
0.124,0.151,0.330,-5.337
0.147,0.155,0.338,-5.337
0.174,0.156,0.338,-5.337
0.140,0.159,0.332,-5.337
0.151,0.161,0.333,-5.337
0.178,0.158,0.334,-5.337
0.181,0.153,0.337,-5.337
0.198,0.151,0.338,-5.337
0.134,0.148,0.337,-5.337
0.211,0.141,0.334,-5.337
0.228,0.133,0.330,-5.337
0.126,0.126,0.327,-5.337
0.098,0.121,0.327,-5.337
0.109,0.118,0.333,-5.337
0.112,0.108,0.337,-5.337
0.132,0.100,0.335,-5.337
0.161,0.095,0.331,-5.337
0.056,0.088,0.326,-5.337
0.022,0.082,0.329,-5.337
0.059,0.079,0.333,-5.337
0.084,0.075,0.336,-5.337
0.170,0.067,0.335,-5.337
0.232,0.061,0.335,-5.337
0.209,0.060,0.332,-5.337
0.169,0.059,0.331,-5.337
0.224,0.055,0.329,-5.337
0.142,0.052,0.331,-5.337
0.079,0.052,0.335,-5.337
0.120,0.050,0.335,-5.337
0.128,0.045,0.332,-5.337
0.168,0.045,0.332,-5.337
0.169,0.048,0.332,-5.337
0.079,0.048,0.335,-5.337
0.069,0.041,0.336,-5.337
0.154,0.038,0.333,-5.337
0.298,0.037,0.333,-5.337
0.216,0.036,0.333,-5.337
0.121,0.035,0.335,-5.337
0.131,0.034,0.337,-5.337
0.087,0.034,0.339,-5.337
0.127,0.032,0.333,-5.337
0.186,0.033,0.330,-5.337
0.236,0.034,0.327,-5.337
0.191,0.035,0.331,-5.337
0.156,0.032,0.336,-5.337
0.108,0.031,0.333,-5.337
0.166,0.031,0.329,-5.337
0.182,0.031,0.328,-5.337
0.183,0.029,0.331,-5.337
0.265,0.026,0.331,-5.337
0.297,0.023,0.331,-5.337
0.206,0.024,0.332,-5.337
0.057,0.022,0.334,-5.337
0.052,0.021,0.334,-5.337
0.089,0.021,0.335,-5.337
0.085,0.024,0.336,-5.337
0.093,0.025,0.337,-5.337
0.032,0.024,0.336,-5.337
0.018,0.026,0.338,-5.337
0.031,0.026,0.338,-5.337
0.122,0.028,0.335,-5.337
0.140,0.029,0.332,-5.337
0.164,0.024,0.332,-5.337
0.227,0.018,0.332,-5.337
0.164,0.020,0.333,-5.337
0.061,0.025,0.335,-5.337
0.011,0.030,0.333,-5.337
0.077,0.029,0.329,-5.337
0.079,0.025,0.328,-5.337
0.032,0.023,0.329,-5.337
0.021,0.024,0.333,-5.337
0.005,0.024,0.335,-5.337
0.057,0.023,0.334,-5.337
0.074,0.025,0.333,-5.337
0.073,0.025,0.335,-5.337
0.053,0.024,0.336,-5.337
0.067,0.019,0.334,-5.337
0.079,0.017,0.339,-5.337
0.067,0.016,0.342,-5.337
0.173,0.016,0.340,-5.337
0.311,0.015,0.331,-5.337
0.310,0.021,0.328,-5.337
0.224,0.022,0.326,-5.337
0.178,0.018,0.327,-5.337
0.160,0.018,0.330,-5.337
0.204,0.017,0.335,-5.337
0.319,0.015,0.336,-5.337
0.346,0.017,0.334,-5.337
0.248,0.015,0.334,-5.337
0.174,0.018,0.333,-5.337
0.093,0.015,0.331,-5.337
0.062,0.017,0.332,-5.337
0.108,0.018,0.332,-5.337
0.170,0.019,0.334,-5.337
0.209,0.017,0.332,-5.337
0.145,0.020,0.333,-5.337
0.114,0.022,0.336,-5.337
0.119,0.022,0.335,-5.337
0.228,0.019,0.332,-5.337
0.209,0.015,0.332,-5.337
0.108,0.017,0.335,-5.337
0.078,0.018,0.336,-5.337
0.108,0.019,0.335,-5.337
0.091,0.019,0.333,-5.337
0.137,0.020,0.333,-5.337
0.190,0.019,0.334,-5.337
0.141,0.018,0.337,-5.337
0.084,0.017,0.337,-5.337
0.067,0.018,0.339,-5.337
0.097,0.019,0.340,-5.337
0.158,0.021,0.337,-5.337
0.180,0.018,0.332,-5.337
0.137,0.017,0.332,-5.337
0.114,0.018,0.335,-5.337
0.125,0.017,0.336,-5.337
0.142,0.019,0.336,-5.337
0.131,0.018,0.334,-5.337
0.137,0.022,0.333,-5.337
0.068,0.021,0.334,-5.337
0.043,0.018,0.336,-5.337
0.040,0.017,0.336,-5.337
0.036,0.019,0.339,-5.337
0.094,0.021,0.335,-5.337
0.199,0.020,0.332,-5.337
0.213,0.022,0.330,-5.337
0.168,0.021,0.332,-5.337
0.173,0.021,0.333,-5.337
0.140,0.022,0.338,-5.337
0.112,0.020,0.338,-5.337
0.179,0.018,0.340,-5.337
0.229,0.017,0.338,-5.337
0.191,0.019,0.334,-5.337
0.247,0.016,0.333,-5.337
0.253,0.017,0.338,-5.337
0.123,0.019,0.341,-5.337
0.056,0.020,0.341,-5.337
0.109,0.020,0.336,-5.337
0.110,0.022,0.332,-5.337
0.180,0.019,0.331,-5.337
0.179,0.016,0.333,-5.337
0.118,0.015,0.337,-5.337
0.165,0.016,0.338,-5.337
0.184,0.020,0.337,-5.337
0.149,0.021,0.337,-5.337
0.207,0.015,0.335,-5.337
0.239,0.015,0.332,-5.337
0.151,0.019,0.331,-5.337
0.104,0.022,0.331,-5.337
0.199,0.020,0.336,-5.337
0.265,0.016,0.341,-5.337
0.222,0.018,0.344,-5.337
0.191,0.020,0.340,-5.337
0.176,0.023,0.334,-5.337
0.143,0.022,0.333,-5.337
0.124,0.022,0.335,-5.337
0.125,0.025,0.335,-5.337
0.099,0.024,0.335,-5.337
0.114,0.024,0.335,-5.337
0.146,0.021,0.340,-5.337
0.127,0.020,0.340,-5.337
0.126,0.020,0.337,-5.337
0.106,0.019,0.332,-5.337
0.203,0.018,0.332,-5.337
0.231,0.017,0.331,-5.337
0.229,0.018,0.330,-5.337
0.219,0.018,0.330,-5.337
0.195,0.020,0.332,-5.337
0.181,0.018,0.336,-5.337
0.145,0.019,0.336,-5.337
0.097,0.023,0.338,-5.337
0.075,0.024,0.341,-5.337
0.131,0.021,0.345,-5.337
0.207,0.019,0.339,-5.337
0.191,0.021,0.335,-5.337
0.120,0.024,0.333,-5.337
0.117,0.021,0.333,-5.337
0.067,0.021,0.336,-5.337
0.101,0.023,0.336,-5.337
0.160,0.020,0.333,-5.337
0.217,0.020,0.332,-5.337
0.164,0.015,0.334,-5.337
0.140,0.018,0.336,-5.337
0.163,0.022,0.334,-5.337
0.195,0.018,0.330,-5.337
0.194,0.020,0.330,-5.337
0.130,0.021,0.331,-5.337
0.095,0.020,0.335,-5.337
0.146,0.020,0.338,-5.337
0.120,0.025,0.339,-5.337
0.107,0.024,0.341,-5.337
0.182,0.021,0.340,-5.337
0.205,0.021,0.337,-5.337
0.228,0.017,0.338,-5.337
0.220,0.016,0.336,-5.337
0.195,0.017,0.334,-5.337
0.158,0.018,0.334,-5.337
0.099,0.020,0.336,-5.337
0.061,0.021,0.336,-5.337
0.096,0.021,0.338,-5.337
0.150,0.020,0.339,-5.337
0.213,0.019,0.337,-5.337
0.256,0.015,0.336,-5.337
0.168,0.019,0.336,-5.337
0.109,0.020,0.337,-5.337
0.214,0.017,0.338,-5.337
0.283,0.014,0.336,-5.337
0.205,0.018,0.335,-5.337
0.147,0.022,0.334,-5.337
0.058,0.024,0.335,-5.337
0.105,0.024,0.334,-5.337
0.232,0.021,0.335,-5.337
0.296,0.021,0.335,-5.337
0.225,0.024,0.338,-5.337
0.192,0.025,0.341,-5.337
0.190,0.026,0.341,-5.337
0.157,0.026,0.341,-5.337
0.161,0.025,0.337,-5.337
0.203,0.023,0.335,-5.337
0.205,0.020,0.338,-5.337
0.140,0.023,0.336,-5.337
0.143,0.024,0.335,-5.337
0.246,0.025,0.337,-5.337
0.317,0.024,0.338,-5.337
0.260,0.020,0.338,-5.337
0.189,0.019,0.338,-5.337
0.136,0.022,0.336,-5.337
0.165,0.019,0.335,-5.337
0.177,0.022,0.335,-5.337
0.140,0.023,0.337,-5.337
0.060,0.029,0.340,-5.337
0.079,0.026,0.340,-5.337
0.147,0.025,0.333,-5.337
0.091,0.028,0.332,-5.337
0.080,0.030,0.333,-5.337
0.140,0.029,0.335,-5.337
0.176,0.031,0.336,-5.337
0.123,0.029,0.338,-5.337
0.110,0.028,0.338,-5.337
0.108,0.025,0.341,-5.337
0.120,0.025,0.341,-5.337
0.107,0.026,0.338,-5.337
0.145,0.027,0.334,-5.337
0.158,0.029,0.334,-5.337
0.151,0.026,0.336,-5.337
0.226,0.024,0.341,-5.337
0.240,0.024,0.343,-5.337
0.199,0.028,0.343,-5.337
0.171,0.031,0.337,-5.337
0.208,0.029,0.333,-5.337
0.200,0.030,0.333,-5.337
0.136,0.032,0.335,-5.337
0.107,0.029,0.338,-5.337
0.179,0.023,0.338,-5.337
0.166,0.025,0.335,-5.337
0.224,0.027,0.335,-5.337
0.294,0.027,0.335,-5.337
0.255,0.029,0.337,-5.337
0.165,0.028,0.339,-5.337
0.136,0.028,0.341,-5.337
0.188,0.028,0.344,-5.337
0.163,0.025,0.340,-5.337
0.132,0.027,0.334,-5.337
0.155,0.026,0.332,-5.337
0.204,0.026,0.333,-5.337
0.252,0.025,0.333,-5.337
0.217,0.029,0.334,-5.337
0.211,0.029,0.334,-5.337
0.144,0.030,0.335,-5.337
0.071,0.032,0.335,-5.337
0.104,0.031,0.336,-5.337
0.153,0.028,0.336,-5.337
0.145,0.029,0.338,-5.337
0.129,0.030,0.336,-5.337
0.114,0.033,0.332,-5.337
0.098,0.031,0.329,-5.337
0.135,0.030,0.331,-5.337
0.231,0.028,0.335,-5.337
0.267,0.029,0.340,-5.337
0.178,0.031,0.341,-5.337
0.101,0.031,0.336,-5.337
0.117,0.029,0.333,-5.337
0.269,0.029,0.330,-5.337
0.229,0.031,0.333,-5.337
0.241,0.029,0.336,-5.337
0.214,0.028,0.335,-5.337
0.185,0.026,0.335,-5.337
0.181,0.027,0.338,-5.337
0.226,0.026,0.338,-5.337
0.266,0.027,0.338,-5.337
0.255,0.029,0.335,-5.337
0.149,0.033,0.334,-5.337
0.124,0.034,0.333,-5.337
0.117,0.031,0.330,-5.337
0.090,0.030,0.331,-5.337
0.106,0.031,0.334,-5.337
0.198,0.027,0.337,-5.337
0.259,0.027,0.334,-5.337
0.244,0.029,0.330,-5.337
0.236,0.027,0.329,-5.337
0.201,0.032,0.332,-5.337
0.150,0.036,0.340,-5.337
0.188,0.031,0.343,-5.337
0.234,0.030,0.340,-5.337
0.209,0.031,0.337,-5.337
0.251,0.032,0.336,-5.337
0.304,0.029,0.334,-5.337
0.269,0.024,0.331,-5.337
0.277,0.023,0.331,-5.337
0.288,0.027,0.330,-5.337
0.227,0.029,0.334,-5.337
0.223,0.029,0.340,-5.337
0.217,0.030,0.339,-5.337
0.145,0.030,0.333,-5.337
0.086,0.031,0.332,-5.337
0.161,0.029,0.332,-5.337
0.223,0.032,0.329,-5.337
0.198,0.033,0.331,-5.337
0.238,0.029,0.333,-5.337
0.276,0.024,0.335,-5.337
0.269,0.024,0.337,-5.337
0.198,0.028,0.338,-5.337
0.165,0.031,0.339,-5.337
0.150,0.031,0.333,-5.337
0.122,0.036,0.329,-5.337
0.133,0.037,0.331,-5.337
0.177,0.038,0.335,-5.337
0.201,0.036,0.338,-5.337
0.222,0.035,0.338,-5.337
0.177,0.036,0.339,-5.337
0.158,0.034,0.337,-5.337
0.241,0.035,0.336,-5.337
0.201,0.039,0.331,-5.337
0.167,0.036,0.331,-5.337
0.161,0.034,0.331,-5.337
0.230,0.033,0.335,-5.337
0.235,0.034,0.336,-5.337
0.146,0.034,0.334,-5.337
0.090,0.032,0.333,-5.337
0.051,0.036,0.331,-5.337
0.108,0.038,0.332,-5.337
0.102,0.041,0.334,-5.337
0.172,0.036,0.337,-5.337
0.268,0.035,0.339,-5.337
0.260,0.034,0.337,-5.337
0.170,0.032,0.331,-5.337
0.144,0.027,0.330,-5.337
0.191,0.029,0.334,-5.337
0.239,0.027,0.334,-5.337
0.291,0.024,0.331,-5.337
0.226,0.026,0.332,-5.337
0.219,0.028,0.332,-5.337
0.307,0.032,0.335,-5.337
0.326,0.032,0.336,-5.337
0.309,0.030,0.338,-5.337
0.244,0.034,0.334,-5.337
0.194,0.039,0.331,-5.337
0.116,0.038,0.329,-5.337
0.143,0.033,0.330,-5.337
0.180,0.032,0.333,-5.337
0.220,0.036,0.334,-5.337
0.257,0.036,0.335,-5.337
0.280,0.037,0.336,-5.337
0.326,0.034,0.336,-5.337
0.358,0.034,0.335,-5.337
0.298,0.039,0.335,-5.337
0.260,0.039,0.335,-5.337
0.256,0.034,0.332,-5.337
0.330,0.033,0.332,-5.337
0.310,0.035,0.334,-5.337
0.255,0.034,0.335,-5.337
0.225,0.037,0.332,-5.337
0.228,0.035,0.328,-5.337
0.193,0.037,0.329,-5.337
0.255,0.036,0.332,-5.337
0.278,0.039,0.337,-5.337
0.204,0.038,0.339,-5.337
0.107,0.039,0.335,-5.337
0.025,0.041,0.332,-5.337
0.074,0.041,0.335,-5.337
0.155,0.037,0.338,-5.337
0.195,0.035,0.335,-5.337
0.212,0.035,0.333,-5.337
0.212,0.040,0.334,-5.337
0.200,0.041,0.336,-5.337
0.120,0.040,0.337,-5.337
0.110,0.042,0.336,-5.337
0.069,0.044,0.333,-5.337
0.073,0.042,0.333,-5.337
0.119,0.042,0.336,-5.337
0.118,0.041,0.335,-5.337
0.141,0.041,0.332,-5.337
0.239,0.038,0.331,-5.337
0.232,0.042,0.330,-5.337
0.123,0.042,0.335,-5.337
0.027,0.041,0.336,-5.337
0.023,0.037,0.336,-5.337
0.107,0.037,0.335,-5.337
0.134,0.041,0.336,-5.337
0.104,0.042,0.338,-5.337
0.131,0.040,0.338,-5.337
0.237,0.038,0.333,-5.337
0.275,0.040,0.332,-5.337
0.284,0.036,0.334,-5.337
0.286,0.041,0.334,-5.337
0.248,0.040,0.333,-5.337
0.111,0.040,0.336,-5.337
0.105,0.040,0.334,-5.337
0.160,0.041,0.335,-5.337
0.230,0.040,0.337,-5.337
0.310,0.039,0.336,-5.337
0.227,0.042,0.333,-5.337
0.169,0.042,0.334,-5.337
0.158,0.044,0.334,-5.337
0.191,0.042,0.333,-5.337
0.296,0.040,0.336,-5.337
0.344,0.041,0.338,-5.337
0.283,0.044,0.340,-5.337
0.237,0.040,0.336,-5.337
0.268,0.039,0.337,-5.337
0.288,0.039,0.336,-5.337
0.261,0.042,0.334,-5.337
0.194,0.048,0.336,-5.337
0.132,0.052,0.340,-5.337
0.116,0.048,0.338,-5.337
0.151,0.048,0.336,-5.337
0.176,0.044,0.331,-5.337
0.187,0.046,0.330,-5.337
0.160,0.045,0.328,-5.337
0.171,0.043,0.328,-5.337
0.197,0.041,0.333,-5.337
0.195,0.044,0.337,-5.337
0.130,0.048,0.336,-5.337
0.086,0.046,0.332,-5.337
0.162,0.044,0.332,-5.337
0.234,0.047,0.332,-5.337
0.213,0.049,0.332,-5.337
0.149,0.053,0.336,-5.337
0.155,0.052,0.334,-5.337
0.136,0.052,0.330,-5.337
0.135,0.049,0.330,-5.337
0.211,0.045,0.330,-5.337
0.220,0.046,0.330,-5.337
0.200,0.047,0.330,-5.337
0.172,0.047,0.334,-5.337
0.134,0.048,0.333,-5.337
0.132,0.046,0.332,-5.337
0.132,0.046,0.334,-5.337
0.176,0.048,0.337,-5.337
0.275,0.045,0.338,-5.337
0.320,0.046,0.339,-5.337
0.237,0.044,0.338,-5.337
0.248,0.046,0.339,-5.337
0.229,0.046,0.339,-5.337
0.188,0.046,0.333,-5.337
0.185,0.048,0.328,-5.337
0.197,0.045,0.329,-5.337
0.212,0.044,0.329,-5.337
0.272,0.043,0.331,-5.337
0.298,0.038,0.334,-5.337
0.363,0.036,0.333,-5.337
0.336,0.041,0.334,-5.337
0.283,0.043,0.337,-5.337
0.259,0.040,0.341,-5.337
0.278,0.041,0.340,-5.337
0.203,0.044,0.336,-5.337
0.136,0.042,0.332,-5.337
0.158,0.041,0.332,-5.337
0.247,0.042,0.331,-5.337
0.285,0.045,0.334,-5.337
0.281,0.046,0.331,-5.337
0.135,0.051,0.332,-5.337
0.087,0.048,0.332,-5.337
0.129,0.045,0.333,-5.337
0.200,0.044,0.335,-5.337
0.159,0.045,0.333,-5.337
0.129,0.044,0.333,-5.337
0.229,0.042,0.336,-5.337
0.277,0.046,0.335,-5.337
0.237,0.048,0.335,-5.337
0.233,0.044,0.335,-5.337
0.206,0.047,0.334,-5.337
0.083,0.053,0.332,-5.337
0.092,0.053,0.334,-5.337
0.188,0.050,0.336,-5.337
0.145,0.051,0.332,-5.337
0.115,0.051,0.330,-5.337
0.128,0.054,0.334,-5.337
0.249,0.055,0.337,-5.337
0.313,0.053,0.337,-5.337
0.158,0.050,0.334,-5.337
0.112,0.049,0.333,-5.337
0.192,0.051,0.337,-5.337
0.262,0.050,0.338,-5.337
0.205,0.050,0.335,-5.337
0.154,0.050,0.333,-5.337
0.096,0.049,0.329,-5.337
0.138,0.047,0.325,-5.337
0.179,0.048,0.326,-5.337
0.217,0.048,0.332,-5.337
0.173,0.050,0.340,-5.337
0.146,0.052,0.341,-5.337
0.162,0.050,0.339,-5.337
0.124,0.048,0.335,-5.337
0.206,0.049,0.333,-5.337
0.299,0.047,0.335,-5.337
0.303,0.047,0.339,-5.337
0.220,0.048,0.340,-5.337
0.173,0.045,0.338,-5.337
0.172,0.047,0.339,-5.337
0.180,0.050,0.339,-5.337
0.146,0.054,0.335,-5.337
0.127,0.056,0.329,-5.337
0.101,0.056,0.330,-5.337
0.157,0.053,0.331,-5.337
0.275,0.051,0.328,-5.337
0.291,0.051,0.331,-5.337
0.230,0.051,0.337,-5.337
0.153,0.054,0.340,-5.337
0.184,0.049,0.337,-5.337
0.321,0.047,0.330,-5.337
0.251,0.051,0.326,-5.337
0.213,0.050,0.328,-5.337
0.286,0.050,0.335,-5.337
0.240,0.049,0.337,-5.337
0.158,0.048,0.334,-5.337
0.110,0.049,0.333,-5.337
0.077,0.047,0.333,-5.337
0.052,0.047,0.335,-5.337
0.052,0.046,0.334,-5.337
0.119,0.047,0.334,-5.337
0.215,0.048,0.333,-5.337
0.194,0.049,0.334,-5.337
0.103,0.052,0.330,-5.337
0.082,0.050,0.329,-5.337
0.081,0.054,0.331,-5.337
0.127,0.054,0.335,-5.337
0.262,0.049,0.336,-5.337
0.282,0.052,0.334,-5.337
0.207,0.050,0.336,-5.337
0.137,0.052,0.338,-5.337
0.166,0.051,0.338,-5.337
0.231,0.051,0.336,-5.337
0.283,0.048,0.332,-5.337
0.294,0.050,0.332,-5.337
0.210,0.052,0.330,-5.337
0.092,0.054,0.330,-5.337
0.123,0.054,0.333,-5.337
0.177,0.053,0.332,-5.337
0.166,0.052,0.330,-5.337
0.130,0.051,0.329,-5.337
0.123,0.049,0.330,-5.337
0.147,0.046,0.330,-5.337
0.145,0.043,0.334,-5.337
0.172,0.044,0.335,-5.337
0.133,0.042,0.337,-5.337
0.054,0.042,0.337,-5.337
0.088,0.039,0.337,-5.337
0.169,0.039,0.336,-5.337
0.235,0.036,0.336,-5.337
0.237,0.039,0.337,-5.337
0.186,0.045,0.335,-5.337
0.146,0.047,0.331,-5.337
0.180,0.046,0.328,-5.337
0.152,0.047,0.328,-5.337
0.183,0.047,0.332,-5.337
0.211,0.045,0.333,-5.337
0.164,0.048,0.330,-5.337
0.084,0.052,0.328,-5.337
0.107,0.051,0.330,-5.337
0.201,0.050,0.330,-5.337
0.205,0.051,0.330,-5.337
0.183,0.057,0.329,-5.337
0.181,0.060,0.330,-5.337
0.215,0.056,0.332,-5.337
0.339,0.052,0.330,-5.337
0.286,0.052,0.334,-5.337
0.148,0.054,0.334,-5.337
0.177,0.053,0.332,-5.337
0.276,0.053,0.332,-5.337
0.277,0.054,0.336,-5.337
0.242,0.052,0.335,-5.337
0.264,0.050,0.333,-5.337
0.334,0.045,0.331,-5.337
0.279,0.045,0.333,-5.337
0.146,0.049,0.328,-5.337
0.098,0.052,0.326,-5.337
0.121,0.048,0.328,-5.337
0.194,0.044,0.330,-5.337
0.228,0.044,0.331,-5.337
0.196,0.047,0.333,-5.337
0.192,0.045,0.335,-5.337
0.261,0.041,0.332,-5.337
0.305,0.041,0.329,-5.337
0.320,0.041,0.331,-5.337
0.272,0.041,0.334,-5.337
0.216,0.043,0.335,-5.337
0.256,0.043,0.336,-5.337
0.283,0.045,0.334,-5.337
0.242,0.043,0.332,-5.337
0.150,0.042,0.332,-5.337
0.109,0.046,0.338,-5.337
0.129,0.049,0.333,-5.337
0.167,0.048,0.330,-5.337
0.194,0.046,0.330,-5.337
0.206,0.048,0.333,-5.337
0.204,0.046,0.330,-5.337
0.139,0.050,0.331,-5.337
0.109,0.048,0.334,-5.337
0.125,0.045,0.336,-5.337
0.178,0.045,0.338,-5.337
0.166,0.047,0.335,-5.337
0.084,0.048,0.332,-5.337
0.075,0.047,0.330,-5.337
0.111,0.047,0.330,-5.337
0.181,0.050,0.331,-5.337
0.173,0.051,0.330,-5.337
0.264,0.049,0.331,-5.337
0.275,0.046,0.336,-5.337
0.280,0.045,0.335,-5.337
0.242,0.046,0.333,-5.337
0.242,0.048,0.330,-5.337
0.277,0.048,0.331,-5.337
0.289,0.045,0.333,-5.337
0.304,0.047,0.334,-5.337
0.322,0.043,0.331,-5.337
0.262,0.045,0.335,-5.337
0.195,0.043,0.336,-5.337
0.269,0.042,0.336,-5.337
0.343,0.046,0.333,-5.337
0.294,0.047,0.333,-5.337
0.295,0.048,0.335,-5.337
0.374,0.048,0.335,-5.337
0.288,0.048,0.331,-5.337
0.228,0.050,0.333,-5.337
0.221,0.049,0.333,-5.337
0.239,0.049,0.333,-5.337
0.280,0.047,0.333,-5.337
0.318,0.046,0.334,-5.337
0.318,0.048,0.333,-5.337
0.218,0.048,0.331,-5.337
0.229,0.045,0.332,-5.337
0.245,0.043,0.330,-5.337
0.226,0.042,0.330,-5.337
0.251,0.041,0.331,-5.337
0.220,0.042,0.337,-5.337
0.204,0.043,0.339,-5.337
0.227,0.040,0.336,-5.337
0.291,0.037,0.331,-5.337
0.279,0.044,0.332,-5.337
0.191,0.042,0.329,-5.337
0.164,0.042,0.330,-5.337
0.209,0.040,0.333,-5.337
0.216,0.039,0.337,-5.337
0.228,0.042,0.338,-5.337
0.244,0.043,0.340,-5.337
0.174,0.041,0.340,-5.337
0.087,0.042,0.335,-5.337
0.119,0.041,0.330,-5.337
0.176,0.042,0.330,-5.337
0.153,0.041,0.336,-5.337
0.119,0.039,0.340,-5.337
0.091,0.040,0.342,-5.337
0.117,0.040,0.340,-5.337
0.188,0.037,0.338,-5.337
0.225,0.034,0.330,-5.337
0.229,0.036,0.330,-5.337
0.247,0.038,0.332,-5.337
0.248,0.038,0.334,-5.337
0.240,0.043,0.331,-5.337
0.205,0.045,0.331,-5.337
0.179,0.044,0.331,-5.337
0.188,0.045,0.332,-5.337
0.222,0.043,0.334,-5.337
0.266,0.040,0.339,-5.337
0.252,0.039,0.340,-5.337
0.254,0.040,0.335,-5.337
0.258,0.042,0.332,-5.337
0.280,0.045,0.331,-5.337
0.253,0.045,0.334,-5.337
0.293,0.045,0.339,-5.337
0.199,0.046,0.340,-5.337
0.160,0.045,0.338,-5.337
0.188,0.045,0.335,-5.337
0.127,0.043,0.331,-5.337
0.094,0.042,0.331,-5.337
0.145,0.043,0.333,-5.337
0.216,0.041,0.336,-5.337
0.295,0.042,0.335,-5.337
0.348,0.042,0.336,-5.337
0.293,0.039,0.336,-5.337
0.209,0.039,0.333,-5.337
0.118,0.037,0.332,-5.337
0.128,0.039,0.333,-5.337
0.135,0.041,0.334,-5.337
0.176,0.040,0.335,-5.337
0.144,0.038,0.333,-5.337
0.090,0.036,0.335,-5.337
0.143,0.033,0.338,-5.337
0.253,0.033,0.336,-5.337
0.297,0.036,0.334,-5.337
0.235,0.037,0.338,-5.337
0.228,0.036,0.338,-5.337
0.209,0.038,0.337,-5.337
0.174,0.039,0.335,-5.337
0.225,0.040,0.334,-5.337
0.282,0.041,0.331,-5.337
0.257,0.041,0.331,-5.337
0.159,0.045,0.337,-5.337
0.123,0.041,0.339,-5.337
0.161,0.038,0.338,-5.337
0.277,0.038,0.336,-5.337
0.231,0.042,0.337,-5.337
0.191,0.043,0.336,-5.337
0.202,0.040,0.335,-5.337
0.255,0.038,0.332,-5.337
0.292,0.040,0.334,-5.337
0.228,0.042,0.337,-5.337
0.143,0.045,0.339,-5.337
0.117,0.042,0.339,-5.337
0.167,0.039,0.338,-5.337
0.151,0.040,0.335,-5.337
0.121,0.040,0.334,-5.337
0.164,0.036,0.333,-5.337
0.215,0.036,0.335,-5.337
0.206,0.037,0.337,-5.337
0.268,0.032,0.339,-5.337
0.243,0.033,0.337,-5.337
0.259,0.036,0.333,-5.337
0.155,0.038,0.334,-5.337
0.072,0.039,0.337,-5.337
0.130,0.036,0.335,-5.337
0.156,0.036,0.331,-5.337
0.086,0.037,0.328,-5.337
0.053,0.035,0.334,-5.337
0.209,0.028,0.342,-5.337
0.244,0.031,0.342,-5.337
0.143,0.035,0.339,-5.337
0.170,0.036,0.339,-5.337
0.240,0.035,0.336,-5.337
0.270,0.034,0.330,-5.337
0.203,0.038,0.332,-5.337
0.229,0.037,0.336,-5.337
0.315,0.032,0.340,-5.337
0.227,0.032,0.340,-5.337
0.194,0.036,0.337,-5.337
0.209,0.035,0.337,-5.337
0.170,0.033,0.340,-5.337
0.129,0.034,0.340,-5.337
0.134,0.036,0.335,-5.337
0.188,0.036,0.335,-5.337
0.213,0.038,0.336,-5.337
0.228,0.038,0.337,-5.337
0.256,0.041,0.336,-5.337
0.240,0.042,0.336,-5.337
0.188,0.045,0.335,-5.337
0.183,0.040,0.334,-5.337
0.219,0.038,0.335,-5.337
0.248,0.044,0.338,-5.337
0.224,0.044,0.336,-5.337
0.203,0.045,0.334,-5.337
0.138,0.046,0.334,-5.337
0.101,0.044,0.336,-5.337
0.029,0.045,0.333,-5.337
0.016,0.052,0.334,-5.337
0.090,0.053,0.336,-5.337
0.083,0.054,0.338,-5.337
0.048,0.049,0.338,-5.337
0.127,0.047,0.339,-5.337
0.171,0.051,0.340,-5.337
0.132,0.051,0.340,-5.337
0.097,0.046,0.341,-5.337
0.122,0.044,0.342,-5.337
0.247,0.041,0.338,-5.337
0.283,0.043,0.337,-5.337
0.262,0.044,0.337,-5.337
0.234,0.046,0.336,-5.337
0.244,0.040,0.332,-5.337
0.252,0.039,0.332,-5.337
0.218,0.044,0.335,-5.337
0.232,0.047,0.335,-5.337
0.200,0.048,0.336,-5.337
0.214,0.045,0.338,-5.337
0.207,0.043,0.341,-5.337
0.186,0.044,0.336,-5.337
0.154,0.048,0.334,-5.337
0.177,0.049,0.332,-5.337
0.171,0.046,0.334,-5.337
0.142,0.046,0.338,-5.337
0.220,0.048,0.341,-5.337
0.185,0.044,0.343,-5.337
0.148,0.040,0.340,-5.337
0.134,0.040,0.333,-5.337
0.067,0.044,0.332,-5.337
0.042,0.044,0.332,-5.337
0.047,0.043,0.334,-5.337
0.045,0.043,0.335,-5.337
0.044,0.044,0.337,-5.337
0.098,0.049,0.337,-5.337
0.122,0.048,0.335,-5.337
0.180,0.045,0.339,-5.337
0.189,0.043,0.339,-5.337
0.159,0.047,0.338,-5.337
0.148,0.052,0.340,-5.337
0.138,0.054,0.342,-5.337
0.177,0.051,0.340,-5.337
0.211,0.048,0.336,-5.337
0.219,0.050,0.332,-5.337
0.267,0.050,0.332,-5.337
0.254,0.049,0.334,-5.337
0.127,0.048,0.335,-5.337
0.142,0.048,0.334,-5.337
0.213,0.049,0.332,-5.337
0.204,0.050,0.333,-5.337
0.165,0.049,0.336,-5.337
0.185,0.046,0.336,-5.337
0.206,0.047,0.334,-5.337
0.170,0.048,0.333,-5.337
0.142,0.048,0.336,-5.337
0.135,0.047,0.336,-5.337
0.178,0.048,0.334,-5.337
0.197,0.046,0.337,-5.337
0.210,0.044,0.339,-5.337
0.195,0.043,0.336,-5.337
0.263,0.042,0.335,-5.337
0.284,0.042,0.339,-5.337
0.196,0.044,0.343,-5.337
0.123,0.046,0.342,-5.337
0.131,0.045,0.332,-5.337
0.199,0.043,0.327,-5.337
0.256,0.041,0.327,-5.337
0.220,0.046,0.332,-5.337
0.153,0.045,0.335,-5.337
0.164,0.051,0.338,-5.337
0.189,0.050,0.334,-5.337
0.223,0.048,0.332,-5.337
0.171,0.046,0.334,-5.337
0.122,0.054,0.334,-5.337
0.118,0.055,0.334,-5.337
0.206,0.053,0.337,-5.337
0.223,0.052,0.338,-5.337
0.220,0.054,0.333,-5.337
0.227,0.054,0.330,-5.337
0.266,0.053,0.330,-5.337
0.226,0.051,0.332,-5.337
0.160,0.050,0.336,-5.337
0.221,0.050,0.336,-5.337
0.266,0.049,0.333,-5.337
0.261,0.048,0.334,-5.337
0.237,0.046,0.334,-5.337
0.169,0.045,0.335,-5.337
0.180,0.045,0.337,-5.337
0.223,0.045,0.340,-5.337
0.235,0.045,0.340,-5.337
0.224,0.050,0.336,-5.337
0.140,0.053,0.332,-5.337
0.118,0.050,0.332,-5.337
0.235,0.045,0.334,-5.337
0.265,0.047,0.335,-5.337
0.189,0.045,0.336,-5.337
0.161,0.044,0.336,-5.337
0.183,0.049,0.337,-5.337
0.176,0.051,0.339,-5.337
0.157,0.050,0.339,-5.337
0.131,0.048,0.338,-5.337
0.139,0.051,0.334,-5.337
0.170,0.052,0.332,-5.337
0.172,0.052,0.332,-5.337
0.181,0.050,0.333,-5.337
0.258,0.046,0.336,-5.337
0.156,0.050,0.336,-5.337
0.004,0.054,0.338,-5.337
0.119,0.047,0.340,-5.337
0.229,0.046,0.340,-5.337
0.221,0.050,0.334,-5.337
0.242,0.050,0.334,-5.337
0.217,0.048,0.334,-5.337
0.262,0.048,0.335,-5.337
0.264,0.050,0.333,-5.337
0.238,0.055,0.333,-5.337
0.217,0.051,0.334,-5.337
0.169,0.054,0.338,-5.337
0.168,0.054,0.337,-5.337
0.186,0.052,0.336,-5.337
0.187,0.048,0.337,-5.337
0.169,0.048,0.340,-5.337
0.169,0.048,0.341,-5.337
0.134,0.048,0.339,-5.337
0.100,0.051,0.335,-5.337
0.110,0.049,0.331,-5.337
0.162,0.044,0.330,-5.337
0.261,0.044,0.330,-5.337
0.281,0.048,0.329,-5.337
0.163,0.050,0.331,-5.337
0.100,0.051,0.339,-5.337
0.154,0.049,0.341,-5.337
0.269,0.044,0.340,-5.337
0.283,0.046,0.334,-5.337
0.160,0.049,0.329,-5.337
0.065,0.052,0.330,-5.337
0.112,0.050,0.335,-5.337
0.187,0.045,0.337,-5.337
0.165,0.049,0.337,-5.337
0.193,0.047,0.340,-5.337
0.306,0.051,0.340,-5.337
0.304,0.051,0.335,-5.337
0.223,0.051,0.332,-5.337
0.250,0.051,0.331,-5.337
0.294,0.054,0.330,-5.337
0.234,0.054,0.326,-5.337
0.207,0.052,0.328,-5.337
0.215,0.050,0.336,-5.337
0.256,0.051,0.340,-5.337
0.286,0.051,0.339,-5.337
0.268,0.052,0.332,-5.337
0.211,0.053,0.332,-5.337
0.167,0.053,0.333,-5.337
0.239,0.055,0.338,-5.337
0.244,0.058,0.336,-5.337
0.180,0.057,0.337,-5.337
0.178,0.053,0.337,-5.337
0.251,0.050,0.335,-5.337
0.288,0.054,0.336,-5.337
0.207,0.059,0.335,-5.337
0.127,0.056,0.336,-5.337
0.180,0.056,0.335,-5.337
0.191,0.057,0.334,-5.337
0.098,0.060,0.333,-5.337
0.101,0.057,0.331,-5.337
0.203,0.054,0.331,-5.337
0.265,0.051,0.332,-5.337
0.309,0.053,0.333,-5.337
0.252,0.053,0.332,-5.337
0.156,0.053,0.333,-5.337
0.171,0.052,0.337,-5.337
0.236,0.051,0.335,-5.337
0.251,0.053,0.334,-5.337
0.157,0.057,0.332,-5.337
0.087,0.058,0.333,-5.337
0.131,0.054,0.334,-5.337
0.096,0.055,0.332,-5.337
0.080,0.055,0.330,-5.337
0.151,0.056,0.330,-5.337
0.174,0.057,0.332,-5.337
0.102,0.055,0.335,-5.337
0.121,0.052,0.336,-5.337
0.217,0.053,0.337,-5.337
0.184,0.053,0.342,-5.337
0.146,0.056,0.344,-5.337
0.183,0.057,0.340,-5.337
0.193,0.057,0.337,-5.337
0.212,0.056,0.334,-5.337
0.189,0.056,0.335,-5.337
0.222,0.053,0.332,-5.337
0.190,0.055,0.333,-5.337
0.202,0.055,0.335,-5.337
0.201,0.059,0.335,-5.337
0.126,0.060,0.336,-5.337
0.088,0.058,0.338,-5.337
0.117,0.056,0.338,-5.337
0.205,0.057,0.337,-5.337
0.220,0.057,0.338,-5.337
0.224,0.057,0.334,-5.337
0.260,0.060,0.331,-5.337
0.190,0.062,0.330,-5.337
0.198,0.062,0.333,-5.337
0.220,0.058,0.339,-5.337
0.169,0.059,0.338,-5.337
0.117,0.060,0.334,-5.337
0.152,0.063,0.334,-5.337
0.119,0.063,0.338,-5.337
0.143,0.056,0.335,-5.337
0.304,0.054,0.330,-5.337
0.358,0.060,0.335,-5.337
0.347,0.060,0.340,-5.337
0.359,0.056,0.338,-5.337
0.393,0.056,0.339,-5.337
0.320,0.063,0.341,-5.337
0.123,0.068,0.334,-5.337
0.176,0.067,0.330,-5.337
0.239,0.062,0.334,-5.337
0.187,0.063,0.334,-5.337
0.177,0.062,0.335,-5.337
0.232,0.062,0.335,-5.337
0.213,0.063,0.337,-5.337
0.172,0.064,0.337,-5.337
0.180,0.060,0.335,-5.337
0.259,0.053,0.329,-5.337
0.337,0.057,0.331,-5.337
0.341,0.060,0.332,-5.337
0.265,0.063,0.335,-5.337
0.186,0.063,0.335,-5.337
0.157,0.063,0.332,-5.337
0.196,0.063,0.335,-5.337
0.277,0.063,0.336,-5.337
0.256,0.062,0.337,-5.337
0.192,0.062,0.336,-5.337
0.211,0.064,0.334,-5.337
0.245,0.066,0.333,-5.337
0.272,0.068,0.332,-5.337
0.288,0.072,0.332,-5.337
0.265,0.072,0.331,-5.337
0.249,0.071,0.332,-5.337
0.198,0.069,0.335,-5.337
0.187,0.069,0.341,-5.337
0.125,0.068,0.341,-5.337
0.123,0.065,0.338,-5.337
0.189,0.066,0.335,-5.337
0.255,0.066,0.333,-5.337
0.291,0.067,0.334,-5.337
0.195,0.067,0.335,-5.337
0.136,0.068,0.337,-5.337
0.176,0.067,0.338,-5.337
0.148,0.065,0.338,-5.337
0.163,0.062,0.334,-5.337
0.174,0.066,0.332,-5.337
0.199,0.066,0.332,-5.337
0.261,0.067,0.334,-5.337
0.321,0.065,0.334,-5.337
0.295,0.065,0.333,-5.337
0.231,0.065,0.333,-5.337
0.148,0.070,0.334,-5.337
0.108,0.071,0.330,-5.337
0.132,0.069,0.330,-5.337
0.186,0.066,0.331,-5.337
0.202,0.067,0.333,-5.337
0.170,0.068,0.337,-5.337
0.119,0.069,0.336,-5.337
0.168,0.066,0.335,-5.337
0.237,0.064,0.335,-5.337
0.199,0.066,0.339,-5.337
0.209,0.068,0.336,-5.337
0.202,0.067,0.333,-5.337
0.280,0.063,0.330,-5.337
0.299,0.066,0.333,-5.337
0.213,0.066,0.338,-5.337
0.161,0.065,0.338,-5.337
0.170,0.065,0.335,-5.337
0.138,0.068,0.334,-5.337
0.149,0.063,0.334,-5.337
0.178,0.065,0.335,-5.337
0.193,0.067,0.334,-5.337
0.161,0.065,0.334,-5.337
0.110,0.063,0.329,-5.337
0.141,0.065,0.328,-5.337
0.159,0.068,0.330,-5.337
0.149,0.067,0.334,-5.337
0.186,0.067,0.339,-5.337
0.178,0.067,0.338,-5.337
0.143,0.067,0.336,-5.337
0.159,0.065,0.333,-5.337
0.205,0.066,0.335,-5.337
0.228,0.068,0.332,-5.337
0.239,0.067,0.330,-5.337
0.202,0.066,0.330,-5.337
0.252,0.063,0.330,-5.337
0.316,0.059,0.328,-5.337
0.313,0.062,0.331,-5.337
0.229,0.066,0.336,-5.337
0.170,0.064,0.338,-5.337
0.184,0.060,0.337,-5.337
0.225,0.062,0.336,-5.337
0.280,0.063,0.336,-5.337
0.286,0.061,0.335,-5.337
0.191,0.061,0.333,-5.337
0.200,0.060,0.329,-5.337
0.210,0.061,0.328,-5.337
0.187,0.064,0.329,-5.337
0.303,0.062,0.333,-5.337
0.276,0.060,0.336,-5.337
0.203,0.063,0.337,-5.337
0.169,0.064,0.336,-5.337
0.192,0.060,0.335,-5.337
0.161,0.061,0.332,-5.337
0.122,0.063,0.330,-5.337
0.144,0.063,0.335,-5.337
0.200,0.062,0.336,-5.337
0.149,0.063,0.333,-5.337
0.117,0.062,0.330,-5.337
0.157,0.061,0.330,-5.337
0.117,0.062,0.330,-5.337
0.040,0.059,0.329,-5.337
0.105,0.058,0.328,-5.337
0.237,0.053,0.332,-5.337
0.203,0.055,0.337,-5.337
0.130,0.055,0.341,-5.337
0.235,0.055,0.339,-5.337
0.273,0.058,0.334,-5.337
0.279,0.053,0.333,-5.337
0.277,0.055,0.333,-5.337
0.199,0.057,0.333,-5.337
0.210,0.053,0.331,-5.337
0.305,0.053,0.333,-5.337
0.254,0.056,0.337,-5.337
0.163,0.061,0.336,-5.337
0.213,0.061,0.333,-5.337
0.236,0.059,0.331,-5.337
0.222,0.060,0.332,-5.337
0.167,0.062,0.331,-5.337
0.166,0.062,0.331,-5.337
0.185,0.060,0.330,-5.337
0.212,0.056,0.333,-5.337
0.239,0.058,0.330,-5.337
0.262,0.063,0.333,-5.337
0.201,0.060,0.336,-5.337
0.163,0.058,0.339,-5.337
0.216,0.059,0.337,-5.337
0.316,0.059,0.332,-5.337
0.235,0.061,0.331,-5.337
0.142,0.061,0.330,-5.337
0.194,0.062,0.330,-5.337
0.188,0.058,0.330,-5.337
0.166,0.057,0.332,-5.337
0.134,0.059,0.336,-5.337
0.109,0.060,0.339,-5.337
0.121,0.059,0.339,-5.337
0.128,0.058,0.337,-5.337
0.089,0.057,0.332,-5.337
0.166,0.054,0.328,-5.337
0.265,0.053,0.329,-5.337
0.312,0.054,0.334,-5.337
0.269,0.053,0.335,-5.337
0.244,0.055,0.332,-5.337
0.317,0.056,0.330,-5.337
0.257,0.061,0.334,-5.337
0.186,0.055,0.336,-5.337
0.232,0.053,0.335,-5.337
0.231,0.060,0.330,-5.337
0.272,0.062,0.329,-5.337
0.321,0.058,0.328,-5.337
0.298,0.056,0.332,-5.337
0.189,0.056,0.336,-5.337
0.162,0.056,0.337,-5.337
0.159,0.057,0.336,-5.337
0.200,0.054,0.334,-5.337
0.255,0.052,0.330,-5.337
0.225,0.056,0.335,-5.337
0.170,0.058,0.338,-5.337
0.147,0.056,0.337,-5.337
0.227,0.051,0.336,-5.337
0.326,0.047,0.333,-5.337
0.304,0.051,0.331,-5.337
0.197,0.052,0.331,-5.337
0.200,0.053,0.332,-5.337
0.251,0.052,0.333,-5.337
0.273,0.051,0.332,-5.337
0.189,0.050,0.332,-5.337
0.165,0.054,0.330,-5.337
0.117,0.055,0.328,-5.337
0.093,0.055,0.329,-5.337
0.128,0.052,0.330,-5.337
0.142,0.054,0.336,-5.337
0.120,0.049,0.339,-5.337
0.128,0.047,0.337,-5.337
0.207,0.046,0.336,-5.337
0.220,0.048,0.334,-5.337
0.110,0.051,0.332,-5.337
0.031,0.053,0.330,-5.337
0.108,0.050,0.329,-5.337
0.180,0.050,0.326,-5.337
0.203,0.054,0.327,-5.337
0.266,0.057,0.329,-5.337
0.245,0.057,0.335,-5.337
0.190,0.054,0.336,-5.337
0.177,0.052,0.334,-5.337
0.186,0.056,0.331,-5.337
0.187,0.057,0.333,-5.337
0.170,0.055,0.335,-5.337
0.161,0.054,0.336,-5.337
0.219,0.054,0.334,-5.337
0.208,0.057,0.334,-5.337
0.245,0.054,0.332,-5.337
0.269,0.053,0.334,-5.337
0.212,0.054,0.331,-5.337
0.151,0.049,0.329,-5.337
0.119,0.047,0.327,-5.337
0.160,0.048,0.330,-5.337
0.220,0.045,0.333,-5.337
0.239,0.042,0.335,-5.337
0.236,0.040,0.334,-5.337
0.251,0.042,0.336,-5.337
0.270,0.047,0.333,-5.337
0.260,0.046,0.328,-5.337
0.223,0.047,0.332,-5.337
0.183,0.048,0.334,-5.337
0.195,0.049,0.334,-5.337
0.296,0.045,0.330,-5.337
0.264,0.046,0.330,-5.337
0.210,0.047,0.332,-5.337
0.244,0.045,0.333,-5.337
0.248,0.046,0.331,-5.337
0.176,0.045,0.334,-5.337
0.202,0.044,0.334,-5.337
0.203,0.048,0.332,-5.337
0.203,0.048,0.328,-5.337
0.187,0.050,0.329,-5.337
0.187,0.050,0.331,-5.337
0.192,0.050,0.334,-5.337
0.179,0.050,0.332,-5.337
0.190,0.050,0.330,-5.337
0.210,0.048,0.335,-5.337
0.196,0.047,0.334,-5.337
0.222,0.048,0.331,-5.337
0.257,0.046,0.331,-5.337
0.311,0.044,0.337,-5.337
0.357,0.046,0.337,-5.337
0.296,0.047,0.336,-5.337
0.254,0.050,0.335,-5.337
0.267,0.051,0.338,-5.337
0.275,0.048,0.334,-5.337
0.254,0.052,0.333,-5.337
0.244,0.052,0.332,-5.337
0.225,0.051,0.333,-5.337
0.236,0.048,0.330,-5.337
0.210,0.050,0.328,-5.337
0.180,0.053,0.330,-5.337
0.147,0.055,0.333,-5.337
0.170,0.052,0.336,-5.337
0.206,0.051,0.337,-5.337
0.195,0.050,0.336,-5.337
0.162,0.050,0.333,-5.337
0.115,0.048,0.332,-5.337
0.168,0.047,0.331,-5.337
0.279,0.046,0.329,-5.337
0.296,0.047,0.331,-5.337
0.193,0.047,0.332,-5.337
0.185,0.048,0.336,-5.337
0.235,0.050,0.340,-5.337
0.270,0.046,0.340,-5.337
0.274,0.043,0.337,-5.337
0.258,0.043,0.333,-5.337
0.248,0.049,0.336,-5.337
0.174,0.049,0.337,-5.337
0.168,0.045,0.338,-5.337
0.172,0.046,0.336,-5.337
0.155,0.046,0.336,-5.337
0.152,0.046,0.335,-5.337
0.141,0.046,0.333,-5.337
0.107,0.044,0.330,-5.337
0.121,0.043,0.333,-5.337
0.170,0.041,0.334,-5.337
0.260,0.044,0.333,-5.337
0.261,0.045,0.332,-5.337
0.223,0.045,0.334,-5.337
0.245,0.041,0.335,-5.337
0.252,0.041,0.335,-5.337
0.174,0.042,0.336,-5.337
0.175,0.045,0.336,-5.337
0.200,0.045,0.332,-5.337
0.225,0.048,0.331,-5.337
0.294,0.046,0.332,-5.337
0.336,0.046,0.336,-5.337
0.305,0.045,0.342,-5.337
0.248,0.047,0.342,-5.337
0.290,0.046,0.340,-5.337
0.248,0.047,0.338,-5.337
0.237,0.048,0.333,-5.337
0.207,0.044,0.331,-5.337
0.236,0.043,0.336,-5.337
0.206,0.047,0.338,-5.337
0.179,0.047,0.337,-5.337
0.192,0.048,0.332,-5.337
0.270,0.049,0.328,-5.337
0.343,0.044,0.328,-5.337
0.321,0.045,0.330,-5.337
0.243,0.047,0.330,-5.337
0.256,0.048,0.333,-5.337
0.248,0.047,0.338,-5.337
0.220,0.047,0.337,-5.337
0.219,0.044,0.337,-5.337
0.239,0.043,0.335,-5.337
0.247,0.045,0.336,-5.337
0.157,0.045,0.339,-5.337
0.152,0.048,0.342,-5.337
0.162,0.049,0.341,-5.337
0.146,0.047,0.334,-5.337
0.145,0.048,0.329,-5.337
0.166,0.047,0.331,-5.337
0.173,0.048,0.334,-5.337
0.205,0.044,0.335,-5.337
0.241,0.045,0.335,-5.337
0.186,0.048,0.336,-5.337
0.127,0.051,0.336,-5.337
0.198,0.052,0.335,-5.337
0.265,0.049,0.336,-5.337
0.270,0.048,0.337,-5.337
0.283,0.047,0.335,-5.337
0.237,0.048,0.333,-5.337
0.218,0.047,0.333,-5.337
0.195,0.048,0.335,-5.337
0.184,0.049,0.334,-5.337
0.178,0.049,0.334,-5.337
0.189,0.048,0.334,-5.337
0.184,0.048,0.332,-5.337
0.219,0.046,0.334,-5.337
0.232,0.046,0.337,-5.337
0.169,0.046,0.336,-5.337
0.203,0.045,0.334,-5.337
0.230,0.046,0.332,-5.337
0.145,0.049,0.333,-5.337
0.151,0.052,0.336,-5.337
0.182,0.051,0.334,-5.337
0.167,0.052,0.334,-5.337
0.196,0.049,0.333,-5.337
0.172,0.051,0.333,-5.337
0.200,0.052,0.334,-5.337
0.318,0.048,0.338,-5.337
0.381,0.045,0.335,-5.337
0.320,0.048,0.333,-5.337
0.228,0.051,0.334,-5.337
0.176,0.052,0.332,-5.337
0.174,0.050,0.329,-5.337
0.137,0.048,0.334,-5.337
0.221,0.046,0.338,-5.337
0.362,0.049,0.339,-5.337
0.292,0.050,0.338,-5.337
0.190,0.048,0.334,-5.337
0.173,0.050,0.329,-5.337
0.246,0.050,0.333,-5.337
0.278,0.048,0.334,-5.337
0.317,0.047,0.330,-5.337
0.303,0.047,0.329,-5.337
0.199,0.049,0.329,-5.337
0.080,0.051,0.333,-5.337
0.105,0.050,0.334,-5.337
0.218,0.047,0.338,-5.337
0.304,0.043,0.338,-5.337
0.253,0.047,0.337,-5.337
0.220,0.048,0.332,-5.337
0.181,0.047,0.329,-5.337
0.132,0.050,0.331,-5.337
0.110,0.051,0.333,-5.337
0.174,0.047,0.336,-5.337
0.153,0.049,0.336,-5.337
0.130,0.050,0.334,-5.337
0.183,0.049,0.331,-5.337
0.236,0.050,0.330,-5.337
0.336,0.047,0.330,-5.337
0.368,0.045,0.327,-5.337
0.280,0.048,0.326,-5.337
0.211,0.050,0.330,-5.337
0.189,0.049,0.333,-5.337
0.119,0.052,0.333,-5.337
0.151,0.050,0.332,-5.337
0.179,0.052,0.337,-5.337
0.166,0.050,0.337,-5.337
0.213,0.052,0.334,-5.337
0.246,0.054,0.332,-5.337
0.181,0.055,0.335,-5.337
0.247,0.050,0.336,-5.337
0.317,0.047,0.331,-5.337
0.292,0.049,0.327,-5.337
0.210,0.051,0.334,-5.337
0.205,0.050,0.341,-5.337
0.223,0.053,0.339,-5.337
0.232,0.055,0.335,-5.337
0.204,0.057,0.332,-5.337
0.169,0.051,0.330,-5.337
0.141,0.047,0.330,-5.337
0.099,0.047,0.332,-5.337
0.134,0.051,0.335,-5.337
0.158,0.054,0.333,-5.337
0.173,0.054,0.335,-5.337
0.199,0.052,0.340,-5.337
0.207,0.051,0.341,-5.337
0.175,0.053,0.337,-5.337
0.124,0.054,0.333,-5.337
0.182,0.050,0.332,-5.337
0.202,0.050,0.331,-5.337
0.259,0.052,0.331,-5.337
0.243,0.055,0.331,-5.337
0.242,0.054,0.329,-5.337
0.189,0.053,0.327,-5.337
0.178,0.054,0.329,-5.337
0.159,0.054,0.331,-5.337
0.182,0.055,0.333,-5.337
0.225,0.049,0.330,-5.337
0.275,0.048,0.330,-5.337
0.262,0.049,0.332,-5.337
0.159,0.053,0.338,-5.337
0.120,0.055,0.341,-5.337
0.104,0.055,0.342,-5.337
0.108,0.055,0.336,-5.337
0.242,0.052,0.334,-5.337
0.260,0.054,0.335,-5.337
0.180,0.056,0.330,-5.337
0.206,0.056,0.330,-5.337
0.261,0.060,0.334,-5.337
0.221,0.060,0.336,-5.337
0.183,0.057,0.337,-5.337
0.245,0.055,0.339,-5.337
0.300,0.055,0.335,-5.337
0.222,0.059,0.333,-5.337
0.160,0.059,0.333,-5.337
0.132,0.061,0.332,-5.337
0.132,0.062,0.330,-5.337
0.148,0.061,0.333,-5.337
0.161,0.063,0.333,-5.337
0.156,0.060,0.334,-5.337
0.150,0.058,0.337,-5.337
0.116,0.059,0.337,-5.337
0.168,0.056,0.333,-5.337
0.209,0.059,0.331,-5.337
0.142,0.060,0.332,-5.337
0.155,0.057,0.333,-5.337
0.232,0.057,0.329,-5.337
0.272,0.052,0.327,-5.337
0.217,0.052,0.329,-5.337
0.201,0.055,0.331,-5.337
0.189,0.058,0.334,-5.337
0.147,0.059,0.339,-5.337
0.285,0.054,0.340,-5.337
0.244,0.055,0.337,-5.337
0.080,0.058,0.335,-5.337
0.122,0.057,0.332,-5.337
0.192,0.060,0.334,-5.337
0.219,0.063,0.330,-5.337
0.202,0.063,0.324,-5.337
0.245,0.064,0.321,-5.337
0.201,0.061,0.326,-5.337
0.192,0.060,0.330,-5.337
0.189,0.064,0.332,-5.337
0.176,0.062,0.332,-5.337
0.255,0.063,0.335,-5.337
0.255,0.063,0.336,-5.337
0.232,0.063,0.336,-5.337
0.223,0.064,0.336,-5.337
0.156,0.064,0.336,-5.337
0.171,0.065,0.333,-5.337
0.188,0.069,0.332,-5.337
0.200,0.067,0.330,-5.337
0.247,0.066,0.331,-5.337
0.203,0.063,0.333,-5.337
0.182,0.063,0.335,-5.337
0.189,0.061,0.333,-5.337
0.198,0.062,0.330,-5.337
0.237,0.062,0.331,-5.337
0.275,0.061,0.332,-5.337
0.211,0.060,0.334,-5.337
0.236,0.059,0.336,-5.337
0.213,0.060,0.338,-5.337
0.201,0.062,0.333,-5.337
0.261,0.060,0.327,-5.337
0.291,0.058,0.327,-5.337
0.250,0.061,0.326,-5.337
0.113,0.063,0.330,-5.337
0.055,0.066,0.335,-5.337
0.092,0.065,0.336,-5.337
0.116,0.062,0.339,-5.337
0.162,0.060,0.339,-5.337
0.197,0.061,0.335,-5.337
0.179,0.067,0.331,-5.337
0.198,0.068,0.329,-5.337
0.164,0.065,0.331,-5.337
0.168,0.063,0.330,-5.337
0.247,0.065,0.334,-5.337
0.232,0.068,0.334,-5.337
0.238,0.066,0.333,-5.337
0.244,0.063,0.330,-5.337
0.187,0.067,0.329,-5.337
0.152,0.068,0.328,-5.337
0.117,0.066,0.328,-5.337
0.161,0.063,0.330,-5.337
0.145,0.062,0.334,-5.337
0.202,0.060,0.334,-5.337
0.243,0.061,0.333,-5.337
0.157,0.062,0.329,-5.337
0.141,0.061,0.330,-5.337
0.122,0.061,0.329,-5.337
0.085,0.060,0.328,-5.337
0.074,0.057,0.332,-5.337
0.160,0.057,0.333,-5.337
0.159,0.064,0.331,-5.337
0.113,0.064,0.331,-5.337
0.152,0.062,0.336,-5.337
0.272,0.065,0.339,-5.337
0.206,0.066,0.339,-5.337
0.116,0.064,0.338,-5.337
0.192,0.058,0.337,-5.337
0.288,0.057,0.334,-5.337
0.213,0.063,0.330,-5.337
0.209,0.064,0.324,-5.337
0.150,0.068,0.328,-5.337
0.108,0.068,0.332,-5.337
0.054,0.067,0.335,-5.337
0.122,0.064,0.334,-5.337
0.192,0.065,0.336,-5.337
0.236,0.064,0.333,-5.337
0.225,0.064,0.330,-5.337
0.199,0.061,0.332,-5.337
0.255,0.061,0.333,-5.337
0.264,0.063,0.336,-5.337
0.238,0.063,0.337,-5.337
0.230,0.061,0.335,-5.337
0.262,0.063,0.331,-5.337
0.237,0.062,0.332,-5.337
0.211,0.067,0.335,-5.337
0.176,0.068,0.334,-5.337
0.202,0.070,0.330,-5.337
0.229,0.068,0.333,-5.337
0.221,0.069,0.336,-5.337
0.098,0.068,0.339,-5.337
0.059,0.067,0.336,-5.337
0.048,0.072,0.333,-5.337
0.146,0.071,0.333,-5.337
0.232,0.069,0.339,-5.337
0.174,0.068,0.338,-5.337
0.161,0.068,0.332,-5.337
0.226,0.069,0.328,-5.337
0.178,0.070,0.328,-5.337
0.147,0.072,0.331,-5.337
0.158,0.072,0.335,-5.337
0.205,0.069,0.335,-5.337
0.209,0.071,0.334,-5.337
0.156,0.070,0.337,-5.337
0.158,0.067,0.341,-5.337
0.258,0.063,0.337,-5.337
0.270,0.062,0.336,-5.337
0.197,0.063,0.334,-5.337
0.117,0.067,0.335,-5.337
0.083,0.069,0.339,-5.337
0.092,0.067,0.342,-5.337
0.114,0.065,0.343,-5.337
0.230,0.062,0.339,-5.337
0.330,0.063,0.335,-5.337
0.300,0.061,0.331,-5.337
0.233,0.058,0.331,-5.337
0.270,0.059,0.330,-5.337
0.243,0.061,0.332,-5.337
0.179,0.061,0.333,-5.337
0.113,0.064,0.335,-5.337
0.134,0.064,0.335,-5.337
0.195,0.063,0.335,-5.337
0.204,0.060,0.336,-5.337
0.233,0.063,0.337,-5.337
0.218,0.064,0.335,-5.337
0.206,0.063,0.336,-5.337
0.135,0.063,0.337,-5.337
0.158,0.063,0.337,-5.337
0.233,0.062,0.335,-5.337
0.244,0.061,0.335,-5.337
0.213,0.063,0.338,-5.337
0.164,0.065,0.340,-5.337
0.100,0.069,0.340,-5.337
0.191,0.065,0.339,-5.337
0.257,0.065,0.334,-5.337
0.211,0.068,0.330,-5.337
0.125,0.066,0.332,-5.337
0.061,0.066,0.332,-5.337
0.086,0.063,0.334,-5.337
0.172,0.066,0.338,-5.337
0.198,0.065,0.342,-5.337
0.242,0.061,0.340,-5.337
0.318,0.060,0.337,-5.337
0.316,0.063,0.336,-5.337
0.224,0.066,0.335,-5.337
0.135,0.066,0.331,-5.337
0.155,0.062,0.335,-5.337
0.175,0.064,0.338,-5.337
0.101,0.068,0.341,-5.337
0.035,0.068,0.344,-5.337
0.093,0.067,0.343,-5.337
0.143,0.063,0.339,-5.337
0.165,0.061,0.337,-5.337
0.184,0.065,0.336,-5.337
0.105,0.064,0.333,-5.337
0.104,0.063,0.336,-5.337
0.168,0.064,0.336,-5.337
0.181,0.063,0.340,-5.337
0.134,0.064,0.341,-5.337
0.140,0.062,0.337,-5.337
0.196,0.065,0.332,-5.337
0.235,0.065,0.335,-5.337
0.238,0.061,0.338,-5.337
0.204,0.062,0.337,-5.337
0.194,0.061,0.333,-5.337
0.230,0.060,0.330,-5.337
0.202,0.064,0.332,-5.337
0.131,0.066,0.335,-5.337
0.163,0.062,0.335,-5.337
0.220,0.061,0.335,-5.337
0.118,0.065,0.335,-5.337
0.098,0.061,0.336,-5.337
0.194,0.056,0.336,-5.337
0.249,0.058,0.336,-5.337
0.193,0.059,0.335,-5.337
0.187,0.060,0.335,-5.337
0.210,0.056,0.335,-5.337
0.192,0.056,0.333,-5.337
0.204,0.056,0.332,-5.337
0.251,0.057,0.333,-5.337
0.272,0.057,0.335,-5.337
0.287,0.057,0.335,-5.337
0.299,0.058,0.336,-5.337
0.275,0.059,0.339,-5.337
0.254,0.060,0.342,-5.337
0.253,0.056,0.341,-5.337
0.150,0.061,0.338,-5.337
0.122,0.062,0.338,-5.337
0.120,0.058,0.338,-5.337
0.154,0.053,0.339,-5.337
0.166,0.056,0.337,-5.337
0.123,0.056,0.334,-5.337
0.141,0.054,0.334,-5.337
0.201,0.054,0.334,-5.337
0.237,0.052,0.334,-5.337
0.206,0.053,0.332,-5.337
0.140,0.054,0.335,-5.337
0.146,0.054,0.336,-5.337
0.186,0.055,0.338,-5.337
0.195,0.057,0.342,-5.337
0.145,0.059,0.342,-5.337
0.020,0.056,0.340,-5.337
0.085,0.054,0.336,-5.337
0.205,0.058,0.336,-5.337
0.229,0.055,0.335,-5.337
0.191,0.054,0.336,-5.337
0.180,0.055,0.333,-5.337
0.180,0.058,0.336,-5.337
0.195,0.054,0.339,-5.337
0.189,0.052,0.335,-5.337
0.201,0.055,0.330,-5.337
0.232,0.055,0.332,-5.337
0.241,0.053,0.337,-5.337
0.215,0.053,0.341,-5.337
0.247,0.051,0.341,-5.337
0.310,0.050,0.336,-5.337
0.306,0.049,0.330,-5.337
0.230,0.051,0.332,-5.337
0.190,0.052,0.336,-5.337
0.086,0.052,0.340,-5.337
0.015,0.052,0.341,-5.337
0.111,0.051,0.340,-5.337
0.188,0.052,0.339,-5.337
0.199,0.050,0.338,-5.337
0.225,0.048,0.340,-5.337
0.186,0.046,0.339,-5.337
0.164,0.048,0.340,-5.337
0.149,0.049,0.338,-5.337
0.163,0.046,0.337,-5.337
0.228,0.045,0.335,-5.337
0.241,0.048,0.337,-5.337
0.269,0.047,0.336,-5.337
0.265,0.049,0.335,-5.337
0.256,0.049,0.336,-5.337
0.226,0.054,0.337,-5.337
0.200,0.054,0.336,-5.337
0.169,0.051,0.333,-5.337
0.157,0.050,0.332,-5.337
0.175,0.047,0.335,-5.337
0.158,0.052,0.338,-5.337
0.182,0.054,0.345,-5.337
0.166,0.051,0.345,-5.337
0.211,0.048,0.342,-5.337
0.195,0.046,0.334,-5.337
0.152,0.046,0.333,-5.337
0.134,0.046,0.334,-5.337
0.124,0.048,0.336,-5.337
0.249,0.045,0.339,-5.337
0.351,0.046,0.336,-5.337
0.362,0.045,0.333,-5.337
0.236,0.047,0.334,-5.337
0.116,0.046,0.339,-5.337
0.081,0.043,0.338,-5.337
0.138,0.040,0.335,-5.337
0.163,0.041,0.335,-5.337
0.157,0.042,0.336,-5.337
0.170,0.045,0.333,-5.337
0.164,0.048,0.333,-5.337
0.174,0.048,0.334,-5.337
0.241,0.048,0.335,-5.337
0.295,0.044,0.338,-5.337
0.299,0.044,0.338,-5.337
0.305,0.039,0.337,-5.337
0.284,0.036,0.338,-5.337
0.230,0.040,0.334,-5.337
0.203,0.040,0.332,-5.337
0.183,0.046,0.334,-5.337
0.216,0.045,0.338,-5.337
0.161,0.043,0.340,-5.337
0.180,0.043,0.340,-5.337
0.216,0.042,0.341,-5.337
0.242,0.044,0.338,-5.337
0.249,0.044,0.334,-5.337
0.214,0.044,0.335,-5.337
0.124,0.045,0.338,-5.337
0.092,0.047,0.336,-5.337
0.179,0.051,0.336,-5.337
0.193,0.048,0.335,-5.337
0.183,0.046,0.337,-5.337
0.107,0.049,0.335,-5.337
0.141,0.050,0.336,-5.337
0.185,0.050,0.337,-5.337
0.172,0.049,0.337,-5.337
0.149,0.049,0.333,-5.337
0.137,0.045,0.333,-5.337
0.203,0.041,0.335,-5.337
0.230,0.041,0.335,-5.337
0.162,0.044,0.333,-5.337
0.102,0.046,0.334,-5.337
0.120,0.046,0.333,-5.337
0.096,0.045,0.332,-5.337
0.027,0.049,0.333,-5.337
0.104,0.045,0.333,-5.337
0.176,0.040,0.334,-5.337
0.173,0.042,0.338,-5.337
0.160,0.045,0.341,-5.337
0.187,0.042,0.340,-5.337
0.208,0.044,0.339,-5.337
0.123,0.045,0.336,-5.337
0.023,0.046,0.336,-5.337
0.072,0.046,0.334,-5.337
0.158,0.043,0.336,-5.337
0.167,0.043,0.340,-5.337
0.223,0.045,0.340,-5.337
0.231,0.039,0.336,-5.337
0.128,0.040,0.337,-5.337
0.116,0.043,0.335,-5.337
0.130,0.046,0.335,-5.337
0.135,0.045,0.334,-5.337
0.163,0.040,0.335,-5.337
0.199,0.038,0.335,-5.337
0.166,0.038,0.338,-5.337
0.241,0.040,0.334,-5.337
0.294,0.041,0.331,-5.337
0.248,0.041,0.335,-5.337
0.196,0.042,0.333,-5.337
0.108,0.042,0.334,-5.337
0.068,0.043,0.335,-5.337
0.138,0.041,0.338,-5.337
0.143,0.039,0.337,-5.337
0.172,0.035,0.339,-5.337
0.213,0.035,0.343,-5.337
0.123,0.039,0.345,-5.337
0.088,0.037,0.341,-5.337
0.135,0.039,0.336,-5.337
0.114,0.042,0.333,-5.337
0.166,0.044,0.329,-5.337
0.234,0.041,0.327,-5.337
0.240,0.037,0.333,-5.337
0.219,0.039,0.337,-5.337
0.178,0.041,0.339,-5.337
0.169,0.040,0.340,-5.337
0.137,0.038,0.341,-5.337
0.146,0.040,0.341,-5.337
0.192,0.040,0.341,-5.337
0.207,0.040,0.341,-5.337
0.156,0.042,0.340,-5.337
0.167,0.041,0.339,-5.337
0.221,0.040,0.337,-5.337
0.225,0.041,0.338,-5.337
0.183,0.039,0.333,-5.337
0.180,0.040,0.329,-5.337
0.183,0.043,0.328,-5.337
0.171,0.042,0.335,-5.337
0.253,0.040,0.340,-5.337
0.259,0.042,0.342,-5.337
0.178,0.044,0.340,-5.337
0.099,0.046,0.339,-5.337
0.048,0.046,0.337,-5.337
0.035,0.048,0.335,-5.337
0.084,0.048,0.333,-5.337
0.140,0.046,0.336,-5.337
0.201,0.042,0.338,-5.337
0.181,0.043,0.340,-5.337
0.131,0.046,0.338,-5.337
0.122,0.044,0.336,-5.337
0.119,0.042,0.336,-5.337
0.204,0.045,0.335,-5.337
0.243,0.046,0.335,-5.337
0.275,0.043,0.336,-5.337
0.282,0.043,0.335,-5.337
0.273,0.042,0.336,-5.337
0.276,0.042,0.339,-5.337
0.200,0.045,0.339,-5.337
0.104,0.046,0.341,-5.337
0.158,0.043,0.339,-5.337
0.235,0.043,0.339,-5.337
0.144,0.041,0.337,-5.337
0.114,0.043,0.336,-5.337
0.253,0.042,0.333,-5.337
0.281,0.042,0.335,-5.337
0.168,0.042,0.338,-5.337
0.134,0.046,0.341,-5.337
0.088,0.044,0.343,-5.337
0.113,0.042,0.343,-5.337
0.162,0.043,0.342,-5.337
0.174,0.045,0.339,-5.337
0.146,0.044,0.337,-5.337
0.159,0.044,0.337,-5.337
0.194,0.042,0.337,-5.337
0.215,0.042,0.334,-5.337
0.189,0.044,0.335,-5.337
0.173,0.045,0.340,-5.337
0.236,0.041,0.346,-5.337
0.286,0.041,0.343,-5.337
0.275,0.044,0.342,-5.337
0.238,0.041,0.338,-5.337
0.186,0.041,0.337,-5.337
0.088,0.043,0.336,-5.337
0.048,0.044,0.336,-5.337
0.092,0.044,0.335,-5.337
0.103,0.041,0.337,-5.337
0.123,0.039,0.339,-5.337
0.155,0.041,0.343,-5.337
0.183,0.043,0.342,-5.337
0.209,0.044,0.338,-5.337
0.239,0.041,0.339,-5.337
0.229,0.041,0.338,-5.337
0.202,0.044,0.340,-5.337
0.164,0.043,0.341,-5.337
0.160,0.042,0.339,-5.337
0.204,0.040,0.337,-5.337
0.186,0.040,0.336,-5.337
0.142,0.041,0.339,-5.337
0.152,0.040,0.342,-5.337
0.179,0.040,0.337,-5.337
0.177,0.044,0.334,-5.337
0.195,0.046,0.332,-5.337
0.185,0.042,0.334,-5.337
0.165,0.038,0.335,-5.337
0.118,0.039,0.339,-5.337
0.097,0.042,0.342,-5.337
0.167,0.042,0.344,-5.337
0.250,0.038,0.343,-5.337
0.238,0.042,0.342,-5.337
0.141,0.046,0.341,-5.337
0.058,0.049,0.342,-5.337
0.095,0.044,0.341,-5.337
0.190,0.041,0.343,-5.337
0.220,0.039,0.343,-5.337
0.131,0.046,0.341,-5.337
0.046,0.050,0.340,-5.337
0.103,0.044,0.339,-5.337
0.232,0.042,0.339,-5.337
0.219,0.049,0.335,-5.337
0.170,0.050,0.337,-5.337
0.127,0.050,0.342,-5.337
0.138,0.043,0.345,-5.337
0.249,0.041,0.340,-5.337
0.246,0.045,0.335,-5.337
0.206,0.047,0.333,-5.337
0.197,0.047,0.336,-5.337
0.104,0.049,0.332,-5.337
0.075,0.049,0.332,-5.337
0.111,0.046,0.336,-5.337
0.092,0.050,0.341,-5.337
0.065,0.049,0.342,-5.337
0.112,0.050,0.341,-5.337
0.225,0.049,0.336,-5.337
0.231,0.044,0.335,-5.337
0.204,0.047,0.340,-5.337
0.163,0.046,0.343,-5.337
0.184,0.045,0.338,-5.337
0.196,0.043,0.335,-5.337
0.155,0.042,0.338,-5.337
0.124,0.044,0.339,-5.337
0.150,0.046,0.342,-5.337
0.128,0.047,0.343,-5.337
0.077,0.046,0.344,-5.337
0.101,0.044,0.342,-5.337
0.174,0.044,0.340,-5.337
0.240,0.044,0.340,-5.337
0.235,0.044,0.343,-5.337
0.172,0.048,0.342,-5.337
0.095,0.051,0.338,-5.337
0.072,0.051,0.335,-5.337
0.157,0.047,0.337,-5.337
0.131,0.046,0.339,-5.337
0.115,0.047,0.339,-5.337
0.098,0.048,0.337,-5.337
0.097,0.049,0.336,-5.337
0.082,0.050,0.333,-5.337
0.112,0.047,0.336,-5.337
0.148,0.049,0.340,-5.337
0.161,0.046,0.341,-5.337
0.091,0.047,0.340,-5.337
0.078,0.046,0.340,-5.337
0.114,0.046,0.340,-5.337
0.074,0.051,0.342,-5.337
0.078,0.054,0.344,-5.337
0.130,0.054,0.346,-5.337
0.165,0.051,0.343,-5.337
0.225,0.047,0.335,-5.337
0.298,0.047,0.335,-5.337
0.246,0.053,0.337,-5.337
0.134,0.053,0.344,-5.337
0.149,0.050,0.345,-5.337
0.181,0.049,0.342,-5.337
0.232,0.051,0.337,-5.337
0.278,0.053,0.337,-5.337
0.290,0.049,0.337,-5.337
0.277,0.049,0.341,-5.337
0.181,0.048,0.342,-5.337
0.154,0.046,0.340,-5.337
0.248,0.043,0.340,-5.337
0.273,0.045,0.338,-5.337
0.183,0.045,0.341,-5.337
0.128,0.045,0.342,-5.337
0.265,0.045,0.340,-5.337
0.308,0.047,0.339,-5.337
0.225,0.048,0.336,-5.337
0.190,0.048,0.338,-5.337
0.170,0.049,0.340,-5.337
0.208,0.048,0.343,-5.337
0.246,0.052,0.340,-5.337
0.185,0.055,0.335,-5.337
0.107,0.055,0.335,-5.337
0.163,0.054,0.338,-5.337
0.187,0.052,0.345,-5.337
0.219,0.049,0.346,-5.337
0.225,0.050,0.342,-5.337
0.105,0.054,0.341,-5.337
0.063,0.054,0.342,-5.337
0.104,0.052,0.342,-5.337
0.180,0.050,0.344,-5.337
0.266,0.049,0.341,-5.337
0.220,0.050,0.337,-5.337
0.220,0.052,0.338,-5.337
0.214,0.052,0.341,-5.337
0.239,0.048,0.340,-5.337
0.242,0.050,0.336,-5.337
0.192,0.053,0.335,-5.337
0.203,0.054,0.339,-5.337
0.187,0.054,0.343,-5.337
0.201,0.052,0.346,-5.337
0.195,0.054,0.342,-5.337
0.178,0.053,0.335,-5.337
0.220,0.051,0.332,-5.337
0.269,0.052,0.335,-5.337
0.254,0.055,0.342,-5.337
0.184,0.057,0.341,-5.337
0.113,0.060,0.339,-5.337
0.054,0.062,0.339,-5.337
0.111,0.060,0.339,-5.337
0.202,0.057,0.335,-5.337
0.167,0.055,0.337,-5.337
0.126,0.056,0.339,-5.337
0.154,0.058,0.341,-5.337
0.226,0.057,0.341,-5.337
0.234,0.056,0.342,-5.337
0.210,0.057,0.342,-5.337
0.188,0.055,0.343,-5.337
0.193,0.057,0.340,-5.337
0.189,0.059,0.336,-5.337
0.135,0.060,0.336,-5.337
0.147,0.058,0.339,-5.337
0.155,0.057,0.338,-5.337
0.166,0.057,0.339,-5.337
0.170,0.059,0.343,-5.337
0.182,0.059,0.344,-5.337
0.248,0.059,0.344,-5.337
0.194,0.061,0.341,-5.337
0.190,0.064,0.340,-5.337
0.228,0.061,0.337,-5.337
0.273,0.057,0.338,-5.337
0.271,0.058,0.337,-5.337
0.180,0.061,0.337,-5.337
0.170,0.060,0.336,-5.337
0.294,0.056,0.336,-5.337
0.312,0.052,0.336,-5.337
0.159,0.058,0.335,-5.337
0.084,0.061,0.337,-5.337
0.129,0.064,0.339,-5.337
0.154,0.062,0.342,-5.337
0.109,0.061,0.343,-5.337
0.099,0.064,0.340,-5.337
0.127,0.066,0.336,-5.337
0.148,0.062,0.336,-5.337
0.134,0.064,0.340,-5.337
0.168,0.064,0.340,-5.337
0.241,0.060,0.339,-5.337
0.245,0.061,0.340,-5.337
0.234,0.060,0.340,-5.337
0.157,0.060,0.341,-5.337
0.205,0.061,0.339,-5.337
0.193,0.061,0.338,-5.337
0.137,0.060,0.338,-5.337
0.194,0.059,0.340,-5.337
0.287,0.059,0.340,-5.337
0.252,0.059,0.340,-5.337
0.244,0.059,0.342,-5.337
0.254,0.061,0.342,-5.337
0.271,0.060,0.342,-5.337
0.251,0.062,0.342,-5.337
0.167,0.059,0.338,-5.337
0.155,0.060,0.338,-5.337
0.189,0.064,0.336,-5.337
0.199,0.063,0.337,-5.337
0.194,0.059,0.342,-5.337
0.207,0.058,0.346,-5.337
0.180,0.058,0.339,-5.337
0.188,0.060,0.331,-5.337
0.219,0.060,0.329,-5.337
0.184,0.058,0.329,-5.337
0.149,0.059,0.335,-5.337
0.262,0.060,0.341,-5.337
0.292,0.061,0.348,-5.337
0.234,0.061,0.347,-5.337
0.179,0.060,0.344,-5.337
0.229,0.061,0.338,-5.337
0.326,0.060,0.336,-5.337
0.325,0.056,0.339,-5.337
0.303,0.060,0.340,-5.337
0.278,0.059,0.338,-5.337
0.281,0.061,0.339,-5.337
0.265,0.060,0.340,-5.337
0.255,0.062,0.338,-5.337
0.200,0.064,0.337,-5.337
0.222,0.066,0.338,-5.337
0.260,0.064,0.340,-5.337
0.232,0.066,0.342,-5.337
0.196,0.066,0.342,-5.337
0.182,0.063,0.342,-5.337
0.171,0.062,0.340,-5.337
0.169,0.061,0.341,-5.337
0.150,0.061,0.345,-5.337
0.138,0.059,0.341,-5.337
0.151,0.061,0.337,-5.337
0.180,0.064,0.337,-5.337
0.195,0.063,0.341,-5.337
0.224,0.064,0.339,-5.337
0.184,0.067,0.338,-5.337
0.174,0.064,0.338,-5.337
0.287,0.061,0.342,-5.337
0.293,0.066,0.346,-5.337
0.186,0.064,0.342,-5.337
0.161,0.060,0.338,-5.337
0.230,0.058,0.339,-5.337
0.255,0.058,0.338,-5.337
0.214,0.060,0.340,-5.337
0.133,0.058,0.344,-5.337
0.112,0.061,0.345,-5.337
0.135,0.061,0.342,-5.337
0.163,0.060,0.340,-5.337
0.219,0.059,0.340,-5.337
0.228,0.059,0.339,-5.337
0.261,0.060,0.338,-5.337
0.291,0.060,0.340,-5.337
0.266,0.059,0.341,-5.337
0.144,0.063,0.341,-5.337
0.044,0.064,0.344,-5.337
0.166,0.061,0.344,-5.337
0.267,0.059,0.346,-5.337
0.248,0.061,0.346,-5.337
0.218,0.063,0.346,-5.337
0.241,0.061,0.343,-5.337
0.249,0.063,0.341,-5.337
0.266,0.064,0.339,-5.337
0.242,0.064,0.343,-5.337
0.163,0.060,0.342,-5.337
0.186,0.060,0.337,-5.337
0.185,0.059,0.336,-5.337
0.134,0.060,0.337,-5.337
0.125,0.054,0.342,-5.337
0.206,0.054,0.342,-5.337
0.203,0.059,0.342,-5.337
0.121,0.061,0.344,-5.337
0.098,0.059,0.345,-5.337
0.165,0.057,0.342,-5.337
0.182,0.059,0.340,-5.337
0.141,0.058,0.339,-5.337
0.237,0.053,0.342,-5.337
0.258,0.055,0.346,-5.337
0.216,0.058,0.348,-5.337
0.207,0.059,0.344,-5.337
0.150,0.061,0.345,-5.337
0.136,0.059,0.345,-5.337
0.176,0.059,0.345,-5.337
0.141,0.058,0.343,-5.337
0.138,0.056,0.344,-5.337
0.189,0.056,0.342,-5.337
0.267,0.055,0.340,-5.337
0.241,0.058,0.338,-5.337
0.197,0.057,0.339,-5.337
0.206,0.053,0.341,-5.337
0.278,0.054,0.344,-5.337
0.267,0.058,0.347,-5.337
0.164,0.060,0.343,-5.337
0.125,0.057,0.340,-5.337
0.139,0.056,0.343,-5.337
0.142,0.059,0.343,-5.337
0.166,0.058,0.344,-5.337
0.216,0.052,0.342,-5.337
0.325,0.053,0.343,-5.337
0.276,0.056,0.343,-5.337
0.116,0.061,0.344,-5.337
0.101,0.059,0.347,-5.337
0.204,0.051,0.345,-5.337
0.372,0.047,0.342,-5.337
0.342,0.052,0.339,-5.337
0.170,0.056,0.341,-5.337
0.065,0.057,0.346,-5.337
0.085,0.054,0.349,-5.337
0.142,0.053,0.347,-5.337
0.235,0.052,0.346,-5.337
0.283,0.048,0.343,-5.337
0.236,0.049,0.340,-5.337
0.186,0.048,0.339,-5.337
0.185,0.050,0.345,-5.337
0.203,0.049,0.350,-5.337
0.200,0.050,0.347,-5.337
0.214,0.052,0.340,-5.337
0.249,0.052,0.339,-5.337
0.230,0.054,0.339,-5.337
0.191,0.050,0.336,-5.337
0.102,0.050,0.337,-5.337
0.090,0.050,0.340,-5.337
0.178,0.047,0.344,-5.337
0.270,0.044,0.345,-5.337
0.265,0.044,0.345,-5.337
0.269,0.046,0.345,-5.337
0.255,0.047,0.347,-5.337
0.307,0.046,0.343,-5.337
0.282,0.049,0.343,-5.337
0.242,0.051,0.341,-5.337
0.265,0.050,0.342,-5.337
0.240,0.047,0.343,-5.337
0.271,0.045,0.345,-5.337
0.361,0.043,0.344,-5.337
0.314,0.050,0.344,-5.337
0.289,0.048,0.343,-5.337
0.317,0.048,0.344,-5.337
0.283,0.050,0.344,-5.337
0.231,0.051,0.343,-5.337
0.220,0.050,0.341,-5.337
0.160,0.050,0.344,-5.337
0.191,0.047,0.346,-5.337
0.284,0.048,0.345,-5.337
0.212,0.048,0.346,-5.337
0.204,0.047,0.344,-5.337
0.241,0.049,0.342,-5.337
0.295,0.050,0.340,-5.337
0.296,0.051,0.341,-5.337
0.260,0.051,0.341,-5.337
0.256,0.048,0.343,-5.337
0.205,0.050,0.342,-5.337
0.194,0.054,0.340,-5.337
0.199,0.051,0.342,-5.337
0.170,0.051,0.344,-5.337
0.150,0.049,0.344,-5.337
0.190,0.048,0.343,-5.337
0.189,0.047,0.343,-5.337
0.197,0.049,0.343,-5.337
0.180,0.047,0.343,-5.337
0.189,0.048,0.344,-5.337
0.256,0.048,0.344,-5.337
0.248,0.049,0.342,-5.337
0.291,0.047,0.338,-5.337
0.286,0.052,0.339,-5.337
0.177,0.057,0.344,-5.337
0.129,0.056,0.347,-5.337
0.105,0.053,0.344,-5.337
0.108,0.052,0.338,-5.337
0.099,0.055,0.337,-5.337
0.142,0.054,0.344,-5.337
0.230,0.051,0.348,-5.337
0.248,0.053,0.347,-5.337
0.180,0.054,0.345,-5.337
0.148,0.052,0.340,-5.337
0.188,0.053,0.340,-5.337
0.250,0.049,0.341,-5.337
0.255,0.051,0.343,-5.337
0.212,0.048,0.345,-5.337
0.229,0.047,0.347,-5.337
0.244,0.047,0.346,-5.337
0.216,0.048,0.347,-5.337
0.171,0.045,0.348,-5.337
0.192,0.046,0.345,-5.337
0.219,0.045,0.343,-5.337
0.207,0.044,0.344,-5.337
0.261,0.043,0.340,-5.337
0.285,0.049,0.339,-5.337
0.192,0.052,0.341,-5.337
0.209,0.047,0.345,-5.337
0.236,0.049,0.349,-5.337
0.132,0.053,0.349,-5.337
0.076,0.050,0.345,-5.337
0.171,0.045,0.343,-5.337
0.263,0.042,0.340,-5.337
0.203,0.044,0.337,-5.337
0.174,0.047,0.342,-5.337
0.157,0.050,0.350,-5.337
0.136,0.053,0.350,-5.337
0.151,0.050,0.346,-5.337
0.170,0.051,0.345,-5.337
0.101,0.053,0.343,-5.337
0.125,0.051,0.341,-5.337
0.183,0.048,0.343,-5.337
0.218,0.048,0.346,-5.337
0.226,0.048,0.345,-5.337
0.227,0.050,0.344,-5.337
0.220,0.045,0.342,-5.337
0.171,0.049,0.344,-5.337
0.168,0.050,0.343,-5.337
0.213,0.046,0.343,-5.337
0.230,0.045,0.341,-5.337
0.255,0.047,0.340,-5.337
0.185,0.050,0.345,-5.337
0.114,0.050,0.344,-5.337
0.128,0.046,0.346,-5.337
0.102,0.045,0.342,-5.337
0.205,0.041,0.340,-5.337
0.323,0.040,0.341,-5.337
0.321,0.038,0.345,-5.337
0.295,0.038,0.344,-5.337
0.239,0.039,0.343,-5.337
0.219,0.040,0.345,-5.337
0.274,0.041,0.351,-5.337
0.258,0.041,0.351,-5.337
0.171,0.045,0.348,-5.337
0.148,0.043,0.346,-5.337
0.182,0.042,0.344,-5.337
0.200,0.040,0.342,-5.337
0.190,0.039,0.341,-5.337
0.209,0.037,0.342,-5.337
0.227,0.040,0.343,-5.337
0.159,0.040,0.346,-5.337
0.153,0.041,0.345,-5.337
0.253,0.039,0.341,-5.337
0.301,0.041,0.341,-5.337
0.232,0.047,0.342,-5.337
0.067,0.047,0.342,-5.337
0.092,0.042,0.341,-5.337
0.102,0.042,0.343,-5.337
0.067,0.045,0.346,-5.337
0.163,0.047,0.345,-5.337
0.260,0.045,0.344,-5.337
0.299,0.044,0.340,-5.337
0.297,0.046,0.344,-5.337
0.243,0.043,0.344,-5.337
0.203,0.045,0.341,-5.337
0.233,0.043,0.340,-5.337
0.263,0.044,0.339,-5.337
0.234,0.045,0.342,-5.337
0.178,0.044,0.347,-5.337
0.183,0.043,0.349,-5.337
0.251,0.042,0.347,-5.337
0.269,0.038,0.347,-5.337
0.344,0.038,0.344,-5.337
0.304,0.042,0.346,-5.337
0.167,0.045,0.350,-5.337
0.155,0.044,0.347,-5.337
0.126,0.045,0.344,-5.337
0.138,0.044,0.343,-5.337
0.150,0.043,0.342,-5.337
0.123,0.044,0.346,-5.337
0.070,0.043,0.345,-5.337
0.077,0.039,0.344,-5.337
0.222,0.038,0.341,-5.337
0.296,0.041,0.341,-5.337
0.274,0.042,0.344,-5.337
0.300,0.043,0.344,-5.337
0.283,0.043,0.344,-5.337
0.247,0.043,0.342,-5.337
0.237,0.041,0.343,-5.337
0.281,0.041,0.343,-5.337
0.328,0.041,0.343,-5.337
0.306,0.045,0.343,-5.337
0.206,0.048,0.347,-5.337
0.127,0.047,0.349,-5.337
0.144,0.045,0.342,-5.337
0.136,0.050,0.339,-5.337
0.141,0.050,0.341,-5.337
0.093,0.050,0.344,-5.337
0.122,0.051,0.342,-5.337
0.131,0.049,0.342,-5.337
0.117,0.052,0.346,-5.337
0.147,0.050,0.346,-5.337
0.195,0.047,0.347,-5.337
0.165,0.049,0.345,-5.337
0.155,0.051,0.347,-5.337
0.176,0.048,0.345,-5.337
0.268,0.047,0.341,-5.337
0.263,0.046,0.338,-5.337
0.232,0.043,0.338,-5.337
0.175,0.044,0.342,-5.337
0.207,0.044,0.343,-5.337
0.258,0.043,0.342,-5.337
0.197,0.046,0.345,-5.337
0.162,0.046,0.347,-5.337
0.186,0.046,0.345,-5.337
0.260,0.046,0.342,-5.337
0.276,0.048,0.342,-5.337
0.180,0.049,0.340,-5.337
0.102,0.048,0.340,-5.337
0.162,0.046,0.345,-5.337
0.184,0.049,0.347,-5.337
0.112,0.053,0.346,-5.337
0.108,0.048,0.346,-5.337
0.166,0.042,0.342,-5.337
0.190,0.044,0.340,-5.337
0.200,0.048,0.343,-5.337
0.210,0.047,0.344,-5.337
0.255,0.041,0.341,-5.337
0.283,0.042,0.340,-5.337
0.297,0.044,0.345,-5.337
0.318,0.043,0.350,-5.337
0.284,0.044,0.349,-5.337
0.234,0.044,0.345,-5.337
0.236,0.048,0.343,-5.337
0.193,0.049,0.344,-5.337
0.162,0.046,0.347,-5.337
0.173,0.041,0.348,-5.337
0.174,0.042,0.347,-5.337
0.157,0.047,0.348,-5.337
0.196,0.047,0.349,-5.337
0.204,0.047,0.349,-5.337
0.140,0.043,0.345,-5.337
0.141,0.042,0.338,-5.337
0.221,0.043,0.336,-5.337
0.242,0.045,0.338,-5.337
0.236,0.047,0.337,-5.337
0.174,0.049,0.340,-5.337
0.135,0.051,0.342,-5.337
0.123,0.047,0.347,-5.337
0.178,0.045,0.345,-5.337
0.154,0.048,0.344,-5.337
0.152,0.047,0.344,-5.337
0.166,0.049,0.348,-5.337
0.126,0.047,0.349,-5.337
0.162,0.045,0.348,-5.337
0.312,0.045,0.347,-5.337
0.277,0.054,0.347,-5.337
0.198,0.052,0.345,-5.337
0.174,0.049,0.344,-5.337
0.314,0.042,0.345,-5.337
0.378,0.042,0.347,-5.337
0.282,0.047,0.345,-5.337
0.205,0.049,0.346,-5.337
0.153,0.050,0.346,-5.337
0.125,0.052,0.345,-5.337
0.135,0.053,0.347,-5.337
0.176,0.049,0.346,-5.337
0.211,0.045,0.345,-5.337
0.191,0.048,0.347,-5.337
0.208,0.048,0.349,-5.337
0.164,0.051,0.349,-5.337
0.132,0.056,0.348,-5.337
0.180,0.054,0.345,-5.337
0.231,0.053,0.345,-5.337
0.184,0.055,0.347,-5.337
0.145,0.053,0.350,-5.337
0.210,0.047,0.348,-5.337
0.258,0.047,0.346,-5.337
0.219,0.049,0.344,-5.337
0.153,0.053,0.341,-5.337
0.131,0.055,0.342,-5.337
0.182,0.050,0.347,-5.337
0.238,0.051,0.351,-5.337
0.259,0.052,0.351,-5.337
0.261,0.051,0.347,-5.337
0.258,0.052,0.343,-5.337
0.237,0.052,0.341,-5.337
0.177,0.050,0.342,-5.337
0.180,0.047,0.345,-5.337
0.229,0.048,0.345,-5.337
0.185,0.054,0.347,-5.337
0.136,0.055,0.353,-5.337
0.130,0.053,0.357,-5.337
0.156,0.050,0.351,-5.337
0.150,0.055,0.345,-5.337
0.179,0.056,0.344,-5.337
0.239,0.052,0.349,-5.337
0.280,0.049,0.349,-5.337
0.309,0.052,0.348,-5.337
0.258,0.055,0.345,-5.337
0.205,0.054,0.346,-5.337
0.130,0.049,0.347,-5.337
0.056,0.053,0.346,-5.337
0.136,0.051,0.345,-5.337
0.203,0.052,0.347,-5.337
0.160,0.052,0.348,-5.337
0.144,0.052,0.347,-5.337
0.137,0.055,0.341,-5.337
0.158,0.055,0.340,-5.337
0.200,0.052,0.342,-5.337
0.213,0.051,0.344,-5.337
0.194,0.054,0.346,-5.337
0.157,0.055,0.347,-5.337
0.186,0.054,0.348,-5.337
0.274,0.056,0.349,-5.337
0.201,0.058,0.350,-5.337
0.180,0.055,0.347,-5.337
0.237,0.056,0.344,-5.337
0.218,0.061,0.345,-5.337
0.201,0.061,0.346,-5.337
0.194,0.058,0.345,-5.337
0.161,0.055,0.347,-5.337
0.152,0.055,0.346,-5.337
0.194,0.057,0.343,-5.337
0.205,0.060,0.342,-5.337
0.135,0.059,0.339,-5.337
0.098,0.055,0.337,-5.337
0.075,0.057,0.338,-5.337
0.163,0.056,0.342,-5.337
0.182,0.059,0.343,-5.337
0.172,0.058,0.342,-5.337
0.120,0.061,0.340,-5.337
0.033,0.061,0.341,-5.337
0.057,0.060,0.343,-5.337
0.159,0.056,0.346,-5.337
0.220,0.052,0.348,-5.337
0.214,0.051,0.351,-5.337
0.220,0.052,0.348,-5.337
0.287,0.057,0.347,-5.337
0.284,0.059,0.347,-5.337
0.178,0.058,0.346,-5.337
0.048,0.059,0.345,-5.337
0.101,0.059,0.345,-5.337
0.229,0.054,0.346,-5.337
0.267,0.055,0.342,-5.337
0.205,0.056,0.338,-5.337
0.130,0.054,0.341,-5.337
0.104,0.055,0.344,-5.337
0.098,0.055,0.350,-5.337
0.137,0.054,0.351,-5.337
0.222,0.055,0.350,-5.337
0.230,0.057,0.346,-5.337
0.194,0.058,0.343,-5.337
0.189,0.055,0.342,-5.337
0.176,0.055,0.343,-5.337
0.158,0.057,0.345,-5.337
0.163,0.057,0.344,-5.337
0.199,0.057,0.346,-5.337
0.165,0.057,0.343,-5.337
0.199,0.056,0.341,-5.337
0.203,0.056,0.340,-5.337
0.177,0.055,0.343,-5.337
0.165,0.058,0.345,-5.337
0.154,0.059,0.342,-5.337
0.144,0.059,0.339,-5.337
0.138,0.060,0.340,-5.337
0.089,0.061,0.342,-5.337
0.046,0.061,0.344,-5.337
0.037,0.060,0.347,-5.337
0.094,0.060,0.350,-5.337
0.133,0.059,0.351,-5.337
0.114,0.059,0.349,-5.337
0.144,0.055,0.348,-5.337
0.232,0.054,0.347,-5.337
0.192,0.059,0.342,-5.337
0.190,0.059,0.340,-5.337
0.210,0.057,0.342,-5.337
0.201,0.058,0.344,-5.337
0.131,0.057,0.344,-5.337
0.143,0.053,0.343,-5.337
0.257,0.051,0.342,-5.337
0.342,0.051,0.345,-5.337
0.263,0.054,0.350,-5.337
0.140,0.052,0.348,-5.337
0.159,0.053,0.347,-5.337
0.207,0.054,0.343,-5.337
0.283,0.051,0.342,-5.337
0.297,0.053,0.344,-5.337
0.225,0.060,0.344,-5.337
0.256,0.056,0.340,-5.337
0.320,0.058,0.339,-5.337
0.253,0.060,0.343,-5.337
0.165,0.059,0.348,-5.337
0.185,0.055,0.349,-5.337
0.186,0.056,0.349,-5.337
0.172,0.058,0.347,-5.337
0.176,0.054,0.344,-5.337
0.211,0.053,0.345,-5.337
0.225,0.051,0.345,-5.337
0.222,0.058,0.342,-5.337
0.119,0.056,0.339,-5.337
0.126,0.052,0.341,-5.337
0.155,0.055,0.340,-5.337
0.168,0.058,0.343,-5.337
0.208,0.056,0.343,-5.337
0.233,0.054,0.342,-5.337
0.217,0.057,0.342,-5.337
0.208,0.059,0.348,-5.337
0.180,0.059,0.352,-5.337
0.143,0.056,0.352,-5.337
0.186,0.056,0.346,-5.337
0.174,0.059,0.342,-5.337
0.136,0.055,0.344,-5.337
0.180,0.055,0.346,-5.337
0.198,0.055,0.346,-5.337
0.221,0.056,0.342,-5.337
0.246,0.058,0.342,-5.337
0.244,0.056,0.343,-5.337
0.248,0.053,0.342,-5.337
0.193,0.055,0.341,-5.337
0.125,0.061,0.345,-5.337
0.161,0.062,0.347,-5.337
0.200,0.058,0.346,-5.337
0.240,0.056,0.340,-5.337
0.255,0.059,0.336,-5.337
0.269,0.061,0.337,-5.337
0.208,0.061,0.340,-5.337
0.238,0.059,0.342,-5.337
0.253,0.060,0.346,-5.337
0.224,0.061,0.347,-5.337
0.184,0.061,0.347,-5.337
0.165,0.061,0.345,-5.337
0.150,0.063,0.345,-5.337
0.206,0.061,0.343,-5.337
0.228,0.060,0.344,-5.337
0.184,0.057,0.343,-5.337
0.151,0.059,0.345,-5.337
0.167,0.058,0.346,-5.337
0.177,0.058,0.347,-5.337
0.110,0.057,0.346,-5.337
0.137,0.055,0.346,-5.337
0.214,0.054,0.343,-5.337
0.214,0.056,0.343,-5.337
0.152,0.060,0.343,-5.337
0.135,0.058,0.341,-5.337
0.193,0.055,0.340,-5.337
0.172,0.059,0.344,-5.337
0.202,0.058,0.348,-5.337
0.200,0.060,0.348,-5.337
0.174,0.060,0.345,-5.337
0.156,0.061,0.342,-5.337
0.149,0.062,0.342,-5.337
0.140,0.062,0.341,-5.337
0.134,0.064,0.340,-5.337
0.141,0.063,0.341,-5.337
0.094,0.065,0.343,-5.337
0.143,0.061,0.343,-5.337
0.185,0.058,0.341,-5.337
0.122,0.059,0.340,-5.337
0.080,0.059,0.346,-5.337
0.149,0.057,0.348,-5.337
0.323,0.054,0.346,-5.337
0.377,0.052,0.344,-5.337
0.383,0.054,0.344,-5.337
0.343,0.053,0.344,-5.337
0.231,0.056,0.344,-5.337
0.204,0.055,0.342,-5.337
0.216,0.054,0.340,-5.337
0.278,0.052,0.340,-5.337
0.271,0.052,0.342,-5.337
0.196,0.055,0.343,-5.337
0.152,0.056,0.345,-5.337
0.140,0.059,0.348,-5.337
0.135,0.061,0.345,-5.337
0.168,0.056,0.343,-5.337
0.243,0.054,0.339,-5.337
0.261,0.058,0.341,-5.337
0.257,0.058,0.342,-5.337
0.240,0.056,0.345,-5.337
0.224,0.053,0.348,-5.337
0.163,0.052,0.348,-5.337
0.146,0.051,0.346,-5.337
0.206,0.053,0.340,-5.337
0.237,0.055,0.336,-5.337
0.212,0.057,0.338,-5.337
0.172,0.057,0.344,-5.337
0.108,0.060,0.346,-5.337
0.091,0.058,0.344,-5.337
0.174,0.056,0.344,-5.337
0.230,0.053,0.344,-5.337
0.239,0.053,0.343,-5.337
0.282,0.053,0.342,-5.337
0.273,0.056,0.344,-5.337
0.264,0.057,0.347,-5.337
0.267,0.053,0.344,-5.337
0.239,0.054,0.340,-5.337
0.204,0.054,0.335,-5.337
0.194,0.055,0.342,-5.337
0.200,0.058,0.348,-5.337
0.202,0.060,0.350,-5.337
0.180,0.057,0.347,-5.337
0.132,0.055,0.348,-5.337
0.135,0.055,0.349,-5.337
0.239,0.055,0.346,-5.337
0.249,0.054,0.343,-5.337
0.202,0.053,0.343,-5.337
0.209,0.050,0.343,-5.337
0.209,0.050,0.346,-5.337
0.191,0.048,0.346,-5.337
0.227,0.051,0.345,-5.337
0.218,0.056,0.345,-5.337
0.100,0.056,0.346,-5.337
0.143,0.055,0.346,-5.337
0.255,0.055,0.342,-5.337
0.293,0.055,0.342,-5.337
0.223,0.054,0.341,-5.337
0.176,0.053,0.345,-5.337
0.232,0.051,0.343,-5.337
0.290,0.052,0.342,-5.337
0.218,0.051,0.345,-5.337
0.221,0.049,0.345,-5.337
0.178,0.051,0.342,-5.337
0.161,0.051,0.349,-5.337
0.204,0.046,0.350,-5.337
0.160,0.049,0.349,-5.337
0.147,0.047,0.345,-5.337
0.139,0.048,0.342,-5.337
0.077,0.051,0.341,-5.337
0.129,0.052,0.346,-5.337
0.207,0.049,0.349,-5.337
0.241,0.047,0.347,-5.337
0.250,0.047,0.347,-5.337
0.252,0.049,0.346,-5.337
0.294,0.050,0.345,-5.337
0.277,0.050,0.344,-5.337
0.216,0.049,0.347,-5.337
0.149,0.046,0.347,-5.337
0.149,0.046,0.345,-5.337
0.142,0.048,0.347,-5.337
0.139,0.048,0.346,-5.337
0.128,0.048,0.344,-5.337
0.125,0.048,0.346,-5.337
0.184,0.046,0.349,-5.337
0.184,0.045,0.351,-5.337
0.196,0.048,0.349,-5.337
0.227,0.050,0.349,-5.337
0.222,0.046,0.352,-5.337
0.104,0.047,0.353,-5.337
0.161,0.045,0.347,-5.337
0.224,0.049,0.344,-5.337
0.219,0.046,0.344,-5.337
0.133,0.047,0.346,-5.337
0.139,0.048,0.346,-5.337
0.205,0.052,0.347,-5.337
0.258,0.051,0.349,-5.337
0.224,0.047,0.349,-5.337
0.225,0.046,0.348,-5.337
0.241,0.050,0.349,-5.337
0.227,0.050,0.348,-5.337
0.257,0.049,0.348,-5.337
0.262,0.049,0.346,-5.337
0.205,0.048,0.342,-5.337
0.199,0.048,0.344,-5.337
0.220,0.046,0.348,-5.337
0.201,0.049,0.350,-5.337
0.161,0.046,0.349,-5.337
0.248,0.043,0.350,-5.337
0.261,0.040,0.346,-5.337
0.224,0.042,0.346,-5.337
0.190,0.041,0.348,-5.337
0.203,0.042,0.349,-5.337
0.194,0.046,0.350,-5.337
0.182,0.046,0.347,-5.337
0.206,0.045,0.344,-5.337
0.244,0.048,0.343,-5.337
0.218,0.048,0.339,-5.337
0.265,0.046,0.340,-5.337
0.278,0.045,0.346,-5.337
0.307,0.044,0.347,-5.337
0.287,0.048,0.348,-5.337
0.212,0.051,0.349,-5.337
0.189,0.052,0.347,-5.337
0.173,0.053,0.342,-5.337
0.149,0.049,0.341,-5.337
0.181,0.048,0.346,-5.337
0.239,0.047,0.349,-5.337
0.301,0.046,0.349,-5.337
0.283,0.045,0.347,-5.337
0.187,0.043,0.346,-5.337
0.135,0.047,0.348,-5.337
0.120,0.043,0.347,-5.337
0.130,0.041,0.346,-5.337
0.180,0.040,0.345,-5.337
0.203,0.043,0.348,-5.337
0.237,0.042,0.348,-5.337
0.239,0.043,0.345,-5.337
0.181,0.042,0.345,-5.337
0.188,0.042,0.348,-5.337
0.226,0.042,0.348,-5.337
0.300,0.038,0.346,-5.337
0.300,0.040,0.341,-5.337
0.209,0.042,0.338,-5.337
0.213,0.040,0.339,-5.337
0.208,0.043,0.343,-5.337
0.084,0.046,0.345,-5.337
0.085,0.043,0.344,-5.337
0.126,0.044,0.344,-5.337
0.137,0.045,0.343,-5.337
0.137,0.047,0.345,-5.337
0.090,0.045,0.345,-5.337
0.111,0.045,0.349,-5.337
0.155,0.044,0.346,-5.337
0.170,0.047,0.343,-5.337
0.133,0.048,0.344,-5.337
0.127,0.044,0.347,-5.337
0.248,0.042,0.347,-5.337
0.280,0.045,0.348,-5.337
0.230,0.044,0.348,-5.337
0.241,0.042,0.347,-5.337
0.230,0.039,0.344,-5.337
0.235,0.041,0.342,-5.337
0.312,0.041,0.341,-5.337
0.293,0.042,0.341,-5.337
0.230,0.045,0.348,-5.337
0.164,0.043,0.351,-5.337
0.157,0.044,0.349,-5.337
0.270,0.043,0.345,-5.337
0.316,0.042,0.343,-5.337
0.197,0.045,0.345,-5.337
0.125,0.048,0.352,-5.337
0.170,0.046,0.349,-5.337
0.245,0.044,0.347,-5.337
0.270,0.042,0.344,-5.337
0.211,0.042,0.341,-5.337
0.235,0.041,0.338,-5.337
0.248,0.042,0.340,-5.337
0.252,0.040,0.343,-5.337
0.214,0.038,0.349,-5.337
0.214,0.036,0.353,-5.337
0.247,0.037,0.350,-5.337
0.196,0.041,0.347,-5.337
0.174,0.042,0.345,-5.337
0.151,0.039,0.348,-5.337
0.223,0.033,0.350,-5.337
0.298,0.032,0.348,-5.337
0.326,0.038,0.345,-5.337
0.219,0.041,0.344,-5.337
0.176,0.038,0.345,-5.337
0.232,0.036,0.346,-5.337
0.134,0.037,0.345,-5.337
0.072,0.039,0.345,-5.337
0.151,0.039,0.344,-5.337
0.168,0.038,0.344,-5.337
0.098,0.038,0.345,-5.337
0.141,0.036,0.347,-5.337
0.192,0.036,0.345,-5.337
0.232,0.034,0.348,-5.337
0.235,0.034,0.348,-5.337
0.169,0.037,0.347,-5.337
0.218,0.041,0.347,-5.337
0.264,0.037,0.348,-5.337
0.241,0.033,0.347,-5.337
0.213,0.036,0.344,-5.337
0.213,0.037,0.347,-5.337
0.152,0.041,0.348,-5.337
0.121,0.042,0.346,-5.337
0.093,0.044,0.347,-5.337
0.169,0.037,0.348,-5.337
0.246,0.037,0.350,-5.337
0.212,0.043,0.350,-5.337
0.228,0.042,0.349,-5.337
0.266,0.039,0.348,-5.337
0.238,0.036,0.345,-5.337
0.191,0.037,0.343,-5.337
0.149,0.044,0.344,-5.337
0.127,0.045,0.344,-5.337
0.190,0.042,0.343,-5.337
0.233,0.039,0.345,-5.337
0.220,0.037,0.344,-5.337
0.191,0.040,0.345,-5.337
0.140,0.040,0.348,-5.337
0.084,0.038,0.350,-5.337
0.113,0.033,0.349,-5.337
0.166,0.034,0.343,-5.337
0.211,0.034,0.343,-5.337
0.213,0.038,0.345,-5.337
0.163,0.035,0.345,-5.337
0.189,0.035,0.345,-5.337
0.146,0.035,0.346,-5.337
0.182,0.033,0.346,-5.337
0.219,0.030,0.344,-5.337
0.226,0.037,0.345,-5.337
0.248,0.041,0.347,-5.337
0.326,0.038,0.346,-5.337
0.291,0.036,0.342,-5.337
0.285,0.035,0.339,-5.337
0.301,0.035,0.342,-5.337
0.280,0.037,0.348,-5.337
0.189,0.039,0.352,-5.337
0.114,0.039,0.350,-5.337
0.161,0.043,0.345,-5.337
0.164,0.042,0.345,-5.337
0.201,0.041,0.345,-5.337
0.213,0.043,0.342,-5.337
0.173,0.047,0.341,-5.337
0.181,0.042,0.342,-5.337
0.216,0.040,0.344,-5.337
0.258,0.037,0.343,-5.337
0.194,0.037,0.345,-5.337
0.199,0.036,0.347,-5.337
0.197,0.040,0.349,-5.337
0.172,0.040,0.348,-5.337
0.229,0.038,0.348,-5.337
0.266,0.037,0.348,-5.337
0.206,0.037,0.347,-5.337
0.167,0.038,0.343,-5.337
0.218,0.040,0.341,-5.337
0.299,0.039,0.340,-5.337
0.293,0.039,0.342,-5.337
0.249,0.039,0.342,-5.337
0.272,0.036,0.340,-5.337
0.224,0.036,0.345,-5.337
0.144,0.038,0.348,-5.337
0.161,0.038,0.350,-5.337
0.235,0.038,0.348,-5.337
0.252,0.035,0.348,-5.337
0.249,0.035,0.342,-5.337
0.173,0.037,0.341,-5.337
0.172,0.034,0.344,-5.337
0.233,0.033,0.346,-5.337
0.260,0.036,0.344,-5.337
0.216,0.040,0.341,-5.337
0.203,0.038,0.344,-5.337
0.215,0.035,0.348,-5.337
0.255,0.038,0.346,-5.337
0.228,0.040,0.343,-5.337
0.198,0.041,0.342,-5.337
0.212,0.042,0.341,-5.337
0.284,0.041,0.344,-5.337
0.250,0.044,0.344,-5.337
0.279,0.043,0.343,-5.337
0.314,0.040,0.344,-5.337
0.224,0.042,0.347,-5.337
0.147,0.042,0.346,-5.337
0.203,0.041,0.342,-5.337
0.265,0.038,0.338,-5.337
0.282,0.039,0.341,-5.337
0.259,0.038,0.346,-5.337
0.169,0.040,0.349,-5.337
0.175,0.042,0.345,-5.337
0.200,0.044,0.344,-5.337
0.264,0.040,0.345,-5.337
0.304,0.043,0.344,-5.337
0.248,0.051,0.342,-5.337
0.185,0.050,0.345,-5.337
0.213,0.042,0.347,-5.337
0.214,0.043,0.348,-5.337
0.161,0.044,0.348,-5.337
0.178,0.045,0.347,-5.337
0.214,0.041,0.341,-5.337
0.209,0.041,0.338,-5.337
0.223,0.043,0.340,-5.337
0.131,0.043,0.348,-5.337
0.129,0.041,0.353,-5.337
0.233,0.045,0.348,-5.337
0.233,0.050,0.343,-5.337
0.202,0.046,0.344,-5.337
0.184,0.045,0.346,-5.337
0.184,0.046,0.346,-5.337
0.187,0.048,0.344,-5.337
0.212,0.052,0.341,-5.337
0.187,0.050,0.342,-5.337
0.186,0.051,0.347,-5.337
0.207,0.051,0.350,-5.337
0.268,0.046,0.346,-5.337
0.246,0.047,0.343,-5.337
0.276,0.043,0.344,-5.337
0.261,0.043,0.343,-5.337
0.206,0.046,0.344,-5.337
0.155,0.051,0.348,-5.337
0.163,0.050,0.352,-5.337
0.203,0.050,0.351,-5.337
0.214,0.052,0.349,-5.337
0.285,0.054,0.344,-5.337
0.249,0.054,0.341,-5.337
0.138,0.054,0.341,-5.337
0.090,0.058,0.344,-5.337
0.176,0.058,0.344,-5.337
0.299,0.054,0.347,-5.337
0.290,0.055,0.346,-5.337
0.225,0.056,0.346,-5.337
0.171,0.057,0.343,-5.337
0.107,0.062,0.343,-5.337
0.029,0.059,0.346,-5.337
0.066,0.059,0.349,-5.337
0.152,0.051,0.345,-5.337
0.206,0.053,0.349,-5.337
0.165,0.051,0.353,-5.337
0.182,0.052,0.352,-5.337
0.164,0.052,0.348,-5.337
0.168,0.053,0.347,-5.337
0.230,0.052,0.347,-5.337
0.252,0.055,0.349,-5.337
0.261,0.054,0.347,-5.337
0.257,0.055,0.343,-5.337
0.223,0.054,0.342,-5.337
0.184,0.054,0.346,-5.337
0.181,0.054,0.350,-5.337
0.190,0.054,0.352,-5.337
0.182,0.052,0.350,-5.337
0.224,0.052,0.349,-5.337
0.263,0.053,0.349,-5.337
0.249,0.053,0.346,-5.337
0.251,0.052,0.341,-5.337
0.229,0.054,0.341,-5.337
0.142,0.053,0.346,-5.337
0.135,0.052,0.347,-5.337
0.174,0.054,0.349,-5.337
0.288,0.052,0.353,-5.337
0.367,0.051,0.354,-5.337
0.371,0.053,0.353,-5.337
0.314,0.055,0.349,-5.337
0.256,0.054,0.349,-5.337
0.207,0.056,0.353,-5.337
0.124,0.057,0.352,-5.337
0.168,0.056,0.349,-5.337
0.280,0.056,0.345,-5.337
0.267,0.058,0.348,-5.337
0.172,0.057,0.350,-5.337
0.163,0.054,0.346,-5.337
0.238,0.053,0.345,-5.337
0.222,0.053,0.350,-5.337
0.223,0.051,0.352,-5.337
0.148,0.048,0.347,-5.337
0.133,0.051,0.347,-5.337
0.205,0.050,0.343,-5.337
0.195,0.053,0.344,-5.337
0.218,0.052,0.350,-5.337
0.202,0.054,0.354,-5.337
0.123,0.052,0.355,-5.337
0.115,0.051,0.358,-5.337
0.227,0.049,0.357,-5.337
0.277,0.047,0.351,-5.337
0.252,0.047,0.344,-5.337
0.200,0.050,0.344,-5.337
0.196,0.048,0.343,-5.337
0.212,0.049,0.341,-5.337
0.181,0.049,0.342,-5.337
0.159,0.053,0.348,-5.337
0.138,0.054,0.354,-5.337
0.135,0.051,0.353,-5.337
0.159,0.054,0.349,-5.337
0.197,0.056,0.345,-5.337
0.233,0.050,0.346,-5.337
0.245,0.051,0.345,-5.337
0.243,0.053,0.349,-5.337
0.226,0.054,0.349,-5.337
0.215,0.056,0.350,-5.337
0.153,0.053,0.346,-5.337
0.117,0.054,0.349,-5.337
0.119,0.053,0.351,-5.337
0.182,0.052,0.349,-5.337
0.185,0.052,0.345,-5.337
0.175,0.053,0.345,-5.337
0.192,0.052,0.346,-5.337
0.204,0.053,0.346,-5.337
0.172,0.054,0.344,-5.337
0.175,0.053,0.344,-5.337
0.208,0.051,0.343,-5.337
0.217,0.052,0.346,-5.337
0.236,0.048,0.348,-5.337
0.248,0.049,0.350,-5.337
0.242,0.050,0.350,-5.337
0.287,0.051,0.347,-5.337
0.256,0.052,0.347,-5.337
0.238,0.052,0.350,-5.337
0.168,0.052,0.353,-5.337
0.216,0.053,0.351,-5.337
0.298,0.050,0.349,-5.337
0.293,0.051,0.346,-5.337
0.255,0.051,0.343,-5.337
0.172,0.052,0.342,-5.337
0.175,0.051,0.345,-5.337
0.192,0.051,0.345,-5.337
0.202,0.056,0.346,-5.337
0.209,0.057,0.341,-5.337
0.264,0.057,0.342,-5.337
0.310,0.055,0.347,-5.337
0.336,0.057,0.348,-5.337
0.237,0.062,0.348,-5.337
0.168,0.061,0.347,-5.337
0.175,0.057,0.346,-5.337
0.217,0.053,0.346,-5.337
0.240,0.057,0.349,-5.337
0.175,0.061,0.348,-5.337
0.140,0.059,0.346,-5.337
0.140,0.057,0.347,-5.337
0.131,0.057,0.349,-5.337
0.101,0.055,0.347,-5.337
0.107,0.052,0.348,-5.337
0.133,0.052,0.352,-5.337
0.176,0.056,0.354,-5.337
0.167,0.056,0.352,-5.337
0.152,0.058,0.351,-5.337
0.209,0.059,0.348,-5.337
0.237,0.057,0.347,-5.337
0.311,0.055,0.347,-5.337
0.208,0.059,0.348,-5.337
0.099,0.056,0.345,-5.337
0.073,0.058,0.340,-5.337
0.120,0.058,0.340,-5.337
0.168,0.059,0.346,-5.337
0.171,0.058,0.351,-5.337
0.167,0.060,0.354,-5.337
0.172,0.060,0.350,-5.337
0.262,0.061,0.349,-5.337
0.317,0.060,0.349,-5.337
0.223,0.062,0.350,-5.337
0.192,0.063,0.349,-5.337
0.221,0.063,0.346,-5.337
0.263,0.065,0.346,-5.337
0.267,0.062,0.348,-5.337
0.184,0.062,0.350,-5.337
0.161,0.064,0.347,-5.337
0.177,0.061,0.346,-5.337
0.204,0.059,0.345,-5.337
0.257,0.057,0.347,-5.337
0.243,0.058,0.350,-5.337
0.235,0.059,0.354,-5.337
0.234,0.059,0.353,-5.337
0.202,0.061,0.352,-5.337
0.194,0.061,0.351,-5.337
0.140,0.063,0.350,-5.337
0.122,0.059,0.352,-5.337
0.143,0.060,0.353,-5.337
0.187,0.060,0.350,-5.337
0.166,0.062,0.345,-5.337
0.163,0.063,0.343,-5.337
0.137,0.065,0.345,-5.337
0.136,0.063,0.345,-5.337
0.151,0.059,0.347,-5.337
0.096,0.060,0.351,-5.337
0.094,0.059,0.353,-5.337
0.158,0.062,0.352,-5.337
0.156,0.063,0.346,-5.337
0.167,0.060,0.342,-5.337
0.156,0.059,0.342,-5.337
0.146,0.056,0.345,-5.337
0.184,0.055,0.345,-5.337
0.204,0.058,0.348,-5.337
0.188,0.056,0.351,-5.337
0.150,0.057,0.353,-5.337
0.179,0.051,0.351,-5.337
0.213,0.056,0.349,-5.337
0.156,0.058,0.347,-5.337
0.186,0.056,0.347,-5.337
0.251,0.054,0.349,-5.337
0.310,0.056,0.349,-5.337
0.330,0.060,0.347,-5.337
0.335,0.059,0.345,-5.337
0.265,0.056,0.345,-5.337
0.186,0.056,0.346,-5.337
0.131,0.054,0.347,-5.337
0.117,0.054,0.347,-5.337
0.102,0.055,0.347,-5.337
0.093,0.056,0.346,-5.337
0.178,0.052,0.347,-5.337
0.232,0.051,0.350,-5.337
0.137,0.052,0.348,-5.337
0.134,0.055,0.346,-5.337
0.201,0.054,0.347,-5.337
0.162,0.056,0.347,-5.337
0.145,0.060,0.350,-5.337
0.216,0.059,0.350,-5.337
0.264,0.060,0.350,-5.337
0.217,0.061,0.347,-5.337
0.233,0.061,0.347,-5.337
0.234,0.060,0.351,-5.337
0.154,0.057,0.352,-5.337
0.208,0.060,0.349,-5.337
0.192,0.063,0.347,-5.337
0.151,0.058,0.346,-5.337
0.154,0.062,0.346,-5.337
0.196,0.064,0.347,-5.337
0.197,0.061,0.350,-5.337
0.140,0.059,0.350,-5.337
0.180,0.058,0.349,-5.337
0.213,0.058,0.347,-5.337
0.191,0.057,0.345,-5.337
0.173,0.060,0.345,-5.337
0.207,0.058,0.346,-5.337
0.212,0.057,0.346,-5.337
0.118,0.062,0.344,-5.337
0.096,0.063,0.345,-5.337
0.205,0.059,0.348,-5.337
0.203,0.055,0.350,-5.337
0.150,0.057,0.348,-5.337
0.111,0.058,0.348,-5.337
0.129,0.055,0.349,-5.337
0.250,0.051,0.350,-5.337
0.322,0.051,0.347,-5.337
0.302,0.055,0.348,-5.337
0.196,0.056,0.350,-5.337
0.247,0.053,0.350,-5.337
0.338,0.048,0.345,-5.337
0.241,0.054,0.344,-5.337
0.087,0.057,0.341,-5.337
0.107,0.055,0.341,-5.337
0.155,0.054,0.343,-5.337
0.165,0.053,0.345,-5.337
0.152,0.055,0.350,-5.337
0.194,0.049,0.353,-5.337
0.209,0.050,0.350,-5.337
0.159,0.056,0.347,-5.337
0.157,0.058,0.349,-5.337
0.186,0.054,0.348,-5.337
0.187,0.056,0.347,-5.337
0.221,0.057,0.347,-5.337
0.267,0.056,0.347,-5.337
0.295,0.053,0.343,-5.337
0.287,0.052,0.343,-5.337
0.256,0.050,0.346,-5.337
0.285,0.047,0.352,-5.337
0.281,0.049,0.352,-5.337
0.248,0.051,0.346,-5.337
0.234,0.052,0.341,-5.337
0.261,0.055,0.342,-5.337
0.227,0.055,0.344,-5.337
0.189,0.053,0.348,-5.337
0.180,0.052,0.350,-5.337
0.225,0.052,0.351,-5.337
0.289,0.050,0.351,-5.337
0.222,0.048,0.347,-5.337
0.192,0.054,0.345,-5.337
0.193,0.056,0.344,-5.337
0.241,0.049,0.349,-5.337
0.269,0.049,0.349,-5.337
0.173,0.049,0.347,-5.337
0.201,0.047,0.346,-5.337
0.298,0.047,0.349,-5.337
0.233,0.051,0.349,-5.337
0.211,0.053,0.349,-5.337
0.231,0.053,0.348,-5.337
0.203,0.051,0.347,-5.337
0.175,0.052,0.344,-5.337
0.112,0.057,0.345,-5.337
0.059,0.052,0.348,-5.337
0.170,0.049,0.349,-5.337
0.173,0.051,0.348,-5.337
0.109,0.052,0.348,-5.337
0.183,0.048,0.351,-5.337
0.184,0.047,0.351,-5.337
0.187,0.051,0.348,-5.337
0.244,0.048,0.344,-5.337
0.260,0.047,0.347,-5.337
0.300,0.049,0.348,-5.337
0.280,0.048,0.348,-5.337
0.279,0.048,0.350,-5.337
0.285,0.045,0.355,-5.337
0.224,0.046,0.352,-5.337
0.157,0.047,0.347,-5.337
0.188,0.045,0.343,-5.337
0.176,0.043,0.347,-5.337
0.212,0.042,0.350,-5.337
0.247,0.044,0.350,-5.337
0.208,0.045,0.346,-5.337
0.192,0.046,0.346,-5.337
0.195,0.049,0.349,-5.337
0.155,0.049,0.351,-5.337
0.167,0.045,0.348,-5.337
0.151,0.044,0.347,-5.337
0.135,0.045,0.349,-5.337
0.071,0.047,0.351,-5.337
0.081,0.042,0.352,-5.337
0.202,0.040,0.349,-5.337
0.288,0.042,0.342,-5.337
0.237,0.042,0.341,-5.337
0.163,0.043,0.347,-5.337
0.177,0.042,0.351,-5.337
0.201,0.041,0.352,-5.337
0.287,0.039,0.349,-5.337
0.272,0.040,0.351,-5.337
0.219,0.043,0.350,-5.337
0.192,0.048,0.353,-5.337
0.181,0.046,0.352,-5.337
0.162,0.049,0.350,-5.337
0.207,0.044,0.347,-5.337
0.269,0.045,0.347,-5.337
0.224,0.047,0.346,-5.337
0.189,0.048,0.348,-5.337
0.151,0.047,0.351,-5.337
0.156,0.049,0.355,-5.337
0.230,0.047,0.354,-5.337
0.333,0.045,0.351,-5.337
0.348,0.046,0.348,-5.337
0.263,0.049,0.350,-5.337
0.182,0.047,0.350,-5.337
0.159,0.046,0.348,-5.337
0.209,0.045,0.346,-5.337
0.182,0.046,0.347,-5.337
0.099,0.046,0.349,-5.337
0.146,0.043,0.348,-5.337
0.143,0.045,0.349,-5.337
0.149,0.045,0.350,-5.337
0.198,0.046,0.354,-5.337
0.276,0.043,0.355,-5.337
0.305,0.043,0.352,-5.337
0.239,0.044,0.349,-5.337
0.235,0.043,0.349,-5.337
0.204,0.043,0.347,-5.337
0.155,0.049,0.347,-5.337
0.194,0.046,0.350,-5.337
0.180,0.043,0.352,-5.337
0.171,0.041,0.352,-5.337
0.166,0.044,0.347,-5.337
0.174,0.049,0.344,-5.337
0.165,0.051,0.346,-5.337
0.168,0.046,0.348,-5.337
0.246,0.042,0.346,-5.337
0.262,0.044,0.342,-5.337
0.287,0.048,0.342,-5.337
0.274,0.047,0.346,-5.337
0.286,0.042,0.349,-5.337
0.261,0.043,0.349,-5.337
0.249,0.048,0.348,-5.337
0.197,0.052,0.349,-5.337
0.191,0.048,0.345,-5.337
0.178,0.046,0.344,-5.337
0.129,0.048,0.345,-5.337
0.152,0.051,0.346,-5.337
0.173,0.051,0.345,-5.337
0.159,0.048,0.344,-5.337
0.229,0.044,0.342,-5.337
0.242,0.047,0.347,-5.337
0.198,0.048,0.350,-5.337
0.215,0.049,0.353,-5.337
0.197,0.048,0.352,-5.337
0.179,0.046,0.350,-5.337
0.177,0.046,0.348,-5.337
0.291,0.046,0.345,-5.337
0.304,0.042,0.344,-5.337
0.279,0.040,0.345,-5.337
0.232,0.041,0.344,-5.337
0.167,0.042,0.341,-5.337
0.154,0.040,0.340,-5.337
0.202,0.038,0.342,-5.337
0.160,0.041,0.348,-5.337
0.184,0.041,0.352,-5.337
0.259,0.040,0.350,-5.337
0.238,0.039,0.345,-5.337
0.210,0.041,0.343,-5.337
0.245,0.044,0.342,-5.337
0.240,0.047,0.344,-5.337
0.259,0.043,0.344,-5.337
0.319,0.041,0.343,-5.337
0.277,0.044,0.342,-5.337
0.195,0.049,0.347,-5.337
0.195,0.049,0.354,-5.337
0.176,0.048,0.353,-5.337
0.174,0.045,0.350,-5.337
0.131,0.047,0.348,-5.337
0.171,0.048,0.346,-5.337
0.160,0.048,0.342,-5.337
0.150,0.042,0.337,-5.337
0.246,0.042,0.334,-5.337
0.292,0.047,0.339,-5.337
0.210,0.046,0.349,-5.337
0.129,0.044,0.354,-5.337
0.117,0.046,0.353,-5.337
0.137,0.045,0.353,-5.337
0.220,0.044,0.347,-5.337
0.225,0.046,0.345,-5.337
0.164,0.046,0.344,-5.337
0.166,0.044,0.347,-5.337
0.261,0.039,0.347,-5.337
0.319,0.036,0.351,-5.337
0.292,0.040,0.349,-5.337
0.247,0.042,0.348,-5.337
0.211,0.042,0.345,-5.337
0.196,0.041,0.344,-5.337
0.196,0.042,0.340,-5.337
0.221,0.041,0.338,-5.337
0.262,0.038,0.342,-5.337
0.283,0.039,0.345,-5.337
0.208,0.039,0.347,-5.337
0.145,0.036,0.350,-5.337
0.189,0.037,0.348,-5.337
0.212,0.039,0.349,-5.337
0.256,0.032,0.348,-5.337
0.256,0.033,0.347,-5.337
0.193,0.036,0.346,-5.337
0.173,0.039,0.348,-5.337
0.230,0.039,0.352,-5.337
0.292,0.037,0.349,-5.337
0.292,0.037,0.348,-5.337
0.249,0.038,0.345,-5.337
0.215,0.040,0.345,-5.337
0.182,0.040,0.345,-5.337
0.211,0.040,0.345,-5.337
0.221,0.043,0.344,-5.337
0.211,0.045,0.346,-5.337
0.198,0.042,0.344,-5.337
0.262,0.040,0.343,-5.337
0.249,0.042,0.345,-5.337
0.164,0.047,0.349,-5.337
0.233,0.046,0.349,-5.337
0.248,0.044,0.347,-5.337
0.132,0.045,0.348,-5.337
0.107,0.048,0.349,-5.337
0.126,0.048,0.348,-5.337
0.145,0.047,0.348,-5.337
0.182,0.047,0.346,-5.337
0.166,0.045,0.343,-5.337
0.202,0.047,0.344,-5.337
0.280,0.045,0.344,-5.337
0.270,0.046,0.348,-5.337
0.173,0.050,0.349,-5.337
0.159,0.048,0.348,-5.337
0.286,0.043,0.347,-5.337
0.285,0.042,0.347,-5.337
0.277,0.045,0.345,-5.337
0.243,0.045,0.342,-5.337
0.088,0.047,0.342,-5.337
0.078,0.042,0.345,-5.337
0.221,0.039,0.344,-5.337
0.207,0.041,0.344,-5.337
0.151,0.043,0.346,-5.337
0.136,0.043,0.346,-5.337
0.106,0.045,0.345,-5.337
0.066,0.042,0.343,-5.337
0.053,0.041,0.343,-5.337
0.068,0.042,0.346,-5.337
0.156,0.041,0.346,-5.337
0.162,0.041,0.343,-5.337
0.146,0.040,0.342,-5.337
0.275,0.039,0.344,-5.337
0.283,0.038,0.343,-5.337
0.185,0.039,0.339,-5.337
0.133,0.039,0.340,-5.337
0.171,0.041,0.345,-5.337
0.215,0.040,0.345,-5.337
0.211,0.037,0.342,-5.337
0.259,0.037,0.343,-5.337
0.285,0.036,0.343,-5.337
0.309,0.037,0.347,-5.337
0.310,0.036,0.346,-5.337
0.304,0.038,0.344,-5.337
0.294,0.040,0.346,-5.337
0.323,0.041,0.345,-5.337
0.269,0.040,0.345,-5.337
0.234,0.041,0.347,-5.337
0.274,0.041,0.348,-5.337
0.303,0.040,0.349,-5.337
0.287,0.038,0.343,-5.337
0.275,0.042,0.341,-5.337
0.237,0.042,0.342,-5.337
0.200,0.043,0.345,-5.337
0.196,0.044,0.345,-5.337
0.191,0.042,0.345,-5.337
