[Parameters]
Operating Mode, Feedback
Subject  AA..ZZ, WT
Session  0..99, 42
No. Trials (1..9999), 500
Mouse Number, 1
Pressure Probe Serial Port, \00\00\00\04COM4
Save additional csv file, TRUE
Save using mouse number, FALSE
A/D Monitor Rate (Hz), 30000.000000
A/D Stimulate Rate (Hz), 30000.000000
A/D input range (+/- V), 5
No. Channels to acquire (N), 2
Pre-Stim Acq. time (ms), 100.000000
Post-Stim Acq. time (ms), 900.000000
Analysis window parameters.M-response Start (ms), 1.100000
Analysis window parameters.M-response Duration (ms), 5.500000
Analysis window parameters.H-response Duration (ms), 6.000000
Analysis window parameters.H-response Start (ms), 6.500000
Feedback window, H response
Proportional gain, 0.100000
Target value, 6.700000
Feedback Ch., 1
Stim Channel to Control (1-4), 4
Trial, 23
Wait for EMG Conditions, FALSE
Channel to monitor (0 - N-1), 1
EMG Hi Limit, 2.000000
EMG Lo Limit, 0.001000
Inter-Stim delay (sec), 10.000000
EMG Monitor Mode, Mean
Time to run Long Stim.(sec), 30
Save Long Stim Data?, OFF
BURST Save time (ms), 1000
BURST Save Interval (x above), 10
Long-Stim. Rep. Rate (Hz), 10.000000
Stim type cluster array.<size(s)>, 4
Stim type cluster array 0.Stimulus Output, Electrical
Stim type cluster array 1.Stimulus Output, OFF
Stim type cluster array 2.Stimulus Output, OFF
Stim type cluster array 3.Stimulus Output, Motor Length
Stim specs cluster array.<size(s)>, 4
Stim specs cluster array 0.Initial Stimulus ampl., 0.300000
Stim specs cluster array 0.Maximum Stimulus, 1.120000
Stim specs cluster array 0.#Pulses in train, 4
Stim specs cluster array 0.Peak Level time (ms), 1.000000
Stim specs cluster array 0.Total pulse period (ms), 150.000000
Stim specs cluster array 0.Start Delay (ms), -50.000000
Stim specs cluster array 0.Pulse Shape, Square
Stim specs cluster array 0.Ramp/Rel. time (ms), 0.100000
Stim specs cluster array 0.Peak Amplitude (V), 0.120000
Stim specs cluster array 1.Initial Stimulus ampl., 0.000000
Stim specs cluster array 1.Maximum Stimulus, 0.000000
Stim specs cluster array 1.#Pulses in train, 3
Stim specs cluster array 1.Peak Level time (ms), 29.000000
Stim specs cluster array 1.Total pulse period (ms), 200.000000
Stim specs cluster array 1.Start Delay (ms), 0.000000
Stim specs cluster array 1.Pulse Shape, Square
Stim specs cluster array 1.Ramp/Rel. time (ms), 0.000000
Stim specs cluster array 1.Peak Amplitude (V), 2.000000
Stim specs cluster array 2.Initial Stimulus ampl., 0.000000
Stim specs cluster array 2.Maximum Stimulus, 0.000000
Stim specs cluster array 2.#Pulses in train, 1
Stim specs cluster array 2.Peak Level time (ms), 25.000000
Stim specs cluster array 2.Total pulse period (ms), 200.000000
Stim specs cluster array 2.Start Delay (ms), 0.000000
Stim specs cluster array 2.Pulse Shape, Square
Stim specs cluster array 2.Ramp/Rel. time (ms), 20.000000
Stim specs cluster array 2.Peak Amplitude (V), 10.000000
Stim specs cluster array 3.Initial Stimulus ampl., 0.000000
Stim specs cluster array 3.Maximum Stimulus, 20.000000
Stim specs cluster array 3.#Pulses in train, 25
Stim specs cluster array 3.Peak Level time (ms), 0.100000
Stim specs cluster array 3.Total pulse period (ms), 4.000000
Stim specs cluster array 3.Start Delay (ms), 205.000000
Stim specs cluster array 3.Pulse Shape, Triangle
Stim specs cluster array 3.Ramp/Rel. time (ms), 3.000000
Stim specs cluster array 3.Peak Amplitude (V), 0.500000
Force cal. (mN/Volt), 100.000000
Force Range (mN), 100.000000
Length cal. (mm/Volt), 10.000000
Length Range (mm), 10.000000
Stim. 1, 0.300000
Stim. 2, 0.000000
Stim. 3, 0.000000
Stim. 4, 0.000000
Monitor acquire time (ms), 100.000000
EMG graph Ymax, 0.100000
Travel limit (mm), 20.000000
Use Pressure Probe, FALSE
Pressure goal (g), 100
Speed (mm/sec), 5.000000
Dwell time (ms), 100.000000
Pressure limit (g), 500.000000
Channel amplitude offset, 0.000000

[DATA]

0.239,0.062,0.376,-5.337
0.282,0.066,0.374,-5.337
0.251,0.066,0.371,-5.337
0.190,0.068,0.376,-5.337
0.115,0.068,0.377,-5.337
0.162,0.064,0.376,-5.337
0.192,0.064,0.373,-5.337
0.142,0.068,0.372,-5.337
0.143,0.068,0.373,-5.337
0.188,0.068,0.375,-5.337
0.243,0.066,0.373,-5.337
0.221,0.067,0.372,-5.337
0.170,0.066,0.375,-5.337
0.181,0.066,0.372,-5.337
0.228,0.063,0.371,-5.337
0.255,0.064,0.377,-5.337
0.218,0.061,0.380,-5.337
0.214,0.061,0.379,-5.337
0.251,0.063,0.375,-5.337
0.213,0.070,0.373,-5.337
0.123,0.070,0.375,-5.337
0.150,0.068,0.378,-5.337
0.217,0.066,0.378,-5.337
0.241,0.064,0.374,-5.337
0.281,0.067,0.374,-5.337
0.248,0.067,0.375,-5.337
0.162,0.067,0.379,-5.337
0.173,0.066,0.376,-5.337
0.207,0.066,0.374,-5.337
0.207,0.068,0.372,-5.337
0.196,0.070,0.378,-5.337
0.156,0.066,0.384,-5.337
0.133,0.066,0.380,-5.337
0.138,0.066,0.373,-5.337
0.109,0.066,0.370,-5.337
0.118,0.067,0.369,-5.337
0.171,0.064,0.370,-5.337
0.293,0.058,0.374,-5.337
0.345,0.062,0.376,-5.337
0.295,0.063,0.375,-5.337
0.286,0.058,0.370,-5.337
0.323,0.055,0.371,-5.337
0.338,0.055,0.373,-5.337
0.301,0.058,0.376,-5.337
0.260,0.060,0.378,-5.337
0.133,0.064,0.376,-5.337
0.122,0.065,0.374,-5.337
0.210,0.063,0.373,-5.337
0.262,0.064,0.371,-5.337
0.217,0.062,0.373,-5.337
0.246,0.062,0.374,-5.337
0.328,0.059,0.377,-5.337
0.266,0.059,0.377,-5.337
0.154,0.059,0.375,-5.337
0.139,0.056,0.376,-5.337
0.166,0.057,0.378,-5.337
0.118,0.056,0.375,-5.337
0.114,0.059,0.373,-5.337
0.147,0.059,0.372,-5.337
0.177,0.062,0.372,-5.337
0.208,0.064,0.372,-5.337
0.211,0.064,0.372,-5.337
0.200,0.059,0.374,-5.337
0.187,0.058,0.376,-5.337
0.155,0.063,0.377,-5.337
0.184,0.060,0.371,-5.337
0.216,0.057,0.370,-5.337
0.258,0.060,0.375,-5.337
0.197,0.059,0.378,-5.337
0.157,0.060,0.373,-5.337
0.192,0.060,0.367,-5.337
0.242,0.062,0.369,-5.337
0.273,0.060,0.374,-5.337
0.296,0.057,0.373,-5.337
0.286,0.054,0.375,-5.337
0.160,0.056,0.378,-5.337
0.079,0.056,0.378,-5.337
0.184,0.054,0.374,-5.337
0.236,0.055,0.373,-5.337
0.195,0.054,0.373,-5.337
0.228,0.054,0.374,-5.337
0.215,0.055,0.375,-5.337
0.150,0.057,0.374,-5.337
0.180,0.052,0.372,-5.337
0.220,0.052,0.371,-5.337
0.199,0.055,0.371,-5.337
0.219,0.054,0.370,-5.337
0.298,0.052,0.369,-5.337
0.297,0.054,0.371,-5.337
0.229,0.058,0.375,-5.337
0.133,0.058,0.377,-5.337
0.137,0.053,0.377,-5.337
0.137,0.054,0.377,-5.337
0.069,0.055,0.375,-5.337
0.074,0.057,0.375,-5.337
0.169,0.055,0.379,-5.337
0.228,0.051,0.383,-5.337
0.257,0.052,0.385,-5.337
0.246,0.055,0.382,-5.337
0.234,0.055,0.376,-5.337
0.205,0.054,0.367,-5.337
0.228,0.053,0.365,-5.337
0.147,0.050,0.365,-5.337
0.083,0.052,0.368,-5.337
0.093,0.049,0.372,-5.337
0.188,0.049,0.374,-5.337
0.215,0.054,0.376,-5.337
0.169,0.055,0.375,-5.337
0.082,0.051,0.375,-5.337
0.085,0.051,0.375,-5.337
0.165,0.046,0.376,-5.337
0.216,0.046,0.376,-5.337
0.229,0.049,0.376,-5.337
0.267,0.051,0.376,-5.337
0.259,0.049,0.376,-5.337
0.224,0.048,0.373,-5.337
0.240,0.048,0.373,-5.337
0.309,0.046,0.377,-5.337
0.272,0.049,0.380,-5.337
0.205,0.047,0.379,-5.337
0.207,0.048,0.375,-5.337
0.241,0.047,0.370,-5.337
0.191,0.050,0.371,-5.337
0.087,0.052,0.374,-5.337
0.118,0.049,0.374,-5.337
0.180,0.045,0.373,-5.337
0.205,0.044,0.372,-5.337
0.105,0.048,0.372,-5.337
0.087,0.051,0.372,-5.337
0.193,0.047,0.372,-5.337
0.269,0.044,0.375,-5.337
0.261,0.045,0.372,-5.337
0.186,0.049,0.370,-5.337
0.170,0.051,0.373,-5.337
0.151,0.046,0.376,-5.337
0.192,0.046,0.380,-5.337
0.143,0.050,0.381,-5.337
0.173,0.049,0.379,-5.337
0.213,0.050,0.373,-5.337
0.252,0.049,0.375,-5.337
0.332,0.047,0.376,-5.337
0.327,0.047,0.376,-5.337
0.219,0.047,0.375,-5.337
0.217,0.049,0.373,-5.337
0.209,0.050,0.374,-5.337
0.154,0.047,0.376,-5.337
0.193,0.045,0.378,-5.337
0.227,0.044,0.379,-5.337
0.189,0.046,0.375,-5.337
0.235,0.045,0.372,-5.337
0.256,0.049,0.372,-5.337
0.266,0.047,0.375,-5.337
0.289,0.045,0.375,-5.337
0.258,0.046,0.373,-5.337
0.237,0.047,0.375,-5.337
0.210,0.048,0.381,-5.337
0.214,0.046,0.383,-5.337
0.232,0.041,0.379,-5.337
0.160,0.042,0.377,-5.337
0.037,0.047,0.376,-5.337
0.137,0.045,0.375,-5.337
0.277,0.044,0.373,-5.337
0.264,0.043,0.376,-5.337
0.228,0.040,0.374,-5.337
0.212,0.041,0.376,-5.337
0.197,0.043,0.376,-5.337
0.211,0.040,0.376,-5.337
0.239,0.041,0.378,-5.337
0.191,0.043,0.380,-5.337
0.142,0.043,0.382,-5.337
0.177,0.042,0.382,-5.337
0.235,0.042,0.381,-5.337
0.228,0.044,0.376,-5.337
0.138,0.044,0.373,-5.337
0.116,0.043,0.378,-5.337
0.186,0.043,0.383,-5.337
0.255,0.039,0.382,-5.337
0.213,0.042,0.379,-5.337
0.190,0.041,0.374,-5.337
0.226,0.040,0.374,-5.337
0.251,0.040,0.376,-5.337
0.246,0.040,0.379,-5.337
0.258,0.044,0.380,-5.337
0.222,0.047,0.380,-5.337
0.230,0.045,0.379,-5.337
0.217,0.044,0.380,-5.337
0.240,0.043,0.378,-5.337
0.199,0.046,0.376,-5.337
0.239,0.043,0.375,-5.337
0.257,0.042,0.378,-5.337
0.293,0.040,0.378,-5.337
0.311,0.041,0.375,-5.337
0.286,0.043,0.374,-5.337
0.219,0.041,0.374,-5.337
0.209,0.041,0.376,-5.337
0.166,0.046,0.378,-5.337
0.211,0.046,0.377,-5.337
0.241,0.043,0.379,-5.337
0.183,0.042,0.378,-5.337
0.147,0.041,0.377,-5.337
0.141,0.041,0.374,-5.337
0.126,0.043,0.373,-5.337
0.157,0.042,0.371,-5.337
0.263,0.039,0.371,-5.337
0.259,0.042,0.376,-5.337
0.237,0.047,0.379,-5.337
0.223,0.044,0.382,-5.337
0.204,0.041,0.378,-5.337
0.142,0.044,0.376,-5.337
0.143,0.045,0.374,-5.337
0.216,0.041,0.374,-5.337
0.226,0.040,0.372,-5.337
0.100,0.044,0.371,-5.337
0.044,0.048,0.369,-5.337
0.103,0.045,0.373,-5.337
0.184,0.043,0.379,-5.337
0.166,0.046,0.379,-5.337
0.151,0.044,0.376,-5.337
0.155,0.044,0.375,-5.337
0.135,0.045,0.372,-5.337
0.168,0.042,0.373,-5.337
0.235,0.042,0.376,-5.337
0.219,0.042,0.376,-5.337
0.197,0.043,0.376,-5.337
0.203,0.044,0.377,-5.337
0.192,0.044,0.375,-5.337
0.171,0.042,0.373,-5.337
0.164,0.040,0.375,-5.337
0.243,0.043,0.377,-5.337
0.231,0.043,0.380,-5.337
0.236,0.043,0.377,-5.337
0.222,0.043,0.375,-5.337
0.208,0.042,0.374,-5.337
0.172,0.043,0.374,-5.337
0.207,0.039,0.375,-5.337
0.242,0.040,0.380,-5.337
0.195,0.041,0.380,-5.337
0.166,0.044,0.376,-5.337
0.180,0.042,0.370,-5.337
0.198,0.044,0.369,-5.337
0.100,0.047,0.373,-5.337
0.101,0.048,0.379,-5.337
0.207,0.044,0.380,-5.337
0.164,0.044,0.376,-5.337
0.030,0.049,0.370,-5.337
0.059,0.046,0.370,-5.337
0.170,0.045,0.376,-5.337
0.227,0.046,0.379,-5.337
0.190,0.046,0.377,-5.337
0.190,0.044,0.376,-5.337
0.199,0.041,0.378,-5.337
0.192,0.042,0.378,-5.337
0.206,0.040,0.379,-5.337
0.240,0.040,0.375,-5.337
0.211,0.039,0.375,-5.337
0.207,0.037,0.371,-5.337
0.257,0.042,0.370,-5.337
0.160,0.044,0.374,-5.337
0.188,0.040,0.380,-5.337
0.266,0.036,0.383,-5.337
0.299,0.037,0.382,-5.337
0.329,0.037,0.380,-5.337
0.254,0.039,0.376,-5.337
0.189,0.043,0.372,-5.337
0.173,0.042,0.371,-5.337
0.226,0.043,0.372,-5.337
0.282,0.042,0.376,-5.337
0.233,0.045,0.379,-5.337
0.209,0.047,0.378,-5.337
0.226,0.042,0.375,-5.337
0.224,0.043,0.370,-5.337
0.181,0.047,0.372,-5.337
0.146,0.044,0.376,-5.337
0.166,0.043,0.379,-5.337
0.163,0.042,0.376,-5.337
0.193,0.040,0.376,-5.337
0.262,0.039,0.376,-5.337
0.250,0.042,0.376,-5.337
0.178,0.042,0.375,-5.337
0.155,0.043,0.374,-5.337
0.203,0.044,0.374,-5.337
0.200,0.042,0.373,-5.337
0.170,0.037,0.374,-5.337
0.124,0.040,0.377,-5.337
0.127,0.040,0.381,-5.337
0.148,0.039,0.378,-5.337
0.183,0.041,0.372,-5.337
0.168,0.042,0.371,-5.337
0.149,0.041,0.375,-5.337
0.125,0.041,0.381,-5.337
0.187,0.038,0.380,-5.337
0.250,0.035,0.374,-5.337
0.218,0.039,0.374,-5.337
0.181,0.042,0.377,-5.337
0.266,0.039,0.382,-5.337
0.323,0.034,0.380,-5.337
0.321,0.034,0.374,-5.337
0.284,0.035,0.371,-5.337
0.220,0.038,0.371,-5.337
0.238,0.038,0.371,-5.337
0.238,0.038,0.373,-5.337
0.177,0.041,0.376,-5.337
0.216,0.040,0.378,-5.337
0.193,0.041,0.378,-5.337
0.087,0.046,0.373,-5.337
0.141,0.044,0.371,-5.337
0.159,0.044,0.371,-5.337
0.145,0.044,0.375,-5.337
0.186,0.044,0.379,-5.337
0.242,0.040,0.375,-5.337
0.259,0.043,0.373,-5.337
0.255,0.042,0.371,-5.337
0.217,0.044,0.369,-5.337
0.142,0.049,0.371,-5.337
0.135,0.045,0.374,-5.337
0.187,0.039,0.378,-5.337
0.194,0.041,0.375,-5.337
0.163,0.039,0.370,-5.337
0.186,0.037,0.372,-5.337
0.195,0.039,0.378,-5.337
0.157,0.045,0.380,-5.337
0.117,0.046,0.378,-5.337
0.090,0.044,0.372,-5.337
0.137,0.046,0.370,-5.337
0.104,0.046,0.370,-5.337
0.118,0.049,0.371,-5.337
0.134,0.044,0.371,-5.337
0.170,0.040,0.374,-5.337
0.237,0.037,0.378,-5.337
0.222,0.043,0.379,-5.337
0.179,0.046,0.376,-5.337
0.113,0.047,0.374,-5.337
0.042,0.044,0.373,-5.337
0.127,0.041,0.374,-5.337
0.227,0.041,0.374,-5.337
0.188,0.047,0.373,-5.337
0.190,0.047,0.376,-5.337
0.169,0.045,0.379,-5.337
0.130,0.047,0.375,-5.337
0.096,0.050,0.371,-5.337
0.054,0.052,0.371,-5.337
0.108,0.048,0.371,-5.337
0.186,0.047,0.371,-5.337
0.218,0.045,0.366,-5.337
0.208,0.047,0.368,-5.337
0.177,0.046,0.373,-5.337
0.247,0.047,0.380,-5.337
0.210,0.048,0.379,-5.337
0.163,0.049,0.373,-5.337
0.119,0.049,0.371,-5.337
0.087,0.048,0.373,-5.337
0.136,0.047,0.376,-5.337
0.153,0.050,0.376,-5.337
0.084,0.050,0.375,-5.337
0.143,0.046,0.378,-5.337
0.252,0.042,0.376,-5.337
0.240,0.045,0.373,-5.337
0.235,0.044,0.370,-5.337
0.278,0.045,0.372,-5.337
0.238,0.048,0.378,-5.337
0.260,0.044,0.380,-5.337
0.310,0.045,0.379,-5.337
0.322,0.047,0.377,-5.337
0.267,0.049,0.376,-5.337
0.251,0.048,0.373,-5.337
0.280,0.046,0.369,-5.337
0.301,0.044,0.368,-5.337
0.225,0.049,0.373,-5.337
0.181,0.050,0.372,-5.337
0.167,0.050,0.371,-5.337
0.200,0.050,0.372,-5.337
0.233,0.051,0.376,-5.337
0.154,0.052,0.379,-5.337
0.123,0.047,0.375,-5.337
0.214,0.045,0.374,-5.337
0.257,0.046,0.375,-5.337
0.183,0.049,0.377,-5.337
0.143,0.050,0.379,-5.337
0.166,0.046,0.378,-5.337
0.253,0.043,0.372,-5.337
0.310,0.045,0.371,-5.337
0.300,0.043,0.374,-5.337
0.266,0.044,0.378,-5.337
0.248,0.048,0.378,-5.337
0.187,0.053,0.379,-5.337
0.125,0.049,0.377,-5.337
0.114,0.045,0.376,-5.337
0.133,0.046,0.373,-5.337
0.146,0.045,0.374,-5.337
0.118,0.047,0.375,-5.337
0.128,0.048,0.379,-5.337
0.139,0.046,0.378,-5.337
0.137,0.050,0.376,-5.337
0.171,0.050,0.370,-5.337
0.114,0.052,0.369,-5.337
0.168,0.048,0.368,-5.337
0.211,0.052,0.367,-5.337
0.155,0.054,0.373,-5.337
0.107,0.052,0.379,-5.337
0.097,0.054,0.378,-5.337
0.114,0.056,0.376,-5.337
0.214,0.053,0.373,-5.337
0.221,0.054,0.372,-5.337
0.137,0.058,0.374,-5.337
0.134,0.054,0.380,-5.337
0.254,0.052,0.380,-5.337
0.274,0.053,0.374,-5.337
0.203,0.054,0.372,-5.337
0.277,0.050,0.376,-5.337
0.235,0.054,0.381,-5.337
0.200,0.052,0.377,-5.337
0.191,0.052,0.371,-5.337
0.223,0.056,0.367,-5.337
0.205,0.061,0.369,-5.337
0.152,0.059,0.374,-5.337
0.104,0.059,0.379,-5.337
0.140,0.057,0.379,-5.337
0.238,0.052,0.375,-5.337
0.217,0.053,0.374,-5.337
0.140,0.052,0.376,-5.337
0.178,0.052,0.379,-5.337
0.213,0.050,0.378,-5.337
0.192,0.053,0.374,-5.337
0.187,0.056,0.370,-5.337
0.236,0.057,0.373,-5.337
0.198,0.059,0.375,-5.337
0.148,0.060,0.375,-5.337
0.193,0.058,0.375,-5.337
0.180,0.060,0.380,-5.337
0.134,0.063,0.377,-5.337
0.150,0.061,0.375,-5.337
0.100,0.058,0.374,-5.337
0.087,0.056,0.373,-5.337
0.160,0.054,0.374,-5.337
0.250,0.052,0.377,-5.337
0.278,0.051,0.376,-5.337
0.292,0.052,0.376,-5.337
0.230,0.054,0.377,-5.337
0.197,0.054,0.377,-5.337
0.209,0.052,0.377,-5.337
0.199,0.057,0.379,-5.337
0.140,0.058,0.377,-5.337
0.147,0.058,0.373,-5.337
0.192,0.059,0.374,-5.337
0.267,0.058,0.378,-5.337
0.263,0.060,0.376,-5.337
0.265,0.061,0.372,-5.337
0.290,0.059,0.371,-5.337
0.180,0.060,0.373,-5.337
0.142,0.061,0.378,-5.337
0.178,0.059,0.380,-5.337
0.255,0.060,0.382,-5.337
0.218,0.064,0.383,-5.337
0.207,0.064,0.380,-5.337
0.256,0.061,0.376,-5.337
0.229,0.058,0.370,-5.337
0.251,0.056,0.364,-5.337
0.254,0.059,0.370,-5.337
0.212,0.058,0.375,-5.337
0.156,0.059,0.376,-5.337
0.161,0.059,0.377,-5.337
0.165,0.057,0.378,-5.337
0.099,0.058,0.378,-5.337
0.036,0.061,0.373,-5.337
0.128,0.058,0.372,-5.337
0.242,0.054,0.376,-5.337
0.211,0.056,0.379,-5.337
0.134,0.061,0.379,-5.337
0.101,0.061,0.373,-5.337
0.123,0.060,0.369,-5.337
0.233,0.059,0.370,-5.337
0.237,0.057,0.371,-5.337
0.219,0.056,0.372,-5.337
0.230,0.055,0.373,-5.337
0.243,0.057,0.374,-5.337
0.176,0.059,0.374,-5.337
0.184,0.056,0.376,-5.337
0.264,0.058,0.373,-5.337
0.272,0.059,0.370,-5.337
0.217,0.062,0.367,-5.337
0.184,0.058,0.369,-5.337
0.242,0.054,0.371,-5.337
0.229,0.058,0.369,-5.337
0.137,0.057,0.369,-5.337
0.129,0.060,0.371,-5.337
0.149,0.063,0.376,-5.337
0.102,0.062,0.378,-5.337
0.098,0.058,0.374,-5.337
0.112,0.060,0.371,-5.337
0.135,0.064,0.369,-5.337
0.166,0.063,0.370,-5.337
0.158,0.065,0.374,-5.337
0.132,0.068,0.376,-5.337
0.136,0.065,0.374,-5.337
0.166,0.063,0.372,-5.337
0.209,0.062,0.371,-5.337
0.257,0.059,0.369,-5.337
0.203,0.061,0.372,-5.337
0.141,0.065,0.371,-5.337
0.143,0.061,0.370,-5.337
0.102,0.061,0.370,-5.337
0.121,0.061,0.373,-5.337
0.160,0.064,0.371,-5.337
0.178,0.064,0.369,-5.337
0.214,0.062,0.365,-5.337
0.209,0.063,0.367,-5.337
0.194,0.061,0.372,-5.337
0.218,0.060,0.375,-5.337
0.268,0.059,0.371,-5.337
0.221,0.060,0.367,-5.337
0.157,0.065,0.368,-5.337
0.113,0.066,0.372,-5.337
0.067,0.068,0.373,-5.337
0.071,0.066,0.374,-5.337
0.154,0.068,0.374,-5.337
0.207,0.063,0.370,-5.337
0.220,0.061,0.367,-5.337
0.226,0.061,0.368,-5.337
0.219,0.062,0.370,-5.337
0.208,0.061,0.374,-5.337
0.125,0.063,0.377,-5.337
0.047,0.064,0.374,-5.337
0.104,0.066,0.373,-5.337
0.215,0.067,0.370,-5.337
0.242,0.067,0.366,-5.337
0.289,0.064,0.366,-5.337
0.291,0.068,0.371,-5.337
0.268,0.062,0.371,-5.337
0.268,0.060,0.373,-5.337
0.276,0.059,0.372,-5.337
0.274,0.061,0.369,-5.337
0.290,0.061,0.369,-5.337
0.243,0.060,0.369,-5.337
0.204,0.063,0.369,-5.337
0.199,0.065,0.370,-5.337
0.179,0.068,0.372,-5.337
0.163,0.064,0.372,-5.337
0.243,0.061,0.370,-5.337
0.224,0.065,0.367,-5.337
0.109,0.065,0.367,-5.337
0.060,0.066,0.370,-5.337
0.089,0.062,0.374,-5.337
0.101,0.063,0.373,-5.337
0.147,0.064,0.373,-5.337
0.116,0.066,0.371,-5.337
0.085,0.064,0.372,-5.337
0.159,0.061,0.372,-5.337
0.222,0.061,0.372,-5.337
0.233,0.061,0.370,-5.337
0.247,0.064,0.369,-5.337
0.228,0.061,0.369,-5.337
0.164,0.062,0.372,-5.337
0.134,0.061,0.373,-5.337
0.167,0.061,0.374,-5.337
0.249,0.058,0.372,-5.337
0.305,0.058,0.370,-5.337
0.299,0.063,0.368,-5.337
0.198,0.063,0.370,-5.337
0.163,0.063,0.374,-5.337
0.184,0.063,0.376,-5.337
0.191,0.063,0.373,-5.337
0.127,0.064,0.367,-5.337
0.130,0.061,0.366,-5.337
0.157,0.063,0.371,-5.337
0.082,0.062,0.377,-5.337
0.011,0.059,0.373,-5.337
0.088,0.059,0.371,-5.337
0.111,0.061,0.369,-5.337
0.091,0.062,0.370,-5.337
0.147,0.056,0.369,-5.337
0.270,0.054,0.372,-5.337
0.288,0.052,0.371,-5.337
0.242,0.058,0.370,-5.337
0.157,0.057,0.367,-5.337
0.165,0.054,0.363,-5.337
0.283,0.052,0.367,-5.337
0.280,0.052,0.369,-5.337
0.200,0.052,0.371,-5.337
0.236,0.052,0.372,-5.337
0.303,0.053,0.369,-5.337
0.216,0.054,0.368,-5.337
0.124,0.051,0.367,-5.337
0.124,0.050,0.367,-5.337
0.130,0.049,0.370,-5.337
0.155,0.051,0.374,-5.337
0.159,0.052,0.374,-5.337
0.139,0.050,0.373,-5.337
0.166,0.049,0.372,-5.337
0.174,0.052,0.371,-5.337
0.127,0.051,0.371,-5.337
0.136,0.046,0.366,-5.337
0.177,0.047,0.366,-5.337
0.235,0.048,0.368,-5.337
0.260,0.052,0.370,-5.337
0.228,0.054,0.371,-5.337
0.246,0.053,0.371,-5.337
0.260,0.053,0.368,-5.337
0.215,0.055,0.369,-5.337
0.217,0.054,0.370,-5.337
0.220,0.053,0.367,-5.337
0.203,0.053,0.367,-5.337
0.213,0.050,0.369,-5.337
0.167,0.048,0.374,-5.337
0.161,0.051,0.376,-5.337
0.144,0.053,0.376,-5.337
0.137,0.052,0.375,-5.337
0.207,0.051,0.372,-5.337
0.173,0.052,0.371,-5.337
0.208,0.051,0.369,-5.337
0.312,0.048,0.367,-5.337
0.269,0.048,0.367,-5.337
0.255,0.044,0.367,-5.337
0.232,0.044,0.367,-5.337
0.170,0.050,0.364,-5.337
0.182,0.051,0.367,-5.337
0.210,0.051,0.372,-5.337
0.218,0.052,0.374,-5.337
0.209,0.050,0.373,-5.337
0.194,0.050,0.375,-5.337
0.229,0.048,0.374,-5.337
0.216,0.045,0.369,-5.337
0.208,0.045,0.366,-5.337
0.215,0.049,0.366,-5.337
0.214,0.047,0.366,-5.337
0.207,0.048,0.367,-5.337
0.172,0.049,0.371,-5.337
0.212,0.047,0.371,-5.337
0.203,0.050,0.371,-5.337
0.228,0.052,0.369,-5.337
0.263,0.049,0.365,-5.337
0.167,0.050,0.361,-5.337
0.118,0.053,0.364,-5.337
0.183,0.050,0.369,-5.337
0.140,0.051,0.371,-5.337
0.113,0.053,0.371,-5.337
0.098,0.052,0.375,-5.337
0.080,0.059,0.375,-5.337
0.066,0.058,0.371,-5.337
0.105,0.053,0.370,-5.337
0.137,0.051,0.373,-5.337
0.156,0.052,0.374,-5.337
0.162,0.053,0.370,-5.337
0.245,0.049,0.366,-5.337
0.231,0.050,0.367,-5.337
0.157,0.055,0.373,-5.337
0.157,0.052,0.372,-5.337
0.218,0.050,0.366,-5.337
0.244,0.049,0.362,-5.337
0.275,0.048,0.364,-5.337
0.219,0.053,0.369,-5.337
0.161,0.053,0.371,-5.337
0.137,0.048,0.370,-5.337
0.147,0.047,0.370,-5.337
0.197,0.046,0.372,-5.337
0.220,0.046,0.375,-5.337
0.281,0.045,0.372,-5.337
0.281,0.045,0.370,-5.337
0.206,0.047,0.368,-5.337
0.167,0.042,0.368,-5.337
0.145,0.042,0.366,-5.337
0.150,0.044,0.368,-5.337
0.159,0.044,0.370,-5.337
0.205,0.045,0.374,-5.337
0.189,0.048,0.372,-5.337
0.196,0.045,0.368,-5.337
0.250,0.045,0.368,-5.337
0.222,0.046,0.367,-5.337
0.191,0.045,0.367,-5.337
0.248,0.043,0.367,-5.337
0.266,0.043,0.364,-5.337
0.305,0.046,0.365,-5.337
0.241,0.046,0.369,-5.337
0.203,0.044,0.371,-5.337
0.163,0.048,0.370,-5.337
0.131,0.049,0.371,-5.337
0.207,0.048,0.374,-5.337
0.271,0.045,0.371,-5.337
0.259,0.045,0.369,-5.337
0.140,0.051,0.368,-5.337
0.158,0.049,0.367,-5.337
0.169,0.048,0.365,-5.337
0.160,0.047,0.367,-5.337
0.179,0.045,0.368,-5.337
0.189,0.047,0.368,-5.337
0.203,0.045,0.370,-5.337
0.161,0.045,0.371,-5.337
0.119,0.049,0.372,-5.337
0.114,0.048,0.372,-5.337
0.176,0.046,0.372,-5.337
0.260,0.043,0.371,-5.337
0.288,0.041,0.370,-5.337
0.309,0.041,0.371,-5.337
0.281,0.042,0.367,-5.337
0.161,0.045,0.370,-5.337
0.129,0.048,0.372,-5.337
0.138,0.050,0.373,-5.337
0.112,0.050,0.371,-5.337
0.179,0.051,0.372,-5.337
0.191,0.051,0.374,-5.337
0.154,0.048,0.373,-5.337
0.105,0.045,0.373,-5.337
0.150,0.046,0.374,-5.337
0.171,0.048,0.375,-5.337
0.187,0.046,0.376,-5.337
0.277,0.045,0.374,-5.337
0.281,0.048,0.367,-5.337
0.220,0.051,0.368,-5.337
0.256,0.045,0.371,-5.337
0.243,0.048,0.375,-5.337
0.250,0.045,0.373,-5.337
0.223,0.047,0.373,-5.337
0.163,0.049,0.370,-5.337
0.168,0.049,0.370,-5.337
0.163,0.047,0.372,-5.337
0.081,0.047,0.374,-5.337
0.042,0.052,0.377,-5.337
0.115,0.050,0.374,-5.337
0.166,0.047,0.372,-5.337
0.148,0.047,0.371,-5.337
0.153,0.047,0.375,-5.337
0.181,0.048,0.372,-5.337
0.164,0.048,0.369,-5.337
0.198,0.046,0.371,-5.337
0.183,0.049,0.374,-5.337
0.058,0.050,0.377,-5.337
0.114,0.048,0.377,-5.337
0.233,0.047,0.373,-5.337
0.230,0.048,0.372,-5.337
0.182,0.049,0.370,-5.337
0.170,0.049,0.370,-5.337
0.175,0.048,0.371,-5.337
0.195,0.050,0.376,-5.337
0.202,0.046,0.377,-5.337
0.193,0.046,0.373,-5.337
0.172,0.047,0.372,-5.337
0.186,0.046,0.373,-5.337
0.237,0.047,0.373,-5.337
0.202,0.048,0.369,-5.337
0.143,0.043,0.369,-5.337
0.154,0.041,0.372,-5.337
0.241,0.044,0.375,-5.337
0.197,0.047,0.372,-5.337
0.185,0.046,0.368,-5.337
0.212,0.046,0.367,-5.337
0.213,0.047,0.367,-5.337
0.204,0.047,0.369,-5.337
0.133,0.049,0.370,-5.337
0.139,0.048,0.367,-5.337
0.188,0.046,0.367,-5.337
0.245,0.043,0.370,-5.337
0.263,0.043,0.371,-5.337
0.166,0.046,0.371,-5.337
0.093,0.049,0.372,-5.337
0.164,0.046,0.373,-5.337
0.238,0.047,0.374,-5.337
0.239,0.048,0.374,-5.337
0.193,0.051,0.372,-5.337
0.110,0.050,0.372,-5.337
0.125,0.045,0.371,-5.337
0.202,0.045,0.370,-5.337
0.282,0.045,0.368,-5.337
0.226,0.046,0.367,-5.337
0.218,0.047,0.371,-5.337
0.270,0.043,0.372,-5.337
0.250,0.040,0.368,-5.337
0.241,0.041,0.368,-5.337
0.231,0.047,0.369,-5.337
0.203,0.045,0.371,-5.337
0.264,0.041,0.373,-5.337
0.308,0.034,0.374,-5.337
0.252,0.037,0.371,-5.337
0.188,0.041,0.368,-5.337
0.208,0.040,0.366,-5.337
0.231,0.041,0.367,-5.337
0.230,0.046,0.366,-5.337
0.202,0.049,0.366,-5.337
0.168,0.045,0.369,-5.337
0.219,0.043,0.371,-5.337
0.261,0.046,0.369,-5.337
0.273,0.046,0.370,-5.337
0.203,0.045,0.372,-5.337
0.161,0.043,0.370,-5.337
0.169,0.044,0.368,-5.337
0.214,0.041,0.369,-5.337
0.292,0.042,0.372,-5.337
0.180,0.047,0.373,-5.337
0.088,0.050,0.372,-5.337
0.071,0.047,0.371,-5.337
0.099,0.044,0.370,-5.337
0.189,0.041,0.366,-5.337
0.193,0.044,0.367,-5.337
0.141,0.042,0.365,-5.337
0.164,0.039,0.365,-5.337
0.205,0.039,0.367,-5.337
0.220,0.043,0.373,-5.337
0.130,0.046,0.374,-5.337
0.134,0.045,0.372,-5.337
0.199,0.045,0.373,-5.337
0.163,0.046,0.372,-5.337
0.129,0.048,0.370,-5.337
0.144,0.045,0.367,-5.337
0.169,0.045,0.370,-5.337
0.177,0.048,0.371,-5.337
0.190,0.043,0.367,-5.337
0.208,0.044,0.365,-5.337
0.224,0.044,0.366,-5.337
0.137,0.044,0.369,-5.337
0.152,0.041,0.369,-5.337
0.195,0.045,0.369,-5.337
0.192,0.047,0.366,-5.337
0.225,0.044,0.367,-5.337
0.315,0.043,0.370,-5.337
0.342,0.044,0.371,-5.337
0.221,0.045,0.374,-5.337
0.154,0.044,0.374,-5.337
0.209,0.042,0.371,-5.337
0.257,0.040,0.369,-5.337
0.192,0.044,0.370,-5.337
0.125,0.048,0.370,-5.337
0.140,0.046,0.368,-5.337
0.179,0.045,0.370,-5.337
0.185,0.047,0.373,-5.337
0.132,0.049,0.371,-5.337
0.115,0.048,0.369,-5.337
0.126,0.050,0.369,-5.337
0.080,0.051,0.371,-5.337
0.111,0.049,0.371,-5.337
0.234,0.048,0.370,-5.337
0.232,0.051,0.370,-5.337
0.141,0.048,0.369,-5.337
0.108,0.047,0.371,-5.337
0.192,0.051,0.374,-5.337
0.180,0.055,0.374,-5.337
0.169,0.053,0.373,-5.337
0.203,0.050,0.370,-5.337
0.219,0.050,0.370,-5.337
0.254,0.054,0.372,-5.337
0.317,0.055,0.374,-5.337
0.286,0.052,0.375,-5.337
0.249,0.051,0.369,-5.337
0.211,0.053,0.367,-5.337
0.145,0.052,0.365,-5.337
0.169,0.053,0.364,-5.337
0.166,0.051,0.366,-5.337
0.152,0.055,0.373,-5.337
0.185,0.054,0.375,-5.337
0.227,0.053,0.372,-5.337
0.279,0.054,0.371,-5.337
0.256,0.054,0.370,-5.337
0.191,0.051,0.371,-5.337
0.156,0.051,0.370,-5.337
0.120,0.053,0.371,-5.337
0.164,0.053,0.373,-5.337
0.256,0.052,0.373,-5.337
0.244,0.053,0.367,-5.337
0.191,0.055,0.365,-5.337
0.162,0.060,0.368,-5.337
0.164,0.059,0.370,-5.337
0.172,0.060,0.370,-5.337
0.199,0.057,0.368,-5.337
0.208,0.057,0.367,-5.337
0.234,0.056,0.366,-5.337
0.267,0.057,0.367,-5.337
0.288,0.057,0.369,-5.337
0.290,0.055,0.369,-5.337
0.277,0.055,0.369,-5.337
0.179,0.054,0.365,-5.337
0.154,0.057,0.365,-5.337
0.167,0.058,0.368,-5.337
0.161,0.060,0.375,-5.337
0.175,0.056,0.377,-5.337
0.249,0.055,0.374,-5.337
0.226,0.058,0.372,-5.337
0.112,0.060,0.371,-5.337
0.098,0.058,0.371,-5.337
0.107,0.057,0.368,-5.337
0.181,0.054,0.366,-5.337
0.234,0.055,0.364,-5.337
0.205,0.058,0.365,-5.337
0.176,0.061,0.368,-5.337
0.180,0.062,0.371,-5.337
0.210,0.059,0.372,-5.337
0.285,0.055,0.370,-5.337
0.253,0.057,0.369,-5.337
0.140,0.059,0.371,-5.337
0.067,0.061,0.374,-5.337
0.070,0.059,0.374,-5.337
0.149,0.057,0.368,-5.337
0.162,0.062,0.364,-5.337
0.006,0.065,0.362,-5.337
-0.004,0.061,0.366,-5.337
0.169,0.054,0.369,-5.337
0.240,0.057,0.369,-5.337
0.197,0.057,0.369,-5.337
0.151,0.059,0.369,-5.337
0.247,0.054,0.373,-5.337
0.297,0.054,0.375,-5.337
0.188,0.057,0.369,-5.337
0.116,0.058,0.366,-5.337
0.118,0.061,0.370,-5.337
0.093,0.063,0.374,-5.337
0.103,0.061,0.374,-5.337
0.136,0.058,0.370,-5.337
0.209,0.057,0.369,-5.337
0.235,0.058,0.370,-5.337
0.262,0.060,0.369,-5.337
0.241,0.059,0.370,-5.337
0.227,0.058,0.372,-5.337
0.137,0.058,0.372,-5.337
0.167,0.057,0.368,-5.337
0.164,0.063,0.368,-5.337
0.135,0.063,0.368,-5.337
0.082,0.063,0.368,-5.337
0.112,0.062,0.372,-5.337
0.203,0.062,0.376,-5.337
0.271,0.066,0.375,-5.337
0.220,0.065,0.369,-5.337
0.142,0.065,0.367,-5.337
0.144,0.066,0.365,-5.337
0.139,0.066,0.367,-5.337
0.192,0.065,0.371,-5.337
0.246,0.069,0.373,-5.337
0.223,0.068,0.372,-5.337
0.217,0.065,0.368,-5.337
0.229,0.065,0.367,-5.337
0.203,0.071,0.369,-5.337
0.177,0.071,0.371,-5.337
0.163,0.066,0.369,-5.337
0.139,0.066,0.368,-5.337
0.117,0.068,0.366,-5.337
0.091,0.069,0.368,-5.337
0.117,0.066,0.372,-5.337
0.133,0.065,0.373,-5.337
0.075,0.068,0.373,-5.337
0.018,0.069,0.372,-5.337
0.133,0.063,0.371,-5.337
0.170,0.066,0.372,-5.337
0.080,0.067,0.371,-5.337
0.100,0.064,0.372,-5.337
0.196,0.062,0.374,-5.337
0.218,0.060,0.374,-5.337
0.197,0.061,0.370,-5.337
0.225,0.062,0.367,-5.337
0.215,0.062,0.367,-5.337
0.210,0.060,0.370,-5.337
0.212,0.060,0.370,-5.337
0.287,0.061,0.367,-5.337
0.312,0.059,0.371,-5.337
0.230,0.059,0.369,-5.337
0.173,0.060,0.367,-5.337
0.139,0.064,0.365,-5.337
0.209,0.066,0.368,-5.337
0.304,0.057,0.369,-5.337
0.320,0.059,0.375,-5.337
0.227,0.064,0.377,-5.337
0.184,0.065,0.375,-5.337
0.178,0.066,0.371,-5.337
0.147,0.067,0.370,-5.337
0.102,0.067,0.370,-5.337
0.116,0.069,0.373,-5.337
0.121,0.067,0.373,-5.337
0.126,0.065,0.372,-5.337
0.094,0.067,0.371,-5.337
0.179,0.067,0.372,-5.337
0.176,0.065,0.374,-5.337
0.150,0.065,0.376,-5.337
0.115,0.067,0.373,-5.337
0.134,0.065,0.369,-5.337
0.165,0.063,0.372,-5.337
0.157,0.065,0.375,-5.337
0.137,0.066,0.377,-5.337
0.126,0.065,0.373,-5.337
0.167,0.065,0.370,-5.337
0.249,0.058,0.369,-5.337
0.213,0.062,0.371,-5.337
0.160,0.064,0.373,-5.337
0.161,0.066,0.373,-5.337
0.172,0.065,0.372,-5.337
0.246,0.065,0.372,-5.337
0.265,0.066,0.371,-5.337
0.180,0.070,0.369,-5.337
0.125,0.070,0.369,-5.337
0.179,0.068,0.374,-5.337
0.214,0.067,0.378,-5.337
0.161,0.068,0.379,-5.337
0.073,0.064,0.376,-5.337
0.108,0.062,0.374,-5.337
0.109,0.063,0.372,-5.337
0.207,0.062,0.368,-5.337
0.234,0.060,0.370,-5.337
0.240,0.061,0.373,-5.337
0.217,0.065,0.373,-5.337
0.189,0.068,0.373,-5.337
0.217,0.068,0.375,-5.337
0.188,0.069,0.375,-5.337
0.138,0.068,0.375,-5.337
0.146,0.066,0.374,-5.337
0.186,0.061,0.372,-5.337
0.208,0.062,0.368,-5.337
0.201,0.065,0.368,-5.337
0.171,0.067,0.372,-5.337
0.148,0.068,0.378,-5.337
0.184,0.066,0.378,-5.337
0.167,0.070,0.378,-5.337
0.184,0.070,0.379,-5.337
0.141,0.073,0.378,-5.337
0.126,0.073,0.376,-5.337
0.118,0.073,0.374,-5.337
0.151,0.072,0.373,-5.337
0.241,0.068,0.368,-5.337
0.288,0.067,0.366,-5.337
0.255,0.068,0.367,-5.337
0.176,0.072,0.371,-5.337
0.115,0.070,0.372,-5.337
0.203,0.065,0.371,-5.337
0.291,0.060,0.367,-5.337
0.254,0.063,0.365,-5.337
0.174,0.069,0.365,-5.337
0.150,0.070,0.367,-5.337
0.142,0.068,0.371,-5.337
0.133,0.068,0.377,-5.337
0.151,0.071,0.378,-5.337
0.191,0.071,0.380,-5.337
0.251,0.066,0.377,-5.337
0.263,0.070,0.370,-5.337
0.194,0.070,0.367,-5.337
0.231,0.067,0.368,-5.337
0.254,0.069,0.368,-5.337
0.119,0.073,0.372,-5.337
0.078,0.076,0.373,-5.337
0.066,0.073,0.374,-5.337
0.085,0.070,0.375,-5.337
0.081,0.071,0.375,-5.337
0.062,0.068,0.372,-5.337
0.166,0.068,0.370,-5.337
0.175,0.065,0.366,-5.337
0.196,0.066,0.364,-5.337
0.202,0.064,0.371,-5.337
0.199,0.065,0.375,-5.337
0.120,0.066,0.369,-5.337
0.128,0.066,0.366,-5.337
0.183,0.066,0.371,-5.337
0.156,0.064,0.373,-5.337
0.152,0.065,0.372,-5.337
0.154,0.066,0.374,-5.337
0.212,0.065,0.374,-5.337
0.224,0.063,0.368,-5.337
0.206,0.065,0.366,-5.337
0.188,0.062,0.368,-5.337
0.139,0.062,0.371,-5.337
0.058,0.066,0.366,-5.337
0.104,0.066,0.365,-5.337
0.214,0.063,0.369,-5.337
0.264,0.067,0.370,-5.337
0.194,0.066,0.369,-5.337
0.127,0.066,0.369,-5.337
0.224,0.063,0.373,-5.337
0.267,0.063,0.370,-5.337
0.255,0.061,0.369,-5.337
0.186,0.063,0.372,-5.337
0.178,0.063,0.374,-5.337
0.179,0.064,0.372,-5.337
0.103,0.064,0.372,-5.337
0.063,0.064,0.372,-5.337
0.164,0.059,0.372,-5.337
0.228,0.057,0.369,-5.337
0.218,0.062,0.368,-5.337
0.208,0.063,0.366,-5.337
0.192,0.063,0.368,-5.337
0.175,0.060,0.371,-5.337
0.128,0.059,0.374,-5.337
0.150,0.057,0.371,-5.337
0.205,0.055,0.370,-5.337
0.201,0.056,0.373,-5.337
0.174,0.059,0.376,-5.337
0.197,0.061,0.376,-5.337
0.295,0.060,0.375,-5.337
0.390,0.056,0.371,-5.337
0.289,0.057,0.368,-5.337
0.126,0.060,0.370,-5.337
0.066,0.061,0.373,-5.337
0.141,0.056,0.373,-5.337
0.151,0.056,0.369,-5.337
0.074,0.058,0.369,-5.337
0.138,0.060,0.372,-5.337
0.258,0.059,0.376,-5.337
0.209,0.056,0.372,-5.337
0.174,0.057,0.371,-5.337
0.235,0.055,0.374,-5.337
0.303,0.049,0.376,-5.337
0.324,0.050,0.375,-5.337
0.318,0.052,0.373,-5.337
0.261,0.052,0.367,-5.337
0.228,0.051,0.368,-5.337
0.267,0.049,0.372,-5.337
0.241,0.054,0.374,-5.337
0.184,0.055,0.374,-5.337
0.185,0.056,0.376,-5.337
0.141,0.057,0.378,-5.337
0.100,0.057,0.377,-5.337
0.104,0.053,0.371,-5.337
0.088,0.054,0.371,-5.337
0.138,0.048,0.370,-5.337
0.175,0.045,0.369,-5.337
0.142,0.045,0.371,-5.337
0.118,0.049,0.373,-5.337
0.135,0.051,0.373,-5.337
0.127,0.052,0.370,-5.337
0.104,0.056,0.370,-5.337
0.069,0.057,0.371,-5.337
0.137,0.051,0.370,-5.337
0.249,0.046,0.372,-5.337
0.251,0.047,0.376,-5.337
0.260,0.049,0.375,-5.337
0.324,0.049,0.374,-5.337
0.284,0.050,0.374,-5.337
0.205,0.052,0.373,-5.337
0.145,0.051,0.370,-5.337
0.134,0.054,0.368,-5.337
0.219,0.050,0.366,-5.337
0.258,0.046,0.369,-5.337
0.258,0.047,0.372,-5.337
0.223,0.050,0.377,-5.337
0.136,0.052,0.378,-5.337
0.102,0.050,0.373,-5.337
0.125,0.046,0.368,-5.337
0.162,0.046,0.367,-5.337
0.187,0.048,0.372,-5.337
0.209,0.048,0.371,-5.337
0.195,0.047,0.370,-5.337
0.183,0.048,0.368,-5.337
0.178,0.047,0.371,-5.337
0.173,0.048,0.376,-5.337
0.270,0.050,0.380,-5.337
0.276,0.048,0.375,-5.337
0.185,0.045,0.370,-5.337
0.135,0.046,0.369,-5.337
0.119,0.053,0.371,-5.337
0.112,0.051,0.370,-5.337
0.188,0.046,0.369,-5.337
0.230,0.043,0.371,-5.337
0.225,0.041,0.375,-5.337
0.204,0.043,0.374,-5.337
0.212,0.047,0.367,-5.337
0.207,0.049,0.365,-5.337
0.166,0.049,0.367,-5.337
0.113,0.048,0.367,-5.337
0.129,0.048,0.366,-5.337
0.128,0.044,0.370,-5.337
0.135,0.041,0.373,-5.337
0.186,0.043,0.372,-5.337
0.255,0.046,0.369,-5.337
0.247,0.046,0.369,-5.337
0.164,0.049,0.367,-5.337
0.173,0.046,0.370,-5.337
0.238,0.044,0.370,-5.337
0.183,0.044,0.371,-5.337
0.131,0.037,0.367,-5.337
0.120,0.045,0.369,-5.337
0.116,0.045,0.371,-5.337
0.099,0.044,0.374,-5.337
0.111,0.041,0.375,-5.337
0.144,0.043,0.376,-5.337
0.140,0.044,0.372,-5.337
0.193,0.043,0.369,-5.337
0.211,0.041,0.369,-5.337
0.258,0.043,0.368,-5.337
0.268,0.041,0.367,-5.337
0.198,0.038,0.368,-5.337
0.149,0.041,0.371,-5.337
0.073,0.045,0.372,-5.337
0.169,0.042,0.373,-5.337
0.277,0.040,0.370,-5.337
0.308,0.042,0.369,-5.337
0.340,0.042,0.372,-5.337
0.334,0.040,0.373,-5.337
0.262,0.043,0.373,-5.337
0.149,0.048,0.374,-5.337
0.125,0.044,0.373,-5.337
0.199,0.041,0.371,-5.337
0.242,0.043,0.370,-5.337
0.198,0.045,0.372,-5.337
0.197,0.046,0.371,-5.337
0.162,0.046,0.367,-5.337
0.181,0.043,0.365,-5.337
0.262,0.042,0.366,-5.337
0.218,0.045,0.370,-5.337
0.214,0.046,0.373,-5.337
0.327,0.043,0.368,-5.337
0.301,0.046,0.367,-5.337
0.200,0.051,0.369,-5.337
0.112,0.054,0.367,-5.337
0.023,0.054,0.365,-5.337
0.030,0.045,0.367,-5.337
0.121,0.048,0.370,-5.337
0.196,0.046,0.372,-5.337
0.188,0.047,0.377,-5.337
0.087,0.046,0.374,-5.337
0.151,0.043,0.372,-5.337
0.231,0.044,0.373,-5.337
0.224,0.046,0.374,-5.337
0.212,0.043,0.370,-5.337
0.154,0.046,0.367,-5.337
0.058,0.048,0.367,-5.337
0.058,0.045,0.372,-5.337
0.159,0.041,0.376,-5.337
0.240,0.043,0.374,-5.337
0.244,0.043,0.367,-5.337
0.228,0.044,0.364,-5.337
0.204,0.044,0.368,-5.337
0.181,0.045,0.373,-5.337
0.173,0.044,0.371,-5.337
0.172,0.043,0.371,-5.337
0.179,0.041,0.373,-5.337
0.244,0.038,0.373,-5.337
0.193,0.042,0.369,-5.337
0.108,0.044,0.366,-5.337
0.097,0.045,0.367,-5.337
0.180,0.040,0.368,-5.337
0.226,0.040,0.372,-5.337
0.244,0.039,0.373,-5.337
0.244,0.040,0.378,-5.337
0.211,0.042,0.378,-5.337
0.178,0.041,0.373,-5.337
0.188,0.042,0.368,-5.337
0.142,0.046,0.369,-5.337
0.127,0.042,0.372,-5.337
0.197,0.041,0.372,-5.337
0.257,0.040,0.374,-5.337
0.301,0.040,0.374,-5.337
0.240,0.040,0.376,-5.337
0.204,0.042,0.373,-5.337
0.193,0.042,0.369,-5.337
0.227,0.040,0.372,-5.337
0.191,0.044,0.373,-5.337
0.151,0.044,0.373,-5.337
0.242,0.041,0.376,-5.337
0.276,0.040,0.375,-5.337
0.193,0.043,0.375,-5.337
0.155,0.048,0.373,-5.337
0.122,0.052,0.371,-5.337
0.088,0.050,0.366,-5.337
0.148,0.048,0.366,-5.337
0.231,0.048,0.369,-5.337
0.251,0.046,0.372,-5.337
0.251,0.044,0.372,-5.337
0.266,0.042,0.373,-5.337
0.267,0.040,0.373,-5.337
0.228,0.041,0.375,-5.337
0.244,0.039,0.375,-5.337
0.268,0.039,0.376,-5.337
0.194,0.040,0.379,-5.337
0.090,0.042,0.375,-5.337
0.109,0.037,0.371,-5.337
0.139,0.035,0.373,-5.337
0.223,0.035,0.376,-5.337
0.231,0.039,0.381,-5.337
0.237,0.038,0.382,-5.337
0.216,0.038,0.378,-5.337
0.138,0.041,0.375,-5.337
0.129,0.046,0.373,-5.337
0.206,0.042,0.372,-5.337
0.244,0.041,0.371,-5.337
0.264,0.040,0.372,-5.337
0.269,0.040,0.372,-5.337
0.234,0.041,0.373,-5.337
0.180,0.040,0.371,-5.337
0.148,0.045,0.373,-5.337
0.172,0.043,0.373,-5.337
0.236,0.041,0.376,-5.337
0.292,0.038,0.372,-5.337
0.250,0.043,0.370,-5.337
0.212,0.043,0.371,-5.337
0.199,0.042,0.372,-5.337
0.179,0.040,0.371,-5.337
0.150,0.041,0.372,-5.337
0.118,0.042,0.372,-5.337
0.130,0.042,0.370,-5.337
0.146,0.041,0.370,-5.337
0.156,0.037,0.371,-5.337
0.149,0.034,0.374,-5.337
0.097,0.041,0.374,-5.337
0.109,0.040,0.371,-5.337
0.214,0.035,0.372,-5.337
0.247,0.037,0.372,-5.337
0.253,0.036,0.370,-5.337
0.241,0.037,0.369,-5.337
0.192,0.040,0.372,-5.337
0.173,0.040,0.377,-5.337
0.153,0.038,0.374,-5.337
0.191,0.037,0.372,-5.337
0.187,0.039,0.372,-5.337
0.138,0.043,0.374,-5.337
0.136,0.043,0.375,-5.337
0.222,0.046,0.375,-5.337
0.192,0.044,0.372,-5.337
0.177,0.045,0.369,-5.337
0.198,0.044,0.370,-5.337
0.229,0.045,0.373,-5.337
0.266,0.043,0.372,-5.337
0.328,0.042,0.371,-5.337
0.362,0.041,0.370,-5.337
0.326,0.043,0.370,-5.337
0.255,0.042,0.373,-5.337
0.251,0.040,0.373,-5.337
0.245,0.041,0.373,-5.337
0.199,0.041,0.372,-5.337
0.171,0.039,0.370,-5.337
0.198,0.040,0.367,-5.337
0.246,0.038,0.369,-5.337
0.271,0.038,0.370,-5.337
0.204,0.042,0.370,-5.337
0.184,0.043,0.368,-5.337
0.175,0.042,0.367,-5.337
0.162,0.041,0.368,-5.337
0.142,0.042,0.372,-5.337
0.186,0.042,0.374,-5.337
0.225,0.042,0.373,-5.337
0.273,0.041,0.373,-5.337
0.280,0.040,0.373,-5.337
0.262,0.041,0.372,-5.337
0.244,0.045,0.369,-5.337
0.194,0.047,0.369,-5.337
0.118,0.051,0.370,-5.337
0.087,0.053,0.369,-5.337
0.117,0.051,0.369,-5.337
0.170,0.048,0.372,-5.337
0.214,0.040,0.376,-5.337
0.236,0.043,0.373,-5.337
0.182,0.048,0.366,-5.337
0.123,0.047,0.363,-5.337
0.145,0.045,0.367,-5.337
0.127,0.045,0.372,-5.337
0.186,0.044,0.374,-5.337
0.233,0.048,0.373,-5.337
0.172,0.047,0.370,-5.337
0.178,0.045,0.369,-5.337
0.178,0.046,0.368,-5.337
0.162,0.053,0.368,-5.337
0.174,0.050,0.367,-5.337
0.230,0.047,0.369,-5.337
0.169,0.049,0.373,-5.337
0.125,0.050,0.378,-5.337
0.049,0.046,0.378,-5.337
0.080,0.045,0.375,-5.337
0.167,0.042,0.372,-5.337
0.203,0.044,0.370,-5.337
0.220,0.045,0.367,-5.337
0.240,0.047,0.366,-5.337
0.200,0.046,0.366,-5.337
0.236,0.047,0.366,-5.337
0.226,0.048,0.367,-5.337
0.281,0.047,0.368,-5.337
0.291,0.047,0.371,-5.337
0.282,0.049,0.372,-5.337
0.255,0.052,0.373,-5.337
0.205,0.050,0.371,-5.337
0.171,0.050,0.371,-5.337
0.126,0.050,0.368,-5.337
0.173,0.050,0.372,-5.337
0.209,0.048,0.375,-5.337
0.211,0.049,0.376,-5.337
0.237,0.049,0.374,-5.337
0.207,0.048,0.373,-5.337
0.190,0.051,0.372,-5.337
0.151,0.053,0.372,-5.337
0.245,0.052,0.375,-5.337
0.241,0.054,0.373,-5.337
0.150,0.057,0.370,-5.337
0.149,0.058,0.368,-5.337
0.205,0.055,0.369,-5.337
0.152,0.055,0.369,-5.337
0.106,0.057,0.369,-5.337
0.138,0.056,0.371,-5.337
0.157,0.055,0.374,-5.337
0.215,0.052,0.374,-5.337
0.244,0.050,0.372,-5.337
0.209,0.050,0.369,-5.337
0.200,0.052,0.370,-5.337
0.245,0.054,0.370,-5.337
0.226,0.056,0.375,-5.337
0.161,0.057,0.375,-5.337
0.154,0.056,0.374,-5.337
0.178,0.057,0.373,-5.337
0.200,0.051,0.377,-5.337
0.160,0.049,0.377,-5.337
0.128,0.052,0.370,-5.337
0.175,0.051,0.366,-5.337
0.245,0.049,0.370,-5.337
0.212,0.051,0.369,-5.337
0.139,0.054,0.368,-5.337
0.121,0.051,0.369,-5.337
0.158,0.050,0.368,-5.337
0.200,0.051,0.370,-5.337
0.178,0.054,0.374,-5.337
0.182,0.051,0.374,-5.337
0.124,0.056,0.374,-5.337
0.094,0.058,0.370,-5.337
0.185,0.053,0.366,-5.337
0.355,0.052,0.369,-5.337
0.332,0.055,0.371,-5.337
0.262,0.055,0.373,-5.337
0.236,0.054,0.369,-5.337
0.224,0.055,0.371,-5.337
0.192,0.054,0.370,-5.337
0.215,0.056,0.374,-5.337
0.261,0.058,0.375,-5.337
0.309,0.057,0.375,-5.337
0.231,0.056,0.372,-5.337
0.167,0.057,0.371,-5.337
0.169,0.057,0.370,-5.337
0.182,0.057,0.368,-5.337
0.197,0.053,0.369,-5.337
0.158,0.053,0.372,-5.337
0.201,0.055,0.372,-5.337
0.317,0.055,0.370,-5.337
0.318,0.054,0.365,-5.337
0.259,0.058,0.362,-5.337
0.257,0.060,0.366,-5.337
0.266,0.059,0.370,-5.337
0.157,0.063,0.370,-5.337
0.129,0.064,0.368,-5.337
0.126,0.060,0.372,-5.337
0.159,0.060,0.372,-5.337
0.212,0.056,0.367,-5.337
0.241,0.056,0.361,-5.337
0.221,0.057,0.365,-5.337
0.197,0.060,0.368,-5.337
0.161,0.061,0.369,-5.337
0.168,0.056,0.367,-5.337
0.217,0.056,0.368,-5.337
0.196,0.057,0.370,-5.337
0.131,0.061,0.375,-5.337
0.115,0.062,0.375,-5.337
0.174,0.057,0.374,-5.337
0.232,0.056,0.368,-5.337
0.166,0.058,0.365,-5.337
0.114,0.060,0.368,-5.337
0.061,0.063,0.371,-5.337
0.085,0.064,0.372,-5.337
0.163,0.059,0.372,-5.337
0.266,0.056,0.371,-5.337
0.277,0.057,0.371,-5.337
0.209,0.061,0.374,-5.337
0.155,0.061,0.376,-5.337
0.142,0.062,0.374,-5.337
0.208,0.060,0.368,-5.337
0.244,0.062,0.369,-5.337
0.182,0.064,0.367,-5.337
0.174,0.060,0.365,-5.337
0.261,0.056,0.363,-5.337
0.207,0.060,0.368,-5.337
0.130,0.061,0.370,-5.337
0.141,0.062,0.368,-5.337
0.204,0.057,0.370,-5.337
0.241,0.059,0.375,-5.337
0.267,0.060,0.376,-5.337
0.288,0.062,0.374,-5.337
0.320,0.060,0.366,-5.337
0.244,0.064,0.364,-5.337
0.194,0.065,0.366,-5.337
0.208,0.064,0.371,-5.337
0.146,0.062,0.371,-5.337
0.134,0.061,0.369,-5.337
0.144,0.061,0.372,-5.337
0.163,0.062,0.371,-5.337
0.181,0.063,0.367,-5.337
0.185,0.065,0.364,-5.337
0.217,0.064,0.368,-5.337
0.260,0.062,0.371,-5.337
0.265,0.061,0.370,-5.337
0.261,0.061,0.371,-5.337
0.180,0.063,0.372,-5.337
0.179,0.059,0.371,-5.337
0.233,0.059,0.370,-5.337
0.220,0.060,0.369,-5.337
0.257,0.061,0.372,-5.337
0.213,0.064,0.372,-5.337
0.160,0.065,0.374,-5.337
0.163,0.062,0.370,-5.337
0.171,0.063,0.368,-5.337
0.189,0.063,0.367,-5.337
0.249,0.060,0.368,-5.337
0.291,0.058,0.371,-5.337
0.265,0.060,0.373,-5.337
0.195,0.063,0.371,-5.337
0.095,0.065,0.365,-5.337
0.158,0.060,0.363,-5.337
0.240,0.057,0.366,-5.337
0.184,0.057,0.372,-5.337
0.178,0.060,0.373,-5.337
0.194,0.060,0.374,-5.337
0.204,0.060,0.374,-5.337
0.159,0.062,0.374,-5.337
0.163,0.062,0.373,-5.337
0.153,0.064,0.370,-5.337
0.118,0.061,0.370,-5.337
0.182,0.062,0.373,-5.337
0.202,0.062,0.373,-5.337
0.216,0.066,0.373,-5.337
0.235,0.066,0.376,-5.337
0.284,0.060,0.376,-5.337
0.216,0.063,0.370,-5.337
0.115,0.066,0.364,-5.337
0.160,0.067,0.363,-5.337
0.193,0.063,0.365,-5.337
0.231,0.058,0.368,-5.337
0.140,0.060,0.374,-5.337
0.089,0.059,0.378,-5.337
0.106,0.059,0.376,-5.337
0.183,0.059,0.373,-5.337
0.237,0.064,0.370,-5.337
0.202,0.063,0.371,-5.337
0.195,0.062,0.371,-5.337
0.203,0.060,0.371,-5.337
0.186,0.062,0.369,-5.337
0.259,0.065,0.370,-5.337
0.306,0.063,0.369,-5.337
0.338,0.062,0.373,-5.337
0.256,0.061,0.374,-5.337
0.200,0.066,0.374,-5.337
0.245,0.061,0.371,-5.337
0.228,0.059,0.370,-5.337
0.142,0.059,0.369,-5.337
0.147,0.062,0.372,-5.337
0.208,0.061,0.375,-5.337
0.265,0.058,0.371,-5.337
0.212,0.060,0.367,-5.337
0.193,0.059,0.367,-5.337
0.210,0.058,0.371,-5.337
0.186,0.060,0.371,-5.337
0.235,0.057,0.367,-5.337
0.220,0.060,0.367,-5.337
0.123,0.062,0.371,-5.337
0.086,0.059,0.372,-5.337
0.105,0.062,0.375,-5.337
0.115,0.064,0.374,-5.337
0.115,0.065,0.372,-5.337
0.177,0.060,0.368,-5.337
0.210,0.060,0.366,-5.337
0.131,0.063,0.367,-5.337
0.103,0.063,0.375,-5.337
0.136,0.062,0.382,-5.337
0.213,0.057,0.379,-5.337
0.261,0.057,0.372,-5.337
0.222,0.062,0.368,-5.337
0.201,0.063,0.370,-5.337
0.201,0.063,0.370,-5.337
0.215,0.063,0.369,-5.337
0.185,0.065,0.370,-5.337
0.272,0.064,0.371,-5.337
0.259,0.063,0.372,-5.337
0.172,0.061,0.369,-5.337
0.154,0.061,0.369,-5.337
0.166,0.064,0.374,-5.337
0.121,0.064,0.375,-5.337
0.148,0.060,0.373,-5.337
0.153,0.061,0.368,-5.337
0.185,0.063,0.369,-5.337
0.141,0.060,0.372,-5.337
0.157,0.058,0.375,-5.337
0.328,0.055,0.376,-5.337
0.425,0.054,0.376,-5.337
0.308,0.058,0.374,-5.337
0.173,0.059,0.373,-5.337
0.138,0.052,0.371,-5.337
0.131,0.054,0.367,-5.337
0.213,0.055,0.365,-5.337
0.238,0.056,0.364,-5.337
0.214,0.053,0.363,-5.337
0.238,0.052,0.365,-5.337
0.274,0.052,0.366,-5.337
0.242,0.053,0.370,-5.337
0.168,0.056,0.370,-5.337
0.110,0.058,0.370,-5.337
0.201,0.055,0.373,-5.337
0.238,0.054,0.374,-5.337
0.140,0.052,0.375,-5.337
0.144,0.051,0.374,-5.337
0.168,0.054,0.371,-5.337
0.199,0.056,0.366,-5.337
0.184,0.055,0.366,-5.337
0.233,0.050,0.368,-5.337
0.242,0.052,0.370,-5.337
0.209,0.055,0.373,-5.337
0.182,0.054,0.375,-5.337
0.165,0.050,0.376,-5.337
0.158,0.051,0.372,-5.337
0.195,0.054,0.370,-5.337
0.161,0.058,0.369,-5.337
0.128,0.054,0.370,-5.337
0.107,0.052,0.369,-5.337
0.152,0.052,0.366,-5.337
0.189,0.049,0.365,-5.337
0.195,0.053,0.368,-5.337
0.189,0.052,0.367,-5.337
0.247,0.052,0.363,-5.337
0.202,0.054,0.360,-5.337
0.154,0.055,0.364,-5.337
0.195,0.054,0.370,-5.337
0.162,0.055,0.373,-5.337
0.112,0.054,0.376,-5.337
0.155,0.048,0.377,-5.337
0.152,0.050,0.374,-5.337
0.164,0.048,0.370,-5.337
0.253,0.046,0.368,-5.337
0.314,0.051,0.370,-5.337
0.337,0.054,0.370,-5.337
0.324,0.054,0.370,-5.337
0.276,0.049,0.372,-5.337
0.231,0.052,0.374,-5.337
0.242,0.050,0.374,-5.337
0.210,0.049,0.376,-5.337
0.256,0.046,0.376,-5.337
0.317,0.047,0.373,-5.337
0.232,0.054,0.369,-5.337
0.134,0.054,0.368,-5.337
0.132,0.048,0.369,-5.337
0.228,0.043,0.369,-5.337
0.281,0.045,0.370,-5.337
0.220,0.046,0.368,-5.337
0.109,0.049,0.369,-5.337
0.130,0.049,0.370,-5.337
0.166,0.051,0.369,-5.337
0.158,0.050,0.369,-5.337
0.173,0.048,0.371,-5.337
0.219,0.047,0.373,-5.337
0.265,0.046,0.375,-5.337
0.257,0.045,0.371,-5.337
0.232,0.046,0.367,-5.337
0.224,0.046,0.362,-5.337
0.204,0.051,0.365,-5.337
0.181,0.049,0.368,-5.337
0.175,0.048,0.371,-5.337
0.182,0.047,0.372,-5.337
0.193,0.043,0.374,-5.337
0.271,0.041,0.376,-5.337
0.316,0.047,0.377,-5.337
0.292,0.049,0.379,-5.337
0.162,0.051,0.381,-5.337
0.151,0.051,0.378,-5.337
0.237,0.050,0.373,-5.337
0.217,0.045,0.369,-5.337
0.183,0.041,0.367,-5.337
0.227,0.044,0.369,-5.337
0.254,0.045,0.369,-5.337
0.200,0.043,0.371,-5.337
0.146,0.043,0.369,-5.337
0.174,0.042,0.371,-5.337
0.200,0.043,0.372,-5.337
0.187,0.044,0.371,-5.337
0.192,0.044,0.366,-5.337
0.089,0.047,0.366,-5.337
0.088,0.044,0.369,-5.337
0.193,0.045,0.374,-5.337
0.233,0.045,0.376,-5.337
0.182,0.045,0.373,-5.337
0.171,0.042,0.371,-5.337
0.151,0.042,0.368,-5.337
0.186,0.041,0.368,-5.337
0.153,0.040,0.369,-5.337
0.147,0.040,0.372,-5.337
0.148,0.041,0.377,-5.337
0.196,0.040,0.374,-5.337
0.170,0.042,0.366,-5.337
0.152,0.046,0.362,-5.337
0.190,0.043,0.365,-5.337
0.202,0.039,0.371,-5.337
0.208,0.040,0.374,-5.337
0.273,0.039,0.374,-5.337
0.260,0.042,0.374,-5.337
0.193,0.041,0.372,-5.337
0.207,0.041,0.369,-5.337
0.188,0.040,0.369,-5.337
0.157,0.034,0.366,-5.337
0.185,0.035,0.368,-5.337
0.223,0.040,0.371,-5.337
0.227,0.039,0.371,-5.337
0.179,0.039,0.370,-5.337
0.133,0.040,0.370,-5.337
0.106,0.041,0.373,-5.337
0.113,0.042,0.372,-5.337
0.154,0.040,0.370,-5.337
0.218,0.038,0.373,-5.337
0.262,0.036,0.374,-5.337
0.249,0.039,0.375,-5.337
0.163,0.040,0.374,-5.337
0.194,0.041,0.372,-5.337
0.252,0.042,0.367,-5.337
0.187,0.045,0.360,-5.337
0.159,0.045,0.363,-5.337
0.192,0.040,0.370,-5.337
0.210,0.037,0.374,-5.337
0.215,0.035,0.372,-5.337
0.209,0.036,0.372,-5.337
0.247,0.037,0.371,-5.337
0.222,0.038,0.371,-5.337
0.151,0.040,0.370,-5.337
0.174,0.039,0.371,-5.337
0.240,0.037,0.371,-5.337
0.201,0.040,0.372,-5.337
0.176,0.039,0.368,-5.337
0.232,0.039,0.374,-5.337
0.267,0.036,0.377,-5.337
0.200,0.038,0.373,-5.337
0.106,0.040,0.367,-5.337
0.192,0.038,0.366,-5.337
0.286,0.036,0.368,-5.337
0.271,0.040,0.371,-5.337
0.206,0.044,0.373,-5.337
0.225,0.041,0.374,-5.337
0.270,0.035,0.372,-5.337
0.211,0.037,0.370,-5.337
0.221,0.038,0.366,-5.337
0.257,0.038,0.366,-5.337
0.230,0.037,0.366,-5.337
0.119,0.037,0.367,-5.337
0.120,0.036,0.372,-5.337
0.225,0.037,0.373,-5.337
0.315,0.039,0.373,-5.337
0.288,0.038,0.369,-5.337
0.214,0.041,0.367,-5.337
0.180,0.040,0.367,-5.337
0.217,0.039,0.370,-5.337
0.199,0.041,0.371,-5.337
0.219,0.037,0.371,-5.337
0.257,0.037,0.370,-5.337
0.173,0.040,0.370,-5.337
0.089,0.040,0.371,-5.337
0.139,0.041,0.371,-5.337
0.203,0.043,0.371,-5.337
0.209,0.043,0.373,-5.337
0.190,0.041,0.371,-5.337
0.205,0.041,0.369,-5.337
0.219,0.039,0.369,-5.337
0.174,0.038,0.368,-5.337
0.155,0.038,0.366,-5.337
0.161,0.037,0.363,-5.337
0.190,0.034,0.366,-5.337
0.178,0.036,0.368,-5.337
0.210,0.037,0.369,-5.337
0.238,0.036,0.370,-5.337
0.208,0.039,0.376,-5.337
0.149,0.037,0.376,-5.337
0.207,0.040,0.375,-5.337
0.220,0.041,0.374,-5.337
0.243,0.042,0.373,-5.337
0.267,0.038,0.368,-5.337
0.273,0.039,0.368,-5.337
0.237,0.039,0.369,-5.337
0.180,0.043,0.370,-5.337
0.207,0.039,0.370,-5.337
0.286,0.037,0.374,-5.337
0.281,0.037,0.378,-5.337
0.206,0.038,0.379,-5.337
0.199,0.037,0.375,-5.337
0.205,0.037,0.369,-5.337
0.182,0.040,0.366,-5.337
0.141,0.040,0.368,-5.337
0.208,0.039,0.370,-5.337
0.214,0.041,0.364,-5.337
0.178,0.043,0.365,-5.337
0.194,0.041,0.368,-5.337
0.273,0.037,0.375,-5.337
0.253,0.038,0.380,-5.337
0.256,0.040,0.379,-5.337
0.201,0.036,0.371,-5.337
0.231,0.036,0.370,-5.337
0.212,0.037,0.371,-5.337
0.136,0.041,0.373,-5.337
0.074,0.039,0.372,-5.337
0.132,0.041,0.369,-5.337
0.173,0.042,0.369,-5.337
0.159,0.044,0.370,-5.337
0.242,0.040,0.371,-5.337
0.313,0.036,0.372,-5.337
0.249,0.039,0.373,-5.337
0.241,0.039,0.370,-5.337
0.238,0.039,0.369,-5.337
0.227,0.038,0.372,-5.337
0.294,0.036,0.376,-5.337
0.251,0.038,0.372,-5.337
0.140,0.038,0.371,-5.337
0.175,0.039,0.372,-5.337
0.256,0.039,0.373,-5.337
0.270,0.038,0.370,-5.337
0.237,0.039,0.367,-5.337
0.184,0.042,0.370,-5.337
0.111,0.042,0.375,-5.337
0.153,0.041,0.375,-5.337
0.177,0.040,0.370,-5.337
0.145,0.035,0.367,-5.337
0.206,0.032,0.370,-5.337
0.218,0.036,0.372,-5.337
0.216,0.041,0.372,-5.337
0.230,0.044,0.368,-5.337
0.227,0.042,0.365,-5.337
0.233,0.043,0.368,-5.337
0.260,0.042,0.373,-5.337
0.322,0.040,0.372,-5.337
0.313,0.040,0.370,-5.337
0.270,0.041,0.370,-5.337
0.220,0.040,0.375,-5.337
0.256,0.039,0.377,-5.337
0.230,0.040,0.375,-5.337
0.230,0.040,0.374,-5.337
0.261,0.039,0.377,-5.337
0.254,0.037,0.380,-5.337
0.272,0.037,0.379,-5.337
0.257,0.041,0.374,-5.337
0.214,0.044,0.372,-5.337
0.150,0.045,0.375,-5.337
0.092,0.042,0.372,-5.337
0.119,0.040,0.369,-5.337
0.148,0.043,0.369,-5.337
0.107,0.044,0.376,-5.337
0.210,0.037,0.377,-5.337
0.258,0.034,0.373,-5.337
0.204,0.038,0.370,-5.337
0.154,0.041,0.373,-5.337
0.205,0.040,0.373,-5.337
0.251,0.040,0.374,-5.337
0.272,0.043,0.371,-5.337
0.277,0.044,0.371,-5.337
0.256,0.045,0.371,-5.337
0.196,0.050,0.371,-5.337
0.151,0.048,0.369,-5.337
0.197,0.043,0.366,-5.337
0.313,0.040,0.369,-5.337
0.254,0.042,0.367,-5.337
0.136,0.042,0.367,-5.337
0.160,0.040,0.368,-5.337
0.171,0.040,0.370,-5.337
0.109,0.044,0.369,-5.337
0.150,0.042,0.371,-5.337
0.165,0.045,0.372,-5.337
0.122,0.048,0.376,-5.337
0.038,0.047,0.376,-5.337
0.051,0.049,0.370,-5.337
0.109,0.047,0.367,-5.337
0.165,0.047,0.371,-5.337
0.281,0.045,0.374,-5.337
0.254,0.050,0.373,-5.337
0.196,0.048,0.368,-5.337
0.251,0.044,0.365,-5.337
0.342,0.043,0.365,-5.337
0.305,0.045,0.367,-5.337
0.177,0.047,0.368,-5.337
0.123,0.047,0.368,-5.337
0.203,0.046,0.372,-5.337
0.301,0.044,0.373,-5.337
0.299,0.043,0.377,-5.337
0.221,0.043,0.376,-5.337
0.170,0.045,0.370,-5.337
0.186,0.043,0.364,-5.337
0.228,0.044,0.364,-5.337
0.222,0.047,0.365,-5.337
0.225,0.045,0.370,-5.337
0.228,0.045,0.375,-5.337
0.191,0.051,0.375,-5.337
0.204,0.051,0.372,-5.337
0.274,0.050,0.369,-5.337
0.305,0.048,0.371,-5.337
0.246,0.048,0.373,-5.337
0.111,0.050,0.371,-5.337
0.094,0.048,0.371,-5.337
0.175,0.049,0.374,-5.337
0.192,0.051,0.373,-5.337
0.195,0.054,0.369,-5.337
0.177,0.055,0.372,-5.337
0.207,0.051,0.373,-5.337
0.307,0.050,0.370,-5.337
0.300,0.051,0.369,-5.337
0.210,0.050,0.367,-5.337
0.158,0.051,0.370,-5.337
0.128,0.055,0.371,-5.337
0.125,0.056,0.373,-5.337
0.202,0.047,0.372,-5.337
0.273,0.045,0.372,-5.337
0.282,0.044,0.370,-5.337
0.225,0.049,0.370,-5.337
0.183,0.048,0.369,-5.337
0.152,0.051,0.368,-5.337
0.188,0.049,0.366,-5.337
0.196,0.049,0.363,-5.337
0.133,0.051,0.365,-5.337
0.224,0.052,0.372,-5.337
0.284,0.051,0.371,-5.337
0.205,0.053,0.371,-5.337
0.165,0.052,0.369,-5.337
0.188,0.054,0.371,-5.337
0.212,0.054,0.376,-5.337
0.210,0.051,0.373,-5.337
0.175,0.048,0.368,-5.337
0.176,0.050,0.369,-5.337
0.196,0.053,0.374,-5.337
0.153,0.054,0.373,-5.337
0.117,0.052,0.376,-5.337
0.105,0.050,0.375,-5.337
0.190,0.049,0.374,-5.337
0.240,0.049,0.369,-5.337
0.202,0.054,0.367,-5.337
0.132,0.055,0.364,-5.337
0.170,0.054,0.366,-5.337
0.242,0.052,0.368,-5.337
0.315,0.049,0.367,-5.337
0.248,0.054,0.370,-5.337
0.171,0.058,0.375,-5.337
0.195,0.059,0.379,-5.337
0.222,0.056,0.376,-5.337
0.249,0.055,0.375,-5.337
0.282,0.058,0.374,-5.337
0.291,0.059,0.369,-5.337
0.209,0.062,0.363,-5.337
0.155,0.065,0.366,-5.337
0.191,0.065,0.372,-5.337
0.115,0.065,0.374,-5.337
0.122,0.060,0.373,-5.337
0.166,0.059,0.374,-5.337
0.193,0.059,0.377,-5.337
0.179,0.063,0.377,-5.337
0.167,0.061,0.373,-5.337
0.182,0.063,0.373,-5.337
0.205,0.058,0.371,-5.337
0.270,0.058,0.366,-5.337
0.247,0.059,0.364,-5.337
0.257,0.060,0.366,-5.337
0.279,0.056,0.366,-5.337
0.231,0.057,0.369,-5.337
0.148,0.060,0.374,-5.337
0.102,0.062,0.371,-5.337
0.171,0.060,0.366,-5.337
0.168,0.059,0.367,-5.337
0.171,0.059,0.367,-5.337
0.153,0.062,0.371,-5.337
0.152,0.061,0.372,-5.337
0.195,0.058,0.371,-5.337
0.169,0.059,0.373,-5.337
0.149,0.062,0.375,-5.337
0.206,0.065,0.374,-5.337
0.208,0.067,0.368,-5.337
0.155,0.065,0.366,-5.337
0.166,0.062,0.364,-5.337
0.227,0.062,0.368,-5.337
0.221,0.066,0.372,-5.337
0.175,0.065,0.372,-5.337
0.205,0.064,0.371,-5.337
0.242,0.063,0.371,-5.337
0.232,0.061,0.367,-5.337
0.202,0.062,0.370,-5.337
0.182,0.062,0.370,-5.337
0.139,0.062,0.371,-5.337
0.127,0.056,0.371,-5.337
0.251,0.056,0.369,-5.337
0.290,0.059,0.370,-5.337
0.236,0.061,0.372,-5.337
0.202,0.063,0.371,-5.337
0.206,0.065,0.366,-5.337
0.242,0.065,0.365,-5.337
0.281,0.064,0.365,-5.337
0.242,0.061,0.365,-5.337
0.231,0.063,0.370,-5.337
0.164,0.069,0.372,-5.337
0.099,0.069,0.373,-5.337
0.092,0.066,0.373,-5.337
0.118,0.067,0.373,-5.337
0.142,0.072,0.371,-5.337
0.166,0.070,0.370,-5.337
0.233,0.068,0.370,-5.337
0.286,0.066,0.371,-5.337
0.253,0.068,0.370,-5.337
0.160,0.070,0.363,-5.337
0.156,0.071,0.365,-5.337
0.224,0.067,0.371,-5.337
0.314,0.064,0.372,-5.337
0.300,0.067,0.369,-5.337
0.195,0.068,0.366,-5.337
0.128,0.070,0.369,-5.337
0.144,0.068,0.370,-5.337
0.156,0.067,0.369,-5.337
0.209,0.066,0.372,-5.337
0.201,0.065,0.373,-5.337
0.172,0.067,0.368,-5.337
0.161,0.068,0.366,-5.337
0.136,0.068,0.364,-5.337
0.148,0.070,0.369,-5.337
0.179,0.071,0.373,-5.337
0.180,0.071,0.376,-5.337
0.251,0.063,0.375,-5.337
0.274,0.061,0.374,-5.337
0.248,0.060,0.367,-5.337
0.208,0.060,0.365,-5.337
0.234,0.059,0.369,-5.337
0.226,0.064,0.375,-5.337
0.182,0.066,0.373,-5.337
0.219,0.065,0.367,-5.337
0.247,0.064,0.367,-5.337
0.232,0.064,0.368,-5.337
0.308,0.060,0.369,-5.337
0.304,0.061,0.372,-5.337
0.261,0.062,0.368,-5.337
0.160,0.067,0.366,-5.337
0.110,0.068,0.365,-5.337
0.148,0.066,0.366,-5.337
0.222,0.067,0.365,-5.337
0.283,0.066,0.367,-5.337
0.293,0.064,0.370,-5.337
0.205,0.066,0.371,-5.337
0.140,0.067,0.375,-5.337
0.202,0.062,0.378,-5.337
0.267,0.061,0.377,-5.337
0.263,0.065,0.373,-5.337
0.220,0.067,0.370,-5.337
0.183,0.069,0.364,-5.337
0.245,0.073,0.363,-5.337
0.202,0.071,0.366,-5.337
0.160,0.071,0.366,-5.337
0.281,0.066,0.366,-5.337
0.310,0.070,0.371,-5.337
0.219,0.067,0.372,-5.337
0.209,0.065,0.370,-5.337
0.244,0.066,0.368,-5.337
0.171,0.072,0.368,-5.337
0.110,0.072,0.367,-5.337
0.150,0.066,0.369,-5.337
0.173,0.061,0.373,-5.337
0.255,0.062,0.376,-5.337
0.239,0.064,0.377,-5.337
0.173,0.068,0.371,-5.337
0.157,0.070,0.367,-5.337
0.163,0.071,0.362,-5.337
0.114,0.072,0.363,-5.337
0.183,0.067,0.364,-5.337
0.243,0.064,0.367,-5.337
0.205,0.065,0.367,-5.337
0.186,0.068,0.368,-5.337
0.209,0.068,0.370,-5.337
0.164,0.067,0.373,-5.337
0.157,0.064,0.372,-5.337
0.175,0.065,0.372,-5.337
0.234,0.063,0.374,-5.337
0.302,0.061,0.376,-5.337
0.268,0.059,0.370,-5.337
0.215,0.058,0.367,-5.337
0.196,0.061,0.369,-5.337
0.239,0.061,0.371,-5.337
0.261,0.060,0.371,-5.337
0.225,0.061,0.371,-5.337
0.155,0.064,0.372,-5.337
0.193,0.063,0.372,-5.337
0.246,0.062,0.373,-5.337
0.201,0.061,0.373,-5.337
0.171,0.057,0.372,-5.337
0.233,0.056,0.370,-5.337
0.234,0.058,0.369,-5.337
0.161,0.060,0.367,-5.337
0.151,0.061,0.366,-5.337
0.132,0.062,0.367,-5.337
0.098,0.061,0.373,-5.337
0.236,0.057,0.373,-5.337
0.344,0.057,0.372,-5.337
0.267,0.056,0.373,-5.337
0.222,0.057,0.372,-5.337
0.254,0.057,0.369,-5.337
0.271,0.055,0.369,-5.337
0.293,0.053,0.369,-5.337
0.257,0.053,0.371,-5.337
0.235,0.053,0.371,-5.337
0.230,0.058,0.369,-5.337
0.225,0.055,0.368,-5.337
0.232,0.055,0.371,-5.337
0.244,0.053,0.367,-5.337
0.256,0.054,0.367,-5.337
0.199,0.059,0.370,-5.337
0.197,0.054,0.371,-5.337
0.247,0.051,0.371,-5.337
0.254,0.057,0.373,-5.337
0.227,0.056,0.377,-5.337
0.210,0.053,0.377,-5.337
0.231,0.053,0.377,-5.337
0.254,0.053,0.373,-5.337
0.214,0.053,0.373,-5.337
0.126,0.052,0.374,-5.337
0.123,0.050,0.374,-5.337
0.174,0.045,0.371,-5.337
0.263,0.044,0.371,-5.337
0.297,0.047,0.372,-5.337
0.258,0.050,0.371,-5.337
0.229,0.052,0.366,-5.337
0.181,0.051,0.365,-5.337
0.190,0.048,0.368,-5.337
0.168,0.051,0.369,-5.337
0.148,0.052,0.366,-5.337
0.198,0.052,0.364,-5.337
0.225,0.052,0.363,-5.337
0.201,0.049,0.367,-5.337
0.180,0.052,0.372,-5.337
0.176,0.050,0.374,-5.337
0.235,0.050,0.376,-5.337
0.233,0.050,0.375,-5.337
0.269,0.050,0.376,-5.337
0.297,0.048,0.370,-5.337
0.319,0.047,0.368,-5.337
0.281,0.050,0.369,-5.337
0.256,0.047,0.368,-5.337
0.259,0.045,0.363,-5.337
0.193,0.048,0.366,-5.337
0.163,0.051,0.372,-5.337
0.153,0.050,0.371,-5.337
0.181,0.048,0.372,-5.337
0.178,0.050,0.375,-5.337
0.171,0.051,0.374,-5.337
0.142,0.049,0.369,-5.337
0.142,0.048,0.366,-5.337
0.158,0.049,0.367,-5.337
0.196,0.047,0.369,-5.337
0.292,0.045,0.369,-5.337
0.272,0.048,0.367,-5.337
0.167,0.048,0.365,-5.337
0.145,0.045,0.369,-5.337
0.096,0.046,0.371,-5.337
0.133,0.046,0.371,-5.337
0.198,0.045,0.370,-5.337
0.263,0.041,0.373,-5.337
0.208,0.042,0.371,-5.337
0.180,0.043,0.369,-5.337
0.229,0.043,0.367,-5.337
0.214,0.043,0.368,-5.337
0.155,0.046,0.369,-5.337
0.055,0.049,0.370,-5.337
0.118,0.043,0.373,-5.337
0.179,0.045,0.373,-5.337
0.201,0.045,0.369,-5.337
0.219,0.046,0.369,-5.337
0.240,0.046,0.371,-5.337
0.223,0.044,0.371,-5.337
0.215,0.042,0.365,-5.337
0.201,0.043,0.367,-5.337
0.242,0.043,0.371,-5.337
0.315,0.043,0.369,-5.337
0.242,0.045,0.369,-5.337
0.154,0.048,0.368,-5.337
0.120,0.047,0.367,-5.337
0.162,0.048,0.365,-5.337
0.172,0.048,0.369,-5.337
0.220,0.048,0.368,-5.337
0.289,0.047,0.368,-5.337
0.234,0.047,0.369,-5.337
0.251,0.047,0.369,-5.337
0.266,0.047,0.367,-5.337
0.242,0.047,0.365,-5.337
0.255,0.043,0.367,-5.337
0.228,0.046,0.370,-5.337
0.213,0.046,0.372,-5.337
0.216,0.046,0.372,-5.337
0.171,0.046,0.366,-5.337
0.191,0.047,0.366,-5.337
0.243,0.047,0.370,-5.337
0.293,0.040,0.373,-5.337
0.310,0.039,0.369,-5.337
0.305,0.042,0.365,-5.337
0.220,0.045,0.368,-5.337
0.139,0.043,0.370,-5.337
0.152,0.041,0.370,-5.337
0.169,0.040,0.369,-5.337
0.120,0.040,0.369,-5.337
0.052,0.042,0.369,-5.337
0.081,0.046,0.372,-5.337
0.202,0.041,0.370,-5.337
0.232,0.041,0.369,-5.337
0.195,0.041,0.368,-5.337
0.216,0.038,0.367,-5.337
0.261,0.038,0.367,-5.337
0.269,0.042,0.371,-5.337
0.234,0.044,0.372,-5.337
0.180,0.043,0.372,-5.337
0.199,0.041,0.370,-5.337
0.227,0.040,0.370,-5.337
0.180,0.040,0.370,-5.337
0.209,0.040,0.365,-5.337
0.210,0.041,0.363,-5.337
0.172,0.042,0.367,-5.337
0.133,0.043,0.371,-5.337
0.166,0.040,0.373,-5.337
0.162,0.040,0.372,-5.337
0.188,0.039,0.371,-5.337
0.232,0.041,0.368,-5.337
0.219,0.042,0.366,-5.337
0.211,0.042,0.363,-5.337
0.287,0.041,0.362,-5.337
0.291,0.044,0.368,-5.337
0.238,0.046,0.373,-5.337
0.186,0.045,0.373,-5.337
0.203,0.042,0.370,-5.337
0.251,0.041,0.368,-5.337
0.214,0.043,0.366,-5.337
0.169,0.049,0.367,-5.337
0.048,0.046,0.364,-5.337
0.135,0.039,0.367,-5.337
0.313,0.036,0.367,-5.337
0.286,0.040,0.369,-5.337
0.233,0.037,0.373,-5.337
0.178,0.039,0.373,-5.337
0.106,0.042,0.373,-5.337
0.126,0.038,0.371,-5.337
0.182,0.037,0.367,-5.337
0.229,0.034,0.363,-5.337
0.278,0.037,0.367,-5.337
0.239,0.039,0.372,-5.337
0.284,0.038,0.374,-5.337
0.268,0.041,0.371,-5.337
0.201,0.042,0.369,-5.337
0.195,0.043,0.369,-5.337
0.162,0.044,0.372,-5.337
0.123,0.042,0.371,-5.337
0.194,0.039,0.372,-5.337
0.276,0.042,0.371,-5.337
0.218,0.045,0.370,-5.337
0.190,0.045,0.364,-5.337
0.185,0.049,0.366,-5.337
0.241,0.049,0.368,-5.337
0.242,0.049,0.374,-5.337
0.306,0.043,0.375,-5.337
0.301,0.042,0.370,-5.337
0.216,0.047,0.368,-5.337
0.148,0.048,0.370,-5.337
0.156,0.048,0.370,-5.337
0.189,0.048,0.367,-5.337
0.248,0.046,0.365,-5.337
0.180,0.048,0.363,-5.337
0.142,0.047,0.366,-5.337
0.092,0.046,0.369,-5.337
0.064,0.044,0.371,-5.337
0.168,0.042,0.369,-5.337
0.236,0.043,0.367,-5.337
0.205,0.040,0.363,-5.337
0.136,0.043,0.363,-5.337
0.149,0.045,0.367,-5.337
0.197,0.047,0.373,-5.337
0.294,0.040,0.374,-5.337
0.377,0.037,0.372,-5.337
0.355,0.040,0.367,-5.337
0.360,0.041,0.366,-5.337
0.326,0.042,0.366,-5.337
0.248,0.045,0.371,-5.337
0.254,0.044,0.373,-5.337
0.257,0.043,0.372,-5.337
0.238,0.041,0.367,-5.337
0.202,0.039,0.362,-5.337
0.190,0.037,0.361,-5.337
0.180,0.041,0.365,-5.337
0.184,0.039,0.368,-5.337
0.191,0.038,0.370,-5.337
0.185,0.036,0.371,-5.337
0.157,0.039,0.372,-5.337
0.121,0.038,0.369,-5.337
0.171,0.036,0.367,-5.337
0.173,0.037,0.367,-5.337
0.236,0.036,0.369,-5.337
0.271,0.040,0.367,-5.337
0.239,0.041,0.363,-5.337
0.178,0.042,0.364,-5.337
0.134,0.041,0.362,-5.337
0.149,0.044,0.362,-5.337
0.069,0.046,0.364,-5.337
0.076,0.046,0.369,-5.337
0.220,0.043,0.370,-5.337
0.342,0.039,0.371,-5.337
0.314,0.039,0.372,-5.337
0.267,0.039,0.370,-5.337
0.252,0.040,0.367,-5.337
0.214,0.043,0.363,-5.337
0.189,0.044,0.360,-5.337
0.225,0.044,0.363,-5.337
0.167,0.043,0.371,-5.337
0.143,0.044,0.372,-5.337
0.162,0.044,0.368,-5.337
0.144,0.046,0.366,-5.337
0.229,0.045,0.368,-5.337
0.260,0.044,0.370,-5.337
0.189,0.044,0.371,-5.337
0.176,0.045,0.370,-5.337
0.217,0.042,0.373,-5.337
0.169,0.046,0.373,-5.337
0.198,0.044,0.371,-5.337
0.236,0.045,0.366,-5.337
0.237,0.045,0.364,-5.337
0.246,0.044,0.364,-5.337
0.222,0.043,0.363,-5.337
0.198,0.041,0.364,-5.337
0.226,0.041,0.366,-5.337
0.255,0.038,0.366,-5.337
0.227,0.041,0.366,-5.337
0.191,0.042,0.365,-5.337
0.186,0.042,0.366,-5.337
0.221,0.043,0.367,-5.337
0.207,0.043,0.368,-5.337
0.254,0.039,0.370,-5.337
0.273,0.038,0.371,-5.337
0.255,0.040,0.372,-5.337
0.223,0.040,0.370,-5.337
0.162,0.041,0.371,-5.337
0.166,0.041,0.368,-5.337
0.240,0.043,0.372,-5.337
0.264,0.041,0.371,-5.337
0.181,0.042,0.368,-5.337
0.114,0.040,0.367,-5.337
0.202,0.036,0.373,-5.337
0.277,0.034,0.374,-5.337
0.196,0.038,0.374,-5.337
0.133,0.040,0.372,-5.337
0.201,0.041,0.370,-5.337
0.290,0.038,0.368,-5.337
0.285,0.040,0.367,-5.337
0.304,0.037,0.364,-5.337
0.307,0.037,0.367,-5.337
0.273,0.040,0.368,-5.337
0.266,0.042,0.368,-5.337
0.262,0.043,0.371,-5.337
0.197,0.045,0.373,-5.337
0.173,0.045,0.371,-5.337
0.203,0.044,0.369,-5.337
0.197,0.043,0.371,-5.337
0.163,0.044,0.373,-5.337
0.115,0.044,0.372,-5.337
0.158,0.047,0.368,-5.337
0.239,0.046,0.366,-5.337
0.243,0.044,0.367,-5.337
0.242,0.043,0.370,-5.337
0.218,0.047,0.372,-5.337
0.187,0.048,0.374,-5.337
0.199,0.047,0.373,-5.337
0.224,0.048,0.373,-5.337
0.190,0.050,0.367,-5.337
0.145,0.051,0.363,-5.337
0.143,0.047,0.362,-5.337
0.162,0.049,0.363,-5.337
0.242,0.052,0.366,-5.337
0.239,0.050,0.371,-5.337
0.165,0.049,0.372,-5.337
0.075,0.051,0.373,-5.337
0.090,0.049,0.373,-5.337
0.124,0.048,0.371,-5.337
0.181,0.049,0.371,-5.337
0.243,0.046,0.373,-5.337
0.258,0.045,0.372,-5.337
0.267,0.044,0.370,-5.337
0.295,0.045,0.368,-5.337
0.261,0.047,0.366,-5.337
0.270,0.046,0.371,-5.337
0.243,0.044,0.373,-5.337
0.178,0.046,0.369,-5.337
0.151,0.047,0.364,-5.337
0.164,0.052,0.368,-5.337
0.161,0.053,0.371,-5.337
0.259,0.049,0.371,-5.337
0.273,0.050,0.367,-5.337
0.228,0.053,0.367,-5.337
0.273,0.049,0.368,-5.337
0.296,0.048,0.367,-5.337
0.166,0.051,0.366,-5.337
0.123,0.050,0.370,-5.337
0.136,0.052,0.373,-5.337
0.127,0.054,0.374,-5.337
0.170,0.055,0.369,-5.337
0.217,0.054,0.367,-5.337
0.185,0.051,0.368,-5.337
0.097,0.053,0.370,-5.337
0.100,0.056,0.372,-5.337
0.106,0.054,0.370,-5.337
0.145,0.051,0.367,-5.337
0.163,0.051,0.365,-5.337
0.176,0.054,0.369,-5.337
0.190,0.052,0.369,-5.337
0.228,0.050,0.367,-5.337
0.236,0.050,0.366,-5.337
0.232,0.052,0.367,-5.337
0.180,0.053,0.371,-5.337
0.113,0.051,0.374,-5.337
0.130,0.049,0.373,-5.337
0.154,0.054,0.372,-5.337
0.175,0.052,0.368,-5.337
0.213,0.051,0.365,-5.337
0.188,0.047,0.365,-5.337
0.195,0.050,0.369,-5.337
0.171,0.054,0.371,-5.337
0.091,0.058,0.370,-5.337
0.111,0.055,0.371,-5.337
0.222,0.053,0.370,-5.337
0.247,0.053,0.368,-5.337
0.240,0.053,0.368,-5.337
0.251,0.051,0.365,-5.337
0.302,0.051,0.366,-5.337
0.195,0.055,0.370,-5.337
0.216,0.055,0.372,-5.337
0.328,0.055,0.374,-5.337
0.279,0.055,0.371,-5.337
0.261,0.056,0.368,-5.337
0.303,0.058,0.364,-5.337
0.281,0.058,0.363,-5.337
0.262,0.057,0.367,-5.337
0.126,0.058,0.367,-5.337
0.070,0.056,0.364,-5.337
0.211,0.058,0.365,-5.337
0.285,0.060,0.368,-5.337
0.268,0.058,0.370,-5.337
0.237,0.057,0.371,-5.337
0.234,0.057,0.372,-5.337
0.178,0.058,0.372,-5.337
0.170,0.057,0.370,-5.337
0.267,0.054,0.367,-5.337
0.241,0.059,0.366,-5.337
0.204,0.056,0.368,-5.337
0.250,0.055,0.367,-5.337
0.229,0.057,0.370,-5.337
0.180,0.060,0.373,-5.337
0.127,0.063,0.375,-5.337
0.101,0.061,0.369,-5.337
0.116,0.065,0.367,-5.337
0.199,0.064,0.362,-5.337
0.155,0.065,0.365,-5.337
0.115,0.064,0.370,-5.337
0.209,0.062,0.367,-5.337
0.279,0.059,0.363,-5.337
0.226,0.061,0.364,-5.337
0.139,0.062,0.366,-5.337
0.132,0.062,0.367,-5.337
0.176,0.059,0.369,-5.337
0.164,0.061,0.371,-5.337
0.159,0.061,0.371,-5.337
0.146,0.060,0.370,-5.337
0.114,0.060,0.372,-5.337
0.122,0.056,0.372,-5.337
0.176,0.058,0.372,-5.337
0.158,0.060,0.371,-5.337
0.076,0.062,0.370,-5.337
0.151,0.060,0.365,-5.337
0.224,0.060,0.364,-5.337
0.221,0.062,0.365,-5.337
0.161,0.063,0.367,-5.337
0.137,0.058,0.364,-5.337
0.222,0.057,0.367,-5.337
0.245,0.057,0.369,-5.337
0.226,0.060,0.372,-5.337
0.132,0.061,0.372,-5.337
0.106,0.063,0.370,-5.337
0.182,0.063,0.368,-5.337
0.294,0.060,0.368,-5.337
0.294,0.060,0.366,-5.337
0.318,0.058,0.364,-5.337
0.329,0.057,0.366,-5.337
0.341,0.060,0.369,-5.337
0.305,0.061,0.370,-5.337
0.188,0.063,0.371,-5.337
0.210,0.059,0.370,-5.337
0.230,0.058,0.367,-5.337
0.230,0.062,0.369,-5.337
0.203,0.064,0.371,-5.337
0.163,0.064,0.371,-5.337
0.136,0.065,0.368,-5.337
0.113,0.065,0.367,-5.337
0.126,0.067,0.367,-5.337
0.124,0.067,0.368,-5.337
0.099,0.068,0.367,-5.337
0.085,0.068,0.374,-5.337
0.131,0.063,0.375,-5.337
0.201,0.059,0.368,-5.337
0.267,0.056,0.360,-5.337
0.265,0.060,0.362,-5.337
0.172,0.058,0.368,-5.337
0.154,0.058,0.374,-5.337
0.117,0.058,0.376,-5.337
0.117,0.061,0.374,-5.337
0.117,0.062,0.368,-5.337
0.132,0.062,0.365,-5.337
0.175,0.061,0.363,-5.337
0.166,0.059,0.366,-5.337
0.192,0.059,0.371,-5.337
0.182,0.057,0.372,-5.337
0.091,0.060,0.367,-5.337
0.094,0.059,0.360,-5.337
0.153,0.057,0.362,-5.337
0.167,0.058,0.369,-5.337
0.164,0.058,0.376,-5.337
0.167,0.062,0.375,-5.337
0.175,0.063,0.371,-5.337
0.185,0.062,0.369,-5.337
0.199,0.062,0.371,-5.337
0.209,0.060,0.371,-5.337
0.288,0.059,0.371,-5.337
0.329,0.059,0.368,-5.337
0.236,0.062,0.366,-5.337
0.196,0.061,0.367,-5.337
0.217,0.063,0.370,-5.337
0.220,0.064,0.369,-5.337
0.213,0.064,0.367,-5.337
0.164,0.061,0.365,-5.337
0.142,0.063,0.363,-5.337
0.175,0.064,0.364,-5.337
0.207,0.061,0.366,-5.337
0.232,0.064,0.368,-5.337
0.163,0.068,0.370,-5.337
0.098,0.067,0.370,-5.337
0.097,0.064,0.367,-5.337
0.166,0.060,0.367,-5.337
0.223,0.059,0.370,-5.337
0.185,0.060,0.371,-5.337
0.190,0.060,0.369,-5.337
0.215,0.062,0.367,-5.337
0.121,0.064,0.366,-5.337
0.149,0.061,0.369,-5.337
0.196,0.061,0.369,-5.337
0.184,0.057,0.367,-5.337
0.235,0.055,0.368,-5.337
0.262,0.059,0.370,-5.337
0.341,0.058,0.373,-5.337
0.335,0.060,0.374,-5.337
0.213,0.059,0.371,-5.337
0.123,0.063,0.368,-5.337
0.130,0.064,0.369,-5.337
0.149,0.063,0.369,-5.337
0.170,0.061,0.367,-5.337
0.181,0.062,0.368,-5.337
0.137,0.060,0.367,-5.337
0.131,0.060,0.367,-5.337
0.213,0.057,0.366,-5.337
0.211,0.059,0.365,-5.337
0.162,0.059,0.367,-5.337
0.176,0.059,0.369,-5.337
0.192,0.061,0.370,-5.337
0.185,0.059,0.371,-5.337
0.145,0.062,0.373,-5.337
0.164,0.059,0.370,-5.337
0.202,0.058,0.371,-5.337
0.199,0.057,0.369,-5.337
0.213,0.057,0.367,-5.337
0.205,0.056,0.365,-5.337
0.197,0.058,0.365,-5.337
0.205,0.056,0.364,-5.337
0.260,0.056,0.364,-5.337
0.205,0.061,0.368,-5.337
0.158,0.062,0.372,-5.337
0.182,0.058,0.371,-5.337
0.186,0.060,0.367,-5.337
0.119,0.061,0.365,-5.337
0.146,0.060,0.369,-5.337
0.182,0.055,0.372,-5.337
0.183,0.055,0.369,-5.337
0.214,0.058,0.367,-5.337
0.183,0.058,0.367,-5.337
0.134,0.058,0.367,-5.337
0.205,0.054,0.369,-5.337
0.217,0.056,0.373,-5.337
0.190,0.054,0.370,-5.337
0.162,0.058,0.367,-5.337
0.233,0.055,0.362,-5.337
0.314,0.053,0.363,-5.337
0.317,0.053,0.369,-5.337
0.311,0.055,0.370,-5.337
0.247,0.058,0.372,-5.337
0.179,0.056,0.374,-5.337
0.182,0.057,0.371,-5.337
0.153,0.061,0.368,-5.337
0.164,0.059,0.370,-5.337
0.168,0.057,0.372,-5.337
0.127,0.060,0.368,-5.337
0.159,0.058,0.364,-5.337
0.186,0.057,0.363,-5.337
0.222,0.058,0.364,-5.337
0.243,0.056,0.370,-5.337
0.221,0.052,0.374,-5.337
0.285,0.054,0.374,-5.337
0.294,0.051,0.371,-5.337
0.285,0.049,0.370,-5.337
0.246,0.055,0.368,-5.337
0.298,0.055,0.368,-5.337
0.254,0.053,0.367,-5.337
0.223,0.050,0.373,-5.337
0.218,0.053,0.373,-5.337
0.217,0.051,0.367,-5.337
0.233,0.046,0.364,-5.337
0.238,0.049,0.367,-5.337
0.188,0.057,0.372,-5.337
0.127,0.058,0.375,-5.337
0.169,0.053,0.372,-5.337
0.291,0.049,0.372,-5.337
0.294,0.052,0.372,-5.337
0.235,0.052,0.372,-5.337
0.238,0.047,0.368,-5.337
0.295,0.044,0.369,-5.337
0.348,0.045,0.371,-5.337
0.295,0.044,0.370,-5.337
0.193,0.045,0.368,-5.337
0.119,0.045,0.366,-5.337
0.154,0.046,0.368,-5.337
0.192,0.047,0.373,-5.337
0.204,0.048,0.375,-5.337
0.187,0.051,0.373,-5.337
0.174,0.050,0.372,-5.337
0.196,0.049,0.369,-5.337
0.185,0.050,0.368,-5.337
0.209,0.047,0.369,-5.337
0.205,0.049,0.369,-5.337
0.160,0.051,0.368,-5.337
0.182,0.048,0.369,-5.337
0.268,0.042,0.371,-5.337
0.306,0.041,0.374,-5.337
0.295,0.044,0.374,-5.337
0.243,0.048,0.373,-5.337
0.191,0.049,0.369,-5.337
0.173,0.049,0.366,-5.337
0.257,0.046,0.364,-5.337
0.273,0.047,0.367,-5.337
0.298,0.047,0.370,-5.337
0.302,0.049,0.370,-5.337
0.264,0.045,0.368,-5.337
0.225,0.045,0.370,-5.337
0.177,0.048,0.373,-5.337
0.227,0.046,0.375,-5.337
0.267,0.045,0.374,-5.337
0.257,0.044,0.373,-5.337
0.221,0.045,0.373,-5.337
0.249,0.045,0.371,-5.337
0.282,0.047,0.371,-5.337
0.306,0.044,0.369,-5.337
0.358,0.043,0.366,-5.337
0.366,0.040,0.365,-5.337
0.307,0.043,0.371,-5.337
0.143,0.051,0.374,-5.337
0.129,0.047,0.374,-5.337
0.218,0.044,0.371,-5.337
0.228,0.047,0.372,-5.337
0.140,0.047,0.372,-5.337
0.133,0.044,0.373,-5.337
0.292,0.040,0.370,-5.337
0.302,0.045,0.368,-5.337
0.224,0.045,0.369,-5.337
0.172,0.042,0.372,-5.337
0.201,0.044,0.372,-5.337
0.264,0.046,0.370,-5.337
0.285,0.045,0.371,-5.337
0.260,0.044,0.371,-5.337
0.216,0.045,0.373,-5.337
0.142,0.046,0.372,-5.337
0.113,0.048,0.376,-5.337
0.106,0.046,0.372,-5.337
0.152,0.043,0.367,-5.337
0.171,0.046,0.367,-5.337
0.123,0.049,0.372,-5.337
0.006,0.049,0.373,-5.337
0.004,0.047,0.371,-5.337
0.172,0.045,0.368,-5.337
0.352,0.042,0.369,-5.337
0.334,0.041,0.374,-5.337
0.270,0.040,0.372,-5.337
0.235,0.042,0.367,-5.337
0.224,0.044,0.367,-5.337
0.194,0.044,0.369,-5.337
0.251,0.045,0.368,-5.337
0.269,0.044,0.369,-5.337
0.267,0.044,0.369,-5.337
0.252,0.046,0.368,-5.337
0.238,0.046,0.366,-5.337
0.295,0.041,0.368,-5.337
0.251,0.042,0.369,-5.337
0.266,0.042,0.371,-5.337
0.267,0.041,0.373,-5.337
0.211,0.044,0.371,-5.337
0.219,0.046,0.370,-5.337
0.238,0.049,0.371,-5.337
0.200,0.044,0.370,-5.337
0.234,0.041,0.371,-5.337
0.303,0.043,0.370,-5.337
0.266,0.044,0.371,-5.337
0.167,0.041,0.372,-5.337
0.142,0.041,0.371,-5.337
0.256,0.040,0.368,-5.337
0.222,0.046,0.364,-5.337
0.111,0.045,0.365,-5.337
0.130,0.047,0.368,-5.337
0.200,0.046,0.371,-5.337
0.246,0.049,0.371,-5.337
0.197,0.051,0.372,-5.337
0.124,0.046,0.371,-5.337
0.135,0.046,0.370,-5.337
0.181,0.045,0.369,-5.337
0.196,0.043,0.371,-5.337
0.220,0.045,0.370,-5.337
0.180,0.043,0.370,-5.337
0.157,0.044,0.367,-5.337
0.172,0.043,0.365,-5.337
0.221,0.039,0.369,-5.337
0.246,0.040,0.372,-5.337
0.239,0.041,0.372,-5.337
0.176,0.045,0.371,-5.337
0.117,0.042,0.369,-5.337
0.192,0.039,0.368,-5.337
0.217,0.042,0.369,-5.337
0.238,0.042,0.371,-5.337
0.269,0.043,0.371,-5.337
0.241,0.039,0.370,-5.337
0.181,0.039,0.368,-5.337
0.166,0.042,0.365,-5.337
0.202,0.040,0.365,-5.337
0.298,0.040,0.366,-5.337
0.255,0.041,0.370,-5.337
0.169,0.039,0.370,-5.337
0.142,0.039,0.369,-5.337
0.214,0.040,0.370,-5.337
0.227,0.039,0.373,-5.337
0.186,0.041,0.370,-5.337
0.104,0.042,0.373,-5.337
0.202,0.037,0.371,-5.337
0.258,0.038,0.370,-5.337
0.209,0.037,0.367,-5.337
0.161,0.040,0.365,-5.337
0.199,0.039,0.366,-5.337
0.270,0.040,0.369,-5.337
0.264,0.038,0.373,-5.337
0.261,0.038,0.369,-5.337
0.255,0.040,0.368,-5.337
0.212,0.041,0.371,-5.337
0.222,0.038,0.373,-5.337
0.240,0.036,0.372,-5.337
0.208,0.034,0.374,-5.337
0.189,0.037,0.378,-5.337
0.067,0.042,0.376,-5.337
0.024,0.040,0.369,-5.337
0.039,0.041,0.367,-5.337
0.067,0.041,0.367,-5.337
0.134,0.041,0.370,-5.337
0.190,0.036,0.370,-5.337
0.181,0.036,0.370,-5.337
0.154,0.038,0.370,-5.337
0.119,0.039,0.371,-5.337
0.188,0.039,0.368,-5.337
0.257,0.039,0.366,-5.337
0.286,0.038,0.368,-5.337
0.293,0.039,0.370,-5.337
0.283,0.041,0.369,-5.337
0.240,0.042,0.367,-5.337
0.220,0.040,0.368,-5.337
0.279,0.040,0.369,-5.337
0.327,0.037,0.370,-5.337
0.303,0.039,0.373,-5.337
0.292,0.037,0.373,-5.337
0.289,0.038,0.370,-5.337
0.237,0.038,0.368,-5.337
0.197,0.036,0.373,-5.337
0.206,0.037,0.377,-5.337
0.214,0.036,0.373,-5.337
0.174,0.039,0.367,-5.337
0.145,0.038,0.367,-5.337
0.198,0.039,0.368,-5.337
0.190,0.040,0.369,-5.337
0.181,0.040,0.369,-5.337
0.229,0.040,0.367,-5.337
0.195,0.042,0.368,-5.337
0.137,0.042,0.371,-5.337
0.125,0.043,0.375,-5.337
0.208,0.040,0.373,-5.337
0.273,0.045,0.366,-5.337
0.211,0.045,0.365,-5.337
0.158,0.046,0.369,-5.337
0.113,0.047,0.372,-5.337
0.117,0.047,0.372,-5.337
0.162,0.047,0.368,-5.337
0.233,0.046,0.365,-5.337
0.202,0.044,0.366,-5.337
0.193,0.045,0.370,-5.337
0.172,0.046,0.370,-5.337
0.207,0.043,0.370,-5.337
0.292,0.038,0.370,-5.337
0.240,0.041,0.371,-5.337
0.241,0.044,0.369,-5.337
0.267,0.044,0.371,-5.337
0.322,0.038,0.372,-5.337
0.282,0.037,0.372,-5.337
0.224,0.040,0.371,-5.337
0.143,0.044,0.368,-5.337
0.136,0.043,0.371,-5.337
0.163,0.044,0.373,-5.337
0.119,0.048,0.372,-5.337
0.105,0.043,0.371,-5.337
0.139,0.039,0.368,-5.337
0.234,0.036,0.362,-5.337
0.211,0.036,0.360,-5.337
0.123,0.038,0.364,-5.337
0.116,0.039,0.368,-5.337
0.179,0.039,0.369,-5.337
0.228,0.039,0.366,-5.337
0.226,0.039,0.367,-5.337
0.219,0.040,0.371,-5.337
0.182,0.043,0.373,-5.337
0.195,0.042,0.371,-5.337
0.205,0.038,0.373,-5.337
0.199,0.035,0.372,-5.337
0.229,0.034,0.369,-5.337
0.270,0.037,0.370,-5.337
0.248,0.043,0.371,-5.337
0.162,0.040,0.368,-5.337
0.199,0.037,0.367,-5.337
0.238,0.040,0.369,-5.337
0.285,0.045,0.370,-5.337
0.295,0.044,0.367,-5.337
0.275,0.043,0.371,-5.337
0.311,0.039,0.373,-5.337
0.301,0.040,0.374,-5.337
0.298,0.040,0.372,-5.337
0.267,0.040,0.368,-5.337
0.210,0.040,0.364,-5.337
0.178,0.041,0.366,-5.337
0.201,0.043,0.367,-5.337
0.219,0.044,0.369,-5.337
0.259,0.045,0.371,-5.337
0.266,0.045,0.368,-5.337
0.275,0.045,0.367,-5.337
0.249,0.046,0.368,-5.337
0.251,0.047,0.367,-5.337
0.259,0.044,0.368,-5.337
0.240,0.046,0.368,-5.337
0.193,0.047,0.368,-5.337
0.206,0.048,0.373,-5.337
0.225,0.049,0.375,-5.337
0.213,0.051,0.375,-5.337
0.213,0.048,0.370,-5.337
0.236,0.045,0.368,-5.337
0.276,0.046,0.367,-5.337
0.270,0.048,0.367,-5.337
0.280,0.051,0.367,-5.337
0.231,0.050,0.371,-5.337
0.180,0.048,0.376,-5.337
0.222,0.050,0.377,-5.337
0.265,0.051,0.377,-5.337
0.182,0.052,0.373,-5.337
0.113,0.048,0.368,-5.337
0.062,0.052,0.362,-5.337
0.118,0.051,0.360,-5.337
0.206,0.048,0.365,-5.337
0.292,0.046,0.367,-5.337
0.293,0.047,0.366,-5.337
0.226,0.053,0.371,-5.337
0.130,0.053,0.374,-5.337
0.138,0.051,0.379,-5.337
0.224,0.047,0.374,-5.337
0.215,0.050,0.370,-5.337
0.107,0.056,0.369,-5.337
0.133,0.055,0.373,-5.337
0.105,0.055,0.371,-5.337
0.052,0.058,0.369,-5.337
0.185,0.052,0.370,-5.337
0.283,0.047,0.372,-5.337
0.228,0.043,0.370,-5.337
0.230,0.047,0.371,-5.337
0.271,0.045,0.373,-5.337
0.253,0.048,0.374,-5.337
0.183,0.052,0.372,-5.337
0.170,0.048,0.370,-5.337
0.206,0.049,0.368,-5.337
0.150,0.054,0.368,-5.337
0.071,0.059,0.369,-5.337
0.087,0.053,0.372,-5.337
0.171,0.049,0.374,-5.337
0.193,0.050,0.371,-5.337
0.176,0.052,0.370,-5.337
0.128,0.052,0.373,-5.337
0.124,0.053,0.377,-5.337
0.193,0.053,0.374,-5.337
0.204,0.054,0.374,-5.337
0.161,0.054,0.371,-5.337
0.219,0.054,0.372,-5.337
0.295,0.055,0.373,-5.337
0.305,0.060,0.375,-5.337
0.292,0.059,0.371,-5.337
0.322,0.060,0.369,-5.337
0.302,0.057,0.371,-5.337
0.213,0.060,0.370,-5.337
0.160,0.058,0.371,-5.337
0.184,0.060,0.371,-5.337
0.233,0.057,0.372,-5.337
0.258,0.056,0.376,-5.337
0.195,0.057,0.372,-5.337
0.169,0.056,0.368,-5.337
0.120,0.056,0.369,-5.337
0.109,0.057,0.374,-5.337
0.172,0.054,0.374,-5.337
0.236,0.054,0.370,-5.337
0.179,0.053,0.369,-5.337
0.136,0.053,0.372,-5.337
0.128,0.054,0.372,-5.337
0.137,0.055,0.369,-5.337
0.159,0.054,0.371,-5.337
0.194,0.054,0.369,-5.337
0.162,0.059,0.367,-5.337
0.076,0.059,0.368,-5.337
0.088,0.059,0.369,-5.337
0.200,0.055,0.367,-5.337
0.236,0.056,0.367,-5.337
0.263,0.059,0.370,-5.337
0.272,0.059,0.375,-5.337
0.256,0.057,0.375,-5.337
0.300,0.054,0.370,-5.337
0.287,0.053,0.366,-5.337
0.235,0.059,0.366,-5.337
0.225,0.060,0.370,-5.337
0.213,0.061,0.372,-5.337
0.205,0.058,0.374,-5.337
0.273,0.054,0.373,-5.337
0.310,0.052,0.370,-5.337
0.255,0.054,0.366,-5.337
0.208,0.055,0.367,-5.337
0.201,0.056,0.366,-5.337
0.232,0.059,0.369,-5.337
0.264,0.059,0.371,-5.337
0.247,0.059,0.374,-5.337
0.187,0.062,0.373,-5.337
0.170,0.064,0.371,-5.337
0.230,0.064,0.369,-5.337
0.269,0.063,0.367,-5.337
0.177,0.061,0.368,-5.337
0.142,0.059,0.369,-5.337
0.203,0.059,0.371,-5.337
0.173,0.062,0.372,-5.337
0.115,0.060,0.371,-5.337
0.117,0.058,0.371,-5.337
0.127,0.060,0.374,-5.337
0.184,0.059,0.374,-5.337
0.276,0.060,0.372,-5.337
0.262,0.064,0.373,-5.337
0.274,0.062,0.373,-5.337
0.257,0.058,0.369,-5.337
0.212,0.060,0.370,-5.337
0.183,0.061,0.373,-5.337
0.156,0.065,0.376,-5.337
0.185,0.064,0.375,-5.337
0.149,0.063,0.374,-5.337
0.136,0.060,0.372,-5.337
0.197,0.057,0.369,-5.337
0.205,0.059,0.365,-5.337
0.186,0.058,0.365,-5.337
0.202,0.056,0.365,-5.337
0.201,0.063,0.368,-5.337
0.169,0.063,0.371,-5.337
0.180,0.063,0.377,-5.337
0.251,0.058,0.372,-5.337
0.207,0.061,0.368,-5.337
0.123,0.064,0.368,-5.337
0.115,0.065,0.370,-5.337
0.181,0.063,0.369,-5.337
0.201,0.060,0.370,-5.337
0.229,0.057,0.371,-5.337
0.224,0.060,0.371,-5.337
0.204,0.060,0.371,-5.337
0.280,0.057,0.372,-5.337
0.257,0.055,0.373,-5.337
0.215,0.057,0.370,-5.337
0.163,0.059,0.370,-5.337
0.166,0.060,0.370,-5.337
0.227,0.058,0.370,-5.337
0.225,0.060,0.370,-5.337
0.188,0.064,0.370,-5.337
0.192,0.059,0.367,-5.337
0.238,0.054,0.365,-5.337
0.260,0.056,0.363,-5.337
0.144,0.060,0.369,-5.337
0.111,0.060,0.373,-5.337
0.193,0.057,0.373,-5.337
0.222,0.058,0.368,-5.337
0.268,0.058,0.367,-5.337
0.198,0.059,0.369,-5.337
0.206,0.058,0.371,-5.337
0.184,0.060,0.368,-5.337
0.181,0.061,0.365,-5.337
0.206,0.058,0.365,-5.337
0.234,0.057,0.365,-5.337
0.228,0.055,0.367,-5.337
0.206,0.059,0.370,-5.337
0.206,0.059,0.376,-5.337
0.176,0.060,0.377,-5.337
0.206,0.060,0.375,-5.337
0.301,0.055,0.371,-5.337
0.348,0.059,0.371,-5.337
0.307,0.061,0.371,-5.337
0.222,0.061,0.368,-5.337
0.141,0.060,0.365,-5.337
0.149,0.058,0.367,-5.337
0.194,0.060,0.367,-5.337
0.219,0.060,0.370,-5.337
0.250,0.056,0.369,-5.337
0.242,0.060,0.367,-5.337
0.273,0.059,0.368,-5.337
0.247,0.061,0.368,-5.337
0.189,0.062,0.369,-5.337
0.108,0.065,0.368,-5.337
0.095,0.063,0.367,-5.337
0.131,0.068,0.372,-5.337
0.168,0.065,0.374,-5.337
0.202,0.062,0.370,-5.337
0.200,0.064,0.364,-5.337
0.228,0.063,0.363,-5.337
0.299,0.061,0.367,-5.337
0.264,0.062,0.370,-5.337
0.137,0.070,0.370,-5.337
0.131,0.071,0.368,-5.337
0.168,0.067,0.367,-5.337
0.156,0.065,0.371,-5.337
0.123,0.063,0.373,-5.337
0.166,0.065,0.371,-5.337
0.172,0.068,0.367,-5.337
0.097,0.067,0.364,-5.337
0.126,0.069,0.368,-5.337
0.211,0.066,0.373,-5.337
0.258,0.068,0.373,-5.337
0.255,0.067,0.369,-5.337
0.104,0.070,0.368,-5.337
0.115,0.065,0.369,-5.337
0.246,0.064,0.371,-5.337
0.236,0.066,0.371,-5.337
0.180,0.066,0.371,-5.337
0.176,0.065,0.371,-5.337
0.297,0.064,0.367,-5.337
0.356,0.063,0.369,-5.337
0.271,0.064,0.372,-5.337
0.143,0.064,0.373,-5.337
0.144,0.065,0.367,-5.337
0.227,0.067,0.366,-5.337
0.172,0.068,0.367,-5.337
0.102,0.068,0.367,-5.337
0.111,0.068,0.366,-5.337
0.251,0.066,0.367,-5.337
0.284,0.065,0.367,-5.337
0.170,0.066,0.369,-5.337
0.158,0.063,0.370,-5.337
0.221,0.067,0.371,-5.337
0.216,0.065,0.371,-5.337
0.209,0.061,0.373,-5.337
0.182,0.061,0.372,-5.337
0.193,0.064,0.372,-5.337
0.207,0.063,0.373,-5.337
0.159,0.063,0.372,-5.337
0.078,0.065,0.371,-5.337
0.074,0.064,0.369,-5.337
0.199,0.062,0.369,-5.337
0.187,0.061,0.365,-5.337
0.154,0.059,0.361,-5.337
0.226,0.057,0.363,-5.337
0.200,0.060,0.371,-5.337
0.132,0.061,0.373,-5.337
0.177,0.057,0.372,-5.337
0.179,0.057,0.368,-5.337
0.212,0.058,0.366,-5.337
0.302,0.056,0.368,-5.337
0.291,0.062,0.372,-5.337
0.243,0.056,0.371,-5.337
0.188,0.058,0.367,-5.337
0.281,0.061,0.366,-5.337
0.299,0.063,0.368,-5.337
0.201,0.062,0.368,-5.337
0.154,0.062,0.367,-5.337
0.223,0.061,0.367,-5.337
0.265,0.060,0.370,-5.337
0.226,0.059,0.370,-5.337
0.137,0.062,0.371,-5.337
0.194,0.060,0.372,-5.337
0.284,0.060,0.368,-5.337
0.252,0.062,0.365,-5.337
0.170,0.062,0.368,-5.337
0.160,0.060,0.372,-5.337
0.160,0.059,0.369,-5.337
0.168,0.056,0.369,-5.337
0.162,0.056,0.368,-5.337
0.147,0.057,0.369,-5.337
0.143,0.054,0.365,-5.337
0.229,0.050,0.367,-5.337
0.232,0.052,0.365,-5.337
0.221,0.056,0.363,-5.337
0.212,0.057,0.365,-5.337
0.171,0.057,0.366,-5.337
0.156,0.055,0.367,-5.337
0.213,0.055,0.369,-5.337
0.206,0.057,0.366,-5.337
0.192,0.054,0.364,-5.337
0.175,0.053,0.367,-5.337
0.128,0.053,0.371,-5.337
0.132,0.055,0.373,-5.337
0.210,0.055,0.375,-5.337
0.255,0.053,0.377,-5.337
0.294,0.048,0.374,-5.337
0.360,0.050,0.372,-5.337
0.272,0.053,0.368,-5.337
0.213,0.054,0.370,-5.337
0.236,0.056,0.371,-5.337
0.227,0.057,0.371,-5.337
0.186,0.056,0.367,-5.337
0.121,0.058,0.368,-5.337
0.107,0.056,0.368,-5.337
0.174,0.057,0.370,-5.337
0.168,0.057,0.371,-5.337
0.213,0.056,0.370,-5.337
0.268,0.054,0.369,-5.337
0.245,0.055,0.367,-5.337
0.260,0.055,0.363,-5.337
0.290,0.050,0.363,-5.337
0.224,0.049,0.368,-5.337
0.128,0.053,0.373,-5.337
0.151,0.054,0.374,-5.337
0.177,0.056,0.375,-5.337
0.197,0.054,0.374,-5.337
0.235,0.049,0.368,-5.337
0.194,0.049,0.362,-5.337
0.225,0.047,0.363,-5.337
0.246,0.048,0.367,-5.337
0.179,0.051,0.370,-5.337
0.143,0.052,0.376,-5.337
0.255,0.046,0.374,-5.337
0.275,0.048,0.373,-5.337
0.230,0.049,0.372,-5.337
0.222,0.047,0.372,-5.337
0.209,0.047,0.368,-5.337
0.228,0.049,0.365,-5.337
0.191,0.048,0.366,-5.337
0.149,0.049,0.372,-5.337
0.117,0.048,0.373,-5.337
0.232,0.049,0.370,-5.337
0.304,0.048,0.366,-5.337
0.255,0.052,0.367,-5.337
0.229,0.054,0.366,-5.337
0.250,0.052,0.366,-5.337
0.270,0.049,0.367,-5.337
0.254,0.048,0.373,-5.337
0.174,0.049,0.376,-5.337
0.126,0.051,0.376,-5.337
0.129,0.053,0.371,-5.337
0.141,0.054,0.367,-5.337
0.150,0.052,0.369,-5.337
0.192,0.051,0.374,-5.337
0.237,0.050,0.375,-5.337
0.307,0.049,0.371,-5.337
0.311,0.048,0.367,-5.337
0.297,0.048,0.365,-5.337
0.256,0.048,0.369,-5.337
0.256,0.043,0.370,-5.337
0.239,0.048,0.366,-5.337
0.194,0.049,0.364,-5.337
0.254,0.047,0.363,-5.337
0.270,0.049,0.364,-5.337
0.208,0.050,0.371,-5.337
0.127,0.047,0.374,-5.337
0.140,0.047,0.373,-5.337
0.131,0.049,0.372,-5.337
0.095,0.050,0.371,-5.337
0.116,0.049,0.368,-5.337
0.147,0.048,0.368,-5.337
0.247,0.043,0.369,-5.337
0.354,0.045,0.372,-5.337
0.362,0.048,0.371,-5.337
0.314,0.052,0.371,-5.337
0.275,0.051,0.371,-5.337
0.214,0.047,0.368,-5.337
0.234,0.047,0.366,-5.337
0.307,0.049,0.369,-5.337
0.279,0.055,0.375,-5.337
0.207,0.052,0.375,-5.337
0.174,0.049,0.373,-5.337
0.141,0.048,0.373,-5.337
0.138,0.049,0.372,-5.337
0.207,0.046,0.370,-5.337
0.201,0.046,0.364,-5.337
0.146,0.048,0.360,-5.337
0.151,0.051,0.363,-5.337
0.149,0.050,0.368,-5.337
0.152,0.048,0.373,-5.337
0.182,0.045,0.372,-5.337
0.227,0.047,0.370,-5.337
0.257,0.045,0.369,-5.337
0.239,0.044,0.370,-5.337
0.208,0.047,0.372,-5.337
0.179,0.053,0.374,-5.337
0.180,0.053,0.374,-5.337
0.192,0.050,0.371,-5.337
0.186,0.047,0.369,-5.337
0.165,0.049,0.367,-5.337
0.164,0.052,0.367,-5.337
0.180,0.051,0.368,-5.337
0.196,0.051,0.372,-5.337
0.207,0.050,0.371,-5.337
0.222,0.051,0.363,-5.337
0.189,0.052,0.359,-5.337
0.188,0.053,0.366,-5.337
0.239,0.049,0.376,-5.337
0.198,0.049,0.375,-5.337
0.163,0.048,0.370,-5.337
0.209,0.049,0.369,-5.337
0.242,0.048,0.369,-5.337
0.227,0.047,0.369,-5.337
0.251,0.046,0.372,-5.337
0.238,0.051,0.373,-5.337
0.221,0.050,0.373,-5.337
0.250,0.047,0.371,-5.337
0.213,0.049,0.369,-5.337
0.181,0.049,0.367,-5.337
0.190,0.051,0.370,-5.337
0.233,0.051,0.373,-5.337
0.200,0.048,0.374,-5.337
0.189,0.046,0.366,-5.337
0.121,0.047,0.364,-5.337
0.113,0.052,0.367,-5.337
0.174,0.050,0.370,-5.337
0.181,0.047,0.369,-5.337
0.204,0.045,0.367,-5.337
0.222,0.048,0.367,-5.337
0.174,0.047,0.372,-5.337
0.183,0.047,0.377,-5.337
0.197,0.049,0.377,-5.337
0.209,0.046,0.375,-5.337
0.205,0.049,0.371,-5.337
0.225,0.046,0.364,-5.337
0.274,0.046,0.361,-5.337
0.209,0.049,0.367,-5.337
0.210,0.049,0.371,-5.337
0.259,0.047,0.369,-5.337
0.270,0.050,0.368,-5.337
0.232,0.053,0.369,-5.337
0.183,0.052,0.368,-5.337
0.210,0.051,0.370,-5.337
0.261,0.048,0.366,-5.337
0.260,0.048,0.365,-5.337
0.180,0.051,0.371,-5.337
0.147,0.055,0.377,-5.337
0.106,0.055,0.373,-5.337
0.112,0.051,0.367,-5.337
0.165,0.046,0.363,-5.337
0.224,0.047,0.366,-5.337
0.198,0.047,0.370,-5.337
0.172,0.047,0.369,-5.337
0.236,0.044,0.364,-5.337
0.245,0.046,0.365,-5.337
0.181,0.047,0.367,-5.337
0.221,0.048,0.367,-5.337
0.262,0.048,0.364,-5.337
0.209,0.050,0.363,-5.337
0.185,0.048,0.363,-5.337
0.254,0.048,0.371,-5.337
0.303,0.051,0.375,-5.337
0.267,0.053,0.372,-5.337
0.262,0.052,0.367,-5.337
0.261,0.050,0.368,-5.337
0.254,0.048,0.371,-5.337
0.194,0.048,0.374,-5.337
0.197,0.047,0.373,-5.337
0.206,0.046,0.366,-5.337
0.188,0.048,0.363,-5.337
0.210,0.045,0.363,-5.337
0.217,0.048,0.363,-5.337
0.176,0.049,0.362,-5.337
0.214,0.049,0.365,-5.337
0.164,0.049,0.369,-5.337
0.220,0.048,0.371,-5.337
0.265,0.047,0.369,-5.337
0.210,0.047,0.371,-5.337
0.182,0.048,0.373,-5.337
0.160,0.050,0.371,-5.337
0.133,0.051,0.369,-5.337
0.190,0.051,0.369,-5.337
0.198,0.047,0.370,-5.337
0.234,0.046,0.369,-5.337
0.233,0.047,0.366,-5.337
0.211,0.051,0.366,-5.337
0.211,0.054,0.364,-5.337
0.149,0.052,0.365,-5.337
0.235,0.048,0.367,-5.337
0.299,0.052,0.364,-5.337
0.275,0.054,0.367,-5.337
0.277,0.051,0.369,-5.337
0.248,0.054,0.370,-5.337
0.155,0.054,0.369,-5.337
0.118,0.053,0.369,-5.337
0.129,0.054,0.370,-5.337
0.247,0.049,0.369,-5.337
0.286,0.051,0.365,-5.337
0.208,0.052,0.366,-5.337
0.191,0.048,0.367,-5.337
0.237,0.045,0.368,-5.337
0.159,0.045,0.368,-5.337
0.137,0.048,0.370,-5.337
0.200,0.047,0.370,-5.337
0.248,0.048,0.369,-5.337
0.215,0.047,0.369,-5.337
0.140,0.049,0.369,-5.337
0.197,0.049,0.369,-5.337
0.252,0.051,0.367,-5.337
0.131,0.052,0.365,-5.337
0.100,0.054,0.364,-5.337
0.116,0.053,0.368,-5.337
0.152,0.051,0.369,-5.337
0.235,0.048,0.371,-5.337
0.233,0.050,0.371,-5.337
0.196,0.050,0.369,-5.337
0.153,0.049,0.365,-5.337
0.212,0.048,0.367,-5.337
0.314,0.049,0.369,-5.337
0.351,0.052,0.369,-5.337
0.285,0.051,0.367,-5.337
0.198,0.051,0.368,-5.337
0.093,0.050,0.371,-5.337
0.060,0.059,0.374,-5.337
0.146,0.058,0.372,-5.337
0.146,0.058,0.368,-5.337
0.125,0.054,0.361,-5.337
0.150,0.051,0.364,-5.337
0.196,0.052,0.367,-5.337
0.242,0.052,0.366,-5.337
0.274,0.053,0.366,-5.337
0.291,0.055,0.367,-5.337
0.273,0.054,0.369,-5.337
0.273,0.052,0.371,-5.337
0.261,0.055,0.373,-5.337
0.177,0.056,0.370,-5.337
0.149,0.057,0.365,-5.337
0.168,0.057,0.366,-5.337
0.218,0.055,0.369,-5.337
0.170,0.056,0.368,-5.337
0.182,0.055,0.368,-5.337
0.220,0.054,0.368,-5.337
0.182,0.057,0.368,-5.337
0.147,0.054,0.366,-5.337
0.167,0.053,0.364,-5.337
0.276,0.051,0.362,-5.337
0.306,0.051,0.367,-5.337
0.307,0.051,0.369,-5.337
0.282,0.050,0.368,-5.337
0.217,0.054,0.368,-5.337
0.127,0.058,0.367,-5.337
0.177,0.056,0.368,-5.337
0.248,0.053,0.368,-5.337
0.171,0.053,0.369,-5.337
0.055,0.055,0.372,-5.337
0.113,0.055,0.372,-5.337
0.162,0.057,0.367,-5.337
0.173,0.054,0.364,-5.337
0.210,0.054,0.362,-5.337
0.230,0.057,0.364,-5.337
0.230,0.057,0.368,-5.337
0.142,0.059,0.371,-5.337
0.132,0.056,0.369,-5.337
0.232,0.057,0.368,-5.337
0.255,0.059,0.367,-5.337
0.214,0.060,0.368,-5.337
0.192,0.055,0.368,-5.337
0.099,0.058,0.370,-5.337
0.118,0.056,0.369,-5.337
0.187,0.056,0.363,-5.337
0.172,0.055,0.362,-5.337
0.172,0.059,0.365,-5.337
0.243,0.062,0.366,-5.337
0.260,0.060,0.370,-5.337
0.221,0.056,0.375,-5.337
0.212,0.058,0.378,-5.337
0.256,0.057,0.373,-5.337
0.273,0.057,0.366,-5.337
0.258,0.056,0.362,-5.337
0.226,0.056,0.360,-5.337
0.208,0.058,0.364,-5.337
0.199,0.061,0.368,-5.337
0.246,0.060,0.372,-5.337
0.143,0.063,0.373,-5.337
0.082,0.062,0.373,-5.337
0.200,0.064,0.372,-5.337
0.255,0.062,0.370,-5.337
0.219,0.058,0.370,-5.337
0.182,0.061,0.369,-5.337
0.197,0.061,0.368,-5.337
0.224,0.064,0.367,-5.337
0.171,0.063,0.369,-5.337
0.114,0.065,0.370,-5.337
0.133,0.066,0.367,-5.337
0.187,0.069,0.366,-5.337
0.284,0.064,0.371,-5.337
0.267,0.062,0.373,-5.337
0.177,0.062,0.368,-5.337
0.131,0.065,0.366,-5.337
0.128,0.065,0.368,-5.337
0.158,0.065,0.365,-5.337
0.189,0.060,0.362,-5.337
0.166,0.061,0.363,-5.337
0.184,0.056,0.368,-5.337
0.222,0.057,0.369,-5.337
0.251,0.057,0.371,-5.337
0.319,0.054,0.369,-5.337
0.258,0.058,0.370,-5.337
0.139,0.062,0.367,-5.337
0.040,0.063,0.367,-5.337
0.139,0.062,0.367,-5.337
0.219,0.062,0.370,-5.337
0.167,0.064,0.374,-5.337
0.155,0.062,0.375,-5.337
0.227,0.057,0.373,-5.337
0.218,0.058,0.370,-5.337
0.253,0.056,0.368,-5.337
0.201,0.058,0.369,-5.337
0.100,0.059,0.368,-5.337
0.159,0.057,0.367,-5.337
0.242,0.060,0.368,-5.337
0.208,0.061,0.370,-5.337
0.160,0.057,0.370,-5.337
0.175,0.051,0.369,-5.337
0.250,0.054,0.370,-5.337
0.223,0.061,0.371,-5.337
0.197,0.060,0.371,-5.337
0.187,0.060,0.366,-5.337
0.190,0.061,0.363,-5.337
0.205,0.060,0.366,-5.337
0.144,0.063,0.371,-5.337
0.191,0.062,0.371,-5.337
0.244,0.058,0.370,-5.337
0.208,0.056,0.368,-5.337
0.177,0.060,0.369,-5.337
0.217,0.064,0.368,-5.337
0.164,0.067,0.366,-5.337
0.185,0.064,0.367,-5.337
0.239,0.062,0.368,-5.337
0.243,0.060,0.371,-5.337
0.253,0.063,0.371,-5.337
0.238,0.066,0.368,-5.337
0.242,0.066,0.366,-5.337
0.208,0.066,0.369,-5.337
0.185,0.067,0.369,-5.337
0.199,0.069,0.365,-5.337
0.134,0.067,0.362,-5.337
0.116,0.065,0.365,-5.337
0.083,0.068,0.370,-5.337
0.120,0.066,0.375,-5.337
0.175,0.065,0.372,-5.337
0.194,0.066,0.367,-5.337
0.136,0.062,0.363,-5.337
0.224,0.061,0.362,-5.337
0.250,0.061,0.364,-5.337
0.225,0.061,0.365,-5.337
0.242,0.062,0.367,-5.337
0.207,0.063,0.369,-5.337
0.224,0.066,0.374,-5.337
0.296,0.064,0.375,-5.337
0.218,0.061,0.370,-5.337
0.128,0.065,0.368,-5.337
0.180,0.064,0.370,-5.337
0.291,0.066,0.370,-5.337
0.246,0.069,0.367,-5.337
0.135,0.071,0.368,-5.337
0.161,0.067,0.372,-5.337
0.213,0.067,0.369,-5.337
0.170,0.067,0.365,-5.337
0.155,0.067,0.367,-5.337
0.159,0.070,0.370,-5.337
0.130,0.072,0.367,-5.337
0.092,0.073,0.369,-5.337
0.072,0.072,0.372,-5.337
0.134,0.072,0.373,-5.337
0.161,0.069,0.369,-5.337
0.217,0.068,0.367,-5.337
0.277,0.065,0.366,-5.337
0.213,0.067,0.369,-5.337
0.142,0.065,0.375,-5.337
0.160,0.068,0.376,-5.337
0.106,0.071,0.370,-5.337
0.074,0.065,0.367,-5.337
0.176,0.066,0.367,-5.337
0.269,0.066,0.369,-5.337
0.259,0.071,0.369,-5.337
0.185,0.069,0.366,-5.337
0.159,0.066,0.363,-5.337
0.164,0.068,0.367,-5.337
0.217,0.067,0.372,-5.337
0.278,0.064,0.372,-5.337
0.265,0.066,0.369,-5.337
0.187,0.067,0.369,-5.337
0.205,0.067,0.369,-5.337
0.305,0.064,0.368,-5.337
0.268,0.063,0.367,-5.337
0.212,0.063,0.367,-5.337
0.257,0.067,0.370,-5.337
0.246,0.068,0.372,-5.337
0.183,0.067,0.373,-5.337
0.225,0.063,0.370,-5.337
0.220,0.065,0.369,-5.337
0.220,0.065,0.365,-5.337
0.161,0.067,0.364,-5.337
0.145,0.064,0.365,-5.337
0.179,0.061,0.367,-5.337
0.184,0.060,0.373,-5.337
0.163,0.057,0.373,-5.337
0.211,0.056,0.369,-5.337
0.310,0.057,0.367,-5.337
0.329,0.059,0.368,-5.337
0.236,0.059,0.367,-5.337
0.249,0.061,0.369,-5.337
0.232,0.059,0.370,-5.337
0.156,0.062,0.368,-5.337
0.173,0.067,0.363,-5.337
0.230,0.068,0.364,-5.337
0.222,0.067,0.364,-5.337
0.229,0.064,0.366,-5.337
0.222,0.063,0.366,-5.337
0.209,0.063,0.368,-5.337
0.227,0.064,0.370,-5.337
0.218,0.064,0.371,-5.337
0.208,0.063,0.372,-5.337
0.268,0.059,0.373,-5.337
0.337,0.057,0.374,-5.337
0.259,0.063,0.375,-5.337
0.177,0.068,0.372,-5.337
0.177,0.069,0.367,-5.337
0.175,0.064,0.365,-5.337
0.148,0.062,0.364,-5.337
0.176,0.062,0.364,-5.337
0.244,0.064,0.367,-5.337
0.249,0.064,0.370,-5.337
0.232,0.062,0.371,-5.337
0.148,0.064,0.374,-5.337
0.141,0.061,0.370,-5.337
0.191,0.061,0.366,-5.337
0.156,0.062,0.362,-5.337
0.160,0.063,0.365,-5.337
0.186,0.062,0.365,-5.337
0.195,0.065,0.365,-5.337
0.213,0.064,0.365,-5.337
0.187,0.065,0.366,-5.337
0.175,0.065,0.367,-5.337
0.130,0.066,0.366,-5.337
0.123,0.068,0.366,-5.337
0.151,0.071,0.368,-5.337
0.143,0.069,0.368,-5.337
0.181,0.067,0.367,-5.337
0.194,0.064,0.366,-5.337
0.192,0.060,0.368,-5.337
0.271,0.057,0.367,-5.337
0.260,0.064,0.372,-5.337
0.187,0.068,0.373,-5.337
0.259,0.063,0.373,-5.337
0.273,0.061,0.373,-5.337
0.208,0.064,0.370,-5.337
0.224,0.067,0.364,-5.337
0.173,0.067,0.361,-5.337
0.090,0.067,0.364,-5.337
0.154,0.062,0.366,-5.337
0.253,0.060,0.369,-5.337
0.228,0.066,0.370,-5.337
0.154,0.065,0.373,-5.337
0.083,0.065,0.369,-5.337
0.103,0.066,0.370,-5.337
0.211,0.066,0.373,-5.337
0.237,0.063,0.370,-5.337
0.242,0.059,0.367,-5.337
0.270,0.060,0.369,-5.337
0.250,0.057,0.371,-5.337
0.258,0.052,0.370,-5.337
0.292,0.053,0.367,-5.337
0.233,0.060,0.365,-5.337
0.190,0.061,0.365,-5.337
0.259,0.057,0.365,-5.337
0.265,0.057,0.365,-5.337
0.212,0.058,0.370,-5.337
0.256,0.057,0.373,-5.337
0.321,0.058,0.371,-5.337
0.200,0.059,0.369,-5.337
0.161,0.059,0.369,-5.337
0.166,0.060,0.369,-5.337
0.197,0.059,0.366,-5.337
0.194,0.058,0.365,-5.337
0.205,0.054,0.366,-5.337
0.227,0.058,0.366,-5.337
0.253,0.056,0.367,-5.337
0.257,0.059,0.369,-5.337
0.192,0.059,0.368,-5.337
0.199,0.059,0.370,-5.337
0.178,0.060,0.371,-5.337
0.151,0.060,0.370,-5.337
0.160,0.056,0.370,-5.337
0.161,0.057,0.370,-5.337
0.178,0.055,0.370,-5.337
0.217,0.054,0.368,-5.337
0.194,0.056,0.366,-5.337
0.212,0.052,0.366,-5.337
0.300,0.051,0.367,-5.337
0.275,0.050,0.368,-5.337
0.212,0.051,0.367,-5.337
0.174,0.052,0.368,-5.337
0.180,0.050,0.370,-5.337
0.201,0.051,0.369,-5.337
0.174,0.049,0.369,-5.337
0.200,0.048,0.367,-5.337
0.254,0.048,0.366,-5.337
0.260,0.051,0.365,-5.337
0.171,0.051,0.367,-5.337
0.123,0.049,0.369,-5.337
0.196,0.048,0.371,-5.337
0.229,0.050,0.371,-5.337
0.201,0.054,0.369,-5.337
0.220,0.051,0.370,-5.337
0.202,0.051,0.369,-5.337
0.166,0.054,0.366,-5.337
0.099,0.055,0.368,-5.337
0.136,0.054,0.371,-5.337
0.258,0.051,0.371,-5.337
0.290,0.051,0.370,-5.337
0.254,0.054,0.370,-5.337
0.219,0.056,0.370,-5.337
0.150,0.056,0.365,-5.337
0.152,0.053,0.363,-5.337
0.214,0.051,0.367,-5.337
0.250,0.048,0.371,-5.337
0.226,0.050,0.368,-5.337
0.118,0.052,0.368,-5.337
0.124,0.052,0.369,-5.337
0.192,0.050,0.371,-5.337
0.224,0.049,0.368,-5.337
0.240,0.049,0.367,-5.337
0.231,0.046,0.366,-5.337
0.267,0.045,0.365,-5.337
0.266,0.047,0.367,-5.337
0.308,0.048,0.370,-5.337
0.267,0.051,0.368,-5.337
0.268,0.051,0.364,-5.337
0.254,0.049,0.364,-5.337
0.212,0.045,0.368,-5.337
0.292,0.041,0.366,-5.337
0.252,0.042,0.363,-5.337
0.191,0.045,0.365,-5.337
0.223,0.048,0.372,-5.337
0.242,0.048,0.373,-5.337
0.240,0.047,0.367,-5.337
0.241,0.046,0.366,-5.337
0.249,0.048,0.369,-5.337
0.197,0.048,0.373,-5.337
0.197,0.044,0.371,-5.337
0.221,0.045,0.369,-5.337
0.198,0.046,0.365,-5.337
0.168,0.049,0.363,-5.337
0.180,0.048,0.365,-5.337
0.210,0.047,0.368,-5.337
0.282,0.045,0.370,-5.337
0.355,0.046,0.372,-5.337
0.322,0.045,0.369,-5.337
0.265,0.045,0.368,-5.337
0.185,0.043,0.367,-5.337
0.149,0.042,0.368,-5.337
0.168,0.041,0.370,-5.337
0.200,0.042,0.373,-5.337
0.184,0.047,0.369,-5.337
0.227,0.048,0.366,-5.337
0.249,0.046,0.366,-5.337
0.322,0.045,0.370,-5.337
0.250,0.049,0.371,-5.337
0.133,0.052,0.372,-5.337
0.133,0.050,0.374,-5.337
0.201,0.046,0.372,-5.337
0.223,0.046,0.368,-5.337
0.195,0.046,0.364,-5.337
0.203,0.047,0.367,-5.337
0.161,0.053,0.367,-5.337
0.173,0.051,0.368,-5.337
0.273,0.046,0.368,-5.337
0.338,0.045,0.365,-5.337
0.289,0.047,0.364,-5.337
0.195,0.052,0.369,-5.337
0.138,0.045,0.370,-5.337
0.198,0.043,0.372,-5.337
0.249,0.043,0.373,-5.337
0.283,0.044,0.374,-5.337
0.232,0.045,0.371,-5.337
0.213,0.045,0.372,-5.337
0.173,0.048,0.371,-5.337
0.149,0.048,0.368,-5.337
0.181,0.044,0.365,-5.337
0.179,0.047,0.366,-5.337
0.228,0.044,0.370,-5.337
0.221,0.044,0.372,-5.337
0.210,0.045,0.375,-5.337
0.275,0.047,0.374,-5.337
0.315,0.044,0.373,-5.337
0.329,0.045,0.367,-5.337
0.251,0.050,0.365,-5.337
0.198,0.051,0.366,-5.337
0.244,0.048,0.365,-5.337
0.237,0.048,0.362,-5.337
0.210,0.049,0.366,-5.337
0.189,0.050,0.373,-5.337
0.197,0.054,0.376,-5.337
0.186,0.052,0.374,-5.337
0.251,0.050,0.370,-5.337
0.235,0.049,0.366,-5.337
0.212,0.048,0.369,-5.337
0.240,0.051,0.372,-5.337
0.215,0.051,0.371,-5.337
0.262,0.050,0.369,-5.337
0.220,0.050,0.369,-5.337
0.158,0.049,0.370,-5.337
0.253,0.048,0.370,-5.337
0.275,0.045,0.368,-5.337
0.215,0.048,0.368,-5.337
0.191,0.048,0.372,-5.337
0.184,0.049,0.370,-5.337
0.212,0.047,0.367,-5.337
0.177,0.047,0.368,-5.337
0.198,0.044,0.374,-5.337
0.293,0.046,0.374,-5.337
0.321,0.049,0.369,-5.337
0.323,0.045,0.363,-5.337
0.307,0.043,0.366,-5.337
0.199,0.047,0.369,-5.337
0.144,0.053,0.367,-5.337
0.163,0.051,0.368,-5.337
0.198,0.046,0.369,-5.337
0.159,0.042,0.367,-5.337
0.160,0.042,0.368,-5.337
0.214,0.041,0.372,-5.337
0.240,0.043,0.374,-5.337
0.202,0.046,0.374,-5.337
0.220,0.045,0.373,-5.337
0.250,0.046,0.372,-5.337
0.244,0.045,0.368,-5.337
0.200,0.046,0.366,-5.337
0.161,0.046,0.367,-5.337
0.240,0.045,0.366,-5.337
0.315,0.044,0.365,-5.337
0.231,0.050,0.368,-5.337
0.156,0.049,0.369,-5.337
0.230,0.045,0.372,-5.337
0.259,0.045,0.370,-5.337
0.226,0.048,0.370,-5.337
0.239,0.047,0.371,-5.337
0.261,0.045,0.374,-5.337
0.239,0.046,0.375,-5.337
0.249,0.048,0.372,-5.337
0.228,0.048,0.370,-5.337
0.232,0.045,0.370,-5.337
0.297,0.043,0.371,-5.337
0.287,0.046,0.370,-5.337
0.236,0.047,0.370,-5.337
0.190,0.048,0.369,-5.337
0.198,0.046,0.367,-5.337
0.254,0.045,0.367,-5.337
0.274,0.047,0.370,-5.337
0.217,0.045,0.370,-5.337
0.206,0.045,0.372,-5.337
0.223,0.045,0.372,-5.337
0.293,0.046,0.371,-5.337
0.397,0.044,0.367,-5.337
0.360,0.045,0.368,-5.337
0.235,0.047,0.369,-5.337
0.213,0.043,0.372,-5.337
0.222,0.041,0.374,-5.337
0.193,0.042,0.372,-5.337
0.111,0.041,0.368,-5.337
0.212,0.038,0.367,-5.337
0.317,0.042,0.373,-5.337
0.197,0.043,0.378,-5.337
0.235,0.038,0.375,-5.337
0.328,0.037,0.369,-5.337
0.281,0.038,0.366,-5.337
0.241,0.039,0.367,-5.337
0.280,0.038,0.367,-5.337
0.325,0.036,0.367,-5.337
0.335,0.035,0.371,-5.337
0.254,0.036,0.373,-5.337
0.170,0.042,0.374,-5.337
0.206,0.040,0.372,-5.337
0.211,0.043,0.368,-5.337
0.148,0.042,0.362,-5.337
0.190,0.040,0.363,-5.337
0.256,0.041,0.366,-5.337
0.190,0.046,0.369,-5.337
0.159,0.048,0.367,-5.337
0.188,0.046,0.368,-5.337
0.282,0.043,0.371,-5.337
0.330,0.042,0.371,-5.337
0.296,0.043,0.372,-5.337
0.241,0.046,0.370,-5.337
0.210,0.045,0.368,-5.337
0.212,0.046,0.365,-5.337
0.218,0.044,0.367,-5.337
0.188,0.047,0.371,-5.337
0.162,0.045,0.368,-5.337
0.154,0.048,0.366,-5.337
0.134,0.046,0.365,-5.337
0.152,0.045,0.367,-5.337
0.204,0.046,0.371,-5.337
0.260,0.044,0.369,-5.337
0.260,0.043,0.366,-5.337
0.243,0.044,0.367,-5.337
0.253,0.040,0.369,-5.337
0.192,0.042,0.367,-5.337
0.141,0.042,0.367,-5.337
0.196,0.043,0.369,-5.337
0.155,0.043,0.369,-5.337
0.082,0.042,0.366,-5.337
0.143,0.044,0.365,-5.337
0.205,0.045,0.364,-5.337
0.216,0.046,0.365,-5.337
0.268,0.043,0.369,-5.337
0.274,0.041,0.372,-5.337
0.198,0.042,0.370,-5.337
0.120,0.045,0.369,-5.337
0.097,0.043,0.368,-5.337
0.135,0.045,0.369,-5.337
0.196,0.042,0.371,-5.337
0.216,0.041,0.372,-5.337
0.239,0.043,0.376,-5.337
0.261,0.043,0.375,-5.337
0.303,0.042,0.367,-5.337
0.271,0.045,0.364,-5.337
0.165,0.048,0.366,-5.337
0.182,0.046,0.367,-5.337
0.238,0.042,0.364,-5.337
0.242,0.041,0.364,-5.337
0.309,0.040,0.368,-5.337
0.276,0.044,0.368,-5.337
0.266,0.047,0.366,-5.337
0.251,0.046,0.363,-5.337
0.205,0.044,0.364,-5.337
0.172,0.047,0.368,-5.337
0.091,0.052,0.374,-5.337
0.146,0.048,0.375,-5.337
0.215,0.047,0.374,-5.337
0.187,0.047,0.371,-5.337
0.240,0.049,0.367,-5.337
0.195,0.053,0.367,-5.337
0.100,0.053,0.370,-5.337
0.060,0.050,0.375,-5.337
0.088,0.048,0.375,-5.337
0.070,0.048,0.371,-5.337
0.081,0.048,0.366,-5.337
0.177,0.049,0.366,-5.337
0.240,0.048,0.367,-5.337
0.281,0.046,0.366,-5.337
0.237,0.046,0.367,-5.337
0.239,0.049,0.370,-5.337
0.258,0.048,0.370,-5.337
0.275,0.050,0.374,-5.337
0.274,0.048,0.370,-5.337
0.236,0.050,0.365,-5.337
0.231,0.050,0.362,-5.337
0.191,0.049,0.366,-5.337
0.153,0.050,0.367,-5.337
0.093,0.052,0.367,-5.337
0.086,0.052,0.367,-5.337
0.165,0.054,0.367,-5.337
0.183,0.048,0.373,-5.337
0.254,0.048,0.376,-5.337
0.262,0.046,0.373,-5.337
0.184,0.052,0.370,-5.337
0.129,0.055,0.368,-5.337
0.090,0.055,0.371,-5.337
0.145,0.056,0.370,-5.337
0.246,0.058,0.372,-5.337
0.298,0.057,0.373,-5.337
0.255,0.055,0.370,-5.337
0.213,0.053,0.367,-5.337
0.200,0.053,0.366,-5.337
0.184,0.056,0.369,-5.337
0.126,0.059,0.369,-5.337
0.122,0.057,0.369,-5.337
0.190,0.053,0.370,-5.337
0.189,0.055,0.368,-5.337
0.180,0.054,0.365,-5.337
0.221,0.055,0.367,-5.337
0.135,0.056,0.369,-5.337
0.123,0.056,0.371,-5.337
0.190,0.053,0.368,-5.337
0.261,0.052,0.366,-5.337
0.270,0.048,0.362,-5.337
0.187,0.051,0.364,-5.337
0.192,0.049,0.370,-5.337
0.246,0.051,0.372,-5.337
0.248,0.051,0.370,-5.337
0.265,0.052,0.370,-5.337
0.225,0.057,0.368,-5.337
0.179,0.058,0.364,-5.337
0.192,0.055,0.364,-5.337
0.201,0.057,0.364,-5.337
0.177,0.057,0.369,-5.337
0.170,0.057,0.372,-5.337
0.203,0.058,0.374,-5.337
0.212,0.056,0.370,-5.337
0.296,0.054,0.369,-5.337
0.324,0.053,0.367,-5.337
0.355,0.054,0.368,-5.337
0.299,0.053,0.366,-5.337
0.186,0.053,0.367,-5.337
0.163,0.054,0.366,-5.337
0.232,0.055,0.364,-5.337
0.210,0.053,0.367,-5.337
0.171,0.055,0.369,-5.337
0.183,0.054,0.369,-5.337
0.140,0.056,0.371,-5.337
0.145,0.057,0.372,-5.337
0.222,0.056,0.369,-5.337
0.269,0.055,0.368,-5.337
0.259,0.055,0.369,-5.337
0.196,0.055,0.371,-5.337
0.256,0.052,0.370,-5.337
0.333,0.054,0.366,-5.337
0.292,0.056,0.363,-5.337
0.215,0.058,0.367,-5.337
0.159,0.061,0.369,-5.337
0.133,0.062,0.368,-5.337
0.207,0.060,0.365,-5.337
0.237,0.056,0.368,-5.337
0.228,0.057,0.365,-5.337
0.175,0.058,0.369,-5.337
0.162,0.059,0.373,-5.337
0.164,0.058,0.375,-5.337
0.161,0.055,0.372,-5.337
0.150,0.057,0.372,-5.337
0.163,0.057,0.370,-5.337
0.164,0.058,0.368,-5.337
0.132,0.055,0.363,-5.337
0.128,0.054,0.366,-5.337
0.183,0.052,0.370,-5.337
0.230,0.056,0.373,-5.337
0.201,0.058,0.369,-5.337
0.150,0.056,0.364,-5.337
0.142,0.052,0.362,-5.337
0.167,0.055,0.366,-5.337
0.175,0.059,0.370,-5.337
0.200,0.061,0.371,-5.337
0.246,0.058,0.373,-5.337
0.222,0.059,0.370,-5.337
0.243,0.059,0.368,-5.337
0.277,0.057,0.369,-5.337
0.222,0.060,0.372,-5.337
0.179,0.062,0.371,-5.337
0.280,0.060,0.373,-5.337
0.352,0.056,0.369,-5.337
0.395,0.054,0.366,-5.337
0.314,0.058,0.365,-5.337
0.300,0.060,0.366,-5.337
0.292,0.062,0.370,-5.337
0.189,0.062,0.372,-5.337
0.150,0.060,0.373,-5.337
0.177,0.064,0.373,-5.337
0.200,0.062,0.369,-5.337
0.203,0.059,0.368,-5.337
0.224,0.058,0.368,-5.337
0.213,0.061,0.367,-5.337
0.171,0.063,0.368,-5.337
0.157,0.063,0.367,-5.337
0.187,0.063,0.369,-5.337
0.186,0.065,0.367,-5.337
0.133,0.061,0.369,-5.337
0.155,0.059,0.367,-5.337
0.230,0.062,0.370,-5.337
0.218,0.065,0.371,-5.337
0.231,0.059,0.365,-5.337
0.222,0.057,0.366,-5.337
0.182,0.059,0.370,-5.337
0.240,0.058,0.369,-5.337
0.248,0.061,0.367,-5.337
0.255,0.064,0.369,-5.337
0.223,0.067,0.369,-5.337
0.163,0.064,0.367,-5.337
0.151,0.062,0.366,-5.337
0.189,0.059,0.366,-5.337
0.209,0.059,0.368,-5.337
0.204,0.060,0.371,-5.337
0.191,0.057,0.371,-5.337
0.159,0.059,0.369,-5.337
0.201,0.057,0.369,-5.337
0.328,0.055,0.368,-5.337
0.316,0.058,0.365,-5.337
0.208,0.062,0.364,-5.337
0.231,0.062,0.366,-5.337
0.327,0.059,0.368,-5.337
0.313,0.061,0.364,-5.337
0.171,0.064,0.364,-5.337
0.178,0.064,0.367,-5.337
0.227,0.062,0.369,-5.337
0.161,0.066,0.368,-5.337
0.131,0.066,0.369,-5.337
0.172,0.062,0.368,-5.337
0.191,0.066,0.366,-5.337
0.208,0.062,0.366,-5.337
0.190,0.064,0.369,-5.337
0.200,0.063,0.372,-5.337
0.175,0.064,0.371,-5.337
0.240,0.062,0.368,-5.337
0.227,0.064,0.366,-5.337
0.229,0.067,0.365,-5.337
0.193,0.068,0.367,-5.337
0.167,0.064,0.370,-5.337
0.206,0.068,0.369,-5.337
0.241,0.070,0.366,-5.337
0.233,0.072,0.368,-5.337
0.231,0.069,0.374,-5.337
0.232,0.069,0.373,-5.337
0.212,0.067,0.366,-5.337
0.246,0.067,0.365,-5.337
0.219,0.067,0.369,-5.337
0.243,0.067,0.368,-5.337
0.265,0.067,0.366,-5.337
0.260,0.067,0.366,-5.337
0.204,0.065,0.372,-5.337
0.143,0.062,0.372,-5.337
0.203,0.062,0.374,-5.337
0.210,0.064,0.377,-5.337
0.229,0.063,0.374,-5.337
0.207,0.065,0.369,-5.337
0.279,0.060,0.364,-5.337
0.359,0.060,0.364,-5.337
0.299,0.059,0.367,-5.337
0.192,0.060,0.370,-5.337
0.177,0.061,0.367,-5.337
0.276,0.058,0.367,-5.337
0.276,0.062,0.371,-5.337
0.271,0.060,0.370,-5.337
0.217,0.061,0.368,-5.337
0.179,0.060,0.371,-5.337
0.182,0.066,0.372,-5.337
0.224,0.062,0.370,-5.337
0.304,0.059,0.366,-5.337
0.280,0.064,0.366,-5.337
0.182,0.066,0.366,-5.337
0.134,0.069,0.369,-5.337
0.183,0.064,0.372,-5.337
0.280,0.057,0.372,-5.337
0.243,0.059,0.372,-5.337
0.224,0.060,0.372,-5.337
0.292,0.061,0.373,-5.337
0.264,0.059,0.371,-5.337
0.159,0.062,0.367,-5.337
0.111,0.067,0.367,-5.337
0.130,0.068,0.367,-5.337
0.200,0.067,0.367,-5.337
0.256,0.065,0.370,-5.337
0.253,0.067,0.369,-5.337
0.208,0.067,0.367,-5.337
0.212,0.066,0.366,-5.337
0.190,0.066,0.369,-5.337
0.133,0.067,0.370,-5.337
0.063,0.070,0.367,-5.337
0.099,0.068,0.363,-5.337
0.157,0.066,0.365,-5.337
0.196,0.063,0.368,-5.337
0.192,0.065,0.373,-5.337
0.196,0.065,0.370,-5.337
0.143,0.066,0.364,-5.337
0.104,0.065,0.366,-5.337
0.103,0.067,0.370,-5.337
0.147,0.064,0.372,-5.337
0.111,0.065,0.370,-5.337
0.117,0.063,0.370,-5.337
0.177,0.062,0.370,-5.337
0.162,0.059,0.368,-5.337
0.115,0.063,0.367,-5.337
0.126,0.061,0.365,-5.337
0.264,0.054,0.366,-5.337
0.345,0.051,0.370,-5.337
0.340,0.056,0.372,-5.337
0.252,0.058,0.369,-5.337
0.218,0.056,0.363,-5.337
0.230,0.054,0.365,-5.337
0.272,0.052,0.369,-5.337
0.167,0.054,0.373,-5.337
0.140,0.053,0.369,-5.337
0.213,0.055,0.370,-5.337
0.277,0.059,0.371,-5.337
0.263,0.061,0.370,-5.337
0.231,0.059,0.367,-5.337
0.230,0.059,0.359,-5.337
0.182,0.059,0.359,-5.337
0.280,0.057,0.364,-5.337
0.359,0.054,0.370,-5.337
0.272,0.054,0.372,-5.337
0.161,0.053,0.369,-5.337
0.117,0.056,0.367,-5.337
0.148,0.054,0.369,-5.337
0.228,0.052,0.370,-5.337
0.245,0.053,0.370,-5.337
0.165,0.057,0.368,-5.337
0.186,0.054,0.366,-5.337
0.229,0.052,0.363,-5.337
0.200,0.056,0.362,-5.337
0.168,0.058,0.364,-5.337
0.194,0.059,0.369,-5.337
0.228,0.057,0.370,-5.337
0.210,0.056,0.369,-5.337
0.067,0.059,0.368,-5.337
0.170,0.055,0.370,-5.337
0.261,0.052,0.368,-5.337
0.227,0.051,0.369,-5.337
0.194,0.049,0.371,-5.337
0.181,0.054,0.371,-5.337
0.189,0.055,0.369,-5.337
0.202,0.054,0.369,-5.337
0.235,0.053,0.367,-5.337
0.293,0.052,0.368,-5.337
0.278,0.054,0.372,-5.337
0.286,0.054,0.373,-5.337
0.257,0.054,0.370,-5.337
0.204,0.056,0.368,-5.337
0.267,0.054,0.368,-5.337
0.298,0.050,0.370,-5.337
0.261,0.053,0.371,-5.337
0.183,0.056,0.373,-5.337
0.099,0.055,0.372,-5.337
0.190,0.053,0.370,-5.337
0.263,0.051,0.369,-5.337
0.273,0.049,0.365,-5.337
0.245,0.048,0.364,-5.337
0.238,0.047,0.362,-5.337
0.199,0.049,0.364,-5.337
0.244,0.049,0.365,-5.337
0.252,0.053,0.368,-5.337
0.236,0.053,0.368,-5.337
0.247,0.054,0.370,-5.337
0.204,0.052,0.373,-5.337
0.237,0.050,0.374,-5.337
0.298,0.050,0.373,-5.337
0.279,0.051,0.369,-5.337
0.228,0.051,0.367,-5.337
0.199,0.051,0.370,-5.337
0.157,0.054,0.367,-5.337
0.198,0.056,0.368,-5.337
0.265,0.052,0.368,-5.337
0.253,0.047,0.367,-5.337
0.238,0.048,0.366,-5.337
0.262,0.051,0.368,-5.337
0.224,0.050,0.371,-5.337
0.238,0.046,0.375,-5.337
0.271,0.044,0.376,-5.337
0.258,0.042,0.371,-5.337
0.225,0.046,0.369,-5.337
0.167,0.049,0.363,-5.337
0.171,0.047,0.361,-5.337
0.194,0.045,0.367,-5.337
0.235,0.045,0.368,-5.337
0.264,0.044,0.369,-5.337
0.268,0.045,0.372,-5.337
0.231,0.044,0.370,-5.337
0.272,0.041,0.366,-5.337
0.275,0.043,0.362,-5.337
0.301,0.046,0.366,-5.337
0.338,0.046,0.374,-5.337
0.324,0.048,0.381,-5.337
0.301,0.047,0.378,-5.337
0.308,0.046,0.372,-5.337
0.284,0.044,0.368,-5.337
0.207,0.046,0.363,-5.337
0.226,0.045,0.360,-5.337
0.237,0.045,0.360,-5.337
0.180,0.041,0.365,-5.337
0.238,0.036,0.366,-5.337
0.233,0.042,0.367,-5.337
0.237,0.043,0.365,-5.337
0.213,0.042,0.362,-5.337
0.183,0.047,0.367,-5.337
0.235,0.046,0.372,-5.337
0.268,0.046,0.372,-5.337
0.214,0.047,0.368,-5.337
0.202,0.046,0.366,-5.337
0.224,0.046,0.368,-5.337
0.214,0.045,0.368,-5.337
0.186,0.044,0.370,-5.337
0.219,0.040,0.370,-5.337
0.208,0.043,0.369,-5.337
0.138,0.047,0.368,-5.337
0.144,0.046,0.368,-5.337
0.162,0.042,0.369,-5.337
0.193,0.039,0.370,-5.337
0.190,0.040,0.371,-5.337
0.208,0.042,0.372,-5.337
0.201,0.045,0.370,-5.337
0.190,0.048,0.366,-5.337
0.229,0.043,0.367,-5.337
0.275,0.040,0.371,-5.337
0.248,0.042,0.375,-5.337
0.220,0.045,0.371,-5.337
0.301,0.042,0.368,-5.337
0.387,0.040,0.368,-5.337
0.377,0.043,0.368,-5.337
0.316,0.043,0.367,-5.337
0.292,0.043,0.368,-5.337
0.256,0.044,0.371,-5.337
0.246,0.041,0.373,-5.337
0.243,0.041,0.374,-5.337
0.197,0.042,0.371,-5.337
0.266,0.041,0.369,-5.337
0.232,0.042,0.368,-5.337
0.135,0.048,0.369,-5.337
0.068,0.050,0.369,-5.337
0.121,0.045,0.366,-5.337
0.264,0.046,0.366,-5.337
0.290,0.047,0.369,-5.337
0.143,0.051,0.368,-5.337
0.139,0.048,0.367,-5.337
0.152,0.043,0.364,-5.337
0.219,0.041,0.366,-5.337
0.277,0.041,0.367,-5.337
0.229,0.040,0.369,-5.337
0.152,0.038,0.369,-5.337
0.182,0.037,0.370,-5.337
0.250,0.042,0.370,-5.337
0.163,0.043,0.371,-5.337
0.107,0.036,0.371,-5.337
0.126,0.036,0.369,-5.337
0.178,0.037,0.367,-5.337
0.229,0.038,0.370,-5.337
0.222,0.035,0.370,-5.337
0.197,0.031,0.371,-5.337
0.189,0.035,0.374,-5.337
0.226,0.034,0.374,-5.337
0.257,0.032,0.372,-5.337
0.242,0.034,0.370,-5.337
0.231,0.035,0.368,-5.337
0.259,0.037,0.365,-5.337
0.236,0.042,0.367,-5.337
0.224,0.041,0.372,-5.337
0.235,0.042,0.373,-5.337
0.215,0.040,0.369,-5.337
0.238,0.040,0.368,-5.337
0.239,0.041,0.367,-5.337
0.208,0.043,0.367,-5.337
0.223,0.044,0.366,-5.337
0.241,0.042,0.371,-5.337
0.275,0.039,0.373,-5.337
0.243,0.039,0.372,-5.337
0.225,0.041,0.368,-5.337
0.224,0.044,0.368,-5.337
0.231,0.044,0.368,-5.337
0.217,0.038,0.368,-5.337
0.207,0.039,0.367,-5.337
0.247,0.041,0.367,-5.337
0.323,0.041,0.367,-5.337
0.311,0.040,0.369,-5.337
0.301,0.038,0.370,-5.337
0.322,0.041,0.367,-5.337
0.251,0.044,0.365,-5.337
0.253,0.045,0.365,-5.337
0.152,0.046,0.368,-5.337
0.090,0.045,0.369,-5.337
0.187,0.042,0.372,-5.337
0.253,0.044,0.370,-5.337
0.196,0.043,0.366,-5.337
0.125,0.044,0.362,-5.337
0.128,0.041,0.365,-5.337
0.222,0.039,0.368,-5.337
0.316,0.040,0.371,-5.337
0.282,0.040,0.371,-5.337
0.327,0.041,0.371,-5.337
0.352,0.040,0.368,-5.337
0.344,0.040,0.370,-5.337
0.318,0.041,0.372,-5.337
0.221,0.043,0.369,-5.337
0.218,0.041,0.366,-5.337
0.236,0.041,0.366,-5.337
0.200,0.040,0.367,-5.337
0.239,0.037,0.370,-5.337
0.272,0.037,0.371,-5.337
0.253,0.039,0.371,-5.337
0.214,0.041,0.367,-5.337
0.201,0.040,0.368,-5.337
0.247,0.038,0.370,-5.337
0.275,0.040,0.370,-5.337
0.253,0.041,0.366,-5.337
0.253,0.039,0.362,-5.337
0.278,0.039,0.366,-5.337
0.332,0.038,0.369,-5.337
0.360,0.042,0.373,-5.337
0.321,0.042,0.367,-5.337
0.297,0.043,0.363,-5.337
0.231,0.047,0.364,-5.337
0.125,0.050,0.371,-5.337
0.101,0.043,0.375,-5.337
0.186,0.042,0.372,-5.337
0.233,0.041,0.367,-5.337
0.253,0.041,0.367,-5.337
0.192,0.042,0.368,-5.337
0.194,0.041,0.372,-5.337
0.230,0.040,0.372,-5.337
0.222,0.044,0.373,-5.337
0.164,0.045,0.372,-5.337
0.128,0.044,0.373,-5.337
0.131,0.043,0.370,-5.337
0.158,0.043,0.370,-5.337
0.207,0.042,0.370,-5.337
0.205,0.040,0.368,-5.337
0.148,0.040,0.365,-5.337
0.141,0.039,0.361,-5.337
0.153,0.041,0.361,-5.337
0.131,0.040,0.362,-5.337
0.209,0.039,0.366,-5.337
0.263,0.037,0.371,-5.337
0.216,0.037,0.374,-5.337
0.224,0.038,0.374,-5.337
0.235,0.040,0.374,-5.337
0.271,0.040,0.371,-5.337
0.270,0.043,0.368,-5.337
0.280,0.043,0.370,-5.337
0.245,0.044,0.373,-5.337
0.231,0.042,0.371,-5.337
0.218,0.047,0.367,-5.337
0.208,0.046,0.367,-5.337
0.230,0.041,0.368,-5.337
0.234,0.041,0.368,-5.337
0.205,0.046,0.370,-5.337
0.260,0.046,0.372,-5.337
0.337,0.043,0.374,-5.337
0.303,0.040,0.371,-5.337
0.264,0.045,0.366,-5.337
0.331,0.047,0.363,-5.337
0.333,0.050,0.365,-5.337
0.291,0.050,0.368,-5.337
0.273,0.047,0.369,-5.337
0.244,0.045,0.369,-5.337
0.232,0.047,0.367,-5.337
0.235,0.046,0.365,-5.337
0.194,0.044,0.367,-5.337
0.157,0.046,0.366,-5.337
0.213,0.044,0.364,-5.337
0.299,0.042,0.366,-5.337
0.322,0.044,0.370,-5.337
0.224,0.047,0.369,-5.337
0.174,0.046,0.368,-5.337
0.209,0.048,0.369,-5.337
0.274,0.047,0.370,-5.337
0.276,0.047,0.369,-5.337
0.227,0.050,0.367,-5.337
0.210,0.050,0.365,-5.337
0.216,0.047,0.368,-5.337
0.248,0.046,0.371,-5.337
0.230,0.046,0.372,-5.337
0.218,0.046,0.370,-5.337
0.159,0.049,0.364,-5.337
0.178,0.046,0.361,-5.337
0.170,0.046,0.363,-5.337
0.067,0.048,0.366,-5.337
0.056,0.053,0.369,-5.337
0.125,0.048,0.368,-5.337
0.190,0.046,0.369,-5.337
0.170,0.049,0.365,-5.337
0.143,0.053,0.365,-5.337
0.200,0.046,0.364,-5.337
0.230,0.046,0.365,-5.337
0.204,0.045,0.370,-5.337
0.210,0.048,0.373,-5.337
0.237,0.046,0.370,-5.337
0.259,0.045,0.365,-5.337
0.179,0.047,0.362,-5.337
0.247,0.044,0.365,-5.337
0.263,0.044,0.369,-5.337
0.241,0.044,0.370,-5.337
0.290,0.045,0.368,-5.337
0.242,0.049,0.368,-5.337
0.187,0.048,0.367,-5.337
0.149,0.046,0.364,-5.337
0.161,0.044,0.364,-5.337
0.264,0.043,0.365,-5.337
0.270,0.044,0.368,-5.337
0.217,0.044,0.369,-5.337
0.187,0.049,0.370,-5.337
0.157,0.053,0.369,-5.337
0.182,0.053,0.365,-5.337
0.204,0.053,0.360,-5.337
0.185,0.054,0.362,-5.337
0.178,0.055,0.366,-5.337
0.140,0.056,0.370,-5.337
0.128,0.058,0.372,-5.337
0.141,0.059,0.371,-5.337
0.145,0.057,0.368,-5.337
0.155,0.060,0.369,-5.337
0.236,0.059,0.369,-5.337
0.320,0.057,0.367,-5.337
0.214,0.058,0.364,-5.337
0.102,0.058,0.366,-5.337
0.220,0.057,0.372,-5.337
0.299,0.060,0.375,-5.337
0.260,0.060,0.372,-5.337
0.255,0.058,0.369,-5.337
0.260,0.059,0.372,-5.337
0.189,0.061,0.368,-5.337
0.118,0.062,0.363,-5.337
0.109,0.061,0.363,-5.337
0.146,0.060,0.369,-5.337
0.211,0.060,0.369,-5.337
0.280,0.060,0.367,-5.337
0.315,0.058,0.369,-5.337
0.330,0.060,0.373,-5.337
0.261,0.060,0.371,-5.337
0.308,0.058,0.370,-5.337
0.288,0.060,0.372,-5.337
0.208,0.062,0.373,-5.337
0.236,0.060,0.371,-5.337
0.221,0.061,0.369,-5.337
0.168,0.063,0.368,-5.337
0.196,0.061,0.370,-5.337
0.140,0.060,0.369,-5.337
0.104,0.062,0.366,-5.337
0.116,0.066,0.366,-5.337
0.157,0.064,0.369,-5.337
0.151,0.062,0.369,-5.337
0.175,0.062,0.368,-5.337
0.137,0.067,0.369,-5.337
0.142,0.067,0.368,-5.337
0.184,0.062,0.367,-5.337
0.198,0.062,0.365,-5.337
0.234,0.064,0.366,-5.337
0.189,0.063,0.363,-5.337
0.190,0.065,0.364,-5.337
0.170,0.061,0.369,-5.337
0.158,0.062,0.371,-5.337
0.192,0.062,0.370,-5.337
0.166,0.062,0.365,-5.337
0.186,0.059,0.363,-5.337
0.165,0.062,0.366,-5.337
0.208,0.062,0.369,-5.337
0.292,0.058,0.368,-5.337
0.298,0.059,0.368,-5.337
0.269,0.065,0.370,-5.337
0.268,0.064,0.371,-5.337
0.240,0.061,0.372,-5.337
0.215,0.059,0.369,-5.337
0.208,0.057,0.363,-5.337
0.194,0.060,0.364,-5.337
0.163,0.061,0.367,-5.337
0.213,0.060,0.369,-5.337
0.268,0.061,0.367,-5.337
0.238,0.061,0.369,-5.337
0.208,0.064,0.369,-5.337
0.205,0.068,0.368,-5.337
0.218,0.062,0.367,-5.337
0.221,0.062,0.367,-5.337
0.235,0.060,0.369,-5.337
0.240,0.060,0.372,-5.337
0.234,0.062,0.373,-5.337
0.166,0.062,0.369,-5.337
0.234,0.060,0.365,-5.337
0.319,0.059,0.363,-5.337
0.270,0.060,0.364,-5.337
0.230,0.060,0.368,-5.337
0.207,0.056,0.371,-5.337
0.179,0.055,0.368,-5.337
0.179,0.055,0.366,-5.337
0.180,0.054,0.366,-5.337
0.121,0.058,0.367,-5.337
0.142,0.061,0.364,-5.337
0.160,0.061,0.363,-5.337
0.173,0.058,0.367,-5.337
0.219,0.060,0.372,-5.337
0.228,0.059,0.371,-5.337
0.135,0.059,0.368,-5.337
0.207,0.056,0.369,-5.337
0.299,0.056,0.370,-5.337
0.275,0.061,0.368,-5.337
0.116,0.062,0.366,-5.337
0.053,0.059,0.366,-5.337
0.149,0.059,0.366,-5.337
0.211,0.059,0.366,-5.337
0.212,0.058,0.366,-5.337
0.272,0.057,0.368,-5.337
0.266,0.059,0.369,-5.337
0.215,0.061,0.369,-5.337
0.278,0.060,0.371,-5.337
0.259,0.063,0.371,-5.337
0.196,0.064,0.366,-5.337
0.246,0.059,0.364,-5.337
0.307,0.060,0.366,-5.337
0.267,0.063,0.371,-5.337
0.156,0.065,0.372,-5.337
0.161,0.064,0.372,-5.337
0.220,0.061,0.365,-5.337
0.197,0.062,0.366,-5.337
0.112,0.065,0.374,-5.337
0.124,0.066,0.376,-5.337
0.225,0.066,0.372,-5.337
0.232,0.068,0.370,-5.337
0.120,0.069,0.368,-5.337
0.169,0.069,0.370,-5.337
0.298,0.065,0.368,-5.337
0.276,0.067,0.370,-5.337
0.208,0.060,0.370,-5.337
0.270,0.058,0.368,-5.337
0.278,0.061,0.365,-5.337
0.251,0.064,0.367,-5.337
0.264,0.062,0.368,-5.337
0.283,0.060,0.367,-5.337
0.263,0.062,0.365,-5.337
0.241,0.062,0.363,-5.337
0.272,0.063,0.367,-5.337
0.281,0.064,0.370,-5.337
0.297,0.062,0.370,-5.337
0.273,0.060,0.367,-5.337
0.227,0.061,0.366,-5.337
0.265,0.064,0.366,-5.337
0.275,0.064,0.368,-5.337
0.257,0.065,0.368,-5.337
0.219,0.065,0.370,-5.337
0.222,0.063,0.369,-5.337
0.250,0.066,0.368,-5.337
0.227,0.066,0.369,-5.337
0.142,0.067,0.370,-5.337
0.063,0.069,0.367,-5.337
0.077,0.070,0.366,-5.337
0.162,0.064,0.369,-5.337
0.201,0.060,0.372,-5.337
0.235,0.064,0.368,-5.337
0.192,0.067,0.364,-5.337
0.128,0.066,0.363,-5.337
0.135,0.065,0.365,-5.337
0.210,0.065,0.367,-5.337
0.187,0.070,0.368,-5.337
0.174,0.068,0.372,-5.337
0.228,0.064,0.369,-5.337
0.164,0.064,0.366,-5.337
0.114,0.065,0.365,-5.337
0.131,0.065,0.366,-5.337
0.148,0.062,0.365,-5.337
0.176,0.063,0.368,-5.337
0.170,0.064,0.366,-5.337
0.146,0.065,0.368,-5.337
0.137,0.061,0.370,-5.337
0.139,0.062,0.370,-5.337
0.210,0.061,0.370,-5.337
0.260,0.065,0.369,-5.337
0.180,0.067,0.370,-5.337
0.145,0.063,0.366,-5.337
0.170,0.066,0.363,-5.337
0.135,0.069,0.364,-5.337
0.217,0.065,0.367,-5.337
0.308,0.063,0.372,-5.337
0.319,0.063,0.371,-5.337
0.313,0.066,0.370,-5.337
0.286,0.062,0.368,-5.337
0.297,0.057,0.367,-5.337
0.318,0.060,0.367,-5.337
0.348,0.063,0.368,-5.337
0.340,0.062,0.368,-5.337
0.291,0.062,0.366,-5.337
0.249,0.062,0.365,-5.337
0.175,0.061,0.361,-5.337
0.139,0.062,0.365,-5.337
0.164,0.061,0.369,-5.337
0.136,0.062,0.370,-5.337
0.148,0.064,0.370,-5.337
0.224,0.063,0.369,-5.337
0.221,0.062,0.370,-5.337
0.151,0.064,0.370,-5.337
0.094,0.065,0.369,-5.337
0.163,0.063,0.372,-5.337
0.157,0.061,0.372,-5.337
0.219,0.061,0.371,-5.337
0.222,0.059,0.366,-5.337
0.233,0.059,0.365,-5.337
0.250,0.059,0.365,-5.337
0.143,0.061,0.370,-5.337
0.138,0.060,0.372,-5.337
0.193,0.063,0.370,-5.337
0.249,0.060,0.367,-5.337
0.240,0.058,0.365,-5.337
0.240,0.057,0.373,-5.337
0.204,0.059,0.374,-5.337
0.227,0.061,0.368,-5.337
0.270,0.060,0.362,-5.337
0.202,0.060,0.362,-5.337
0.147,0.059,0.369,-5.337
0.209,0.059,0.372,-5.337
0.222,0.060,0.373,-5.337
0.174,0.059,0.374,-5.337
0.196,0.052,0.372,-5.337
0.235,0.051,0.369,-5.337
0.227,0.054,0.367,-5.337
0.142,0.057,0.372,-5.337
0.125,0.057,0.373,-5.337
0.106,0.057,0.370,-5.337
0.129,0.059,0.369,-5.337
0.113,0.064,0.370,-5.337
0.136,0.062,0.371,-5.337
0.289,0.056,0.368,-5.337
0.357,0.059,0.370,-5.337
0.308,0.059,0.367,-5.337
0.247,0.058,0.367,-5.337
0.241,0.052,0.365,-5.337
0.220,0.054,0.366,-5.337
0.244,0.054,0.366,-5.337
0.266,0.050,0.366,-5.337
0.253,0.049,0.367,-5.337
0.226,0.051,0.366,-5.337
0.221,0.053,0.366,-5.337
0.236,0.054,0.368,-5.337
0.243,0.053,0.372,-5.337
0.267,0.051,0.373,-5.337
0.215,0.053,0.371,-5.337
0.193,0.052,0.371,-5.337
0.208,0.050,0.370,-5.337
0.236,0.048,0.369,-5.337
0.327,0.046,0.367,-5.337
0.335,0.046,0.367,-5.337
0.237,0.048,0.367,-5.337
0.233,0.049,0.366,-5.337
0.239,0.050,0.367,-5.337
0.228,0.050,0.366,-5.337
0.260,0.048,0.365,-5.337
0.249,0.047,0.367,-5.337
0.246,0.046,0.369,-5.337
0.222,0.049,0.367,-5.337
0.241,0.046,0.369,-5.337
0.288,0.045,0.370,-5.337
0.222,0.046,0.370,-5.337
0.161,0.046,0.368,-5.337
0.182,0.043,0.367,-5.337
0.202,0.039,0.368,-5.337
0.230,0.043,0.371,-5.337
0.269,0.044,0.370,-5.337
0.233,0.047,0.372,-5.337
0.182,0.047,0.372,-5.337
0.242,0.043,0.372,-5.337
0.313,0.041,0.365,-5.337
0.319,0.042,0.358,-5.337
0.239,0.044,0.357,-5.337
0.246,0.047,0.361,-5.337
0.234,0.049,0.365,-5.337
0.159,0.049,0.366,-5.337
0.190,0.044,0.367,-5.337
0.209,0.044,0.370,-5.337
0.166,0.045,0.369,-5.337
0.168,0.045,0.367,-5.337
0.220,0.045,0.367,-5.337
0.237,0.043,0.369,-5.337
0.193,0.045,0.373,-5.337
0.145,0.048,0.373,-5.337
0.096,0.047,0.374,-5.337
0.082,0.049,0.371,-5.337
0.181,0.044,0.371,-5.337
0.309,0.042,0.371,-5.337
0.317,0.044,0.371,-5.337
0.259,0.051,0.367,-5.337
0.262,0.046,0.362,-5.337
0.295,0.044,0.364,-5.337
0.305,0.045,0.367,-5.337
0.215,0.045,0.365,-5.337
0.189,0.046,0.366,-5.337
0.261,0.044,0.370,-5.337
0.275,0.042,0.370,-5.337
0.228,0.044,0.368,-5.337
0.218,0.044,0.367,-5.337
0.232,0.044,0.365,-5.337
0.140,0.046,0.365,-5.337
