[Parameters]
Operating Mode, Feedback
Subject  AA..ZZ, WT
Session  0..99, 42
No. Trials (1..9999), 500
Mouse Number, 1
Pressure Probe Serial Port, \00\00\00\04COM4
Save additional csv file, TRUE
Save using mouse number, FALSE
A/D Monitor Rate (Hz), 30000.000000
A/D Stimulate Rate (Hz), 30000.000000
A/D input range (+/- V), 5
No. Channels to acquire (N), 2
Pre-Stim Acq. time (ms), 100.000000
Post-Stim Acq. time (ms), 900.000000
Analysis window parameters.M-response Start (ms), 1.100000
Analysis window parameters.M-response Duration (ms), 5.500000
Analysis window parameters.H-response Duration (ms), 6.000000
Analysis window parameters.H-response Start (ms), 6.500000
Feedback window, H response
Proportional gain, 0.100000
Target value, 6.700000
Feedback Ch., 1
Stim Channel to Control (1-4), 4
Trial, 23
Wait for EMG Conditions, FALSE
Channel to monitor (0 - N-1), 1
EMG Hi Limit, 2.000000
EMG Lo Limit, 0.001000
Inter-Stim delay (sec), 10.000000
EMG Monitor Mode, Mean
Time to run Long Stim.(sec), 30
Save Long Stim Data?, OFF
BURST Save time (ms), 1000
BURST Save Interval (x above), 10
Long-Stim. Rep. Rate (Hz), 10.000000
Stim type cluster array.<size(s)>, 4
Stim type cluster array 0.Stimulus Output, Electrical
Stim type cluster array 1.Stimulus Output, OFF
Stim type cluster array 2.Stimulus Output, OFF
Stim type cluster array 3.Stimulus Output, Motor Length
Stim specs cluster array.<size(s)>, 4
Stim specs cluster array 0.Initial Stimulus ampl., 0.300000
Stim specs cluster array 0.Maximum Stimulus, 1.120000
Stim specs cluster array 0.#Pulses in train, 4
Stim specs cluster array 0.Peak Level time (ms), 1.000000
Stim specs cluster array 0.Total pulse period (ms), 150.000000
Stim specs cluster array 0.Start Delay (ms), -50.000000
Stim specs cluster array 0.Pulse Shape, Square
Stim specs cluster array 0.Ramp/Rel. time (ms), 0.100000
Stim specs cluster array 0.Peak Amplitude (V), 0.120000
Stim specs cluster array 1.Initial Stimulus ampl., 0.000000
Stim specs cluster array 1.Maximum Stimulus, 0.000000
Stim specs cluster array 1.#Pulses in train, 3
Stim specs cluster array 1.Peak Level time (ms), 29.000000
Stim specs cluster array 1.Total pulse period (ms), 200.000000
Stim specs cluster array 1.Start Delay (ms), 0.000000
Stim specs cluster array 1.Pulse Shape, Square
Stim specs cluster array 1.Ramp/Rel. time (ms), 0.000000
Stim specs cluster array 1.Peak Amplitude (V), 2.000000
Stim specs cluster array 2.Initial Stimulus ampl., 0.000000
Stim specs cluster array 2.Maximum Stimulus, 0.000000
Stim specs cluster array 2.#Pulses in train, 1
Stim specs cluster array 2.Peak Level time (ms), 25.000000
Stim specs cluster array 2.Total pulse period (ms), 200.000000
Stim specs cluster array 2.Start Delay (ms), 0.000000
Stim specs cluster array 2.Pulse Shape, Square
Stim specs cluster array 2.Ramp/Rel. time (ms), 20.000000
Stim specs cluster array 2.Peak Amplitude (V), 10.000000
Stim specs cluster array 3.Initial Stimulus ampl., 0.000000
Stim specs cluster array 3.Maximum Stimulus, 20.000000
Stim specs cluster array 3.#Pulses in train, 25
Stim specs cluster array 3.Peak Level time (ms), 0.100000
Stim specs cluster array 3.Total pulse period (ms), 4.000000
Stim specs cluster array 3.Start Delay (ms), 205.000000
Stim specs cluster array 3.Pulse Shape, Triangle
Stim specs cluster array 3.Ramp/Rel. time (ms), 3.000000
Stim specs cluster array 3.Peak Amplitude (V), 0.500000
Force cal. (mN/Volt), 100.000000
Force Range (mN), 100.000000
Length cal. (mm/Volt), 10.000000
Length Range (mm), 10.000000
Stim. 1, 0.300000
Stim. 2, 0.000000
Stim. 3, 0.000000
Stim. 4, 0.000000
Monitor acquire time (ms), 100.000000
EMG graph Ymax, 0.100000
Travel limit (mm), 20.000000
Use Pressure Probe, FALSE
Pressure goal (g), 100
Speed (mm/sec), 5.000000
Dwell time (ms), 100.000000
Pressure limit (g), 500.000000
Channel amplitude offset, 0.000000

[DATA]

0.115,0.031,0.337,-5.337
0.146,0.031,0.334,-5.337
0.174,0.033,0.336,-5.337
0.190,0.033,0.338,-5.337
0.242,0.031,0.338,-5.337
0.348,0.025,0.335,-5.337
0.320,0.029,0.334,-5.337
0.245,0.035,0.332,-5.337
0.255,0.036,0.336,-5.337
0.259,0.033,0.337,-5.337
0.272,0.027,0.338,-5.337
0.255,0.027,0.334,-5.337
0.242,0.030,0.335,-5.337
0.204,0.034,0.338,-5.337
0.108,0.036,0.337,-5.337
0.139,0.034,0.336,-5.337
0.201,0.035,0.338,-5.337
0.240,0.035,0.341,-5.337
0.201,0.035,0.339,-5.337
0.149,0.036,0.334,-5.337
0.259,0.038,0.332,-5.337
0.316,0.034,0.332,-5.337
0.258,0.033,0.332,-5.337
0.227,0.032,0.335,-5.337
0.233,0.030,0.335,-5.337
0.291,0.029,0.337,-5.337
0.283,0.029,0.336,-5.337
0.262,0.032,0.340,-5.337
0.213,0.035,0.340,-5.337
0.109,0.036,0.337,-5.337
0.128,0.034,0.334,-5.337
0.236,0.034,0.332,-5.337
0.257,0.035,0.335,-5.337
0.263,0.033,0.337,-5.337
0.245,0.032,0.334,-5.337
0.186,0.037,0.333,-5.337
0.187,0.036,0.336,-5.337
0.199,0.036,0.337,-5.337
0.151,0.034,0.337,-5.337
0.157,0.033,0.338,-5.337
0.182,0.031,0.335,-5.337
0.258,0.032,0.333,-5.337
0.330,0.033,0.334,-5.337
0.284,0.036,0.338,-5.337
0.192,0.038,0.343,-5.337
0.193,0.038,0.342,-5.337
0.179,0.039,0.342,-5.337
0.133,0.038,0.342,-5.337
0.118,0.036,0.338,-5.337
0.199,0.035,0.330,-5.337
0.204,0.036,0.327,-5.337
0.152,0.040,0.329,-5.337
0.126,0.040,0.333,-5.337
0.227,0.036,0.336,-5.337
0.321,0.036,0.338,-5.337
0.275,0.037,0.333,-5.337
0.235,0.036,0.331,-5.337
0.205,0.036,0.335,-5.337
0.176,0.036,0.338,-5.337
0.231,0.037,0.338,-5.337
0.273,0.041,0.340,-5.337
0.288,0.039,0.342,-5.337
0.211,0.037,0.340,-5.337
0.167,0.037,0.337,-5.337
0.138,0.042,0.331,-5.337
0.131,0.041,0.331,-5.337
0.191,0.039,0.334,-5.337
0.258,0.037,0.335,-5.337
0.314,0.041,0.336,-5.337
0.252,0.045,0.338,-5.337
0.184,0.046,0.342,-5.337
0.222,0.046,0.342,-5.337
0.192,0.046,0.333,-5.337
0.159,0.044,0.329,-5.337
0.173,0.042,0.329,-5.337
0.198,0.043,0.332,-5.337
0.266,0.041,0.331,-5.337
0.199,0.041,0.333,-5.337
0.160,0.041,0.335,-5.337
0.164,0.044,0.336,-5.337
0.165,0.044,0.339,-5.337
0.133,0.047,0.341,-5.337
0.128,0.045,0.341,-5.337
0.169,0.044,0.338,-5.337
0.220,0.042,0.337,-5.337
0.216,0.042,0.337,-5.337
0.250,0.042,0.333,-5.337
0.306,0.040,0.334,-5.337
0.244,0.045,0.334,-5.337
0.160,0.044,0.329,-5.337
0.174,0.041,0.329,-5.337
0.168,0.043,0.331,-5.337
0.171,0.044,0.333,-5.337
0.176,0.043,0.333,-5.337
0.152,0.043,0.332,-5.337
0.155,0.046,0.332,-5.337
0.152,0.047,0.336,-5.337
0.202,0.048,0.336,-5.337
0.278,0.048,0.335,-5.337
0.263,0.046,0.331,-5.337
0.236,0.044,0.332,-5.337
0.194,0.047,0.333,-5.337
0.132,0.050,0.339,-5.337
0.138,0.050,0.337,-5.337
0.190,0.050,0.335,-5.337
0.178,0.050,0.334,-5.337
0.070,0.054,0.331,-5.337
0.025,0.056,0.330,-5.337
0.083,0.052,0.332,-5.337
0.162,0.050,0.333,-5.337
0.249,0.048,0.331,-5.337
0.257,0.048,0.331,-5.337
0.270,0.048,0.335,-5.337
0.298,0.043,0.338,-5.337
0.291,0.043,0.334,-5.337
0.253,0.043,0.334,-5.337
0.202,0.045,0.338,-5.337
0.195,0.043,0.339,-5.337
0.264,0.042,0.336,-5.337
0.274,0.048,0.339,-5.337
0.226,0.052,0.340,-5.337
0.152,0.050,0.336,-5.337
0.141,0.051,0.330,-5.337
0.170,0.050,0.330,-5.337
0.137,0.050,0.331,-5.337
0.162,0.044,0.329,-5.337
0.252,0.040,0.329,-5.337
0.225,0.046,0.332,-5.337
0.167,0.053,0.334,-5.337
0.217,0.049,0.340,-5.337
0.237,0.044,0.341,-5.337
0.236,0.046,0.336,-5.337
0.269,0.047,0.330,-5.337
0.247,0.047,0.330,-5.337
0.175,0.046,0.331,-5.337
0.208,0.043,0.333,-5.337
0.200,0.045,0.336,-5.337
0.146,0.048,0.335,-5.337
0.129,0.050,0.332,-5.337
0.188,0.049,0.331,-5.337
0.263,0.045,0.334,-5.337
0.300,0.045,0.333,-5.337
0.281,0.048,0.333,-5.337
0.271,0.049,0.329,-5.337
0.221,0.052,0.332,-5.337
0.155,0.051,0.336,-5.337
0.096,0.050,0.338,-5.337
0.117,0.045,0.336,-5.337
0.160,0.044,0.332,-5.337
0.306,0.042,0.329,-5.337
0.284,0.046,0.333,-5.337
0.215,0.045,0.336,-5.337
0.203,0.049,0.337,-5.337
0.203,0.052,0.335,-5.337
0.168,0.052,0.338,-5.337
0.159,0.052,0.340,-5.337
0.200,0.049,0.342,-5.337
0.177,0.051,0.340,-5.337
0.085,0.050,0.333,-5.337
0.088,0.050,0.328,-5.337
0.178,0.051,0.329,-5.337
0.142,0.053,0.330,-5.337
0.099,0.054,0.330,-5.337
0.128,0.054,0.330,-5.337
0.224,0.051,0.330,-5.337
0.251,0.045,0.333,-5.337
0.171,0.048,0.333,-5.337
0.178,0.052,0.332,-5.337
0.210,0.051,0.331,-5.337
0.186,0.051,0.333,-5.337
0.160,0.050,0.330,-5.337
0.169,0.053,0.334,-5.337
0.183,0.053,0.340,-5.337
0.205,0.052,0.343,-5.337
0.219,0.052,0.339,-5.337
0.187,0.052,0.331,-5.337
0.237,0.046,0.328,-5.337
0.236,0.050,0.330,-5.337
0.191,0.056,0.332,-5.337
0.184,0.055,0.330,-5.337
0.221,0.050,0.328,-5.337
0.261,0.050,0.326,-5.337
0.176,0.052,0.330,-5.337
0.133,0.050,0.333,-5.337
0.180,0.049,0.335,-5.337
0.185,0.049,0.338,-5.337
0.147,0.050,0.340,-5.337
0.141,0.052,0.340,-5.337
0.070,0.053,0.337,-5.337
0.073,0.050,0.332,-5.337
0.149,0.046,0.332,-5.337
0.139,0.052,0.331,-5.337
0.113,0.053,0.335,-5.337
0.155,0.053,0.337,-5.337
0.174,0.050,0.337,-5.337
0.213,0.048,0.334,-5.337
0.192,0.050,0.331,-5.337
0.213,0.050,0.330,-5.337
0.262,0.052,0.332,-5.337
0.226,0.052,0.333,-5.337
0.162,0.053,0.336,-5.337
0.158,0.052,0.339,-5.337
0.152,0.054,0.340,-5.337
0.143,0.056,0.335,-5.337
0.155,0.053,0.331,-5.337
0.152,0.056,0.331,-5.337
0.161,0.058,0.330,-5.337
0.199,0.061,0.332,-5.337
0.201,0.061,0.331,-5.337
0.191,0.058,0.335,-5.337
0.161,0.056,0.338,-5.337
0.162,0.057,0.337,-5.337
0.182,0.062,0.332,-5.337
0.138,0.061,0.333,-5.337
0.224,0.054,0.336,-5.337
0.309,0.053,0.337,-5.337
0.235,0.058,0.334,-5.337
0.201,0.060,0.336,-5.337
0.141,0.058,0.338,-5.337
0.189,0.054,0.339,-5.337
0.257,0.056,0.340,-5.337
0.224,0.059,0.339,-5.337
0.201,0.058,0.338,-5.337
0.253,0.059,0.336,-5.337
0.186,0.064,0.334,-5.337
0.063,0.062,0.334,-5.337
0.094,0.054,0.337,-5.337
0.201,0.048,0.335,-5.337
0.237,0.049,0.334,-5.337
0.171,0.051,0.333,-5.337
0.196,0.047,0.338,-5.337
0.213,0.048,0.342,-5.337
0.172,0.053,0.338,-5.337
0.120,0.053,0.329,-5.337
0.166,0.050,0.327,-5.337
0.254,0.047,0.332,-5.337
0.268,0.047,0.341,-5.337
0.210,0.048,0.340,-5.337
0.160,0.050,0.337,-5.337
0.123,0.050,0.333,-5.337
0.166,0.050,0.331,-5.337
0.217,0.050,0.331,-5.337
0.189,0.052,0.336,-5.337
0.161,0.050,0.337,-5.337
0.200,0.050,0.336,-5.337
0.140,0.054,0.335,-5.337
0.092,0.057,0.337,-5.337
0.110,0.059,0.339,-5.337
0.129,0.061,0.335,-5.337
0.140,0.058,0.332,-5.337
0.127,0.057,0.333,-5.337
0.142,0.056,0.335,-5.337
0.186,0.056,0.333,-5.337
0.253,0.054,0.333,-5.337
0.213,0.054,0.331,-5.337
0.160,0.059,0.335,-5.337
0.150,0.059,0.338,-5.337
0.117,0.057,0.338,-5.337
0.183,0.055,0.336,-5.337
0.183,0.056,0.335,-5.337
0.095,0.058,0.332,-5.337
0.084,0.060,0.330,-5.337
0.165,0.056,0.329,-5.337
0.156,0.057,0.330,-5.337
0.128,0.056,0.332,-5.337
0.180,0.055,0.334,-5.337
0.251,0.051,0.337,-5.337
0.210,0.052,0.339,-5.337
0.191,0.052,0.338,-5.337
0.234,0.050,0.339,-5.337
0.284,0.051,0.338,-5.337
0.336,0.052,0.333,-5.337
0.312,0.052,0.329,-5.337
0.229,0.049,0.325,-5.337
0.248,0.049,0.327,-5.337
0.317,0.048,0.328,-5.337
0.316,0.049,0.333,-5.337
0.314,0.048,0.335,-5.337
0.264,0.050,0.334,-5.337
0.221,0.052,0.334,-5.337
0.277,0.051,0.338,-5.337
0.273,0.053,0.337,-5.337
0.223,0.056,0.332,-5.337
0.220,0.055,0.330,-5.337
0.232,0.054,0.332,-5.337
0.142,0.056,0.335,-5.337
0.107,0.057,0.335,-5.337
0.159,0.059,0.333,-5.337
0.177,0.057,0.333,-5.337
0.191,0.054,0.332,-5.337
0.189,0.053,0.334,-5.337
0.151,0.057,0.336,-5.337
0.124,0.057,0.337,-5.337
0.125,0.057,0.335,-5.337
0.137,0.058,0.332,-5.337
0.173,0.056,0.334,-5.337
0.219,0.055,0.338,-5.337
0.248,0.052,0.337,-5.337
0.283,0.051,0.335,-5.337
0.213,0.054,0.337,-5.337
0.192,0.055,0.336,-5.337
0.194,0.055,0.333,-5.337
0.229,0.053,0.329,-5.337
0.135,0.056,0.331,-5.337
0.046,0.058,0.334,-5.337
0.115,0.057,0.332,-5.337
0.194,0.057,0.329,-5.337
0.193,0.054,0.328,-5.337
0.178,0.051,0.333,-5.337
0.203,0.051,0.340,-5.337
0.193,0.051,0.337,-5.337
0.205,0.050,0.335,-5.337
0.274,0.047,0.337,-5.337
0.271,0.050,0.340,-5.337
0.182,0.054,0.339,-5.337
0.145,0.058,0.336,-5.337
0.163,0.055,0.332,-5.337
0.171,0.055,0.329,-5.337
0.151,0.054,0.330,-5.337
0.131,0.055,0.332,-5.337
0.182,0.051,0.334,-5.337
0.214,0.046,0.335,-5.337
0.198,0.047,0.335,-5.337
0.192,0.047,0.334,-5.337
0.228,0.046,0.334,-5.337
0.213,0.048,0.330,-5.337
0.249,0.046,0.331,-5.337
0.233,0.043,0.334,-5.337
0.168,0.042,0.339,-5.337
0.203,0.043,0.343,-5.337
0.256,0.047,0.341,-5.337
0.307,0.044,0.336,-5.337
0.260,0.046,0.334,-5.337
0.239,0.045,0.332,-5.337
0.253,0.045,0.333,-5.337
0.255,0.048,0.333,-5.337
0.236,0.050,0.334,-5.337
0.223,0.048,0.332,-5.337
0.214,0.048,0.335,-5.337
0.197,0.049,0.336,-5.337
0.148,0.049,0.335,-5.337
0.116,0.046,0.334,-5.337
0.174,0.043,0.331,-5.337
0.214,0.044,0.330,-5.337
0.278,0.043,0.335,-5.337
0.284,0.046,0.345,-5.337
0.235,0.044,0.342,-5.337
0.160,0.047,0.338,-5.337
0.115,0.047,0.334,-5.337
0.178,0.047,0.332,-5.337
0.170,0.049,0.330,-5.337
0.191,0.050,0.331,-5.337
0.218,0.046,0.333,-5.337
0.206,0.043,0.334,-5.337
0.193,0.041,0.332,-5.337
0.230,0.043,0.333,-5.337
0.219,0.047,0.335,-5.337
0.247,0.046,0.335,-5.337
0.295,0.041,0.335,-5.337
0.272,0.042,0.338,-5.337
0.238,0.045,0.337,-5.337
0.202,0.043,0.333,-5.337
0.134,0.042,0.333,-5.337
0.182,0.042,0.333,-5.337
0.195,0.040,0.330,-5.337
0.151,0.038,0.329,-5.337
0.142,0.038,0.329,-5.337
0.175,0.039,0.334,-5.337
0.131,0.043,0.340,-5.337
0.151,0.042,0.342,-5.337
0.235,0.042,0.338,-5.337
0.282,0.041,0.332,-5.337
0.247,0.043,0.331,-5.337
0.232,0.045,0.332,-5.337
0.208,0.047,0.334,-5.337
0.157,0.046,0.337,-5.337
0.169,0.043,0.336,-5.337
0.175,0.042,0.333,-5.337
0.165,0.044,0.335,-5.337
0.233,0.043,0.337,-5.337
0.303,0.039,0.334,-5.337
0.319,0.039,0.333,-5.337
0.291,0.040,0.335,-5.337
0.266,0.038,0.333,-5.337
0.254,0.040,0.332,-5.337
0.199,0.042,0.335,-5.337
0.158,0.042,0.336,-5.337
0.173,0.041,0.334,-5.337
0.195,0.042,0.334,-5.337
0.189,0.045,0.332,-5.337
0.178,0.045,0.330,-5.337
0.176,0.044,0.333,-5.337
0.172,0.045,0.330,-5.337
0.159,0.044,0.328,-5.337
0.124,0.046,0.329,-5.337
0.152,0.042,0.333,-5.337
0.230,0.036,0.334,-5.337
0.229,0.036,0.340,-5.337
0.189,0.039,0.340,-5.337
0.216,0.039,0.341,-5.337
0.297,0.034,0.340,-5.337
0.237,0.036,0.337,-5.337
0.121,0.037,0.335,-5.337
0.145,0.038,0.331,-5.337
0.213,0.039,0.332,-5.337
0.174,0.040,0.334,-5.337
0.159,0.040,0.334,-5.337
0.176,0.039,0.331,-5.337
0.291,0.040,0.329,-5.337
0.284,0.042,0.330,-5.337
0.107,0.041,0.337,-5.337
0.074,0.040,0.340,-5.337
0.178,0.038,0.338,-5.337
0.239,0.036,0.334,-5.337
0.215,0.038,0.336,-5.337
0.162,0.037,0.336,-5.337
0.237,0.035,0.334,-5.337
0.284,0.032,0.328,-5.337
0.241,0.031,0.325,-5.337
0.214,0.031,0.327,-5.337
0.197,0.034,0.332,-5.337
0.267,0.032,0.336,-5.337
0.266,0.034,0.335,-5.337
0.193,0.034,0.333,-5.337
0.187,0.037,0.333,-5.337
0.214,0.036,0.330,-5.337
0.240,0.034,0.333,-5.337
0.253,0.033,0.336,-5.337
0.208,0.037,0.334,-5.337
0.201,0.039,0.329,-5.337
0.247,0.040,0.327,-5.337
0.250,0.039,0.331,-5.337
0.180,0.037,0.335,-5.337
0.095,0.042,0.334,-5.337
0.087,0.037,0.329,-5.337
0.130,0.033,0.327,-5.337
0.159,0.037,0.327,-5.337
0.121,0.039,0.330,-5.337
0.163,0.035,0.332,-5.337
0.219,0.038,0.332,-5.337
0.221,0.041,0.328,-5.337
0.204,0.042,0.329,-5.337
0.217,0.036,0.330,-5.337
0.201,0.034,0.335,-5.337
0.205,0.033,0.336,-5.337
0.202,0.037,0.335,-5.337
0.179,0.040,0.334,-5.337
0.162,0.038,0.335,-5.337
0.223,0.033,0.337,-5.337
0.316,0.031,0.334,-5.337
0.282,0.032,0.333,-5.337
0.178,0.035,0.333,-5.337
0.162,0.033,0.331,-5.337
0.218,0.036,0.328,-5.337
0.208,0.035,0.330,-5.337
0.206,0.033,0.330,-5.337
0.172,0.034,0.329,-5.337
0.280,0.030,0.328,-5.337
0.287,0.033,0.331,-5.337
0.263,0.034,0.332,-5.337
0.273,0.028,0.337,-5.337
0.307,0.027,0.336,-5.337
0.329,0.028,0.336,-5.337
0.301,0.031,0.333,-5.337
0.242,0.033,0.332,-5.337
0.215,0.034,0.330,-5.337
0.259,0.029,0.325,-5.337
0.258,0.029,0.323,-5.337
0.234,0.032,0.330,-5.337
0.248,0.032,0.334,-5.337
0.156,0.035,0.336,-5.337
0.115,0.034,0.337,-5.337
0.100,0.035,0.338,-5.337
0.118,0.038,0.335,-5.337
0.139,0.035,0.332,-5.337
0.200,0.033,0.331,-5.337
0.223,0.032,0.335,-5.337
0.190,0.030,0.336,-5.337
0.230,0.028,0.330,-5.337
0.289,0.029,0.328,-5.337
0.264,0.031,0.327,-5.337
0.188,0.033,0.331,-5.337
0.166,0.032,0.334,-5.337
0.124,0.034,0.337,-5.337
0.122,0.031,0.334,-5.337
0.104,0.030,0.331,-5.337
0.161,0.030,0.331,-5.337
0.230,0.029,0.334,-5.337
0.313,0.023,0.335,-5.337
0.330,0.026,0.332,-5.337
0.154,0.029,0.331,-5.337
0.147,0.029,0.337,-5.337
0.246,0.031,0.343,-5.337
0.259,0.033,0.341,-5.337
0.257,0.033,0.333,-5.337
0.215,0.036,0.330,-5.337
0.244,0.035,0.326,-5.337
0.259,0.037,0.326,-5.337
0.176,0.038,0.328,-5.337
0.167,0.040,0.331,-5.337
0.205,0.037,0.331,-5.337
0.194,0.036,0.332,-5.337
0.221,0.034,0.335,-5.337
0.224,0.032,0.337,-5.337
0.256,0.028,0.334,-5.337
0.315,0.023,0.332,-5.337
0.271,0.026,0.335,-5.337
0.158,0.027,0.331,-5.337
0.184,0.030,0.330,-5.337
0.259,0.030,0.331,-5.337
0.177,0.034,0.329,-5.337
0.152,0.032,0.325,-5.337
0.177,0.031,0.326,-5.337
0.151,0.035,0.330,-5.337
0.134,0.033,0.335,-5.337
0.185,0.030,0.339,-5.337
0.293,0.027,0.339,-5.337
0.365,0.029,0.337,-5.337
0.309,0.033,0.334,-5.337
0.188,0.035,0.327,-5.337
0.077,0.038,0.324,-5.337
0.111,0.033,0.327,-5.337
0.156,0.031,0.331,-5.337
0.114,0.034,0.330,-5.337
0.133,0.034,0.327,-5.337
0.156,0.035,0.330,-5.337
0.188,0.034,0.331,-5.337
0.173,0.036,0.331,-5.337
0.143,0.040,0.327,-5.337
0.088,0.041,0.329,-5.337
0.148,0.036,0.329,-5.337
0.277,0.031,0.326,-5.337
0.346,0.029,0.328,-5.337
0.259,0.034,0.330,-5.337
0.221,0.036,0.330,-5.337
0.264,0.035,0.328,-5.337
0.279,0.033,0.323,-5.337
0.237,0.028,0.323,-5.337
0.185,0.030,0.328,-5.337
0.189,0.033,0.334,-5.337
0.193,0.032,0.334,-5.337
0.182,0.031,0.330,-5.337
0.197,0.029,0.329,-5.337
0.260,0.028,0.333,-5.337
0.249,0.032,0.338,-5.337
0.218,0.029,0.333,-5.337
0.246,0.028,0.327,-5.337
0.197,0.029,0.326,-5.337
0.127,0.034,0.327,-5.337
0.153,0.038,0.328,-5.337
0.176,0.035,0.331,-5.337
0.210,0.032,0.330,-5.337
0.243,0.032,0.330,-5.337
0.207,0.034,0.331,-5.337
0.132,0.038,0.331,-5.337
0.157,0.035,0.331,-5.337
0.279,0.033,0.333,-5.337
0.280,0.035,0.333,-5.337
0.192,0.039,0.330,-5.337
0.189,0.040,0.323,-5.337
0.226,0.039,0.322,-5.337
0.248,0.038,0.328,-5.337
0.202,0.036,0.328,-5.337
0.242,0.033,0.328,-5.337
0.298,0.033,0.333,-5.337
0.264,0.033,0.335,-5.337
0.221,0.037,0.334,-5.337
0.192,0.035,0.328,-5.337
0.218,0.034,0.324,-5.337
0.191,0.034,0.326,-5.337
0.183,0.038,0.333,-5.337
0.153,0.041,0.336,-5.337
0.177,0.041,0.331,-5.337
0.166,0.040,0.330,-5.337
0.085,0.038,0.329,-5.337
0.106,0.039,0.332,-5.337
0.205,0.038,0.330,-5.337
0.212,0.042,0.331,-5.337
0.110,0.045,0.329,-5.337
0.118,0.042,0.332,-5.337
0.152,0.040,0.333,-5.337
0.142,0.040,0.330,-5.337
0.151,0.042,0.328,-5.337
0.112,0.044,0.330,-5.337
0.097,0.042,0.336,-5.337
0.143,0.040,0.332,-5.337
0.242,0.040,0.325,-5.337
0.289,0.043,0.326,-5.337
0.227,0.041,0.331,-5.337
0.230,0.035,0.332,-5.337
0.281,0.036,0.330,-5.337
0.291,0.041,0.329,-5.337
0.273,0.042,0.328,-5.337
0.200,0.040,0.325,-5.337
0.136,0.038,0.328,-5.337
0.104,0.041,0.328,-5.337
0.137,0.043,0.332,-5.337
0.143,0.045,0.332,-5.337
0.151,0.042,0.335,-5.337
0.183,0.043,0.333,-5.337
0.190,0.040,0.330,-5.337
0.137,0.041,0.328,-5.337
0.132,0.042,0.331,-5.337
0.194,0.039,0.336,-5.337
0.181,0.040,0.336,-5.337
0.275,0.037,0.334,-5.337
0.310,0.037,0.331,-5.337
0.253,0.040,0.329,-5.337
0.134,0.045,0.330,-5.337
0.093,0.045,0.332,-5.337
0.122,0.042,0.331,-5.337
0.157,0.043,0.330,-5.337
0.190,0.046,0.332,-5.337
0.140,0.047,0.336,-5.337
0.121,0.046,0.333,-5.337
0.137,0.045,0.328,-5.337
0.090,0.044,0.328,-5.337
0.078,0.042,0.328,-5.337
0.138,0.041,0.327,-5.337
0.199,0.039,0.328,-5.337
0.202,0.040,0.328,-5.337
0.189,0.042,0.332,-5.337
0.140,0.043,0.333,-5.337
0.148,0.045,0.334,-5.337
0.218,0.043,0.332,-5.337
0.262,0.041,0.333,-5.337
0.236,0.040,0.331,-5.337
0.195,0.045,0.329,-5.337
0.158,0.048,0.330,-5.337
0.158,0.050,0.330,-5.337
0.157,0.044,0.328,-5.337
0.248,0.043,0.325,-5.337
0.304,0.042,0.327,-5.337
0.298,0.045,0.332,-5.337
0.250,0.043,0.336,-5.337
0.099,0.043,0.336,-5.337
0.023,0.043,0.334,-5.337
0.114,0.039,0.331,-5.337
0.185,0.039,0.330,-5.337
0.172,0.042,0.328,-5.337
0.095,0.043,0.327,-5.337
0.100,0.043,0.329,-5.337
0.165,0.042,0.331,-5.337
0.266,0.043,0.331,-5.337
0.232,0.046,0.330,-5.337
0.179,0.042,0.327,-5.337
0.237,0.041,0.329,-5.337
0.269,0.040,0.328,-5.337
0.279,0.040,0.330,-5.337
0.212,0.040,0.333,-5.337
0.104,0.043,0.332,-5.337
0.107,0.043,0.329,-5.337
0.193,0.042,0.330,-5.337
0.220,0.039,0.329,-5.337
0.184,0.040,0.328,-5.337
0.157,0.043,0.326,-5.337
0.217,0.044,0.324,-5.337
0.228,0.045,0.325,-5.337
0.192,0.044,0.329,-5.337
0.274,0.044,0.331,-5.337
0.282,0.041,0.331,-5.337
0.189,0.045,0.330,-5.337
0.186,0.046,0.331,-5.337
0.198,0.050,0.333,-5.337
0.139,0.049,0.334,-5.337
0.139,0.048,0.332,-5.337
0.238,0.046,0.330,-5.337
0.207,0.051,0.329,-5.337
0.147,0.051,0.329,-5.337
0.198,0.047,0.329,-5.337
0.216,0.052,0.327,-5.337
0.205,0.049,0.327,-5.337
0.215,0.047,0.330,-5.337
0.208,0.051,0.329,-5.337
0.214,0.051,0.326,-5.337
0.189,0.049,0.327,-5.337
0.162,0.047,0.329,-5.337
0.179,0.049,0.332,-5.337
0.188,0.052,0.331,-5.337
0.093,0.058,0.330,-5.337
0.020,0.058,0.331,-5.337
0.082,0.054,0.331,-5.337
0.109,0.051,0.329,-5.337
0.151,0.053,0.325,-5.337
0.180,0.051,0.328,-5.337
0.200,0.051,0.327,-5.337
0.197,0.045,0.329,-5.337
0.200,0.044,0.331,-5.337
0.191,0.049,0.331,-5.337
0.154,0.048,0.327,-5.337
0.189,0.047,0.326,-5.337
0.205,0.045,0.325,-5.337
0.248,0.044,0.326,-5.337
0.282,0.043,0.330,-5.337
0.216,0.048,0.330,-5.337
0.174,0.050,0.329,-5.337
0.195,0.049,0.328,-5.337
0.154,0.050,0.326,-5.337
0.158,0.051,0.329,-5.337
0.205,0.049,0.334,-5.337
0.206,0.051,0.333,-5.337
0.175,0.053,0.327,-5.337
0.143,0.054,0.325,-5.337
0.177,0.049,0.328,-5.337
0.223,0.048,0.330,-5.337
0.217,0.052,0.332,-5.337
0.263,0.049,0.328,-5.337
0.320,0.053,0.330,-5.337
0.320,0.051,0.334,-5.337
0.228,0.052,0.336,-5.337
0.181,0.054,0.331,-5.337
0.187,0.053,0.326,-5.337
0.197,0.050,0.324,-5.337
0.126,0.054,0.325,-5.337
0.098,0.054,0.328,-5.337
0.138,0.052,0.334,-5.337
0.180,0.049,0.334,-5.337
0.190,0.050,0.333,-5.337
0.245,0.051,0.335,-5.337
0.191,0.052,0.333,-5.337
0.087,0.052,0.329,-5.337
0.013,0.057,0.326,-5.337
0.115,0.055,0.325,-5.337
0.167,0.049,0.327,-5.337
0.225,0.049,0.329,-5.337
0.223,0.053,0.330,-5.337
0.197,0.055,0.328,-5.337
0.164,0.055,0.325,-5.337
0.140,0.054,0.328,-5.337
0.160,0.054,0.331,-5.337
0.137,0.059,0.332,-5.337
0.123,0.058,0.332,-5.337
0.197,0.059,0.330,-5.337
0.259,0.057,0.329,-5.337
0.241,0.056,0.332,-5.337
0.212,0.056,0.332,-5.337
0.188,0.057,0.332,-5.337
0.132,0.054,0.329,-5.337
0.158,0.057,0.330,-5.337
0.208,0.056,0.332,-5.337
0.193,0.053,0.336,-5.337
0.246,0.052,0.336,-5.337
0.221,0.053,0.335,-5.337
0.198,0.054,0.332,-5.337
0.210,0.057,0.335,-5.337
0.127,0.060,0.335,-5.337
0.094,0.056,0.333,-5.337
0.153,0.053,0.331,-5.337
0.232,0.055,0.329,-5.337
0.174,0.058,0.328,-5.337
0.123,0.057,0.332,-5.337
0.188,0.057,0.335,-5.337
0.146,0.059,0.331,-5.337
0.082,0.058,0.330,-5.337
0.120,0.057,0.332,-5.337
0.110,0.055,0.333,-5.337
0.184,0.054,0.331,-5.337
0.262,0.054,0.331,-5.337
0.237,0.056,0.331,-5.337
0.120,0.058,0.332,-5.337
0.052,0.059,0.335,-5.337
0.096,0.057,0.334,-5.337
0.147,0.056,0.332,-5.337
0.185,0.058,0.330,-5.337
0.175,0.058,0.328,-5.337
0.184,0.056,0.331,-5.337
0.204,0.057,0.335,-5.337
0.246,0.059,0.337,-5.337
0.210,0.062,0.333,-5.337
0.159,0.061,0.331,-5.337
0.187,0.057,0.331,-5.337
0.197,0.059,0.332,-5.337
0.177,0.059,0.336,-5.337
0.169,0.059,0.335,-5.337
0.212,0.059,0.331,-5.337
0.234,0.058,0.330,-5.337
0.213,0.058,0.330,-5.337
0.176,0.057,0.331,-5.337
0.225,0.056,0.332,-5.337
0.253,0.058,0.333,-5.337
0.176,0.059,0.337,-5.337
0.142,0.058,0.337,-5.337
0.161,0.058,0.335,-5.337
0.147,0.059,0.332,-5.337
0.130,0.062,0.332,-5.337
0.132,0.062,0.326,-5.337
0.159,0.060,0.325,-5.337
0.169,0.058,0.326,-5.337
0.169,0.059,0.330,-5.337
0.198,0.058,0.332,-5.337
0.229,0.057,0.337,-5.337
0.234,0.057,0.341,-5.337
0.219,0.057,0.338,-5.337
0.227,0.056,0.332,-5.337
0.199,0.055,0.328,-5.337
0.179,0.055,0.327,-5.337
0.137,0.054,0.327,-5.337
0.131,0.056,0.330,-5.337
0.143,0.052,0.329,-5.337
0.139,0.051,0.331,-5.337
0.150,0.051,0.328,-5.337
0.194,0.050,0.325,-5.337
0.194,0.047,0.328,-5.337
0.143,0.050,0.335,-5.337
0.214,0.047,0.332,-5.337
0.255,0.052,0.328,-5.337
0.280,0.047,0.329,-5.337
0.222,0.048,0.332,-5.337
0.143,0.050,0.334,-5.337
0.105,0.052,0.333,-5.337
0.164,0.050,0.332,-5.337
0.203,0.046,0.331,-5.337
0.198,0.047,0.324,-5.337
0.173,0.053,0.320,-5.337
0.147,0.054,0.324,-5.337
0.220,0.052,0.326,-5.337
0.170,0.051,0.328,-5.337
0.140,0.048,0.329,-5.337
0.223,0.043,0.331,-5.337
0.254,0.043,0.330,-5.337
0.269,0.041,0.329,-5.337
0.240,0.041,0.329,-5.337
0.187,0.044,0.330,-5.337
0.203,0.041,0.329,-5.337
0.263,0.039,0.331,-5.337
0.241,0.042,0.331,-5.337
0.189,0.044,0.333,-5.337
0.130,0.046,0.334,-5.337
0.129,0.043,0.332,-5.337
0.227,0.038,0.327,-5.337
0.272,0.036,0.324,-5.337
0.228,0.043,0.327,-5.337
0.162,0.047,0.329,-5.337
0.173,0.043,0.334,-5.337
0.261,0.041,0.334,-5.337
0.243,0.042,0.329,-5.337
0.173,0.047,0.323,-5.337
0.188,0.044,0.323,-5.337
0.284,0.041,0.329,-5.337
0.312,0.040,0.332,-5.337
0.256,0.041,0.331,-5.337
0.228,0.048,0.329,-5.337
0.205,0.049,0.327,-5.337
0.186,0.045,0.329,-5.337
0.164,0.045,0.333,-5.337
0.242,0.041,0.337,-5.337
0.281,0.046,0.337,-5.337
0.221,0.044,0.334,-5.337
0.230,0.044,0.328,-5.337
0.205,0.046,0.326,-5.337
0.171,0.046,0.326,-5.337
0.182,0.042,0.330,-5.337
0.130,0.043,0.332,-5.337
0.057,0.045,0.330,-5.337
0.070,0.045,0.329,-5.337
0.109,0.046,0.332,-5.337
0.150,0.047,0.334,-5.337
0.144,0.044,0.338,-5.337
0.220,0.040,0.334,-5.337
0.269,0.039,0.328,-5.337
0.221,0.042,0.326,-5.337
0.145,0.043,0.331,-5.337
0.129,0.042,0.334,-5.337
0.219,0.041,0.333,-5.337
0.250,0.040,0.335,-5.337
0.180,0.042,0.333,-5.337
0.196,0.039,0.328,-5.337
0.235,0.037,0.327,-5.337
0.283,0.035,0.330,-5.337
0.222,0.035,0.329,-5.337
0.256,0.037,0.330,-5.337
0.255,0.037,0.331,-5.337
0.241,0.039,0.331,-5.337
0.230,0.039,0.334,-5.337
0.179,0.042,0.335,-5.337
0.081,0.041,0.332,-5.337
0.117,0.042,0.332,-5.337
0.219,0.043,0.331,-5.337
0.242,0.043,0.329,-5.337
0.210,0.043,0.331,-5.337
0.169,0.043,0.332,-5.337
0.177,0.044,0.329,-5.337
0.180,0.046,0.330,-5.337
0.230,0.039,0.335,-5.337
0.217,0.036,0.336,-5.337
0.215,0.039,0.329,-5.337
0.143,0.044,0.326,-5.337
0.088,0.043,0.330,-5.337
0.108,0.039,0.329,-5.337
0.233,0.038,0.330,-5.337
0.200,0.043,0.333,-5.337
0.130,0.043,0.334,-5.337
0.152,0.042,0.332,-5.337
0.146,0.043,0.332,-5.337
0.131,0.041,0.332,-5.337
0.127,0.042,0.334,-5.337
0.250,0.034,0.334,-5.337
0.342,0.034,0.333,-5.337
0.278,0.035,0.328,-5.337
0.248,0.036,0.327,-5.337
0.262,0.031,0.327,-5.337
0.213,0.035,0.327,-5.337
0.180,0.036,0.327,-5.337
0.263,0.032,0.328,-5.337
0.320,0.027,0.330,-5.337
0.244,0.030,0.333,-5.337
0.195,0.031,0.332,-5.337
0.175,0.034,0.328,-5.337
0.156,0.034,0.331,-5.337
0.159,0.034,0.333,-5.337
0.130,0.036,0.333,-5.337
0.143,0.036,0.333,-5.337
0.252,0.028,0.332,-5.337
0.307,0.028,0.324,-5.337
0.271,0.029,0.322,-5.337
0.206,0.031,0.324,-5.337
0.238,0.033,0.332,-5.337
0.219,0.032,0.336,-5.337
0.185,0.032,0.336,-5.337
0.229,0.032,0.331,-5.337
0.244,0.030,0.327,-5.337
0.204,0.029,0.325,-5.337
0.238,0.034,0.326,-5.337
0.266,0.038,0.330,-5.337
0.202,0.038,0.334,-5.337
0.173,0.033,0.332,-5.337
0.157,0.036,0.331,-5.337
0.131,0.039,0.330,-5.337
0.158,0.037,0.334,-5.337
0.183,0.035,0.336,-5.337
0.209,0.032,0.330,-5.337
0.207,0.035,0.327,-5.337
0.260,0.037,0.328,-5.337
0.254,0.037,0.334,-5.337
0.157,0.035,0.335,-5.337
0.118,0.035,0.332,-5.337
0.121,0.036,0.328,-5.337
0.177,0.036,0.331,-5.337
0.245,0.036,0.330,-5.337
0.175,0.039,0.328,-5.337
0.100,0.036,0.327,-5.337
0.136,0.035,0.328,-5.337
0.175,0.031,0.330,-5.337
0.221,0.031,0.333,-5.337
0.223,0.031,0.335,-5.337
0.245,0.034,0.332,-5.337
0.188,0.037,0.333,-5.337
0.115,0.039,0.332,-5.337
0.159,0.035,0.330,-5.337
0.232,0.032,0.332,-5.337
0.298,0.034,0.330,-5.337
0.306,0.035,0.323,-5.337
0.250,0.038,0.326,-5.337
0.265,0.040,0.329,-5.337
0.222,0.038,0.332,-5.337
0.233,0.038,0.330,-5.337
0.173,0.039,0.331,-5.337
0.182,0.036,0.336,-5.337
0.243,0.037,0.336,-5.337
0.239,0.038,0.332,-5.337
0.265,0.035,0.331,-5.337
0.238,0.039,0.330,-5.337
0.237,0.040,0.330,-5.337
0.289,0.037,0.333,-5.337
0.275,0.037,0.335,-5.337
0.241,0.034,0.331,-5.337
0.209,0.038,0.327,-5.337
0.189,0.036,0.324,-5.337
0.242,0.035,0.325,-5.337
0.234,0.037,0.328,-5.337
0.257,0.037,0.329,-5.337
0.296,0.036,0.330,-5.337
0.215,0.036,0.331,-5.337
0.185,0.037,0.331,-5.337
0.234,0.038,0.327,-5.337
0.192,0.035,0.328,-5.337
0.126,0.038,0.333,-5.337
0.075,0.038,0.337,-5.337
0.142,0.035,0.335,-5.337
0.143,0.035,0.327,-5.337
0.131,0.035,0.326,-5.337
0.163,0.028,0.332,-5.337
0.192,0.033,0.336,-5.337
0.237,0.033,0.337,-5.337
0.198,0.033,0.332,-5.337
0.169,0.034,0.332,-5.337
0.245,0.034,0.331,-5.337
0.227,0.035,0.330,-5.337
0.204,0.036,0.328,-5.337
0.191,0.035,0.327,-5.337
0.214,0.032,0.327,-5.337
0.203,0.034,0.325,-5.337
0.171,0.039,0.329,-5.337
0.232,0.042,0.331,-5.337
0.249,0.037,0.330,-5.337
0.211,0.036,0.330,-5.337
0.219,0.037,0.330,-5.337
0.226,0.042,0.332,-5.337
0.236,0.040,0.334,-5.337
0.238,0.037,0.334,-5.337
0.258,0.031,0.330,-5.337
0.165,0.036,0.331,-5.337
0.122,0.041,0.335,-5.337
0.237,0.039,0.333,-5.337
0.292,0.034,0.330,-5.337
0.263,0.030,0.329,-5.337
0.303,0.034,0.334,-5.337
0.277,0.039,0.335,-5.337
0.162,0.041,0.335,-5.337
0.085,0.037,0.332,-5.337
0.138,0.036,0.329,-5.337
0.168,0.037,0.331,-5.337
0.178,0.036,0.332,-5.337
0.205,0.034,0.329,-5.337
0.273,0.035,0.327,-5.337
0.267,0.035,0.329,-5.337
0.184,0.037,0.330,-5.337
0.151,0.036,0.327,-5.337
0.148,0.041,0.324,-5.337
0.145,0.035,0.327,-5.337
0.230,0.029,0.334,-5.337
0.347,0.025,0.338,-5.337
0.372,0.030,0.335,-5.337
0.273,0.035,0.336,-5.337
0.198,0.036,0.334,-5.337
0.254,0.030,0.335,-5.337
0.238,0.029,0.331,-5.337
0.216,0.033,0.331,-5.337
0.208,0.032,0.334,-5.337
0.232,0.031,0.337,-5.337
0.219,0.031,0.333,-5.337
0.172,0.034,0.329,-5.337
0.095,0.036,0.330,-5.337
0.145,0.035,0.330,-5.337
0.200,0.036,0.328,-5.337
0.204,0.042,0.328,-5.337
0.108,0.040,0.331,-5.337
0.126,0.037,0.334,-5.337
0.210,0.035,0.333,-5.337
0.263,0.035,0.330,-5.337
0.178,0.038,0.326,-5.337
0.122,0.039,0.328,-5.337
0.151,0.040,0.337,-5.337
0.166,0.039,0.341,-5.337
0.191,0.042,0.335,-5.337
0.236,0.036,0.331,-5.337
0.295,0.033,0.333,-5.337
0.367,0.033,0.334,-5.337
0.341,0.031,0.337,-5.337
0.319,0.032,0.338,-5.337
0.191,0.036,0.339,-5.337
0.168,0.038,0.335,-5.337
0.192,0.041,0.330,-5.337
0.257,0.036,0.325,-5.337
0.317,0.038,0.325,-5.337
0.260,0.040,0.325,-5.337
0.237,0.037,0.328,-5.337
0.256,0.033,0.331,-5.337
0.266,0.035,0.335,-5.337
0.199,0.040,0.332,-5.337
0.188,0.039,0.329,-5.337
0.257,0.037,0.326,-5.337
0.282,0.036,0.326,-5.337
0.261,0.037,0.329,-5.337
0.293,0.042,0.334,-5.337
0.218,0.041,0.335,-5.337
0.187,0.040,0.332,-5.337
0.128,0.045,0.329,-5.337
0.080,0.045,0.328,-5.337
0.154,0.041,0.329,-5.337
0.242,0.039,0.326,-5.337
0.275,0.038,0.327,-5.337
0.193,0.039,0.328,-5.337
0.102,0.040,0.331,-5.337
0.130,0.037,0.333,-5.337
0.186,0.040,0.337,-5.337
0.184,0.044,0.332,-5.337
0.183,0.039,0.327,-5.337
0.271,0.033,0.326,-5.337
0.264,0.038,0.327,-5.337
0.212,0.043,0.326,-5.337
0.213,0.044,0.328,-5.337
0.195,0.043,0.326,-5.337
0.124,0.046,0.327,-5.337
0.112,0.042,0.329,-5.337
0.151,0.042,0.332,-5.337
0.130,0.044,0.330,-5.337
0.198,0.039,0.329,-5.337
0.229,0.039,0.327,-5.337
0.186,0.041,0.327,-5.337
0.241,0.039,0.332,-5.337
0.250,0.038,0.330,-5.337
0.240,0.038,0.330,-5.337
0.195,0.040,0.332,-5.337
0.216,0.040,0.335,-5.337
0.276,0.040,0.332,-5.337
0.321,0.038,0.329,-5.337
0.357,0.039,0.328,-5.337
0.256,0.043,0.328,-5.337
0.221,0.040,0.330,-5.337
0.224,0.040,0.331,-5.337
0.146,0.043,0.328,-5.337
0.096,0.045,0.328,-5.337
0.179,0.041,0.329,-5.337
0.239,0.040,0.332,-5.337
0.137,0.041,0.333,-5.337
0.115,0.046,0.331,-5.337
0.122,0.046,0.328,-5.337
0.211,0.043,0.325,-5.337
0.269,0.045,0.325,-5.337
0.203,0.045,0.327,-5.337
0.117,0.048,0.331,-5.337
0.120,0.045,0.336,-5.337
0.179,0.042,0.337,-5.337
0.148,0.041,0.336,-5.337
0.138,0.042,0.337,-5.337
0.158,0.048,0.333,-5.337
0.186,0.045,0.326,-5.337
0.271,0.044,0.325,-5.337
0.254,0.049,0.329,-5.337
0.164,0.049,0.330,-5.337
0.139,0.054,0.334,-5.337
0.178,0.053,0.334,-5.337
0.207,0.050,0.333,-5.337
0.179,0.050,0.330,-5.337
0.100,0.056,0.326,-5.337
0.083,0.054,0.327,-5.337
0.125,0.050,0.330,-5.337
0.098,0.049,0.331,-5.337
0.215,0.047,0.328,-5.337
0.213,0.052,0.327,-5.337
0.082,0.057,0.329,-5.337
0.099,0.053,0.328,-5.337
0.204,0.048,0.328,-5.337
0.231,0.046,0.328,-5.337
0.219,0.045,0.330,-5.337
0.255,0.045,0.333,-5.337
0.235,0.046,0.333,-5.337
0.135,0.047,0.333,-5.337
0.132,0.046,0.330,-5.337
0.165,0.046,0.330,-5.337
0.151,0.051,0.332,-5.337
0.146,0.054,0.333,-5.337
0.172,0.048,0.332,-5.337
0.127,0.046,0.332,-5.337
0.148,0.046,0.329,-5.337
0.237,0.047,0.330,-5.337
0.173,0.049,0.329,-5.337
0.111,0.050,0.329,-5.337
0.111,0.050,0.330,-5.337
0.109,0.051,0.331,-5.337
0.162,0.049,0.335,-5.337
0.194,0.052,0.336,-5.337
0.227,0.054,0.330,-5.337
0.185,0.057,0.326,-5.337
0.145,0.056,0.326,-5.337
0.145,0.054,0.329,-5.337
0.180,0.053,0.328,-5.337
0.279,0.050,0.324,-5.337
0.275,0.049,0.330,-5.337
0.220,0.051,0.331,-5.337
0.269,0.050,0.330,-5.337
0.273,0.051,0.330,-5.337
0.190,0.053,0.332,-5.337
0.189,0.052,0.332,-5.337
0.224,0.054,0.330,-5.337
0.191,0.054,0.328,-5.337
0.199,0.051,0.330,-5.337
0.181,0.052,0.330,-5.337
0.127,0.054,0.328,-5.337
0.136,0.052,0.324,-5.337
0.205,0.055,0.323,-5.337
0.203,0.055,0.325,-5.337
0.230,0.054,0.325,-5.337
0.185,0.053,0.325,-5.337
0.173,0.056,0.328,-5.337
0.237,0.053,0.331,-5.337
0.246,0.052,0.332,-5.337
0.187,0.053,0.334,-5.337
0.160,0.053,0.332,-5.337
0.176,0.054,0.332,-5.337
0.257,0.050,0.333,-5.337
0.266,0.045,0.332,-5.337
0.242,0.049,0.329,-5.337
0.240,0.053,0.328,-5.337
0.308,0.051,0.329,-5.337
0.273,0.050,0.330,-5.337
0.278,0.051,0.329,-5.337
0.334,0.055,0.328,-5.337
0.323,0.055,0.325,-5.337
0.210,0.056,0.326,-5.337
0.130,0.053,0.326,-5.337
0.205,0.051,0.328,-5.337
0.160,0.054,0.330,-5.337
0.097,0.054,0.334,-5.337
0.117,0.053,0.330,-5.337
0.129,0.056,0.325,-5.337
0.165,0.053,0.324,-5.337
0.174,0.055,0.330,-5.337
0.169,0.053,0.331,-5.337
0.190,0.053,0.333,-5.337
0.198,0.054,0.335,-5.337
0.201,0.055,0.333,-5.337
0.159,0.056,0.329,-5.337
0.180,0.052,0.325,-5.337
0.194,0.053,0.328,-5.337
0.192,0.057,0.330,-5.337
0.152,0.058,0.331,-5.337
0.129,0.058,0.327,-5.337
0.077,0.060,0.326,-5.337
0.097,0.063,0.324,-5.337
0.171,0.062,0.327,-5.337
0.177,0.058,0.326,-5.337
0.189,0.057,0.328,-5.337
0.255,0.060,0.332,-5.337
0.227,0.064,0.336,-5.337
0.136,0.060,0.334,-5.337
0.104,0.058,0.330,-5.337
0.164,0.060,0.328,-5.337
0.243,0.062,0.331,-5.337
0.223,0.063,0.335,-5.337
0.163,0.064,0.332,-5.337
0.235,0.061,0.329,-5.337
0.288,0.063,0.328,-5.337
0.308,0.063,0.329,-5.337
0.253,0.062,0.328,-5.337
0.196,0.061,0.330,-5.337
0.246,0.059,0.330,-5.337
0.208,0.056,0.329,-5.337
0.128,0.058,0.330,-5.337
0.095,0.060,0.332,-5.337
0.147,0.059,0.330,-5.337
0.255,0.057,0.331,-5.337
0.304,0.054,0.332,-5.337
0.256,0.057,0.335,-5.337
0.188,0.055,0.333,-5.337
0.136,0.059,0.327,-5.337
0.192,0.060,0.327,-5.337
0.240,0.060,0.328,-5.337
0.264,0.054,0.328,-5.337
0.197,0.056,0.329,-5.337
0.118,0.060,0.332,-5.337
0.144,0.060,0.332,-5.337
0.202,0.059,0.326,-5.337
0.197,0.061,0.329,-5.337
0.146,0.059,0.333,-5.337
0.176,0.060,0.335,-5.337
0.178,0.063,0.332,-5.337
0.119,0.067,0.330,-5.337
0.144,0.065,0.328,-5.337
0.210,0.062,0.328,-5.337
0.241,0.059,0.328,-5.337
0.165,0.058,0.328,-5.337
0.099,0.061,0.329,-5.337
0.111,0.062,0.331,-5.337
0.174,0.056,0.330,-5.337
0.267,0.054,0.326,-5.337
0.273,0.058,0.326,-5.337
0.183,0.060,0.329,-5.337
0.122,0.063,0.332,-5.337
0.110,0.061,0.333,-5.337
0.105,0.056,0.329,-5.337
0.142,0.054,0.330,-5.337
0.249,0.055,0.334,-5.337
0.292,0.057,0.333,-5.337
0.187,0.058,0.328,-5.337
0.164,0.055,0.326,-5.337
0.168,0.057,0.326,-5.337
0.174,0.060,0.327,-5.337
0.188,0.059,0.328,-5.337
0.212,0.057,0.330,-5.337
0.165,0.063,0.332,-5.337
0.125,0.064,0.335,-5.337
0.169,0.061,0.337,-5.337
0.207,0.062,0.338,-5.337
0.185,0.063,0.332,-5.337
0.160,0.057,0.329,-5.337
0.188,0.059,0.330,-5.337
0.217,0.062,0.334,-5.337
0.168,0.060,0.332,-5.337
0.191,0.058,0.329,-5.337
0.267,0.062,0.326,-5.337
0.234,0.068,0.330,-5.337
0.162,0.068,0.331,-5.337
0.144,0.065,0.330,-5.337
0.172,0.061,0.329,-5.337
0.117,0.064,0.331,-5.337
0.180,0.061,0.332,-5.337
0.182,0.065,0.334,-5.337
0.140,0.064,0.333,-5.337
0.162,0.060,0.329,-5.337
0.217,0.057,0.329,-5.337
0.262,0.053,0.331,-5.337
0.263,0.056,0.334,-5.337
0.248,0.055,0.335,-5.337
0.208,0.055,0.334,-5.337
0.167,0.053,0.331,-5.337
0.186,0.055,0.330,-5.337
0.242,0.057,0.328,-5.337
0.245,0.058,0.328,-5.337
0.201,0.060,0.327,-5.337
0.159,0.060,0.326,-5.337
0.164,0.057,0.329,-5.337
0.218,0.053,0.332,-5.337
0.302,0.051,0.332,-5.337
0.259,0.054,0.332,-5.337
0.166,0.054,0.333,-5.337
0.205,0.056,0.334,-5.337
0.244,0.050,0.333,-5.337
0.224,0.054,0.331,-5.337
0.215,0.057,0.331,-5.337
0.211,0.057,0.335,-5.337
0.144,0.059,0.338,-5.337
0.079,0.061,0.333,-5.337
0.150,0.059,0.329,-5.337
0.233,0.060,0.330,-5.337
0.122,0.059,0.332,-5.337
0.067,0.059,0.330,-5.337
0.146,0.059,0.331,-5.337
0.178,0.058,0.331,-5.337
0.186,0.053,0.331,-5.337
0.141,0.049,0.329,-5.337
0.120,0.051,0.333,-5.337
0.148,0.050,0.338,-5.337
0.146,0.050,0.336,-5.337
0.161,0.047,0.330,-5.337
0.173,0.044,0.330,-5.337
0.145,0.045,0.331,-5.337
0.154,0.047,0.331,-5.337
0.160,0.048,0.331,-5.337
0.205,0.044,0.333,-5.337
0.177,0.046,0.333,-5.337
0.213,0.042,0.331,-5.337
0.334,0.039,0.328,-5.337
0.292,0.040,0.327,-5.337
0.269,0.040,0.332,-5.337
0.278,0.045,0.333,-5.337
0.282,0.043,0.331,-5.337
0.294,0.042,0.329,-5.337
0.224,0.042,0.332,-5.337
0.229,0.041,0.331,-5.337
0.334,0.042,0.331,-5.337
0.301,0.044,0.330,-5.337
0.205,0.045,0.335,-5.337
0.248,0.041,0.332,-5.337
0.239,0.044,0.329,-5.337
0.242,0.044,0.328,-5.337
0.201,0.044,0.335,-5.337
0.147,0.039,0.334,-5.337
0.154,0.041,0.329,-5.337
0.136,0.045,0.329,-5.337
0.187,0.047,0.328,-5.337
0.211,0.042,0.327,-5.337
0.217,0.040,0.328,-5.337
0.169,0.044,0.326,-5.337
0.193,0.048,0.325,-5.337
0.197,0.044,0.326,-5.337
0.250,0.043,0.331,-5.337
0.209,0.044,0.332,-5.337
0.194,0.042,0.331,-5.337
0.180,0.045,0.333,-5.337
0.207,0.043,0.335,-5.337
0.239,0.041,0.333,-5.337
0.172,0.042,0.327,-5.337
0.150,0.047,0.328,-5.337
0.128,0.044,0.325,-5.337
0.118,0.039,0.326,-5.337
0.231,0.038,0.331,-5.337
0.239,0.042,0.331,-5.337
0.156,0.043,0.329,-5.337
0.166,0.042,0.329,-5.337
0.215,0.042,0.328,-5.337
0.233,0.043,0.329,-5.337
0.180,0.047,0.329,-5.337
0.186,0.046,0.329,-5.337
0.216,0.040,0.329,-5.337
0.138,0.043,0.328,-5.337
0.079,0.044,0.329,-5.337
0.187,0.041,0.332,-5.337
0.244,0.039,0.336,-5.337
0.220,0.043,0.336,-5.337
0.190,0.044,0.332,-5.337
0.171,0.046,0.325,-5.337
0.182,0.043,0.323,-5.337
0.191,0.040,0.329,-5.337
0.232,0.039,0.332,-5.337
0.239,0.042,0.330,-5.337
0.213,0.043,0.329,-5.337
0.229,0.042,0.326,-5.337
0.246,0.043,0.326,-5.337
0.205,0.043,0.329,-5.337
0.211,0.042,0.333,-5.337
0.226,0.039,0.334,-5.337
0.200,0.042,0.332,-5.337
0.202,0.044,0.334,-5.337
0.299,0.043,0.334,-5.337
0.307,0.042,0.330,-5.337
0.197,0.048,0.329,-5.337
0.077,0.050,0.330,-5.337
0.075,0.051,0.334,-5.337
0.137,0.049,0.334,-5.337
0.180,0.047,0.333,-5.337
0.224,0.043,0.330,-5.337
0.196,0.043,0.327,-5.337
0.134,0.043,0.329,-5.337
0.156,0.044,0.332,-5.337
0.196,0.043,0.333,-5.337
0.254,0.043,0.333,-5.337
0.261,0.043,0.331,-5.337
0.189,0.040,0.329,-5.337
0.141,0.041,0.329,-5.337
0.140,0.040,0.327,-5.337
0.183,0.039,0.331,-5.337
0.240,0.036,0.335,-5.337
0.296,0.034,0.337,-5.337
0.215,0.038,0.335,-5.337
0.194,0.039,0.329,-5.337
0.258,0.038,0.323,-5.337
0.272,0.040,0.325,-5.337
0.246,0.040,0.326,-5.337
0.220,0.040,0.327,-5.337
0.218,0.039,0.329,-5.337
0.193,0.039,0.330,-5.337
0.167,0.039,0.330,-5.337
0.200,0.039,0.331,-5.337
0.207,0.038,0.330,-5.337
0.138,0.040,0.329,-5.337
0.127,0.042,0.329,-5.337
0.194,0.042,0.328,-5.337
0.205,0.044,0.332,-5.337
0.109,0.045,0.334,-5.337
0.134,0.041,0.330,-5.337
0.280,0.036,0.326,-5.337
0.399,0.035,0.328,-5.337
0.289,0.039,0.332,-5.337
0.180,0.041,0.335,-5.337
0.176,0.042,0.337,-5.337
0.183,0.041,0.337,-5.337
0.178,0.038,0.332,-5.337
0.218,0.039,0.330,-5.337
0.166,0.040,0.327,-5.337
0.173,0.044,0.329,-5.337
0.137,0.042,0.328,-5.337
0.134,0.042,0.328,-5.337
0.207,0.044,0.330,-5.337
0.221,0.047,0.331,-5.337
0.200,0.041,0.330,-5.337
0.232,0.037,0.327,-5.337
0.226,0.035,0.329,-5.337
0.229,0.040,0.330,-5.337
0.201,0.041,0.330,-5.337
0.177,0.038,0.333,-5.337
0.158,0.037,0.332,-5.337
0.164,0.041,0.329,-5.337
0.148,0.044,0.328,-5.337
0.129,0.044,0.330,-5.337
0.168,0.040,0.332,-5.337
0.228,0.037,0.330,-5.337
0.216,0.040,0.330,-5.337
0.146,0.041,0.327,-5.337
0.155,0.036,0.328,-5.337
0.209,0.036,0.330,-5.337
0.193,0.039,0.335,-5.337
0.219,0.037,0.338,-5.337
0.244,0.037,0.336,-5.337
0.261,0.036,0.330,-5.337
0.306,0.041,0.325,-5.337
0.251,0.043,0.327,-5.337
0.203,0.041,0.331,-5.337
0.204,0.040,0.333,-5.337
0.237,0.042,0.330,-5.337
0.258,0.042,0.328,-5.337
0.265,0.041,0.329,-5.337
0.204,0.041,0.329,-5.337
0.154,0.041,0.325,-5.337
0.231,0.039,0.330,-5.337
0.306,0.041,0.332,-5.337
0.315,0.044,0.331,-5.337
0.253,0.043,0.330,-5.337
0.170,0.042,0.332,-5.337
0.114,0.044,0.328,-5.337
0.176,0.042,0.329,-5.337
0.211,0.041,0.329,-5.337
0.227,0.039,0.329,-5.337
0.257,0.038,0.327,-5.337
0.212,0.042,0.327,-5.337
0.158,0.039,0.328,-5.337
0.163,0.039,0.328,-5.337
0.147,0.038,0.327,-5.337
0.114,0.042,0.328,-5.337
0.102,0.042,0.331,-5.337
0.122,0.042,0.331,-5.337
0.094,0.042,0.328,-5.337
0.133,0.040,0.322,-5.337
0.156,0.041,0.324,-5.337
0.134,0.040,0.329,-5.337
0.176,0.039,0.332,-5.337
0.200,0.038,0.331,-5.337
0.262,0.035,0.330,-5.337
0.320,0.034,0.329,-5.337
0.285,0.036,0.328,-5.337
0.287,0.039,0.328,-5.337
0.321,0.039,0.333,-5.337
0.295,0.039,0.336,-5.337
0.209,0.041,0.337,-5.337
0.211,0.039,0.331,-5.337
0.181,0.045,0.327,-5.337
0.183,0.043,0.325,-5.337
0.263,0.036,0.328,-5.337
0.300,0.033,0.331,-5.337
0.295,0.037,0.334,-5.337
0.248,0.044,0.335,-5.337
0.214,0.039,0.333,-5.337
0.218,0.037,0.331,-5.337
0.212,0.040,0.329,-5.337
0.223,0.038,0.328,-5.337
0.264,0.038,0.327,-5.337
0.275,0.039,0.326,-5.337
0.214,0.041,0.329,-5.337
0.193,0.041,0.331,-5.337
0.154,0.041,0.330,-5.337
0.113,0.041,0.328,-5.337
0.175,0.043,0.327,-5.337
0.232,0.041,0.330,-5.337
0.235,0.041,0.330,-5.337
0.213,0.043,0.331,-5.337
0.177,0.046,0.331,-5.337
0.131,0.046,0.333,-5.337
0.147,0.044,0.331,-5.337
0.240,0.039,0.329,-5.337
0.307,0.039,0.324,-5.337
0.339,0.037,0.321,-5.337
0.332,0.037,0.322,-5.337
0.212,0.043,0.330,-5.337
0.174,0.040,0.337,-5.337
0.234,0.039,0.336,-5.337
0.223,0.037,0.332,-5.337
0.267,0.043,0.331,-5.337
0.268,0.041,0.328,-5.337
0.240,0.041,0.330,-5.337
0.246,0.042,0.330,-5.337
0.234,0.041,0.328,-5.337
0.145,0.044,0.326,-5.337
0.063,0.043,0.328,-5.337
0.085,0.041,0.328,-5.337
0.099,0.042,0.328,-5.337
0.158,0.041,0.333,-5.337
0.231,0.042,0.331,-5.337
0.228,0.040,0.328,-5.337
0.221,0.040,0.327,-5.337
0.227,0.041,0.330,-5.337
0.175,0.044,0.327,-5.337
0.213,0.042,0.328,-5.337
0.219,0.041,0.331,-5.337
0.208,0.046,0.334,-5.337
0.177,0.046,0.332,-5.337
0.172,0.044,0.330,-5.337
0.178,0.043,0.328,-5.337
0.211,0.042,0.330,-5.337
0.239,0.039,0.334,-5.337
0.219,0.044,0.335,-5.337
0.150,0.045,0.334,-5.337
0.165,0.042,0.333,-5.337
0.201,0.043,0.331,-5.337
0.208,0.040,0.332,-5.337
0.179,0.039,0.334,-5.337
0.209,0.041,0.332,-5.337
0.215,0.041,0.329,-5.337
0.228,0.039,0.328,-5.337
0.177,0.039,0.328,-5.337
0.107,0.037,0.328,-5.337
0.171,0.039,0.330,-5.337
0.194,0.041,0.330,-5.337
0.242,0.043,0.335,-5.337
0.224,0.043,0.334,-5.337
0.198,0.043,0.330,-5.337
0.224,0.045,0.328,-5.337
0.208,0.042,0.329,-5.337
0.242,0.041,0.330,-5.337
0.260,0.044,0.331,-5.337
0.179,0.046,0.332,-5.337
0.135,0.046,0.335,-5.337
0.189,0.044,0.332,-5.337
0.223,0.041,0.332,-5.337
0.169,0.044,0.330,-5.337
0.119,0.047,0.328,-5.337
0.149,0.047,0.328,-5.337
0.059,0.047,0.326,-5.337
0.060,0.045,0.326,-5.337
0.116,0.048,0.330,-5.337
0.231,0.043,0.335,-5.337
0.325,0.041,0.334,-5.337
0.321,0.043,0.332,-5.337
0.326,0.040,0.330,-5.337
0.296,0.041,0.332,-5.337
0.236,0.042,0.333,-5.337
0.257,0.042,0.332,-5.337
0.217,0.041,0.330,-5.337
0.211,0.042,0.329,-5.337
0.213,0.046,0.331,-5.337
0.183,0.048,0.332,-5.337
0.202,0.044,0.331,-5.337
0.244,0.045,0.331,-5.337
0.261,0.043,0.332,-5.337
0.299,0.047,0.332,-5.337
0.232,0.050,0.329,-5.337
0.183,0.050,0.328,-5.337
0.210,0.047,0.328,-5.337
0.222,0.047,0.327,-5.337
0.182,0.051,0.326,-5.337
0.194,0.049,0.327,-5.337
0.253,0.044,0.330,-5.337
0.207,0.042,0.329,-5.337
0.135,0.049,0.332,-5.337
-0.012,0.053,0.335,-5.337
-0.009,0.047,0.335,-5.337
0.163,0.042,0.330,-5.337
0.285,0.043,0.329,-5.337
0.308,0.042,0.329,-5.337
0.200,0.045,0.328,-5.337
0.070,0.047,0.328,-5.337
0.108,0.048,0.330,-5.337
0.106,0.051,0.330,-5.337
0.109,0.050,0.332,-5.337
0.162,0.046,0.331,-5.337
0.151,0.048,0.330,-5.337
0.139,0.051,0.328,-5.337
0.137,0.049,0.327,-5.337
0.117,0.049,0.328,-5.337
0.121,0.049,0.331,-5.337
0.142,0.047,0.328,-5.337
0.207,0.047,0.327,-5.337
0.195,0.049,0.327,-5.337
0.186,0.050,0.326,-5.337
0.209,0.048,0.324,-5.337
0.199,0.052,0.321,-5.337
0.116,0.051,0.326,-5.337
0.134,0.049,0.330,-5.337
0.168,0.047,0.331,-5.337
0.147,0.047,0.329,-5.337
0.174,0.048,0.327,-5.337
0.212,0.046,0.325,-5.337
0.250,0.046,0.326,-5.337
0.255,0.046,0.328,-5.337
0.278,0.043,0.327,-5.337
0.263,0.043,0.327,-5.337
0.239,0.047,0.329,-5.337
0.300,0.047,0.327,-5.337
0.299,0.050,0.324,-5.337
0.230,0.050,0.328,-5.337
0.183,0.051,0.330,-5.337
0.234,0.050,0.329,-5.337
0.246,0.052,0.328,-5.337
0.113,0.054,0.330,-5.337
0.044,0.056,0.333,-5.337
0.072,0.052,0.330,-5.337
0.119,0.051,0.330,-5.337
0.116,0.050,0.328,-5.337
0.205,0.047,0.329,-5.337
0.206,0.049,0.327,-5.337
0.158,0.054,0.325,-5.337
0.148,0.054,0.327,-5.337
0.151,0.051,0.328,-5.337
0.147,0.052,0.328,-5.337
0.113,0.053,0.327,-5.337
0.132,0.053,0.330,-5.337
0.180,0.052,0.330,-5.337
0.142,0.054,0.331,-5.337
0.120,0.051,0.327,-5.337
0.123,0.049,0.326,-5.337
0.148,0.049,0.327,-5.337
0.195,0.052,0.326,-5.337
0.250,0.049,0.325,-5.337
0.204,0.049,0.325,-5.337
0.186,0.048,0.327,-5.337
0.188,0.050,0.330,-5.337
0.222,0.046,0.331,-5.337
0.308,0.045,0.331,-5.337
0.260,0.051,0.332,-5.337
0.180,0.050,0.331,-5.337
0.166,0.054,0.331,-5.337
0.208,0.052,0.330,-5.337
0.293,0.049,0.331,-5.337
0.315,0.046,0.329,-5.337
0.222,0.047,0.327,-5.337
0.193,0.048,0.328,-5.337
0.232,0.051,0.330,-5.337
0.179,0.051,0.330,-5.337
0.159,0.052,0.327,-5.337
0.190,0.052,0.324,-5.337
0.190,0.055,0.326,-5.337
0.178,0.055,0.326,-5.337
0.275,0.054,0.327,-5.337
0.272,0.052,0.327,-5.337
0.133,0.056,0.325,-5.337
0.017,0.057,0.322,-5.337
0.026,0.055,0.325,-5.337
0.142,0.055,0.330,-5.337
0.177,0.057,0.330,-5.337
0.115,0.060,0.328,-5.337
0.114,0.060,0.330,-5.337
0.132,0.054,0.332,-5.337
0.245,0.055,0.330,-5.337
0.300,0.056,0.328,-5.337
0.242,0.058,0.327,-5.337
0.209,0.059,0.328,-5.337
0.209,0.054,0.328,-5.337
0.228,0.054,0.329,-5.337
0.172,0.054,0.330,-5.337
0.128,0.058,0.331,-5.337
0.168,0.056,0.333,-5.337
0.143,0.056,0.332,-5.337
0.104,0.056,0.326,-5.337
0.071,0.057,0.325,-5.337
0.079,0.053,0.329,-5.337
0.180,0.052,0.328,-5.337
0.204,0.052,0.325,-5.337
0.190,0.055,0.328,-5.337
0.191,0.054,0.328,-5.337
0.238,0.056,0.328,-5.337
0.216,0.056,0.327,-5.337
0.135,0.054,0.329,-5.337
0.171,0.051,0.330,-5.337
0.204,0.056,0.330,-5.337
0.184,0.059,0.331,-5.337
0.167,0.060,0.329,-5.337
0.231,0.054,0.327,-5.337
0.341,0.053,0.326,-5.337
0.318,0.056,0.325,-5.337
0.291,0.058,0.327,-5.337
0.211,0.057,0.328,-5.337
0.168,0.052,0.325,-5.337
0.185,0.054,0.326,-5.337
0.128,0.060,0.327,-5.337
0.154,0.060,0.328,-5.337
0.172,0.053,0.329,-5.337
0.157,0.055,0.327,-5.337
0.176,0.056,0.328,-5.337
0.242,0.055,0.331,-5.337
0.302,0.052,0.329,-5.337
0.281,0.055,0.326,-5.337
0.176,0.058,0.324,-5.337
0.160,0.056,0.325,-5.337
0.179,0.057,0.328,-5.337
0.208,0.058,0.327,-5.337
0.129,0.059,0.328,-5.337
0.124,0.058,0.326,-5.337
0.189,0.058,0.328,-5.337
0.207,0.060,0.330,-5.337
0.243,0.058,0.329,-5.337
0.246,0.060,0.328,-5.337
0.150,0.060,0.332,-5.337
0.116,0.058,0.332,-5.337
0.183,0.057,0.330,-5.337
0.174,0.059,0.326,-5.337
0.136,0.061,0.326,-5.337
0.097,0.056,0.325,-5.337
0.127,0.055,0.328,-5.337
0.159,0.058,0.330,-5.337
0.151,0.060,0.332,-5.337
0.127,0.058,0.330,-5.337
0.164,0.060,0.328,-5.337
0.226,0.057,0.327,-5.337
0.254,0.058,0.328,-5.337
0.163,0.060,0.330,-5.337
0.079,0.059,0.332,-5.337
0.148,0.059,0.332,-5.337
0.223,0.061,0.329,-5.337
0.146,0.060,0.325,-5.337
0.103,0.059,0.322,-5.337
0.134,0.059,0.325,-5.337
0.173,0.058,0.327,-5.337
0.188,0.058,0.326,-5.337
0.220,0.056,0.325,-5.337
0.236,0.054,0.331,-5.337
0.251,0.055,0.333,-5.337
0.234,0.055,0.331,-5.337
0.229,0.057,0.326,-5.337
0.237,0.058,0.325,-5.337
0.215,0.056,0.327,-5.337
0.161,0.055,0.328,-5.337
0.159,0.056,0.328,-5.337
0.208,0.056,0.328,-5.337
0.192,0.057,0.328,-5.337
0.183,0.058,0.325,-5.337
0.213,0.058,0.325,-5.337
0.250,0.062,0.329,-5.337
0.251,0.058,0.334,-5.337
0.237,0.055,0.333,-5.337
0.199,0.058,0.328,-5.337
0.194,0.059,0.323,-5.337
0.198,0.061,0.324,-5.337
0.195,0.059,0.328,-5.337
0.176,0.056,0.329,-5.337
0.131,0.056,0.327,-5.337
0.093,0.056,0.328,-5.337
0.133,0.056,0.327,-5.337
0.156,0.054,0.327,-5.337
0.113,0.054,0.326,-5.337
0.111,0.058,0.326,-5.337
0.152,0.055,0.324,-5.337
0.151,0.056,0.322,-5.337
0.098,0.054,0.325,-5.337
0.150,0.053,0.330,-5.337
0.238,0.053,0.330,-5.337
0.180,0.055,0.329,-5.337
0.155,0.050,0.327,-5.337
0.175,0.050,0.327,-5.337
0.199,0.047,0.329,-5.337
0.265,0.049,0.331,-5.337
0.269,0.052,0.328,-5.337
0.192,0.055,0.328,-5.337
0.168,0.057,0.330,-5.337
0.176,0.057,0.330,-5.337
0.181,0.054,0.331,-5.337
0.150,0.052,0.333,-5.337
0.141,0.051,0.332,-5.337
0.182,0.053,0.328,-5.337
0.215,0.052,0.328,-5.337
0.211,0.052,0.325,-5.337
0.260,0.049,0.324,-5.337
0.258,0.048,0.325,-5.337
0.220,0.052,0.325,-5.337
0.184,0.051,0.325,-5.337
0.274,0.046,0.328,-5.337
0.345,0.043,0.328,-5.337
0.299,0.044,0.330,-5.337
0.255,0.044,0.334,-5.337
0.233,0.045,0.334,-5.337
0.172,0.047,0.331,-5.337
0.217,0.043,0.330,-5.337
0.226,0.045,0.331,-5.337
0.200,0.045,0.333,-5.337
0.200,0.047,0.334,-5.337
0.126,0.048,0.332,-5.337
0.073,0.048,0.327,-5.337
0.173,0.046,0.328,-5.337
0.233,0.046,0.328,-5.337
0.261,0.048,0.327,-5.337
0.219,0.045,0.327,-5.337
0.194,0.041,0.330,-5.337
0.179,0.039,0.335,-5.337
0.227,0.036,0.334,-5.337
0.261,0.040,0.332,-5.337
0.192,0.042,0.329,-5.337
0.172,0.040,0.331,-5.337
0.260,0.038,0.330,-5.337
0.325,0.039,0.331,-5.337
0.266,0.042,0.329,-5.337
0.209,0.043,0.330,-5.337
0.231,0.042,0.328,-5.337
0.231,0.037,0.327,-5.337
0.131,0.039,0.330,-5.337
0.133,0.040,0.335,-5.337
0.264,0.036,0.337,-5.337
0.323,0.035,0.337,-5.337
0.281,0.035,0.332,-5.337
0.255,0.037,0.328,-5.337
0.198,0.041,0.326,-5.337
0.131,0.042,0.327,-5.337
0.112,0.042,0.327,-5.337
0.145,0.042,0.327,-5.337
0.168,0.038,0.331,-5.337
0.118,0.034,0.336,-5.337
0.148,0.034,0.336,-5.337
0.189,0.037,0.331,-5.337
0.166,0.040,0.330,-5.337
0.154,0.039,0.333,-5.337
0.160,0.033,0.337,-5.337
0.214,0.032,0.333,-5.337
0.168,0.039,0.331,-5.337
0.130,0.039,0.331,-5.337
0.150,0.038,0.330,-5.337
0.207,0.034,0.328,-5.337
0.169,0.039,0.326,-5.337
0.113,0.041,0.326,-5.337
0.187,0.040,0.325,-5.337
0.247,0.037,0.321,-5.337
0.205,0.037,0.320,-5.337
0.165,0.039,0.328,-5.337
0.224,0.039,0.336,-5.337
0.212,0.039,0.333,-5.337
0.144,0.038,0.326,-5.337
0.103,0.037,0.326,-5.337
0.103,0.039,0.327,-5.337
0.136,0.038,0.326,-5.337
0.190,0.033,0.327,-5.337
0.276,0.030,0.332,-5.337
0.237,0.036,0.333,-5.337
0.152,0.042,0.332,-5.337
0.175,0.041,0.327,-5.337
0.247,0.037,0.325,-5.337
0.197,0.041,0.325,-5.337
0.162,0.041,0.328,-5.337
0.185,0.037,0.328,-5.337
0.194,0.040,0.327,-5.337
0.134,0.038,0.328,-5.337
0.108,0.039,0.330,-5.337
0.145,0.037,0.327,-5.337
0.161,0.038,0.331,-5.337
0.210,0.037,0.331,-5.337
0.191,0.036,0.325,-5.337
0.114,0.040,0.322,-5.337
0.104,0.045,0.324,-5.337
0.118,0.039,0.327,-5.337
0.150,0.033,0.328,-5.337
0.170,0.036,0.330,-5.337
0.236,0.036,0.331,-5.337
0.281,0.040,0.331,-5.337
0.259,0.036,0.328,-5.337
0.205,0.033,0.330,-5.337
0.191,0.032,0.330,-5.337
0.178,0.033,0.330,-5.337
0.206,0.034,0.327,-5.337
0.250,0.035,0.328,-5.337
0.246,0.036,0.327,-5.337
0.196,0.039,0.332,-5.337
0.175,0.038,0.330,-5.337
0.238,0.039,0.326,-5.337
0.239,0.036,0.324,-5.337
0.214,0.036,0.324,-5.337
0.165,0.035,0.327,-5.337
0.154,0.037,0.327,-5.337
0.167,0.035,0.326,-5.337
0.210,0.034,0.327,-5.337
0.292,0.035,0.330,-5.337
0.229,0.040,0.332,-5.337
0.201,0.038,0.330,-5.337
0.298,0.034,0.329,-5.337
0.328,0.029,0.329,-5.337
0.263,0.034,0.326,-5.337
0.193,0.037,0.326,-5.337
0.161,0.034,0.326,-5.337
0.189,0.034,0.325,-5.337
0.155,0.035,0.325,-5.337
0.115,0.034,0.327,-5.337
0.117,0.037,0.327,-5.337
0.166,0.039,0.330,-5.337
0.209,0.038,0.331,-5.337
0.248,0.037,0.325,-5.337
0.280,0.034,0.322,-5.337
0.189,0.040,0.326,-5.337
0.099,0.042,0.333,-5.337
0.131,0.036,0.334,-5.337
0.142,0.035,0.329,-5.337
0.154,0.034,0.325,-5.337
0.209,0.031,0.325,-5.337
0.126,0.035,0.326,-5.337
0.098,0.035,0.329,-5.337
0.145,0.036,0.332,-5.337
0.192,0.036,0.332,-5.337
0.259,0.037,0.330,-5.337
0.290,0.035,0.328,-5.337
0.346,0.034,0.324,-5.337
0.308,0.034,0.325,-5.337
0.244,0.036,0.326,-5.337
0.242,0.037,0.329,-5.337
0.212,0.034,0.331,-5.337
0.247,0.034,0.329,-5.337
0.239,0.035,0.325,-5.337
0.229,0.036,0.327,-5.337
0.159,0.038,0.329,-5.337
0.087,0.037,0.327,-5.337
0.123,0.034,0.324,-5.337
0.246,0.033,0.325,-5.337
0.353,0.029,0.328,-5.337
0.357,0.031,0.329,-5.337
0.289,0.032,0.331,-5.337
0.191,0.037,0.333,-5.337
0.150,0.035,0.333,-5.337
0.206,0.032,0.331,-5.337
0.303,0.032,0.330,-5.337
0.247,0.030,0.327,-5.337
0.216,0.033,0.326,-5.337
0.245,0.034,0.326,-5.337
0.238,0.037,0.328,-5.337
0.261,0.038,0.330,-5.337
0.251,0.038,0.332,-5.337
0.244,0.035,0.332,-5.337
0.230,0.034,0.330,-5.337
0.285,0.032,0.328,-5.337
0.301,0.032,0.326,-5.337
0.262,0.031,0.326,-5.337
0.250,0.034,0.326,-5.337
0.216,0.032,0.328,-5.337
0.206,0.032,0.334,-5.337
0.213,0.029,0.334,-5.337
0.267,0.031,0.331,-5.337
0.223,0.029,0.329,-5.337
0.197,0.028,0.327,-5.337
0.195,0.030,0.323,-5.337
0.179,0.035,0.326,-5.337
0.149,0.034,0.329,-5.337
0.189,0.029,0.326,-5.337
0.128,0.033,0.325,-5.337
0.061,0.033,0.327,-5.337
0.142,0.029,0.328,-5.337
0.231,0.029,0.327,-5.337
0.254,0.029,0.328,-5.337
0.258,0.031,0.328,-5.337
0.220,0.032,0.330,-5.337
0.274,0.028,0.330,-5.337
0.266,0.029,0.331,-5.337
0.216,0.030,0.328,-5.337
0.271,0.032,0.327,-5.337
0.288,0.033,0.325,-5.337
0.206,0.035,0.327,-5.337
0.139,0.034,0.327,-5.337
0.189,0.036,0.329,-5.337
0.231,0.038,0.329,-5.337
0.201,0.039,0.327,-5.337
0.174,0.035,0.329,-5.337
0.223,0.032,0.327,-5.337
0.247,0.033,0.325,-5.337
0.331,0.033,0.323,-5.337
0.349,0.034,0.323,-5.337
0.257,0.038,0.324,-5.337
0.155,0.038,0.326,-5.337
0.207,0.035,0.329,-5.337
0.279,0.033,0.331,-5.337
0.302,0.030,0.330,-5.337
0.218,0.033,0.328,-5.337
0.179,0.034,0.325,-5.337
0.180,0.033,0.326,-5.337
0.183,0.029,0.325,-5.337
0.165,0.028,0.329,-5.337
0.121,0.028,0.330,-5.337
0.109,0.031,0.329,-5.337
0.167,0.032,0.324,-5.337
0.145,0.030,0.327,-5.337
0.156,0.026,0.330,-5.337
0.219,0.027,0.333,-5.337
0.236,0.029,0.331,-5.337
0.296,0.029,0.328,-5.337
0.310,0.026,0.327,-5.337
0.246,0.029,0.327,-5.337
0.217,0.032,0.328,-5.337
0.209,0.032,0.329,-5.337
0.161,0.032,0.326,-5.337
0.147,0.032,0.326,-5.337
0.220,0.033,0.326,-5.337
0.200,0.036,0.326,-5.337
0.163,0.035,0.328,-5.337
0.190,0.033,0.325,-5.337
0.203,0.034,0.327,-5.337
0.155,0.035,0.328,-5.337
0.217,0.034,0.326,-5.337
0.300,0.038,0.323,-5.337
0.222,0.038,0.325,-5.337
0.185,0.035,0.328,-5.337
0.228,0.032,0.329,-5.337
0.232,0.035,0.329,-5.337
0.207,0.035,0.330,-5.337
0.179,0.031,0.330,-5.337
0.238,0.030,0.329,-5.337
0.268,0.030,0.329,-5.337
0.177,0.037,0.329,-5.337
0.146,0.036,0.330,-5.337
0.197,0.032,0.330,-5.337
0.223,0.031,0.326,-5.337
0.194,0.034,0.324,-5.337
0.095,0.036,0.322,-5.337
0.104,0.037,0.324,-5.337
0.130,0.034,0.323,-5.337
0.179,0.035,0.322,-5.337
0.150,0.040,0.324,-5.337
0.143,0.040,0.331,-5.337
0.190,0.037,0.333,-5.337
0.276,0.034,0.327,-5.337
0.267,0.035,0.326,-5.337
0.199,0.042,0.329,-5.337
0.187,0.043,0.330,-5.337
0.149,0.041,0.328,-5.337
0.171,0.037,0.327,-5.337
0.247,0.033,0.323,-5.337
0.238,0.039,0.327,-5.337
0.201,0.041,0.327,-5.337
0.122,0.040,0.327,-5.337
0.137,0.037,0.328,-5.337
0.153,0.035,0.327,-5.337
0.139,0.033,0.329,-5.337
0.084,0.034,0.330,-5.337
0.123,0.034,0.328,-5.337
0.214,0.032,0.329,-5.337
0.172,0.034,0.330,-5.337
0.076,0.038,0.329,-5.337
0.149,0.033,0.328,-5.337
0.266,0.033,0.325,-5.337
0.323,0.035,0.322,-5.337
0.242,0.038,0.324,-5.337
0.186,0.041,0.326,-5.337
0.198,0.040,0.324,-5.337
0.199,0.042,0.324,-5.337
0.200,0.041,0.324,-5.337
0.241,0.039,0.328,-5.337
0.231,0.036,0.330,-5.337
0.170,0.037,0.333,-5.337
0.157,0.041,0.334,-5.337
0.191,0.039,0.336,-5.337
0.170,0.037,0.334,-5.337
0.159,0.039,0.330,-5.337
0.164,0.037,0.324,-5.337
0.164,0.040,0.323,-5.337
0.227,0.040,0.326,-5.337
0.176,0.043,0.329,-5.337
0.113,0.046,0.328,-5.337
0.136,0.044,0.329,-5.337
0.210,0.042,0.329,-5.337
0.207,0.046,0.329,-5.337
0.220,0.043,0.331,-5.337
0.228,0.044,0.329,-5.337
0.161,0.045,0.325,-5.337
0.159,0.043,0.328,-5.337
0.134,0.043,0.332,-5.337
0.100,0.044,0.331,-5.337
0.127,0.042,0.330,-5.337
0.140,0.041,0.329,-5.337
0.095,0.044,0.330,-5.337
0.124,0.046,0.328,-5.337
0.189,0.044,0.326,-5.337
0.212,0.044,0.322,-5.337
0.140,0.052,0.330,-5.337
0.213,0.048,0.337,-5.337
0.264,0.046,0.336,-5.337
0.217,0.046,0.330,-5.337
0.230,0.047,0.327,-5.337
0.257,0.048,0.331,-5.337
0.226,0.052,0.335,-5.337
0.123,0.052,0.332,-5.337
0.166,0.049,0.330,-5.337
0.230,0.048,0.326,-5.337
0.225,0.048,0.326,-5.337
0.274,0.046,0.327,-5.337
0.256,0.047,0.325,-5.337
0.186,0.047,0.324,-5.337
0.193,0.047,0.325,-5.337
0.215,0.047,0.331,-5.337
0.179,0.048,0.334,-5.337
0.178,0.047,0.333,-5.337
0.204,0.044,0.327,-5.337
0.161,0.045,0.325,-5.337
0.124,0.049,0.327,-5.337
0.100,0.054,0.329,-5.337
0.131,0.050,0.331,-5.337
0.174,0.049,0.330,-5.337
0.227,0.049,0.328,-5.337
0.267,0.050,0.331,-5.337
0.240,0.048,0.332,-5.337
0.269,0.046,0.329,-5.337
0.292,0.047,0.324,-5.337
0.228,0.050,0.323,-5.337
0.162,0.053,0.328,-5.337
0.179,0.056,0.331,-5.337
0.152,0.054,0.330,-5.337
0.126,0.054,0.327,-5.337
0.108,0.055,0.324,-5.337
0.095,0.056,0.323,-5.337
0.192,0.054,0.326,-5.337
0.238,0.053,0.326,-5.337
0.180,0.056,0.327,-5.337
0.240,0.053,0.324,-5.337
0.240,0.052,0.325,-5.337
0.276,0.053,0.327,-5.337
0.292,0.055,0.329,-5.337
0.145,0.055,0.327,-5.337
0.106,0.056,0.327,-5.337
0.074,0.057,0.326,-5.337
0.043,0.059,0.327,-5.337
0.042,0.059,0.326,-5.337
0.037,0.056,0.326,-5.337
0.173,0.048,0.327,-5.337
0.214,0.050,0.330,-5.337
0.111,0.054,0.332,-5.337
0.122,0.057,0.329,-5.337
0.232,0.054,0.324,-5.337
0.279,0.056,0.321,-5.337
0.253,0.057,0.320,-5.337
0.189,0.056,0.320,-5.337
0.201,0.055,0.322,-5.337
0.228,0.056,0.325,-5.337
0.202,0.055,0.330,-5.337
0.261,0.052,0.333,-5.337
0.234,0.054,0.336,-5.337
0.201,0.054,0.334,-5.337
0.232,0.052,0.330,-5.337
0.154,0.054,0.322,-5.337
0.110,0.054,0.319,-5.337
0.148,0.055,0.324,-5.337
0.122,0.058,0.330,-5.337
0.111,0.056,0.330,-5.337
0.140,0.055,0.327,-5.337
0.195,0.055,0.327,-5.337
0.253,0.055,0.324,-5.337
0.198,0.055,0.324,-5.337
0.152,0.051,0.327,-5.337
0.129,0.053,0.334,-5.337
0.205,0.056,0.334,-5.337
0.269,0.055,0.330,-5.337
0.255,0.059,0.327,-5.337
0.200,0.061,0.324,-5.337
0.212,0.063,0.323,-5.337
0.201,0.057,0.324,-5.337
0.215,0.058,0.324,-5.337
0.179,0.059,0.325,-5.337
0.190,0.060,0.326,-5.337
0.185,0.060,0.328,-5.337
0.167,0.055,0.327,-5.337
0.178,0.057,0.326,-5.337
0.184,0.058,0.323,-5.337
0.179,0.055,0.328,-5.337
0.188,0.056,0.330,-5.337
0.237,0.058,0.329,-5.337
0.237,0.060,0.325,-5.337
0.218,0.058,0.322,-5.337
0.176,0.057,0.323,-5.337
0.112,0.058,0.324,-5.337
0.148,0.058,0.327,-5.337
0.192,0.058,0.331,-5.337
0.161,0.059,0.329,-5.337
0.193,0.055,0.325,-5.337
0.148,0.053,0.323,-5.337
0.152,0.055,0.326,-5.337
0.177,0.060,0.329,-5.337
0.152,0.062,0.332,-5.337
0.202,0.060,0.332,-5.337
0.264,0.060,0.329,-5.337
0.274,0.061,0.329,-5.337
0.239,0.061,0.329,-5.337
0.242,0.060,0.328,-5.337
0.206,0.059,0.329,-5.337
0.162,0.059,0.327,-5.337
0.191,0.062,0.322,-5.337
0.196,0.064,0.323,-5.337
0.154,0.061,0.325,-5.337
0.128,0.059,0.328,-5.337
0.148,0.061,0.328,-5.337
0.194,0.064,0.328,-5.337
0.248,0.063,0.323,-5.337
0.167,0.067,0.319,-5.337
0.151,0.067,0.318,-5.337
0.249,0.064,0.323,-5.337
0.286,0.061,0.325,-5.337
0.273,0.062,0.325,-5.337
0.275,0.063,0.324,-5.337
0.288,0.063,0.324,-5.337
0.221,0.065,0.328,-5.337
0.196,0.066,0.330,-5.337
0.195,0.067,0.332,-5.337
0.162,0.071,0.330,-5.337
0.096,0.068,0.329,-5.337
0.120,0.065,0.327,-5.337
0.217,0.066,0.326,-5.337
0.185,0.067,0.325,-5.337
0.151,0.069,0.328,-5.337
0.159,0.066,0.329,-5.337
0.162,0.066,0.331,-5.337
0.186,0.066,0.327,-5.337
0.202,0.065,0.325,-5.337
0.187,0.064,0.327,-5.337
0.133,0.065,0.329,-5.337
0.070,0.067,0.331,-5.337
0.141,0.065,0.332,-5.337
0.299,0.063,0.333,-5.337
0.297,0.064,0.330,-5.337
0.156,0.068,0.325,-5.337
0.104,0.068,0.324,-5.337
0.145,0.065,0.325,-5.337
0.231,0.068,0.327,-5.337
0.233,0.068,0.327,-5.337
0.217,0.067,0.324,-5.337
0.223,0.064,0.324,-5.337
0.192,0.065,0.324,-5.337
0.133,0.070,0.327,-5.337
0.162,0.071,0.327,-5.337
0.192,0.072,0.326,-5.337
0.195,0.070,0.321,-5.337
0.223,0.067,0.323,-5.337
0.175,0.063,0.326,-5.337
0.164,0.063,0.327,-5.337
0.128,0.065,0.323,-5.337
0.173,0.063,0.325,-5.337
0.210,0.060,0.325,-5.337
0.233,0.058,0.325,-5.337
0.296,0.058,0.324,-5.337
0.235,0.063,0.326,-5.337
0.128,0.063,0.327,-5.337
0.156,0.059,0.326,-5.337
0.243,0.059,0.324,-5.337
0.244,0.058,0.327,-5.337
0.266,0.057,0.328,-5.337
0.315,0.057,0.328,-5.337
0.369,0.059,0.326,-5.337
0.326,0.063,0.322,-5.337
0.257,0.062,0.322,-5.337
0.258,0.063,0.322,-5.337
0.275,0.060,0.324,-5.337
0.254,0.058,0.324,-5.337
0.294,0.059,0.325,-5.337
0.162,0.064,0.329,-5.337
0.099,0.062,0.332,-5.337
0.197,0.059,0.325,-5.337
0.258,0.059,0.319,-5.337
0.252,0.059,0.323,-5.337
0.257,0.059,0.327,-5.337
0.205,0.059,0.325,-5.337
0.120,0.061,0.324,-5.337
0.097,0.061,0.325,-5.337
0.160,0.059,0.328,-5.337
0.236,0.058,0.331,-5.337
0.229,0.057,0.332,-5.337
0.225,0.060,0.329,-5.337
0.124,0.062,0.326,-5.337
0.075,0.058,0.325,-5.337
0.138,0.056,0.324,-5.337
0.187,0.055,0.327,-5.337
0.201,0.057,0.329,-5.337
0.162,0.058,0.328,-5.337
0.161,0.058,0.327,-5.337
0.200,0.056,0.324,-5.337
0.179,0.059,0.320,-5.337
0.072,0.060,0.322,-5.337
0.034,0.058,0.322,-5.337
0.171,0.056,0.325,-5.337
0.258,0.056,0.326,-5.337
0.251,0.059,0.326,-5.337
0.233,0.060,0.325,-5.337
0.203,0.062,0.329,-5.337
0.180,0.061,0.331,-5.337
0.119,0.062,0.328,-5.337
0.101,0.057,0.327,-5.337
0.208,0.051,0.330,-5.337
0.298,0.054,0.330,-5.337
0.335,0.051,0.327,-5.337
0.345,0.048,0.325,-5.337
0.273,0.049,0.323,-5.337
0.183,0.051,0.323,-5.337
0.177,0.053,0.325,-5.337
0.166,0.054,0.325,-5.337
0.215,0.048,0.327,-5.337
0.272,0.046,0.328,-5.337
0.252,0.050,0.325,-5.337
0.238,0.051,0.324,-5.337
0.254,0.051,0.322,-5.337
0.221,0.052,0.325,-5.337
0.151,0.051,0.326,-5.337
0.117,0.050,0.329,-5.337
0.126,0.050,0.329,-5.337
0.255,0.047,0.327,-5.337
0.332,0.046,0.324,-5.337
0.259,0.048,0.325,-5.337
0.148,0.053,0.325,-5.337
0.168,0.051,0.328,-5.337
0.162,0.052,0.329,-5.337
0.084,0.054,0.332,-5.337
0.113,0.052,0.330,-5.337
0.215,0.053,0.328,-5.337
0.224,0.051,0.327,-5.337
0.183,0.054,0.330,-5.337
0.158,0.054,0.328,-5.337
0.239,0.050,0.325,-5.337
0.210,0.052,0.326,-5.337
0.169,0.050,0.325,-5.337
0.208,0.051,0.325,-5.337
0.232,0.049,0.325,-5.337
0.227,0.045,0.330,-5.337
0.199,0.046,0.331,-5.337
0.173,0.051,0.330,-5.337
0.212,0.054,0.327,-5.337
0.239,0.049,0.327,-5.337
0.212,0.047,0.328,-5.337
0.229,0.047,0.330,-5.337
0.256,0.047,0.331,-5.337
0.219,0.048,0.328,-5.337
0.200,0.044,0.324,-5.337
0.183,0.047,0.325,-5.337
0.187,0.048,0.327,-5.337
0.189,0.052,0.326,-5.337
0.118,0.050,0.324,-5.337
0.168,0.045,0.325,-5.337
0.263,0.045,0.325,-5.337
0.233,0.047,0.326,-5.337
0.160,0.049,0.330,-5.337
0.149,0.045,0.331,-5.337
0.204,0.044,0.332,-5.337
0.202,0.045,0.333,-5.337
0.170,0.047,0.331,-5.337
0.224,0.049,0.330,-5.337
0.234,0.046,0.329,-5.337
0.190,0.047,0.325,-5.337
0.170,0.045,0.326,-5.337
0.140,0.050,0.325,-5.337
0.101,0.050,0.327,-5.337
0.190,0.047,0.327,-5.337
0.204,0.047,0.328,-5.337
0.140,0.045,0.329,-5.337
0.206,0.041,0.330,-5.337
0.246,0.042,0.327,-5.337
0.280,0.046,0.326,-5.337
0.304,0.045,0.328,-5.337
0.279,0.045,0.327,-5.337
0.260,0.047,0.327,-5.337
0.260,0.046,0.330,-5.337
0.291,0.048,0.329,-5.337
0.292,0.047,0.326,-5.337
0.273,0.045,0.326,-5.337
0.230,0.045,0.328,-5.337
0.223,0.043,0.330,-5.337
0.277,0.040,0.329,-5.337
0.199,0.042,0.330,-5.337
0.123,0.044,0.327,-5.337
0.134,0.045,0.328,-5.337
0.158,0.041,0.324,-5.337
0.211,0.040,0.331,-5.337
0.186,0.040,0.332,-5.337
0.126,0.042,0.328,-5.337
0.062,0.043,0.327,-5.337
0.106,0.044,0.329,-5.337
0.178,0.039,0.332,-5.337
0.274,0.037,0.329,-5.337
0.312,0.036,0.324,-5.337
0.299,0.039,0.323,-5.337
0.234,0.042,0.324,-5.337
0.186,0.044,0.323,-5.337
0.227,0.043,0.327,-5.337
0.256,0.044,0.331,-5.337
0.252,0.040,0.327,-5.337
0.238,0.039,0.325,-5.337
0.175,0.043,0.326,-5.337
0.123,0.046,0.325,-5.337
0.196,0.040,0.325,-5.337
0.240,0.038,0.324,-5.337
0.207,0.039,0.324,-5.337
0.230,0.035,0.324,-5.337
0.280,0.036,0.329,-5.337
0.294,0.036,0.330,-5.337
0.254,0.038,0.329,-5.337
0.216,0.042,0.328,-5.337
0.221,0.044,0.325,-5.337
0.174,0.045,0.324,-5.337
0.155,0.047,0.324,-5.337
0.078,0.044,0.325,-5.337
0.131,0.044,0.325,-5.337
0.175,0.045,0.326,-5.337
0.147,0.050,0.326,-5.337
0.085,0.052,0.325,-5.337
0.154,0.049,0.323,-5.337
0.224,0.049,0.324,-5.337
0.266,0.046,0.327,-5.337
0.282,0.046,0.328,-5.337
0.220,0.049,0.328,-5.337
0.204,0.045,0.329,-5.337
0.215,0.044,0.326,-5.337
0.227,0.041,0.323,-5.337
0.219,0.041,0.326,-5.337
0.202,0.041,0.330,-5.337
0.220,0.039,0.330,-5.337
0.276,0.040,0.327,-5.337
0.259,0.040,0.324,-5.337
0.200,0.043,0.325,-5.337
0.172,0.041,0.326,-5.337
0.265,0.040,0.327,-5.337
0.267,0.041,0.325,-5.337
0.216,0.043,0.321,-5.337
0.171,0.041,0.318,-5.337
0.175,0.041,0.321,-5.337
0.182,0.039,0.324,-5.337
0.204,0.038,0.325,-5.337
0.220,0.034,0.325,-5.337
0.187,0.038,0.324,-5.337
0.161,0.041,0.328,-5.337
0.116,0.039,0.332,-5.337
0.145,0.037,0.329,-5.337
0.193,0.038,0.323,-5.337
0.246,0.040,0.324,-5.337
0.197,0.041,0.327,-5.337
0.189,0.042,0.327,-5.337
0.199,0.045,0.325,-5.337
0.172,0.047,0.327,-5.337
0.195,0.043,0.329,-5.337
0.212,0.045,0.331,-5.337
0.223,0.044,0.326,-5.337
0.222,0.044,0.322,-5.337
0.257,0.043,0.322,-5.337
0.301,0.041,0.325,-5.337
0.226,0.040,0.327,-5.337
0.152,0.043,0.327,-5.337
0.131,0.046,0.330,-5.337
0.106,0.049,0.331,-5.337
0.157,0.049,0.331,-5.337
0.226,0.050,0.328,-5.337
0.215,0.048,0.323,-5.337
0.225,0.046,0.322,-5.337
0.225,0.044,0.325,-5.337
0.195,0.042,0.327,-5.337
0.206,0.040,0.325,-5.337
0.234,0.036,0.323,-5.337
0.216,0.038,0.323,-5.337
0.142,0.039,0.324,-5.337
0.181,0.038,0.325,-5.337
0.274,0.037,0.325,-5.337
0.295,0.041,0.328,-5.337
0.269,0.042,0.328,-5.337
0.217,0.037,0.326,-5.337
0.204,0.038,0.325,-5.337
0.235,0.037,0.329,-5.337
0.263,0.037,0.327,-5.337
0.250,0.038,0.324,-5.337
0.264,0.036,0.323,-5.337
0.271,0.036,0.326,-5.337
0.203,0.036,0.327,-5.337
0.210,0.037,0.326,-5.337
0.288,0.034,0.326,-5.337
0.229,0.039,0.327,-5.337
0.253,0.041,0.328,-5.337
0.304,0.042,0.327,-5.337
0.249,0.045,0.326,-5.337
0.168,0.047,0.328,-5.337
0.078,0.047,0.331,-5.337
0.116,0.045,0.334,-5.337
0.228,0.042,0.330,-5.337
0.222,0.041,0.325,-5.337
0.151,0.041,0.323,-5.337
0.170,0.042,0.324,-5.337
0.277,0.039,0.324,-5.337
0.320,0.037,0.324,-5.337
0.299,0.035,0.330,-5.337
0.251,0.039,0.330,-5.337
0.219,0.040,0.329,-5.337
0.223,0.036,0.327,-5.337
0.213,0.039,0.328,-5.337
0.230,0.037,0.328,-5.337
0.243,0.036,0.330,-5.337
0.234,0.034,0.329,-5.337
0.199,0.035,0.325,-5.337
0.185,0.041,0.319,-5.337
0.136,0.043,0.316,-5.337
0.219,0.038,0.317,-5.337
0.309,0.039,0.322,-5.337
0.293,0.039,0.325,-5.337
0.268,0.040,0.326,-5.337
0.183,0.043,0.328,-5.337
0.121,0.041,0.330,-5.337
0.177,0.035,0.330,-5.337
0.216,0.035,0.329,-5.337
0.237,0.037,0.328,-5.337
0.211,0.039,0.321,-5.337
0.227,0.036,0.320,-5.337
0.270,0.034,0.323,-5.337
0.275,0.039,0.328,-5.337
0.142,0.044,0.329,-5.337
0.064,0.042,0.330,-5.337
0.192,0.035,0.328,-5.337
0.307,0.035,0.326,-5.337
0.232,0.040,0.327,-5.337
0.058,0.045,0.326,-5.337
0.079,0.040,0.325,-5.337
0.197,0.042,0.325,-5.337
0.236,0.040,0.323,-5.337
0.248,0.035,0.321,-5.337
0.239,0.034,0.322,-5.337
0.181,0.039,0.327,-5.337
0.081,0.040,0.323,-5.337
0.105,0.037,0.323,-5.337
0.220,0.035,0.326,-5.337
0.175,0.037,0.329,-5.337
0.168,0.038,0.330,-5.337
0.135,0.041,0.328,-5.337
0.080,0.038,0.327,-5.337
0.171,0.038,0.325,-5.337
0.241,0.041,0.322,-5.337
0.244,0.042,0.323,-5.337
0.221,0.042,0.324,-5.337
0.252,0.040,0.321,-5.337
0.243,0.040,0.320,-5.337
0.205,0.038,0.320,-5.337
0.252,0.039,0.322,-5.337
0.269,0.038,0.324,-5.337
0.247,0.040,0.328,-5.337
0.193,0.042,0.331,-5.337
0.103,0.047,0.332,-5.337
0.112,0.050,0.330,-5.337
0.203,0.046,0.325,-5.337
0.266,0.045,0.323,-5.337
0.228,0.046,0.324,-5.337
0.178,0.047,0.322,-5.337
0.152,0.046,0.324,-5.337
0.133,0.044,0.325,-5.337
0.139,0.044,0.325,-5.337
0.162,0.044,0.327,-5.337
0.184,0.045,0.333,-5.337
0.204,0.045,0.335,-5.337
0.273,0.042,0.332,-5.337
0.277,0.040,0.330,-5.337
0.250,0.040,0.323,-5.337
0.176,0.046,0.318,-5.337
0.150,0.047,0.317,-5.337
0.168,0.043,0.325,-5.337
0.217,0.040,0.330,-5.337
0.236,0.044,0.331,-5.337
0.186,0.046,0.327,-5.337
0.141,0.044,0.324,-5.337
0.144,0.045,0.322,-5.337
0.129,0.045,0.321,-5.337
0.202,0.042,0.320,-5.337
0.175,0.042,0.321,-5.337
0.137,0.042,0.325,-5.337
0.183,0.043,0.326,-5.337
0.184,0.043,0.324,-5.337
0.179,0.042,0.324,-5.337
0.217,0.042,0.324,-5.337
0.249,0.041,0.323,-5.337
0.169,0.049,0.324,-5.337
0.144,0.047,0.326,-5.337
0.209,0.044,0.333,-5.337
0.193,0.046,0.338,-5.337
0.140,0.050,0.337,-5.337
0.165,0.052,0.331,-5.337
0.144,0.050,0.324,-5.337
0.131,0.048,0.319,-5.337
0.159,0.047,0.319,-5.337
0.230,0.043,0.321,-5.337
0.243,0.046,0.323,-5.337
0.196,0.045,0.323,-5.337
0.189,0.044,0.325,-5.337
0.177,0.042,0.322,-5.337
0.192,0.046,0.323,-5.337
0.179,0.047,0.324,-5.337
0.177,0.047,0.325,-5.337
0.207,0.051,0.330,-5.337
0.203,0.050,0.335,-5.337
0.213,0.045,0.332,-5.337
0.169,0.047,0.326,-5.337
0.153,0.047,0.321,-5.337
0.211,0.045,0.321,-5.337
0.232,0.047,0.324,-5.337
0.171,0.050,0.325,-5.337
0.080,0.055,0.325,-5.337
0.070,0.052,0.325,-5.337
0.119,0.052,0.325,-5.337
0.175,0.049,0.323,-5.337
0.176,0.051,0.325,-5.337
0.195,0.050,0.325,-5.337
0.198,0.050,0.326,-5.337
0.186,0.049,0.328,-5.337
0.217,0.046,0.330,-5.337
0.207,0.044,0.328,-5.337
0.194,0.045,0.326,-5.337
0.228,0.044,0.325,-5.337
0.284,0.045,0.327,-5.337
0.320,0.044,0.328,-5.337
0.279,0.045,0.329,-5.337
0.212,0.048,0.330,-5.337
0.179,0.048,0.330,-5.337
0.226,0.050,0.326,-5.337
0.176,0.054,0.325,-5.337
0.113,0.056,0.326,-5.337
0.164,0.057,0.326,-5.337
0.217,0.050,0.326,-5.337
0.148,0.046,0.322,-5.337
0.083,0.047,0.324,-5.337
0.111,0.047,0.327,-5.337
0.205,0.049,0.330,-5.337
0.244,0.049,0.330,-5.337
0.283,0.048,0.329,-5.337
0.275,0.048,0.324,-5.337
0.267,0.049,0.321,-5.337
0.259,0.048,0.322,-5.337
0.239,0.046,0.327,-5.337
0.177,0.046,0.328,-5.337
0.207,0.047,0.328,-5.337
0.265,0.047,0.326,-5.337
0.278,0.047,0.324,-5.337
0.223,0.046,0.322,-5.337
0.196,0.045,0.323,-5.337
0.178,0.050,0.328,-5.337
0.122,0.053,0.327,-5.337
0.110,0.052,0.325,-5.337
0.155,0.052,0.327,-5.337
0.213,0.050,0.331,-5.337
0.286,0.049,0.330,-5.337
0.288,0.052,0.329,-5.337
0.165,0.051,0.325,-5.337
0.136,0.051,0.326,-5.337
0.203,0.050,0.326,-5.337
0.162,0.054,0.327,-5.337
0.113,0.052,0.328,-5.337
0.148,0.050,0.330,-5.337
0.174,0.049,0.330,-5.337
0.196,0.054,0.329,-5.337
0.175,0.055,0.325,-5.337
0.122,0.060,0.319,-5.337
0.156,0.057,0.321,-5.337
0.135,0.058,0.326,-5.337
0.126,0.057,0.327,-5.337
0.204,0.057,0.326,-5.337
0.242,0.057,0.325,-5.337
0.171,0.056,0.321,-5.337
0.107,0.055,0.318,-5.337
0.176,0.054,0.322,-5.337
0.234,0.055,0.329,-5.337
0.222,0.057,0.331,-5.337
0.185,0.056,0.329,-5.337
0.181,0.055,0.330,-5.337
0.113,0.057,0.331,-5.337
0.106,0.062,0.329,-5.337
0.127,0.063,0.327,-5.337
0.172,0.057,0.324,-5.337
0.274,0.054,0.325,-5.337
0.342,0.054,0.326,-5.337
0.273,0.057,0.328,-5.337
0.278,0.056,0.327,-5.337
0.329,0.055,0.324,-5.337
0.307,0.055,0.321,-5.337
0.207,0.055,0.320,-5.337
0.174,0.054,0.321,-5.337
0.160,0.056,0.323,-5.337
0.132,0.056,0.324,-5.337
0.162,0.058,0.324,-5.337
0.103,0.057,0.324,-5.337
0.089,0.052,0.327,-5.337
0.138,0.053,0.329,-5.337
0.159,0.056,0.328,-5.337
0.176,0.056,0.327,-5.337
0.176,0.057,0.326,-5.337
0.127,0.059,0.325,-5.337
0.172,0.056,0.322,-5.337
0.224,0.055,0.322,-5.337
0.234,0.053,0.325,-5.337
0.216,0.055,0.331,-5.337
0.199,0.059,0.330,-5.337
0.216,0.058,0.327,-5.337
0.315,0.057,0.320,-5.337
0.302,0.057,0.321,-5.337
0.267,0.058,0.323,-5.337
0.230,0.057,0.324,-5.337
0.206,0.056,0.324,-5.337
0.157,0.057,0.326,-5.337
0.115,0.057,0.327,-5.337
0.123,0.060,0.327,-5.337
0.212,0.055,0.326,-5.337
0.217,0.052,0.322,-5.337
0.181,0.053,0.318,-5.337
0.132,0.056,0.319,-5.337
0.182,0.053,0.323,-5.337
0.231,0.052,0.327,-5.337
0.309,0.052,0.324,-5.337
0.284,0.053,0.321,-5.337
0.201,0.057,0.325,-5.337
0.138,0.060,0.328,-5.337
0.241,0.056,0.332,-5.337
0.318,0.055,0.330,-5.337
0.188,0.057,0.328,-5.337
0.130,0.059,0.324,-5.337
0.080,0.063,0.325,-5.337
0.080,0.063,0.324,-5.337
0.134,0.063,0.323,-5.337
0.182,0.061,0.322,-5.337
0.227,0.062,0.325,-5.337
0.178,0.060,0.328,-5.337
0.131,0.059,0.330,-5.337
0.156,0.058,0.326,-5.337
0.170,0.058,0.325,-5.337
0.180,0.059,0.325,-5.337
0.157,0.057,0.325,-5.337
0.195,0.055,0.324,-5.337
0.203,0.055,0.324,-5.337
0.182,0.055,0.325,-5.337
0.147,0.057,0.326,-5.337
0.166,0.055,0.324,-5.337
0.203,0.054,0.325,-5.337
0.218,0.052,0.327,-5.337
0.206,0.055,0.328,-5.337
0.144,0.054,0.329,-5.337
0.151,0.057,0.326,-5.337
0.157,0.055,0.324,-5.337
0.145,0.050,0.322,-5.337
0.130,0.053,0.324,-5.337
0.148,0.054,0.326,-5.337
0.134,0.057,0.326,-5.337
0.129,0.055,0.327,-5.337
0.112,0.058,0.329,-5.337
0.201,0.054,0.328,-5.337
0.260,0.055,0.327,-5.337
0.192,0.058,0.331,-5.337
0.227,0.057,0.327,-5.337
0.223,0.053,0.322,-5.337
0.186,0.055,0.320,-5.337
0.181,0.058,0.324,-5.337
0.257,0.057,0.327,-5.337
0.206,0.057,0.326,-5.337
0.118,0.057,0.324,-5.337
0.185,0.054,0.326,-5.337
0.243,0.054,0.328,-5.337
0.217,0.053,0.328,-5.337
0.181,0.056,0.324,-5.337
0.162,0.056,0.325,-5.337
0.170,0.056,0.329,-5.337
0.115,0.058,0.330,-5.337
0.085,0.056,0.326,-5.337
0.119,0.056,0.325,-5.337
0.190,0.054,0.324,-5.337
0.232,0.052,0.325,-5.337
0.266,0.053,0.328,-5.337
0.265,0.052,0.328,-5.337
0.138,0.055,0.324,-5.337
0.150,0.053,0.319,-5.337
0.187,0.054,0.322,-5.337
0.253,0.053,0.326,-5.337
0.204,0.053,0.325,-5.337
0.151,0.051,0.324,-5.337
0.211,0.051,0.328,-5.337
0.209,0.050,0.330,-5.337
0.182,0.050,0.330,-5.337
0.193,0.050,0.329,-5.337
0.181,0.052,0.328,-5.337
0.183,0.049,0.326,-5.337
0.227,0.045,0.323,-5.337
0.215,0.045,0.320,-5.337
0.231,0.049,0.321,-5.337
0.207,0.052,0.324,-5.337
0.181,0.050,0.327,-5.337
0.108,0.050,0.327,-5.337
0.108,0.052,0.325,-5.337
0.186,0.047,0.326,-5.337
0.234,0.048,0.329,-5.337
0.194,0.049,0.326,-5.337
0.206,0.050,0.323,-5.337
0.252,0.047,0.322,-5.337
0.210,0.051,0.325,-5.337
0.173,0.048,0.323,-5.337
0.210,0.045,0.321,-5.337
0.203,0.046,0.324,-5.337
0.214,0.050,0.326,-5.337
0.239,0.049,0.326,-5.337
0.237,0.047,0.327,-5.337
0.185,0.049,0.330,-5.337
0.191,0.043,0.326,-5.337
0.238,0.039,0.322,-5.337
0.222,0.039,0.322,-5.337
0.185,0.040,0.327,-5.337
0.180,0.047,0.330,-5.337
0.078,0.047,0.331,-5.337
0.032,0.046,0.327,-5.337
0.172,0.041,0.323,-5.337
0.290,0.042,0.323,-5.337
0.181,0.047,0.325,-5.337
0.099,0.047,0.325,-5.337
0.096,0.048,0.325,-5.337
0.187,0.044,0.326,-5.337
0.234,0.044,0.325,-5.337
0.163,0.047,0.322,-5.337
0.159,0.049,0.320,-5.337
0.194,0.047,0.321,-5.337
0.238,0.045,0.326,-5.337
0.218,0.047,0.330,-5.337
0.187,0.047,0.328,-5.337
0.139,0.047,0.324,-5.337
0.226,0.044,0.323,-5.337
0.242,0.042,0.324,-5.337
0.186,0.044,0.328,-5.337
0.194,0.045,0.329,-5.337
0.225,0.048,0.324,-5.337
0.238,0.048,0.321,-5.337
0.176,0.051,0.326,-5.337
0.266,0.045,0.330,-5.337
0.354,0.042,0.327,-5.337
0.289,0.045,0.323,-5.337
0.151,0.046,0.321,-5.337
0.115,0.041,0.327,-5.337
0.164,0.040,0.327,-5.337
0.231,0.035,0.326,-5.337
0.254,0.038,0.326,-5.337
0.275,0.040,0.327,-5.337
0.226,0.039,0.322,-5.337
0.155,0.041,0.323,-5.337
0.168,0.039,0.323,-5.337
0.250,0.041,0.323,-5.337
0.213,0.042,0.325,-5.337
0.061,0.043,0.329,-5.337
0.080,0.042,0.327,-5.337
0.183,0.040,0.326,-5.337
0.257,0.041,0.325,-5.337
0.294,0.041,0.322,-5.337
0.295,0.041,0.321,-5.337
0.231,0.043,0.323,-5.337
0.235,0.038,0.327,-5.337
0.255,0.037,0.329,-5.337
0.210,0.043,0.329,-5.337
0.122,0.044,0.325,-5.337
0.101,0.042,0.325,-5.337
0.181,0.037,0.324,-5.337
0.230,0.038,0.326,-5.337
0.217,0.037,0.329,-5.337
0.183,0.039,0.332,-5.337
0.146,0.040,0.329,-5.337
0.072,0.040,0.325,-5.337
0.042,0.039,0.325,-5.337
0.123,0.042,0.329,-5.337
0.218,0.043,0.328,-5.337
0.238,0.043,0.326,-5.337
0.196,0.039,0.326,-5.337
0.209,0.037,0.327,-5.337
0.149,0.038,0.327,-5.337
0.092,0.039,0.325,-5.337
0.162,0.036,0.325,-5.337
0.261,0.036,0.322,-5.337
0.264,0.034,0.325,-5.337
0.297,0.031,0.326,-5.337
0.299,0.030,0.328,-5.337
0.178,0.038,0.328,-5.337
0.115,0.040,0.329,-5.337
0.185,0.037,0.328,-5.337
0.256,0.037,0.328,-5.337
0.259,0.038,0.325,-5.337
0.282,0.036,0.325,-5.337
0.241,0.038,0.326,-5.337
0.154,0.041,0.327,-5.337
0.134,0.036,0.327,-5.337
0.173,0.033,0.323,-5.337
0.183,0.035,0.324,-5.337
0.166,0.039,0.328,-5.337
0.193,0.034,0.328,-5.337
0.177,0.032,0.324,-5.337
0.125,0.031,0.325,-5.337
0.144,0.030,0.331,-5.337
0.138,0.032,0.332,-5.337
0.170,0.037,0.329,-5.337
0.236,0.039,0.328,-5.337
0.211,0.037,0.327,-5.337
0.192,0.032,0.329,-5.337
0.214,0.031,0.327,-5.337
0.256,0.032,0.326,-5.337
0.246,0.033,0.324,-5.337
0.115,0.036,0.324,-5.337
0.167,0.030,0.323,-5.337
0.251,0.031,0.326,-5.337
0.214,0.035,0.330,-5.337
0.278,0.034,0.331,-5.337
0.257,0.037,0.328,-5.337
0.125,0.035,0.324,-5.337
0.169,0.030,0.323,-5.337
0.195,0.030,0.322,-5.337
0.208,0.030,0.322,-5.337
0.195,0.031,0.323,-5.337
0.209,0.028,0.325,-5.337
0.249,0.026,0.327,-5.337
0.203,0.030,0.322,-5.337
0.220,0.033,0.318,-5.337
0.230,0.033,0.323,-5.337
0.233,0.030,0.328,-5.337
0.306,0.032,0.332,-5.337
0.304,0.033,0.332,-5.337
0.263,0.033,0.330,-5.337
0.273,0.031,0.324,-5.337
0.315,0.028,0.325,-5.337
0.275,0.030,0.329,-5.337
0.282,0.030,0.334,-5.337
0.279,0.029,0.329,-5.337
0.233,0.031,0.327,-5.337
0.227,0.029,0.331,-5.337
0.295,0.031,0.333,-5.337
0.240,0.032,0.330,-5.337
0.212,0.030,0.327,-5.337
0.204,0.030,0.324,-5.337
0.157,0.032,0.322,-5.337
0.122,0.032,0.323,-5.337
0.248,0.030,0.324,-5.337
0.312,0.028,0.328,-5.337
0.307,0.028,0.330,-5.337
0.251,0.030,0.328,-5.337
0.248,0.035,0.326,-5.337
0.211,0.034,0.324,-5.337
0.130,0.034,0.320,-5.337
0.156,0.031,0.320,-5.337
0.187,0.032,0.324,-5.337
0.172,0.033,0.329,-5.337
0.172,0.034,0.328,-5.337
0.176,0.032,0.328,-5.337
0.229,0.033,0.325,-5.337
0.241,0.033,0.325,-5.337
0.205,0.039,0.323,-5.337
0.186,0.036,0.323,-5.337
0.227,0.034,0.320,-5.337
0.272,0.032,0.321,-5.337
0.282,0.033,0.325,-5.337
0.218,0.037,0.324,-5.337
0.189,0.034,0.320,-5.337
0.237,0.032,0.322,-5.337
0.275,0.032,0.327,-5.337
0.294,0.032,0.330,-5.337
0.261,0.031,0.327,-5.337
0.187,0.033,0.326,-5.337
0.163,0.030,0.324,-5.337
0.216,0.030,0.322,-5.337
0.274,0.030,0.324,-5.337
0.244,0.032,0.323,-5.337
0.190,0.029,0.323,-5.337
0.184,0.029,0.325,-5.337
0.152,0.034,0.326,-5.337
0.153,0.033,0.324,-5.337
0.211,0.031,0.325,-5.337
0.181,0.034,0.327,-5.337
0.164,0.036,0.327,-5.337
0.171,0.034,0.326,-5.337
0.180,0.030,0.325,-5.337
0.140,0.032,0.321,-5.337
0.113,0.034,0.317,-5.337
0.151,0.034,0.321,-5.337
0.236,0.031,0.328,-5.337
0.300,0.026,0.327,-5.337
0.280,0.029,0.325,-5.337
0.292,0.032,0.325,-5.337
0.302,0.030,0.324,-5.337
0.252,0.029,0.322,-5.337
0.200,0.030,0.321,-5.337
0.194,0.033,0.322,-5.337
0.254,0.030,0.322,-5.337
0.272,0.029,0.323,-5.337
0.268,0.029,0.328,-5.337
0.192,0.029,0.329,-5.337
0.164,0.033,0.328,-5.337
0.224,0.031,0.325,-5.337
0.256,0.033,0.324,-5.337
0.250,0.031,0.325,-5.337
0.248,0.030,0.328,-5.337
0.237,0.034,0.331,-5.337
0.202,0.031,0.328,-5.337
0.116,0.030,0.324,-5.337
0.026,0.032,0.324,-5.337
0.028,0.032,0.329,-5.337
0.101,0.032,0.330,-5.337
0.248,0.031,0.330,-5.337
0.223,0.031,0.326,-5.337
0.182,0.032,0.321,-5.337
0.182,0.028,0.321,-5.337
0.195,0.029,0.324,-5.337
0.150,0.033,0.325,-5.337
0.196,0.032,0.329,-5.337
0.295,0.027,0.327,-5.337
0.278,0.030,0.324,-5.337
0.197,0.033,0.323,-5.337
0.175,0.032,0.327,-5.337
0.182,0.028,0.326,-5.337
0.181,0.032,0.320,-5.337
0.238,0.034,0.320,-5.337
0.241,0.030,0.323,-5.337
0.194,0.029,0.328,-5.337
0.209,0.029,0.328,-5.337
0.222,0.031,0.328,-5.337
0.233,0.031,0.327,-5.337
0.225,0.031,0.328,-5.337
0.211,0.031,0.324,-5.337
0.208,0.036,0.323,-5.337
0.194,0.037,0.321,-5.337
0.192,0.035,0.326,-5.337
0.230,0.033,0.328,-5.337
0.205,0.035,0.326,-5.337
0.157,0.036,0.325,-5.337
0.134,0.037,0.325,-5.337
0.159,0.033,0.327,-5.337
0.141,0.035,0.330,-5.337
0.122,0.038,0.330,-5.337
0.197,0.037,0.327,-5.337
0.236,0.037,0.325,-5.337
0.265,0.033,0.325,-5.337
0.282,0.036,0.327,-5.337
0.211,0.040,0.325,-5.337
0.200,0.039,0.326,-5.337
0.207,0.034,0.328,-5.337
0.237,0.032,0.331,-5.337
0.187,0.031,0.329,-5.337
0.194,0.030,0.325,-5.337
0.247,0.030,0.315,-5.337
0.243,0.033,0.316,-5.337
0.196,0.037,0.325,-5.337
0.178,0.041,0.332,-5.337
0.191,0.040,0.332,-5.337
0.252,0.039,0.327,-5.337
0.207,0.040,0.326,-5.337
0.120,0.043,0.325,-5.337
0.154,0.043,0.323,-5.337
0.162,0.042,0.324,-5.337
0.102,0.042,0.324,-5.337
0.162,0.042,0.323,-5.337
0.217,0.041,0.321,-5.337
0.192,0.039,0.322,-5.337
0.185,0.040,0.325,-5.337
0.151,0.041,0.327,-5.337
0.207,0.036,0.326,-5.337
0.319,0.036,0.325,-5.337
0.265,0.038,0.328,-5.337
0.196,0.039,0.329,-5.337
0.236,0.036,0.330,-5.337
0.265,0.037,0.327,-5.337
0.221,0.044,0.321,-5.337
0.197,0.044,0.317,-5.337
0.254,0.042,0.319,-5.337
0.250,0.043,0.319,-5.337
0.210,0.043,0.324,-5.337
0.188,0.043,0.329,-5.337
0.213,0.041,0.328,-5.337
0.248,0.040,0.324,-5.337
0.217,0.042,0.320,-5.337
0.155,0.043,0.322,-5.337
0.181,0.041,0.329,-5.337
0.245,0.038,0.329,-5.337
0.299,0.041,0.327,-5.337
0.169,0.044,0.326,-5.337
0.125,0.045,0.325,-5.337
0.180,0.039,0.321,-5.337
0.247,0.042,0.323,-5.337
0.239,0.046,0.329,-5.337
0.148,0.048,0.328,-5.337
0.107,0.046,0.326,-5.337
0.115,0.044,0.320,-5.337
0.214,0.047,0.321,-5.337
0.245,0.049,0.325,-5.337
0.152,0.051,0.327,-5.337
0.159,0.048,0.320,-5.337
0.153,0.051,0.320,-5.337
0.112,0.051,0.326,-5.337
0.088,0.051,0.330,-5.337
0.207,0.048,0.327,-5.337
0.302,0.051,0.324,-5.337
0.196,0.053,0.324,-5.337
0.107,0.053,0.325,-5.337
0.150,0.051,0.326,-5.337
0.241,0.046,0.325,-5.337
0.302,0.043,0.323,-5.337
0.270,0.050,0.324,-5.337
0.202,0.052,0.323,-5.337
0.165,0.051,0.323,-5.337
0.161,0.051,0.326,-5.337
0.202,0.049,0.326,-5.337
0.219,0.052,0.321,-5.337
0.139,0.056,0.322,-5.337
0.151,0.052,0.325,-5.337
0.221,0.051,0.324,-5.337
0.130,0.054,0.323,-5.337
0.121,0.052,0.319,-5.337
0.105,0.057,0.318,-5.337
0.193,0.052,0.321,-5.337
0.284,0.050,0.327,-5.337
0.264,0.051,0.329,-5.337
0.216,0.051,0.329,-5.337
0.216,0.052,0.326,-5.337
0.244,0.056,0.326,-5.337
0.157,0.055,0.323,-5.337
0.092,0.053,0.320,-5.337
0.110,0.053,0.321,-5.337
0.149,0.053,0.326,-5.337
0.230,0.048,0.326,-5.337
0.239,0.050,0.324,-5.337
0.177,0.052,0.325,-5.337
0.202,0.048,0.328,-5.337
0.231,0.048,0.329,-5.337
0.330,0.050,0.328,-5.337
0.331,0.050,0.324,-5.337
0.274,0.053,0.323,-5.337
0.205,0.057,0.325,-5.337
0.199,0.054,0.323,-5.337
0.180,0.054,0.323,-5.337
0.105,0.055,0.324,-5.337
0.177,0.053,0.330,-5.337
0.215,0.055,0.328,-5.337
0.105,0.058,0.326,-5.337
0.102,0.055,0.325,-5.337
0.231,0.053,0.322,-5.337
0.240,0.057,0.321,-5.337
0.174,0.062,0.320,-5.337
0.175,0.060,0.320,-5.337
0.160,0.061,0.319,-5.337
0.131,0.057,0.319,-5.337
0.201,0.052,0.325,-5.337
0.220,0.055,0.329,-5.337
0.158,0.058,0.329,-5.337
0.179,0.056,0.327,-5.337
0.269,0.054,0.326,-5.337
0.264,0.054,0.327,-5.337
0.209,0.060,0.327,-5.337
0.130,0.060,0.327,-5.337
0.132,0.057,0.326,-5.337
0.169,0.057,0.327,-5.337
0.195,0.056,0.324,-5.337
0.244,0.059,0.323,-5.337
0.250,0.058,0.323,-5.337
0.206,0.057,0.324,-5.337
0.180,0.058,0.324,-5.337
0.229,0.057,0.321,-5.337
0.233,0.059,0.324,-5.337
0.191,0.063,0.326,-5.337
0.200,0.058,0.323,-5.337
0.251,0.060,0.323,-5.337
0.187,0.062,0.324,-5.337
0.129,0.065,0.326,-5.337
0.166,0.061,0.325,-5.337
0.234,0.056,0.328,-5.337
0.190,0.058,0.331,-5.337
0.117,0.063,0.331,-5.337
0.061,0.067,0.330,-5.337
-0.018,0.065,0.328,-5.337
0.067,0.061,0.327,-5.337
0.131,0.063,0.329,-5.337
0.150,0.063,0.327,-5.337
0.112,0.063,0.322,-5.337
0.136,0.060,0.319,-5.337
0.160,0.064,0.320,-5.337
0.169,0.063,0.322,-5.337
0.242,0.058,0.323,-5.337
0.309,0.061,0.326,-5.337
0.227,0.060,0.326,-5.337
0.209,0.062,0.328,-5.337
0.249,0.060,0.325,-5.337
0.289,0.061,0.327,-5.337
0.243,0.062,0.328,-5.337
0.221,0.063,0.325,-5.337
0.202,0.061,0.323,-5.337
0.217,0.058,0.326,-5.337
0.254,0.055,0.329,-5.337
0.222,0.054,0.328,-5.337
0.193,0.052,0.323,-5.337
0.147,0.056,0.320,-5.337
0.114,0.057,0.323,-5.337
0.176,0.056,0.327,-5.337
0.206,0.056,0.325,-5.337
0.167,0.060,0.321,-5.337
0.120,0.063,0.322,-5.337
0.139,0.062,0.323,-5.337
0.168,0.059,0.324,-5.337
0.224,0.057,0.323,-5.337
0.240,0.062,0.326,-5.337
0.216,0.064,0.328,-5.337
0.211,0.061,0.328,-5.337
0.220,0.059,0.326,-5.337
0.304,0.059,0.323,-5.337
0.313,0.061,0.321,-5.337
0.242,0.063,0.325,-5.337
0.190,0.064,0.330,-5.337
0.211,0.064,0.331,-5.337
0.268,0.060,0.328,-5.337
0.262,0.061,0.327,-5.337
0.268,0.059,0.328,-5.337
0.283,0.058,0.329,-5.337
0.230,0.058,0.326,-5.337
0.167,0.061,0.325,-5.337
0.200,0.065,0.323,-5.337
0.203,0.065,0.319,-5.337
0.175,0.057,0.318,-5.337
0.190,0.059,0.318,-5.337
0.146,0.067,0.323,-5.337
0.128,0.066,0.324,-5.337
0.128,0.063,0.321,-5.337
0.157,0.063,0.319,-5.337
0.162,0.063,0.321,-5.337
0.171,0.060,0.320,-5.337
0.182,0.060,0.315,-5.337
0.136,0.061,0.315,-5.337
0.102,0.061,0.324,-5.337
0.160,0.059,0.329,-5.337
0.200,0.058,0.331,-5.337
0.201,0.056,0.326,-5.337
0.188,0.059,0.323,-5.337
0.235,0.061,0.325,-5.337
0.206,0.063,0.327,-5.337
0.147,0.064,0.326,-5.337
0.128,0.061,0.323,-5.337
0.098,0.063,0.324,-5.337
0.086,0.063,0.324,-5.337
0.168,0.060,0.321,-5.337
0.185,0.060,0.321,-5.337
0.187,0.056,0.326,-5.337
0.223,0.057,0.325,-5.337
0.261,0.057,0.326,-5.337
0.236,0.059,0.327,-5.337
0.168,0.060,0.326,-5.337
0.174,0.061,0.322,-5.337
0.209,0.063,0.322,-5.337
0.231,0.063,0.323,-5.337
0.253,0.065,0.322,-5.337
0.206,0.067,0.318,-5.337
0.162,0.067,0.320,-5.337
0.178,0.063,0.322,-5.337
0.225,0.065,0.324,-5.337
0.251,0.063,0.329,-5.337
0.266,0.060,0.329,-5.337
0.250,0.060,0.323,-5.337
0.144,0.062,0.320,-5.337
0.160,0.063,0.317,-5.337
0.193,0.064,0.320,-5.337
0.193,0.063,0.321,-5.337
0.205,0.064,0.324,-5.337
0.204,0.063,0.330,-5.337
0.232,0.066,0.330,-5.337
0.219,0.064,0.326,-5.337
0.175,0.059,0.323,-5.337
0.181,0.062,0.326,-5.337
0.219,0.061,0.324,-5.337
0.217,0.062,0.321,-5.337
0.154,0.062,0.319,-5.337
0.142,0.060,0.322,-5.337
0.160,0.061,0.323,-5.337
0.166,0.063,0.322,-5.337
0.193,0.059,0.319,-5.337
0.208,0.060,0.317,-5.337
0.192,0.057,0.319,-5.337
0.202,0.057,0.324,-5.337
0.143,0.061,0.324,-5.337
0.155,0.062,0.326,-5.337
0.250,0.058,0.330,-5.337
0.279,0.058,0.332,-5.337
0.173,0.061,0.326,-5.337
0.152,0.060,0.323,-5.337
0.253,0.057,0.324,-5.337
0.308,0.057,0.324,-5.337
0.255,0.059,0.322,-5.337
0.248,0.058,0.320,-5.337
0.275,0.058,0.323,-5.337
0.254,0.057,0.325,-5.337
0.200,0.057,0.326,-5.337
0.144,0.059,0.326,-5.337
0.092,0.062,0.329,-5.337
0.133,0.059,0.325,-5.337
0.165,0.058,0.320,-5.337
0.162,0.060,0.320,-5.337
0.163,0.063,0.322,-5.337
0.222,0.057,0.323,-5.337
0.197,0.061,0.323,-5.337
0.152,0.059,0.322,-5.337
0.170,0.059,0.325,-5.337
0.134,0.058,0.325,-5.337
0.125,0.054,0.326,-5.337
0.206,0.055,0.324,-5.337
0.188,0.055,0.322,-5.337
0.211,0.053,0.323,-5.337
0.222,0.054,0.328,-5.337
0.299,0.051,0.330,-5.337
0.327,0.051,0.326,-5.337
0.334,0.052,0.327,-5.337
0.268,0.052,0.325,-5.337
0.128,0.054,0.326,-5.337
0.160,0.052,0.324,-5.337
0.288,0.050,0.325,-5.337
0.311,0.050,0.325,-5.337
0.231,0.050,0.327,-5.337
0.275,0.049,0.328,-5.337
0.275,0.052,0.327,-5.337
0.209,0.051,0.323,-5.337
0.223,0.053,0.326,-5.337
0.255,0.051,0.329,-5.337
0.105,0.059,0.327,-5.337
0.063,0.057,0.326,-5.337
0.168,0.052,0.324,-5.337
0.260,0.046,0.326,-5.337
0.233,0.047,0.327,-5.337
0.193,0.052,0.324,-5.337
0.187,0.053,0.324,-5.337
0.188,0.054,0.327,-5.337
0.135,0.057,0.328,-5.337
0.117,0.055,0.325,-5.337
0.130,0.054,0.322,-5.337
0.207,0.050,0.323,-5.337
0.245,0.049,0.326,-5.337
0.279,0.049,0.325,-5.337
0.249,0.050,0.321,-5.337
0.178,0.049,0.320,-5.337
0.163,0.050,0.324,-5.337
0.230,0.052,0.325,-5.337
0.253,0.047,0.321,-5.337
0.152,0.046,0.321,-5.337
0.150,0.046,0.323,-5.337
0.267,0.041,0.326,-5.337
0.323,0.041,0.328,-5.337
0.305,0.045,0.324,-5.337
0.250,0.049,0.320,-5.337
0.176,0.050,0.320,-5.337
0.144,0.052,0.324,-5.337
0.176,0.050,0.327,-5.337
0.205,0.049,0.326,-5.337
0.136,0.052,0.325,-5.337
0.147,0.049,0.325,-5.337
0.191,0.054,0.326,-5.337
0.167,0.056,0.328,-5.337
0.195,0.052,0.324,-5.337
0.248,0.050,0.322,-5.337
0.183,0.048,0.323,-5.337
0.170,0.049,0.322,-5.337
0.132,0.049,0.321,-5.337
0.136,0.049,0.323,-5.337
0.245,0.048,0.326,-5.337
0.323,0.048,0.329,-5.337
0.258,0.047,0.326,-5.337
0.206,0.045,0.322,-5.337
0.277,0.041,0.320,-5.337
0.289,0.047,0.322,-5.337
0.251,0.050,0.321,-5.337
0.261,0.049,0.321,-5.337
0.208,0.046,0.323,-5.337
0.146,0.046,0.327,-5.337
0.271,0.041,0.329,-5.337
0.340,0.043,0.325,-5.337
0.215,0.043,0.320,-5.337
0.129,0.039,0.324,-5.337
0.220,0.038,0.327,-5.337
0.264,0.041,0.327,-5.337
0.188,0.045,0.328,-5.337
0.111,0.048,0.329,-5.337
0.156,0.048,0.328,-5.337
0.213,0.045,0.325,-5.337
0.241,0.040,0.323,-5.337
0.242,0.039,0.320,-5.337
0.257,0.037,0.318,-5.337
0.214,0.040,0.318,-5.337
0.171,0.043,0.322,-5.337
0.195,0.040,0.325,-5.337
0.243,0.038,0.326,-5.337
0.236,0.037,0.325,-5.337
0.214,0.039,0.322,-5.337
0.225,0.042,0.324,-5.337
0.218,0.043,0.328,-5.337
0.239,0.040,0.326,-5.337
0.238,0.044,0.322,-5.337
0.190,0.045,0.320,-5.337
0.080,0.048,0.322,-5.337
0.136,0.047,0.323,-5.337
0.249,0.047,0.325,-5.337
0.218,0.046,0.327,-5.337
0.206,0.044,0.331,-5.337
0.215,0.043,0.326,-5.337
0.178,0.048,0.324,-5.337
0.124,0.046,0.328,-5.337
0.142,0.047,0.327,-5.337
0.185,0.048,0.324,-5.337
0.237,0.047,0.321,-5.337
0.269,0.046,0.323,-5.337
0.301,0.043,0.319,-5.337
0.259,0.044,0.323,-5.337
0.220,0.043,0.327,-5.337
0.206,0.045,0.328,-5.337
0.192,0.044,0.327,-5.337
0.197,0.036,0.327,-5.337
0.240,0.034,0.327,-5.337
0.258,0.036,0.324,-5.337
0.232,0.042,0.321,-5.337
0.172,0.044,0.320,-5.337
0.187,0.042,0.320,-5.337
0.227,0.041,0.323,-5.337
0.204,0.040,0.326,-5.337
0.193,0.037,0.327,-5.337
0.227,0.039,0.327,-5.337
0.189,0.042,0.324,-5.337
0.186,0.043,0.320,-5.337
0.188,0.042,0.318,-5.337
0.131,0.042,0.323,-5.337
0.135,0.039,0.322,-5.337
0.155,0.041,0.323,-5.337
0.118,0.042,0.324,-5.337
0.087,0.042,0.329,-5.337
0.122,0.038,0.330,-5.337
0.238,0.038,0.331,-5.337
0.249,0.039,0.331,-5.337
0.157,0.043,0.330,-5.337
0.099,0.042,0.325,-5.337
0.157,0.040,0.321,-5.337
0.228,0.037,0.317,-5.337
0.197,0.039,0.320,-5.337
0.160,0.036,0.325,-5.337
0.171,0.037,0.327,-5.337
0.212,0.035,0.327,-5.337
0.265,0.033,0.324,-5.337
0.306,0.036,0.323,-5.337
0.230,0.041,0.323,-5.337
0.222,0.038,0.325,-5.337
0.244,0.040,0.325,-5.337
0.211,0.039,0.327,-5.337
0.224,0.038,0.324,-5.337
0.224,0.038,0.323,-5.337
0.227,0.038,0.323,-5.337
0.305,0.037,0.324,-5.337
0.357,0.035,0.324,-5.337
0.271,0.039,0.324,-5.337
0.253,0.042,0.325,-5.337
0.260,0.042,0.324,-5.337
0.276,0.034,0.323,-5.337
0.224,0.034,0.323,-5.337
0.191,0.035,0.323,-5.337
0.166,0.034,0.326,-5.337
0.194,0.030,0.326,-5.337
0.159,0.035,0.325,-5.337
0.136,0.040,0.325,-5.337
0.192,0.038,0.326,-5.337
0.230,0.039,0.321,-5.337
0.215,0.039,0.318,-5.337
0.261,0.037,0.325,-5.337
0.196,0.036,0.330,-5.337
0.137,0.034,0.330,-5.337
0.171,0.037,0.326,-5.337
0.297,0.035,0.322,-5.337
0.371,0.032,0.321,-5.337
0.318,0.032,0.322,-5.337
0.241,0.034,0.323,-5.337
0.155,0.041,0.323,-5.337
0.194,0.042,0.326,-5.337
0.236,0.038,0.325,-5.337
0.191,0.034,0.323,-5.337
0.186,0.031,0.329,-5.337
0.220,0.032,0.334,-5.337
0.154,0.036,0.331,-5.337
0.153,0.033,0.327,-5.337
0.213,0.034,0.322,-5.337
0.241,0.039,0.321,-5.337
0.189,0.045,0.326,-5.337
0.157,0.041,0.328,-5.337
0.160,0.036,0.323,-5.337
0.164,0.037,0.319,-5.337
0.168,0.039,0.322,-5.337
0.155,0.039,0.325,-5.337
0.229,0.039,0.324,-5.337
0.257,0.041,0.318,-5.337
0.230,0.038,0.317,-5.337
0.185,0.040,0.323,-5.337
0.186,0.039,0.326,-5.337
0.230,0.037,0.328,-5.337
0.340,0.036,0.328,-5.337
0.274,0.039,0.328,-5.337
0.186,0.040,0.326,-5.337
0.156,0.039,0.324,-5.337
0.116,0.035,0.319,-5.337
0.128,0.037,0.318,-5.337
0.120,0.035,0.320,-5.337
0.135,0.036,0.325,-5.337
0.162,0.037,0.327,-5.337
0.283,0.033,0.325,-5.337
0.321,0.035,0.325,-5.337
0.238,0.037,0.325,-5.337
0.250,0.036,0.325,-5.337
0.205,0.036,0.326,-5.337
0.184,0.034,0.327,-5.337
0.234,0.036,0.329,-5.337
0.222,0.038,0.326,-5.337
0.165,0.038,0.323,-5.337
0.142,0.035,0.320,-5.337
0.199,0.038,0.323,-5.337
0.173,0.040,0.326,-5.337
0.210,0.035,0.325,-5.337
0.270,0.036,0.321,-5.337
0.239,0.036,0.318,-5.337
0.175,0.039,0.318,-5.337
0.195,0.039,0.317,-5.337
0.232,0.038,0.320,-5.337
0.203,0.037,0.324,-5.337
0.184,0.039,0.324,-5.337
0.267,0.038,0.319,-5.337
0.294,0.039,0.319,-5.337
0.343,0.038,0.321,-5.337
0.341,0.040,0.323,-5.337
0.290,0.042,0.328,-5.337
0.184,0.047,0.328,-5.337
0.154,0.044,0.324,-5.337
0.217,0.039,0.322,-5.337
0.190,0.037,0.321,-5.337
0.195,0.035,0.323,-5.337
0.275,0.035,0.325,-5.337
0.292,0.039,0.321,-5.337
0.259,0.042,0.319,-5.337
0.240,0.042,0.323,-5.337
0.187,0.041,0.325,-5.337
0.122,0.041,0.320,-5.337
0.129,0.042,0.319,-5.337
0.128,0.041,0.323,-5.337
0.118,0.037,0.322,-5.337
0.179,0.036,0.318,-5.337
0.243,0.038,0.318,-5.337
0.333,0.040,0.321,-5.337
0.306,0.044,0.323,-5.337
0.214,0.043,0.327,-5.337
0.248,0.040,0.329,-5.337
0.253,0.041,0.326,-5.337
0.193,0.042,0.325,-5.337
0.218,0.039,0.323,-5.337
0.239,0.038,0.319,-5.337
0.222,0.039,0.317,-5.337
0.206,0.038,0.323,-5.337
0.077,0.042,0.329,-5.337
0.021,0.041,0.333,-5.337
0.081,0.040,0.330,-5.337
0.141,0.041,0.323,-5.337
0.116,0.041,0.322,-5.337
0.092,0.039,0.321,-5.337
0.104,0.040,0.320,-5.337
0.151,0.037,0.319,-5.337
0.189,0.036,0.321,-5.337
0.158,0.034,0.324,-5.337
0.133,0.037,0.325,-5.337
0.200,0.037,0.324,-5.337
0.224,0.042,0.324,-5.337
0.206,0.039,0.322,-5.337
0.219,0.035,0.322,-5.337
0.267,0.032,0.322,-5.337
0.291,0.036,0.323,-5.337
0.269,0.036,0.326,-5.337
0.203,0.037,0.329,-5.337
0.289,0.036,0.325,-5.337
0.307,0.038,0.322,-5.337
0.249,0.040,0.322,-5.337
0.147,0.043,0.322,-5.337
0.203,0.041,0.323,-5.337
0.221,0.042,0.324,-5.337
0.188,0.046,0.326,-5.337
0.183,0.047,0.325,-5.337
0.260,0.043,0.322,-5.337
0.209,0.044,0.321,-5.337
0.200,0.043,0.324,-5.337
0.284,0.045,0.324,-5.337
0.308,0.047,0.323,-5.337
0.256,0.045,0.321,-5.337
0.215,0.043,0.323,-5.337
0.299,0.041,0.326,-5.337
0.352,0.044,0.329,-5.337
0.312,0.045,0.327,-5.337
0.235,0.046,0.326,-5.337
0.158,0.046,0.325,-5.337
0.153,0.049,0.325,-5.337
0.165,0.050,0.325,-5.337
0.165,0.051,0.321,-5.337
0.159,0.049,0.319,-5.337
0.169,0.048,0.318,-5.337
0.234,0.046,0.321,-5.337
0.201,0.048,0.323,-5.337
0.128,0.047,0.327,-5.337
0.081,0.051,0.328,-5.337
0.078,0.049,0.330,-5.337
0.152,0.044,0.325,-5.337
0.233,0.045,0.320,-5.337
0.225,0.044,0.320,-5.337
0.225,0.045,0.322,-5.337
0.194,0.049,0.322,-5.337
0.125,0.051,0.324,-5.337
0.138,0.049,0.324,-5.337
0.165,0.050,0.322,-5.337
0.152,0.049,0.322,-5.337
0.163,0.045,0.322,-5.337
0.179,0.044,0.319,-5.337
0.237,0.046,0.319,-5.337
0.253,0.048,0.318,-5.337
0.234,0.047,0.322,-5.337
0.231,0.046,0.325,-5.337
0.186,0.047,0.328,-5.337
0.193,0.045,0.327,-5.337
0.254,0.049,0.327,-5.337
0.185,0.049,0.320,-5.337
0.114,0.047,0.316,-5.337
0.137,0.047,0.318,-5.337
0.166,0.044,0.324,-5.337
0.220,0.048,0.326,-5.337
0.173,0.050,0.326,-5.337
0.152,0.048,0.327,-5.337
0.142,0.048,0.322,-5.337
0.091,0.048,0.321,-5.337
0.120,0.048,0.322,-5.337
0.211,0.045,0.329,-5.337
0.245,0.046,0.326,-5.337
0.220,0.049,0.323,-5.337
0.212,0.050,0.324,-5.337
0.171,0.053,0.325,-5.337
0.159,0.051,0.325,-5.337
0.199,0.048,0.325,-5.337
0.240,0.046,0.324,-5.337
0.246,0.047,0.321,-5.337
0.190,0.048,0.318,-5.337
0.144,0.050,0.320,-5.337
0.090,0.051,0.320,-5.337
0.093,0.051,0.320,-5.337
0.161,0.054,0.320,-5.337
0.174,0.054,0.323,-5.337
0.205,0.051,0.324,-5.337
0.215,0.051,0.326,-5.337
0.229,0.054,0.327,-5.337
0.177,0.056,0.326,-5.337
0.200,0.051,0.326,-5.337
0.259,0.050,0.325,-5.337
0.258,0.052,0.323,-5.337
0.305,0.051,0.320,-5.337
0.269,0.050,0.320,-5.337
0.265,0.050,0.319,-5.337
0.212,0.051,0.323,-5.337
0.161,0.053,0.320,-5.337
0.126,0.052,0.318,-5.337
0.103,0.056,0.317,-5.337
0.180,0.053,0.319,-5.337
0.235,0.051,0.321,-5.337
0.171,0.052,0.325,-5.337
0.144,0.054,0.326,-5.337
0.205,0.054,0.327,-5.337
0.233,0.048,0.329,-5.337
0.153,0.048,0.325,-5.337
0.184,0.048,0.322,-5.337
0.186,0.053,0.323,-5.337
0.144,0.052,0.324,-5.337
0.179,0.051,0.325,-5.337
0.164,0.051,0.326,-5.337
0.091,0.051,0.324,-5.337
0.101,0.049,0.321,-5.337
0.144,0.052,0.317,-5.337
0.151,0.050,0.317,-5.337
0.177,0.046,0.318,-5.337
0.177,0.046,0.324,-5.337
0.201,0.050,0.327,-5.337
0.201,0.055,0.325,-5.337
0.146,0.054,0.321,-5.337
0.120,0.058,0.326,-5.337
0.172,0.056,0.327,-5.337
0.245,0.054,0.325,-5.337
0.180,0.053,0.325,-5.337
0.175,0.057,0.326,-5.337
0.271,0.054,0.324,-5.337
0.243,0.054,0.323,-5.337
0.178,0.054,0.322,-5.337
0.198,0.052,0.323,-5.337
0.201,0.057,0.325,-5.337
0.169,0.058,0.324,-5.337
0.164,0.054,0.322,-5.337
0.161,0.053,0.324,-5.337
0.263,0.047,0.325,-5.337
0.276,0.050,0.322,-5.337
0.228,0.053,0.320,-5.337
0.185,0.051,0.318,-5.337
0.222,0.053,0.322,-5.337
0.265,0.050,0.326,-5.337
0.184,0.055,0.328,-5.337
0.121,0.056,0.324,-5.337
0.181,0.057,0.324,-5.337
0.266,0.056,0.323,-5.337
0.317,0.056,0.322,-5.337
0.293,0.054,0.322,-5.337
0.240,0.055,0.327,-5.337
0.145,0.057,0.325,-5.337
0.168,0.058,0.326,-5.337
0.213,0.059,0.327,-5.337
0.213,0.056,0.326,-5.337
0.160,0.055,0.322,-5.337
0.107,0.059,0.317,-5.337
0.181,0.059,0.318,-5.337
0.292,0.056,0.321,-5.337
0.273,0.055,0.321,-5.337
0.196,0.058,0.323,-5.337
0.188,0.057,0.325,-5.337
0.211,0.053,0.326,-5.337
0.267,0.055,0.325,-5.337
0.262,0.055,0.320,-5.337
0.196,0.056,0.323,-5.337
0.170,0.055,0.327,-5.337
0.175,0.054,0.328,-5.337
0.210,0.056,0.322,-5.337
0.203,0.059,0.320,-5.337
0.239,0.059,0.319,-5.337
0.233,0.061,0.320,-5.337
0.149,0.064,0.321,-5.337
0.138,0.063,0.322,-5.337
0.163,0.056,0.325,-5.337
0.200,0.056,0.330,-5.337
0.174,0.061,0.327,-5.337
0.103,0.066,0.321,-5.337
0.039,0.067,0.319,-5.337
0.062,0.062,0.317,-5.337
0.126,0.060,0.316,-5.337
0.174,0.057,0.316,-5.337
0.160,0.058,0.317,-5.337
0.107,0.060,0.321,-5.337
0.135,0.059,0.324,-5.337
0.164,0.059,0.323,-5.337
0.221,0.055,0.329,-5.337
0.184,0.058,0.328,-5.337
0.170,0.056,0.325,-5.337
0.223,0.056,0.322,-5.337
0.217,0.058,0.324,-5.337
0.248,0.056,0.324,-5.337
0.270,0.059,0.323,-5.337
0.261,0.057,0.322,-5.337
0.208,0.061,0.322,-5.337
0.236,0.057,0.320,-5.337
0.190,0.060,0.320,-5.337
0.172,0.059,0.320,-5.337
0.252,0.061,0.322,-5.337
0.300,0.060,0.324,-5.337
0.293,0.060,0.324,-5.337
0.270,0.062,0.323,-5.337
0.166,0.065,0.327,-5.337
0.142,0.061,0.328,-5.337
0.203,0.059,0.326,-5.337
0.207,0.058,0.325,-5.337
0.161,0.062,0.324,-5.337
0.118,0.062,0.323,-5.337
0.137,0.064,0.323,-5.337
0.135,0.066,0.324,-5.337
0.188,0.062,0.324,-5.337
0.273,0.059,0.323,-5.337
0.216,0.059,0.321,-5.337
0.162,0.060,0.321,-5.337
0.173,0.058,0.318,-5.337
0.183,0.060,0.321,-5.337
0.203,0.058,0.323,-5.337
0.242,0.059,0.321,-5.337
0.231,0.056,0.319,-5.337
0.177,0.055,0.322,-5.337
0.151,0.054,0.325,-5.337
0.149,0.051,0.324,-5.337
0.166,0.053,0.324,-5.337
0.205,0.053,0.322,-5.337
0.134,0.054,0.320,-5.337
0.129,0.053,0.321,-5.337
0.225,0.051,0.324,-5.337
0.266,0.051,0.322,-5.337
0.266,0.055,0.322,-5.337
0.252,0.054,0.320,-5.337
0.231,0.051,0.320,-5.337
0.218,0.051,0.321,-5.337
0.192,0.055,0.320,-5.337
0.223,0.052,0.317,-5.337
0.241,0.048,0.322,-5.337
0.230,0.049,0.325,-5.337
0.291,0.051,0.325,-5.337
0.231,0.053,0.323,-5.337
0.222,0.050,0.321,-5.337
0.155,0.052,0.321,-5.337
0.139,0.052,0.320,-5.337
0.190,0.050,0.318,-5.337
0.224,0.048,0.319,-5.337
0.239,0.045,0.319,-5.337
0.264,0.047,0.316,-5.337
0.334,0.048,0.316,-5.337
0.281,0.047,0.322,-5.337
0.189,0.044,0.322,-5.337
0.127,0.043,0.321,-5.337
0.131,0.043,0.321,-5.337
0.166,0.043,0.324,-5.337
0.164,0.047,0.323,-5.337
0.157,0.050,0.321,-5.337
0.191,0.051,0.323,-5.337
0.228,0.048,0.324,-5.337
0.298,0.045,0.327,-5.337
0.315,0.044,0.327,-5.337
0.263,0.046,0.327,-5.337
0.206,0.050,0.323,-5.337
0.145,0.052,0.324,-5.337
0.106,0.048,0.323,-5.337
0.132,0.046,0.320,-5.337
0.204,0.043,0.321,-5.337
0.223,0.046,0.325,-5.337
0.195,0.042,0.323,-5.337
0.173,0.042,0.320,-5.337
0.223,0.040,0.320,-5.337
0.203,0.042,0.324,-5.337
0.117,0.047,0.325,-5.337
0.160,0.046,0.321,-5.337
0.266,0.042,0.320,-5.337
0.312,0.039,0.321,-5.337
0.273,0.040,0.324,-5.337
0.222,0.042,0.320,-5.337
0.181,0.042,0.317,-5.337
0.217,0.042,0.320,-5.337
0.225,0.037,0.325,-5.337
0.159,0.040,0.326,-5.337
0.178,0.042,0.322,-5.337
0.177,0.046,0.317,-5.337
0.195,0.045,0.321,-5.337
0.205,0.042,0.325,-5.337
0.129,0.044,0.327,-5.337
0.144,0.042,0.327,-5.337
0.199,0.042,0.322,-5.337
0.213,0.042,0.322,-5.337
0.221,0.044,0.326,-5.337
0.200,0.045,0.325,-5.337
0.132,0.042,0.321,-5.337
0.090,0.041,0.321,-5.337
0.131,0.041,0.323,-5.337
0.220,0.039,0.322,-5.337
0.222,0.038,0.323,-5.337
0.174,0.036,0.326,-5.337
0.165,0.039,0.326,-5.337
0.139,0.040,0.323,-5.337
0.081,0.041,0.322,-5.337
0.082,0.040,0.325,-5.337
0.171,0.039,0.325,-5.337
0.252,0.041,0.324,-5.337
0.214,0.041,0.322,-5.337
0.174,0.041,0.324,-5.337
0.163,0.041,0.325,-5.337
0.209,0.041,0.324,-5.337
0.260,0.042,0.324,-5.337
0.217,0.045,0.323,-5.337
0.172,0.044,0.321,-5.337
0.192,0.040,0.322,-5.337
0.117,0.041,0.324,-5.337
0.088,0.045,0.325,-5.337
0.200,0.042,0.323,-5.337
0.239,0.039,0.321,-5.337
0.258,0.031,0.322,-5.337
0.239,0.034,0.326,-5.337
0.198,0.036,0.326,-5.337
0.211,0.033,0.332,-5.337
0.190,0.033,0.330,-5.337
0.206,0.034,0.324,-5.337
0.270,0.033,0.317,-5.337
0.284,0.037,0.314,-5.337
0.201,0.040,0.314,-5.337
0.140,0.036,0.315,-5.337
0.201,0.035,0.323,-5.337
0.269,0.041,0.329,-5.337
0.248,0.042,0.333,-5.337
0.223,0.039,0.330,-5.337
0.225,0.039,0.324,-5.337
0.210,0.035,0.318,-5.337
0.210,0.035,0.321,-5.337
0.176,0.038,0.325,-5.337
0.211,0.036,0.324,-5.337
0.200,0.036,0.321,-5.337
0.187,0.037,0.325,-5.337
0.181,0.040,0.327,-5.337
0.204,0.039,0.327,-5.337
0.250,0.034,0.325,-5.337
0.213,0.036,0.325,-5.337
0.250,0.032,0.327,-5.337
0.291,0.037,0.329,-5.337
0.204,0.041,0.325,-5.337
0.098,0.040,0.321,-5.337
0.120,0.037,0.319,-5.337
0.258,0.036,0.317,-5.337
0.229,0.037,0.319,-5.337
0.149,0.040,0.323,-5.337
0.156,0.039,0.324,-5.337
0.217,0.040,0.324,-5.337
0.233,0.041,0.326,-5.337
0.205,0.042,0.326,-5.337
0.150,0.041,0.328,-5.337
0.119,0.041,0.327,-5.337
0.171,0.043,0.328,-5.337
0.224,0.041,0.325,-5.337
0.168,0.039,0.322,-5.337
0.162,0.035,0.326,-5.337
0.208,0.038,0.331,-5.337
0.230,0.041,0.330,-5.337
0.214,0.041,0.321,-5.337
0.163,0.039,0.313,-5.337
0.216,0.035,0.313,-5.337
0.298,0.037,0.318,-5.337
0.193,0.043,0.322,-5.337
0.128,0.039,0.323,-5.337
0.150,0.039,0.322,-5.337
0.159,0.042,0.322,-5.337
0.131,0.043,0.324,-5.337
0.118,0.044,0.325,-5.337
0.098,0.045,0.323,-5.337
0.170,0.044,0.320,-5.337
0.247,0.043,0.320,-5.337
0.196,0.043,0.325,-5.337
0.211,0.040,0.323,-5.337
0.297,0.036,0.320,-5.337
0.297,0.039,0.320,-5.337
0.285,0.040,0.322,-5.337
0.287,0.035,0.323,-5.337
0.215,0.036,0.323,-5.337
0.172,0.036,0.322,-5.337
0.157,0.038,0.324,-5.337
0.205,0.034,0.327,-5.337
0.310,0.036,0.329,-5.337
0.318,0.035,0.329,-5.337
0.313,0.036,0.325,-5.337
0.363,0.033,0.317,-5.337
0.279,0.035,0.319,-5.337
0.161,0.034,0.330,-5.337
0.202,0.034,0.332,-5.337
0.226,0.036,0.330,-5.337
0.155,0.039,0.328,-5.337
0.207,0.034,0.326,-5.337
0.240,0.031,0.323,-5.337
0.200,0.034,0.320,-5.337
0.252,0.036,0.320,-5.337
0.243,0.038,0.324,-5.337
0.176,0.038,0.326,-5.337
0.166,0.036,0.326,-5.337
0.250,0.031,0.324,-5.337
0.325,0.031,0.323,-5.337
0.281,0.031,0.321,-5.337
0.189,0.036,0.324,-5.337
0.103,0.035,0.324,-5.337
0.152,0.034,0.324,-5.337
0.223,0.036,0.320,-5.337
0.227,0.042,0.318,-5.337
0.218,0.038,0.317,-5.337
0.260,0.031,0.320,-5.337
0.287,0.031,0.327,-5.337
0.260,0.036,0.333,-5.337
0.197,0.039,0.331,-5.337
0.129,0.036,0.326,-5.337
0.164,0.031,0.322,-5.337
0.175,0.033,0.321,-5.337
0.179,0.036,0.324,-5.337
0.177,0.036,0.324,-5.337
0.162,0.037,0.327,-5.337
0.162,0.038,0.326,-5.337
0.196,0.038,0.327,-5.337
0.224,0.039,0.324,-5.337
0.122,0.041,0.323,-5.337
0.117,0.041,0.320,-5.337
0.157,0.036,0.319,-5.337
0.203,0.035,0.319,-5.337
0.280,0.033,0.320,-5.337
0.302,0.035,0.322,-5.337
0.181,0.039,0.323,-5.337
0.159,0.040,0.326,-5.337
0.177,0.042,0.324,-5.337
0.228,0.040,0.322,-5.337
0.214,0.040,0.326,-5.337
0.245,0.036,0.328,-5.337
0.303,0.035,0.325,-5.337
0.283,0.034,0.323,-5.337
0.236,0.036,0.325,-5.337
0.214,0.035,0.324,-5.337
0.226,0.041,0.320,-5.337
0.212,0.044,0.320,-5.337
0.216,0.044,0.321,-5.337
0.248,0.042,0.324,-5.337
0.266,0.043,0.322,-5.337
0.215,0.046,0.320,-5.337
0.224,0.047,0.319,-5.337
0.295,0.046,0.322,-5.337
0.247,0.046,0.326,-5.337
0.174,0.044,0.327,-5.337
0.151,0.044,0.323,-5.337
0.206,0.041,0.322,-5.337
0.167,0.040,0.323,-5.337
0.136,0.043,0.324,-5.337
0.127,0.045,0.322,-5.337
0.159,0.040,0.324,-5.337
0.267,0.040,0.323,-5.337
0.204,0.042,0.325,-5.337
0.199,0.041,0.324,-5.337
0.261,0.038,0.322,-5.337
0.303,0.040,0.321,-5.337
0.238,0.040,0.321,-5.337
0.149,0.042,0.324,-5.337
0.100,0.044,0.325,-5.337
0.164,0.040,0.328,-5.337
0.218,0.038,0.323,-5.337
0.275,0.040,0.322,-5.337
0.274,0.043,0.322,-5.337
0.226,0.047,0.327,-5.337
0.197,0.043,0.326,-5.337
0.150,0.045,0.326,-5.337
0.172,0.045,0.328,-5.337
0.158,0.050,0.330,-5.337
0.173,0.046,0.328,-5.337
0.195,0.046,0.326,-5.337
0.203,0.042,0.324,-5.337
0.226,0.042,0.321,-5.337
0.216,0.042,0.319,-5.337
0.212,0.042,0.320,-5.337
0.141,0.041,0.321,-5.337
0.127,0.041,0.320,-5.337
0.139,0.043,0.319,-5.337
0.181,0.045,0.320,-5.337
0.212,0.043,0.322,-5.337
0.209,0.044,0.324,-5.337
0.160,0.044,0.324,-5.337
0.149,0.042,0.324,-5.337
0.169,0.042,0.327,-5.337
0.202,0.041,0.331,-5.337
0.195,0.041,0.331,-5.337
0.165,0.041,0.327,-5.337
0.190,0.039,0.329,-5.337
0.225,0.040,0.329,-5.337
0.218,0.046,0.326,-5.337
0.227,0.048,0.322,-5.337
0.202,0.049,0.322,-5.337
0.162,0.047,0.322,-5.337
0.179,0.045,0.321,-5.337
0.200,0.044,0.320,-5.337
0.198,0.043,0.319,-5.337
0.196,0.043,0.319,-5.337
0.264,0.042,0.320,-5.337
0.239,0.042,0.321,-5.337
0.235,0.045,0.322,-5.337
0.233,0.047,0.324,-5.337
0.135,0.049,0.326,-5.337
0.098,0.052,0.327,-5.337
0.093,0.050,0.323,-5.337
0.068,0.052,0.323,-5.337
0.105,0.054,0.322,-5.337
0.158,0.053,0.324,-5.337
0.193,0.048,0.324,-5.337
0.180,0.045,0.325,-5.337
0.199,0.048,0.324,-5.337
0.222,0.049,0.323,-5.337
0.182,0.048,0.321,-5.337
0.223,0.048,0.322,-5.337
0.256,0.050,0.321,-5.337
0.195,0.051,0.321,-5.337
0.220,0.048,0.325,-5.337
0.228,0.046,0.325,-5.337
0.183,0.044,0.323,-5.337
0.206,0.046,0.320,-5.337
0.209,0.048,0.318,-5.337
0.125,0.045,0.317,-5.337
0.182,0.041,0.320,-5.337
0.264,0.041,0.321,-5.337
0.261,0.042,0.325,-5.337
0.209,0.046,0.327,-5.337
0.142,0.047,0.326,-5.337
0.157,0.043,0.327,-5.337
0.147,0.045,0.325,-5.337
0.192,0.046,0.322,-5.337
0.240,0.044,0.321,-5.337
0.241,0.046,0.323,-5.337
0.208,0.046,0.324,-5.337
0.148,0.048,0.320,-5.337
0.163,0.052,0.317,-5.337
0.219,0.052,0.316,-5.337
0.233,0.050,0.321,-5.337
0.193,0.048,0.323,-5.337
0.127,0.053,0.324,-5.337
0.083,0.051,0.326,-5.337
0.128,0.049,0.324,-5.337
0.185,0.050,0.320,-5.337
0.142,0.055,0.320,-5.337
0.098,0.052,0.323,-5.337
0.167,0.048,0.325,-5.337
0.210,0.049,0.325,-5.337
0.215,0.048,0.323,-5.337
0.211,0.047,0.322,-5.337
0.219,0.047,0.319,-5.337
0.153,0.050,0.322,-5.337
0.104,0.051,0.325,-5.337
0.168,0.050,0.325,-5.337
0.233,0.048,0.321,-5.337
0.207,0.048,0.322,-5.337
0.233,0.048,0.323,-5.337
0.226,0.049,0.323,-5.337
0.228,0.048,0.322,-5.337
0.229,0.046,0.324,-5.337
0.258,0.047,0.324,-5.337
0.258,0.047,0.321,-5.337
0.212,0.044,0.318,-5.337
0.082,0.047,0.321,-5.337
0.073,0.045,0.325,-5.337
0.175,0.044,0.324,-5.337
0.246,0.043,0.323,-5.337
0.213,0.042,0.323,-5.337
0.110,0.048,0.324,-5.337
0.122,0.051,0.324,-5.337
0.177,0.051,0.323,-5.337
0.174,0.053,0.323,-5.337
0.105,0.051,0.324,-5.337
0.159,0.049,0.322,-5.337
0.289,0.045,0.322,-5.337
0.340,0.046,0.321,-5.337
0.283,0.050,0.324,-5.337
0.194,0.048,0.324,-5.337
0.155,0.045,0.323,-5.337
0.186,0.044,0.321,-5.337
0.197,0.044,0.321,-5.337
0.165,0.046,0.323,-5.337
0.175,0.047,0.325,-5.337
0.194,0.048,0.324,-5.337
0.233,0.049,0.323,-5.337
0.240,0.049,0.322,-5.337
0.217,0.050,0.324,-5.337
0.182,0.051,0.324,-5.337
0.173,0.051,0.320,-5.337
0.102,0.046,0.317,-5.337
0.098,0.046,0.320,-5.337
0.192,0.046,0.324,-5.337
0.255,0.049,0.323,-5.337
0.205,0.050,0.323,-5.337
0.218,0.046,0.325,-5.337
0.235,0.050,0.326,-5.337
0.216,0.052,0.322,-5.337
0.174,0.053,0.323,-5.337
0.160,0.052,0.324,-5.337
0.151,0.054,0.327,-5.337
0.192,0.054,0.324,-5.337
0.291,0.052,0.323,-5.337
0.246,0.052,0.321,-5.337
0.161,0.054,0.320,-5.337
0.161,0.050,0.320,-5.337
0.149,0.052,0.325,-5.337
0.182,0.053,0.327,-5.337
0.236,0.053,0.327,-5.337
0.265,0.054,0.323,-5.337
0.180,0.054,0.322,-5.337
0.156,0.052,0.319,-5.337
0.167,0.051,0.320,-5.337
0.212,0.051,0.321,-5.337
0.215,0.053,0.320,-5.337
0.176,0.053,0.321,-5.337
0.203,0.053,0.326,-5.337
0.241,0.050,0.327,-5.337
0.225,0.051,0.324,-5.337
0.147,0.054,0.317,-5.337
0.195,0.055,0.316,-5.337
0.287,0.054,0.320,-5.337
0.220,0.053,0.322,-5.337
0.112,0.056,0.325,-5.337
0.142,0.059,0.324,-5.337
0.179,0.057,0.325,-5.337
0.168,0.056,0.323,-5.337
0.106,0.058,0.323,-5.337
0.118,0.057,0.323,-5.337
0.126,0.058,0.325,-5.337
0.114,0.057,0.324,-5.337
0.168,0.056,0.323,-5.337
0.175,0.053,0.320,-5.337
0.122,0.055,0.319,-5.337
0.097,0.055,0.321,-5.337
0.240,0.052,0.324,-5.337
0.305,0.052,0.329,-5.337
0.268,0.053,0.328,-5.337
0.228,0.055,0.323,-5.337
0.115,0.058,0.322,-5.337
0.138,0.055,0.322,-5.337
0.165,0.052,0.321,-5.337
0.240,0.051,0.321,-5.337
0.235,0.056,0.321,-5.337
0.179,0.055,0.321,-5.337
0.178,0.054,0.322,-5.337
0.199,0.054,0.324,-5.337
0.207,0.060,0.325,-5.337
0.199,0.062,0.323,-5.337
0.271,0.058,0.316,-5.337
0.302,0.058,0.316,-5.337
0.221,0.060,0.322,-5.337
0.245,0.059,0.327,-5.337
0.240,0.056,0.325,-5.337
0.164,0.057,0.326,-5.337
0.079,0.059,0.326,-5.337
0.095,0.057,0.326,-5.337
0.162,0.050,0.324,-5.337
0.174,0.051,0.323,-5.337
0.172,0.054,0.323,-5.337
0.177,0.056,0.324,-5.337
0.194,0.053,0.327,-5.337
0.257,0.054,0.326,-5.337
0.297,0.056,0.323,-5.337
0.278,0.059,0.320,-5.337
0.266,0.057,0.321,-5.337
0.228,0.055,0.323,-5.337
0.131,0.059,0.324,-5.337
0.099,0.059,0.320,-5.337
0.131,0.059,0.321,-5.337
0.145,0.058,0.321,-5.337
0.134,0.057,0.323,-5.337
0.133,0.055,0.324,-5.337
0.157,0.056,0.325,-5.337
0.079,0.060,0.326,-5.337
0.055,0.059,0.326,-5.337
0.145,0.054,0.325,-5.337
0.212,0.057,0.323,-5.337
0.171,0.055,0.321,-5.337
0.195,0.051,0.320,-5.337
0.232,0.050,0.319,-5.337
0.227,0.054,0.326,-5.337
0.156,0.049,0.326,-5.337
0.182,0.050,0.323,-5.337
0.148,0.053,0.321,-5.337
0.086,0.057,0.316,-5.337
0.022,0.057,0.317,-5.337
0.102,0.053,0.319,-5.337
0.204,0.052,0.323,-5.337
0.180,0.053,0.324,-5.337
0.160,0.053,0.328,-5.337
0.172,0.057,0.326,-5.337
0.153,0.060,0.328,-5.337
0.137,0.058,0.328,-5.337
0.202,0.055,0.326,-5.337
0.172,0.058,0.322,-5.337
0.166,0.059,0.322,-5.337
0.167,0.057,0.324,-5.337
0.169,0.058,0.325,-5.337
0.220,0.059,0.324,-5.337
0.213,0.057,0.322,-5.337
0.241,0.054,0.318,-5.337
0.214,0.055,0.317,-5.337
0.183,0.059,0.319,-5.337
0.124,0.063,0.321,-5.337
0.098,0.062,0.320,-5.337
0.169,0.058,0.321,-5.337
0.226,0.054,0.325,-5.337
0.246,0.053,0.326,-5.337
0.201,0.054,0.323,-5.337
0.167,0.058,0.317,-5.337
0.127,0.057,0.318,-5.337
0.136,0.053,0.320,-5.337
0.193,0.051,0.320,-5.337
0.235,0.054,0.320,-5.337
0.189,0.056,0.324,-5.337
0.174,0.051,0.326,-5.337
0.164,0.055,0.326,-5.337
0.135,0.055,0.321,-5.337
0.146,0.055,0.320,-5.337
0.185,0.053,0.320,-5.337
0.242,0.051,0.319,-5.337
0.265,0.052,0.320,-5.337
0.177,0.053,0.324,-5.337
0.140,0.054,0.328,-5.337
0.168,0.054,0.327,-5.337
0.262,0.054,0.324,-5.337
0.290,0.055,0.323,-5.337
0.266,0.054,0.322,-5.337
0.255,0.048,0.317,-5.337
0.234,0.050,0.316,-5.337
0.120,0.054,0.316,-5.337
0.167,0.047,0.318,-5.337
0.283,0.045,0.324,-5.337
0.228,0.054,0.328,-5.337
0.110,0.054,0.327,-5.337
0.141,0.044,0.328,-5.337
0.241,0.042,0.323,-5.337
0.243,0.044,0.323,-5.337
0.231,0.045,0.323,-5.337
0.161,0.048,0.323,-5.337
0.140,0.046,0.319,-5.337
0.121,0.046,0.319,-5.337
0.105,0.047,0.318,-5.337
0.139,0.048,0.320,-5.337
0.151,0.049,0.321,-5.337
0.172,0.048,0.320,-5.337
0.222,0.048,0.322,-5.337
0.221,0.048,0.327,-5.337
0.165,0.049,0.328,-5.337
0.204,0.051,0.326,-5.337
0.294,0.048,0.323,-5.337
0.258,0.051,0.323,-5.337
0.222,0.050,0.324,-5.337
0.223,0.051,0.324,-5.337
0.220,0.051,0.321,-5.337
0.148,0.046,0.318,-5.337
0.156,0.048,0.321,-5.337
0.224,0.048,0.324,-5.337
0.245,0.047,0.327,-5.337
0.188,0.048,0.325,-5.337
0.142,0.051,0.323,-5.337
0.106,0.051,0.323,-5.337
0.053,0.050,0.324,-5.337
0.022,0.048,0.324,-5.337
0.143,0.044,0.324,-5.337
0.180,0.047,0.322,-5.337
0.157,0.046,0.321,-5.337
0.218,0.038,0.319,-5.337
0.247,0.036,0.320,-5.337
0.197,0.039,0.323,-5.337
0.185,0.042,0.326,-5.337
0.205,0.043,0.326,-5.337
0.231,0.039,0.323,-5.337
0.209,0.041,0.316,-5.337
0.122,0.046,0.318,-5.337
0.149,0.043,0.323,-5.337
0.209,0.040,0.325,-5.337
0.238,0.042,0.323,-5.337
0.194,0.045,0.321,-5.337
0.172,0.041,0.325,-5.337
0.234,0.041,0.323,-5.337
0.263,0.041,0.324,-5.337
0.273,0.041,0.323,-5.337
0.209,0.042,0.324,-5.337
0.237,0.040,0.325,-5.337
0.218,0.041,0.325,-5.337
0.144,0.042,0.324,-5.337
0.148,0.043,0.319,-5.337
0.155,0.042,0.317,-5.337
0.152,0.043,0.322,-5.337
0.157,0.042,0.322,-5.337
0.218,0.042,0.321,-5.337
0.231,0.041,0.322,-5.337
0.199,0.045,0.323,-5.337
0.199,0.046,0.325,-5.337
0.185,0.042,0.324,-5.337
0.173,0.040,0.319,-5.337
0.207,0.038,0.316,-5.337
0.168,0.039,0.317,-5.337
0.171,0.041,0.321,-5.337
0.197,0.040,0.322,-5.337
0.233,0.040,0.322,-5.337
0.209,0.042,0.323,-5.337
0.102,0.046,0.327,-5.337
0.062,0.044,0.331,-5.337
0.134,0.044,0.328,-5.337
0.176,0.045,0.325,-5.337
0.187,0.044,0.321,-5.337
0.200,0.045,0.321,-5.337
0.178,0.041,0.323,-5.337
0.157,0.041,0.322,-5.337
0.164,0.040,0.319,-5.337
0.156,0.043,0.321,-5.337
0.150,0.042,0.326,-5.337
0.157,0.040,0.327,-5.337
0.130,0.039,0.322,-5.337
0.119,0.040,0.320,-5.337
0.183,0.040,0.319,-5.337
0.253,0.039,0.321,-5.337
0.305,0.040,0.321,-5.337
0.244,0.041,0.323,-5.337
0.175,0.043,0.322,-5.337
0.180,0.042,0.322,-5.337
0.170,0.041,0.324,-5.337
0.166,0.038,0.325,-5.337
0.218,0.038,0.325,-5.337
0.251,0.037,0.324,-5.337
0.271,0.036,0.326,-5.337
0.293,0.034,0.322,-5.337
0.246,0.035,0.319,-5.337
0.196,0.039,0.321,-5.337
0.162,0.044,0.326,-5.337
0.193,0.042,0.326,-5.337
0.204,0.041,0.323,-5.337
0.186,0.041,0.319,-5.337
0.187,0.037,0.320,-5.337
0.176,0.038,0.323,-5.337
0.189,0.038,0.322,-5.337
0.246,0.036,0.320,-5.337
0.229,0.035,0.323,-5.337
0.135,0.037,0.323,-5.337
0.118,0.038,0.325,-5.337
0.173,0.037,0.325,-5.337
0.195,0.038,0.321,-5.337
0.218,0.038,0.321,-5.337
0.237,0.041,0.323,-5.337
0.226,0.040,0.326,-5.337
0.261,0.038,0.325,-5.337
0.265,0.036,0.324,-5.337
0.302,0.034,0.325,-5.337
0.232,0.037,0.326,-5.337
0.174,0.039,0.322,-5.337
0.183,0.040,0.320,-5.337
0.224,0.038,0.320,-5.337
0.217,0.036,0.324,-5.337
0.205,0.039,0.323,-5.337
0.246,0.038,0.324,-5.337
0.236,0.032,0.325,-5.337
0.215,0.034,0.328,-5.337
0.270,0.038,0.329,-5.337
0.257,0.041,0.323,-5.337
0.215,0.037,0.317,-5.337
0.204,0.039,0.319,-5.337
0.221,0.039,0.321,-5.337
0.179,0.039,0.322,-5.337
0.161,0.041,0.323,-5.337
0.135,0.040,0.325,-5.337
0.169,0.036,0.324,-5.337
0.226,0.035,0.327,-5.337
0.217,0.038,0.329,-5.337
0.270,0.034,0.325,-5.337
0.327,0.033,0.323,-5.337
0.306,0.036,0.325,-5.337
0.239,0.038,0.325,-5.337
0.196,0.034,0.324,-5.337
0.259,0.029,0.322,-5.337
0.215,0.032,0.319,-5.337
0.197,0.035,0.321,-5.337
0.237,0.032,0.321,-5.337
0.221,0.035,0.321,-5.337
0.184,0.032,0.325,-5.337
0.086,0.036,0.331,-5.337
0.062,0.035,0.334,-5.337
0.118,0.034,0.328,-5.337
0.160,0.034,0.319,-5.337
0.215,0.034,0.318,-5.337
0.199,0.035,0.320,-5.337
0.173,0.034,0.320,-5.337
0.220,0.031,0.321,-5.337
0.294,0.032,0.325,-5.337
0.244,0.034,0.329,-5.337
0.153,0.037,0.330,-5.337
0.140,0.035,0.327,-5.337
0.174,0.032,0.321,-5.337
0.180,0.036,0.317,-5.337
0.179,0.040,0.320,-5.337
0.164,0.039,0.325,-5.337
0.207,0.036,0.324,-5.337
0.254,0.037,0.325,-5.337
0.208,0.040,0.325,-5.337
0.158,0.041,0.325,-5.337
0.244,0.036,0.321,-5.337
0.279,0.033,0.319,-5.337
0.305,0.033,0.320,-5.337
0.336,0.031,0.323,-5.337
0.258,0.029,0.323,-5.337
0.219,0.029,0.323,-5.337
0.168,0.027,0.324,-5.337
0.173,0.028,0.324,-5.337
0.145,0.029,0.325,-5.337
0.132,0.032,0.325,-5.337
0.166,0.031,0.324,-5.337
0.180,0.032,0.323,-5.337
0.222,0.029,0.323,-5.337
0.247,0.029,0.325,-5.337
0.275,0.027,0.325,-5.337
0.191,0.030,0.319,-5.337
0.134,0.030,0.317,-5.337
0.141,0.029,0.320,-5.337
0.141,0.027,0.326,-5.337
0.169,0.024,0.327,-5.337
0.197,0.026,0.329,-5.337
0.145,0.033,0.328,-5.337
0.102,0.034,0.328,-5.337
0.196,0.033,0.324,-5.337
0.244,0.035,0.319,-5.337
0.180,0.035,0.320,-5.337
0.151,0.034,0.318,-5.337
0.188,0.032,0.320,-5.337
0.162,0.035,0.322,-5.337
0.148,0.037,0.324,-5.337
0.134,0.036,0.329,-5.337
0.143,0.031,0.326,-5.337
0.132,0.034,0.326,-5.337
0.137,0.032,0.324,-5.337
0.140,0.032,0.322,-5.337
0.150,0.036,0.325,-5.337
0.216,0.035,0.326,-5.337
0.258,0.034,0.327,-5.337
0.239,0.033,0.325,-5.337
0.203,0.033,0.322,-5.337
0.160,0.033,0.322,-5.337
0.203,0.032,0.326,-5.337
0.288,0.029,0.324,-5.337
0.258,0.034,0.323,-5.337
0.167,0.039,0.322,-5.337
0.144,0.040,0.322,-5.337
0.216,0.039,0.323,-5.337
0.230,0.041,0.328,-5.337
0.202,0.039,0.328,-5.337
0.302,0.036,0.327,-5.337
0.357,0.032,0.325,-5.337
0.266,0.034,0.320,-5.337
0.224,0.035,0.319,-5.337
0.202,0.038,0.326,-5.337
0.181,0.036,0.331,-5.337
0.196,0.036,0.327,-5.337
0.217,0.033,0.324,-5.337
0.241,0.034,0.325,-5.337
0.263,0.036,0.324,-5.337
0.298,0.040,0.322,-5.337
0.240,0.042,0.322,-5.337
0.230,0.038,0.325,-5.337
0.287,0.035,0.327,-5.337
0.231,0.038,0.326,-5.337
0.229,0.043,0.325,-5.337
0.188,0.040,0.318,-5.337
0.170,0.039,0.315,-5.337
0.175,0.035,0.314,-5.337
0.174,0.039,0.321,-5.337
0.112,0.043,0.328,-5.337
0.032,0.043,0.327,-5.337
0.007,0.040,0.322,-5.337
0.045,0.038,0.320,-5.337
0.130,0.041,0.319,-5.337
0.176,0.039,0.320,-5.337
0.191,0.039,0.322,-5.337
0.230,0.042,0.322,-5.337
0.251,0.041,0.322,-5.337
0.249,0.039,0.325,-5.337
0.236,0.038,0.327,-5.337
0.283,0.040,0.326,-5.337
0.212,0.044,0.323,-5.337
0.135,0.045,0.323,-5.337
0.117,0.040,0.326,-5.337
0.160,0.041,0.327,-5.337
0.146,0.043,0.325,-5.337
0.157,0.041,0.323,-5.337
0.258,0.040,0.323,-5.337
0.262,0.039,0.319,-5.337
0.204,0.040,0.319,-5.337
0.134,0.039,0.319,-5.337
0.122,0.041,0.319,-5.337
0.175,0.044,0.320,-5.337
0.218,0.041,0.322,-5.337
0.214,0.036,0.324,-5.337
0.195,0.037,0.321,-5.337
0.246,0.036,0.323,-5.337
0.213,0.038,0.324,-5.337
0.234,0.038,0.322,-5.337
0.249,0.039,0.323,-5.337
0.146,0.041,0.325,-5.337
0.038,0.045,0.326,-5.337
0.028,0.046,0.323,-5.337
0.104,0.042,0.320,-5.337
0.135,0.043,0.321,-5.337
0.090,0.042,0.321,-5.337
0.156,0.041,0.318,-5.337
0.167,0.042,0.319,-5.337
0.185,0.040,0.326,-5.337
0.263,0.040,0.328,-5.337
0.261,0.040,0.327,-5.337
0.208,0.039,0.326,-5.337
0.201,0.037,0.324,-5.337
0.233,0.039,0.320,-5.337
0.294,0.040,0.319,-5.337
0.302,0.037,0.319,-5.337
0.208,0.040,0.321,-5.337
0.093,0.040,0.324,-5.337
0.128,0.042,0.328,-5.337
0.160,0.042,0.326,-5.337
0.177,0.041,0.324,-5.337
0.194,0.043,0.321,-5.337
0.198,0.042,0.320,-5.337
0.186,0.045,0.320,-5.337
0.116,0.043,0.321,-5.337
0.086,0.044,0.321,-5.337
0.124,0.043,0.320,-5.337
0.160,0.044,0.321,-5.337
0.180,0.044,0.325,-5.337
0.125,0.043,0.325,-5.337
0.136,0.045,0.324,-5.337
0.117,0.048,0.325,-5.337
0.064,0.052,0.326,-5.337
0.020,0.051,0.325,-5.337
0.115,0.045,0.321,-5.337
0.198,0.044,0.324,-5.337
0.232,0.042,0.327,-5.337
0.201,0.042,0.327,-5.337
0.102,0.044,0.322,-5.337
0.096,0.045,0.318,-5.337
0.191,0.043,0.319,-5.337
0.266,0.044,0.322,-5.337
0.267,0.045,0.325,-5.337
0.180,0.048,0.322,-5.337
0.125,0.046,0.317,-5.337
0.192,0.046,0.320,-5.337
0.232,0.049,0.326,-5.337
0.186,0.050,0.330,-5.337
0.147,0.047,0.326,-5.337
0.146,0.046,0.324,-5.337
0.185,0.050,0.319,-5.337
0.176,0.050,0.317,-5.337
0.166,0.047,0.320,-5.337
0.213,0.044,0.324,-5.337
0.263,0.044,0.325,-5.337
0.265,0.047,0.321,-5.337
0.251,0.047,0.319,-5.337
0.311,0.042,0.320,-5.337
0.308,0.043,0.325,-5.337
0.203,0.045,0.322,-5.337
0.123,0.049,0.320,-5.337
0.129,0.051,0.323,-5.337
0.077,0.052,0.321,-5.337
0.192,0.046,0.318,-5.337
0.202,0.046,0.315,-5.337
