[Parameters]
Operating Mode, Feedback
Subject  AA..ZZ, WT
Session  0..99, 42
No. Trials (1..9999), 500
Mouse Number, 1
Pressure Probe Serial Port, \00\00\00\04COM4
Save additional csv file, TRUE
Save using mouse number, FALSE
A/D Monitor Rate (Hz), 30000.000000
A/D Stimulate Rate (Hz), 30000.000000
A/D input range (+/- V), 5
No. Channels to acquire (N), 2
Pre-Stim Acq. time (ms), 100.000000
Post-Stim Acq. time (ms), 900.000000
Analysis window parameters.M-response Start (ms), 1.100000
Analysis window parameters.M-response Duration (ms), 5.500000
Analysis window parameters.H-response Duration (ms), 6.000000
Analysis window parameters.H-response Start (ms), 6.500000
Feedback window, H response
Proportional gain, 0.100000
Target value, 6.700000
Feedback Ch., 1
Stim Channel to Control (1-4), 4
Trial, 23
Wait for EMG Conditions, FALSE
Channel to monitor (0 - N-1), 1
EMG Hi Limit, 2.000000
EMG Lo Limit, 0.001000
Inter-Stim delay (sec), 10.000000
EMG Monitor Mode, Mean
Time to run Long Stim.(sec), 30
Save Long Stim Data?, OFF
BURST Save time (ms), 1000
BURST Save Interval (x above), 10
Long-Stim. Rep. Rate (Hz), 10.000000
Stim type cluster array.<size(s)>, 4
Stim type cluster array 0.Stimulus Output, Electrical
Stim type cluster array 1.Stimulus Output, OFF
Stim type cluster array 2.Stimulus Output, OFF
Stim type cluster array 3.Stimulus Output, Motor Length
Stim specs cluster array.<size(s)>, 4
Stim specs cluster array 0.Initial Stimulus ampl., 0.300000
Stim specs cluster array 0.Maximum Stimulus, 1.120000
Stim specs cluster array 0.#Pulses in train, 4
Stim specs cluster array 0.Peak Level time (ms), 1.000000
Stim specs cluster array 0.Total pulse period (ms), 150.000000
Stim specs cluster array 0.Start Delay (ms), -50.000000
Stim specs cluster array 0.Pulse Shape, Square
Stim specs cluster array 0.Ramp/Rel. time (ms), 0.100000
Stim specs cluster array 0.Peak Amplitude (V), 0.120000
Stim specs cluster array 1.Initial Stimulus ampl., 0.000000
Stim specs cluster array 1.Maximum Stimulus, 0.000000
Stim specs cluster array 1.#Pulses in train, 3
Stim specs cluster array 1.Peak Level time (ms), 29.000000
Stim specs cluster array 1.Total pulse period (ms), 200.000000
Stim specs cluster array 1.Start Delay (ms), 0.000000
Stim specs cluster array 1.Pulse Shape, Square
Stim specs cluster array 1.Ramp/Rel. time (ms), 0.000000
Stim specs cluster array 1.Peak Amplitude (V), 2.000000
Stim specs cluster array 2.Initial Stimulus ampl., 0.000000
Stim specs cluster array 2.Maximum Stimulus, 0.000000
Stim specs cluster array 2.#Pulses in train, 1
Stim specs cluster array 2.Peak Level time (ms), 25.000000
Stim specs cluster array 2.Total pulse period (ms), 200.000000
Stim specs cluster array 2.Start Delay (ms), 0.000000
Stim specs cluster array 2.Pulse Shape, Square
Stim specs cluster array 2.Ramp/Rel. time (ms), 20.000000
Stim specs cluster array 2.Peak Amplitude (V), 10.000000
Stim specs cluster array 3.Initial Stimulus ampl., 0.000000
Stim specs cluster array 3.Maximum Stimulus, 20.000000
Stim specs cluster array 3.#Pulses in train, 25
Stim specs cluster array 3.Peak Level time (ms), 0.100000
Stim specs cluster array 3.Total pulse period (ms), 4.000000
Stim specs cluster array 3.Start Delay (ms), 205.000000
Stim specs cluster array 3.Pulse Shape, Triangle
Stim specs cluster array 3.Ramp/Rel. time (ms), 3.000000
Stim specs cluster array 3.Peak Amplitude (V), 0.500000
Force cal. (mN/Volt), 100.000000
Force Range (mN), 100.000000
Length cal. (mm/Volt), 10.000000
Length Range (mm), 10.000000
Stim. 1, 0.300000
Stim. 2, 0.000000
Stim. 3, 0.000000
Stim. 4, 0.000000
Monitor acquire time (ms), 100.000000
EMG graph Ymax, 0.100000
Travel limit (mm), 20.000000
Use Pressure Probe, FALSE
Pressure goal (g), 100
Speed (mm/sec), 5.000000
Dwell time (ms), 100.000000
Pressure limit (g), 500.000000
Channel amplitude offset, 0.000000

[DATA]

0.138,0.039,0.343,-5.337
0.097,0.042,0.340,-5.337
0.222,0.038,0.344,-5.337
0.267,0.039,0.344,-5.337
0.124,0.044,0.342,-5.337
0.076,0.036,0.340,-5.337
0.250,0.031,0.340,-5.337
0.268,0.034,0.341,-5.337
0.137,0.036,0.342,-5.337
0.112,0.034,0.344,-5.337
0.128,0.035,0.345,-5.337
0.177,0.038,0.340,-5.337
0.240,0.038,0.335,-5.337
0.261,0.037,0.335,-5.337
0.194,0.037,0.339,-5.337
0.187,0.036,0.338,-5.337
0.170,0.038,0.337,-5.337
0.213,0.035,0.339,-5.337
0.198,0.038,0.341,-5.337
0.189,0.035,0.342,-5.337
0.287,0.032,0.342,-5.337
0.303,0.034,0.344,-5.337
0.306,0.034,0.342,-5.337
0.276,0.040,0.342,-5.337
0.224,0.036,0.339,-5.337
0.223,0.036,0.339,-5.337
0.228,0.032,0.340,-5.337
0.223,0.032,0.341,-5.337
0.197,0.032,0.341,-5.337
0.147,0.034,0.342,-5.337
0.170,0.030,0.344,-5.337
0.280,0.028,0.342,-5.337
0.350,0.026,0.340,-5.337
0.260,0.031,0.342,-5.337
0.229,0.033,0.344,-5.337
0.299,0.029,0.344,-5.337
0.269,0.027,0.341,-5.337
0.198,0.028,0.336,-5.337
0.170,0.035,0.334,-5.337
0.176,0.039,0.336,-5.337
0.163,0.034,0.338,-5.337
0.189,0.032,0.343,-5.337
0.222,0.034,0.345,-5.337
0.167,0.034,0.342,-5.337
0.182,0.033,0.340,-5.337
0.191,0.034,0.335,-5.337
0.140,0.035,0.337,-5.337
0.132,0.034,0.341,-5.337
0.216,0.032,0.342,-5.337
0.265,0.032,0.340,-5.337
0.204,0.030,0.338,-5.337
0.250,0.028,0.341,-5.337
0.297,0.025,0.342,-5.337
0.312,0.024,0.342,-5.337
0.299,0.027,0.339,-5.337
0.372,0.027,0.339,-5.337
0.409,0.031,0.339,-5.337
0.307,0.030,0.338,-5.337
0.273,0.030,0.341,-5.337
0.250,0.029,0.343,-5.337
0.207,0.026,0.342,-5.337
0.219,0.024,0.337,-5.337
0.256,0.023,0.333,-5.337
0.259,0.025,0.337,-5.337
0.214,0.028,0.338,-5.337
0.239,0.025,0.337,-5.337
0.217,0.025,0.337,-5.337
0.192,0.029,0.340,-5.337
0.215,0.029,0.342,-5.337
0.245,0.028,0.341,-5.337
0.272,0.030,0.340,-5.337
0.245,0.029,0.337,-5.337
0.201,0.029,0.338,-5.337
0.167,0.030,0.340,-5.337
0.196,0.026,0.337,-5.337
0.288,0.024,0.333,-5.337
0.252,0.029,0.334,-5.337
0.158,0.032,0.341,-5.337
0.179,0.031,0.344,-5.337
0.239,0.034,0.345,-5.337
0.254,0.037,0.342,-5.337
0.201,0.036,0.339,-5.337
0.231,0.034,0.338,-5.337
0.307,0.032,0.338,-5.337
0.302,0.033,0.339,-5.337
0.274,0.032,0.340,-5.337
0.216,0.036,0.343,-5.337
0.199,0.039,0.343,-5.337
0.240,0.035,0.347,-5.337
0.209,0.034,0.347,-5.337
0.199,0.037,0.345,-5.337
0.189,0.034,0.342,-5.337
0.226,0.034,0.341,-5.337
0.251,0.036,0.340,-5.337
0.270,0.033,0.338,-5.337
0.303,0.029,0.336,-5.337
0.259,0.033,0.339,-5.337
0.260,0.030,0.340,-5.337
0.278,0.030,0.341,-5.337
0.214,0.028,0.340,-5.337
0.142,0.030,0.338,-5.337
0.188,0.032,0.337,-5.337
0.241,0.033,0.341,-5.337
0.246,0.033,0.342,-5.337
0.209,0.031,0.342,-5.337
0.205,0.031,0.340,-5.337
0.289,0.033,0.336,-5.337
0.294,0.035,0.335,-5.337
0.200,0.034,0.341,-5.337
0.150,0.032,0.346,-5.337
0.193,0.033,0.346,-5.337
0.221,0.031,0.345,-5.337
0.252,0.028,0.343,-5.337
0.326,0.025,0.341,-5.337
0.323,0.027,0.339,-5.337
0.367,0.031,0.339,-5.337
0.283,0.032,0.337,-5.337
0.173,0.032,0.338,-5.337
0.231,0.027,0.334,-5.337
0.274,0.029,0.339,-5.337
0.168,0.033,0.343,-5.337
0.189,0.033,0.347,-5.337
0.290,0.031,0.347,-5.337
0.275,0.034,0.341,-5.337
0.141,0.035,0.339,-5.337
0.147,0.034,0.339,-5.337
0.192,0.033,0.339,-5.337
0.236,0.032,0.342,-5.337
0.237,0.030,0.345,-5.337
0.186,0.030,0.346,-5.337
0.115,0.031,0.345,-5.337
0.154,0.030,0.342,-5.337
0.215,0.028,0.341,-5.337
0.314,0.027,0.343,-5.337
0.332,0.028,0.345,-5.337
0.207,0.031,0.342,-5.337
0.180,0.033,0.342,-5.337
0.274,0.032,0.340,-5.337
0.277,0.031,0.341,-5.337
0.209,0.032,0.337,-5.337
0.145,0.034,0.340,-5.337
0.136,0.035,0.343,-5.337
0.167,0.033,0.345,-5.337
0.195,0.030,0.347,-5.337
0.170,0.031,0.344,-5.337
0.191,0.034,0.340,-5.337
0.247,0.035,0.341,-5.337
0.282,0.032,0.342,-5.337
0.275,0.033,0.342,-5.337
0.224,0.034,0.341,-5.337
0.202,0.034,0.340,-5.337
0.261,0.033,0.343,-5.337
0.282,0.032,0.343,-5.337
0.188,0.032,0.341,-5.337
0.171,0.030,0.338,-5.337
0.224,0.034,0.342,-5.337
0.280,0.033,0.344,-5.337
0.269,0.032,0.344,-5.337
0.212,0.031,0.341,-5.337
0.232,0.030,0.342,-5.337
0.299,0.032,0.340,-5.337
0.324,0.034,0.342,-5.337
0.223,0.036,0.342,-5.337
0.184,0.039,0.342,-5.337
0.227,0.035,0.338,-5.337
0.205,0.034,0.338,-5.337
0.189,0.034,0.339,-5.337
0.150,0.036,0.339,-5.337
0.195,0.035,0.340,-5.337
0.267,0.035,0.344,-5.337
0.293,0.037,0.345,-5.337
0.246,0.036,0.345,-5.337
0.223,0.036,0.342,-5.337
0.216,0.035,0.340,-5.337
0.235,0.031,0.339,-5.337
0.231,0.032,0.342,-5.337
0.180,0.036,0.345,-5.337
0.246,0.038,0.345,-5.337
0.221,0.035,0.343,-5.337
0.161,0.037,0.339,-5.337
0.150,0.036,0.342,-5.337
0.162,0.037,0.343,-5.337
0.171,0.039,0.343,-5.337
0.174,0.039,0.340,-5.337
0.204,0.040,0.340,-5.337
0.254,0.041,0.342,-5.337
0.220,0.044,0.346,-5.337
0.196,0.040,0.342,-5.337
0.224,0.037,0.340,-5.337
0.251,0.039,0.339,-5.337
0.240,0.041,0.337,-5.337
0.205,0.042,0.337,-5.337
0.222,0.041,0.341,-5.337
0.302,0.040,0.343,-5.337
0.289,0.042,0.342,-5.337
0.238,0.039,0.341,-5.337
0.246,0.037,0.341,-5.337
0.229,0.039,0.340,-5.337
0.240,0.040,0.338,-5.337
0.265,0.034,0.338,-5.337
0.266,0.035,0.339,-5.337
0.192,0.039,0.342,-5.337
0.151,0.040,0.339,-5.337
0.109,0.042,0.339,-5.337
0.146,0.038,0.339,-5.337
0.174,0.036,0.337,-5.337
0.204,0.037,0.336,-5.337
0.130,0.042,0.337,-5.337
0.140,0.039,0.339,-5.337
0.272,0.036,0.338,-5.337
0.304,0.034,0.341,-5.337
0.268,0.036,0.341,-5.337
0.240,0.040,0.342,-5.337
0.217,0.041,0.343,-5.337
0.224,0.042,0.341,-5.337
0.226,0.041,0.338,-5.337
0.251,0.041,0.336,-5.337
0.182,0.043,0.338,-5.337
0.115,0.041,0.340,-5.337
0.125,0.039,0.337,-5.337
0.170,0.041,0.333,-5.337
0.231,0.041,0.337,-5.337
0.200,0.042,0.341,-5.337
0.167,0.038,0.341,-5.337
0.157,0.042,0.339,-5.337
0.167,0.044,0.340,-5.337
0.210,0.045,0.344,-5.337
0.265,0.044,0.345,-5.337
0.247,0.040,0.342,-5.337
0.225,0.044,0.339,-5.337
0.207,0.048,0.340,-5.337
0.233,0.046,0.339,-5.337
0.284,0.046,0.340,-5.337
0.205,0.044,0.339,-5.337
0.162,0.042,0.337,-5.337
0.206,0.038,0.335,-5.337
0.325,0.038,0.336,-5.337
0.299,0.039,0.337,-5.337
0.228,0.038,0.338,-5.337
0.265,0.039,0.340,-5.337
0.270,0.038,0.346,-5.337
0.268,0.037,0.347,-5.337
0.214,0.042,0.343,-5.337
0.138,0.043,0.342,-5.337
0.116,0.044,0.342,-5.337
0.132,0.045,0.342,-5.337
0.120,0.045,0.339,-5.337
0.162,0.045,0.340,-5.337
0.228,0.048,0.338,-5.337
0.234,0.049,0.338,-5.337
0.262,0.045,0.337,-5.337
0.257,0.043,0.336,-5.337
0.279,0.045,0.336,-5.337
0.340,0.048,0.338,-5.337
0.253,0.047,0.338,-5.337
0.168,0.048,0.339,-5.337
0.161,0.048,0.337,-5.337
0.163,0.048,0.342,-5.337
0.159,0.049,0.343,-5.337
0.112,0.052,0.342,-5.337
0.129,0.049,0.343,-5.337
0.158,0.045,0.343,-5.337
0.186,0.042,0.340,-5.337
0.163,0.047,0.338,-5.337
0.148,0.053,0.337,-5.337
0.099,0.052,0.338,-5.337
0.115,0.048,0.338,-5.337
0.155,0.047,0.341,-5.337
0.145,0.050,0.342,-5.337
0.176,0.048,0.339,-5.337
0.202,0.046,0.340,-5.337
0.189,0.048,0.342,-5.337
0.253,0.046,0.340,-5.337
0.357,0.045,0.336,-5.337
0.330,0.044,0.337,-5.337
0.309,0.040,0.334,-5.337
0.268,0.048,0.336,-5.337
0.237,0.051,0.339,-5.337
0.182,0.052,0.344,-5.337
0.164,0.048,0.342,-5.337
0.245,0.047,0.341,-5.337
0.243,0.046,0.344,-5.337
0.169,0.052,0.342,-5.337
0.179,0.048,0.337,-5.337
0.135,0.047,0.337,-5.337
0.124,0.043,0.340,-5.337
0.269,0.035,0.340,-5.337
0.302,0.042,0.338,-5.337
0.199,0.046,0.335,-5.337
0.125,0.048,0.337,-5.337
0.183,0.046,0.339,-5.337
0.202,0.046,0.342,-5.337
0.218,0.047,0.340,-5.337
0.142,0.047,0.336,-5.337
0.128,0.046,0.336,-5.337
0.229,0.045,0.340,-5.337
0.204,0.048,0.342,-5.337
0.164,0.049,0.342,-5.337
0.206,0.048,0.338,-5.337
0.195,0.050,0.338,-5.337
0.179,0.048,0.337,-5.337
0.186,0.045,0.338,-5.337
0.197,0.044,0.342,-5.337
0.245,0.047,0.342,-5.337
0.284,0.043,0.340,-5.337
0.294,0.043,0.338,-5.337
0.190,0.046,0.337,-5.337
0.113,0.043,0.336,-5.337
0.216,0.041,0.337,-5.337
0.297,0.040,0.340,-5.337
0.238,0.043,0.340,-5.337
0.258,0.043,0.338,-5.337
0.291,0.042,0.340,-5.337
0.295,0.045,0.342,-5.337
0.253,0.048,0.339,-5.337
0.185,0.047,0.335,-5.337
0.183,0.050,0.339,-5.337
0.177,0.053,0.340,-5.337
0.194,0.054,0.339,-5.337
0.175,0.054,0.339,-5.337
0.176,0.052,0.341,-5.337
0.251,0.049,0.341,-5.337
0.257,0.051,0.338,-5.337
0.192,0.055,0.338,-5.337
0.221,0.049,0.338,-5.337
0.330,0.045,0.341,-5.337
0.351,0.048,0.343,-5.337
0.258,0.052,0.339,-5.337
0.200,0.050,0.338,-5.337
0.208,0.045,0.336,-5.337
0.248,0.046,0.337,-5.337
0.243,0.052,0.340,-5.337
0.117,0.058,0.340,-5.337
0.018,0.057,0.337,-5.337
0.127,0.052,0.337,-5.337
0.229,0.050,0.339,-5.337
0.260,0.050,0.340,-5.337
0.248,0.054,0.342,-5.337
0.229,0.055,0.342,-5.337
0.223,0.055,0.341,-5.337
0.201,0.055,0.337,-5.337
0.215,0.053,0.339,-5.337
0.222,0.052,0.344,-5.337
0.232,0.052,0.343,-5.337
0.203,0.054,0.339,-5.337
0.160,0.055,0.339,-5.337
0.125,0.054,0.343,-5.337
0.135,0.049,0.342,-5.337
0.100,0.051,0.338,-5.337
0.125,0.051,0.335,-5.337
0.303,0.044,0.337,-5.337
0.362,0.048,0.343,-5.337
0.251,0.051,0.343,-5.337
0.165,0.051,0.344,-5.337
0.208,0.051,0.343,-5.337
0.275,0.050,0.340,-5.337
0.218,0.048,0.340,-5.337
0.175,0.046,0.339,-5.337
0.165,0.048,0.343,-5.337
0.110,0.050,0.341,-5.337
0.127,0.050,0.339,-5.337
0.235,0.049,0.338,-5.337
0.223,0.049,0.345,-5.337
0.212,0.047,0.348,-5.337
0.251,0.048,0.345,-5.337
0.193,0.051,0.339,-5.337
0.110,0.054,0.337,-5.337
0.155,0.047,0.337,-5.337
0.211,0.045,0.340,-5.337
0.162,0.045,0.341,-5.337
0.128,0.052,0.342,-5.337
0.186,0.052,0.346,-5.337
0.164,0.055,0.344,-5.337
0.153,0.055,0.342,-5.337
0.231,0.055,0.339,-5.337
0.294,0.055,0.337,-5.337
0.259,0.055,0.339,-5.337
0.199,0.053,0.344,-5.337
0.199,0.052,0.347,-5.337
0.208,0.054,0.346,-5.337
0.239,0.055,0.343,-5.337
0.218,0.055,0.340,-5.337
0.166,0.055,0.341,-5.337
0.146,0.056,0.342,-5.337
0.163,0.056,0.339,-5.337
0.246,0.054,0.336,-5.337
0.285,0.050,0.337,-5.337
0.235,0.053,0.337,-5.337
0.136,0.055,0.337,-5.337
0.206,0.052,0.341,-5.337
0.280,0.051,0.340,-5.337
0.286,0.053,0.337,-5.337
0.294,0.054,0.339,-5.337
0.286,0.052,0.342,-5.337
0.222,0.051,0.343,-5.337
0.185,0.050,0.342,-5.337
0.191,0.053,0.342,-5.337
0.175,0.052,0.344,-5.337
0.129,0.048,0.341,-5.337
0.108,0.050,0.338,-5.337
0.152,0.047,0.336,-5.337
0.220,0.048,0.337,-5.337
0.246,0.046,0.337,-5.337
0.260,0.044,0.337,-5.337
0.326,0.044,0.338,-5.337
0.305,0.046,0.341,-5.337
0.335,0.046,0.341,-5.337
0.337,0.043,0.338,-5.337
0.280,0.046,0.337,-5.337
0.218,0.049,0.336,-5.337
0.160,0.051,0.340,-5.337
0.237,0.047,0.344,-5.337
0.287,0.051,0.343,-5.337
0.262,0.052,0.340,-5.337
0.224,0.052,0.337,-5.337
0.244,0.048,0.337,-5.337
0.202,0.048,0.338,-5.337
0.166,0.047,0.338,-5.337
0.135,0.044,0.340,-5.337
0.141,0.042,0.342,-5.337
0.208,0.042,0.345,-5.337
0.241,0.044,0.345,-5.337
0.231,0.048,0.345,-5.337
0.193,0.049,0.343,-5.337
0.221,0.047,0.343,-5.337
0.240,0.046,0.339,-5.337
0.242,0.044,0.336,-5.337
0.304,0.043,0.337,-5.337
0.331,0.042,0.336,-5.337
0.281,0.043,0.339,-5.337
0.197,0.044,0.342,-5.337
0.093,0.046,0.343,-5.337
0.056,0.050,0.343,-5.337
0.028,0.048,0.343,-5.337
0.113,0.043,0.340,-5.337
0.224,0.045,0.337,-5.337
0.263,0.043,0.337,-5.337
0.217,0.047,0.338,-5.337
0.237,0.046,0.335,-5.337
0.315,0.044,0.335,-5.337
0.335,0.044,0.335,-5.337
0.278,0.044,0.338,-5.337
0.271,0.042,0.340,-5.337
0.276,0.041,0.339,-5.337
0.316,0.039,0.337,-5.337
0.271,0.043,0.338,-5.337
0.287,0.042,0.340,-5.337
0.325,0.039,0.340,-5.337
0.269,0.042,0.341,-5.337
0.202,0.044,0.340,-5.337
0.234,0.044,0.342,-5.337
0.288,0.043,0.339,-5.337
0.280,0.040,0.338,-5.337
0.342,0.038,0.335,-5.337
0.303,0.039,0.339,-5.337
0.229,0.038,0.339,-5.337
0.206,0.043,0.334,-5.337
0.228,0.043,0.335,-5.337
0.193,0.042,0.336,-5.337
0.127,0.040,0.338,-5.337
0.132,0.037,0.335,-5.337
0.208,0.035,0.333,-5.337
0.194,0.038,0.337,-5.337
0.188,0.040,0.338,-5.337
0.216,0.040,0.339,-5.337
0.180,0.038,0.337,-5.337
0.157,0.039,0.334,-5.337
0.180,0.041,0.332,-5.337
0.170,0.042,0.331,-5.337
0.174,0.045,0.336,-5.337
0.202,0.044,0.338,-5.337
0.240,0.040,0.337,-5.337
0.193,0.042,0.337,-5.337
0.197,0.042,0.340,-5.337
0.280,0.041,0.339,-5.337
0.256,0.036,0.340,-5.337
0.223,0.034,0.340,-5.337
0.190,0.035,0.338,-5.337
0.179,0.034,0.331,-5.337
0.205,0.036,0.331,-5.337
0.241,0.033,0.332,-5.337
0.227,0.033,0.333,-5.337
0.168,0.033,0.337,-5.337
0.166,0.034,0.337,-5.337
0.206,0.038,0.334,-5.337
0.256,0.037,0.332,-5.337
0.267,0.036,0.333,-5.337
0.269,0.037,0.338,-5.337
0.287,0.035,0.339,-5.337
0.290,0.037,0.337,-5.337
0.260,0.041,0.336,-5.337
0.246,0.040,0.335,-5.337
0.261,0.040,0.336,-5.337
0.303,0.038,0.333,-5.337
0.355,0.035,0.334,-5.337
0.287,0.038,0.335,-5.337
0.178,0.037,0.337,-5.337
0.176,0.037,0.338,-5.337
0.191,0.038,0.338,-5.337
0.152,0.038,0.332,-5.337
0.172,0.036,0.329,-5.337
0.221,0.034,0.331,-5.337
0.218,0.036,0.337,-5.337
0.155,0.034,0.340,-5.337
0.145,0.031,0.342,-5.337
0.205,0.029,0.340,-5.337
0.214,0.032,0.336,-5.337
0.227,0.030,0.334,-5.337
0.305,0.030,0.340,-5.337
0.360,0.029,0.340,-5.337
0.325,0.028,0.342,-5.337
0.291,0.028,0.341,-5.337
0.306,0.028,0.339,-5.337
0.253,0.032,0.335,-5.337
0.208,0.032,0.334,-5.337
0.239,0.033,0.336,-5.337
0.260,0.031,0.337,-5.337
0.230,0.032,0.337,-5.337
0.212,0.032,0.333,-5.337
0.259,0.031,0.333,-5.337
0.220,0.034,0.334,-5.337
0.193,0.034,0.335,-5.337
0.171,0.032,0.334,-5.337
0.240,0.034,0.334,-5.337
0.270,0.035,0.335,-5.337
0.192,0.037,0.337,-5.337
0.187,0.035,0.335,-5.337
0.200,0.037,0.332,-5.337
0.136,0.036,0.335,-5.337
0.146,0.036,0.338,-5.337
0.237,0.032,0.339,-5.337
0.327,0.033,0.337,-5.337
0.283,0.037,0.339,-5.337
0.155,0.038,0.340,-5.337
0.118,0.037,0.334,-5.337
0.206,0.034,0.330,-5.337
0.243,0.032,0.334,-5.337
0.258,0.033,0.336,-5.337
0.231,0.037,0.335,-5.337
0.170,0.038,0.337,-5.337
0.180,0.035,0.339,-5.337
0.205,0.033,0.339,-5.337
0.259,0.032,0.340,-5.337
0.312,0.034,0.338,-5.337
0.291,0.036,0.337,-5.337
0.224,0.039,0.335,-5.337
0.213,0.039,0.332,-5.337
0.235,0.037,0.332,-5.337
0.257,0.034,0.335,-5.337
0.317,0.034,0.338,-5.337
0.319,0.035,0.337,-5.337
0.295,0.035,0.337,-5.337
0.286,0.037,0.335,-5.337
0.276,0.036,0.332,-5.337
0.311,0.035,0.336,-5.337
0.335,0.033,0.337,-5.337
0.374,0.035,0.335,-5.337
0.343,0.037,0.335,-5.337
0.175,0.039,0.336,-5.337
0.158,0.036,0.335,-5.337
0.249,0.031,0.335,-5.337
0.286,0.030,0.336,-5.337
0.199,0.034,0.338,-5.337
0.182,0.037,0.340,-5.337
0.196,0.038,0.339,-5.337
0.182,0.037,0.335,-5.337
0.221,0.036,0.330,-5.337
0.220,0.035,0.332,-5.337
0.194,0.037,0.335,-5.337
0.127,0.037,0.335,-5.337
0.145,0.034,0.334,-5.337
0.139,0.037,0.333,-5.337
0.212,0.034,0.333,-5.337
0.245,0.032,0.332,-5.337
0.187,0.033,0.332,-5.337
0.178,0.035,0.335,-5.337
0.220,0.036,0.338,-5.337
0.193,0.041,0.336,-5.337
0.131,0.039,0.329,-5.337
0.123,0.037,0.329,-5.337
0.155,0.037,0.333,-5.337
0.148,0.038,0.336,-5.337
0.233,0.032,0.336,-5.337
0.307,0.032,0.335,-5.337
0.292,0.034,0.335,-5.337
0.280,0.033,0.333,-5.337
0.232,0.035,0.334,-5.337
0.219,0.037,0.333,-5.337
0.250,0.034,0.330,-5.337
0.246,0.036,0.328,-5.337
0.191,0.036,0.335,-5.337
0.252,0.034,0.338,-5.337
0.289,0.036,0.333,-5.337
0.304,0.035,0.334,-5.337
0.280,0.040,0.334,-5.337
0.274,0.036,0.332,-5.337
0.271,0.035,0.334,-5.337
0.223,0.034,0.336,-5.337
0.243,0.035,0.336,-5.337
0.306,0.032,0.334,-5.337
0.289,0.032,0.333,-5.337
0.244,0.031,0.334,-5.337
0.308,0.030,0.339,-5.337
0.269,0.029,0.340,-5.337
0.243,0.032,0.337,-5.337
0.253,0.035,0.333,-5.337
0.170,0.038,0.331,-5.337
0.096,0.039,0.335,-5.337
0.154,0.037,0.337,-5.337
0.223,0.035,0.339,-5.337
0.195,0.036,0.336,-5.337
0.212,0.036,0.334,-5.337
0.254,0.034,0.330,-5.337
0.225,0.038,0.330,-5.337
0.122,0.040,0.332,-5.337
0.101,0.037,0.333,-5.337
0.199,0.030,0.331,-5.337
0.226,0.030,0.332,-5.337
0.199,0.037,0.334,-5.337
0.162,0.036,0.336,-5.337
0.251,0.030,0.335,-5.337
0.347,0.024,0.338,-5.337
0.361,0.024,0.337,-5.337
0.319,0.029,0.333,-5.337
0.188,0.037,0.331,-5.337
0.048,0.038,0.335,-5.337
0.061,0.037,0.339,-5.337
0.093,0.035,0.338,-5.337
0.151,0.035,0.335,-5.337
0.161,0.034,0.339,-5.337
0.205,0.033,0.340,-5.337
0.266,0.033,0.335,-5.337
0.219,0.032,0.336,-5.337
0.208,0.031,0.338,-5.337
0.209,0.031,0.342,-5.337
0.226,0.029,0.339,-5.337
0.322,0.025,0.337,-5.337
0.316,0.028,0.337,-5.337
0.162,0.030,0.339,-5.337
0.127,0.026,0.338,-5.337
0.203,0.027,0.335,-5.337
0.294,0.030,0.332,-5.337
0.332,0.033,0.332,-5.337
0.307,0.034,0.335,-5.337
0.278,0.033,0.340,-5.337
0.286,0.029,0.338,-5.337
0.297,0.030,0.334,-5.337
0.282,0.033,0.329,-5.337
0.250,0.038,0.330,-5.337
0.157,0.038,0.334,-5.337
0.176,0.035,0.335,-5.337
0.195,0.033,0.336,-5.337
0.178,0.031,0.337,-5.337
0.171,0.034,0.336,-5.337
0.164,0.036,0.334,-5.337
0.225,0.035,0.336,-5.337
0.249,0.034,0.337,-5.337
0.267,0.037,0.337,-5.337
0.349,0.033,0.341,-5.337
0.269,0.034,0.347,-5.337
0.197,0.031,0.344,-5.337
0.231,0.035,0.336,-5.337
0.289,0.038,0.331,-5.337
0.254,0.037,0.333,-5.337
0.266,0.034,0.334,-5.337
0.259,0.037,0.335,-5.337
0.208,0.037,0.334,-5.337
0.180,0.037,0.330,-5.337
0.181,0.035,0.331,-5.337
0.197,0.033,0.335,-5.337
0.183,0.038,0.340,-5.337
0.159,0.042,0.344,-5.337
0.201,0.046,0.345,-5.337
0.212,0.042,0.340,-5.337
0.263,0.039,0.340,-5.337
0.302,0.042,0.337,-5.337
0.232,0.045,0.335,-5.337
0.196,0.044,0.332,-5.337
0.244,0.040,0.331,-5.337
0.274,0.039,0.331,-5.337
0.205,0.041,0.335,-5.337
0.201,0.039,0.338,-5.337
0.315,0.038,0.340,-5.337
0.327,0.034,0.337,-5.337
0.224,0.035,0.336,-5.337
0.206,0.037,0.336,-5.337
0.243,0.037,0.336,-5.337
0.229,0.036,0.337,-5.337
0.179,0.036,0.337,-5.337
0.223,0.033,0.341,-5.337
0.261,0.035,0.343,-5.337
0.219,0.039,0.343,-5.337
0.207,0.037,0.339,-5.337
0.202,0.040,0.335,-5.337
0.197,0.039,0.333,-5.337
0.204,0.039,0.334,-5.337
0.220,0.041,0.335,-5.337
0.246,0.042,0.336,-5.337
0.191,0.044,0.337,-5.337
0.236,0.041,0.340,-5.337
0.310,0.037,0.338,-5.337
0.238,0.038,0.336,-5.337
0.185,0.044,0.335,-5.337
0.262,0.048,0.335,-5.337
0.276,0.048,0.332,-5.337
0.270,0.044,0.335,-5.337
0.243,0.041,0.339,-5.337
0.170,0.042,0.341,-5.337
0.144,0.042,0.340,-5.337
0.192,0.038,0.338,-5.337
0.192,0.036,0.336,-5.337
0.170,0.037,0.334,-5.337
0.239,0.041,0.336,-5.337
0.295,0.043,0.338,-5.337
0.278,0.043,0.337,-5.337
0.227,0.047,0.338,-5.337
0.237,0.044,0.336,-5.337
0.242,0.042,0.336,-5.337
0.221,0.042,0.337,-5.337
0.236,0.041,0.342,-5.337
0.202,0.042,0.344,-5.337
0.197,0.043,0.341,-5.337
0.249,0.046,0.339,-5.337
0.186,0.046,0.337,-5.337
0.139,0.047,0.338,-5.337
0.131,0.047,0.334,-5.337
0.175,0.046,0.332,-5.337
0.274,0.042,0.331,-5.337
0.235,0.042,0.333,-5.337
0.162,0.043,0.334,-5.337
0.147,0.044,0.336,-5.337
0.165,0.043,0.336,-5.337
0.182,0.044,0.338,-5.337
0.157,0.044,0.337,-5.337
0.189,0.042,0.333,-5.337
0.289,0.040,0.332,-5.337
0.311,0.043,0.332,-5.337
0.290,0.045,0.332,-5.337
0.228,0.046,0.334,-5.337
0.209,0.044,0.338,-5.337
0.230,0.044,0.341,-5.337
0.259,0.042,0.339,-5.337
0.234,0.041,0.340,-5.337
0.231,0.043,0.339,-5.337
0.252,0.045,0.334,-5.337
0.199,0.048,0.332,-5.337
0.151,0.047,0.332,-5.337
0.150,0.045,0.334,-5.337
0.205,0.049,0.334,-5.337
0.227,0.050,0.335,-5.337
0.245,0.047,0.332,-5.337
0.269,0.047,0.329,-5.337
0.227,0.049,0.331,-5.337
0.262,0.048,0.336,-5.337
0.297,0.047,0.338,-5.337
0.267,0.048,0.337,-5.337
0.227,0.048,0.336,-5.337
0.170,0.047,0.335,-5.337
0.132,0.049,0.333,-5.337
0.204,0.049,0.334,-5.337
0.240,0.052,0.336,-5.337
0.207,0.053,0.334,-5.337
0.154,0.054,0.334,-5.337
0.126,0.054,0.336,-5.337
0.140,0.051,0.336,-5.337
0.130,0.049,0.333,-5.337
0.168,0.049,0.332,-5.337
0.201,0.048,0.333,-5.337
0.184,0.049,0.337,-5.337
0.172,0.047,0.339,-5.337
0.158,0.046,0.340,-5.337
0.146,0.047,0.333,-5.337
0.154,0.045,0.331,-5.337
0.155,0.048,0.337,-5.337
0.128,0.055,0.340,-5.337
0.105,0.055,0.335,-5.337
0.136,0.054,0.333,-5.337
0.129,0.049,0.335,-5.337
0.176,0.047,0.335,-5.337
0.213,0.048,0.334,-5.337
0.225,0.052,0.337,-5.337
0.223,0.054,0.340,-5.337
0.203,0.050,0.339,-5.337
0.153,0.053,0.334,-5.337
0.194,0.055,0.332,-5.337
0.212,0.054,0.332,-5.337
0.243,0.053,0.333,-5.337
0.259,0.048,0.335,-5.337
0.247,0.050,0.336,-5.337
0.256,0.051,0.336,-5.337
0.211,0.053,0.333,-5.337
0.208,0.052,0.334,-5.337
0.277,0.052,0.335,-5.337
0.349,0.051,0.338,-5.337
0.334,0.052,0.338,-5.337
0.309,0.052,0.337,-5.337
0.267,0.056,0.333,-5.337
0.174,0.054,0.334,-5.337
0.146,0.055,0.332,-5.337
0.196,0.058,0.332,-5.337
0.167,0.059,0.334,-5.337
0.179,0.058,0.339,-5.337
0.196,0.054,0.338,-5.337
0.213,0.054,0.335,-5.337
0.319,0.049,0.334,-5.337
0.300,0.053,0.337,-5.337
0.131,0.053,0.337,-5.337
0.193,0.049,0.339,-5.337
0.261,0.052,0.343,-5.337
0.273,0.053,0.344,-5.337
0.258,0.053,0.341,-5.337
0.281,0.047,0.335,-5.337
0.287,0.050,0.330,-5.337
0.251,0.056,0.330,-5.337
0.274,0.055,0.335,-5.337
0.314,0.052,0.337,-5.337
0.240,0.051,0.336,-5.337
0.207,0.052,0.336,-5.337
0.252,0.054,0.338,-5.337
0.260,0.056,0.335,-5.337
0.203,0.055,0.333,-5.337
0.174,0.052,0.331,-5.337
0.153,0.053,0.333,-5.337
0.157,0.053,0.337,-5.337
0.153,0.058,0.337,-5.337
0.158,0.057,0.338,-5.337
0.156,0.053,0.335,-5.337
0.193,0.052,0.336,-5.337
0.179,0.053,0.342,-5.337
0.105,0.055,0.339,-5.337
0.061,0.057,0.335,-5.337
0.117,0.051,0.336,-5.337
0.137,0.051,0.340,-5.337
0.140,0.048,0.337,-5.337
0.195,0.050,0.335,-5.337
0.154,0.052,0.336,-5.337
0.127,0.047,0.334,-5.337
0.209,0.046,0.335,-5.337
0.251,0.048,0.335,-5.337
0.255,0.050,0.334,-5.337
0.277,0.047,0.334,-5.337
0.255,0.052,0.334,-5.337
0.220,0.055,0.334,-5.337
0.211,0.058,0.337,-5.337
0.203,0.056,0.337,-5.337
0.179,0.054,0.338,-5.337
0.179,0.054,0.339,-5.337
0.197,0.055,0.340,-5.337
0.156,0.054,0.338,-5.337
0.083,0.054,0.337,-5.337
0.131,0.049,0.336,-5.337
0.230,0.047,0.338,-5.337
0.260,0.050,0.334,-5.337
0.307,0.051,0.330,-5.337
0.261,0.054,0.331,-5.337
0.209,0.054,0.330,-5.337
0.248,0.053,0.332,-5.337
0.227,0.052,0.334,-5.337
0.149,0.055,0.339,-5.337
0.202,0.051,0.337,-5.337
0.224,0.053,0.331,-5.337
0.281,0.053,0.331,-5.337
0.270,0.054,0.334,-5.337
0.177,0.055,0.337,-5.337
0.189,0.054,0.340,-5.337
0.219,0.057,0.337,-5.337
0.156,0.059,0.334,-5.337
0.200,0.055,0.337,-5.337
0.257,0.052,0.343,-5.337
0.255,0.053,0.337,-5.337
0.242,0.055,0.333,-5.337
0.203,0.056,0.337,-5.337
0.196,0.057,0.338,-5.337
0.188,0.058,0.335,-5.337
0.157,0.057,0.331,-5.337
0.217,0.055,0.330,-5.337
0.277,0.052,0.336,-5.337
0.297,0.049,0.342,-5.337
0.247,0.051,0.341,-5.337
0.235,0.050,0.338,-5.337
0.235,0.050,0.334,-5.337
0.231,0.051,0.333,-5.337
0.211,0.053,0.334,-5.337
0.284,0.053,0.337,-5.337
0.278,0.052,0.332,-5.337
0.226,0.054,0.330,-5.337
0.209,0.059,0.336,-5.337
0.186,0.058,0.342,-5.337
0.185,0.058,0.342,-5.337
0.213,0.059,0.339,-5.337
0.205,0.065,0.337,-5.337
0.179,0.064,0.335,-5.337
0.163,0.063,0.336,-5.337
0.253,0.060,0.337,-5.337
0.312,0.057,0.334,-5.337
0.268,0.061,0.332,-5.337
0.214,0.057,0.334,-5.337
0.221,0.053,0.335,-5.337
0.239,0.054,0.339,-5.337
0.195,0.053,0.339,-5.337
0.158,0.055,0.334,-5.337
0.201,0.054,0.333,-5.337
0.246,0.052,0.339,-5.337
0.295,0.052,0.338,-5.337
0.292,0.056,0.334,-5.337
0.232,0.058,0.330,-5.337
0.173,0.055,0.331,-5.337
0.224,0.054,0.334,-5.337
0.258,0.052,0.336,-5.337
0.238,0.057,0.336,-5.337
0.148,0.058,0.337,-5.337
0.135,0.055,0.338,-5.337
0.203,0.054,0.342,-5.337
0.237,0.053,0.342,-5.337
0.236,0.054,0.342,-5.337
0.261,0.054,0.339,-5.337
0.287,0.052,0.338,-5.337
0.240,0.053,0.336,-5.337
0.176,0.052,0.337,-5.337
0.164,0.050,0.339,-5.337
0.167,0.052,0.336,-5.337
0.161,0.053,0.336,-5.337
0.190,0.048,0.335,-5.337
0.254,0.047,0.337,-5.337
0.223,0.048,0.338,-5.337
0.221,0.047,0.339,-5.337
0.291,0.048,0.336,-5.337
0.298,0.049,0.336,-5.337
0.254,0.050,0.336,-5.337
0.225,0.054,0.334,-5.337
0.228,0.057,0.334,-5.337
0.248,0.054,0.338,-5.337
0.180,0.051,0.338,-5.337
0.159,0.053,0.336,-5.337
0.181,0.051,0.336,-5.337
0.271,0.051,0.337,-5.337
0.313,0.050,0.336,-5.337
0.274,0.049,0.333,-5.337
0.204,0.049,0.335,-5.337
0.208,0.048,0.338,-5.337
0.242,0.042,0.340,-5.337
0.213,0.042,0.342,-5.337
0.178,0.045,0.340,-5.337
0.146,0.047,0.340,-5.337
0.153,0.045,0.338,-5.337
0.177,0.041,0.337,-5.337
0.220,0.043,0.334,-5.337
0.175,0.048,0.336,-5.337
0.109,0.049,0.341,-5.337
0.120,0.045,0.343,-5.337
0.184,0.045,0.343,-5.337
0.161,0.051,0.335,-5.337
0.166,0.048,0.332,-5.337
0.173,0.046,0.334,-5.337
0.209,0.048,0.337,-5.337
0.250,0.045,0.336,-5.337
0.243,0.048,0.335,-5.337
0.199,0.048,0.340,-5.337
0.230,0.044,0.344,-5.337
0.239,0.043,0.342,-5.337
0.209,0.042,0.338,-5.337
0.206,0.041,0.336,-5.337
0.256,0.040,0.338,-5.337
0.248,0.039,0.336,-5.337
0.295,0.036,0.335,-5.337
0.333,0.037,0.339,-5.337
0.258,0.040,0.342,-5.337
0.264,0.042,0.343,-5.337
0.301,0.039,0.344,-5.337
0.273,0.040,0.342,-5.337
0.207,0.042,0.338,-5.337
0.177,0.045,0.340,-5.337
0.201,0.041,0.340,-5.337
0.266,0.040,0.338,-5.337
0.266,0.044,0.336,-5.337
0.234,0.041,0.335,-5.337
0.209,0.037,0.336,-5.337
0.215,0.038,0.340,-5.337
0.200,0.040,0.339,-5.337
0.214,0.040,0.340,-5.337
0.215,0.037,0.339,-5.337
0.191,0.037,0.339,-5.337
0.206,0.036,0.337,-5.337
0.198,0.036,0.338,-5.337
0.220,0.036,0.339,-5.337
0.173,0.037,0.342,-5.337
0.151,0.035,0.344,-5.337
0.176,0.040,0.341,-5.337
0.178,0.042,0.339,-5.337
0.230,0.041,0.339,-5.337
0.231,0.038,0.342,-5.337
0.199,0.040,0.338,-5.337
0.213,0.043,0.331,-5.337
0.200,0.042,0.329,-5.337
0.190,0.041,0.336,-5.337
0.192,0.041,0.339,-5.337
0.152,0.042,0.339,-5.337
0.107,0.042,0.339,-5.337
0.159,0.039,0.339,-5.337
0.279,0.039,0.339,-5.337
0.265,0.040,0.338,-5.337
0.245,0.037,0.333,-5.337
0.222,0.039,0.334,-5.337
0.230,0.038,0.336,-5.337
0.266,0.039,0.339,-5.337
0.274,0.036,0.341,-5.337
0.222,0.036,0.342,-5.337
0.216,0.036,0.340,-5.337
0.222,0.035,0.338,-5.337
0.193,0.035,0.337,-5.337
0.175,0.035,0.338,-5.337
0.221,0.029,0.341,-5.337
0.321,0.031,0.341,-5.337
0.322,0.029,0.334,-5.337
0.243,0.030,0.330,-5.337
0.178,0.030,0.335,-5.337
0.246,0.029,0.336,-5.337
0.279,0.032,0.338,-5.337
0.329,0.031,0.335,-5.337
0.270,0.031,0.333,-5.337
0.206,0.032,0.336,-5.337
0.192,0.035,0.340,-5.337
0.219,0.034,0.340,-5.337
0.258,0.033,0.339,-5.337
0.248,0.034,0.340,-5.337
0.209,0.036,0.339,-5.337
0.159,0.035,0.337,-5.337
0.166,0.033,0.338,-5.337
0.215,0.036,0.336,-5.337
0.168,0.037,0.337,-5.337
0.196,0.031,0.336,-5.337
0.266,0.029,0.335,-5.337
0.265,0.032,0.332,-5.337
0.245,0.033,0.332,-5.337
0.245,0.034,0.335,-5.337
0.288,0.034,0.338,-5.337
0.318,0.031,0.340,-5.337
0.271,0.034,0.341,-5.337
0.246,0.037,0.339,-5.337
0.273,0.035,0.335,-5.337
0.307,0.032,0.338,-5.337
0.241,0.035,0.340,-5.337
0.160,0.038,0.342,-5.337
0.170,0.038,0.338,-5.337
0.194,0.034,0.336,-5.337
0.225,0.035,0.334,-5.337
0.243,0.033,0.331,-5.337
0.148,0.030,0.330,-5.337
0.145,0.036,0.331,-5.337
0.210,0.034,0.330,-5.337
0.214,0.033,0.331,-5.337
0.158,0.034,0.334,-5.337
0.163,0.034,0.342,-5.337
0.268,0.031,0.346,-5.337
0.275,0.033,0.344,-5.337
0.228,0.034,0.338,-5.337
0.185,0.035,0.333,-5.337
0.185,0.032,0.332,-5.337
0.284,0.029,0.333,-5.337
0.313,0.028,0.336,-5.337
0.315,0.029,0.336,-5.337
0.222,0.033,0.333,-5.337
0.161,0.035,0.333,-5.337
0.213,0.033,0.340,-5.337
0.274,0.032,0.342,-5.337
0.255,0.034,0.341,-5.337
0.203,0.035,0.336,-5.337
0.202,0.036,0.340,-5.337
0.221,0.033,0.339,-5.337
0.236,0.038,0.338,-5.337
0.240,0.034,0.335,-5.337
0.198,0.035,0.334,-5.337
0.154,0.035,0.337,-5.337
0.186,0.034,0.339,-5.337
0.223,0.038,0.337,-5.337
0.185,0.037,0.340,-5.337
0.157,0.033,0.342,-5.337
0.163,0.033,0.342,-5.337
0.130,0.038,0.338,-5.337
0.130,0.038,0.333,-5.337
0.212,0.036,0.331,-5.337
0.337,0.036,0.335,-5.337
0.308,0.036,0.341,-5.337
0.209,0.038,0.343,-5.337
0.167,0.040,0.341,-5.337
0.214,0.040,0.333,-5.337
0.268,0.042,0.332,-5.337
0.297,0.038,0.332,-5.337
0.218,0.040,0.338,-5.337
0.182,0.042,0.335,-5.337
0.155,0.047,0.335,-5.337
0.140,0.047,0.337,-5.337
0.183,0.038,0.340,-5.337
0.250,0.035,0.341,-5.337
0.245,0.036,0.338,-5.337
0.228,0.038,0.333,-5.337
0.267,0.037,0.336,-5.337
0.240,0.037,0.340,-5.337
0.213,0.035,0.340,-5.337
0.257,0.032,0.339,-5.337
0.266,0.034,0.338,-5.337
0.150,0.035,0.334,-5.337
0.154,0.033,0.335,-5.337
0.185,0.034,0.337,-5.337
0.186,0.033,0.338,-5.337
0.194,0.037,0.338,-5.337
0.228,0.036,0.335,-5.337
0.269,0.034,0.336,-5.337
0.230,0.035,0.339,-5.337
0.207,0.037,0.341,-5.337
0.208,0.038,0.339,-5.337
0.229,0.038,0.338,-5.337
0.223,0.035,0.335,-5.337
0.243,0.035,0.336,-5.337
0.295,0.033,0.341,-5.337
0.310,0.035,0.344,-5.337
0.239,0.038,0.340,-5.337
0.208,0.040,0.333,-5.337
0.189,0.038,0.330,-5.337
0.145,0.039,0.335,-5.337
0.132,0.041,0.335,-5.337
0.201,0.042,0.334,-5.337
0.167,0.043,0.333,-5.337
0.139,0.041,0.333,-5.337
0.239,0.038,0.335,-5.337
0.225,0.038,0.334,-5.337
0.223,0.036,0.331,-5.337
0.274,0.035,0.334,-5.337
0.260,0.036,0.341,-5.337
0.222,0.039,0.342,-5.337
0.205,0.040,0.339,-5.337
0.314,0.038,0.337,-5.337
0.359,0.037,0.340,-5.337
0.266,0.034,0.340,-5.337
0.188,0.033,0.335,-5.337
0.097,0.038,0.331,-5.337
0.093,0.042,0.336,-5.337
0.128,0.036,0.337,-5.337
0.147,0.035,0.333,-5.337
0.131,0.035,0.332,-5.337
0.206,0.033,0.337,-5.337
0.245,0.035,0.335,-5.337
0.217,0.038,0.331,-5.337
0.203,0.037,0.331,-5.337
0.245,0.038,0.334,-5.337
0.275,0.039,0.339,-5.337
0.250,0.039,0.337,-5.337
0.243,0.037,0.333,-5.337
0.318,0.032,0.332,-5.337
0.280,0.031,0.335,-5.337
0.240,0.033,0.338,-5.337
0.270,0.031,0.340,-5.337
0.199,0.036,0.338,-5.337
0.067,0.042,0.340,-5.337
0.053,0.040,0.342,-5.337
0.155,0.037,0.342,-5.337
0.204,0.034,0.336,-5.337
0.248,0.034,0.331,-5.337
0.262,0.032,0.334,-5.337
0.281,0.032,0.342,-5.337
0.300,0.038,0.345,-5.337
0.305,0.037,0.340,-5.337
0.338,0.035,0.336,-5.337
0.368,0.033,0.335,-5.337
0.410,0.032,0.334,-5.337
0.359,0.033,0.335,-5.337
0.258,0.036,0.340,-5.337
0.248,0.041,0.343,-5.337
0.259,0.041,0.340,-5.337
0.324,0.040,0.337,-5.337
0.310,0.041,0.334,-5.337
0.337,0.039,0.335,-5.337
0.330,0.042,0.333,-5.337
0.306,0.041,0.334,-5.337
0.327,0.038,0.336,-5.337
0.310,0.040,0.337,-5.337
0.214,0.044,0.339,-5.337
0.083,0.046,0.342,-5.337
0.128,0.042,0.343,-5.337
0.187,0.041,0.339,-5.337
0.200,0.040,0.335,-5.337
0.189,0.038,0.333,-5.337
0.175,0.040,0.335,-5.337
0.191,0.040,0.337,-5.337
0.264,0.041,0.340,-5.337
0.215,0.042,0.342,-5.337
0.179,0.042,0.342,-5.337
0.268,0.036,0.338,-5.337
0.317,0.041,0.338,-5.337
0.268,0.042,0.339,-5.337
0.274,0.042,0.336,-5.337
0.222,0.043,0.334,-5.337
0.174,0.046,0.337,-5.337
0.178,0.046,0.337,-5.337
0.160,0.043,0.335,-5.337
0.139,0.042,0.333,-5.337
0.226,0.041,0.334,-5.337
0.292,0.042,0.340,-5.337
0.190,0.042,0.338,-5.337
0.126,0.038,0.333,-5.337
0.207,0.037,0.333,-5.337
0.228,0.041,0.339,-5.337
0.203,0.043,0.344,-5.337
0.264,0.043,0.342,-5.337
0.198,0.044,0.336,-5.337
0.136,0.044,0.336,-5.337
0.152,0.044,0.339,-5.337
0.112,0.047,0.340,-5.337
0.085,0.043,0.336,-5.337
0.151,0.042,0.339,-5.337
0.228,0.044,0.339,-5.337
0.261,0.049,0.337,-5.337
0.227,0.050,0.335,-5.337
0.292,0.047,0.338,-5.337
0.258,0.049,0.341,-5.337
0.178,0.048,0.340,-5.337
0.224,0.047,0.337,-5.337
0.250,0.047,0.339,-5.337
0.176,0.050,0.343,-5.337
0.133,0.054,0.342,-5.337
0.153,0.049,0.339,-5.337
0.146,0.048,0.338,-5.337
0.146,0.048,0.337,-5.337
0.151,0.052,0.338,-5.337
0.128,0.054,0.338,-5.337
0.153,0.050,0.339,-5.337
0.169,0.051,0.339,-5.337
0.165,0.053,0.335,-5.337
0.135,0.057,0.333,-5.337
0.192,0.058,0.333,-5.337
0.239,0.052,0.338,-5.337
0.183,0.048,0.341,-5.337
0.172,0.048,0.343,-5.337
0.183,0.052,0.339,-5.337
0.208,0.052,0.338,-5.337
0.200,0.044,0.338,-5.337
0.226,0.042,0.342,-5.337
0.196,0.048,0.345,-5.337
0.108,0.049,0.344,-5.337
0.158,0.048,0.339,-5.337
0.192,0.042,0.332,-5.337
0.231,0.044,0.333,-5.337
0.238,0.045,0.333,-5.337
0.245,0.047,0.333,-5.337
0.261,0.047,0.338,-5.337
0.247,0.044,0.344,-5.337
0.232,0.047,0.343,-5.337
0.210,0.050,0.343,-5.337
0.227,0.049,0.340,-5.337
0.220,0.053,0.336,-5.337
0.228,0.049,0.337,-5.337
0.233,0.050,0.342,-5.337
0.246,0.050,0.342,-5.337
0.247,0.048,0.341,-5.337
0.237,0.048,0.337,-5.337
0.246,0.050,0.338,-5.337
0.224,0.048,0.340,-5.337
0.237,0.048,0.341,-5.337
0.230,0.048,0.338,-5.337
0.150,0.047,0.341,-5.337
0.164,0.044,0.340,-5.337
0.206,0.045,0.332,-5.337
0.237,0.047,0.332,-5.337
0.182,0.048,0.337,-5.337
0.203,0.045,0.338,-5.337
0.305,0.044,0.337,-5.337
0.271,0.048,0.339,-5.337
0.213,0.049,0.336,-5.337
0.203,0.045,0.334,-5.337
0.179,0.045,0.334,-5.337
0.217,0.047,0.337,-5.337
0.237,0.047,0.338,-5.337
0.274,0.049,0.340,-5.337
0.277,0.049,0.341,-5.337
0.212,0.048,0.341,-5.337
0.174,0.044,0.341,-5.337
0.136,0.046,0.342,-5.337
0.080,0.046,0.335,-5.337
0.121,0.046,0.328,-5.337
0.253,0.041,0.326,-5.337
0.260,0.042,0.334,-5.337
0.137,0.047,0.339,-5.337
0.093,0.049,0.335,-5.337
0.154,0.051,0.333,-5.337
0.150,0.049,0.334,-5.337
0.136,0.045,0.337,-5.337
0.182,0.043,0.341,-5.337
0.185,0.042,0.340,-5.337
0.201,0.044,0.335,-5.337
0.202,0.045,0.335,-5.337
0.222,0.045,0.336,-5.337
0.284,0.041,0.335,-5.337
0.324,0.042,0.331,-5.337
0.213,0.048,0.331,-5.337
0.161,0.046,0.333,-5.337
0.183,0.044,0.336,-5.337
0.255,0.044,0.336,-5.337
0.330,0.043,0.339,-5.337
0.260,0.046,0.343,-5.337
0.177,0.047,0.343,-5.337
0.175,0.046,0.336,-5.337
0.163,0.050,0.332,-5.337
0.227,0.047,0.332,-5.337
0.242,0.050,0.337,-5.337
0.171,0.049,0.340,-5.337
0.152,0.047,0.338,-5.337
0.118,0.046,0.335,-5.337
0.209,0.046,0.331,-5.337
0.307,0.046,0.333,-5.337
0.315,0.045,0.337,-5.337
0.222,0.047,0.339,-5.337
0.158,0.048,0.335,-5.337
0.164,0.050,0.333,-5.337
0.124,0.051,0.331,-5.337
0.116,0.050,0.336,-5.337
0.207,0.046,0.340,-5.337
0.198,0.047,0.338,-5.337
0.130,0.047,0.336,-5.337
0.145,0.047,0.338,-5.337
0.148,0.049,0.336,-5.337
0.095,0.050,0.333,-5.337
0.084,0.046,0.333,-5.337
0.209,0.044,0.336,-5.337
0.209,0.044,0.337,-5.337
0.099,0.049,0.337,-5.337
0.104,0.050,0.339,-5.337
0.165,0.052,0.341,-5.337
0.178,0.051,0.339,-5.337
0.170,0.050,0.339,-5.337
0.194,0.050,0.336,-5.337
0.253,0.048,0.334,-5.337
0.235,0.052,0.336,-5.337
0.224,0.051,0.337,-5.337
0.241,0.052,0.337,-5.337
0.238,0.050,0.340,-5.337
0.260,0.047,0.339,-5.337
0.234,0.051,0.336,-5.337
0.148,0.053,0.335,-5.337
0.179,0.051,0.330,-5.337
0.208,0.049,0.330,-5.337
0.150,0.051,0.331,-5.337
0.128,0.054,0.334,-5.337
0.222,0.048,0.338,-5.337
0.299,0.048,0.341,-5.337
0.324,0.048,0.337,-5.337
0.295,0.050,0.335,-5.337
0.304,0.048,0.336,-5.337
0.351,0.046,0.339,-5.337
0.301,0.052,0.341,-5.337
0.133,0.054,0.340,-5.337
0.139,0.048,0.336,-5.337
0.253,0.046,0.335,-5.337
0.222,0.047,0.337,-5.337
0.122,0.046,0.337,-5.337
0.096,0.043,0.335,-5.337
0.194,0.045,0.337,-5.337
0.156,0.054,0.340,-5.337
0.062,0.055,0.339,-5.337
0.102,0.053,0.337,-5.337
0.187,0.051,0.335,-5.337
0.282,0.051,0.338,-5.337
0.329,0.049,0.336,-5.337
0.272,0.048,0.337,-5.337
0.187,0.050,0.335,-5.337
0.173,0.051,0.336,-5.337
0.257,0.048,0.333,-5.337
0.280,0.046,0.333,-5.337
0.314,0.042,0.338,-5.337
0.320,0.045,0.340,-5.337
0.232,0.051,0.341,-5.337
0.194,0.051,0.336,-5.337
0.225,0.049,0.332,-5.337
0.222,0.048,0.334,-5.337
0.179,0.048,0.339,-5.337
0.182,0.047,0.338,-5.337
0.142,0.052,0.337,-5.337
0.115,0.053,0.336,-5.337
0.180,0.052,0.338,-5.337
0.235,0.048,0.337,-5.337
0.242,0.050,0.336,-5.337
0.217,0.051,0.337,-5.337
0.169,0.054,0.338,-5.337
0.172,0.050,0.337,-5.337
0.245,0.051,0.338,-5.337
0.283,0.051,0.335,-5.337
0.272,0.050,0.334,-5.337
0.264,0.052,0.338,-5.337
0.257,0.054,0.338,-5.337
0.257,0.054,0.336,-5.337
0.241,0.053,0.337,-5.337
0.252,0.054,0.338,-5.337
0.239,0.055,0.334,-5.337
0.214,0.053,0.335,-5.337
0.187,0.052,0.336,-5.337
0.184,0.053,0.331,-5.337
0.245,0.056,0.332,-5.337
0.285,0.055,0.335,-5.337
0.237,0.056,0.331,-5.337
0.197,0.054,0.331,-5.337
0.193,0.051,0.333,-5.337
0.234,0.049,0.337,-5.337
0.198,0.053,0.336,-5.337
0.227,0.056,0.336,-5.337
0.281,0.055,0.334,-5.337
0.230,0.051,0.336,-5.337
0.217,0.050,0.337,-5.337
0.207,0.054,0.334,-5.337
0.224,0.055,0.330,-5.337
0.251,0.053,0.332,-5.337
0.210,0.054,0.334,-5.337
0.147,0.054,0.335,-5.337
0.106,0.052,0.339,-5.337
0.113,0.053,0.341,-5.337
0.092,0.053,0.339,-5.337
0.170,0.051,0.335,-5.337
0.292,0.050,0.333,-5.337
0.309,0.050,0.333,-5.337
0.301,0.045,0.335,-5.337
0.263,0.046,0.335,-5.337
0.149,0.049,0.334,-5.337
0.137,0.050,0.330,-5.337
0.144,0.050,0.333,-5.337
0.146,0.046,0.337,-5.337
0.153,0.044,0.339,-5.337
0.204,0.041,0.339,-5.337
0.240,0.042,0.340,-5.337
0.235,0.044,0.336,-5.337
0.295,0.042,0.334,-5.337
0.349,0.041,0.335,-5.337
0.336,0.046,0.334,-5.337
0.279,0.044,0.332,-5.337
0.242,0.043,0.334,-5.337
0.196,0.045,0.338,-5.337
0.099,0.048,0.338,-5.337
0.091,0.049,0.337,-5.337
0.163,0.042,0.338,-5.337
0.191,0.039,0.337,-5.337
0.204,0.041,0.335,-5.337
0.194,0.044,0.335,-5.337
0.181,0.045,0.337,-5.337
0.175,0.047,0.336,-5.337
0.144,0.048,0.334,-5.337
0.228,0.044,0.335,-5.337
0.215,0.046,0.337,-5.337
0.143,0.047,0.336,-5.337
0.119,0.046,0.334,-5.337
0.131,0.043,0.335,-5.337
0.169,0.041,0.337,-5.337
0.201,0.046,0.341,-5.337
0.217,0.048,0.342,-5.337
0.243,0.046,0.342,-5.337
0.206,0.045,0.336,-5.337
0.101,0.047,0.334,-5.337
0.140,0.047,0.333,-5.337
0.188,0.046,0.331,-5.337
0.203,0.042,0.333,-5.337
0.185,0.048,0.336,-5.337
0.147,0.048,0.337,-5.337
0.154,0.044,0.339,-5.337
0.216,0.043,0.338,-5.337
0.248,0.043,0.339,-5.337
0.241,0.038,0.338,-5.337
0.196,0.040,0.336,-5.337
0.207,0.041,0.335,-5.337
0.266,0.039,0.334,-5.337
0.379,0.032,0.334,-5.337
0.323,0.035,0.335,-5.337
0.236,0.039,0.333,-5.337
0.224,0.038,0.337,-5.337
0.217,0.040,0.342,-5.337
0.207,0.042,0.342,-5.337
0.207,0.040,0.340,-5.337
0.308,0.034,0.336,-5.337
0.401,0.034,0.337,-5.337
0.358,0.038,0.338,-5.337
0.220,0.039,0.338,-5.337
0.155,0.036,0.336,-5.337
0.175,0.039,0.335,-5.337
0.160,0.042,0.337,-5.337
0.140,0.039,0.337,-5.337
0.184,0.038,0.337,-5.337
0.245,0.037,0.337,-5.337
0.214,0.042,0.336,-5.337
0.110,0.043,0.339,-5.337
0.139,0.040,0.340,-5.337
0.244,0.039,0.340,-5.337
0.269,0.041,0.337,-5.337
0.231,0.036,0.334,-5.337
0.239,0.032,0.334,-5.337
0.260,0.036,0.338,-5.337
0.220,0.040,0.337,-5.337
0.254,0.037,0.337,-5.337
0.228,0.036,0.339,-5.337
0.231,0.035,0.340,-5.337
0.242,0.040,0.340,-5.337
0.196,0.040,0.339,-5.337
0.158,0.032,0.340,-5.337
0.210,0.030,0.338,-5.337
0.196,0.033,0.335,-5.337
0.189,0.037,0.335,-5.337
0.168,0.039,0.337,-5.337
0.171,0.038,0.340,-5.337
0.163,0.039,0.341,-5.337
0.151,0.037,0.340,-5.337
0.175,0.036,0.337,-5.337
0.196,0.036,0.335,-5.337
0.119,0.039,0.336,-5.337
0.159,0.037,0.342,-5.337
0.227,0.035,0.345,-5.337
0.261,0.034,0.342,-5.337
0.264,0.038,0.336,-5.337
0.212,0.039,0.334,-5.337
0.280,0.036,0.339,-5.337
0.360,0.034,0.342,-5.337
0.345,0.030,0.340,-5.337
0.204,0.031,0.340,-5.337
0.152,0.035,0.338,-5.337
0.203,0.036,0.337,-5.337
0.260,0.032,0.334,-5.337
0.219,0.034,0.337,-5.337
0.193,0.033,0.338,-5.337
0.200,0.030,0.338,-5.337
0.220,0.029,0.336,-5.337
0.317,0.032,0.335,-5.337
0.350,0.032,0.336,-5.337
0.295,0.031,0.341,-5.337
0.284,0.030,0.339,-5.337
0.257,0.034,0.337,-5.337
0.297,0.034,0.339,-5.337
0.288,0.033,0.343,-5.337
0.239,0.031,0.341,-5.337
0.194,0.032,0.334,-5.337
0.170,0.033,0.337,-5.337
0.175,0.034,0.341,-5.337
0.184,0.034,0.341,-5.337
0.202,0.032,0.337,-5.337
0.208,0.037,0.339,-5.337
0.160,0.039,0.340,-5.337
0.167,0.039,0.341,-5.337
0.165,0.037,0.337,-5.337
0.137,0.038,0.336,-5.337
0.132,0.037,0.335,-5.337
0.179,0.036,0.334,-5.337
0.175,0.035,0.335,-5.337
0.141,0.034,0.339,-5.337
0.177,0.031,0.340,-5.337
0.242,0.029,0.338,-5.337
0.252,0.029,0.338,-5.337
0.293,0.031,0.339,-5.337
0.305,0.034,0.335,-5.337
0.274,0.032,0.336,-5.337
0.364,0.026,0.338,-5.337
0.381,0.027,0.339,-5.337
0.280,0.032,0.336,-5.337
0.246,0.032,0.336,-5.337
0.249,0.025,0.337,-5.337
0.282,0.024,0.338,-5.337
0.222,0.028,0.337,-5.337
0.182,0.033,0.335,-5.337
0.148,0.033,0.333,-5.337
0.184,0.030,0.333,-5.337
0.257,0.029,0.336,-5.337
0.253,0.032,0.339,-5.337
0.183,0.032,0.339,-5.337
0.180,0.030,0.333,-5.337
0.175,0.029,0.332,-5.337
0.215,0.026,0.335,-5.337
0.159,0.030,0.336,-5.337
0.127,0.028,0.334,-5.337
0.197,0.027,0.335,-5.337
0.254,0.029,0.337,-5.337
0.170,0.032,0.335,-5.337
0.170,0.030,0.335,-5.337
0.254,0.027,0.338,-5.337
0.246,0.028,0.336,-5.337
0.231,0.027,0.334,-5.337
0.200,0.026,0.335,-5.337
0.258,0.029,0.337,-5.337
0.186,0.034,0.340,-5.337
0.130,0.035,0.339,-5.337
0.214,0.033,0.336,-5.337
0.245,0.033,0.336,-5.337
0.248,0.038,0.338,-5.337
0.216,0.038,0.337,-5.337
0.223,0.035,0.338,-5.337
0.163,0.037,0.334,-5.337
0.151,0.034,0.333,-5.337
0.207,0.030,0.330,-5.337
0.282,0.031,0.335,-5.337
0.375,0.025,0.336,-5.337
0.286,0.027,0.336,-5.337
0.215,0.029,0.338,-5.337
0.221,0.030,0.341,-5.337
0.215,0.032,0.337,-5.337
0.179,0.032,0.336,-5.337
0.230,0.029,0.337,-5.337
0.255,0.032,0.339,-5.337
0.169,0.034,0.341,-5.337
0.132,0.028,0.342,-5.337
0.186,0.026,0.341,-5.337
0.151,0.034,0.337,-5.337
0.099,0.037,0.336,-5.337
0.153,0.033,0.336,-5.337
0.242,0.028,0.338,-5.337
0.242,0.027,0.337,-5.337
0.234,0.027,0.338,-5.337
0.273,0.026,0.338,-5.337
0.247,0.029,0.339,-5.337
0.201,0.026,0.337,-5.337
0.206,0.027,0.336,-5.337
0.216,0.028,0.332,-5.337
0.220,0.028,0.334,-5.337
0.149,0.027,0.335,-5.337
0.127,0.029,0.336,-5.337
0.242,0.031,0.339,-5.337
0.276,0.033,0.337,-5.337
0.229,0.032,0.336,-5.337
0.216,0.032,0.334,-5.337
0.222,0.035,0.333,-5.337
0.169,0.037,0.336,-5.337
0.156,0.032,0.340,-5.337
0.158,0.034,0.342,-5.337
0.199,0.033,0.341,-5.337
0.317,0.028,0.338,-5.337
0.295,0.029,0.337,-5.337
0.237,0.028,0.335,-5.337
0.251,0.029,0.334,-5.337
0.196,0.032,0.338,-5.337
0.212,0.030,0.343,-5.337
0.287,0.027,0.338,-5.337
0.302,0.026,0.334,-5.337
0.255,0.032,0.333,-5.337
0.209,0.028,0.335,-5.337
0.182,0.026,0.336,-5.337
0.115,0.028,0.336,-5.337
0.106,0.027,0.338,-5.337
0.172,0.027,0.339,-5.337
0.255,0.024,0.340,-5.337
0.257,0.025,0.337,-5.337
0.163,0.026,0.334,-5.337
0.090,0.029,0.335,-5.337
0.182,0.028,0.335,-5.337
0.235,0.028,0.333,-5.337
0.181,0.033,0.335,-5.337
0.172,0.031,0.335,-5.337
0.176,0.029,0.335,-5.337
0.282,0.027,0.337,-5.337
0.333,0.029,0.336,-5.337
0.316,0.031,0.336,-5.337
0.299,0.029,0.340,-5.337
0.267,0.029,0.344,-5.337
0.292,0.031,0.346,-5.337
0.321,0.035,0.339,-5.337
0.236,0.033,0.334,-5.337
0.223,0.029,0.332,-5.337
0.219,0.029,0.335,-5.337
0.222,0.030,0.334,-5.337
0.260,0.030,0.332,-5.337
0.177,0.032,0.331,-5.337
0.074,0.034,0.334,-5.337
0.098,0.032,0.337,-5.337
0.203,0.027,0.339,-5.337
0.242,0.025,0.341,-5.337
0.208,0.030,0.340,-5.337
0.160,0.030,0.338,-5.337
0.109,0.028,0.337,-5.337
0.133,0.029,0.335,-5.337
0.217,0.031,0.332,-5.337
0.253,0.029,0.332,-5.337
0.280,0.025,0.335,-5.337
0.301,0.028,0.338,-5.337
0.311,0.032,0.341,-5.337
0.271,0.032,0.338,-5.337
0.220,0.030,0.334,-5.337
0.265,0.028,0.335,-5.337
0.238,0.029,0.337,-5.337
0.105,0.034,0.339,-5.337
0.080,0.035,0.341,-5.337
0.192,0.035,0.344,-5.337
0.215,0.034,0.340,-5.337
0.228,0.032,0.336,-5.337
0.210,0.032,0.329,-5.337
0.131,0.034,0.325,-5.337
0.104,0.031,0.329,-5.337
0.209,0.026,0.335,-5.337
0.295,0.024,0.338,-5.337
0.231,0.030,0.335,-5.337
0.157,0.030,0.334,-5.337
0.153,0.034,0.337,-5.337
0.115,0.037,0.338,-5.337
0.161,0.037,0.336,-5.337
0.222,0.035,0.333,-5.337
0.200,0.038,0.336,-5.337
0.223,0.038,0.341,-5.337
0.265,0.035,0.339,-5.337
0.251,0.031,0.335,-5.337
0.303,0.033,0.330,-5.337
0.252,0.036,0.330,-5.337
0.207,0.037,0.328,-5.337
0.172,0.038,0.331,-5.337
0.184,0.038,0.338,-5.337
0.172,0.037,0.340,-5.337
0.172,0.037,0.340,-5.337
0.168,0.039,0.340,-5.337
0.214,0.035,0.338,-5.337
0.299,0.037,0.338,-5.337
0.290,0.038,0.340,-5.337
0.254,0.038,0.340,-5.337
0.244,0.038,0.340,-5.337
0.201,0.041,0.338,-5.337
0.205,0.039,0.336,-5.337
0.180,0.038,0.337,-5.337
0.217,0.037,0.335,-5.337
0.259,0.040,0.339,-5.337
0.180,0.044,0.341,-5.337
0.080,0.047,0.336,-5.337
0.105,0.045,0.331,-5.337
0.197,0.043,0.335,-5.337
0.177,0.047,0.341,-5.337
0.134,0.045,0.341,-5.337
0.175,0.044,0.341,-5.337
0.258,0.042,0.335,-5.337
0.199,0.044,0.332,-5.337
0.217,0.043,0.332,-5.337
0.253,0.040,0.334,-5.337
0.247,0.037,0.336,-5.337
0.239,0.038,0.334,-5.337
0.284,0.040,0.337,-5.337
0.236,0.042,0.342,-5.337
0.148,0.043,0.345,-5.337
0.085,0.045,0.341,-5.337
0.125,0.044,0.336,-5.337
0.191,0.044,0.334,-5.337
0.186,0.048,0.333,-5.337
0.165,0.047,0.333,-5.337
0.178,0.040,0.333,-5.337
0.301,0.038,0.334,-5.337
0.307,0.044,0.336,-5.337
0.190,0.048,0.336,-5.337
0.138,0.044,0.335,-5.337
0.238,0.045,0.335,-5.337
0.263,0.043,0.336,-5.337
0.312,0.042,0.339,-5.337
0.262,0.043,0.341,-5.337
0.197,0.044,0.338,-5.337
0.236,0.043,0.337,-5.337
0.269,0.046,0.336,-5.337
0.244,0.047,0.341,-5.337
0.303,0.041,0.341,-5.337
0.311,0.043,0.340,-5.337
0.235,0.043,0.335,-5.337
0.160,0.045,0.334,-5.337
0.167,0.042,0.336,-5.337
0.237,0.042,0.338,-5.337
0.314,0.046,0.335,-5.337
0.304,0.049,0.333,-5.337
0.244,0.046,0.333,-5.337
0.214,0.045,0.337,-5.337
0.219,0.042,0.340,-5.337
0.211,0.048,0.341,-5.337
0.223,0.049,0.341,-5.337
0.240,0.045,0.338,-5.337
0.227,0.043,0.341,-5.337
0.187,0.045,0.339,-5.337
0.186,0.044,0.336,-5.337
0.202,0.045,0.334,-5.337
0.190,0.046,0.331,-5.337
0.116,0.051,0.332,-5.337
0.091,0.050,0.336,-5.337
0.166,0.045,0.337,-5.337
0.203,0.050,0.337,-5.337
0.166,0.052,0.335,-5.337
0.161,0.055,0.338,-5.337
0.198,0.051,0.342,-5.337
0.268,0.047,0.340,-5.337
0.236,0.046,0.337,-5.337
0.232,0.046,0.333,-5.337
0.211,0.051,0.339,-5.337
0.192,0.055,0.341,-5.337
0.185,0.052,0.339,-5.337
0.223,0.048,0.338,-5.337
0.273,0.049,0.339,-5.337
0.245,0.052,0.338,-5.337
0.242,0.051,0.335,-5.337
0.218,0.053,0.334,-5.337
0.220,0.053,0.336,-5.337
0.256,0.050,0.338,-5.337
0.217,0.048,0.340,-5.337
0.193,0.050,0.339,-5.337
0.168,0.054,0.334,-5.337
0.147,0.055,0.330,-5.337
0.158,0.053,0.332,-5.337
0.164,0.049,0.338,-5.337
0.132,0.054,0.343,-5.337
0.116,0.055,0.344,-5.337
0.135,0.051,0.339,-5.337
0.177,0.046,0.332,-5.337
0.238,0.048,0.332,-5.337
0.215,0.052,0.336,-5.337
0.135,0.052,0.338,-5.337
0.197,0.052,0.335,-5.337
0.238,0.052,0.334,-5.337
0.245,0.049,0.337,-5.337
0.246,0.046,0.338,-5.337
0.208,0.044,0.340,-5.337
0.152,0.046,0.339,-5.337
0.159,0.048,0.337,-5.337
0.199,0.048,0.339,-5.337
0.285,0.046,0.342,-5.337
0.268,0.047,0.337,-5.337
0.179,0.052,0.338,-5.337
0.151,0.051,0.339,-5.337
0.185,0.052,0.338,-5.337
0.212,0.049,0.334,-5.337
0.209,0.048,0.332,-5.337
0.166,0.048,0.332,-5.337
0.176,0.053,0.333,-5.337
0.208,0.050,0.334,-5.337
0.199,0.051,0.335,-5.337
0.139,0.051,0.335,-5.337
0.136,0.047,0.334,-5.337
0.238,0.044,0.334,-5.337
0.231,0.049,0.336,-5.337
0.177,0.054,0.339,-5.337
0.168,0.052,0.340,-5.337
0.191,0.050,0.339,-5.337
0.160,0.050,0.335,-5.337
0.155,0.054,0.334,-5.337
0.184,0.054,0.336,-5.337
0.180,0.056,0.335,-5.337
0.186,0.056,0.332,-5.337
0.186,0.053,0.331,-5.337
0.236,0.052,0.334,-5.337
0.240,0.051,0.337,-5.337
0.245,0.048,0.337,-5.337
0.244,0.049,0.338,-5.337
0.228,0.050,0.337,-5.337
0.167,0.050,0.335,-5.337
0.105,0.054,0.335,-5.337
0.028,0.057,0.337,-5.337
0.113,0.049,0.331,-5.337
0.269,0.047,0.333,-5.337
0.329,0.046,0.338,-5.337
0.276,0.052,0.338,-5.337
0.201,0.053,0.334,-5.337
0.132,0.052,0.332,-5.337
0.171,0.050,0.333,-5.337
0.180,0.052,0.337,-5.337
0.174,0.051,0.340,-5.337
0.219,0.048,0.337,-5.337
0.218,0.050,0.332,-5.337
0.133,0.052,0.333,-5.337
0.114,0.054,0.335,-5.337
0.205,0.053,0.334,-5.337
0.243,0.052,0.333,-5.337
0.206,0.054,0.336,-5.337
0.250,0.050,0.339,-5.337
0.237,0.051,0.339,-5.337
0.189,0.050,0.338,-5.337
0.197,0.049,0.336,-5.337
0.181,0.052,0.332,-5.337
0.156,0.050,0.327,-5.337
0.186,0.050,0.329,-5.337
0.216,0.053,0.333,-5.337
0.182,0.055,0.338,-5.337
0.193,0.054,0.340,-5.337
0.209,0.053,0.336,-5.337
0.206,0.051,0.333,-5.337
0.173,0.051,0.333,-5.337
0.124,0.052,0.334,-5.337
0.151,0.052,0.337,-5.337
0.199,0.053,0.339,-5.337
0.132,0.055,0.341,-5.337
0.124,0.054,0.340,-5.337
0.202,0.050,0.336,-5.337
0.224,0.049,0.335,-5.337
0.230,0.052,0.334,-5.337
0.177,0.052,0.334,-5.337
0.178,0.048,0.337,-5.337
0.326,0.044,0.335,-5.337
0.384,0.043,0.330,-5.337
0.286,0.045,0.331,-5.337
0.188,0.051,0.336,-5.337
0.224,0.053,0.341,-5.337
0.240,0.053,0.337,-5.337
0.168,0.051,0.334,-5.337
0.195,0.048,0.334,-5.337
0.228,0.052,0.332,-5.337
0.156,0.053,0.332,-5.337
0.170,0.049,0.333,-5.337
0.192,0.050,0.336,-5.337
0.134,0.052,0.337,-5.337
0.184,0.049,0.336,-5.337
0.203,0.051,0.334,-5.337
0.185,0.050,0.332,-5.337
0.163,0.049,0.334,-5.337
0.181,0.047,0.337,-5.337
0.258,0.046,0.340,-5.337
0.338,0.046,0.339,-5.337
0.381,0.048,0.336,-5.337
0.279,0.052,0.334,-5.337
0.175,0.051,0.336,-5.337
0.153,0.049,0.339,-5.337
0.124,0.052,0.338,-5.337
0.060,0.055,0.336,-5.337
0.081,0.054,0.333,-5.337
0.136,0.053,0.336,-5.337
0.255,0.051,0.336,-5.337
0.233,0.052,0.334,-5.337
0.166,0.050,0.338,-5.337
0.178,0.048,0.343,-5.337
0.195,0.047,0.344,-5.337
0.178,0.046,0.336,-5.337
0.233,0.047,0.330,-5.337
0.284,0.049,0.329,-5.337
0.200,0.048,0.333,-5.337
0.194,0.046,0.339,-5.337
0.250,0.045,0.340,-5.337
0.231,0.047,0.338,-5.337
0.185,0.046,0.338,-5.337
0.198,0.045,0.336,-5.337
0.256,0.044,0.332,-5.337
0.313,0.044,0.333,-5.337
0.403,0.046,0.337,-5.337
0.345,0.047,0.337,-5.337
0.184,0.047,0.340,-5.337
0.223,0.045,0.340,-5.337
0.320,0.045,0.339,-5.337
0.257,0.043,0.333,-5.337
0.230,0.044,0.334,-5.337
0.219,0.048,0.334,-5.337
0.187,0.052,0.332,-5.337
0.116,0.050,0.331,-5.337
0.119,0.046,0.334,-5.337
0.220,0.042,0.335,-5.337
0.239,0.041,0.336,-5.337
0.174,0.043,0.337,-5.337
0.101,0.043,0.336,-5.337
0.143,0.046,0.336,-5.337
0.170,0.048,0.339,-5.337
0.169,0.045,0.339,-5.337
0.198,0.044,0.338,-5.337
0.196,0.045,0.333,-5.337
0.152,0.045,0.332,-5.337
0.120,0.049,0.337,-5.337
0.085,0.048,0.337,-5.337
0.140,0.043,0.334,-5.337
0.157,0.042,0.330,-5.337
0.165,0.043,0.329,-5.337
0.165,0.045,0.331,-5.337
0.184,0.044,0.335,-5.337
0.215,0.041,0.337,-5.337
0.286,0.041,0.336,-5.337
0.273,0.045,0.334,-5.337
0.207,0.046,0.332,-5.337
0.233,0.039,0.330,-5.337
0.228,0.039,0.333,-5.337
0.252,0.039,0.336,-5.337
0.302,0.042,0.338,-5.337
0.217,0.043,0.337,-5.337
0.166,0.041,0.338,-5.337
0.186,0.040,0.339,-5.337
0.192,0.042,0.337,-5.337
0.255,0.040,0.336,-5.337
0.239,0.041,0.334,-5.337
0.169,0.044,0.332,-5.337
0.153,0.042,0.334,-5.337
0.222,0.041,0.338,-5.337
0.251,0.047,0.341,-5.337
0.201,0.049,0.342,-5.337
0.130,0.047,0.337,-5.337
0.152,0.044,0.337,-5.337
0.252,0.041,0.337,-5.337
0.325,0.043,0.338,-5.337
0.257,0.044,0.339,-5.337
0.206,0.045,0.340,-5.337
0.162,0.045,0.340,-5.337
0.130,0.046,0.340,-5.337
0.209,0.042,0.336,-5.337
0.276,0.042,0.329,-5.337
0.283,0.045,0.330,-5.337
0.214,0.046,0.339,-5.337
0.148,0.046,0.341,-5.337
0.164,0.046,0.337,-5.337
0.187,0.041,0.335,-5.337
0.222,0.041,0.335,-5.337
0.268,0.042,0.334,-5.337
0.264,0.041,0.332,-5.337
0.218,0.042,0.337,-5.337
0.173,0.038,0.342,-5.337
0.125,0.039,0.342,-5.337
0.158,0.040,0.341,-5.337
0.208,0.039,0.341,-5.337
0.249,0.039,0.340,-5.337
0.283,0.039,0.335,-5.337
0.265,0.040,0.332,-5.337
0.300,0.042,0.337,-5.337
0.308,0.040,0.336,-5.337
0.282,0.040,0.336,-5.337
0.232,0.043,0.333,-5.337
0.166,0.043,0.332,-5.337
0.206,0.039,0.330,-5.337
0.219,0.038,0.332,-5.337
0.204,0.037,0.338,-5.337
0.187,0.038,0.342,-5.337
0.178,0.034,0.340,-5.337
0.284,0.031,0.337,-5.337
0.345,0.031,0.337,-5.337
0.319,0.035,0.340,-5.337
0.249,0.036,0.339,-5.337
0.173,0.039,0.337,-5.337
0.159,0.039,0.341,-5.337
0.140,0.037,0.341,-5.337
0.170,0.033,0.339,-5.337
0.228,0.034,0.339,-5.337
0.205,0.039,0.340,-5.337
0.205,0.038,0.339,-5.337
0.222,0.036,0.341,-5.337
0.228,0.038,0.340,-5.337
0.267,0.039,0.336,-5.337
0.256,0.038,0.332,-5.337
0.185,0.039,0.331,-5.337
0.128,0.039,0.332,-5.337
0.103,0.037,0.335,-5.337
0.202,0.035,0.339,-5.337
0.242,0.036,0.343,-5.337
0.274,0.034,0.344,-5.337
0.281,0.035,0.344,-5.337
0.308,0.031,0.341,-5.337
0.291,0.030,0.334,-5.337
0.335,0.031,0.331,-5.337
0.261,0.036,0.336,-5.337
0.209,0.036,0.342,-5.337
0.288,0.032,0.342,-5.337
0.300,0.035,0.341,-5.337
0.217,0.039,0.337,-5.337
0.203,0.037,0.334,-5.337
0.219,0.034,0.332,-5.337
0.205,0.033,0.334,-5.337
0.184,0.032,0.334,-5.337
0.210,0.033,0.337,-5.337
0.256,0.034,0.337,-5.337
0.240,0.035,0.333,-5.337
0.222,0.034,0.329,-5.337
0.190,0.040,0.333,-5.337
0.134,0.041,0.339,-5.337
0.174,0.036,0.342,-5.337
0.253,0.033,0.345,-5.337
0.275,0.032,0.342,-5.337
0.191,0.033,0.337,-5.337
0.223,0.035,0.336,-5.337
0.225,0.035,0.338,-5.337
0.204,0.033,0.341,-5.337
0.189,0.038,0.339,-5.337
0.189,0.043,0.335,-5.337
0.199,0.039,0.338,-5.337
0.235,0.036,0.341,-5.337
0.212,0.037,0.342,-5.337
0.220,0.036,0.338,-5.337
0.240,0.036,0.337,-5.337
0.246,0.036,0.335,-5.337
0.178,0.035,0.336,-5.337
0.121,0.034,0.337,-5.337
0.162,0.033,0.341,-5.337
0.196,0.033,0.339,-5.337
0.221,0.032,0.337,-5.337
0.252,0.031,0.337,-5.337
0.190,0.036,0.337,-5.337
0.135,0.035,0.337,-5.337
0.205,0.032,0.338,-5.337
0.244,0.031,0.339,-5.337
0.174,0.034,0.337,-5.337
0.204,0.037,0.336,-5.337
0.226,0.037,0.340,-5.337
0.218,0.036,0.340,-5.337
0.286,0.032,0.336,-5.337
0.294,0.031,0.335,-5.337
0.271,0.030,0.334,-5.337
0.277,0.031,0.339,-5.337
0.265,0.031,0.342,-5.337
0.326,0.030,0.344,-5.337
0.368,0.029,0.341,-5.337
0.333,0.028,0.339,-5.337
0.260,0.028,0.336,-5.337
0.240,0.026,0.331,-5.337
0.161,0.031,0.331,-5.337
0.162,0.032,0.336,-5.337
0.174,0.030,0.337,-5.337
0.157,0.029,0.337,-5.337
0.174,0.031,0.334,-5.337
0.179,0.030,0.334,-5.337
0.242,0.025,0.337,-5.337
0.220,0.032,0.338,-5.337
0.188,0.032,0.335,-5.337
0.183,0.030,0.331,-5.337
0.187,0.030,0.332,-5.337
0.210,0.031,0.336,-5.337
0.152,0.030,0.340,-5.337
0.181,0.030,0.341,-5.337
0.220,0.031,0.338,-5.337
0.180,0.031,0.334,-5.337
0.150,0.030,0.334,-5.337
0.151,0.032,0.332,-5.337
0.198,0.030,0.333,-5.337
0.243,0.030,0.336,-5.337
0.242,0.029,0.336,-5.337
0.254,0.029,0.332,-5.337
0.304,0.031,0.333,-5.337
0.257,0.030,0.333,-5.337
0.195,0.031,0.334,-5.337
0.152,0.028,0.335,-5.337
0.204,0.028,0.333,-5.337
0.255,0.026,0.333,-5.337
0.272,0.028,0.335,-5.337
0.235,0.028,0.340,-5.337
0.247,0.026,0.343,-5.337
0.258,0.027,0.338,-5.337
0.281,0.026,0.332,-5.337
0.228,0.028,0.332,-5.337
0.220,0.028,0.333,-5.337
0.277,0.028,0.337,-5.337
0.304,0.029,0.338,-5.337
0.338,0.027,0.337,-5.337
0.244,0.032,0.337,-5.337
0.212,0.031,0.338,-5.337
0.241,0.030,0.338,-5.337
0.263,0.029,0.335,-5.337
0.227,0.030,0.334,-5.337
0.210,0.031,0.336,-5.337
0.243,0.028,0.336,-5.337
0.291,0.028,0.339,-5.337
0.319,0.028,0.335,-5.337
0.228,0.035,0.330,-5.337
0.114,0.035,0.329,-5.337
0.159,0.031,0.331,-5.337
0.163,0.029,0.336,-5.337
0.188,0.029,0.341,-5.337
0.234,0.029,0.338,-5.337
0.231,0.032,0.336,-5.337
0.239,0.028,0.337,-5.337
0.249,0.024,0.336,-5.337
0.205,0.024,0.334,-5.337
0.200,0.028,0.333,-5.337
0.174,0.028,0.332,-5.337
0.211,0.024,0.332,-5.337
0.326,0.023,0.335,-5.337
0.351,0.026,0.339,-5.337
0.256,0.029,0.338,-5.337
0.230,0.026,0.336,-5.337
0.261,0.022,0.335,-5.337
0.267,0.021,0.333,-5.337
0.241,0.023,0.334,-5.337
0.236,0.022,0.333,-5.337
0.280,0.023,0.337,-5.337
0.233,0.023,0.337,-5.337
0.129,0.027,0.334,-5.337
0.114,0.027,0.334,-5.337
0.175,0.028,0.339,-5.337
0.205,0.028,0.339,-5.337
0.186,0.032,0.337,-5.337
0.203,0.031,0.335,-5.337
0.241,0.027,0.330,-5.337
0.267,0.023,0.328,-5.337
0.277,0.023,0.333,-5.337
0.263,0.025,0.337,-5.337
0.194,0.029,0.338,-5.337
0.189,0.032,0.337,-5.337
0.231,0.030,0.336,-5.337
0.172,0.031,0.334,-5.337
0.127,0.029,0.335,-5.337
0.127,0.029,0.333,-5.337
0.191,0.028,0.330,-5.337
0.242,0.029,0.334,-5.337
0.206,0.030,0.340,-5.337
0.198,0.032,0.341,-5.337
0.208,0.032,0.338,-5.337
0.279,0.031,0.336,-5.337
0.264,0.031,0.335,-5.337
0.180,0.036,0.334,-5.337
0.154,0.037,0.335,-5.337
0.237,0.031,0.339,-5.337
0.313,0.028,0.341,-5.337
0.260,0.032,0.340,-5.337
0.275,0.033,0.338,-5.337
0.264,0.034,0.336,-5.337
0.166,0.039,0.335,-5.337
0.101,0.041,0.337,-5.337
0.166,0.037,0.338,-5.337
0.242,0.036,0.335,-5.337
0.283,0.037,0.334,-5.337
0.245,0.039,0.332,-5.337
0.170,0.036,0.333,-5.337
0.224,0.033,0.333,-5.337
0.234,0.031,0.333,-5.337
0.162,0.034,0.330,-5.337
0.143,0.036,0.335,-5.337
0.250,0.033,0.338,-5.337
0.230,0.038,0.337,-5.337
0.145,0.038,0.335,-5.337
0.152,0.037,0.336,-5.337
0.254,0.034,0.335,-5.337
0.256,0.037,0.335,-5.337
0.193,0.037,0.335,-5.337
0.201,0.038,0.336,-5.337
0.250,0.038,0.336,-5.337
0.209,0.038,0.335,-5.337
0.152,0.038,0.335,-5.337
0.129,0.039,0.335,-5.337
0.163,0.038,0.337,-5.337
0.226,0.041,0.338,-5.337
0.249,0.041,0.336,-5.337
0.206,0.039,0.335,-5.337
0.169,0.037,0.331,-5.337
0.234,0.037,0.333,-5.337
0.289,0.039,0.339,-5.337
0.293,0.041,0.336,-5.337
0.280,0.039,0.334,-5.337
0.185,0.039,0.335,-5.337
0.148,0.039,0.338,-5.337
0.167,0.037,0.337,-5.337
0.161,0.038,0.335,-5.337
0.241,0.033,0.333,-5.337
0.314,0.033,0.331,-5.337
0.227,0.037,0.333,-5.337
0.192,0.035,0.338,-5.337
0.233,0.034,0.341,-5.337
0.289,0.035,0.343,-5.337
0.252,0.037,0.339,-5.337
0.223,0.038,0.335,-5.337
0.255,0.035,0.335,-5.337
0.229,0.039,0.338,-5.337
0.219,0.039,0.335,-5.337
0.196,0.040,0.336,-5.337
0.168,0.039,0.333,-5.337
0.206,0.036,0.330,-5.337
0.208,0.035,0.329,-5.337
0.198,0.037,0.330,-5.337
0.164,0.036,0.332,-5.337
0.180,0.037,0.335,-5.337
0.165,0.039,0.338,-5.337
0.135,0.037,0.338,-5.337
0.186,0.038,0.337,-5.337
0.239,0.040,0.332,-5.337
0.219,0.041,0.331,-5.337
0.234,0.037,0.333,-5.337
0.220,0.036,0.337,-5.337
0.221,0.033,0.336,-5.337
0.194,0.035,0.334,-5.337
0.200,0.035,0.331,-5.337
0.196,0.037,0.331,-5.337
0.219,0.038,0.334,-5.337
0.212,0.040,0.339,-5.337
0.205,0.037,0.342,-5.337
0.179,0.038,0.340,-5.337
0.189,0.037,0.338,-5.337
0.195,0.038,0.334,-5.337
0.172,0.039,0.332,-5.337
0.179,0.035,0.333,-5.337
0.185,0.037,0.338,-5.337
0.215,0.039,0.341,-5.337
0.296,0.038,0.341,-5.337
0.353,0.035,0.338,-5.337
0.305,0.038,0.335,-5.337
0.197,0.039,0.334,-5.337
0.177,0.039,0.335,-5.337
0.206,0.041,0.333,-5.337
0.160,0.043,0.334,-5.337
0.128,0.043,0.337,-5.337
0.168,0.040,0.337,-5.337
0.262,0.041,0.331,-5.337
0.334,0.041,0.330,-5.337
0.309,0.042,0.329,-5.337
0.222,0.045,0.333,-5.337
0.199,0.044,0.338,-5.337
0.154,0.046,0.341,-5.337
0.145,0.044,0.341,-5.337
0.183,0.046,0.340,-5.337
0.229,0.049,0.337,-5.337
0.190,0.050,0.336,-5.337
0.185,0.045,0.334,-5.337
0.216,0.043,0.332,-5.337
0.265,0.044,0.332,-5.337
0.320,0.045,0.330,-5.337
0.298,0.044,0.332,-5.337
0.325,0.043,0.335,-5.337
0.323,0.044,0.338,-5.337
0.253,0.044,0.335,-5.337
0.218,0.042,0.337,-5.337
0.191,0.043,0.336,-5.337
0.114,0.049,0.339,-5.337
0.122,0.048,0.339,-5.337
0.156,0.046,0.338,-5.337
0.196,0.044,0.335,-5.337
0.259,0.042,0.332,-5.337
0.309,0.039,0.333,-5.337
0.314,0.043,0.332,-5.337
0.265,0.046,0.334,-5.337
0.214,0.051,0.340,-5.337
0.218,0.049,0.343,-5.337
0.268,0.044,0.341,-5.337
0.274,0.047,0.335,-5.337
0.222,0.047,0.332,-5.337
0.224,0.046,0.330,-5.337
0.259,0.044,0.329,-5.337
0.296,0.044,0.335,-5.337
0.296,0.048,0.335,-5.337
0.177,0.051,0.334,-5.337
0.106,0.049,0.335,-5.337
0.136,0.046,0.338,-5.337
0.166,0.048,0.337,-5.337
0.244,0.045,0.337,-5.337
0.223,0.044,0.338,-5.337
0.184,0.044,0.337,-5.337
0.181,0.043,0.335,-5.337
0.121,0.044,0.337,-5.337
0.128,0.043,0.338,-5.337
0.097,0.044,0.336,-5.337
0.135,0.041,0.337,-5.337
0.282,0.045,0.337,-5.337
0.285,0.046,0.335,-5.337
0.203,0.045,0.336,-5.337
0.223,0.044,0.340,-5.337
0.232,0.043,0.339,-5.337
0.183,0.045,0.337,-5.337
0.129,0.048,0.333,-5.337
0.145,0.052,0.335,-5.337
0.225,0.054,0.337,-5.337
0.248,0.053,0.339,-5.337
0.165,0.052,0.338,-5.337
0.203,0.050,0.335,-5.337
0.193,0.051,0.330,-5.337
0.199,0.049,0.333,-5.337
0.224,0.049,0.334,-5.337
0.211,0.051,0.334,-5.337
0.164,0.052,0.334,-5.337
0.166,0.053,0.335,-5.337
0.288,0.050,0.335,-5.337
0.302,0.049,0.337,-5.337
0.232,0.053,0.338,-5.337
0.191,0.055,0.338,-5.337
0.212,0.053,0.339,-5.337
0.214,0.050,0.336,-5.337
0.177,0.046,0.332,-5.337
0.194,0.047,0.331,-5.337
0.179,0.053,0.335,-5.337
0.193,0.054,0.339,-5.337
0.239,0.052,0.335,-5.337
0.210,0.051,0.331,-5.337
0.149,0.051,0.330,-5.337
0.166,0.052,0.336,-5.337
0.154,0.054,0.342,-5.337
0.152,0.050,0.339,-5.337
0.216,0.047,0.332,-5.337
0.221,0.048,0.330,-5.337
0.269,0.044,0.339,-5.337
0.353,0.043,0.340,-5.337
0.301,0.050,0.337,-5.337
0.244,0.051,0.335,-5.337
0.246,0.051,0.333,-5.337
0.188,0.052,0.334,-5.337
0.195,0.049,0.336,-5.337
0.207,0.052,0.336,-5.337
0.133,0.052,0.338,-5.337
0.144,0.053,0.338,-5.337
0.147,0.053,0.336,-5.337
0.178,0.050,0.332,-5.337
0.225,0.054,0.334,-5.337
0.179,0.057,0.335,-5.337
0.153,0.055,0.336,-5.337
0.150,0.048,0.334,-5.337
0.191,0.050,0.333,-5.337
0.155,0.053,0.332,-5.337
0.143,0.053,0.331,-5.337
0.202,0.052,0.334,-5.337
0.193,0.055,0.336,-5.337
0.213,0.057,0.340,-5.337
0.194,0.056,0.337,-5.337
0.158,0.056,0.333,-5.337
0.172,0.052,0.333,-5.337
0.266,0.051,0.337,-5.337
0.364,0.051,0.334,-5.337
0.332,0.053,0.332,-5.337
0.238,0.056,0.331,-5.337
0.220,0.055,0.333,-5.337
0.196,0.053,0.333,-5.337
0.182,0.056,0.329,-5.337
0.146,0.051,0.327,-5.337
0.167,0.050,0.331,-5.337
0.246,0.048,0.337,-5.337
0.235,0.048,0.338,-5.337
0.205,0.046,0.339,-5.337
0.233,0.050,0.340,-5.337
0.167,0.053,0.337,-5.337
0.189,0.051,0.333,-5.337
0.199,0.050,0.330,-5.337
0.156,0.053,0.330,-5.337
0.151,0.051,0.330,-5.337
0.237,0.049,0.332,-5.337
0.239,0.051,0.334,-5.337
0.180,0.051,0.335,-5.337
0.100,0.050,0.334,-5.337
0.108,0.047,0.333,-5.337
0.170,0.044,0.332,-5.337
0.212,0.046,0.332,-5.337
0.240,0.050,0.337,-5.337
0.247,0.049,0.338,-5.337
0.222,0.046,0.336,-5.337
0.163,0.046,0.331,-5.337
0.218,0.047,0.330,-5.337
0.315,0.047,0.333,-5.337
0.317,0.047,0.335,-5.337
0.255,0.049,0.334,-5.337
0.230,0.047,0.333,-5.337
0.218,0.050,0.335,-5.337
0.204,0.049,0.339,-5.337
0.255,0.046,0.340,-5.337
0.252,0.046,0.337,-5.337
0.230,0.047,0.336,-5.337
0.207,0.048,0.337,-5.337
0.228,0.047,0.335,-5.337
0.223,0.049,0.331,-5.337
0.192,0.049,0.330,-5.337
0.209,0.044,0.333,-5.337
0.258,0.043,0.337,-5.337
0.266,0.042,0.336,-5.337
0.207,0.041,0.334,-5.337
0.158,0.041,0.329,-5.337
0.154,0.040,0.329,-5.337
0.171,0.040,0.333,-5.337
0.194,0.039,0.335,-5.337
0.185,0.037,0.332,-5.337
0.237,0.037,0.332,-5.337
0.290,0.036,0.337,-5.337
0.247,0.034,0.341,-5.337
0.230,0.036,0.339,-5.337
0.261,0.039,0.337,-5.337
0.261,0.039,0.332,-5.337
0.214,0.038,0.330,-5.337
0.167,0.040,0.330,-5.337
0.216,0.042,0.334,-5.337
0.285,0.042,0.338,-5.337
0.300,0.040,0.339,-5.337
0.242,0.041,0.339,-5.337
0.136,0.047,0.337,-5.337
0.154,0.049,0.337,-5.337
0.199,0.049,0.335,-5.337
0.131,0.045,0.334,-5.337
0.136,0.042,0.332,-5.337
0.122,0.042,0.333,-5.337
0.123,0.042,0.333,-5.337
0.130,0.042,0.335,-5.337
0.134,0.042,0.336,-5.337
0.090,0.045,0.335,-5.337
0.069,0.043,0.333,-5.337
0.173,0.043,0.335,-5.337
0.237,0.042,0.338,-5.337
0.208,0.042,0.339,-5.337
0.177,0.043,0.338,-5.337
0.155,0.044,0.341,-5.337
0.184,0.043,0.339,-5.337
0.250,0.041,0.334,-5.337
0.212,0.041,0.335,-5.337
0.214,0.039,0.341,-5.337
0.192,0.039,0.344,-5.337
0.173,0.038,0.338,-5.337
0.228,0.035,0.332,-5.337
0.291,0.035,0.332,-5.337
0.227,0.034,0.331,-5.337
0.140,0.037,0.330,-5.337
0.158,0.037,0.330,-5.337
0.208,0.036,0.333,-5.337
0.172,0.041,0.335,-5.337
0.185,0.039,0.338,-5.337
0.159,0.043,0.340,-5.337
0.097,0.045,0.338,-5.337
0.123,0.042,0.336,-5.337
0.196,0.039,0.332,-5.337
0.230,0.039,0.332,-5.337
0.263,0.036,0.336,-5.337
0.253,0.035,0.336,-5.337
0.239,0.037,0.333,-5.337
0.275,0.036,0.335,-5.337
0.242,0.040,0.335,-5.337
0.177,0.043,0.334,-5.337
0.172,0.043,0.335,-5.337
0.235,0.038,0.334,-5.337
0.238,0.036,0.335,-5.337
0.239,0.034,0.335,-5.337
0.323,0.034,0.334,-5.337
0.280,0.037,0.333,-5.337
0.118,0.044,0.332,-5.337
0.125,0.039,0.332,-5.337
0.232,0.032,0.337,-5.337
0.229,0.033,0.342,-5.337
0.251,0.034,0.345,-5.337
0.299,0.032,0.341,-5.337
0.285,0.031,0.335,-5.337
0.267,0.033,0.329,-5.337
0.278,0.037,0.328,-5.337
0.201,0.038,0.333,-5.337
0.142,0.037,0.334,-5.337
0.195,0.033,0.334,-5.337
0.232,0.031,0.336,-5.337
0.261,0.035,0.339,-5.337
0.252,0.034,0.342,-5.337
0.237,0.033,0.337,-5.337
0.226,0.032,0.335,-5.337
0.177,0.033,0.334,-5.337
0.136,0.032,0.336,-5.337
0.230,0.031,0.336,-5.337
0.270,0.031,0.333,-5.337
0.249,0.034,0.329,-5.337
0.243,0.038,0.328,-5.337
0.251,0.037,0.335,-5.337
0.330,0.035,0.340,-5.337
0.294,0.036,0.339,-5.337
0.215,0.033,0.333,-5.337
0.264,0.031,0.334,-5.337
0.269,0.030,0.337,-5.337
0.233,0.037,0.339,-5.337
0.182,0.037,0.338,-5.337
0.218,0.036,0.337,-5.337
0.226,0.030,0.334,-5.337
0.257,0.028,0.333,-5.337
0.291,0.030,0.332,-5.337
0.272,0.031,0.333,-5.337
0.257,0.034,0.337,-5.337
0.257,0.034,0.341,-5.337
0.206,0.032,0.341,-5.337
0.170,0.033,0.336,-5.337
0.193,0.032,0.332,-5.337
0.164,0.036,0.333,-5.337
0.188,0.031,0.334,-5.337
0.191,0.032,0.329,-5.337
0.113,0.035,0.329,-5.337
0.132,0.038,0.333,-5.337
0.207,0.035,0.338,-5.337
0.250,0.032,0.341,-5.337
0.225,0.030,0.339,-5.337
0.188,0.034,0.336,-5.337
0.145,0.036,0.335,-5.337
0.213,0.032,0.333,-5.337
0.202,0.030,0.333,-5.337
0.183,0.030,0.338,-5.337
0.170,0.031,0.341,-5.337
0.205,0.031,0.335,-5.337
0.201,0.029,0.331,-5.337
0.176,0.030,0.335,-5.337
0.126,0.033,0.341,-5.337
0.130,0.032,0.341,-5.337
0.203,0.032,0.339,-5.337
0.221,0.033,0.338,-5.337
0.283,0.031,0.337,-5.337
0.331,0.032,0.338,-5.337
0.298,0.036,0.337,-5.337
0.325,0.031,0.337,-5.337
0.315,0.027,0.335,-5.337
0.292,0.024,0.335,-5.337
0.303,0.027,0.337,-5.337
0.255,0.029,0.340,-5.337
0.189,0.029,0.338,-5.337
0.175,0.032,0.339,-5.337
0.148,0.031,0.335,-5.337
0.172,0.031,0.334,-5.337
0.208,0.031,0.335,-5.337
0.163,0.030,0.338,-5.337
0.237,0.027,0.339,-5.337
0.267,0.031,0.337,-5.337
0.228,0.032,0.335,-5.337
0.261,0.026,0.334,-5.337
0.314,0.024,0.331,-5.337
0.333,0.024,0.333,-5.337
0.328,0.025,0.336,-5.337
0.284,0.028,0.339,-5.337
0.263,0.029,0.338,-5.337
0.318,0.029,0.335,-5.337
0.350,0.031,0.334,-5.337
0.281,0.029,0.335,-5.337
0.260,0.029,0.339,-5.337
0.244,0.027,0.336,-5.337
0.203,0.030,0.338,-5.337
0.127,0.034,0.338,-5.337
0.102,0.036,0.338,-5.337
0.169,0.029,0.337,-5.337
0.211,0.027,0.337,-5.337
0.178,0.029,0.335,-5.337
0.191,0.028,0.334,-5.337
0.192,0.027,0.339,-5.337
0.214,0.028,0.340,-5.337
0.205,0.029,0.339,-5.337
0.210,0.031,0.336,-5.337
0.205,0.031,0.334,-5.337
0.181,0.031,0.335,-5.337
0.223,0.028,0.336,-5.337
0.282,0.030,0.336,-5.337
0.198,0.033,0.336,-5.337
0.134,0.032,0.337,-5.337
0.155,0.030,0.333,-5.337
0.278,0.030,0.330,-5.337
0.297,0.031,0.332,-5.337
0.188,0.030,0.337,-5.337
0.196,0.027,0.343,-5.337
0.265,0.028,0.344,-5.337
0.194,0.029,0.338,-5.337
0.155,0.031,0.336,-5.337
0.179,0.029,0.337,-5.337
0.207,0.026,0.333,-5.337
0.234,0.029,0.332,-5.337
0.231,0.029,0.336,-5.337
0.234,0.028,0.340,-5.337
0.248,0.029,0.340,-5.337
0.220,0.032,0.339,-5.337
0.238,0.030,0.338,-5.337
0.263,0.029,0.339,-5.337
0.299,0.030,0.336,-5.337
0.311,0.029,0.333,-5.337
0.160,0.034,0.334,-5.337
0.123,0.035,0.338,-5.337
0.273,0.033,0.339,-5.337
0.330,0.034,0.333,-5.337
0.317,0.035,0.329,-5.337
0.256,0.034,0.329,-5.337
0.244,0.031,0.334,-5.337
0.234,0.033,0.336,-5.337
0.259,0.032,0.334,-5.337
0.228,0.035,0.333,-5.337
0.185,0.036,0.336,-5.337
0.176,0.039,0.337,-5.337
0.119,0.042,0.336,-5.337
0.105,0.041,0.336,-5.337
0.134,0.039,0.336,-5.337
0.168,0.037,0.337,-5.337
0.193,0.036,0.338,-5.337
0.189,0.037,0.334,-5.337
0.197,0.035,0.333,-5.337
0.230,0.033,0.339,-5.337
0.239,0.030,0.338,-5.337
0.231,0.032,0.331,-5.337
0.230,0.034,0.329,-5.337
0.167,0.033,0.332,-5.337
0.075,0.034,0.336,-5.337
0.171,0.033,0.338,-5.337
0.228,0.034,0.340,-5.337
0.216,0.031,0.339,-5.337
0.185,0.029,0.338,-5.337
0.254,0.027,0.332,-5.337
0.312,0.028,0.331,-5.337
0.331,0.027,0.335,-5.337
0.323,0.028,0.331,-5.337
0.231,0.029,0.331,-5.337
0.205,0.028,0.333,-5.337
0.196,0.033,0.336,-5.337
0.196,0.034,0.336,-5.337
0.225,0.029,0.336,-5.337
0.235,0.027,0.337,-5.337
0.223,0.027,0.337,-5.337
0.220,0.029,0.331,-5.337
0.268,0.029,0.328,-5.337
0.227,0.029,0.329,-5.337
0.229,0.031,0.333,-5.337
0.242,0.030,0.335,-5.337
0.223,0.032,0.334,-5.337
0.185,0.031,0.333,-5.337
0.186,0.036,0.336,-5.337
0.178,0.036,0.334,-5.337
0.193,0.035,0.329,-5.337
0.232,0.034,0.329,-5.337
0.209,0.032,0.334,-5.337
0.181,0.035,0.336,-5.337
0.196,0.035,0.333,-5.337
0.273,0.037,0.332,-5.337
0.242,0.039,0.333,-5.337
0.203,0.038,0.333,-5.337
0.195,0.036,0.332,-5.337
0.228,0.034,0.332,-5.337
0.216,0.033,0.332,-5.337
0.253,0.032,0.332,-5.337
0.257,0.039,0.333,-5.337
0.206,0.045,0.333,-5.337
0.236,0.039,0.332,-5.337
0.226,0.037,0.330,-5.337
0.184,0.038,0.330,-5.337
0.230,0.037,0.334,-5.337
0.141,0.042,0.335,-5.337
0.125,0.037,0.334,-5.337
0.202,0.037,0.332,-5.337
0.207,0.039,0.332,-5.337
0.192,0.040,0.333,-5.337
0.136,0.040,0.333,-5.337
0.164,0.039,0.335,-5.337
0.275,0.035,0.334,-5.337
0.211,0.033,0.333,-5.337
0.165,0.035,0.336,-5.337
0.173,0.035,0.338,-5.337
0.211,0.031,0.335,-5.337
0.178,0.031,0.330,-5.337
0.141,0.038,0.327,-5.337
0.162,0.037,0.328,-5.337
0.198,0.032,0.330,-5.337
0.121,0.033,0.333,-5.337
0.073,0.035,0.335,-5.337
0.102,0.038,0.334,-5.337
0.157,0.039,0.330,-5.337
0.183,0.040,0.333,-5.337
0.189,0.041,0.337,-5.337
0.235,0.040,0.338,-5.337
0.239,0.040,0.334,-5.337
0.230,0.043,0.332,-5.337
0.276,0.036,0.333,-5.337
0.323,0.036,0.335,-5.337
0.213,0.039,0.338,-5.337
0.209,0.038,0.340,-5.337
0.191,0.039,0.339,-5.337
0.202,0.035,0.335,-5.337
0.208,0.034,0.331,-5.337
0.232,0.033,0.326,-5.337
0.330,0.033,0.329,-5.337
0.275,0.036,0.330,-5.337
0.149,0.040,0.334,-5.337
0.189,0.036,0.337,-5.337
0.196,0.039,0.335,-5.337
0.145,0.040,0.330,-5.337
0.116,0.042,0.327,-5.337
0.158,0.041,0.328,-5.337
0.259,0.036,0.334,-5.337
0.245,0.036,0.341,-5.337
0.143,0.041,0.338,-5.337
0.161,0.040,0.334,-5.337
0.155,0.040,0.333,-5.337
0.190,0.033,0.332,-5.337
0.290,0.034,0.331,-5.337
0.292,0.036,0.333,-5.337
0.221,0.041,0.336,-5.337
0.187,0.040,0.336,-5.337
0.200,0.039,0.335,-5.337
0.210,0.040,0.336,-5.337
0.257,0.041,0.337,-5.337
0.351,0.040,0.337,-5.337
0.327,0.039,0.333,-5.337
0.251,0.038,0.331,-5.337
0.197,0.037,0.329,-5.337
0.218,0.038,0.328,-5.337
0.294,0.040,0.332,-5.337
0.266,0.042,0.337,-5.337
0.213,0.041,0.334,-5.337
0.162,0.042,0.332,-5.337
0.173,0.042,0.335,-5.337
0.181,0.042,0.336,-5.337
0.182,0.044,0.334,-5.337
0.180,0.047,0.332,-5.337
0.195,0.045,0.333,-5.337
0.231,0.043,0.333,-5.337
0.295,0.041,0.330,-5.337
0.224,0.044,0.331,-5.337
0.220,0.045,0.331,-5.337
0.256,0.043,0.330,-5.337
0.157,0.044,0.331,-5.337
0.090,0.044,0.333,-5.337
0.141,0.042,0.334,-5.337
0.161,0.042,0.331,-5.337
0.152,0.038,0.333,-5.337
0.197,0.035,0.336,-5.337
0.213,0.039,0.337,-5.337
0.219,0.042,0.332,-5.337
0.187,0.048,0.330,-5.337
0.198,0.043,0.331,-5.337
0.197,0.043,0.333,-5.337
0.170,0.047,0.330,-5.337
0.145,0.047,0.332,-5.337
0.180,0.046,0.333,-5.337
0.264,0.046,0.335,-5.337
0.260,0.043,0.337,-5.337
0.222,0.044,0.335,-5.337
0.237,0.045,0.332,-5.337
0.268,0.046,0.330,-5.337
0.275,0.045,0.330,-5.337
0.201,0.044,0.328,-5.337
0.185,0.042,0.328,-5.337
0.256,0.041,0.328,-5.337
0.268,0.044,0.329,-5.337
0.215,0.042,0.331,-5.337
0.241,0.042,0.335,-5.337
0.226,0.048,0.337,-5.337
0.165,0.050,0.335,-5.337
0.107,0.051,0.330,-5.337
0.161,0.051,0.327,-5.337
0.193,0.050,0.327,-5.337
0.161,0.050,0.331,-5.337
0.172,0.048,0.334,-5.337
0.255,0.045,0.337,-5.337
0.258,0.046,0.336,-5.337
0.194,0.050,0.333,-5.337
0.146,0.047,0.330,-5.337
0.185,0.043,0.331,-5.337
0.175,0.045,0.331,-5.337
0.177,0.048,0.333,-5.337
0.173,0.048,0.334,-5.337
0.223,0.049,0.336,-5.337
0.213,0.049,0.335,-5.337
0.259,0.048,0.330,-5.337
0.256,0.048,0.330,-5.337
0.221,0.051,0.331,-5.337
0.214,0.049,0.335,-5.337
0.244,0.049,0.336,-5.337
0.220,0.049,0.334,-5.337
0.203,0.047,0.330,-5.337
0.245,0.042,0.329,-5.337
0.236,0.045,0.325,-5.337
0.213,0.051,0.327,-5.337
0.198,0.054,0.332,-5.337
0.143,0.051,0.336,-5.337
0.126,0.050,0.334,-5.337
0.129,0.051,0.335,-5.337
0.179,0.048,0.338,-5.337
0.242,0.046,0.335,-5.337
0.252,0.046,0.329,-5.337
0.200,0.049,0.328,-5.337
0.145,0.052,0.332,-5.337
0.160,0.053,0.336,-5.337
0.158,0.046,0.337,-5.337
0.119,0.051,0.336,-5.337
0.141,0.053,0.334,-5.337
0.127,0.050,0.333,-5.337
0.087,0.046,0.333,-5.337
0.110,0.047,0.332,-5.337
0.215,0.047,0.332,-5.337
0.267,0.046,0.334,-5.337
0.275,0.044,0.333,-5.337
0.228,0.048,0.334,-5.337
0.174,0.047,0.334,-5.337
0.135,0.048,0.331,-5.337
0.158,0.047,0.333,-5.337
0.230,0.045,0.336,-5.337
0.190,0.047,0.337,-5.337
0.137,0.046,0.334,-5.337
0.171,0.047,0.333,-5.337
0.144,0.047,0.333,-5.337
0.119,0.047,0.333,-5.337
0.083,0.046,0.334,-5.337
0.108,0.048,0.335,-5.337
0.236,0.049,0.333,-5.337
0.268,0.048,0.332,-5.337
0.148,0.050,0.334,-5.337
0.130,0.051,0.331,-5.337
0.110,0.053,0.328,-5.337
0.180,0.049,0.329,-5.337
0.229,0.050,0.332,-5.337
0.243,0.049,0.335,-5.337
0.266,0.049,0.337,-5.337
0.246,0.050,0.336,-5.337
0.170,0.053,0.336,-5.337
0.217,0.051,0.333,-5.337
0.347,0.050,0.331,-5.337
0.311,0.054,0.332,-5.337
0.225,0.055,0.340,-5.337
0.199,0.054,0.336,-5.337
0.185,0.058,0.330,-5.337
0.148,0.057,0.328,-5.337
0.166,0.058,0.335,-5.337
0.238,0.052,0.339,-5.337
0.269,0.050,0.340,-5.337
0.164,0.053,0.340,-5.337
0.093,0.055,0.337,-5.337
0.108,0.051,0.330,-5.337
0.189,0.052,0.327,-5.337
0.214,0.051,0.331,-5.337
0.205,0.054,0.334,-5.337
0.180,0.052,0.336,-5.337
0.188,0.049,0.334,-5.337
0.186,0.052,0.330,-5.337
0.218,0.050,0.328,-5.337
0.266,0.047,0.328,-5.337
0.259,0.050,0.326,-5.337
0.151,0.053,0.331,-5.337
0.119,0.053,0.334,-5.337
0.107,0.055,0.335,-5.337
0.117,0.053,0.333,-5.337
0.192,0.050,0.332,-5.337
0.237,0.047,0.333,-5.337
0.240,0.050,0.332,-5.337
0.166,0.050,0.329,-5.337
0.164,0.045,0.332,-5.337
0.221,0.043,0.331,-5.337
0.265,0.046,0.328,-5.337
0.229,0.046,0.328,-5.337
0.176,0.047,0.331,-5.337
0.210,0.046,0.334,-5.337
0.278,0.046,0.337,-5.337
0.288,0.049,0.336,-5.337
0.256,0.049,0.333,-5.337
0.226,0.048,0.330,-5.337
0.191,0.049,0.330,-5.337
0.218,0.049,0.332,-5.337
0.276,0.047,0.336,-5.337
0.258,0.046,0.338,-5.337
0.233,0.047,0.333,-5.337
0.219,0.050,0.331,-5.337
0.234,0.050,0.332,-5.337
0.230,0.045,0.333,-5.337
0.303,0.044,0.331,-5.337
0.238,0.045,0.329,-5.337
0.141,0.044,0.332,-5.337
0.099,0.045,0.335,-5.337
0.188,0.041,0.332,-5.337
0.212,0.044,0.330,-5.337
0.164,0.042,0.331,-5.337
0.145,0.044,0.335,-5.337
0.202,0.046,0.336,-5.337
0.203,0.049,0.336,-5.337
0.166,0.047,0.336,-5.337
0.206,0.046,0.336,-5.337
0.194,0.050,0.331,-5.337
0.119,0.052,0.329,-5.337
0.159,0.052,0.329,-5.337
0.269,0.046,0.328,-5.337
0.292,0.047,0.332,-5.337
0.196,0.049,0.332,-5.337
0.128,0.050,0.333,-5.337
0.136,0.049,0.334,-5.337
0.149,0.047,0.332,-5.337
0.189,0.045,0.329,-5.337
0.205,0.044,0.329,-5.337
0.149,0.046,0.332,-5.337
0.186,0.047,0.336,-5.337
0.221,0.045,0.335,-5.337
0.199,0.046,0.333,-5.337
0.180,0.044,0.330,-5.337
0.243,0.041,0.330,-5.337
0.279,0.039,0.331,-5.337
0.263,0.038,0.333,-5.337
0.231,0.040,0.332,-5.337
0.255,0.040,0.332,-5.337
0.299,0.039,0.330,-5.337
0.246,0.040,0.331,-5.337
0.196,0.043,0.330,-5.337
0.263,0.039,0.332,-5.337
0.244,0.037,0.331,-5.337
0.141,0.040,0.331,-5.337
0.117,0.043,0.331,-5.337
0.204,0.042,0.335,-5.337
0.232,0.041,0.337,-5.337
0.140,0.044,0.334,-5.337
0.119,0.039,0.330,-5.337
0.194,0.036,0.330,-5.337
0.208,0.040,0.335,-5.337
0.274,0.037,0.336,-5.337
0.367,0.035,0.337,-5.337
0.375,0.034,0.332,-5.337
0.366,0.032,0.329,-5.337
0.346,0.035,0.326,-5.337
0.332,0.040,0.325,-5.337
0.279,0.038,0.324,-5.337
0.165,0.039,0.327,-5.337
0.130,0.037,0.331,-5.337
0.161,0.034,0.328,-5.337
0.077,0.034,0.325,-5.337
0.109,0.038,0.328,-5.337
0.166,0.036,0.332,-5.337
0.212,0.034,0.337,-5.337
0.228,0.034,0.334,-5.337
0.221,0.037,0.329,-5.337
0.230,0.036,0.327,-5.337
0.236,0.034,0.330,-5.337
0.199,0.033,0.334,-5.337
0.216,0.032,0.333,-5.337
0.230,0.035,0.333,-5.337
0.218,0.034,0.331,-5.337
0.208,0.032,0.334,-5.337
0.209,0.031,0.334,-5.337
0.196,0.032,0.332,-5.337
0.251,0.034,0.332,-5.337
0.249,0.034,0.334,-5.337
0.175,0.032,0.332,-5.337
0.197,0.034,0.331,-5.337
0.252,0.034,0.331,-5.337
0.183,0.039,0.334,-5.337
0.164,0.037,0.335,-5.337
0.231,0.036,0.331,-5.337
0.179,0.037,0.329,-5.337
0.172,0.038,0.332,-5.337
0.264,0.040,0.334,-5.337
0.310,0.039,0.332,-5.337
0.197,0.040,0.333,-5.337
0.158,0.040,0.334,-5.337
0.201,0.037,0.335,-5.337
0.253,0.037,0.333,-5.337
0.222,0.035,0.331,-5.337
0.187,0.033,0.332,-5.337
0.243,0.034,0.331,-5.337
0.267,0.034,0.331,-5.337
0.185,0.040,0.332,-5.337
0.154,0.037,0.332,-5.337
0.211,0.033,0.335,-5.337
0.272,0.030,0.335,-5.337
0.287,0.030,0.332,-5.337
0.383,0.030,0.331,-5.337
0.374,0.033,0.330,-5.337
0.263,0.033,0.328,-5.337
0.236,0.033,0.332,-5.337
0.251,0.033,0.333,-5.337
0.189,0.037,0.335,-5.337
0.170,0.035,0.333,-5.337
0.187,0.033,0.330,-5.337
0.210,0.035,0.330,-5.337
0.158,0.035,0.334,-5.337
0.111,0.034,0.338,-5.337
0.170,0.033,0.335,-5.337
0.205,0.031,0.331,-5.337
0.158,0.034,0.328,-5.337
0.144,0.034,0.326,-5.337
0.176,0.032,0.331,-5.337
0.260,0.029,0.338,-5.337
0.280,0.030,0.334,-5.337
0.232,0.032,0.332,-5.337
0.213,0.031,0.331,-5.337
0.230,0.031,0.332,-5.337
0.199,0.031,0.331,-5.337
0.172,0.031,0.331,-5.337
0.166,0.031,0.332,-5.337
0.182,0.034,0.335,-5.337
0.196,0.031,0.336,-5.337
0.235,0.031,0.334,-5.337
0.202,0.033,0.332,-5.337
0.171,0.034,0.331,-5.337
0.213,0.034,0.331,-5.337
0.190,0.032,0.331,-5.337
0.244,0.029,0.332,-5.337
0.303,0.032,0.336,-5.337
0.243,0.032,0.333,-5.337
0.176,0.035,0.331,-5.337
0.226,0.031,0.332,-5.337
0.296,0.033,0.332,-5.337
0.246,0.033,0.333,-5.337
0.205,0.035,0.331,-5.337
0.174,0.036,0.330,-5.337
0.097,0.039,0.328,-5.337
0.100,0.035,0.330,-5.337
0.192,0.032,0.326,-5.337
0.160,0.034,0.328,-5.337
0.175,0.034,0.332,-5.337
0.224,0.032,0.335,-5.337
0.182,0.030,0.331,-5.337
0.167,0.032,0.331,-5.337
0.199,0.029,0.333,-5.337
0.253,0.028,0.334,-5.337
0.317,0.029,0.334,-5.337
0.275,0.031,0.331,-5.337
0.217,0.029,0.327,-5.337
0.202,0.027,0.329,-5.337
0.176,0.031,0.334,-5.337
0.196,0.029,0.333,-5.337
0.331,0.024,0.332,-5.337
0.314,0.029,0.329,-5.337
0.228,0.031,0.328,-5.337
0.207,0.032,0.330,-5.337
0.229,0.031,0.333,-5.337
0.168,0.032,0.332,-5.337
0.163,0.031,0.333,-5.337
0.240,0.028,0.335,-5.337
0.203,0.031,0.341,-5.337
0.159,0.032,0.339,-5.337
0.146,0.033,0.333,-5.337
0.208,0.031,0.325,-5.337
0.295,0.027,0.326,-5.337
0.364,0.028,0.333,-5.337
0.372,0.031,0.335,-5.337
0.235,0.031,0.334,-5.337
0.186,0.031,0.330,-5.337
0.211,0.032,0.329,-5.337
0.177,0.036,0.331,-5.337
0.201,0.033,0.331,-5.337
0.231,0.034,0.334,-5.337
0.218,0.037,0.339,-5.337
0.205,0.040,0.340,-5.337
0.149,0.038,0.338,-5.337
0.189,0.036,0.334,-5.337
0.227,0.035,0.329,-5.337
0.191,0.036,0.329,-5.337
0.162,0.035,0.331,-5.337
0.181,0.032,0.326,-5.337
0.198,0.034,0.326,-5.337
0.223,0.032,0.329,-5.337
0.218,0.030,0.335,-5.337
0.202,0.031,0.335,-5.337
0.265,0.033,0.336,-5.337
0.297,0.031,0.334,-5.337
0.293,0.027,0.335,-5.337
0.255,0.025,0.338,-5.337
0.221,0.031,0.337,-5.337
0.151,0.033,0.337,-5.337
0.199,0.035,0.336,-5.337
0.276,0.035,0.334,-5.337
0.240,0.039,0.331,-5.337
0.244,0.038,0.327,-5.337
0.221,0.035,0.326,-5.337
0.271,0.033,0.330,-5.337
0.311,0.034,0.334,-5.337
0.278,0.037,0.334,-5.337
0.232,0.038,0.330,-5.337
0.155,0.037,0.328,-5.337
0.149,0.032,0.332,-5.337
0.203,0.029,0.337,-5.337
0.273,0.027,0.338,-5.337
0.263,0.034,0.338,-5.337
0.228,0.034,0.334,-5.337
0.170,0.035,0.330,-5.337
0.140,0.037,0.328,-5.337
0.177,0.036,0.328,-5.337
0.160,0.036,0.328,-5.337
0.122,0.034,0.330,-5.337
0.141,0.030,0.334,-5.337
0.175,0.032,0.338,-5.337
0.248,0.032,0.340,-5.337
0.296,0.030,0.338,-5.337
0.264,0.032,0.331,-5.337
0.232,0.035,0.327,-5.337
0.182,0.033,0.329,-5.337
0.251,0.027,0.331,-5.337
0.373,0.023,0.333,-5.337
0.379,0.027,0.334,-5.337
0.216,0.033,0.340,-5.337
0.118,0.034,0.342,-5.337
0.190,0.025,0.339,-5.337
0.294,0.025,0.333,-5.337
0.286,0.030,0.331,-5.337
0.230,0.030,0.333,-5.337
0.242,0.027,0.333,-5.337
0.266,0.029,0.330,-5.337
0.236,0.033,0.331,-5.337
0.203,0.033,0.335,-5.337
0.208,0.031,0.336,-5.337
0.198,0.030,0.335,-5.337
0.234,0.030,0.334,-5.337
0.276,0.029,0.334,-5.337
0.202,0.029,0.333,-5.337
0.134,0.030,0.331,-5.337
0.182,0.028,0.329,-5.337
0.264,0.027,0.329,-5.337
0.273,0.028,0.332,-5.337
0.198,0.032,0.334,-5.337
0.129,0.034,0.334,-5.337
0.150,0.031,0.333,-5.337
0.210,0.032,0.331,-5.337
0.186,0.036,0.330,-5.337
0.126,0.037,0.332,-5.337
0.123,0.037,0.331,-5.337
0.128,0.034,0.329,-5.337
0.199,0.031,0.333,-5.337
0.234,0.032,0.333,-5.337
0.217,0.031,0.336,-5.337
0.189,0.029,0.338,-5.337
0.224,0.029,0.338,-5.337
0.181,0.027,0.331,-5.337
0.129,0.027,0.329,-5.337
0.144,0.029,0.331,-5.337
0.166,0.030,0.331,-5.337
0.206,0.027,0.330,-5.337
0.192,0.032,0.331,-5.337
0.160,0.030,0.331,-5.337
0.178,0.029,0.330,-5.337
0.255,0.032,0.326,-5.337
0.244,0.035,0.328,-5.337
0.232,0.035,0.329,-5.337
0.231,0.033,0.330,-5.337
0.246,0.034,0.330,-5.337
0.230,0.034,0.330,-5.337
0.188,0.032,0.334,-5.337
0.129,0.029,0.335,-5.337
0.108,0.031,0.336,-5.337
0.140,0.033,0.334,-5.337
0.231,0.035,0.333,-5.337
0.272,0.035,0.337,-5.337
0.265,0.031,0.340,-5.337
0.227,0.036,0.334,-5.337
0.200,0.034,0.327,-5.337
0.276,0.029,0.325,-5.337
0.276,0.029,0.326,-5.337
0.252,0.028,0.331,-5.337
0.235,0.032,0.331,-5.337
0.233,0.030,0.328,-5.337
0.217,0.031,0.330,-5.337
0.188,0.034,0.329,-5.337
0.225,0.033,0.331,-5.337
0.208,0.033,0.334,-5.337
0.133,0.037,0.335,-5.337
0.149,0.036,0.330,-5.337
0.280,0.028,0.331,-5.337
0.317,0.028,0.334,-5.337
0.223,0.030,0.332,-5.337
0.192,0.036,0.328,-5.337
0.181,0.037,0.327,-5.337
0.252,0.036,0.331,-5.337
0.224,0.038,0.332,-5.337
0.173,0.037,0.328,-5.337
0.171,0.040,0.326,-5.337
0.144,0.040,0.332,-5.337
0.142,0.036,0.339,-5.337
0.181,0.036,0.335,-5.337
0.188,0.036,0.330,-5.337
0.195,0.038,0.330,-5.337
0.151,0.040,0.329,-5.337
0.117,0.041,0.332,-5.337
0.200,0.037,0.334,-5.337
0.313,0.037,0.335,-5.337
0.276,0.035,0.331,-5.337
0.195,0.038,0.329,-5.337
0.131,0.039,0.328,-5.337
0.135,0.039,0.329,-5.337
0.179,0.039,0.330,-5.337
0.211,0.039,0.329,-5.337
0.200,0.040,0.331,-5.337
0.117,0.039,0.331,-5.337
0.159,0.042,0.330,-5.337
0.180,0.043,0.332,-5.337
0.125,0.044,0.333,-5.337
0.094,0.043,0.333,-5.337
0.179,0.036,0.330,-5.337
0.255,0.034,0.326,-5.337
0.290,0.036,0.329,-5.337
0.304,0.038,0.330,-5.337
0.273,0.041,0.332,-5.337
0.308,0.040,0.331,-5.337
0.358,0.037,0.331,-5.337
0.300,0.034,0.328,-5.337
0.291,0.034,0.327,-5.337
0.238,0.036,0.326,-5.337
0.202,0.041,0.331,-5.337
0.248,0.036,0.334,-5.337
0.203,0.036,0.336,-5.337
0.147,0.037,0.335,-5.337
0.113,0.040,0.332,-5.337
0.202,0.039,0.328,-5.337
0.267,0.037,0.326,-5.337
0.247,0.042,0.329,-5.337
0.225,0.044,0.332,-5.337
0.198,0.045,0.330,-5.337
0.248,0.042,0.326,-5.337
0.203,0.043,0.328,-5.337
0.164,0.045,0.330,-5.337
0.150,0.045,0.330,-5.337
0.182,0.045,0.332,-5.337
0.203,0.044,0.335,-5.337
0.186,0.042,0.331,-5.337
0.205,0.042,0.334,-5.337
0.142,0.043,0.330,-5.337
0.147,0.047,0.327,-5.337
0.240,0.048,0.325,-5.337
0.226,0.050,0.329,-5.337
0.182,0.049,0.333,-5.337
0.181,0.046,0.335,-5.337
0.195,0.046,0.332,-5.337
0.149,0.044,0.331,-5.337
0.161,0.044,0.330,-5.337
0.177,0.045,0.333,-5.337
0.226,0.043,0.332,-5.337
0.284,0.043,0.330,-5.337
0.269,0.046,0.331,-5.337
0.219,0.046,0.331,-5.337
0.219,0.044,0.331,-5.337
0.219,0.047,0.331,-5.337
0.240,0.047,0.334,-5.337
0.227,0.047,0.329,-5.337
0.230,0.046,0.325,-5.337
0.222,0.046,0.327,-5.337
0.208,0.049,0.332,-5.337
0.223,0.046,0.334,-5.337
0.245,0.043,0.331,-5.337
0.319,0.043,0.332,-5.337
0.292,0.047,0.332,-5.337
0.225,0.049,0.334,-5.337
0.224,0.048,0.334,-5.337
0.218,0.047,0.331,-5.337
0.119,0.050,0.329,-5.337
0.116,0.047,0.328,-5.337
0.187,0.045,0.331,-5.337
0.238,0.046,0.334,-5.337
0.238,0.045,0.332,-5.337
0.181,0.044,0.330,-5.337
0.208,0.047,0.331,-5.337
0.228,0.050,0.330,-5.337
0.252,0.050,0.326,-5.337
0.204,0.050,0.327,-5.337
0.199,0.049,0.329,-5.337
0.224,0.047,0.333,-5.337
0.207,0.049,0.336,-5.337
0.226,0.048,0.336,-5.337
0.192,0.050,0.334,-5.337
0.172,0.052,0.334,-5.337
0.218,0.052,0.329,-5.337
0.209,0.052,0.326,-5.337
0.206,0.047,0.324,-5.337
0.192,0.046,0.325,-5.337
0.195,0.046,0.327,-5.337
0.219,0.045,0.331,-5.337
0.180,0.047,0.335,-5.337
0.166,0.047,0.335,-5.337
0.163,0.047,0.331,-5.337
0.150,0.048,0.329,-5.337
0.216,0.051,0.328,-5.337
0.262,0.052,0.326,-5.337
0.190,0.052,0.330,-5.337
0.153,0.052,0.329,-5.337
0.152,0.051,0.327,-5.337
0.194,0.047,0.328,-5.337
0.204,0.049,0.331,-5.337
0.182,0.048,0.333,-5.337
0.135,0.049,0.333,-5.337
0.089,0.051,0.335,-5.337
0.168,0.049,0.334,-5.337
0.227,0.051,0.332,-5.337
0.146,0.054,0.332,-5.337
0.187,0.049,0.336,-5.337
0.224,0.047,0.336,-5.337
0.204,0.052,0.333,-5.337
0.191,0.053,0.330,-5.337
0.175,0.053,0.327,-5.337
0.196,0.052,0.328,-5.337
0.162,0.050,0.328,-5.337
0.119,0.053,0.330,-5.337
0.189,0.051,0.330,-5.337
0.225,0.047,0.328,-5.337
0.208,0.049,0.326,-5.337
0.139,0.049,0.327,-5.337
0.158,0.047,0.334,-5.337
0.191,0.049,0.334,-5.337
0.223,0.049,0.333,-5.337
0.195,0.049,0.333,-5.337
0.157,0.046,0.331,-5.337
0.156,0.046,0.332,-5.337
0.176,0.044,0.335,-5.337
0.215,0.047,0.333,-5.337
0.229,0.049,0.332,-5.337
0.220,0.047,0.331,-5.337
0.208,0.048,0.330,-5.337
0.169,0.051,0.327,-5.337
0.117,0.054,0.325,-5.337
0.137,0.050,0.325,-5.337
0.217,0.048,0.331,-5.337
0.216,0.049,0.333,-5.337
0.199,0.052,0.329,-5.337
0.234,0.053,0.331,-5.337
0.250,0.049,0.331,-5.337
0.233,0.047,0.328,-5.337
0.151,0.051,0.328,-5.337
0.093,0.052,0.325,-5.337
0.184,0.053,0.328,-5.337
0.233,0.052,0.332,-5.337
0.257,0.047,0.331,-5.337
0.269,0.047,0.329,-5.337
0.191,0.048,0.330,-5.337
0.210,0.046,0.335,-5.337
0.272,0.046,0.336,-5.337
0.240,0.048,0.335,-5.337
0.152,0.048,0.331,-5.337
0.152,0.051,0.334,-5.337
0.227,0.052,0.332,-5.337
0.242,0.051,0.330,-5.337
0.189,0.052,0.330,-5.337
0.157,0.051,0.329,-5.337
0.161,0.053,0.326,-5.337
0.208,0.052,0.326,-5.337
0.238,0.050,0.326,-5.337
0.221,0.050,0.328,-5.337
0.233,0.049,0.333,-5.337
0.214,0.053,0.336,-5.337
0.116,0.053,0.335,-5.337
0.099,0.053,0.333,-5.337
0.128,0.053,0.331,-5.337
0.151,0.050,0.331,-5.337
0.216,0.049,0.329,-5.337
0.186,0.053,0.330,-5.337
0.190,0.052,0.332,-5.337
0.259,0.046,0.334,-5.337
0.248,0.045,0.337,-5.337
0.222,0.049,0.334,-5.337
0.172,0.053,0.330,-5.337
0.163,0.050,0.328,-5.337
0.195,0.047,0.332,-5.337
0.168,0.052,0.334,-5.337
0.080,0.057,0.337,-5.337
0.135,0.052,0.338,-5.337
0.182,0.050,0.334,-5.337
0.200,0.049,0.325,-5.337
0.247,0.052,0.322,-5.337
0.234,0.054,0.323,-5.337
0.186,0.056,0.330,-5.337
0.188,0.055,0.330,-5.337
0.195,0.055,0.331,-5.337
0.266,0.052,0.331,-5.337
0.211,0.054,0.333,-5.337
0.219,0.053,0.335,-5.337
0.271,0.051,0.336,-5.337
0.268,0.052,0.336,-5.337
0.191,0.053,0.331,-5.337
0.210,0.053,0.331,-5.337
0.231,0.056,0.330,-5.337
0.160,0.057,0.330,-5.337
0.161,0.058,0.328,-5.337
0.152,0.056,0.332,-5.337
0.175,0.053,0.332,-5.337
0.213,0.052,0.334,-5.337
0.140,0.053,0.332,-5.337
0.121,0.055,0.331,-5.337
0.148,0.050,0.328,-5.337
0.194,0.046,0.328,-5.337
0.182,0.048,0.328,-5.337
0.136,0.050,0.331,-5.337
0.101,0.052,0.331,-5.337
0.147,0.051,0.332,-5.337
0.133,0.048,0.331,-5.337
0.102,0.050,0.330,-5.337
0.193,0.050,0.329,-5.337
0.183,0.049,0.331,-5.337
0.146,0.048,0.340,-5.337
0.127,0.049,0.340,-5.337
0.128,0.047,0.333,-5.337
0.175,0.045,0.327,-5.337
0.222,0.046,0.327,-5.337
0.193,0.046,0.328,-5.337
0.189,0.044,0.333,-5.337
0.185,0.047,0.335,-5.337
0.182,0.050,0.332,-5.337
0.220,0.045,0.331,-5.337
0.206,0.051,0.331,-5.337
0.159,0.052,0.329,-5.337
0.149,0.049,0.328,-5.337
0.173,0.048,0.328,-5.337
0.168,0.052,0.330,-5.337
0.138,0.049,0.331,-5.337
0.174,0.046,0.332,-5.337
0.187,0.047,0.329,-5.337
0.127,0.050,0.326,-5.337
0.100,0.052,0.329,-5.337
0.177,0.051,0.332,-5.337
0.243,0.049,0.331,-5.337
0.255,0.050,0.327,-5.337
0.248,0.049,0.325,-5.337
0.251,0.046,0.331,-5.337
0.280,0.044,0.337,-5.337
0.212,0.046,0.336,-5.337
0.188,0.046,0.334,-5.337
0.216,0.045,0.331,-5.337
0.348,0.043,0.332,-5.337
0.372,0.040,0.333,-5.337
0.295,0.044,0.335,-5.337
0.272,0.045,0.331,-5.337
0.309,0.045,0.330,-5.337
0.264,0.047,0.331,-5.337
0.204,0.045,0.333,-5.337
0.162,0.047,0.331,-5.337
0.163,0.049,0.334,-5.337
0.148,0.045,0.338,-5.337
0.108,0.044,0.334,-5.337
0.123,0.044,0.329,-5.337
0.157,0.047,0.325,-5.337
0.183,0.042,0.328,-5.337
0.185,0.039,0.330,-5.337
0.168,0.042,0.328,-5.337
0.136,0.045,0.329,-5.337
0.122,0.043,0.333,-5.337
0.181,0.038,0.334,-5.337
0.188,0.038,0.334,-5.337
0.187,0.040,0.331,-5.337
0.259,0.041,0.335,-5.337
0.273,0.039,0.334,-5.337
0.201,0.039,0.331,-5.337
0.088,0.042,0.332,-5.337
0.185,0.038,0.336,-5.337
0.348,0.036,0.335,-5.337
0.343,0.037,0.328,-5.337
0.269,0.039,0.324,-5.337
0.246,0.040,0.326,-5.337
0.189,0.043,0.331,-5.337
0.137,0.043,0.334,-5.337
0.125,0.038,0.331,-5.337
0.153,0.041,0.331,-5.337
0.175,0.043,0.330,-5.337
0.150,0.040,0.331,-5.337
0.223,0.037,0.331,-5.337
0.280,0.037,0.329,-5.337
0.247,0.039,0.330,-5.337
0.222,0.039,0.334,-5.337
0.208,0.041,0.338,-5.337
0.266,0.042,0.334,-5.337
0.332,0.040,0.329,-5.337
0.322,0.040,0.327,-5.337
0.389,0.037,0.332,-5.337
0.406,0.039,0.330,-5.337
0.365,0.043,0.329,-5.337
0.351,0.042,0.331,-5.337
0.313,0.046,0.334,-5.337
0.256,0.045,0.330,-5.337
0.233,0.042,0.327,-5.337
0.209,0.042,0.326,-5.337
0.130,0.042,0.327,-5.337
0.074,0.044,0.329,-5.337
0.003,0.047,0.331,-5.337
0.096,0.044,0.330,-5.337
0.236,0.042,0.330,-5.337
0.214,0.039,0.331,-5.337
0.158,0.043,0.332,-5.337
0.166,0.044,0.330,-5.337
0.220,0.042,0.330,-5.337
0.259,0.044,0.332,-5.337
0.176,0.043,0.332,-5.337
0.087,0.042,0.333,-5.337
0.119,0.040,0.333,-5.337
0.162,0.041,0.330,-5.337
0.208,0.044,0.326,-5.337
0.228,0.041,0.325,-5.337
0.248,0.037,0.327,-5.337
0.237,0.037,0.328,-5.337
0.246,0.036,0.325,-5.337
0.255,0.037,0.331,-5.337
0.206,0.039,0.332,-5.337
0.104,0.043,0.331,-5.337
0.133,0.039,0.331,-5.337
0.207,0.038,0.333,-5.337
0.178,0.036,0.331,-5.337
0.254,0.037,0.327,-5.337
0.318,0.036,0.328,-5.337
0.214,0.036,0.335,-5.337
0.156,0.039,0.334,-5.337
0.217,0.036,0.330,-5.337
0.237,0.036,0.331,-5.337
0.231,0.036,0.332,-5.337
0.263,0.033,0.332,-5.337
0.300,0.033,0.331,-5.337
0.254,0.030,0.330,-5.337
0.241,0.034,0.329,-5.337
0.197,0.039,0.333,-5.337
0.122,0.037,0.337,-5.337
0.085,0.035,0.335,-5.337
0.122,0.035,0.327,-5.337
0.135,0.034,0.325,-5.337
0.155,0.036,0.329,-5.337
0.177,0.034,0.332,-5.337
0.234,0.037,0.331,-5.337
0.160,0.040,0.329,-5.337
0.147,0.037,0.330,-5.337
0.258,0.034,0.330,-5.337
0.291,0.035,0.329,-5.337
0.228,0.039,0.329,-5.337
0.192,0.037,0.329,-5.337
0.263,0.039,0.329,-5.337
0.309,0.039,0.330,-5.337
0.295,0.037,0.332,-5.337
0.231,0.036,0.334,-5.337
0.209,0.034,0.334,-5.337
0.238,0.032,0.332,-5.337
0.270,0.033,0.332,-5.337
0.201,0.034,0.333,-5.337
0.178,0.034,0.332,-5.337
0.284,0.031,0.333,-5.337
0.311,0.036,0.332,-5.337
0.298,0.036,0.335,-5.337
0.307,0.028,0.333,-5.337
0.362,0.027,0.331,-5.337
0.318,0.032,0.331,-5.337
0.259,0.035,0.334,-5.337
0.218,0.033,0.335,-5.337
0.249,0.033,0.335,-5.337
0.237,0.034,0.330,-5.337
0.220,0.034,0.327,-5.337
0.223,0.033,0.328,-5.337
0.183,0.031,0.329,-5.337
0.215,0.029,0.328,-5.337
0.287,0.030,0.329,-5.337
0.291,0.033,0.332,-5.337
0.266,0.034,0.334,-5.337
0.216,0.036,0.332,-5.337
0.135,0.038,0.329,-5.337
0.084,0.036,0.328,-5.337
0.147,0.032,0.330,-5.337
0.219,0.029,0.334,-5.337
0.218,0.033,0.336,-5.337
0.170,0.034,0.336,-5.337
0.163,0.035,0.336,-5.337
0.180,0.030,0.337,-5.337
0.313,0.024,0.333,-5.337
0.287,0.032,0.334,-5.337
0.273,0.034,0.334,-5.337
0.206,0.036,0.332,-5.337
0.181,0.033,0.329,-5.337
0.196,0.036,0.332,-5.337
0.135,0.037,0.332,-5.337
0.196,0.035,0.328,-5.337
0.237,0.033,0.330,-5.337
0.201,0.035,0.332,-5.337
0.257,0.034,0.334,-5.337
0.352,0.034,0.336,-5.337
0.313,0.032,0.333,-5.337
0.253,0.034,0.329,-5.337
0.234,0.037,0.327,-5.337
0.198,0.040,0.329,-5.337
0.145,0.040,0.332,-5.337
0.167,0.040,0.331,-5.337
0.243,0.036,0.328,-5.337
0.226,0.032,0.329,-5.337
0.226,0.029,0.334,-5.337
0.217,0.031,0.334,-5.337
0.187,0.029,0.330,-5.337
0.206,0.029,0.328,-5.337
0.195,0.030,0.332,-5.337
0.189,0.031,0.332,-5.337
0.223,0.027,0.331,-5.337
0.284,0.025,0.328,-5.337
0.259,0.027,0.329,-5.337
0.162,0.029,0.330,-5.337
0.148,0.028,0.331,-5.337
0.147,0.025,0.333,-5.337
0.150,0.025,0.333,-5.337
0.192,0.029,0.334,-5.337
0.261,0.030,0.333,-5.337
0.282,0.032,0.330,-5.337
0.266,0.033,0.329,-5.337
0.254,0.032,0.335,-5.337
0.223,0.035,0.335,-5.337
0.193,0.036,0.331,-5.337
0.224,0.034,0.329,-5.337
0.257,0.029,0.331,-5.337
0.258,0.029,0.332,-5.337
0.227,0.028,0.331,-5.337
0.327,0.027,0.329,-5.337
0.406,0.032,0.331,-5.337
0.350,0.035,0.331,-5.337
0.260,0.040,0.332,-5.337
0.254,0.037,0.331,-5.337
0.252,0.036,0.332,-5.337
0.222,0.029,0.331,-5.337
0.205,0.031,0.333,-5.337
0.170,0.031,0.331,-5.337
0.150,0.033,0.327,-5.337
0.092,0.034,0.328,-5.337
0.084,0.032,0.330,-5.337
0.146,0.032,0.330,-5.337
0.161,0.032,0.332,-5.337
0.102,0.035,0.334,-5.337
0.109,0.033,0.333,-5.337
0.202,0.029,0.331,-5.337
0.294,0.029,0.337,-5.337
0.271,0.031,0.341,-5.337
0.255,0.030,0.335,-5.337
0.299,0.030,0.331,-5.337
0.288,0.031,0.331,-5.337
0.212,0.032,0.333,-5.337
0.211,0.030,0.332,-5.337
0.242,0.032,0.337,-5.337
0.231,0.032,0.340,-5.337
0.208,0.033,0.339,-5.337
0.227,0.033,0.328,-5.337
0.232,0.033,0.323,-5.337
0.214,0.035,0.328,-5.337
0.162,0.036,0.333,-5.337
0.064,0.035,0.331,-5.337
0.048,0.032,0.329,-5.337
0.142,0.032,0.332,-5.337
0.217,0.033,0.337,-5.337
0.186,0.034,0.335,-5.337
0.138,0.035,0.331,-5.337
0.118,0.033,0.328,-5.337
0.163,0.035,0.329,-5.337
0.162,0.035,0.330,-5.337
0.206,0.032,0.330,-5.337
0.288,0.030,0.330,-5.337
0.281,0.034,0.330,-5.337
0.192,0.037,0.336,-5.337
0.164,0.035,0.336,-5.337
0.273,0.031,0.332,-5.337
0.376,0.031,0.330,-5.337
0.356,0.031,0.332,-5.337
0.285,0.033,0.332,-5.337
0.237,0.035,0.334,-5.337
0.226,0.037,0.332,-5.337
0.191,0.040,0.331,-5.337
0.203,0.038,0.331,-5.337
0.245,0.038,0.328,-5.337
0.289,0.037,0.329,-5.337
0.292,0.042,0.334,-5.337
0.280,0.041,0.336,-5.337
0.243,0.038,0.332,-5.337
0.220,0.036,0.330,-5.337
0.222,0.038,0.332,-5.337
0.204,0.039,0.331,-5.337
0.204,0.041,0.330,-5.337
0.253,0.038,0.333,-5.337
0.259,0.037,0.335,-5.337
0.167,0.036,0.335,-5.337
0.133,0.038,0.331,-5.337
0.153,0.039,0.327,-5.337
0.159,0.038,0.324,-5.337
0.172,0.037,0.328,-5.337
0.227,0.038,0.331,-5.337
0.197,0.045,0.331,-5.337
0.199,0.042,0.329,-5.337
0.333,0.041,0.331,-5.337
0.279,0.043,0.334,-5.337
0.113,0.045,0.333,-5.337
0.172,0.037,0.330,-5.337
0.290,0.037,0.331,-5.337
0.318,0.039,0.332,-5.337
0.182,0.042,0.331,-5.337
0.112,0.042,0.331,-5.337
0.131,0.039,0.333,-5.337
0.222,0.037,0.331,-5.337
0.279,0.038,0.329,-5.337
0.279,0.040,0.328,-5.337
0.241,0.037,0.330,-5.337
0.150,0.034,0.331,-5.337
0.144,0.039,0.330,-5.337
0.181,0.042,0.328,-5.337
0.194,0.038,0.329,-5.337
0.214,0.038,0.332,-5.337
0.247,0.042,0.332,-5.337
0.248,0.043,0.335,-5.337
0.219,0.041,0.336,-5.337
0.238,0.038,0.336,-5.337
0.249,0.039,0.335,-5.337
0.273,0.040,0.333,-5.337
0.233,0.038,0.330,-5.337
0.140,0.041,0.328,-5.337
0.105,0.041,0.327,-5.337
0.135,0.039,0.330,-5.337
0.141,0.041,0.331,-5.337
0.125,0.042,0.332,-5.337
0.164,0.045,0.334,-5.337
0.128,0.048,0.336,-5.337
0.096,0.044,0.334,-5.337
0.181,0.040,0.331,-5.337
0.165,0.042,0.329,-5.337
0.139,0.046,0.330,-5.337
0.121,0.051,0.332,-5.337
0.112,0.050,0.332,-5.337
0.171,0.045,0.330,-5.337
0.216,0.045,0.332,-5.337
0.258,0.049,0.334,-5.337
0.264,0.045,0.331,-5.337
0.238,0.044,0.331,-5.337
0.273,0.043,0.335,-5.337
0.205,0.045,0.336,-5.337
0.102,0.047,0.329,-5.337
0.153,0.046,0.327,-5.337
0.216,0.046,0.326,-5.337
0.170,0.053,0.330,-5.337
0.116,0.052,0.331,-5.337
0.208,0.050,0.329,-5.337
0.211,0.049,0.328,-5.337
0.183,0.044,0.332,-5.337
0.246,0.040,0.330,-5.337
0.283,0.042,0.328,-5.337
0.245,0.042,0.330,-5.337
0.244,0.043,0.330,-5.337
0.288,0.044,0.329,-5.337
0.223,0.049,0.328,-5.337
0.148,0.051,0.327,-5.337
0.208,0.050,0.329,-5.337
0.217,0.046,0.332,-5.337
0.181,0.051,0.331,-5.337
0.165,0.050,0.331,-5.337
0.244,0.049,0.333,-5.337
0.306,0.048,0.338,-5.337
0.294,0.050,0.336,-5.337
0.224,0.054,0.331,-5.337
0.190,0.051,0.323,-5.337
0.244,0.049,0.320,-5.337
0.278,0.049,0.323,-5.337
0.177,0.051,0.327,-5.337
0.141,0.048,0.331,-5.337
0.209,0.048,0.332,-5.337
0.225,0.051,0.330,-5.337
0.204,0.050,0.329,-5.337
0.233,0.049,0.327,-5.337
0.217,0.051,0.325,-5.337
0.157,0.050,0.326,-5.337
0.120,0.049,0.327,-5.337
0.152,0.048,0.329,-5.337
0.192,0.048,0.328,-5.337
0.161,0.050,0.327,-5.337
0.192,0.051,0.327,-5.337
0.188,0.049,0.331,-5.337
0.191,0.048,0.334,-5.337
0.176,0.049,0.334,-5.337
0.145,0.046,0.333,-5.337
0.215,0.045,0.333,-5.337
0.260,0.042,0.331,-5.337
0.177,0.042,0.327,-5.337
0.213,0.040,0.323,-5.337
0.250,0.044,0.326,-5.337
0.182,0.044,0.330,-5.337
0.157,0.046,0.332,-5.337
0.136,0.051,0.331,-5.337
0.141,0.052,0.327,-5.337
0.168,0.049,0.330,-5.337
0.201,0.050,0.331,-5.337
0.205,0.048,0.331,-5.337
0.252,0.042,0.331,-5.337
0.278,0.043,0.328,-5.337
0.189,0.052,0.328,-5.337
0.100,0.053,0.328,-5.337
0.205,0.047,0.328,-5.337
0.244,0.047,0.331,-5.337
0.232,0.053,0.330,-5.337
0.164,0.057,0.332,-5.337
0.170,0.053,0.333,-5.337
0.177,0.050,0.333,-5.337
0.194,0.052,0.329,-5.337
0.211,0.053,0.330,-5.337
0.254,0.053,0.331,-5.337
0.265,0.051,0.331,-5.337
0.265,0.050,0.328,-5.337
0.269,0.050,0.325,-5.337
0.182,0.054,0.324,-5.337
0.096,0.055,0.329,-5.337
0.171,0.051,0.333,-5.337
0.286,0.050,0.334,-5.337
0.352,0.053,0.330,-5.337
0.348,0.053,0.326,-5.337
0.293,0.052,0.328,-5.337
0.189,0.054,0.329,-5.337
0.238,0.057,0.331,-5.337
0.274,0.058,0.333,-5.337
0.233,0.056,0.335,-5.337
0.182,0.056,0.334,-5.337
0.140,0.057,0.329,-5.337
0.172,0.056,0.327,-5.337
0.220,0.054,0.331,-5.337
0.112,0.054,0.332,-5.337
0.035,0.057,0.331,-5.337
0.089,0.055,0.331,-5.337
0.180,0.052,0.336,-5.337
0.178,0.054,0.334,-5.337
0.134,0.054,0.329,-5.337
0.148,0.054,0.326,-5.337
0.168,0.054,0.330,-5.337
0.117,0.056,0.332,-5.337
0.146,0.057,0.331,-5.337
0.201,0.056,0.329,-5.337
0.224,0.055,0.330,-5.337
0.204,0.055,0.331,-5.337
0.206,0.056,0.328,-5.337
0.145,0.059,0.327,-5.337
0.135,0.061,0.329,-5.337
0.173,0.060,0.331,-5.337
0.185,0.062,0.332,-5.337
0.228,0.060,0.333,-5.337
0.320,0.057,0.333,-5.337
0.338,0.056,0.335,-5.337
0.299,0.056,0.334,-5.337
0.196,0.057,0.331,-5.337
0.231,0.053,0.330,-5.337
0.290,0.052,0.334,-5.337
0.311,0.052,0.334,-5.337
0.242,0.055,0.331,-5.337
0.187,0.054,0.328,-5.337
0.185,0.053,0.329,-5.337
0.232,0.054,0.328,-5.337
0.178,0.056,0.327,-5.337
0.086,0.054,0.327,-5.337
0.136,0.052,0.328,-5.337
0.187,0.054,0.330,-5.337
0.189,0.056,0.334,-5.337
0.168,0.053,0.328,-5.337
0.148,0.056,0.324,-5.337
0.155,0.055,0.325,-5.337
0.232,0.055,0.331,-5.337
0.242,0.054,0.334,-5.337
0.229,0.052,0.337,-5.337
0.201,0.052,0.333,-5.337
0.197,0.054,0.329,-5.337
0.157,0.054,0.329,-5.337
0.127,0.054,0.326,-5.337
0.093,0.055,0.329,-5.337
0.164,0.054,0.331,-5.337
0.187,0.052,0.332,-5.337
0.156,0.051,0.330,-5.337
0.231,0.050,0.330,-5.337
0.230,0.054,0.329,-5.337
0.209,0.054,0.330,-5.337
0.209,0.055,0.332,-5.337
0.300,0.054,0.333,-5.337
0.316,0.051,0.332,-5.337
0.297,0.052,0.334,-5.337
0.236,0.051,0.333,-5.337
0.244,0.053,0.330,-5.337
0.286,0.054,0.327,-5.337
0.281,0.054,0.324,-5.337
0.256,0.051,0.325,-5.337
0.226,0.053,0.327,-5.337
0.189,0.053,0.331,-5.337
0.178,0.055,0.332,-5.337
0.204,0.057,0.332,-5.337
0.218,0.058,0.330,-5.337
0.143,0.060,0.331,-5.337
0.110,0.054,0.333,-5.337
0.165,0.050,0.332,-5.337
0.202,0.047,0.330,-5.337
0.221,0.045,0.329,-5.337
0.230,0.049,0.325,-5.337
0.225,0.051,0.330,-5.337
0.226,0.050,0.333,-5.337
0.204,0.047,0.333,-5.337
0.169,0.049,0.329,-5.337
0.203,0.052,0.328,-5.337
0.194,0.053,0.329,-5.337
0.166,0.051,0.331,-5.337
0.200,0.047,0.332,-5.337
0.219,0.050,0.330,-5.337
0.139,0.054,0.327,-5.337
0.094,0.053,0.327,-5.337
0.194,0.050,0.328,-5.337
0.155,0.052,0.327,-5.337
0.164,0.052,0.329,-5.337
0.250,0.052,0.333,-5.337
0.297,0.047,0.333,-5.337
0.229,0.049,0.331,-5.337
0.141,0.049,0.332,-5.337
0.191,0.052,0.332,-5.337
0.203,0.050,0.332,-5.337
0.223,0.047,0.328,-5.337
0.205,0.050,0.328,-5.337
0.177,0.050,0.328,-5.337
0.156,0.054,0.328,-5.337
0.137,0.054,0.326,-5.337
0.142,0.054,0.329,-5.337
0.149,0.051,0.333,-5.337
0.178,0.049,0.338,-5.337
0.165,0.050,0.337,-5.337
0.179,0.050,0.334,-5.337
0.216,0.048,0.331,-5.337
0.222,0.048,0.332,-5.337
0.258,0.044,0.332,-5.337
0.276,0.044,0.329,-5.337
0.290,0.043,0.328,-5.337
0.299,0.047,0.333,-5.337
0.264,0.045,0.337,-5.337
0.229,0.044,0.336,-5.337
0.232,0.043,0.333,-5.337
0.219,0.043,0.330,-5.337
0.236,0.044,0.329,-5.337
0.296,0.046,0.330,-5.337
0.270,0.045,0.332,-5.337
0.133,0.043,0.330,-5.337
0.156,0.038,0.326,-5.337
0.258,0.037,0.327,-5.337
0.229,0.041,0.332,-5.337
0.213,0.038,0.334,-5.337
0.219,0.040,0.330,-5.337
0.139,0.042,0.327,-5.337
0.130,0.044,0.330,-5.337
0.203,0.045,0.333,-5.337
0.230,0.047,0.331,-5.337
0.206,0.045,0.328,-5.337
0.215,0.044,0.331,-5.337
0.186,0.046,0.333,-5.337
0.197,0.045,0.330,-5.337
0.266,0.046,0.330,-5.337
0.204,0.045,0.330,-5.337
0.154,0.043,0.330,-5.337
0.200,0.041,0.329,-5.337
0.220,0.045,0.329,-5.337
0.230,0.044,0.328,-5.337
0.260,0.043,0.330,-5.337
0.322,0.040,0.331,-5.337
0.254,0.039,0.333,-5.337
0.176,0.042,0.333,-5.337
0.154,0.047,0.334,-5.337
0.228,0.043,0.332,-5.337
0.283,0.042,0.329,-5.337
0.291,0.040,0.325,-5.337
0.258,0.045,0.328,-5.337
0.197,0.044,0.330,-5.337
0.175,0.042,0.330,-5.337
0.178,0.043,0.330,-5.337
0.154,0.043,0.333,-5.337
0.173,0.041,0.335,-5.337
0.241,0.036,0.333,-5.337
0.253,0.040,0.330,-5.337
0.223,0.043,0.330,-5.337
0.203,0.041,0.329,-5.337
0.148,0.041,0.327,-5.337
0.191,0.040,0.329,-5.337
0.239,0.039,0.331,-5.337
0.316,0.038,0.331,-5.337
0.283,0.040,0.331,-5.337
0.211,0.045,0.331,-5.337
0.189,0.044,0.331,-5.337
0.204,0.039,0.332,-5.337
0.157,0.035,0.330,-5.337
0.136,0.037,0.328,-5.337
0.193,0.038,0.326,-5.337
0.289,0.036,0.330,-5.337
0.300,0.035,0.330,-5.337
0.215,0.038,0.333,-5.337
0.178,0.038,0.334,-5.337
0.279,0.037,0.334,-5.337
0.335,0.034,0.332,-5.337
0.296,0.037,0.329,-5.337
0.262,0.036,0.327,-5.337
0.248,0.038,0.328,-5.337
0.257,0.041,0.328,-5.337
0.278,0.040,0.332,-5.337
0.252,0.040,0.333,-5.337
0.215,0.041,0.330,-5.337
0.162,0.042,0.331,-5.337
0.159,0.044,0.332,-5.337
0.158,0.042,0.331,-5.337
0.197,0.041,0.327,-5.337
0.244,0.037,0.327,-5.337
0.263,0.035,0.332,-5.337
0.185,0.038,0.332,-5.337
0.141,0.036,0.331,-5.337
0.107,0.037,0.332,-5.337
0.093,0.040,0.330,-5.337
0.206,0.037,0.330,-5.337
0.314,0.036,0.332,-5.337
0.280,0.038,0.332,-5.337
0.241,0.041,0.328,-5.337
0.186,0.044,0.327,-5.337
0.146,0.044,0.329,-5.337
0.193,0.041,0.332,-5.337
0.236,0.044,0.331,-5.337
0.227,0.042,0.329,-5.337
0.254,0.037,0.330,-5.337
0.291,0.036,0.329,-5.337
0.251,0.038,0.328,-5.337
0.273,0.035,0.328,-5.337
0.241,0.031,0.330,-5.337
0.195,0.033,0.329,-5.337
0.148,0.034,0.330,-5.337
0.157,0.035,0.329,-5.337
0.244,0.037,0.329,-5.337
0.199,0.038,0.327,-5.337
0.216,0.037,0.328,-5.337
0.301,0.033,0.326,-5.337
0.334,0.033,0.324,-5.337
0.331,0.033,0.322,-5.337
0.223,0.036,0.326,-5.337
0.152,0.035,0.332,-5.337
0.163,0.036,0.340,-5.337
0.208,0.040,0.338,-5.337
0.180,0.040,0.333,-5.337
0.109,0.037,0.329,-5.337
0.097,0.034,0.328,-5.337
0.180,0.030,0.327,-5.337
0.238,0.031,0.325,-5.337
0.255,0.034,0.323,-5.337
0.300,0.035,0.324,-5.337
0.271,0.039,0.325,-5.337
0.197,0.035,0.328,-5.337
0.180,0.034,0.328,-5.337
0.205,0.036,0.326,-5.337
0.210,0.038,0.328,-5.337
0.218,0.037,0.333,-5.337
0.237,0.033,0.332,-5.337
0.201,0.033,0.327,-5.337
0.213,0.033,0.326,-5.337
0.214,0.033,0.326,-5.337
0.228,0.034,0.330,-5.337
0.198,0.033,0.331,-5.337
0.171,0.034,0.333,-5.337
0.213,0.033,0.333,-5.337
0.278,0.031,0.331,-5.337
0.294,0.028,0.327,-5.337
0.294,0.032,0.325,-5.337
0.294,0.036,0.324,-5.337
0.243,0.036,0.326,-5.337
0.195,0.033,0.330,-5.337
0.183,0.037,0.331,-5.337
0.103,0.039,0.332,-5.337
0.093,0.040,0.332,-5.337
0.147,0.040,0.328,-5.337
0.161,0.033,0.330,-5.337
0.135,0.028,0.330,-5.337
0.158,0.034,0.329,-5.337
0.179,0.037,0.329,-5.337
0.176,0.034,0.329,-5.337
0.197,0.030,0.330,-5.337
0.265,0.026,0.327,-5.337
0.293,0.025,0.326,-5.337
0.200,0.031,0.326,-5.337
0.092,0.034,0.324,-5.337
0.138,0.033,0.324,-5.337
0.222,0.033,0.327,-5.337
0.266,0.031,0.330,-5.337
0.274,0.029,0.333,-5.337
0.200,0.033,0.333,-5.337
0.157,0.036,0.331,-5.337
0.134,0.036,0.329,-5.337
0.190,0.037,0.331,-5.337
0.255,0.034,0.333,-5.337
0.243,0.036,0.336,-5.337
0.280,0.033,0.333,-5.337
0.219,0.033,0.330,-5.337
0.221,0.031,0.328,-5.337
0.269,0.031,0.328,-5.337
0.182,0.036,0.327,-5.337
0.082,0.035,0.327,-5.337
0.105,0.031,0.327,-5.337
0.213,0.029,0.328,-5.337
0.269,0.030,0.335,-5.337
0.265,0.031,0.335,-5.337
0.299,0.033,0.334,-5.337
0.314,0.035,0.332,-5.337
0.317,0.033,0.332,-5.337
0.257,0.035,0.331,-5.337
0.162,0.037,0.329,-5.337
0.175,0.038,0.328,-5.337
0.211,0.037,0.329,-5.337
0.215,0.033,0.331,-5.337
0.182,0.034,0.332,-5.337
0.188,0.031,0.331,-5.337
0.224,0.031,0.330,-5.337
0.244,0.031,0.330,-5.337
0.252,0.030,0.328,-5.337
0.272,0.028,0.327,-5.337
0.218,0.030,0.329,-5.337
0.212,0.031,0.329,-5.337
0.213,0.030,0.330,-5.337
0.254,0.028,0.332,-5.337
0.267,0.029,0.332,-5.337
0.306,0.030,0.333,-5.337
0.315,0.033,0.329,-5.337
0.231,0.032,0.326,-5.337
0.152,0.033,0.324,-5.337
0.215,0.031,0.325,-5.337
0.301,0.029,0.328,-5.337
0.263,0.032,0.332,-5.337
0.226,0.031,0.334,-5.337
0.251,0.034,0.333,-5.337
0.241,0.033,0.328,-5.337
0.264,0.033,0.328,-5.337
0.241,0.030,0.331,-5.337
0.220,0.029,0.330,-5.337
0.197,0.027,0.326,-5.337
0.215,0.025,0.325,-5.337
0.240,0.027,0.327,-5.337
0.166,0.030,0.333,-5.337
0.187,0.034,0.338,-5.337
0.226,0.035,0.334,-5.337
0.216,0.032,0.329,-5.337
0.173,0.033,0.328,-5.337
0.153,0.033,0.330,-5.337
0.142,0.038,0.330,-5.337
0.156,0.036,0.329,-5.337
0.231,0.031,0.329,-5.337
0.299,0.028,0.330,-5.337
0.350,0.029,0.331,-5.337
0.303,0.030,0.333,-5.337
0.245,0.028,0.332,-5.337
0.345,0.026,0.331,-5.337
0.335,0.030,0.327,-5.337
0.204,0.032,0.327,-5.337
0.113,0.033,0.327,-5.337
0.146,0.033,0.328,-5.337
0.259,0.029,0.330,-5.337
0.183,0.032,0.329,-5.337
0.121,0.034,0.330,-5.337
0.147,0.034,0.329,-5.337
0.215,0.034,0.325,-5.337
0.204,0.035,0.324,-5.337
0.152,0.034,0.326,-5.337
0.098,0.034,0.329,-5.337
0.071,0.031,0.330,-5.337
0.072,0.032,0.330,-5.337
0.147,0.028,0.330,-5.337
0.222,0.029,0.329,-5.337
0.164,0.033,0.331,-5.337
0.177,0.030,0.332,-5.337
0.277,0.031,0.333,-5.337
0.308,0.033,0.332,-5.337
0.253,0.037,0.331,-5.337
0.175,0.038,0.327,-5.337
0.186,0.040,0.329,-5.337
0.091,0.040,0.330,-5.337
0.095,0.040,0.333,-5.337
0.180,0.036,0.332,-5.337
0.216,0.036,0.329,-5.337
0.194,0.035,0.330,-5.337
0.185,0.038,0.331,-5.337
0.210,0.037,0.330,-5.337
0.260,0.039,0.331,-5.337
0.201,0.036,0.330,-5.337
0.196,0.036,0.331,-5.337
0.258,0.033,0.328,-5.337
0.322,0.033,0.323,-5.337
0.244,0.038,0.324,-5.337
0.168,0.038,0.328,-5.337
0.147,0.036,0.334,-5.337
0.208,0.033,0.334,-5.337
0.221,0.034,0.330,-5.337
0.221,0.035,0.326,-5.337
0.222,0.034,0.329,-5.337
0.208,0.035,0.330,-5.337
0.290,0.032,0.330,-5.337
0.290,0.037,0.330,-5.337
0.254,0.038,0.331,-5.337
0.272,0.036,0.332,-5.337
0.273,0.035,0.330,-5.337
0.258,0.036,0.328,-5.337
0.248,0.040,0.327,-5.337
0.227,0.040,0.327,-5.337
0.249,0.037,0.329,-5.337
0.258,0.037,0.330,-5.337
0.264,0.034,0.330,-5.337
0.253,0.038,0.332,-5.337
0.221,0.037,0.336,-5.337
0.238,0.033,0.336,-5.337
0.256,0.033,0.332,-5.337
0.184,0.035,0.328,-5.337
0.160,0.036,0.325,-5.337
0.131,0.040,0.324,-5.337
0.236,0.038,0.328,-5.337
0.295,0.037,0.334,-5.337
0.211,0.040,0.334,-5.337
0.184,0.039,0.334,-5.337
0.216,0.040,0.327,-5.337
0.185,0.044,0.328,-5.337
0.160,0.044,0.326,-5.337
0.127,0.045,0.326,-5.337
0.137,0.041,0.327,-5.337
0.159,0.043,0.331,-5.337
0.216,0.045,0.333,-5.337
0.218,0.045,0.330,-5.337
0.284,0.045,0.329,-5.337
0.299,0.043,0.328,-5.337
0.223,0.046,0.330,-5.337
0.193,0.046,0.331,-5.337
0.165,0.043,0.331,-5.337
0.159,0.043,0.331,-5.337
0.145,0.042,0.326,-5.337
0.189,0.041,0.326,-5.337
0.218,0.044,0.332,-5.337
0.177,0.044,0.334,-5.337
0.188,0.041,0.332,-5.337
0.173,0.042,0.330,-5.337
0.213,0.045,0.329,-5.337
0.233,0.046,0.327,-5.337
0.244,0.042,0.327,-5.337
0.228,0.041,0.327,-5.337
0.169,0.046,0.329,-5.337
0.127,0.046,0.329,-5.337
0.175,0.047,0.332,-5.337
0.227,0.046,0.331,-5.337
0.200,0.052,0.331,-5.337
0.118,0.052,0.328,-5.337
0.178,0.048,0.326,-5.337
0.219,0.048,0.328,-5.337
0.229,0.052,0.330,-5.337
0.287,0.053,0.334,-5.337
0.293,0.052,0.331,-5.337
0.256,0.048,0.328,-5.337
0.238,0.050,0.330,-5.337
0.281,0.051,0.328,-5.337
0.270,0.053,0.325,-5.337
0.191,0.050,0.327,-5.337
0.163,0.047,0.332,-5.337
0.152,0.044,0.331,-5.337
0.182,0.045,0.328,-5.337
0.203,0.045,0.330,-5.337
0.172,0.047,0.331,-5.337
0.124,0.048,0.330,-5.337
0.212,0.042,0.329,-5.337
0.226,0.044,0.332,-5.337
0.163,0.051,0.333,-5.337
0.167,0.055,0.332,-5.337
0.249,0.048,0.328,-5.337
0.282,0.045,0.327,-5.337
0.214,0.047,0.328,-5.337
0.200,0.046,0.329,-5.337
0.265,0.043,0.329,-5.337
0.286,0.045,0.331,-5.337
0.202,0.048,0.335,-5.337
0.176,0.047,0.333,-5.337
0.173,0.047,0.329,-5.337
0.215,0.049,0.326,-5.337
0.189,0.051,0.326,-5.337
0.156,0.050,0.323,-5.337
0.118,0.046,0.323,-5.337
0.142,0.045,0.327,-5.337
0.188,0.046,0.331,-5.337
0.214,0.044,0.330,-5.337
0.207,0.042,0.330,-5.337
0.201,0.044,0.329,-5.337
0.290,0.045,0.333,-5.337
0.313,0.049,0.330,-5.337
0.260,0.049,0.327,-5.337
0.271,0.048,0.326,-5.337
0.335,0.048,0.327,-5.337
0.331,0.047,0.326,-5.337
0.219,0.050,0.326,-5.337
0.183,0.050,0.328,-5.337
0.138,0.046,0.335,-5.337
0.228,0.043,0.339,-5.337
0.234,0.043,0.332,-5.337
0.204,0.047,0.325,-5.337
0.219,0.048,0.325,-5.337
0.221,0.047,0.327,-5.337
0.154,0.049,0.332,-5.337
0.147,0.046,0.332,-5.337
0.207,0.047,0.330,-5.337
0.236,0.048,0.332,-5.337
0.220,0.049,0.331,-5.337
0.168,0.051,0.329,-5.337
0.148,0.051,0.326,-5.337
0.170,0.050,0.327,-5.337
0.202,0.052,0.325,-5.337
0.189,0.053,0.326,-5.337
0.207,0.047,0.325,-5.337
0.208,0.045,0.325,-5.337
0.201,0.046,0.324,-5.337
0.173,0.049,0.330,-5.337
0.164,0.048,0.335,-5.337
0.187,0.047,0.334,-5.337
0.256,0.047,0.329,-5.337
0.180,0.055,0.326,-5.337
0.037,0.056,0.326,-5.337
0.084,0.049,0.327,-5.337
0.143,0.049,0.330,-5.337
0.212,0.048,0.333,-5.337
0.214,0.046,0.331,-5.337
0.126,0.049,0.324,-5.337
0.118,0.052,0.323,-5.337
0.154,0.051,0.327,-5.337
0.211,0.048,0.331,-5.337
0.236,0.048,0.330,-5.337
0.202,0.052,0.326,-5.337
0.123,0.053,0.326,-5.337
0.128,0.051,0.325,-5.337
0.220,0.050,0.328,-5.337
0.265,0.048,0.331,-5.337
0.270,0.046,0.330,-5.337
0.247,0.048,0.327,-5.337
0.215,0.047,0.327,-5.337
0.181,0.047,0.330,-5.337
0.200,0.047,0.330,-5.337
0.299,0.051,0.326,-5.337
0.317,0.055,0.325,-5.337
0.250,0.053,0.325,-5.337
0.249,0.050,0.326,-5.337
0.236,0.053,0.330,-5.337
0.146,0.057,0.330,-5.337
0.126,0.055,0.327,-5.337
0.175,0.055,0.324,-5.337
0.136,0.056,0.327,-5.337
0.111,0.054,0.333,-5.337
0.227,0.054,0.334,-5.337
0.189,0.055,0.332,-5.337
0.221,0.054,0.331,-5.337
0.305,0.056,0.330,-5.337
0.219,0.060,0.323,-5.337
0.115,0.058,0.324,-5.337
0.202,0.052,0.328,-5.337
0.314,0.051,0.332,-5.337
0.243,0.054,0.330,-5.337
0.093,0.058,0.329,-5.337
0.053,0.054,0.330,-5.337
0.097,0.054,0.330,-5.337
0.154,0.055,0.332,-5.337
0.217,0.052,0.332,-5.337
0.290,0.050,0.328,-5.337
0.185,0.053,0.329,-5.337
0.104,0.053,0.332,-5.337
0.148,0.053,0.330,-5.337
0.154,0.055,0.325,-5.337
0.122,0.055,0.320,-5.337
0.132,0.054,0.322,-5.337
0.147,0.055,0.327,-5.337
0.194,0.053,0.329,-5.337
0.194,0.048,0.326,-5.337
0.219,0.048,0.327,-5.337
0.230,0.049,0.332,-5.337
0.245,0.050,0.334,-5.337
0.204,0.050,0.331,-5.337
0.258,0.050,0.331,-5.337
0.286,0.049,0.333,-5.337
0.292,0.050,0.332,-5.337
0.283,0.050,0.326,-5.337
0.180,0.054,0.322,-5.337
0.162,0.051,0.322,-5.337
0.214,0.049,0.326,-5.337
0.311,0.048,0.329,-5.337
0.329,0.048,0.326,-5.337
0.289,0.049,0.329,-5.337
0.268,0.049,0.331,-5.337
0.227,0.046,0.330,-5.337
0.214,0.046,0.328,-5.337
0.231,0.047,0.328,-5.337
0.260,0.048,0.334,-5.337
0.233,0.049,0.339,-5.337
0.234,0.046,0.338,-5.337
0.282,0.046,0.333,-5.337
0.229,0.050,0.327,-5.337
0.208,0.048,0.324,-5.337
0.251,0.046,0.326,-5.337
0.240,0.046,0.330,-5.337
0.164,0.049,0.328,-5.337
0.151,0.050,0.326,-5.337
0.178,0.050,0.324,-5.337
0.163,0.054,0.325,-5.337
0.119,0.057,0.329,-5.337
0.077,0.056,0.331,-5.337
0.137,0.050,0.330,-5.337
0.232,0.043,0.331,-5.337
0.245,0.046,0.333,-5.337
0.213,0.043,0.335,-5.337
0.210,0.041,0.334,-5.337
0.143,0.044,0.331,-5.337
0.174,0.044,0.328,-5.337
0.274,0.043,0.326,-5.337
0.303,0.043,0.326,-5.337
0.250,0.044,0.325,-5.337
0.229,0.043,0.323,-5.337
0.146,0.043,0.326,-5.337
0.091,0.046,0.331,-5.337
0.150,0.045,0.328,-5.337
0.310,0.040,0.328,-5.337
0.338,0.041,0.330,-5.337
0.261,0.044,0.331,-5.337
0.321,0.043,0.328,-5.337
0.302,0.041,0.328,-5.337
0.207,0.044,0.332,-5.337
0.181,0.046,0.334,-5.337
0.202,0.045,0.332,-5.337
0.262,0.040,0.330,-5.337
0.167,0.044,0.326,-5.337
0.167,0.045,0.326,-5.337
0.268,0.040,0.330,-5.337
0.242,0.043,0.333,-5.337
0.214,0.043,0.329,-5.337
0.183,0.047,0.329,-5.337
0.197,0.043,0.330,-5.337
0.275,0.041,0.330,-5.337
0.257,0.044,0.326,-5.337
0.156,0.048,0.328,-5.337
0.128,0.053,0.331,-5.337
0.133,0.048,0.329,-5.337
0.179,0.046,0.330,-5.337
0.260,0.044,0.332,-5.337
0.264,0.044,0.336,-5.337
0.189,0.046,0.332,-5.337
0.213,0.046,0.330,-5.337
0.265,0.046,0.329,-5.337
0.215,0.045,0.330,-5.337
0.181,0.042,0.330,-5.337
0.271,0.043,0.329,-5.337
0.308,0.042,0.329,-5.337
0.300,0.041,0.329,-5.337
0.251,0.042,0.328,-5.337
0.138,0.048,0.329,-5.337
0.167,0.043,0.331,-5.337
0.249,0.041,0.332,-5.337
0.208,0.042,0.331,-5.337
0.173,0.042,0.332,-5.337
0.146,0.041,0.331,-5.337
0.155,0.040,0.329,-5.337
0.138,0.046,0.330,-5.337
0.120,0.050,0.332,-5.337
0.205,0.042,0.332,-5.337
0.276,0.040,0.334,-5.337
0.242,0.041,0.338,-5.337
0.267,0.039,0.337,-5.337
0.295,0.035,0.337,-5.337
0.223,0.037,0.332,-5.337
0.134,0.037,0.323,-5.337
0.118,0.039,0.318,-5.337
0.199,0.039,0.320,-5.337
0.222,0.040,0.325,-5.337
0.139,0.039,0.328,-5.337
0.187,0.035,0.330,-5.337
0.247,0.038,0.333,-5.337
0.275,0.042,0.336,-5.337
0.231,0.041,0.335,-5.337
0.166,0.040,0.330,-5.337
0.134,0.039,0.327,-5.337
0.163,0.041,0.332,-5.337
0.236,0.038,0.337,-5.337
0.215,0.036,0.333,-5.337
0.215,0.038,0.329,-5.337
0.201,0.042,0.329,-5.337
0.212,0.044,0.331,-5.337
0.199,0.041,0.331,-5.337
0.212,0.039,0.327,-5.337
0.243,0.038,0.328,-5.337
0.292,0.038,0.327,-5.337
0.320,0.035,0.327,-5.337
0.301,0.036,0.329,-5.337
0.254,0.042,0.332,-5.337
0.215,0.044,0.329,-5.337
0.243,0.045,0.329,-5.337
0.211,0.043,0.330,-5.337
0.163,0.043,0.333,-5.337
0.143,0.040,0.332,-5.337
0.146,0.040,0.331,-5.337
0.153,0.042,0.330,-5.337
0.195,0.044,0.330,-5.337
0.197,0.047,0.330,-5.337
0.200,0.045,0.330,-5.337
0.216,0.043,0.334,-5.337
0.254,0.042,0.337,-5.337
0.247,0.043,0.336,-5.337
0.230,0.044,0.336,-5.337
0.236,0.043,0.334,-5.337
0.194,0.045,0.331,-5.337
0.184,0.041,0.332,-5.337
0.248,0.037,0.326,-5.337
0.355,0.039,0.323,-5.337
0.293,0.038,0.324,-5.337
0.245,0.035,0.325,-5.337
0.196,0.035,0.328,-5.337
0.242,0.033,0.332,-5.337
0.309,0.031,0.330,-5.337
0.286,0.031,0.325,-5.337
0.257,0.031,0.326,-5.337
0.202,0.036,0.329,-5.337
0.106,0.037,0.331,-5.337
0.152,0.039,0.334,-5.337
0.204,0.032,0.333,-5.337
0.181,0.033,0.331,-5.337
0.145,0.034,0.330,-5.337
0.207,0.034,0.330,-5.337
0.229,0.031,0.327,-5.337
0.178,0.030,0.329,-5.337
0.192,0.033,0.328,-5.337
0.200,0.039,0.327,-5.337
0.158,0.043,0.329,-5.337
0.155,0.040,0.331,-5.337
0.184,0.039,0.332,-5.337
0.219,0.040,0.330,-5.337
0.323,0.036,0.332,-5.337
0.292,0.037,0.331,-5.337
0.202,0.037,0.327,-5.337
0.264,0.036,0.323,-5.337
0.274,0.035,0.325,-5.337
0.192,0.035,0.328,-5.337
0.189,0.036,0.333,-5.337
0.251,0.033,0.334,-5.337
0.325,0.034,0.331,-5.337
0.290,0.039,0.329,-5.337
0.219,0.039,0.332,-5.337
0.241,0.038,0.333,-5.337
0.255,0.032,0.332,-5.337
0.228,0.028,0.333,-5.337
0.205,0.033,0.330,-5.337
0.199,0.039,0.324,-5.337
0.136,0.041,0.325,-5.337
0.138,0.041,0.328,-5.337
0.195,0.039,0.330,-5.337
0.172,0.036,0.330,-5.337
0.222,0.034,0.332,-5.337
0.265,0.037,0.331,-5.337
0.251,0.036,0.329,-5.337
0.234,0.035,0.333,-5.337
0.202,0.039,0.333,-5.337
0.191,0.039,0.331,-5.337
0.223,0.033,0.325,-5.337
0.179,0.030,0.329,-5.337
0.180,0.032,0.333,-5.337
0.241,0.031,0.332,-5.337
0.261,0.031,0.332,-5.337
0.271,0.035,0.335,-5.337
0.193,0.038,0.334,-5.337
0.171,0.037,0.333,-5.337
0.146,0.037,0.328,-5.337
0.114,0.037,0.328,-5.337
0.129,0.034,0.329,-5.337
0.155,0.033,0.328,-5.337
0.203,0.036,0.326,-5.337
0.187,0.034,0.328,-5.337
0.162,0.034,0.331,-5.337
0.130,0.032,0.332,-5.337
0.185,0.033,0.332,-5.337
0.163,0.035,0.331,-5.337
0.140,0.036,0.330,-5.337
0.235,0.032,0.327,-5.337
0.353,0.031,0.328,-5.337
0.304,0.035,0.331,-5.337
0.230,0.034,0.334,-5.337
0.289,0.033,0.333,-5.337
0.432,0.031,0.330,-5.337
0.445,0.028,0.329,-5.337
0.347,0.029,0.333,-5.337
0.227,0.029,0.332,-5.337
0.215,0.031,0.330,-5.337
0.251,0.032,0.327,-5.337
0.288,0.035,0.327,-5.337
0.277,0.039,0.327,-5.337
0.247,0.038,0.327,-5.337
0.188,0.037,0.327,-5.337
0.128,0.035,0.328,-5.337
0.193,0.032,0.324,-5.337
0.182,0.037,0.325,-5.337
0.179,0.040,0.326,-5.337
0.228,0.041,0.325,-5.337
0.165,0.039,0.328,-5.337
0.182,0.038,0.333,-5.337
0.282,0.033,0.335,-5.337
0.330,0.032,0.330,-5.337
0.232,0.034,0.327,-5.337
0.157,0.034,0.324,-5.337
0.162,0.037,0.330,-5.337
0.180,0.035,0.333,-5.337
0.218,0.036,0.332,-5.337
0.239,0.036,0.330,-5.337
0.275,0.032,0.332,-5.337
0.290,0.031,0.331,-5.337
0.243,0.034,0.331,-5.337
0.311,0.036,0.329,-5.337
0.313,0.035,0.329,-5.337
0.277,0.031,0.328,-5.337
0.283,0.031,0.326,-5.337
0.248,0.032,0.326,-5.337
0.176,0.037,0.327,-5.337
0.161,0.039,0.328,-5.337
0.222,0.036,0.328,-5.337
0.247,0.033,0.327,-5.337
0.245,0.034,0.326,-5.337
0.208,0.038,0.330,-5.337
0.198,0.038,0.329,-5.337
0.193,0.036,0.328,-5.337
0.183,0.035,0.328,-5.337
0.191,0.037,0.333,-5.337
0.189,0.036,0.334,-5.337
0.109,0.037,0.334,-5.337
0.118,0.037,0.330,-5.337
0.156,0.035,0.329,-5.337
0.168,0.034,0.331,-5.337
0.202,0.034,0.335,-5.337
0.205,0.037,0.335,-5.337
0.183,0.039,0.328,-5.337
0.182,0.030,0.325,-5.337
0.238,0.031,0.325,-5.337
0.171,0.033,0.324,-5.337
0.151,0.035,0.326,-5.337
0.220,0.030,0.330,-5.337
0.256,0.031,0.331,-5.337
0.276,0.034,0.330,-5.337
0.320,0.031,0.331,-5.337
0.314,0.029,0.331,-5.337
0.206,0.034,0.327,-5.337
0.167,0.037,0.328,-5.337
0.236,0.035,0.329,-5.337
0.235,0.034,0.331,-5.337
0.215,0.035,0.327,-5.337
0.246,0.033,0.325,-5.337
0.251,0.031,0.326,-5.337
