[Parameters]
Operating Mode, Feedback
Subject  AA..ZZ, WT
Session  0..99, 42
No. Trials (1..9999), 500
Mouse Number, 1
Pressure Probe Serial Port, \00\00\00\04COM4
Save additional csv file, TRUE
Save using mouse number, FALSE
A/D Monitor Rate (Hz), 30000.000000
A/D Stimulate Rate (Hz), 30000.000000
A/D input range (+/- V), 5
No. Channels to acquire (N), 2
Pre-Stim Acq. time (ms), 100.000000
Post-Stim Acq. time (ms), 900.000000
Analysis window parameters.M-response Start (ms), 1.100000
Analysis window parameters.M-response Duration (ms), 5.500000
Analysis window parameters.H-response Duration (ms), 6.000000
Analysis window parameters.H-response Start (ms), 6.500000
Feedback window, H response
Proportional gain, 0.100000
Target value, 6.700000
Feedback Ch., 1
Stim Channel to Control (1-4), 4
Trial, 23
Wait for EMG Conditions, FALSE
Channel to monitor (0 - N-1), 1
EMG Hi Limit, 2.000000
EMG Lo Limit, 0.001000
Inter-Stim delay (sec), 10.000000
EMG Monitor Mode, Mean
Time to run Long Stim.(sec), 30
Save Long Stim Data?, OFF
BURST Save time (ms), 1000
BURST Save Interval (x above), 10
Long-Stim. Rep. Rate (Hz), 10.000000
Stim type cluster array.<size(s)>, 4
Stim type cluster array 0.Stimulus Output, Electrical
Stim type cluster array 1.Stimulus Output, OFF
Stim type cluster array 2.Stimulus Output, OFF
Stim type cluster array 3.Stimulus Output, Motor Length
Stim specs cluster array.<size(s)>, 4
Stim specs cluster array 0.Initial Stimulus ampl., 0.300000
Stim specs cluster array 0.Maximum Stimulus, 1.120000
Stim specs cluster array 0.#Pulses in train, 4
Stim specs cluster array 0.Peak Level time (ms), 1.000000
Stim specs cluster array 0.Total pulse period (ms), 150.000000
Stim specs cluster array 0.Start Delay (ms), -50.000000
Stim specs cluster array 0.Pulse Shape, Square
Stim specs cluster array 0.Ramp/Rel. time (ms), 0.100000
Stim specs cluster array 0.Peak Amplitude (V), 0.120000
Stim specs cluster array 1.Initial Stimulus ampl., 0.000000
Stim specs cluster array 1.Maximum Stimulus, 0.000000
Stim specs cluster array 1.#Pulses in train, 3
Stim specs cluster array 1.Peak Level time (ms), 29.000000
Stim specs cluster array 1.Total pulse period (ms), 200.000000
Stim specs cluster array 1.Start Delay (ms), 0.000000
Stim specs cluster array 1.Pulse Shape, Square
Stim specs cluster array 1.Ramp/Rel. time (ms), 0.000000
Stim specs cluster array 1.Peak Amplitude (V), 2.000000
Stim specs cluster array 2.Initial Stimulus ampl., 0.000000
Stim specs cluster array 2.Maximum Stimulus, 0.000000
Stim specs cluster array 2.#Pulses in train, 1
Stim specs cluster array 2.Peak Level time (ms), 25.000000
Stim specs cluster array 2.Total pulse period (ms), 200.000000
Stim specs cluster array 2.Start Delay (ms), 0.000000
Stim specs cluster array 2.Pulse Shape, Square
Stim specs cluster array 2.Ramp/Rel. time (ms), 20.000000
Stim specs cluster array 2.Peak Amplitude (V), 10.000000
Stim specs cluster array 3.Initial Stimulus ampl., 0.000000
Stim specs cluster array 3.Maximum Stimulus, 20.000000
Stim specs cluster array 3.#Pulses in train, 25
Stim specs cluster array 3.Peak Level time (ms), 0.100000
Stim specs cluster array 3.Total pulse period (ms), 4.000000
Stim specs cluster array 3.Start Delay (ms), 205.000000
Stim specs cluster array 3.Pulse Shape, Triangle
Stim specs cluster array 3.Ramp/Rel. time (ms), 3.000000
Stim specs cluster array 3.Peak Amplitude (V), 0.500000
Force cal. (mN/Volt), 100.000000
Force Range (mN), 100.000000
Length cal. (mm/Volt), 10.000000
Length Range (mm), 10.000000
Stim. 1, 0.300000
Stim. 2, 0.000000
Stim. 3, 0.000000
Stim. 4, 0.000000
Monitor acquire time (ms), 100.000000
EMG graph Ymax, 0.100000
Travel limit (mm), 20.000000
Use Pressure Probe, FALSE
Pressure goal (g), 100
Speed (mm/sec), 5.000000
Dwell time (ms), 100.000000
Pressure limit (g), 500.000000
Channel amplitude offset, 0.000000

[DATA]

0.172,0.058,0.327,-5.337
0.139,0.059,0.322,-5.337
0.188,0.061,0.320,-5.337
0.240,0.058,0.324,-5.337
0.183,0.059,0.325,-5.337
0.170,0.058,0.324,-5.337
0.160,0.061,0.325,-5.337
0.122,0.061,0.327,-5.337
0.148,0.056,0.327,-5.337
0.200,0.053,0.326,-5.337
0.186,0.053,0.321,-5.337
0.126,0.055,0.321,-5.337
0.173,0.052,0.324,-5.337
0.226,0.052,0.327,-5.337
0.224,0.053,0.322,-5.337
0.195,0.054,0.318,-5.337
0.167,0.053,0.316,-5.337
0.147,0.051,0.319,-5.337
0.178,0.049,0.321,-5.337
0.208,0.050,0.326,-5.337
0.204,0.051,0.328,-5.337
0.116,0.051,0.325,-5.337
0.064,0.051,0.323,-5.337
0.135,0.049,0.324,-5.337
0.227,0.047,0.326,-5.337
0.188,0.046,0.326,-5.337
0.209,0.047,0.322,-5.337
0.201,0.049,0.319,-5.337
0.212,0.049,0.319,-5.337
0.210,0.049,0.320,-5.337
0.181,0.048,0.321,-5.337
0.157,0.049,0.323,-5.337
0.134,0.050,0.327,-5.337
0.105,0.051,0.327,-5.337
0.139,0.047,0.324,-5.337
0.212,0.044,0.318,-5.337
0.216,0.047,0.317,-5.337
0.182,0.051,0.320,-5.337
0.217,0.050,0.322,-5.337
0.169,0.052,0.322,-5.337
0.176,0.053,0.321,-5.337
0.189,0.054,0.322,-5.337
0.231,0.052,0.324,-5.337
0.226,0.047,0.322,-5.337
0.272,0.047,0.320,-5.337
0.260,0.048,0.318,-5.337
0.166,0.052,0.324,-5.337
0.147,0.050,0.324,-5.337
0.263,0.048,0.322,-5.337
0.285,0.048,0.320,-5.337
0.222,0.052,0.320,-5.337
0.124,0.053,0.319,-5.337
0.084,0.051,0.319,-5.337
0.117,0.050,0.323,-5.337
0.195,0.047,0.323,-5.337
0.206,0.048,0.323,-5.337
0.196,0.048,0.319,-5.337
0.193,0.046,0.317,-5.337
0.221,0.048,0.318,-5.337
0.235,0.046,0.324,-5.337
0.261,0.046,0.323,-5.337
0.267,0.045,0.322,-5.337
0.273,0.044,0.322,-5.337
0.254,0.046,0.323,-5.337
0.219,0.043,0.322,-5.337
0.208,0.041,0.320,-5.337
0.155,0.039,0.318,-5.337
0.146,0.039,0.321,-5.337
0.202,0.042,0.322,-5.337
0.208,0.044,0.321,-5.337
0.218,0.044,0.322,-5.337
0.237,0.043,0.316,-5.337
0.161,0.043,0.317,-5.337
0.145,0.041,0.323,-5.337
0.209,0.039,0.324,-5.337
0.265,0.039,0.321,-5.337
0.275,0.040,0.320,-5.337
0.227,0.043,0.324,-5.337
0.133,0.046,0.326,-5.337
0.139,0.045,0.321,-5.337
0.238,0.043,0.318,-5.337
0.191,0.044,0.317,-5.337
0.092,0.045,0.320,-5.337
0.095,0.041,0.319,-5.337
0.193,0.039,0.320,-5.337
0.243,0.038,0.320,-5.337
0.230,0.039,0.323,-5.337
0.233,0.038,0.321,-5.337
0.267,0.038,0.321,-5.337
0.272,0.039,0.321,-5.337
0.238,0.040,0.317,-5.337
0.224,0.039,0.319,-5.337
0.201,0.038,0.324,-5.337
0.188,0.037,0.321,-5.337
0.124,0.043,0.317,-5.337
0.099,0.042,0.319,-5.337
0.125,0.043,0.322,-5.337
0.176,0.042,0.327,-5.337
0.226,0.038,0.326,-5.337
0.289,0.037,0.323,-5.337
0.209,0.041,0.320,-5.337
0.120,0.043,0.322,-5.337
0.084,0.045,0.324,-5.337
0.124,0.044,0.324,-5.337
0.175,0.042,0.322,-5.337
0.215,0.041,0.321,-5.337
0.232,0.038,0.319,-5.337
0.208,0.036,0.320,-5.337
0.138,0.038,0.320,-5.337
0.168,0.041,0.320,-5.337
0.239,0.038,0.321,-5.337
0.216,0.039,0.320,-5.337
0.203,0.036,0.319,-5.337
0.160,0.039,0.321,-5.337
0.112,0.040,0.325,-5.337
0.170,0.041,0.328,-5.337
0.207,0.044,0.324,-5.337
0.153,0.043,0.320,-5.337
0.207,0.039,0.319,-5.337
0.224,0.040,0.321,-5.337
0.213,0.038,0.318,-5.337
0.205,0.040,0.317,-5.337
0.166,0.036,0.322,-5.337
0.176,0.037,0.325,-5.337
0.205,0.037,0.328,-5.337
0.295,0.035,0.327,-5.337
0.314,0.037,0.325,-5.337
0.227,0.038,0.320,-5.337
0.153,0.040,0.319,-5.337
0.190,0.039,0.320,-5.337
0.219,0.037,0.323,-5.337
0.222,0.037,0.321,-5.337
0.262,0.034,0.318,-5.337
0.226,0.036,0.318,-5.337
0.171,0.035,0.319,-5.337
0.252,0.032,0.318,-5.337
0.223,0.034,0.321,-5.337
0.234,0.034,0.324,-5.337
0.193,0.033,0.324,-5.337
0.137,0.036,0.323,-5.337
0.170,0.034,0.320,-5.337
0.196,0.035,0.320,-5.337
0.182,0.039,0.322,-5.337
0.209,0.038,0.320,-5.337
0.234,0.039,0.317,-5.337
0.174,0.042,0.317,-5.337
0.096,0.041,0.323,-5.337
0.081,0.039,0.323,-5.337
0.139,0.039,0.319,-5.337
0.200,0.037,0.320,-5.337
0.177,0.035,0.320,-5.337
0.118,0.038,0.322,-5.337
0.142,0.039,0.319,-5.337
0.251,0.038,0.316,-5.337
0.241,0.039,0.316,-5.337
0.220,0.039,0.320,-5.337
0.214,0.040,0.317,-5.337
0.114,0.042,0.313,-5.337
0.103,0.042,0.315,-5.337
0.190,0.042,0.321,-5.337
0.260,0.037,0.323,-5.337
0.223,0.036,0.321,-5.337
0.302,0.036,0.318,-5.337
0.301,0.038,0.318,-5.337
0.265,0.038,0.321,-5.337
0.216,0.038,0.323,-5.337
0.178,0.040,0.324,-5.337
0.203,0.036,0.323,-5.337
0.195,0.034,0.319,-5.337
0.179,0.036,0.318,-5.337
0.191,0.036,0.319,-5.337
0.158,0.039,0.320,-5.337
0.170,0.034,0.319,-5.337
0.200,0.036,0.320,-5.337
0.238,0.041,0.322,-5.337
0.182,0.040,0.322,-5.337
0.153,0.035,0.322,-5.337
0.200,0.034,0.320,-5.337
0.249,0.040,0.320,-5.337
0.272,0.040,0.317,-5.337
0.287,0.037,0.318,-5.337
0.203,0.037,0.316,-5.337
0.143,0.036,0.317,-5.337
0.162,0.034,0.322,-5.337
0.273,0.034,0.325,-5.337
0.298,0.036,0.321,-5.337
0.263,0.040,0.320,-5.337
0.264,0.040,0.323,-5.337
0.227,0.038,0.324,-5.337
0.183,0.037,0.319,-5.337
0.165,0.041,0.317,-5.337
0.147,0.040,0.318,-5.337
0.169,0.036,0.318,-5.337
0.219,0.033,0.317,-5.337
0.180,0.037,0.317,-5.337
0.147,0.035,0.319,-5.337
0.152,0.033,0.320,-5.337
0.170,0.032,0.320,-5.337
0.203,0.029,0.318,-5.337
0.180,0.029,0.320,-5.337
0.208,0.028,0.318,-5.337
0.239,0.031,0.318,-5.337
0.226,0.034,0.319,-5.337
0.228,0.032,0.322,-5.337
0.227,0.034,0.326,-5.337
0.210,0.038,0.324,-5.337
0.217,0.035,0.323,-5.337
0.162,0.037,0.317,-5.337
0.119,0.036,0.313,-5.337
0.176,0.037,0.317,-5.337
0.137,0.039,0.322,-5.337
0.138,0.038,0.322,-5.337
0.192,0.038,0.318,-5.337
0.164,0.041,0.316,-5.337
0.109,0.040,0.320,-5.337
0.182,0.035,0.323,-5.337
0.284,0.034,0.324,-5.337
0.258,0.035,0.322,-5.337
0.211,0.039,0.322,-5.337
0.228,0.040,0.320,-5.337
0.191,0.039,0.321,-5.337
0.217,0.037,0.321,-5.337
0.265,0.032,0.319,-5.337
0.330,0.031,0.317,-5.337
0.272,0.038,0.314,-5.337
0.135,0.039,0.315,-5.337
0.100,0.037,0.318,-5.337
0.075,0.037,0.320,-5.337
0.115,0.033,0.326,-5.337
0.168,0.033,0.322,-5.337
0.129,0.040,0.318,-5.337
0.124,0.037,0.317,-5.337
0.202,0.032,0.318,-5.337
0.175,0.034,0.323,-5.337
0.157,0.034,0.324,-5.337
0.219,0.038,0.324,-5.337
0.260,0.040,0.323,-5.337
0.196,0.039,0.322,-5.337
0.232,0.037,0.321,-5.337
0.282,0.035,0.320,-5.337
0.208,0.038,0.318,-5.337
0.123,0.040,0.320,-5.337
0.118,0.038,0.322,-5.337
0.153,0.033,0.320,-5.337
0.180,0.031,0.322,-5.337
0.208,0.037,0.324,-5.337
0.145,0.035,0.326,-5.337
0.108,0.036,0.328,-5.337
0.132,0.037,0.326,-5.337
0.138,0.039,0.326,-5.337
0.140,0.036,0.321,-5.337
0.223,0.034,0.315,-5.337
0.315,0.032,0.317,-5.337
0.274,0.037,0.322,-5.337
0.231,0.035,0.324,-5.337
0.236,0.036,0.320,-5.337
0.196,0.041,0.317,-5.337
0.146,0.043,0.317,-5.337
0.159,0.040,0.322,-5.337
0.235,0.038,0.319,-5.337
0.228,0.038,0.319,-5.337
0.195,0.037,0.322,-5.337
0.186,0.034,0.324,-5.337
0.289,0.030,0.319,-5.337
0.334,0.034,0.318,-5.337
0.278,0.036,0.321,-5.337
0.185,0.042,0.321,-5.337
0.162,0.041,0.321,-5.337
0.215,0.038,0.321,-5.337
0.288,0.038,0.320,-5.337
0.250,0.040,0.320,-5.337
0.113,0.044,0.319,-5.337
0.078,0.044,0.315,-5.337
0.148,0.039,0.314,-5.337
0.175,0.042,0.317,-5.337
0.133,0.041,0.321,-5.337
0.131,0.039,0.326,-5.337
0.158,0.041,0.329,-5.337
0.226,0.039,0.329,-5.337
0.266,0.039,0.324,-5.337
0.238,0.042,0.317,-5.337
0.215,0.042,0.314,-5.337
0.182,0.043,0.316,-5.337
0.195,0.043,0.318,-5.337
0.220,0.041,0.317,-5.337
0.132,0.044,0.320,-5.337
0.078,0.044,0.321,-5.337
0.100,0.044,0.323,-5.337
0.173,0.043,0.322,-5.337
0.264,0.040,0.323,-5.337
0.222,0.039,0.321,-5.337
0.113,0.039,0.320,-5.337
0.019,0.044,0.319,-5.337
0.096,0.042,0.321,-5.337
0.226,0.040,0.321,-5.337
0.196,0.042,0.322,-5.337
0.177,0.042,0.324,-5.337
0.145,0.046,0.321,-5.337
0.115,0.046,0.321,-5.337
0.146,0.044,0.322,-5.337
0.206,0.042,0.315,-5.337
0.237,0.042,0.312,-5.337
0.143,0.045,0.316,-5.337
0.149,0.047,0.320,-5.337
0.123,0.048,0.325,-5.337
0.100,0.048,0.322,-5.337
0.128,0.043,0.317,-5.337
0.213,0.042,0.315,-5.337
0.219,0.043,0.316,-5.337
0.192,0.045,0.317,-5.337
0.173,0.047,0.316,-5.337
0.195,0.047,0.316,-5.337
0.228,0.046,0.320,-5.337
0.201,0.046,0.321,-5.337
0.198,0.046,0.321,-5.337
0.217,0.044,0.318,-5.337
0.275,0.041,0.321,-5.337
0.293,0.040,0.322,-5.337
0.205,0.045,0.320,-5.337
0.127,0.042,0.318,-5.337
0.125,0.041,0.320,-5.337
0.115,0.044,0.325,-5.337
0.118,0.045,0.327,-5.337
0.163,0.046,0.324,-5.337
0.184,0.047,0.318,-5.337
0.129,0.049,0.315,-5.337
0.160,0.048,0.319,-5.337
0.188,0.048,0.322,-5.337
0.192,0.048,0.321,-5.337
0.171,0.047,0.318,-5.337
0.144,0.047,0.316,-5.337
0.136,0.048,0.316,-5.337
0.175,0.047,0.317,-5.337
0.212,0.048,0.317,-5.337
0.206,0.046,0.319,-5.337
0.210,0.043,0.319,-5.337
0.206,0.041,0.318,-5.337
0.216,0.045,0.319,-5.337
0.187,0.047,0.321,-5.337
0.164,0.044,0.318,-5.337
0.174,0.045,0.320,-5.337
0.167,0.047,0.322,-5.337
0.253,0.046,0.320,-5.337
0.208,0.049,0.322,-5.337
0.145,0.047,0.321,-5.337
0.174,0.048,0.319,-5.337
0.166,0.043,0.316,-5.337
0.184,0.041,0.317,-5.337
0.178,0.042,0.321,-5.337
0.204,0.043,0.325,-5.337
0.169,0.046,0.323,-5.337
0.154,0.045,0.316,-5.337
0.159,0.041,0.314,-5.337
0.164,0.046,0.315,-5.337
0.189,0.048,0.319,-5.337
0.151,0.050,0.319,-5.337
0.113,0.053,0.320,-5.337
0.173,0.050,0.321,-5.337
0.197,0.048,0.320,-5.337
0.201,0.045,0.318,-5.337
0.171,0.049,0.317,-5.337
0.125,0.049,0.317,-5.337
0.088,0.053,0.318,-5.337
0.105,0.052,0.320,-5.337
0.157,0.052,0.321,-5.337
0.206,0.052,0.321,-5.337
0.255,0.051,0.325,-5.337
0.261,0.052,0.325,-5.337
0.255,0.053,0.322,-5.337
0.219,0.056,0.319,-5.337
0.140,0.059,0.317,-5.337
0.119,0.056,0.317,-5.337
0.212,0.054,0.317,-5.337
0.278,0.055,0.318,-5.337
0.157,0.056,0.319,-5.337
0.068,0.059,0.323,-5.337
0.115,0.056,0.322,-5.337
0.168,0.056,0.318,-5.337
0.142,0.056,0.316,-5.337
0.164,0.052,0.318,-5.337
0.214,0.050,0.324,-5.337
0.239,0.052,0.325,-5.337
0.192,0.052,0.321,-5.337
0.155,0.051,0.319,-5.337
0.102,0.052,0.321,-5.337
0.136,0.054,0.320,-5.337
0.173,0.053,0.317,-5.337
0.209,0.051,0.318,-5.337
0.275,0.050,0.321,-5.337
0.225,0.053,0.321,-5.337
0.167,0.055,0.324,-5.337
0.217,0.052,0.324,-5.337
0.168,0.051,0.318,-5.337
0.099,0.055,0.318,-5.337
0.144,0.056,0.321,-5.337
0.198,0.055,0.322,-5.337
0.205,0.056,0.321,-5.337
0.182,0.056,0.316,-5.337
0.131,0.059,0.318,-5.337
0.104,0.058,0.317,-5.337
0.139,0.056,0.319,-5.337
0.225,0.054,0.319,-5.337
0.230,0.055,0.316,-5.337
0.196,0.055,0.317,-5.337
0.137,0.056,0.321,-5.337
0.150,0.056,0.325,-5.337
0.193,0.056,0.320,-5.337
0.187,0.057,0.317,-5.337
0.194,0.055,0.317,-5.337
0.220,0.055,0.313,-5.337
0.168,0.058,0.313,-5.337
0.177,0.059,0.316,-5.337
0.209,0.060,0.316,-5.337
0.220,0.061,0.317,-5.337
0.121,0.065,0.316,-5.337
0.091,0.064,0.317,-5.337
0.125,0.058,0.317,-5.337
0.093,0.057,0.318,-5.337
0.146,0.058,0.321,-5.337
0.224,0.056,0.323,-5.337
0.224,0.057,0.320,-5.337
0.134,0.058,0.319,-5.337
0.093,0.058,0.316,-5.337
0.139,0.056,0.311,-5.337
0.243,0.056,0.310,-5.337
0.259,0.058,0.312,-5.337
0.252,0.056,0.314,-5.337
0.188,0.057,0.317,-5.337
0.142,0.057,0.319,-5.337
0.147,0.056,0.321,-5.337
0.205,0.057,0.321,-5.337
0.192,0.060,0.316,-5.337
0.180,0.062,0.312,-5.337
0.186,0.059,0.313,-5.337
0.164,0.058,0.312,-5.337
0.180,0.057,0.310,-5.337
0.259,0.058,0.312,-5.337
0.266,0.056,0.317,-5.337
0.254,0.057,0.321,-5.337
0.161,0.057,0.322,-5.337
0.113,0.058,0.321,-5.337
0.077,0.066,0.319,-5.337
0.110,0.064,0.319,-5.337
0.104,0.062,0.316,-5.337
0.158,0.061,0.314,-5.337
0.225,0.062,0.315,-5.337
0.261,0.064,0.317,-5.337
0.187,0.065,0.314,-5.337
0.192,0.064,0.316,-5.337
0.275,0.060,0.314,-5.337
0.253,0.061,0.314,-5.337
0.189,0.061,0.313,-5.337
0.185,0.064,0.314,-5.337
0.197,0.064,0.319,-5.337
0.195,0.066,0.318,-5.337
0.200,0.065,0.318,-5.337
0.182,0.064,0.316,-5.337
0.161,0.063,0.315,-5.337
0.163,0.061,0.313,-5.337
0.096,0.060,0.311,-5.337
0.070,0.061,0.312,-5.337
0.161,0.060,0.313,-5.337
0.144,0.063,0.315,-5.337
0.196,0.062,0.314,-5.337
0.275,0.060,0.315,-5.337
0.205,0.061,0.315,-5.337
0.111,0.067,0.314,-5.337
0.131,0.068,0.316,-5.337
0.180,0.065,0.316,-5.337
0.147,0.062,0.317,-5.337
0.171,0.063,0.316,-5.337
0.162,0.062,0.320,-5.337
0.180,0.062,0.322,-5.337
0.180,0.066,0.319,-5.337
0.189,0.064,0.311,-5.337
0.200,0.062,0.305,-5.337
0.223,0.060,0.309,-5.337
0.235,0.063,0.315,-5.337
0.120,0.067,0.318,-5.337
0.110,0.066,0.317,-5.337
0.191,0.062,0.315,-5.337
0.191,0.063,0.314,-5.337
0.159,0.065,0.316,-5.337
0.264,0.065,0.318,-5.337
0.166,0.070,0.318,-5.337
-0.001,0.068,0.314,-5.337
0.019,0.060,0.312,-5.337
0.096,0.062,0.312,-5.337
0.075,0.066,0.318,-5.337
0.088,0.065,0.322,-5.337
0.141,0.064,0.320,-5.337
0.173,0.065,0.317,-5.337
0.175,0.065,0.314,-5.337
0.191,0.066,0.311,-5.337
0.198,0.064,0.312,-5.337
0.243,0.060,0.312,-5.337
0.263,0.062,0.313,-5.337
0.193,0.060,0.316,-5.337
0.194,0.057,0.317,-5.337
0.312,0.051,0.318,-5.337
0.360,0.052,0.319,-5.337
0.230,0.053,0.320,-5.337
0.123,0.057,0.321,-5.337
0.147,0.056,0.322,-5.337
0.180,0.057,0.317,-5.337
0.142,0.063,0.314,-5.337
0.127,0.061,0.313,-5.337
0.205,0.060,0.311,-5.337
0.218,0.058,0.308,-5.337
0.213,0.059,0.315,-5.337
0.237,0.059,0.320,-5.337
0.196,0.062,0.319,-5.337
0.124,0.061,0.316,-5.337
0.093,0.059,0.314,-5.337
0.144,0.058,0.312,-5.337
0.149,0.059,0.313,-5.337
0.191,0.056,0.316,-5.337
0.198,0.057,0.318,-5.337
0.181,0.054,0.319,-5.337
0.246,0.052,0.318,-5.337
0.273,0.053,0.314,-5.337
0.148,0.053,0.311,-5.337
0.095,0.054,0.312,-5.337
0.138,0.054,0.312,-5.337
0.198,0.054,0.314,-5.337
0.206,0.054,0.317,-5.337
0.167,0.051,0.320,-5.337
0.247,0.050,0.318,-5.337
0.314,0.051,0.318,-5.337
0.285,0.048,0.319,-5.337
0.195,0.049,0.316,-5.337
0.130,0.053,0.314,-5.337
0.246,0.051,0.317,-5.337
0.321,0.051,0.320,-5.337
0.258,0.052,0.322,-5.337
0.257,0.051,0.320,-5.337
0.267,0.050,0.318,-5.337
0.182,0.050,0.315,-5.337
0.101,0.048,0.315,-5.337
0.126,0.047,0.317,-5.337
0.196,0.048,0.321,-5.337
0.263,0.048,0.317,-5.337
0.252,0.048,0.311,-5.337
0.168,0.049,0.308,-5.337
0.107,0.050,0.309,-5.337
0.204,0.051,0.315,-5.337
0.300,0.050,0.318,-5.337
0.328,0.051,0.319,-5.337
0.258,0.049,0.318,-5.337
0.222,0.047,0.319,-5.337
0.241,0.048,0.318,-5.337
0.170,0.050,0.316,-5.337
0.132,0.052,0.313,-5.337
0.038,0.052,0.316,-5.337
0.020,0.048,0.317,-5.337
0.147,0.047,0.315,-5.337
0.283,0.045,0.312,-5.337
0.339,0.047,0.313,-5.337
0.233,0.049,0.313,-5.337
0.196,0.048,0.316,-5.337
0.189,0.048,0.315,-5.337
0.169,0.048,0.317,-5.337
0.149,0.047,0.321,-5.337
0.105,0.050,0.322,-5.337
0.168,0.049,0.320,-5.337
0.200,0.046,0.317,-5.337
0.168,0.047,0.316,-5.337
0.174,0.052,0.314,-5.337
0.170,0.051,0.312,-5.337
0.190,0.045,0.312,-5.337
0.212,0.042,0.315,-5.337
0.222,0.042,0.318,-5.337
0.202,0.042,0.316,-5.337
0.153,0.045,0.313,-5.337
0.159,0.045,0.315,-5.337
0.229,0.045,0.315,-5.337
0.265,0.048,0.316,-5.337
0.183,0.046,0.314,-5.337
0.177,0.047,0.315,-5.337
0.182,0.049,0.313,-5.337
0.187,0.050,0.315,-5.337
0.179,0.052,0.313,-5.337
0.151,0.050,0.313,-5.337
0.159,0.047,0.313,-5.337
0.159,0.047,0.315,-5.337
0.177,0.045,0.313,-5.337
0.215,0.045,0.315,-5.337
0.252,0.043,0.315,-5.337
0.294,0.044,0.312,-5.337
0.242,0.043,0.312,-5.337
0.205,0.044,0.313,-5.337
0.165,0.049,0.313,-5.337
0.205,0.046,0.314,-5.337
0.166,0.044,0.315,-5.337
0.129,0.046,0.315,-5.337
0.132,0.046,0.313,-5.337
0.168,0.041,0.314,-5.337
0.193,0.041,0.315,-5.337
0.251,0.041,0.315,-5.337
0.267,0.042,0.314,-5.337
0.176,0.044,0.311,-5.337
0.108,0.046,0.311,-5.337
0.156,0.045,0.316,-5.337
0.163,0.044,0.320,-5.337
0.093,0.043,0.317,-5.337
0.124,0.043,0.315,-5.337
0.202,0.041,0.314,-5.337
0.220,0.047,0.315,-5.337
0.246,0.046,0.316,-5.337
0.276,0.042,0.314,-5.337
0.295,0.041,0.316,-5.337
0.309,0.039,0.319,-5.337
0.274,0.039,0.319,-5.337
0.207,0.041,0.316,-5.337
0.182,0.043,0.314,-5.337
0.168,0.042,0.312,-5.337
0.218,0.040,0.315,-5.337
0.298,0.041,0.316,-5.337
0.378,0.040,0.312,-5.337
0.285,0.043,0.309,-5.337
0.255,0.042,0.315,-5.337
0.262,0.039,0.319,-5.337
0.288,0.042,0.319,-5.337
0.198,0.045,0.311,-5.337
0.137,0.046,0.312,-5.337
0.165,0.045,0.318,-5.337
0.185,0.046,0.318,-5.337
0.167,0.045,0.312,-5.337
0.172,0.044,0.307,-5.337
0.242,0.041,0.305,-5.337
0.234,0.044,0.311,-5.337
0.192,0.044,0.316,-5.337
0.181,0.043,0.315,-5.337
0.197,0.045,0.316,-5.337
0.172,0.043,0.316,-5.337
0.156,0.044,0.316,-5.337
0.200,0.043,0.314,-5.337
0.243,0.042,0.312,-5.337
0.223,0.039,0.311,-5.337
0.207,0.038,0.310,-5.337
0.199,0.041,0.314,-5.337
0.239,0.038,0.317,-5.337
0.179,0.037,0.319,-5.337
0.140,0.036,0.320,-5.337
0.157,0.038,0.316,-5.337
0.115,0.040,0.318,-5.337
0.131,0.038,0.317,-5.337
0.180,0.037,0.316,-5.337
0.184,0.038,0.313,-5.337
0.118,0.041,0.313,-5.337
0.150,0.037,0.316,-5.337
0.229,0.038,0.312,-5.337
0.242,0.037,0.312,-5.337
0.114,0.039,0.313,-5.337
0.039,0.036,0.314,-5.337
0.183,0.031,0.313,-5.337
0.305,0.028,0.314,-5.337
0.354,0.033,0.315,-5.337
0.231,0.039,0.316,-5.337
0.183,0.034,0.316,-5.337
0.189,0.032,0.314,-5.337
0.188,0.036,0.313,-5.337
0.128,0.039,0.318,-5.337
0.152,0.035,0.320,-5.337
0.235,0.031,0.320,-5.337
0.215,0.036,0.318,-5.337
0.188,0.037,0.316,-5.337
0.183,0.039,0.314,-5.337
0.193,0.040,0.312,-5.337
0.215,0.038,0.312,-5.337
0.244,0.040,0.314,-5.337
0.237,0.041,0.315,-5.337
0.194,0.040,0.317,-5.337
0.219,0.037,0.314,-5.337
0.220,0.037,0.310,-5.337
0.173,0.038,0.311,-5.337
0.177,0.038,0.314,-5.337
0.232,0.038,0.316,-5.337
0.196,0.037,0.317,-5.337
0.157,0.037,0.317,-5.337
0.176,0.036,0.317,-5.337
0.211,0.041,0.317,-5.337
0.206,0.043,0.318,-5.337
0.167,0.041,0.315,-5.337
0.122,0.041,0.314,-5.337
0.160,0.037,0.312,-5.337
0.223,0.038,0.312,-5.337
0.223,0.040,0.313,-5.337
0.209,0.042,0.317,-5.337
0.186,0.040,0.321,-5.337
0.191,0.042,0.318,-5.337
0.174,0.042,0.316,-5.337
0.195,0.039,0.312,-5.337
0.236,0.040,0.309,-5.337
0.230,0.041,0.307,-5.337
0.156,0.038,0.312,-5.337
0.200,0.036,0.317,-5.337
0.360,0.034,0.318,-5.337
0.319,0.032,0.315,-5.337
0.228,0.036,0.311,-5.337
0.221,0.035,0.310,-5.337
0.233,0.038,0.312,-5.337
0.153,0.039,0.314,-5.337
0.120,0.042,0.318,-5.337
0.178,0.042,0.315,-5.337
0.180,0.042,0.313,-5.337
0.139,0.041,0.315,-5.337
0.191,0.038,0.317,-5.337
0.183,0.039,0.317,-5.337
0.130,0.037,0.318,-5.337
0.213,0.038,0.319,-5.337
0.237,0.039,0.316,-5.337
0.138,0.042,0.316,-5.337
0.070,0.043,0.314,-5.337
0.166,0.042,0.313,-5.337
0.241,0.041,0.314,-5.337
0.165,0.040,0.316,-5.337
0.141,0.042,0.315,-5.337
0.209,0.040,0.315,-5.337
0.280,0.040,0.310,-5.337
0.178,0.041,0.310,-5.337
0.111,0.039,0.311,-5.337
0.190,0.040,0.316,-5.337
0.259,0.039,0.317,-5.337
0.246,0.043,0.317,-5.337
0.221,0.043,0.312,-5.337
0.157,0.042,0.313,-5.337
0.114,0.040,0.315,-5.337
0.151,0.036,0.318,-5.337
0.237,0.043,0.316,-5.337
0.284,0.043,0.318,-5.337
0.203,0.043,0.321,-5.337
0.157,0.042,0.317,-5.337
0.158,0.043,0.311,-5.337
0.173,0.043,0.307,-5.337
0.258,0.039,0.309,-5.337
0.335,0.038,0.313,-5.337
0.299,0.040,0.317,-5.337
0.212,0.041,0.316,-5.337
0.262,0.039,0.319,-5.337
0.220,0.039,0.317,-5.337
0.192,0.038,0.315,-5.337
0.150,0.037,0.311,-5.337
0.140,0.040,0.310,-5.337
0.184,0.039,0.312,-5.337
0.227,0.037,0.314,-5.337
0.150,0.040,0.317,-5.337
0.147,0.040,0.317,-5.337
0.191,0.042,0.317,-5.337
0.251,0.040,0.317,-5.337
0.266,0.041,0.313,-5.337
0.208,0.042,0.310,-5.337
0.165,0.042,0.311,-5.337
0.139,0.042,0.311,-5.337
0.150,0.044,0.311,-5.337
0.119,0.047,0.315,-5.337
0.106,0.044,0.317,-5.337
0.153,0.042,0.316,-5.337
0.235,0.040,0.313,-5.337
0.242,0.039,0.313,-5.337
0.242,0.043,0.315,-5.337
0.217,0.039,0.316,-5.337
0.225,0.036,0.323,-5.337
0.194,0.037,0.323,-5.337
0.193,0.039,0.321,-5.337
0.163,0.041,0.312,-5.337
0.180,0.042,0.307,-5.337
0.231,0.041,0.311,-5.337
0.221,0.041,0.318,-5.337
0.193,0.039,0.321,-5.337
0.174,0.042,0.318,-5.337
0.086,0.044,0.315,-5.337
0.077,0.041,0.312,-5.337
0.198,0.037,0.312,-5.337
0.294,0.039,0.313,-5.337
0.229,0.041,0.315,-5.337
0.153,0.043,0.314,-5.337
0.169,0.041,0.312,-5.337
0.255,0.038,0.313,-5.337
0.191,0.043,0.315,-5.337
0.184,0.044,0.317,-5.337
0.199,0.044,0.319,-5.337
0.254,0.041,0.317,-5.337
0.217,0.039,0.318,-5.337
0.180,0.041,0.317,-5.337
0.204,0.043,0.318,-5.337
0.216,0.046,0.318,-5.337
0.219,0.044,0.318,-5.337
0.197,0.045,0.317,-5.337
0.187,0.048,0.315,-5.337
0.142,0.047,0.316,-5.337
0.124,0.046,0.316,-5.337
0.150,0.045,0.313,-5.337
0.122,0.045,0.313,-5.337
0.076,0.045,0.314,-5.337
0.117,0.044,0.319,-5.337
0.175,0.045,0.323,-5.337
0.198,0.044,0.320,-5.337
0.240,0.046,0.316,-5.337
0.225,0.047,0.313,-5.337
0.256,0.046,0.317,-5.337
0.198,0.048,0.319,-5.337
0.124,0.051,0.317,-5.337
0.146,0.047,0.314,-5.337
0.185,0.045,0.313,-5.337
0.133,0.048,0.314,-5.337
0.178,0.046,0.314,-5.337
0.202,0.045,0.314,-5.337
0.230,0.048,0.316,-5.337
0.196,0.051,0.318,-5.337
0.164,0.053,0.319,-5.337
0.167,0.047,0.317,-5.337
0.164,0.045,0.316,-5.337
0.176,0.048,0.317,-5.337
0.230,0.050,0.318,-5.337
0.283,0.048,0.317,-5.337
0.297,0.044,0.313,-5.337
0.285,0.048,0.310,-5.337
0.217,0.050,0.317,-5.337
0.133,0.050,0.323,-5.337
0.095,0.051,0.318,-5.337
0.121,0.054,0.316,-5.337
0.157,0.055,0.313,-5.337
0.206,0.052,0.313,-5.337
0.170,0.055,0.315,-5.337
0.123,0.059,0.315,-5.337
0.156,0.056,0.314,-5.337
0.199,0.054,0.316,-5.337
0.244,0.057,0.318,-5.337
0.229,0.060,0.321,-5.337
0.132,0.063,0.319,-5.337
0.107,0.063,0.318,-5.337
0.153,0.060,0.315,-5.337
0.140,0.060,0.313,-5.337
0.177,0.052,0.314,-5.337
0.150,0.055,0.316,-5.337
0.125,0.056,0.317,-5.337
0.251,0.051,0.320,-5.337
0.283,0.048,0.320,-5.337
0.213,0.049,0.316,-5.337
0.151,0.052,0.313,-5.337
0.092,0.054,0.313,-5.337
0.119,0.050,0.315,-5.337
0.148,0.052,0.319,-5.337
0.116,0.055,0.323,-5.337
0.045,0.058,0.319,-5.337
0.104,0.056,0.312,-5.337
0.198,0.056,0.309,-5.337
0.192,0.056,0.312,-5.337
0.204,0.059,0.312,-5.337
0.234,0.058,0.314,-5.337
0.226,0.056,0.315,-5.337
0.233,0.057,0.320,-5.337
0.249,0.058,0.319,-5.337
0.250,0.064,0.320,-5.337
0.220,0.063,0.319,-5.337
0.185,0.059,0.316,-5.337
0.208,0.056,0.313,-5.337
0.207,0.056,0.311,-5.337
0.212,0.054,0.311,-5.337
0.107,0.059,0.314,-5.337
0.090,0.062,0.315,-5.337
0.130,0.060,0.314,-5.337
0.185,0.060,0.315,-5.337
0.155,0.061,0.315,-5.337
0.153,0.059,0.316,-5.337
0.211,0.061,0.320,-5.337
0.172,0.062,0.321,-5.337
0.128,0.061,0.317,-5.337
0.208,0.055,0.315,-5.337
0.237,0.053,0.312,-5.337
0.203,0.057,0.312,-5.337
0.199,0.057,0.313,-5.337
0.192,0.055,0.316,-5.337
0.193,0.057,0.318,-5.337
0.220,0.059,0.315,-5.337
0.222,0.058,0.310,-5.337
0.215,0.058,0.312,-5.337
0.236,0.055,0.313,-5.337
0.235,0.056,0.315,-5.337
0.256,0.055,0.314,-5.337
0.229,0.059,0.314,-5.337
0.195,0.060,0.316,-5.337
0.183,0.060,0.320,-5.337
0.212,0.060,0.319,-5.337
0.168,0.060,0.314,-5.337
0.191,0.061,0.311,-5.337
0.202,0.063,0.310,-5.337
0.215,0.061,0.313,-5.337
0.213,0.060,0.313,-5.337
0.160,0.061,0.316,-5.337
0.174,0.061,0.317,-5.337
0.181,0.062,0.319,-5.337
0.163,0.060,0.320,-5.337
0.180,0.058,0.321,-5.337
0.179,0.060,0.317,-5.337
0.105,0.063,0.316,-5.337
0.110,0.064,0.315,-5.337
0.156,0.063,0.315,-5.337
0.155,0.062,0.315,-5.337
0.140,0.058,0.314,-5.337
0.113,0.059,0.315,-5.337
0.138,0.061,0.313,-5.337
0.209,0.061,0.313,-5.337
0.189,0.062,0.316,-5.337
0.140,0.064,0.318,-5.337
0.128,0.065,0.319,-5.337
0.142,0.064,0.320,-5.337
0.145,0.061,0.317,-5.337
0.116,0.062,0.316,-5.337
0.098,0.063,0.317,-5.337
0.106,0.060,0.316,-5.337
0.109,0.062,0.317,-5.337
0.160,0.059,0.317,-5.337
0.260,0.056,0.312,-5.337
0.269,0.057,0.309,-5.337
0.231,0.060,0.310,-5.337
0.241,0.062,0.314,-5.337
0.234,0.061,0.315,-5.337
0.197,0.061,0.315,-5.337
0.155,0.064,0.315,-5.337
0.148,0.066,0.316,-5.337
0.119,0.064,0.318,-5.337
0.165,0.061,0.319,-5.337
0.155,0.060,0.314,-5.337
0.162,0.062,0.311,-5.337
0.204,0.060,0.314,-5.337
0.175,0.064,0.320,-5.337
0.131,0.067,0.320,-5.337
0.125,0.067,0.320,-5.337
0.188,0.061,0.318,-5.337
0.291,0.061,0.317,-5.337
0.281,0.066,0.313,-5.337
0.229,0.064,0.311,-5.337
0.198,0.060,0.313,-5.337
0.209,0.064,0.313,-5.337
0.211,0.065,0.317,-5.337
0.200,0.067,0.318,-5.337
0.209,0.064,0.318,-5.337
0.287,0.063,0.317,-5.337
0.271,0.065,0.317,-5.337
0.224,0.066,0.315,-5.337
0.186,0.065,0.315,-5.337
0.189,0.062,0.315,-5.337
0.187,0.065,0.317,-5.337
0.121,0.065,0.319,-5.337
0.123,0.064,0.320,-5.337
0.189,0.060,0.320,-5.337
0.245,0.062,0.319,-5.337
0.229,0.060,0.317,-5.337
0.211,0.061,0.318,-5.337
0.229,0.061,0.315,-5.337
0.286,0.058,0.310,-5.337
0.310,0.059,0.309,-5.337
0.214,0.062,0.309,-5.337
0.222,0.061,0.312,-5.337
0.198,0.063,0.314,-5.337
0.142,0.063,0.314,-5.337
0.149,0.064,0.316,-5.337
0.155,0.063,0.318,-5.337
0.139,0.060,0.317,-5.337
0.134,0.059,0.315,-5.337
0.142,0.061,0.311,-5.337
0.182,0.066,0.314,-5.337
0.183,0.065,0.317,-5.337
0.147,0.066,0.320,-5.337
0.117,0.061,0.319,-5.337
0.189,0.059,0.319,-5.337
0.198,0.063,0.319,-5.337
0.228,0.065,0.317,-5.337
0.190,0.067,0.315,-5.337
0.165,0.066,0.316,-5.337
0.228,0.064,0.318,-5.337
0.249,0.063,0.316,-5.337
0.193,0.064,0.313,-5.337
0.167,0.066,0.315,-5.337
0.158,0.068,0.315,-5.337
0.139,0.071,0.317,-5.337
0.116,0.068,0.319,-5.337
0.192,0.069,0.318,-5.337
0.169,0.069,0.316,-5.337
0.127,0.071,0.311,-5.337
0.102,0.072,0.311,-5.337
0.090,0.067,0.313,-5.337
0.212,0.061,0.315,-5.337
0.304,0.062,0.313,-5.337
0.258,0.066,0.313,-5.337
0.170,0.066,0.310,-5.337
0.199,0.066,0.314,-5.337
0.138,0.070,0.314,-5.337
0.065,0.072,0.311,-5.337
0.111,0.066,0.312,-5.337
0.228,0.066,0.317,-5.337
0.263,0.065,0.319,-5.337
0.219,0.066,0.314,-5.337
0.137,0.069,0.310,-5.337
0.194,0.067,0.312,-5.337
0.221,0.062,0.317,-5.337
0.227,0.063,0.323,-5.337
0.233,0.066,0.321,-5.337
0.216,0.064,0.313,-5.337
0.231,0.061,0.313,-5.337
0.231,0.060,0.317,-5.337
0.218,0.060,0.320,-5.337
0.133,0.058,0.319,-5.337
0.128,0.059,0.319,-5.337
0.172,0.056,0.316,-5.337
0.239,0.056,0.318,-5.337
0.197,0.059,0.320,-5.337
0.104,0.062,0.317,-5.337
0.073,0.062,0.312,-5.337
0.095,0.062,0.312,-5.337
0.125,0.059,0.313,-5.337
0.139,0.062,0.314,-5.337
0.208,0.061,0.313,-5.337
0.168,0.065,0.315,-5.337
0.154,0.061,0.315,-5.337
0.235,0.059,0.315,-5.337
0.279,0.060,0.314,-5.337
0.304,0.064,0.313,-5.337
0.274,0.063,0.315,-5.337
0.263,0.059,0.319,-5.337
0.207,0.060,0.321,-5.337
0.205,0.062,0.321,-5.337
0.178,0.060,0.321,-5.337
0.182,0.055,0.317,-5.337
0.147,0.058,0.316,-5.337
0.092,0.063,0.317,-5.337
0.179,0.062,0.314,-5.337
0.213,0.059,0.314,-5.337
0.239,0.055,0.317,-5.337
0.288,0.055,0.318,-5.337
0.295,0.054,0.317,-5.337
0.178,0.056,0.315,-5.337
0.165,0.055,0.314,-5.337
0.158,0.055,0.314,-5.337
0.166,0.058,0.314,-5.337
0.227,0.054,0.318,-5.337
0.319,0.049,0.320,-5.337
0.284,0.051,0.318,-5.337
0.186,0.054,0.314,-5.337
0.142,0.054,0.315,-5.337
0.189,0.049,0.317,-5.337
0.183,0.052,0.317,-5.337
0.113,0.050,0.313,-5.337
0.081,0.048,0.312,-5.337
0.060,0.047,0.316,-5.337
0.072,0.049,0.318,-5.337
0.130,0.049,0.316,-5.337
0.180,0.049,0.315,-5.337
0.165,0.048,0.316,-5.337
0.163,0.051,0.316,-5.337
0.155,0.051,0.314,-5.337
0.209,0.048,0.316,-5.337
0.302,0.046,0.313,-5.337
0.275,0.047,0.315,-5.337
0.164,0.048,0.318,-5.337
0.137,0.050,0.319,-5.337
0.206,0.046,0.318,-5.337
0.239,0.049,0.320,-5.337
0.189,0.054,0.319,-5.337
0.096,0.052,0.316,-5.337
0.181,0.050,0.315,-5.337
0.212,0.049,0.316,-5.337
0.142,0.049,0.316,-5.337
0.123,0.048,0.317,-5.337
0.160,0.045,0.318,-5.337
0.211,0.046,0.320,-5.337
0.236,0.047,0.320,-5.337
0.240,0.044,0.318,-5.337
0.167,0.046,0.317,-5.337
0.179,0.044,0.317,-5.337
0.233,0.046,0.322,-5.337
0.183,0.046,0.319,-5.337
0.068,0.045,0.317,-5.337
0.115,0.040,0.315,-5.337
0.212,0.043,0.315,-5.337
0.184,0.044,0.313,-5.337
0.209,0.043,0.312,-5.337
0.227,0.040,0.311,-5.337
0.156,0.042,0.313,-5.337
0.205,0.042,0.318,-5.337
0.251,0.043,0.324,-5.337
0.274,0.044,0.321,-5.337
0.283,0.046,0.320,-5.337
0.257,0.047,0.321,-5.337
0.205,0.047,0.320,-5.337
0.142,0.050,0.319,-5.337
0.061,0.050,0.321,-5.337
0.085,0.047,0.321,-5.337
0.178,0.047,0.319,-5.337
0.172,0.046,0.315,-5.337
0.133,0.048,0.310,-5.337
0.094,0.045,0.311,-5.337
0.157,0.045,0.313,-5.337
0.239,0.040,0.317,-5.337
0.342,0.040,0.320,-5.337
0.334,0.041,0.323,-5.337
0.278,0.041,0.317,-5.337
0.257,0.045,0.319,-5.337
0.225,0.046,0.321,-5.337
0.173,0.045,0.322,-5.337
0.238,0.042,0.317,-5.337
0.304,0.041,0.316,-5.337
0.298,0.039,0.314,-5.337
0.261,0.041,0.316,-5.337
0.221,0.041,0.318,-5.337
0.169,0.045,0.319,-5.337
0.113,0.046,0.318,-5.337
0.102,0.046,0.315,-5.337
0.167,0.045,0.315,-5.337
0.237,0.042,0.316,-5.337
0.220,0.046,0.318,-5.337
0.235,0.045,0.315,-5.337
0.214,0.042,0.314,-5.337
0.165,0.043,0.317,-5.337
0.192,0.042,0.317,-5.337
0.273,0.042,0.315,-5.337
0.222,0.040,0.317,-5.337
0.155,0.042,0.317,-5.337
0.125,0.044,0.320,-5.337
0.129,0.047,0.319,-5.337
0.153,0.046,0.317,-5.337
0.201,0.042,0.316,-5.337
0.172,0.039,0.316,-5.337
0.235,0.037,0.315,-5.337
0.224,0.041,0.316,-5.337
0.255,0.040,0.316,-5.337
0.194,0.041,0.318,-5.337
0.126,0.042,0.319,-5.337
0.134,0.040,0.317,-5.337
0.183,0.042,0.314,-5.337
0.199,0.043,0.314,-5.337
0.160,0.043,0.316,-5.337
0.103,0.044,0.312,-5.337
0.133,0.041,0.311,-5.337
0.246,0.036,0.315,-5.337
0.277,0.036,0.318,-5.337
0.229,0.038,0.316,-5.337
0.254,0.038,0.317,-5.337
0.208,0.039,0.317,-5.337
0.106,0.040,0.313,-5.337
0.099,0.042,0.310,-5.337
0.163,0.043,0.311,-5.337
0.242,0.040,0.313,-5.337
0.241,0.040,0.317,-5.337
0.218,0.043,0.317,-5.337
0.224,0.042,0.318,-5.337
0.203,0.039,0.317,-5.337
0.209,0.039,0.318,-5.337
0.335,0.036,0.314,-5.337
0.350,0.037,0.313,-5.337
0.236,0.034,0.318,-5.337
0.199,0.033,0.323,-5.337
0.205,0.031,0.319,-5.337
0.238,0.029,0.315,-5.337
0.220,0.032,0.316,-5.337
0.152,0.033,0.317,-5.337
0.117,0.034,0.316,-5.337
0.159,0.034,0.314,-5.337
0.149,0.035,0.317,-5.337
0.128,0.035,0.319,-5.337
0.129,0.035,0.318,-5.337
0.201,0.035,0.315,-5.337
0.256,0.037,0.316,-5.337
0.192,0.039,0.315,-5.337
0.173,0.038,0.314,-5.337
0.198,0.037,0.312,-5.337
0.219,0.043,0.313,-5.337
0.217,0.042,0.313,-5.337
0.177,0.043,0.316,-5.337
0.217,0.041,0.313,-5.337
0.269,0.040,0.312,-5.337
0.243,0.043,0.317,-5.337
0.190,0.041,0.319,-5.337
0.239,0.034,0.319,-5.337
0.266,0.033,0.319,-5.337
0.251,0.040,0.318,-5.337
0.213,0.039,0.319,-5.337
0.226,0.033,0.319,-5.337
0.186,0.035,0.318,-5.337
0.155,0.035,0.318,-5.337
0.167,0.037,0.313,-5.337
0.147,0.040,0.311,-5.337
0.110,0.043,0.312,-5.337
0.118,0.040,0.315,-5.337
0.177,0.037,0.318,-5.337
0.249,0.039,0.320,-5.337
0.232,0.040,0.316,-5.337
0.183,0.037,0.314,-5.337
0.182,0.035,0.311,-5.337
0.235,0.036,0.315,-5.337
0.224,0.038,0.320,-5.337
0.191,0.037,0.321,-5.337
0.145,0.035,0.319,-5.337
0.166,0.035,0.317,-5.337
0.227,0.036,0.317,-5.337
0.158,0.035,0.318,-5.337
0.153,0.034,0.319,-5.337
0.165,0.035,0.320,-5.337
0.192,0.039,0.320,-5.337
0.214,0.040,0.318,-5.337
0.218,0.035,0.315,-5.337
0.265,0.032,0.314,-5.337
0.275,0.033,0.317,-5.337
0.169,0.036,0.319,-5.337
0.143,0.034,0.320,-5.337
0.185,0.034,0.320,-5.337
0.213,0.035,0.321,-5.337
0.208,0.037,0.317,-5.337
0.192,0.032,0.315,-5.337
0.223,0.033,0.315,-5.337
0.127,0.038,0.316,-5.337
0.057,0.037,0.314,-5.337
0.123,0.038,0.314,-5.337
0.255,0.038,0.316,-5.337
0.221,0.041,0.319,-5.337
0.175,0.039,0.319,-5.337
0.203,0.042,0.319,-5.337
0.226,0.037,0.318,-5.337
0.236,0.037,0.316,-5.337
0.234,0.040,0.316,-5.337
0.225,0.040,0.314,-5.337
0.266,0.039,0.308,-5.337
0.247,0.036,0.309,-5.337
0.200,0.033,0.317,-5.337
0.221,0.031,0.324,-5.337
0.211,0.031,0.325,-5.337
0.218,0.033,0.318,-5.337
0.206,0.031,0.315,-5.337
0.282,0.028,0.313,-5.337
0.279,0.033,0.312,-5.337
0.148,0.037,0.314,-5.337
0.077,0.037,0.316,-5.337
0.094,0.035,0.313,-5.337
0.178,0.033,0.310,-5.337
0.252,0.031,0.311,-5.337
0.244,0.034,0.315,-5.337
0.172,0.035,0.316,-5.337
0.170,0.036,0.317,-5.337
0.230,0.034,0.320,-5.337
0.268,0.032,0.320,-5.337
0.227,0.032,0.322,-5.337
0.186,0.030,0.319,-5.337
0.198,0.031,0.310,-5.337
0.203,0.034,0.306,-5.337
0.111,0.034,0.308,-5.337
0.067,0.033,0.313,-5.337
0.168,0.028,0.317,-5.337
0.270,0.033,0.319,-5.337
0.232,0.039,0.318,-5.337
0.143,0.040,0.315,-5.337
0.185,0.033,0.316,-5.337
0.253,0.031,0.314,-5.337
0.246,0.032,0.313,-5.337
0.207,0.034,0.313,-5.337
0.144,0.034,0.318,-5.337
0.169,0.031,0.318,-5.337
0.242,0.032,0.318,-5.337
0.260,0.034,0.316,-5.337
0.251,0.033,0.315,-5.337
0.228,0.033,0.315,-5.337
0.209,0.037,0.312,-5.337
0.192,0.034,0.316,-5.337
0.219,0.032,0.317,-5.337
0.290,0.029,0.318,-5.337
0.331,0.035,0.316,-5.337
0.320,0.036,0.315,-5.337
0.292,0.035,0.317,-5.337
0.228,0.037,0.316,-5.337
0.121,0.041,0.311,-5.337
0.084,0.040,0.309,-5.337
0.164,0.036,0.313,-5.337
0.210,0.037,0.317,-5.337
0.148,0.037,0.316,-5.337
0.169,0.039,0.312,-5.337
0.144,0.038,0.313,-5.337
0.137,0.035,0.318,-5.337
0.077,0.037,0.320,-5.337
0.131,0.037,0.319,-5.337
0.169,0.040,0.316,-5.337
0.175,0.038,0.314,-5.337
0.178,0.038,0.312,-5.337
0.135,0.041,0.311,-5.337
0.142,0.041,0.310,-5.337
0.202,0.040,0.313,-5.337
0.247,0.035,0.316,-5.337
0.251,0.038,0.317,-5.337
0.239,0.038,0.315,-5.337
0.223,0.038,0.316,-5.337
0.190,0.035,0.317,-5.337
0.140,0.038,0.316,-5.337
0.113,0.043,0.314,-5.337
0.122,0.044,0.314,-5.337
0.205,0.041,0.316,-5.337
0.258,0.040,0.317,-5.337
0.268,0.041,0.323,-5.337
0.232,0.043,0.320,-5.337
0.211,0.042,0.317,-5.337
0.204,0.040,0.315,-5.337
0.194,0.042,0.313,-5.337
0.191,0.046,0.311,-5.337
0.223,0.045,0.311,-5.337
0.201,0.045,0.316,-5.337
0.149,0.045,0.317,-5.337
0.215,0.040,0.316,-5.337
0.278,0.039,0.318,-5.337
0.290,0.037,0.319,-5.337
0.189,0.041,0.317,-5.337
0.141,0.041,0.314,-5.337
0.125,0.041,0.319,-5.337
0.153,0.045,0.323,-5.337
0.129,0.045,0.322,-5.337
0.142,0.041,0.314,-5.337
0.119,0.040,0.312,-5.337
0.180,0.040,0.315,-5.337
0.242,0.041,0.316,-5.337
0.191,0.043,0.316,-5.337
0.208,0.040,0.315,-5.337
0.219,0.037,0.318,-5.337
0.162,0.040,0.320,-5.337
0.236,0.040,0.320,-5.337
0.265,0.038,0.317,-5.337
0.252,0.041,0.313,-5.337
0.204,0.045,0.312,-5.337
0.099,0.048,0.315,-5.337
0.139,0.040,0.316,-5.337
0.186,0.041,0.315,-5.337
0.204,0.042,0.313,-5.337
0.213,0.045,0.314,-5.337
0.161,0.047,0.315,-5.337
0.180,0.043,0.318,-5.337
0.150,0.042,0.317,-5.337
0.118,0.045,0.316,-5.337
0.079,0.042,0.317,-5.337
0.146,0.039,0.316,-5.337
0.185,0.042,0.316,-5.337
0.111,0.047,0.317,-5.337
0.108,0.045,0.317,-5.337
0.161,0.041,0.315,-5.337
0.207,0.041,0.315,-5.337
0.244,0.039,0.314,-5.337
0.245,0.039,0.318,-5.337
0.259,0.038,0.321,-5.337
0.245,0.038,0.319,-5.337
0.227,0.041,0.318,-5.337
0.236,0.040,0.317,-5.337
0.239,0.042,0.313,-5.337
0.220,0.046,0.312,-5.337
0.165,0.048,0.312,-5.337
0.167,0.047,0.314,-5.337
0.237,0.044,0.318,-5.337
0.211,0.043,0.324,-5.337
0.160,0.044,0.324,-5.337
0.137,0.046,0.318,-5.337
0.182,0.046,0.314,-5.337
0.203,0.046,0.314,-5.337
0.204,0.043,0.315,-5.337
0.241,0.043,0.320,-5.337
0.288,0.042,0.320,-5.337
0.258,0.046,0.316,-5.337
0.156,0.052,0.315,-5.337
0.113,0.051,0.315,-5.337
0.121,0.049,0.315,-5.337
0.085,0.052,0.315,-5.337
0.087,0.049,0.317,-5.337
0.113,0.048,0.315,-5.337
0.178,0.050,0.315,-5.337
0.211,0.049,0.312,-5.337
0.207,0.051,0.313,-5.337
0.213,0.051,0.318,-5.337
0.264,0.050,0.317,-5.337
0.269,0.048,0.315,-5.337
0.271,0.049,0.317,-5.337
0.280,0.046,0.318,-5.337
0.302,0.044,0.318,-5.337
0.303,0.043,0.316,-5.337
0.233,0.047,0.313,-5.337
0.160,0.051,0.311,-5.337
0.134,0.053,0.315,-5.337
0.104,0.054,0.316,-5.337
0.104,0.052,0.316,-5.337
0.157,0.056,0.318,-5.337
0.199,0.058,0.315,-5.337
0.152,0.057,0.316,-5.337
0.149,0.055,0.319,-5.337
0.168,0.054,0.317,-5.337
0.154,0.053,0.314,-5.337
0.184,0.056,0.314,-5.337
0.221,0.056,0.316,-5.337
0.222,0.056,0.320,-5.337
0.254,0.053,0.318,-5.337
0.229,0.051,0.315,-5.337
0.194,0.050,0.311,-5.337
0.174,0.054,0.310,-5.337
0.145,0.053,0.310,-5.337
0.106,0.053,0.313,-5.337
0.145,0.053,0.318,-5.337
0.240,0.051,0.319,-5.337
0.174,0.052,0.315,-5.337
0.069,0.056,0.318,-5.337
0.048,0.057,0.321,-5.337
0.100,0.053,0.318,-5.337
0.141,0.053,0.312,-5.337
0.204,0.051,0.311,-5.337
0.228,0.052,0.310,-5.337
0.188,0.055,0.311,-5.337
0.179,0.054,0.315,-5.337
0.175,0.056,0.314,-5.337
0.190,0.059,0.315,-5.337
0.174,0.060,0.317,-5.337
0.197,0.053,0.318,-5.337
0.218,0.049,0.317,-5.337
0.165,0.052,0.317,-5.337
0.137,0.055,0.316,-5.337
0.102,0.054,0.313,-5.337
0.158,0.053,0.311,-5.337
0.195,0.055,0.310,-5.337
0.104,0.056,0.312,-5.337
0.056,0.056,0.314,-5.337
0.091,0.050,0.315,-5.337
0.199,0.049,0.317,-5.337
0.196,0.052,0.316,-5.337
0.149,0.052,0.313,-5.337
0.187,0.053,0.316,-5.337
0.188,0.054,0.317,-5.337
0.204,0.057,0.314,-5.337
0.223,0.054,0.312,-5.337
0.238,0.051,0.316,-5.337
0.200,0.052,0.317,-5.337
0.166,0.054,0.314,-5.337
0.217,0.052,0.312,-5.337
0.311,0.049,0.314,-5.337
0.266,0.052,0.312,-5.337
0.222,0.055,0.309,-5.337
0.217,0.054,0.310,-5.337
0.212,0.053,0.315,-5.337
0.207,0.051,0.315,-5.337
0.222,0.052,0.311,-5.337
0.183,0.052,0.308,-5.337
0.180,0.057,0.311,-5.337
0.169,0.056,0.316,-5.337
0.146,0.057,0.320,-5.337
0.114,0.058,0.318,-5.337
0.155,0.057,0.317,-5.337
0.164,0.061,0.313,-5.337
0.156,0.062,0.311,-5.337
0.089,0.062,0.313,-5.337
0.094,0.065,0.318,-5.337
0.153,0.062,0.319,-5.337
0.264,0.054,0.320,-5.337
0.275,0.052,0.318,-5.337
0.289,0.055,0.315,-5.337
0.316,0.055,0.316,-5.337
0.292,0.056,0.315,-5.337
0.242,0.061,0.314,-5.337
0.198,0.059,0.312,-5.337
0.229,0.057,0.312,-5.337
0.225,0.059,0.313,-5.337
0.149,0.064,0.315,-5.337
0.095,0.063,0.316,-5.337
0.171,0.062,0.318,-5.337
0.236,0.060,0.318,-5.337
0.135,0.063,0.315,-5.337
0.152,0.060,0.314,-5.337
0.243,0.057,0.315,-5.337
0.196,0.057,0.314,-5.337
0.082,0.060,0.315,-5.337
0.077,0.059,0.316,-5.337
0.132,0.057,0.315,-5.337
0.224,0.056,0.314,-5.337
0.260,0.056,0.316,-5.337
0.207,0.059,0.317,-5.337
0.144,0.060,0.316,-5.337
0.124,0.060,0.315,-5.337
0.138,0.061,0.314,-5.337
0.157,0.060,0.319,-5.337
0.201,0.058,0.322,-5.337
0.224,0.057,0.322,-5.337
0.206,0.056,0.317,-5.337
0.250,0.055,0.316,-5.337
0.232,0.055,0.313,-5.337
0.116,0.056,0.314,-5.337
0.111,0.053,0.314,-5.337
0.159,0.057,0.314,-5.337
0.208,0.057,0.315,-5.337
0.257,0.058,0.314,-5.337
0.175,0.054,0.314,-5.337
0.182,0.053,0.317,-5.337
0.226,0.054,0.316,-5.337
0.200,0.052,0.312,-5.337
0.161,0.053,0.311,-5.337
0.201,0.051,0.315,-5.337
0.232,0.052,0.317,-5.337
0.206,0.053,0.318,-5.337
0.175,0.053,0.321,-5.337
0.143,0.053,0.319,-5.337
0.154,0.055,0.316,-5.337
0.193,0.056,0.313,-5.337
0.175,0.057,0.314,-5.337
0.128,0.056,0.316,-5.337
0.213,0.056,0.319,-5.337
0.201,0.057,0.318,-5.337
0.079,0.053,0.316,-5.337
0.024,0.054,0.314,-5.337
0.105,0.055,0.317,-5.337
0.124,0.056,0.317,-5.337
0.082,0.058,0.314,-5.337
0.089,0.057,0.311,-5.337
0.156,0.051,0.311,-5.337
0.206,0.051,0.315,-5.337
0.243,0.052,0.316,-5.337
0.211,0.051,0.313,-5.337
0.226,0.048,0.313,-5.337
0.309,0.049,0.314,-5.337
0.284,0.053,0.314,-5.337
0.156,0.053,0.316,-5.337
0.160,0.052,0.319,-5.337
0.197,0.051,0.314,-5.337
0.229,0.053,0.312,-5.337
0.215,0.053,0.315,-5.337
0.217,0.052,0.315,-5.337
0.204,0.054,0.313,-5.337
0.220,0.053,0.311,-5.337
0.175,0.056,0.313,-5.337
0.153,0.053,0.313,-5.337
0.194,0.049,0.317,-5.337
0.187,0.049,0.319,-5.337
0.156,0.052,0.321,-5.337
0.139,0.049,0.318,-5.337
0.200,0.049,0.315,-5.337
0.254,0.045,0.314,-5.337
0.218,0.049,0.314,-5.337
0.107,0.053,0.318,-5.337
0.105,0.054,0.318,-5.337
0.199,0.049,0.315,-5.337
0.268,0.047,0.312,-5.337
0.211,0.044,0.309,-5.337
0.174,0.047,0.308,-5.337
0.134,0.052,0.312,-5.337
0.164,0.052,0.314,-5.337
0.175,0.050,0.315,-5.337
0.101,0.053,0.314,-5.337
0.104,0.055,0.314,-5.337
0.145,0.050,0.313,-5.337
0.262,0.049,0.313,-5.337
0.284,0.046,0.314,-5.337
0.189,0.048,0.318,-5.337
0.101,0.049,0.315,-5.337
0.093,0.052,0.315,-5.337
0.147,0.052,0.316,-5.337
0.148,0.049,0.319,-5.337
0.139,0.045,0.316,-5.337
0.070,0.048,0.310,-5.337
0.067,0.051,0.312,-5.337
0.044,0.051,0.317,-5.337
0.079,0.048,0.319,-5.337
0.149,0.047,0.318,-5.337
0.158,0.047,0.317,-5.337
0.120,0.049,0.315,-5.337
0.173,0.049,0.312,-5.337
0.249,0.047,0.312,-5.337
0.242,0.046,0.317,-5.337
0.177,0.047,0.318,-5.337
0.130,0.049,0.321,-5.337
0.210,0.044,0.318,-5.337
0.275,0.042,0.317,-5.337
0.236,0.044,0.314,-5.337
0.230,0.042,0.316,-5.337
0.267,0.045,0.313,-5.337
0.233,0.046,0.313,-5.337
0.239,0.044,0.314,-5.337
0.315,0.042,0.316,-5.337
0.298,0.042,0.316,-5.337
0.224,0.044,0.315,-5.337
0.221,0.042,0.315,-5.337
0.214,0.044,0.317,-5.337
0.174,0.045,0.318,-5.337
0.136,0.042,0.321,-5.337
0.124,0.040,0.317,-5.337
0.222,0.039,0.311,-5.337
0.265,0.040,0.312,-5.337
0.292,0.039,0.318,-5.337
0.281,0.041,0.323,-5.337
0.179,0.039,0.321,-5.337
0.136,0.040,0.318,-5.337
0.158,0.040,0.314,-5.337
0.160,0.039,0.317,-5.337
0.206,0.037,0.315,-5.337
0.219,0.037,0.314,-5.337
0.219,0.037,0.316,-5.337
0.188,0.041,0.320,-5.337
0.149,0.040,0.321,-5.337
0.162,0.038,0.319,-5.337
0.156,0.040,0.316,-5.337
0.147,0.042,0.316,-5.337
0.229,0.042,0.318,-5.337
0.237,0.045,0.317,-5.337
0.173,0.042,0.312,-5.337
0.195,0.039,0.311,-5.337
0.238,0.041,0.315,-5.337
0.198,0.047,0.318,-5.337
0.132,0.045,0.315,-5.337
0.143,0.045,0.314,-5.337
0.146,0.040,0.314,-5.337
0.203,0.039,0.314,-5.337
0.229,0.045,0.316,-5.337
0.176,0.049,0.319,-5.337
0.089,0.048,0.320,-5.337
0.056,0.047,0.318,-5.337
0.092,0.045,0.316,-5.337
0.147,0.044,0.314,-5.337
0.162,0.043,0.315,-5.337
0.181,0.041,0.314,-5.337
0.211,0.043,0.316,-5.337
0.193,0.045,0.316,-5.337
0.192,0.040,0.317,-5.337
0.272,0.038,0.317,-5.337
0.296,0.041,0.315,-5.337
0.294,0.038,0.314,-5.337
0.259,0.041,0.314,-5.337
0.225,0.039,0.315,-5.337
0.253,0.037,0.315,-5.337
0.262,0.036,0.316,-5.337
0.227,0.040,0.320,-5.337
0.185,0.042,0.316,-5.337
0.157,0.043,0.314,-5.337
0.116,0.039,0.317,-5.337
0.201,0.040,0.315,-5.337
0.216,0.040,0.309,-5.337
0.214,0.041,0.307,-5.337
0.237,0.038,0.312,-5.337
0.231,0.035,0.313,-5.337
0.215,0.035,0.319,-5.337
0.173,0.037,0.324,-5.337
0.158,0.042,0.324,-5.337
0.162,0.040,0.318,-5.337
0.233,0.038,0.314,-5.337
0.243,0.043,0.311,-5.337
0.295,0.043,0.313,-5.337
0.314,0.044,0.316,-5.337
0.296,0.041,0.318,-5.337
0.287,0.041,0.320,-5.337
0.253,0.040,0.316,-5.337
0.284,0.036,0.311,-5.337
0.270,0.039,0.310,-5.337
0.173,0.042,0.313,-5.337
0.163,0.041,0.317,-5.337
0.247,0.040,0.317,-5.337
0.226,0.042,0.317,-5.337
0.168,0.044,0.317,-5.337
0.144,0.041,0.318,-5.337
0.120,0.040,0.318,-5.337
0.100,0.039,0.314,-5.337
0.079,0.037,0.314,-5.337
0.192,0.034,0.316,-5.337
0.288,0.035,0.319,-5.337
0.246,0.035,0.318,-5.337
0.151,0.037,0.318,-5.337
0.168,0.036,0.315,-5.337
0.202,0.037,0.311,-5.337
0.193,0.034,0.307,-5.337
0.178,0.032,0.312,-5.337
0.138,0.036,0.312,-5.337
0.146,0.041,0.317,-5.337
0.131,0.043,0.320,-5.337
0.073,0.043,0.320,-5.337
0.104,0.039,0.316,-5.337
0.234,0.038,0.313,-5.337
0.225,0.038,0.313,-5.337
0.150,0.043,0.314,-5.337
0.171,0.039,0.316,-5.337
0.233,0.037,0.318,-5.337
0.254,0.039,0.317,-5.337
0.252,0.037,0.320,-5.337
0.210,0.036,0.322,-5.337
0.136,0.038,0.321,-5.337
0.191,0.038,0.319,-5.337
0.213,0.037,0.319,-5.337
0.188,0.038,0.315,-5.337
0.134,0.038,0.310,-5.337
0.191,0.042,0.313,-5.337
0.258,0.043,0.316,-5.337
0.290,0.040,0.314,-5.337
0.314,0.040,0.313,-5.337
0.325,0.041,0.315,-5.337
0.269,0.045,0.314,-5.337
0.228,0.047,0.311,-5.337
0.153,0.046,0.308,-5.337
0.078,0.045,0.309,-5.337
0.149,0.040,0.313,-5.337
0.257,0.040,0.316,-5.337
0.250,0.040,0.319,-5.337
0.244,0.039,0.321,-5.337
0.253,0.038,0.319,-5.337
0.248,0.040,0.316,-5.337
0.213,0.045,0.316,-5.337
0.228,0.042,0.315,-5.337
0.165,0.040,0.315,-5.337
0.183,0.039,0.316,-5.337
0.240,0.038,0.316,-5.337
0.209,0.039,0.315,-5.337
0.177,0.035,0.314,-5.337
0.190,0.035,0.312,-5.337
0.223,0.032,0.314,-5.337
0.261,0.029,0.316,-5.337
0.238,0.032,0.319,-5.337
0.174,0.032,0.319,-5.337
0.200,0.032,0.317,-5.337
0.234,0.032,0.316,-5.337
0.217,0.034,0.314,-5.337
0.174,0.034,0.316,-5.337
0.137,0.036,0.317,-5.337
0.169,0.036,0.317,-5.337
0.237,0.033,0.317,-5.337
0.248,0.034,0.315,-5.337
0.214,0.032,0.313,-5.337
0.181,0.037,0.319,-5.337
0.177,0.042,0.321,-5.337
0.246,0.036,0.318,-5.337
0.254,0.033,0.309,-5.337
0.238,0.035,0.305,-5.337
0.232,0.036,0.308,-5.337
0.267,0.033,0.313,-5.337
0.230,0.034,0.311,-5.337
0.139,0.039,0.312,-5.337
0.090,0.044,0.316,-5.337
0.093,0.045,0.321,-5.337
0.187,0.039,0.318,-5.337
0.151,0.040,0.317,-5.337
0.120,0.040,0.314,-5.337
0.152,0.039,0.317,-5.337
0.211,0.038,0.320,-5.337
0.222,0.037,0.319,-5.337
0.135,0.035,0.317,-5.337
0.090,0.033,0.317,-5.337
0.127,0.031,0.320,-5.337
0.192,0.032,0.318,-5.337
0.188,0.039,0.317,-5.337
0.151,0.042,0.316,-5.337
0.120,0.040,0.314,-5.337
0.133,0.035,0.312,-5.337
0.193,0.031,0.309,-5.337
0.166,0.035,0.313,-5.337
0.121,0.036,0.317,-5.337
0.226,0.034,0.315,-5.337
0.260,0.037,0.313,-5.337
0.230,0.037,0.313,-5.337
0.277,0.036,0.314,-5.337
0.308,0.032,0.313,-5.337
0.280,0.034,0.312,-5.337
0.249,0.031,0.311,-5.337
0.280,0.029,0.316,-5.337
0.324,0.029,0.318,-5.337
0.266,0.032,0.320,-5.337
0.227,0.027,0.316,-5.337
0.187,0.032,0.313,-5.337
0.165,0.032,0.314,-5.337
0.170,0.033,0.317,-5.337
0.114,0.036,0.320,-5.337
0.169,0.036,0.319,-5.337
0.207,0.037,0.314,-5.337
0.217,0.037,0.312,-5.337
0.247,0.037,0.311,-5.337
0.238,0.037,0.313,-5.337
0.229,0.037,0.315,-5.337
0.307,0.036,0.318,-5.337
0.302,0.035,0.321,-5.337
0.258,0.038,0.318,-5.337
0.236,0.040,0.311,-5.337
0.246,0.038,0.310,-5.337
0.267,0.032,0.313,-5.337
0.286,0.034,0.314,-5.337
0.228,0.037,0.319,-5.337
0.235,0.040,0.320,-5.337
0.278,0.036,0.317,-5.337
0.278,0.039,0.311,-5.337
0.173,0.041,0.307,-5.337
0.122,0.042,0.309,-5.337
0.170,0.043,0.314,-5.337
0.215,0.041,0.315,-5.337
0.201,0.041,0.314,-5.337
0.149,0.042,0.314,-5.337
0.156,0.041,0.316,-5.337
0.161,0.049,0.319,-5.337
0.057,0.049,0.319,-5.337
0.054,0.042,0.317,-5.337
0.138,0.042,0.315,-5.337
0.159,0.044,0.316,-5.337
0.178,0.043,0.317,-5.337
0.194,0.040,0.315,-5.337
0.186,0.038,0.316,-5.337
0.162,0.043,0.318,-5.337
0.207,0.047,0.319,-5.337
0.219,0.043,0.316,-5.337
0.284,0.039,0.312,-5.337
0.270,0.040,0.313,-5.337
0.170,0.045,0.314,-5.337
0.137,0.046,0.318,-5.337
0.177,0.045,0.313,-5.337
0.233,0.045,0.311,-5.337
0.230,0.045,0.309,-5.337
0.216,0.046,0.309,-5.337
0.179,0.047,0.309,-5.337
0.142,0.046,0.309,-5.337
0.191,0.043,0.314,-5.337
0.216,0.044,0.317,-5.337
0.220,0.043,0.317,-5.337
0.285,0.042,0.316,-5.337
0.221,0.040,0.316,-5.337
0.077,0.046,0.317,-5.337
0.091,0.045,0.314,-5.337
0.177,0.039,0.312,-5.337
0.214,0.043,0.313,-5.337
0.200,0.044,0.314,-5.337
0.156,0.046,0.315,-5.337
0.204,0.043,0.318,-5.337
0.250,0.043,0.320,-5.337
0.212,0.045,0.317,-5.337
0.185,0.046,0.315,-5.337
0.195,0.047,0.313,-5.337
0.146,0.048,0.311,-5.337
0.207,0.044,0.314,-5.337
0.291,0.043,0.319,-5.337
0.241,0.046,0.319,-5.337
0.202,0.047,0.319,-5.337
0.242,0.045,0.315,-5.337
0.260,0.049,0.312,-5.337
0.182,0.054,0.308,-5.337
0.181,0.055,0.310,-5.337
0.174,0.051,0.314,-5.337
0.114,0.051,0.313,-5.337
0.136,0.050,0.311,-5.337
0.174,0.052,0.316,-5.337
0.190,0.050,0.321,-5.337
0.168,0.049,0.320,-5.337
0.201,0.049,0.318,-5.337
0.197,0.051,0.316,-5.337
0.194,0.052,0.316,-5.337
0.167,0.056,0.316,-5.337
0.088,0.054,0.319,-5.337
0.099,0.050,0.317,-5.337
0.205,0.048,0.316,-5.337
0.296,0.048,0.314,-5.337
0.228,0.054,0.314,-5.337
0.164,0.051,0.315,-5.337
0.163,0.050,0.318,-5.337
0.195,0.049,0.318,-5.337
0.297,0.051,0.316,-5.337
0.307,0.054,0.317,-5.337
0.147,0.055,0.314,-5.337
0.128,0.054,0.307,-5.337
0.142,0.056,0.310,-5.337
0.089,0.054,0.316,-5.337
0.168,0.049,0.319,-5.337
0.267,0.051,0.319,-5.337
0.287,0.054,0.317,-5.337
0.235,0.054,0.311,-5.337
0.158,0.056,0.302,-5.337
0.138,0.056,0.303,-5.337
0.170,0.057,0.310,-5.337
0.183,0.059,0.322,-5.337
0.126,0.056,0.325,-5.337
0.108,0.051,0.321,-5.337
0.170,0.051,0.316,-5.337
0.205,0.052,0.314,-5.337
0.183,0.054,0.316,-5.337
0.209,0.053,0.320,-5.337
0.259,0.052,0.321,-5.337
0.253,0.052,0.318,-5.337
0.199,0.053,0.315,-5.337
0.126,0.056,0.316,-5.337
0.139,0.058,0.317,-5.337
0.169,0.055,0.318,-5.337
0.221,0.051,0.314,-5.337
0.229,0.052,0.311,-5.337
0.202,0.056,0.312,-5.337
0.181,0.056,0.315,-5.337
0.195,0.057,0.318,-5.337
0.176,0.057,0.315,-5.337
0.202,0.057,0.313,-5.337
0.177,0.054,0.312,-5.337
0.226,0.052,0.314,-5.337
0.270,0.050,0.314,-5.337
0.280,0.051,0.317,-5.337
0.261,0.048,0.319,-5.337
0.174,0.052,0.317,-5.337
0.123,0.053,0.315,-5.337
0.068,0.055,0.315,-5.337
0.064,0.055,0.310,-5.337
0.141,0.056,0.309,-5.337
0.229,0.052,0.313,-5.337
0.261,0.056,0.313,-5.337
0.211,0.057,0.310,-5.337
0.222,0.059,0.311,-5.337
0.201,0.056,0.312,-5.337
0.188,0.054,0.316,-5.337
0.163,0.054,0.319,-5.337
0.181,0.056,0.319,-5.337
0.194,0.059,0.316,-5.337
0.136,0.061,0.315,-5.337
0.119,0.061,0.314,-5.337
0.154,0.059,0.316,-5.337
0.251,0.061,0.318,-5.337
0.243,0.062,0.318,-5.337
0.224,0.061,0.316,-5.337
0.266,0.057,0.313,-5.337
0.217,0.059,0.315,-5.337
0.093,0.061,0.318,-5.337
0.136,0.059,0.318,-5.337
0.190,0.061,0.315,-5.337
0.098,0.063,0.316,-5.337
0.085,0.060,0.317,-5.337
0.146,0.057,0.317,-5.337
0.088,0.058,0.314,-5.337
0.145,0.056,0.313,-5.337
0.207,0.056,0.314,-5.337
0.186,0.058,0.315,-5.337
0.217,0.058,0.312,-5.337
0.269,0.057,0.311,-5.337
0.250,0.059,0.309,-5.337
0.146,0.060,0.309,-5.337
0.101,0.060,0.314,-5.337
0.117,0.061,0.318,-5.337
0.154,0.061,0.316,-5.337
0.130,0.063,0.317,-5.337
0.134,0.058,0.316,-5.337
0.171,0.060,0.314,-5.337
0.193,0.061,0.316,-5.337
0.163,0.060,0.315,-5.337
0.208,0.058,0.317,-5.337
0.204,0.060,0.314,-5.337
0.189,0.063,0.315,-5.337
0.181,0.060,0.313,-5.337
0.207,0.059,0.315,-5.337
0.170,0.057,0.313,-5.337
0.108,0.061,0.314,-5.337
0.157,0.059,0.314,-5.337
0.238,0.058,0.312,-5.337
0.260,0.060,0.314,-5.337
0.255,0.060,0.316,-5.337
0.211,0.061,0.317,-5.337
0.267,0.060,0.320,-5.337
0.291,0.060,0.318,-5.337
0.249,0.063,0.316,-5.337
0.149,0.064,0.316,-5.337
0.090,0.064,0.318,-5.337
0.126,0.059,0.317,-5.337
0.216,0.056,0.315,-5.337
0.296,0.052,0.313,-5.337
0.254,0.055,0.313,-5.337
0.199,0.061,0.315,-5.337
0.220,0.062,0.311,-5.337
0.216,0.061,0.310,-5.337
0.167,0.060,0.309,-5.337
0.140,0.061,0.312,-5.337
0.185,0.062,0.310,-5.337
0.265,0.061,0.305,-5.337
0.301,0.062,0.305,-5.337
0.270,0.063,0.313,-5.337
0.207,0.065,0.319,-5.337
0.136,0.064,0.325,-5.337
0.158,0.063,0.322,-5.337
0.221,0.060,0.317,-5.337
0.279,0.058,0.308,-5.337
0.188,0.060,0.308,-5.337
0.176,0.061,0.312,-5.337
0.248,0.061,0.314,-5.337
0.224,0.061,0.315,-5.337
0.162,0.061,0.317,-5.337
0.141,0.059,0.319,-5.337
0.185,0.056,0.317,-5.337
0.216,0.058,0.315,-5.337
0.235,0.058,0.309,-5.337
0.152,0.059,0.308,-5.337
0.074,0.059,0.312,-5.337
0.162,0.060,0.313,-5.337
0.217,0.062,0.314,-5.337
0.124,0.061,0.314,-5.337
0.109,0.059,0.311,-5.337
0.144,0.060,0.311,-5.337
0.119,0.061,0.315,-5.337
0.042,0.062,0.316,-5.337
0.106,0.061,0.316,-5.337
0.151,0.062,0.316,-5.337
0.160,0.057,0.311,-5.337
0.079,0.059,0.309,-5.337
0.074,0.059,0.311,-5.337
0.175,0.062,0.312,-5.337
0.194,0.064,0.311,-5.337
0.197,0.065,0.311,-5.337
0.255,0.062,0.315,-5.337
0.253,0.061,0.314,-5.337
0.198,0.064,0.314,-5.337
0.153,0.065,0.312,-5.337
0.107,0.066,0.315,-5.337
0.135,0.066,0.320,-5.337
0.177,0.063,0.320,-5.337
0.195,0.059,0.315,-5.337
0.196,0.064,0.314,-5.337
0.201,0.064,0.313,-5.337
0.220,0.063,0.312,-5.337
0.195,0.063,0.315,-5.337
0.180,0.066,0.318,-5.337
0.115,0.064,0.317,-5.337
0.095,0.064,0.315,-5.337
0.147,0.064,0.312,-5.337
0.173,0.064,0.312,-5.337
0.189,0.064,0.311,-5.337
0.188,0.063,0.313,-5.337
0.102,0.065,0.317,-5.337
0.072,0.064,0.317,-5.337
0.152,0.063,0.317,-5.337
0.221,0.062,0.317,-5.337
0.273,0.061,0.317,-5.337
0.200,0.062,0.313,-5.337
0.220,0.060,0.310,-5.337
0.248,0.057,0.310,-5.337
0.230,0.060,0.310,-5.337
0.183,0.063,0.310,-5.337
0.213,0.062,0.314,-5.337
0.192,0.061,0.317,-5.337
0.191,0.061,0.321,-5.337
0.186,0.059,0.317,-5.337
0.179,0.061,0.315,-5.337
0.226,0.056,0.315,-5.337
0.204,0.056,0.317,-5.337
0.168,0.058,0.317,-5.337
0.181,0.055,0.314,-5.337
0.145,0.056,0.312,-5.337
0.096,0.057,0.311,-5.337
0.167,0.055,0.310,-5.337
0.263,0.054,0.312,-5.337
0.230,0.053,0.312,-5.337
0.183,0.056,0.309,-5.337
0.137,0.059,0.309,-5.337
0.140,0.058,0.313,-5.337
0.147,0.060,0.315,-5.337
0.130,0.057,0.312,-5.337
0.127,0.055,0.314,-5.337
0.117,0.054,0.312,-5.337
0.135,0.054,0.309,-5.337
0.140,0.057,0.307,-5.337
0.156,0.055,0.315,-5.337
0.253,0.052,0.320,-5.337
0.280,0.054,0.321,-5.337
0.200,0.054,0.319,-5.337
0.171,0.053,0.316,-5.337
0.205,0.053,0.314,-5.337
0.227,0.054,0.317,-5.337
0.257,0.051,0.317,-5.337
0.210,0.053,0.318,-5.337
0.158,0.052,0.317,-5.337
0.142,0.054,0.315,-5.337
0.147,0.051,0.310,-5.337
0.170,0.055,0.312,-5.337
0.185,0.058,0.317,-5.337
0.180,0.054,0.316,-5.337
0.158,0.053,0.311,-5.337
0.103,0.056,0.311,-5.337
0.105,0.054,0.317,-5.337
0.166,0.053,0.314,-5.337
0.152,0.052,0.311,-5.337
0.134,0.054,0.309,-5.337
0.161,0.054,0.314,-5.337
0.191,0.052,0.313,-5.337
0.196,0.048,0.314,-5.337
0.233,0.044,0.315,-5.337
0.272,0.044,0.311,-5.337
0.277,0.045,0.313,-5.337
0.242,0.050,0.315,-5.337
0.164,0.048,0.314,-5.337
0.167,0.046,0.312,-5.337
0.205,0.047,0.311,-5.337
0.267,0.049,0.310,-5.337
0.234,0.050,0.310,-5.337
0.135,0.053,0.313,-5.337
0.130,0.051,0.312,-5.337
0.124,0.051,0.311,-5.337
0.158,0.050,0.316,-5.337
0.187,0.047,0.319,-5.337
0.233,0.045,0.317,-5.337
0.338,0.044,0.315,-5.337
0.306,0.048,0.312,-5.337
0.265,0.052,0.313,-5.337
0.241,0.050,0.317,-5.337
0.191,0.052,0.317,-5.337
0.136,0.054,0.313,-5.337
0.135,0.052,0.311,-5.337
0.149,0.051,0.317,-5.337
0.178,0.050,0.317,-5.337
0.249,0.048,0.317,-5.337
0.233,0.049,0.317,-5.337
0.186,0.050,0.313,-5.337
0.190,0.049,0.310,-5.337
0.201,0.049,0.311,-5.337
0.156,0.047,0.312,-5.337
0.123,0.046,0.312,-5.337
0.187,0.047,0.312,-5.337
0.282,0.046,0.313,-5.337
0.274,0.048,0.314,-5.337
0.199,0.049,0.315,-5.337
0.213,0.047,0.316,-5.337
0.182,0.045,0.315,-5.337
0.125,0.048,0.312,-5.337
0.184,0.050,0.313,-5.337
0.246,0.044,0.317,-5.337
0.255,0.044,0.319,-5.337
0.225,0.044,0.317,-5.337
0.127,0.049,0.313,-5.337
0.146,0.051,0.316,-5.337
0.229,0.051,0.316,-5.337
0.225,0.051,0.322,-5.337
0.158,0.051,0.323,-5.337
0.157,0.050,0.320,-5.337
0.135,0.051,0.316,-5.337
0.192,0.050,0.315,-5.337
0.280,0.045,0.312,-5.337
0.227,0.044,0.309,-5.337
0.139,0.043,0.307,-5.337
0.102,0.040,0.309,-5.337
0.156,0.040,0.310,-5.337
0.135,0.044,0.313,-5.337
0.123,0.045,0.317,-5.337
0.191,0.039,0.317,-5.337
0.276,0.038,0.314,-5.337
0.227,0.041,0.313,-5.337
0.175,0.038,0.316,-5.337
0.248,0.038,0.318,-5.337
0.307,0.039,0.317,-5.337
0.279,0.043,0.317,-5.337
0.206,0.044,0.317,-5.337
0.194,0.042,0.316,-5.337
0.207,0.043,0.319,-5.337
0.208,0.041,0.315,-5.337
0.237,0.038,0.311,-5.337
0.267,0.036,0.313,-5.337
0.262,0.037,0.317,-5.337
0.203,0.038,0.317,-5.337
0.162,0.040,0.315,-5.337
0.086,0.040,0.311,-5.337
0.035,0.040,0.307,-5.337
0.075,0.039,0.305,-5.337
0.112,0.041,0.309,-5.337
0.185,0.042,0.317,-5.337
0.211,0.042,0.321,-5.337
0.191,0.043,0.320,-5.337
0.210,0.043,0.317,-5.337
0.240,0.043,0.314,-5.337
0.222,0.044,0.312,-5.337
0.200,0.043,0.310,-5.337
0.184,0.045,0.308,-5.337
0.262,0.044,0.310,-5.337
0.275,0.045,0.312,-5.337
0.218,0.042,0.315,-5.337
0.204,0.044,0.315,-5.337
0.212,0.044,0.315,-5.337
0.204,0.039,0.314,-5.337
0.154,0.043,0.314,-5.337
0.131,0.040,0.311,-5.337
0.234,0.036,0.311,-5.337
0.264,0.037,0.314,-5.337
0.167,0.038,0.317,-5.337
0.137,0.039,0.318,-5.337
0.154,0.040,0.318,-5.337
0.167,0.044,0.315,-5.337
0.199,0.041,0.315,-5.337
0.291,0.039,0.314,-5.337
0.311,0.042,0.312,-5.337
0.309,0.047,0.312,-5.337
0.265,0.046,0.317,-5.337
0.256,0.046,0.318,-5.337
0.289,0.047,0.317,-5.337
0.281,0.046,0.315,-5.337
0.219,0.043,0.311,-5.337
0.229,0.045,0.311,-5.337
0.226,0.043,0.309,-5.337
0.214,0.040,0.308,-5.337
0.196,0.042,0.311,-5.337
0.147,0.043,0.319,-5.337
0.155,0.042,0.323,-5.337
0.193,0.040,0.320,-5.337
0.222,0.042,0.312,-5.337
0.188,0.045,0.308,-5.337
0.209,0.042,0.314,-5.337
0.196,0.043,0.316,-5.337
0.120,0.046,0.315,-5.337
0.139,0.044,0.314,-5.337
0.153,0.042,0.313,-5.337
0.188,0.043,0.314,-5.337
0.269,0.041,0.312,-5.337
0.282,0.039,0.312,-5.337
0.278,0.043,0.311,-5.337
0.240,0.047,0.313,-5.337
0.192,0.049,0.316,-5.337
0.207,0.045,0.315,-5.337
0.242,0.042,0.316,-5.337
0.258,0.039,0.320,-5.337
0.250,0.036,0.323,-5.337
0.248,0.037,0.320,-5.337
0.150,0.041,0.317,-5.337
0.037,0.042,0.312,-5.337
0.102,0.042,0.313,-5.337
0.238,0.038,0.312,-5.337
0.301,0.036,0.315,-5.337
0.292,0.037,0.316,-5.337
0.263,0.039,0.315,-5.337
0.289,0.035,0.315,-5.337
0.279,0.038,0.317,-5.337
0.232,0.041,0.317,-5.337
0.183,0.040,0.317,-5.337
0.184,0.037,0.320,-5.337
0.213,0.038,0.318,-5.337
0.171,0.040,0.314,-5.337
0.104,0.041,0.313,-5.337
0.130,0.042,0.315,-5.337
0.210,0.042,0.316,-5.337
0.248,0.041,0.315,-5.337
0.140,0.043,0.314,-5.337
0.099,0.043,0.313,-5.337
0.131,0.043,0.316,-5.337
0.135,0.042,0.320,-5.337
0.136,0.046,0.317,-5.337
0.155,0.047,0.314,-5.337
0.186,0.046,0.312,-5.337
0.221,0.044,0.313,-5.337
0.205,0.044,0.312,-5.337
0.247,0.043,0.313,-5.337
0.252,0.046,0.312,-5.337
0.200,0.047,0.315,-5.337
0.179,0.046,0.317,-5.337
0.200,0.042,0.315,-5.337
0.147,0.047,0.309,-5.337
0.117,0.049,0.311,-5.337
0.146,0.047,0.317,-5.337
0.180,0.044,0.317,-5.337
0.230,0.039,0.314,-5.337
0.265,0.039,0.311,-5.337
0.179,0.043,0.312,-5.337
0.160,0.042,0.315,-5.337
0.241,0.040,0.314,-5.337
0.202,0.043,0.311,-5.337
0.203,0.045,0.312,-5.337
0.251,0.040,0.310,-5.337
0.285,0.041,0.310,-5.337
0.286,0.041,0.308,-5.337
0.246,0.041,0.309,-5.337
0.203,0.042,0.311,-5.337
0.214,0.042,0.313,-5.337
0.199,0.042,0.313,-5.337
0.214,0.042,0.313,-5.337
0.205,0.045,0.313,-5.337
0.172,0.043,0.312,-5.337
0.207,0.042,0.310,-5.337
0.236,0.043,0.312,-5.337
0.167,0.044,0.314,-5.337
0.085,0.045,0.317,-5.337
0.133,0.042,0.316,-5.337
0.226,0.039,0.311,-5.337
0.265,0.043,0.313,-5.337
0.227,0.046,0.317,-5.337
0.183,0.043,0.315,-5.337
0.219,0.036,0.314,-5.337
0.260,0.041,0.317,-5.337
0.310,0.041,0.317,-5.337
0.285,0.043,0.314,-5.337
0.231,0.042,0.307,-5.337
0.232,0.042,0.304,-5.337
0.178,0.048,0.302,-5.337
0.184,0.047,0.310,-5.337
0.216,0.046,0.317,-5.337
0.217,0.046,0.318,-5.337
0.177,0.047,0.317,-5.337
0.195,0.043,0.313,-5.337
0.165,0.042,0.309,-5.337
0.088,0.046,0.311,-5.337
0.070,0.045,0.313,-5.337
0.141,0.047,0.314,-5.337
0.228,0.045,0.313,-5.337
0.242,0.046,0.312,-5.337
0.261,0.046,0.312,-5.337
0.212,0.043,0.312,-5.337
0.215,0.040,0.315,-5.337
0.237,0.042,0.315,-5.337
0.255,0.043,0.313,-5.337
0.172,0.048,0.314,-5.337
0.131,0.047,0.314,-5.337
0.139,0.047,0.312,-5.337
0.161,0.044,0.313,-5.337
0.116,0.045,0.316,-5.337
0.150,0.047,0.317,-5.337
0.210,0.047,0.314,-5.337
0.194,0.046,0.317,-5.337
0.205,0.045,0.318,-5.337
0.159,0.052,0.313,-5.337
0.082,0.052,0.309,-5.337
0.132,0.047,0.311,-5.337
0.273,0.041,0.315,-5.337
0.310,0.043,0.318,-5.337
0.183,0.049,0.316,-5.337
0.135,0.048,0.312,-5.337
0.223,0.042,0.310,-5.337
0.273,0.043,0.310,-5.337
0.204,0.045,0.310,-5.337
0.203,0.046,0.314,-5.337
0.232,0.047,0.315,-5.337
0.235,0.046,0.318,-5.337
0.223,0.044,0.319,-5.337
0.132,0.048,0.320,-5.337
0.072,0.051,0.318,-5.337
0.099,0.048,0.312,-5.337
0.161,0.046,0.308,-5.337
0.158,0.047,0.309,-5.337
0.121,0.049,0.315,-5.337
0.139,0.046,0.317,-5.337
0.130,0.046,0.316,-5.337
0.191,0.044,0.312,-5.337
0.283,0.043,0.314,-5.337
0.194,0.046,0.318,-5.337
0.139,0.049,0.317,-5.337
0.179,0.047,0.313,-5.337
0.238,0.047,0.313,-5.337
0.229,0.048,0.316,-5.337
0.231,0.051,0.316,-5.337
0.185,0.051,0.311,-5.337
0.269,0.048,0.311,-5.337
0.272,0.051,0.313,-5.337
0.185,0.051,0.316,-5.337
0.173,0.051,0.315,-5.337
0.221,0.049,0.314,-5.337
0.175,0.051,0.315,-5.337
0.131,0.049,0.315,-5.337
0.140,0.050,0.316,-5.337
0.164,0.051,0.311,-5.337
0.194,0.052,0.310,-5.337
0.253,0.051,0.311,-5.337
0.200,0.051,0.312,-5.337
0.189,0.050,0.311,-5.337
0.204,0.048,0.312,-5.337
0.239,0.046,0.314,-5.337
0.212,0.048,0.316,-5.337
0.191,0.046,0.315,-5.337
0.157,0.050,0.316,-5.337
0.158,0.050,0.317,-5.337
0.174,0.051,0.318,-5.337
0.189,0.053,0.314,-5.337
0.220,0.052,0.307,-5.337
0.255,0.048,0.307,-5.337
0.269,0.048,0.314,-5.337
0.306,0.048,0.318,-5.337
0.213,0.051,0.319,-5.337
0.177,0.053,0.316,-5.337
0.219,0.049,0.313,-5.337
0.239,0.047,0.316,-5.337
0.213,0.050,0.317,-5.337
0.147,0.052,0.317,-5.337
0.133,0.050,0.316,-5.337
0.180,0.047,0.313,-5.337
0.307,0.046,0.309,-5.337
0.322,0.049,0.311,-5.337
0.215,0.050,0.311,-5.337
0.173,0.049,0.312,-5.337
0.204,0.046,0.311,-5.337
0.200,0.049,0.310,-5.337
0.158,0.052,0.311,-5.337
0.113,0.051,0.312,-5.337
0.136,0.051,0.313,-5.337
0.211,0.050,0.314,-5.337
0.228,0.047,0.312,-5.337
0.160,0.049,0.313,-5.337
0.106,0.054,0.315,-5.337
0.166,0.053,0.318,-5.337
0.236,0.050,0.315,-5.337
0.251,0.052,0.315,-5.337
0.225,0.053,0.317,-5.337
0.204,0.053,0.318,-5.337
0.204,0.052,0.320,-5.337
0.204,0.053,0.319,-5.337
0.154,0.051,0.317,-5.337
0.148,0.054,0.313,-5.337
0.155,0.055,0.311,-5.337
0.199,0.052,0.310,-5.337
0.243,0.049,0.314,-5.337
0.296,0.047,0.315,-5.337
0.278,0.049,0.312,-5.337
0.175,0.050,0.314,-5.337
0.185,0.051,0.317,-5.337
0.178,0.052,0.316,-5.337
0.160,0.049,0.317,-5.337
0.186,0.048,0.315,-5.337
0.191,0.050,0.314,-5.337
0.192,0.048,0.317,-5.337
0.197,0.050,0.318,-5.337
0.244,0.049,0.316,-5.337
0.263,0.050,0.308,-5.337
0.127,0.053,0.308,-5.337
0.048,0.054,0.307,-5.337
0.105,0.055,0.311,-5.337
0.172,0.050,0.314,-5.337
0.217,0.050,0.318,-5.337
0.224,0.048,0.321,-5.337
0.206,0.051,0.323,-5.337
0.166,0.056,0.323,-5.337
0.154,0.055,0.320,-5.337
0.176,0.052,0.314,-5.337
0.149,0.057,0.312,-5.337
0.154,0.056,0.313,-5.337
0.215,0.055,0.312,-5.337
0.249,0.051,0.310,-5.337
0.204,0.051,0.313,-5.337
0.188,0.051,0.318,-5.337
0.207,0.050,0.319,-5.337
0.259,0.047,0.312,-5.337
0.333,0.048,0.307,-5.337
0.256,0.057,0.308,-5.337
0.226,0.055,0.311,-5.337
0.171,0.055,0.312,-5.337
0.104,0.055,0.310,-5.337
0.144,0.055,0.311,-5.337
0.218,0.054,0.312,-5.337
0.203,0.053,0.313,-5.337
0.162,0.054,0.314,-5.337
0.164,0.054,0.316,-5.337
0.201,0.056,0.317,-5.337
0.200,0.055,0.318,-5.337
0.164,0.054,0.312,-5.337
0.174,0.055,0.309,-5.337
0.143,0.053,0.307,-5.337
0.152,0.052,0.310,-5.337
0.139,0.049,0.314,-5.337
0.147,0.051,0.317,-5.337
0.168,0.055,0.317,-5.337
0.172,0.058,0.312,-5.337
0.106,0.056,0.312,-5.337
0.114,0.057,0.315,-5.337
0.133,0.060,0.314,-5.337
0.182,0.059,0.314,-5.337
0.220,0.055,0.313,-5.337
0.231,0.056,0.317,-5.337
0.191,0.059,0.319,-5.337
0.126,0.063,0.317,-5.337
0.198,0.057,0.316,-5.337
0.236,0.053,0.317,-5.337
0.195,0.053,0.316,-5.337
0.197,0.058,0.315,-5.337
0.240,0.059,0.317,-5.337
0.266,0.054,0.314,-5.337
0.246,0.053,0.313,-5.337
0.221,0.059,0.312,-5.337
0.253,0.056,0.314,-5.337
0.205,0.053,0.315,-5.337
0.129,0.054,0.316,-5.337
0.134,0.053,0.311,-5.337
0.165,0.054,0.307,-5.337
0.151,0.057,0.310,-5.337
0.157,0.058,0.312,-5.337
0.251,0.055,0.315,-5.337
0.262,0.056,0.317,-5.337
0.207,0.054,0.316,-5.337
0.114,0.058,0.314,-5.337
0.116,0.056,0.310,-5.337
0.127,0.056,0.311,-5.337
0.152,0.055,0.316,-5.337
0.145,0.057,0.317,-5.337
0.100,0.059,0.316,-5.337
0.059,0.058,0.314,-5.337
0.076,0.057,0.314,-5.337
0.116,0.057,0.315,-5.337
0.076,0.060,0.317,-5.337
0.144,0.061,0.319,-5.337
0.237,0.059,0.316,-5.337
0.229,0.060,0.311,-5.337
0.241,0.059,0.314,-5.337
0.282,0.057,0.318,-5.337
0.249,0.060,0.318,-5.337
0.206,0.058,0.312,-5.337
0.183,0.060,0.308,-5.337
0.200,0.059,0.312,-5.337
0.210,0.059,0.316,-5.337
0.144,0.063,0.314,-5.337
0.145,0.066,0.314,-5.337
0.204,0.062,0.313,-5.337
0.194,0.062,0.313,-5.337
0.090,0.063,0.315,-5.337
0.101,0.061,0.314,-5.337
0.176,0.058,0.314,-5.337
0.197,0.060,0.317,-5.337
0.228,0.061,0.318,-5.337
0.180,0.060,0.317,-5.337
0.181,0.058,0.315,-5.337
0.218,0.058,0.312,-5.337
0.232,0.059,0.312,-5.337
0.209,0.062,0.313,-5.337
0.129,0.065,0.314,-5.337
0.165,0.060,0.312,-5.337
0.257,0.062,0.315,-5.337
0.290,0.062,0.316,-5.337
0.185,0.065,0.317,-5.337
0.096,0.064,0.315,-5.337
0.136,0.063,0.314,-5.337
0.128,0.059,0.316,-5.337
0.094,0.058,0.316,-5.337
0.122,0.058,0.313,-5.337
0.202,0.055,0.314,-5.337
0.195,0.052,0.314,-5.337
0.177,0.053,0.310,-5.337
0.144,0.053,0.309,-5.337
0.196,0.054,0.312,-5.337
0.264,0.051,0.316,-5.337
0.288,0.051,0.320,-5.337
0.212,0.054,0.320,-5.337
0.171,0.054,0.315,-5.337
0.230,0.052,0.311,-5.337
0.239,0.050,0.308,-5.337
0.213,0.054,0.310,-5.337
0.215,0.054,0.315,-5.337
0.139,0.054,0.319,-5.337
0.147,0.054,0.317,-5.337
0.156,0.055,0.311,-5.337
0.161,0.051,0.312,-5.337
0.188,0.052,0.317,-5.337
0.160,0.052,0.319,-5.337
0.129,0.051,0.316,-5.337
0.172,0.048,0.312,-5.337
0.274,0.050,0.310,-5.337
0.254,0.050,0.310,-5.337
0.234,0.051,0.312,-5.337
0.213,0.048,0.312,-5.337
0.236,0.050,0.311,-5.337
0.178,0.052,0.313,-5.337
0.147,0.052,0.315,-5.337
0.143,0.053,0.315,-5.337
0.126,0.051,0.313,-5.337
0.171,0.051,0.316,-5.337
0.187,0.051,0.315,-5.337
0.113,0.051,0.315,-5.337
0.110,0.049,0.311,-5.337
0.175,0.051,0.311,-5.337
0.195,0.054,0.311,-5.337
0.262,0.049,0.309,-5.337
0.339,0.047,0.310,-5.337
0.246,0.053,0.314,-5.337
0.121,0.050,0.318,-5.337
0.188,0.044,0.316,-5.337
0.321,0.045,0.314,-5.337
0.308,0.051,0.313,-5.337
0.245,0.049,0.315,-5.337
0.213,0.049,0.315,-5.337
0.271,0.049,0.312,-5.337
0.251,0.052,0.313,-5.337
0.251,0.052,0.316,-5.337
0.291,0.046,0.315,-5.337
0.255,0.046,0.312,-5.337
0.184,0.049,0.310,-5.337
0.202,0.050,0.314,-5.337
0.202,0.045,0.314,-5.337
0.192,0.041,0.314,-5.337
0.139,0.041,0.318,-5.337
0.076,0.046,0.321,-5.337
0.087,0.045,0.320,-5.337
0.143,0.042,0.319,-5.337
0.174,0.041,0.314,-5.337
0.102,0.044,0.314,-5.337
0.119,0.042,0.313,-5.337
0.155,0.041,0.313,-5.337
0.157,0.041,0.312,-5.337
0.176,0.040,0.316,-5.337
0.170,0.038,0.314,-5.337
0.163,0.038,0.313,-5.337
0.141,0.035,0.312,-5.337
0.165,0.034,0.311,-5.337
0.166,0.039,0.313,-5.337
0.208,0.035,0.315,-5.337
0.266,0.035,0.313,-5.337
0.255,0.034,0.313,-5.337
0.229,0.037,0.314,-5.337
0.277,0.038,0.316,-5.337
0.275,0.038,0.314,-5.337
0.180,0.040,0.313,-5.337
0.198,0.040,0.314,-5.337
0.231,0.044,0.314,-5.337
0.164,0.045,0.315,-5.337
0.143,0.044,0.315,-5.337
0.123,0.045,0.317,-5.337
0.117,0.043,0.320,-5.337
0.118,0.042,0.324,-5.337
0.211,0.038,0.320,-5.337
0.227,0.037,0.317,-5.337
0.190,0.037,0.311,-5.337
0.157,0.038,0.312,-5.337
0.140,0.037,0.316,-5.337
0.225,0.035,0.318,-5.337
0.273,0.036,0.317,-5.337
0.164,0.043,0.314,-5.337
0.155,0.040,0.309,-5.337
0.206,0.040,0.308,-5.337
0.228,0.038,0.313,-5.337
0.257,0.038,0.315,-5.337
0.271,0.041,0.313,-5.337
0.259,0.041,0.311,-5.337
0.243,0.039,0.312,-5.337
0.116,0.040,0.314,-5.337
0.069,0.043,0.317,-5.337
0.125,0.040,0.316,-5.337
0.159,0.040,0.316,-5.337
0.138,0.039,0.316,-5.337
0.162,0.039,0.316,-5.337
0.170,0.043,0.310,-5.337
0.149,0.047,0.311,-5.337
0.214,0.047,0.313,-5.337
0.225,0.042,0.315,-5.337
0.161,0.039,0.312,-5.337
0.110,0.043,0.311,-5.337
0.180,0.041,0.313,-5.337
0.250,0.038,0.316,-5.337
0.227,0.037,0.315,-5.337
0.222,0.035,0.314,-5.337
0.158,0.038,0.315,-5.337
0.141,0.037,0.314,-5.337
0.152,0.036,0.313,-5.337
0.186,0.034,0.312,-5.337
0.256,0.033,0.314,-5.337
0.229,0.037,0.317,-5.337
0.193,0.039,0.319,-5.337
0.125,0.042,0.315,-5.337
0.161,0.038,0.312,-5.337
0.253,0.038,0.307,-5.337
0.268,0.041,0.309,-5.337
0.205,0.039,0.314,-5.337
0.198,0.038,0.317,-5.337
0.234,0.035,0.316,-5.337
0.221,0.034,0.316,-5.337
0.173,0.037,0.311,-5.337
0.179,0.039,0.309,-5.337
0.193,0.036,0.311,-5.337
0.133,0.035,0.313,-5.337
0.166,0.034,0.313,-5.337
0.257,0.032,0.315,-5.337
0.220,0.035,0.316,-5.337
0.233,0.032,0.316,-5.337
0.291,0.030,0.316,-5.337
0.292,0.029,0.312,-5.337
0.216,0.028,0.310,-5.337
0.142,0.029,0.315,-5.337
0.150,0.028,0.319,-5.337
0.214,0.028,0.320,-5.337
0.268,0.026,0.318,-5.337
0.288,0.027,0.313,-5.337
0.216,0.033,0.315,-5.337
0.147,0.033,0.317,-5.337
0.208,0.033,0.318,-5.337
0.193,0.033,0.311,-5.337
0.162,0.037,0.308,-5.337
0.218,0.033,0.309,-5.337
0.239,0.028,0.311,-5.337
0.242,0.026,0.311,-5.337
0.263,0.029,0.311,-5.337
0.255,0.031,0.316,-5.337
0.251,0.030,0.315,-5.337
0.149,0.035,0.316,-5.337
0.109,0.038,0.319,-5.337
0.170,0.039,0.322,-5.337
0.117,0.038,0.321,-5.337
0.088,0.033,0.313,-5.337
0.133,0.034,0.310,-5.337
0.193,0.034,0.312,-5.337
0.263,0.032,0.313,-5.337
0.292,0.032,0.310,-5.337
0.271,0.033,0.306,-5.337
0.264,0.033,0.310,-5.337
0.234,0.032,0.315,-5.337
0.208,0.033,0.323,-5.337
0.201,0.034,0.322,-5.337
0.208,0.035,0.320,-5.337
0.267,0.034,0.314,-5.337
0.337,0.030,0.313,-5.337
0.303,0.030,0.315,-5.337
0.254,0.034,0.317,-5.337
0.236,0.029,0.318,-5.337
0.227,0.027,0.318,-5.337
0.241,0.027,0.316,-5.337
0.193,0.033,0.314,-5.337
0.159,0.034,0.312,-5.337
0.209,0.031,0.311,-5.337
0.250,0.030,0.310,-5.337
0.179,0.033,0.309,-5.337
0.155,0.031,0.313,-5.337
0.119,0.033,0.317,-5.337
0.185,0.035,0.321,-5.337
0.274,0.035,0.318,-5.337
0.267,0.037,0.312,-5.337
0.177,0.040,0.307,-5.337
0.152,0.038,0.310,-5.337
0.236,0.037,0.314,-5.337
0.205,0.039,0.315,-5.337
0.183,0.038,0.311,-5.337
0.150,0.034,0.310,-5.337
0.143,0.032,0.315,-5.337
0.099,0.037,0.317,-5.337
0.110,0.034,0.315,-5.337
0.163,0.031,0.314,-5.337
0.244,0.026,0.313,-5.337
0.194,0.030,0.314,-5.337
0.182,0.033,0.315,-5.337
0.183,0.035,0.312,-5.337
0.147,0.035,0.306,-5.337
0.159,0.032,0.307,-5.337
0.183,0.033,0.310,-5.337
0.191,0.034,0.312,-5.337
0.260,0.032,0.313,-5.337
0.309,0.030,0.316,-5.337
0.284,0.031,0.318,-5.337
0.236,0.033,0.317,-5.337
0.224,0.037,0.316,-5.337
0.187,0.039,0.313,-5.337
0.239,0.034,0.313,-5.337
0.288,0.035,0.311,-5.337
0.270,0.035,0.314,-5.337
0.196,0.034,0.315,-5.337
0.201,0.036,0.314,-5.337
0.246,0.034,0.312,-5.337
0.198,0.041,0.313,-5.337
0.140,0.038,0.315,-5.337
0.142,0.033,0.318,-5.337
0.198,0.033,0.320,-5.337
0.227,0.032,0.316,-5.337
0.265,0.033,0.313,-5.337
0.219,0.035,0.313,-5.337
0.219,0.034,0.314,-5.337
0.271,0.034,0.313,-5.337
0.250,0.033,0.313,-5.337
0.219,0.035,0.316,-5.337
0.242,0.034,0.315,-5.337
0.229,0.033,0.313,-5.337
0.266,0.033,0.315,-5.337
0.321,0.031,0.317,-5.337
0.314,0.032,0.315,-5.337
0.284,0.033,0.310,-5.337
0.261,0.038,0.312,-5.337
0.196,0.037,0.313,-5.337
0.251,0.033,0.312,-5.337
0.197,0.033,0.311,-5.337
0.150,0.036,0.314,-5.337
0.229,0.035,0.313,-5.337
0.311,0.035,0.311,-5.337
0.283,0.036,0.311,-5.337
0.193,0.034,0.310,-5.337
0.163,0.035,0.309,-5.337
0.116,0.036,0.312,-5.337
0.204,0.034,0.316,-5.337
0.248,0.036,0.316,-5.337
0.243,0.040,0.317,-5.337
0.191,0.042,0.318,-5.337
0.223,0.041,0.315,-5.337
0.285,0.039,0.312,-5.337
0.230,0.039,0.312,-5.337
0.233,0.038,0.314,-5.337
0.252,0.040,0.316,-5.337
0.211,0.041,0.314,-5.337
0.162,0.040,0.317,-5.337
0.162,0.039,0.319,-5.337
0.115,0.039,0.321,-5.337
0.159,0.039,0.316,-5.337
0.179,0.044,0.311,-5.337
0.157,0.045,0.310,-5.337
0.213,0.041,0.314,-5.337
0.265,0.038,0.315,-5.337
0.201,0.040,0.314,-5.337
0.131,0.040,0.312,-5.337
0.108,0.043,0.311,-5.337
0.140,0.040,0.313,-5.337
0.156,0.040,0.316,-5.337
0.185,0.042,0.313,-5.337
0.183,0.044,0.311,-5.337
0.173,0.041,0.307,-5.337
0.203,0.039,0.305,-5.337
0.215,0.040,0.305,-5.337
0.223,0.041,0.310,-5.337
0.253,0.043,0.315,-5.337
0.189,0.044,0.318,-5.337
0.215,0.045,0.318,-5.337
0.176,0.046,0.312,-5.337
0.166,0.041,0.309,-5.337
0.184,0.042,0.310,-5.337
0.211,0.044,0.310,-5.337
0.239,0.042,0.312,-5.337
0.265,0.039,0.313,-5.337
0.183,0.043,0.313,-5.337
0.152,0.049,0.314,-5.337
0.197,0.048,0.316,-5.337
0.213,0.044,0.319,-5.337
0.298,0.040,0.315,-5.337
0.325,0.041,0.311,-5.337
0.302,0.041,0.309,-5.337
0.233,0.045,0.311,-5.337
0.141,0.045,0.312,-5.337
0.203,0.042,0.311,-5.337
0.271,0.042,0.311,-5.337
0.296,0.041,0.314,-5.337
0.319,0.040,0.314,-5.337
0.297,0.040,0.313,-5.337
0.248,0.044,0.310,-5.337
0.189,0.042,0.308,-5.337
0.197,0.040,0.307,-5.337
0.197,0.043,0.309,-5.337
0.223,0.044,0.311,-5.337
0.187,0.042,0.312,-5.337
0.190,0.039,0.316,-5.337
0.197,0.041,0.315,-5.337
0.219,0.045,0.317,-5.337
0.210,0.044,0.318,-5.337
0.124,0.045,0.319,-5.337
0.047,0.047,0.313,-5.337
0.096,0.048,0.309,-5.337
0.117,0.047,0.311,-5.337
0.149,0.048,0.317,-5.337
0.192,0.046,0.317,-5.337
0.191,0.047,0.312,-5.337
0.175,0.047,0.311,-5.337
0.223,0.045,0.313,-5.337
0.271,0.046,0.312,-5.337
0.169,0.052,0.313,-5.337
0.134,0.055,0.316,-5.337
0.242,0.054,0.319,-5.337
0.226,0.053,0.314,-5.337
0.220,0.053,0.308,-5.337
0.146,0.054,0.307,-5.337
0.133,0.054,0.311,-5.337
0.178,0.050,0.315,-5.337
0.206,0.050,0.313,-5.337
0.180,0.054,0.310,-5.337
0.175,0.054,0.306,-5.337
0.178,0.053,0.309,-5.337
0.188,0.050,0.315,-5.337
0.186,0.052,0.317,-5.337
0.216,0.053,0.313,-5.337
0.206,0.052,0.312,-5.337
0.133,0.052,0.311,-5.337
0.120,0.056,0.312,-5.337
0.143,0.054,0.316,-5.337
0.090,0.052,0.320,-5.337
0.035,0.051,0.315,-5.337
0.096,0.052,0.310,-5.337
0.157,0.056,0.310,-5.337
0.171,0.053,0.315,-5.337
0.170,0.051,0.312,-5.337
0.169,0.051,0.311,-5.337
0.112,0.055,0.311,-5.337
0.179,0.055,0.312,-5.337
0.321,0.053,0.315,-5.337
0.295,0.053,0.313,-5.337
0.188,0.057,0.312,-5.337
0.131,0.057,0.314,-5.337
0.176,0.056,0.317,-5.337
0.225,0.057,0.316,-5.337
0.268,0.051,0.314,-5.337
0.294,0.048,0.309,-5.337
0.198,0.052,0.309,-5.337
0.175,0.054,0.310,-5.337
0.208,0.054,0.312,-5.337
0.153,0.054,0.312,-5.337
0.172,0.052,0.313,-5.337
0.211,0.052,0.314,-5.337
0.171,0.052,0.310,-5.337
0.207,0.053,0.307,-5.337
0.280,0.055,0.311,-5.337
0.209,0.057,0.315,-5.337
0.139,0.055,0.317,-5.337
0.118,0.052,0.314,-5.337
0.197,0.053,0.313,-5.337
0.296,0.052,0.314,-5.337
0.290,0.052,0.314,-5.337
0.203,0.056,0.313,-5.337
0.163,0.056,0.312,-5.337
0.272,0.051,0.316,-5.337
0.324,0.051,0.319,-5.337
0.237,0.056,0.314,-5.337
0.177,0.054,0.310,-5.337
0.291,0.049,0.313,-5.337
0.248,0.047,0.314,-5.337
0.112,0.051,0.312,-5.337
0.164,0.049,0.313,-5.337
0.206,0.049,0.310,-5.337
0.175,0.050,0.306,-5.337
0.127,0.053,0.308,-5.337
0.154,0.052,0.310,-5.337
0.158,0.052,0.310,-5.337
0.216,0.049,0.313,-5.337
0.283,0.048,0.314,-5.337
0.187,0.049,0.310,-5.337
0.148,0.050,0.309,-5.337
0.135,0.052,0.311,-5.337
0.147,0.052,0.314,-5.337
0.104,0.054,0.315,-5.337
0.117,0.052,0.314,-5.337
0.097,0.054,0.313,-5.337
0.116,0.054,0.309,-5.337
0.137,0.053,0.310,-5.337
0.186,0.052,0.309,-5.337
0.213,0.051,0.309,-5.337
0.233,0.050,0.308,-5.337
0.187,0.052,0.313,-5.337
0.162,0.055,0.315,-5.337
0.157,0.056,0.313,-5.337
0.133,0.055,0.309,-5.337
0.199,0.053,0.309,-5.337
0.225,0.054,0.312,-5.337
0.220,0.053,0.314,-5.337
0.221,0.050,0.311,-5.337
0.175,0.051,0.309,-5.337
0.167,0.053,0.311,-5.337
0.174,0.051,0.313,-5.337
0.208,0.050,0.317,-5.337
0.143,0.051,0.315,-5.337
0.106,0.054,0.312,-5.337
0.126,0.055,0.312,-5.337
0.179,0.053,0.315,-5.337
0.176,0.049,0.314,-5.337
0.139,0.048,0.314,-5.337
0.101,0.051,0.319,-5.337
0.140,0.051,0.322,-5.337
0.187,0.050,0.316,-5.337
0.210,0.051,0.311,-5.337
0.181,0.050,0.309,-5.337
0.208,0.050,0.309,-5.337
0.296,0.049,0.308,-5.337
0.224,0.051,0.310,-5.337
0.102,0.053,0.313,-5.337
0.184,0.050,0.314,-5.337
0.280,0.049,0.308,-5.337
0.236,0.054,0.304,-5.337
0.154,0.057,0.308,-5.337
0.176,0.055,0.312,-5.337
0.233,0.052,0.314,-5.337
0.310,0.051,0.314,-5.337
0.214,0.051,0.314,-5.337
0.162,0.051,0.311,-5.337
0.194,0.048,0.311,-5.337
0.178,0.053,0.313,-5.337
0.133,0.051,0.312,-5.337
0.075,0.055,0.308,-5.337
0.071,0.058,0.310,-5.337
0.144,0.055,0.311,-5.337
0.201,0.056,0.317,-5.337
0.231,0.051,0.319,-5.337
0.267,0.052,0.318,-5.337
0.263,0.052,0.315,-5.337
0.271,0.051,0.311,-5.337
0.230,0.052,0.308,-5.337
0.297,0.052,0.309,-5.337
0.347,0.056,0.308,-5.337
0.297,0.058,0.308,-5.337
0.255,0.056,0.311,-5.337
0.246,0.054,0.311,-5.337
0.265,0.052,0.308,-5.337
0.239,0.050,0.306,-5.337
0.286,0.050,0.306,-5.337
0.178,0.053,0.313,-5.337
0.054,0.056,0.322,-5.337
0.067,0.058,0.323,-5.337
0.063,0.059,0.317,-5.337
0.098,0.058,0.312,-5.337
0.142,0.055,0.310,-5.337
0.130,0.057,0.304,-5.337
0.111,0.057,0.303,-5.337
0.115,0.054,0.310,-5.337
0.145,0.052,0.319,-5.337
0.208,0.048,0.320,-5.337
0.202,0.051,0.313,-5.337
0.170,0.055,0.310,-5.337
0.173,0.055,0.311,-5.337
0.135,0.055,0.307,-5.337
0.143,0.057,0.307,-5.337
0.187,0.054,0.310,-5.337
0.210,0.053,0.312,-5.337
0.206,0.050,0.307,-5.337
0.250,0.051,0.303,-5.337
0.309,0.053,0.304,-5.337
0.279,0.054,0.309,-5.337
0.231,0.054,0.312,-5.337
0.175,0.053,0.315,-5.337
0.177,0.054,0.314,-5.337
0.172,0.055,0.314,-5.337
0.142,0.054,0.316,-5.337
0.164,0.049,0.311,-5.337
0.265,0.051,0.309,-5.337
0.251,0.054,0.310,-5.337
0.214,0.054,0.314,-5.337
0.288,0.052,0.315,-5.337
0.318,0.052,0.317,-5.337
0.220,0.057,0.314,-5.337
0.192,0.056,0.315,-5.337
0.187,0.057,0.314,-5.337
0.193,0.058,0.309,-5.337
0.141,0.057,0.304,-5.337
0.144,0.056,0.307,-5.337
0.217,0.052,0.312,-5.337
0.223,0.054,0.311,-5.337
0.129,0.056,0.310,-5.337
0.090,0.055,0.312,-5.337
0.210,0.053,0.312,-5.337
0.186,0.055,0.315,-5.337
0.081,0.057,0.317,-5.337
0.110,0.056,0.314,-5.337
0.140,0.056,0.311,-5.337
0.194,0.057,0.309,-5.337
0.203,0.054,0.310,-5.337
0.192,0.055,0.311,-5.337
0.217,0.056,0.312,-5.337
0.279,0.052,0.311,-5.337
0.252,0.054,0.311,-5.337
0.178,0.054,0.310,-5.337
0.171,0.055,0.312,-5.337
0.177,0.053,0.311,-5.337
0.195,0.052,0.312,-5.337
0.308,0.051,0.311,-5.337
0.297,0.056,0.312,-5.337
0.205,0.054,0.313,-5.337
0.210,0.051,0.313,-5.337
0.287,0.048,0.312,-5.337
0.276,0.050,0.309,-5.337
0.215,0.052,0.310,-5.337
0.178,0.051,0.316,-5.337
0.194,0.048,0.316,-5.337
0.155,0.048,0.314,-5.337
0.087,0.048,0.314,-5.337
0.089,0.048,0.314,-5.337
0.184,0.045,0.314,-5.337
0.272,0.045,0.311,-5.337
0.273,0.046,0.311,-5.337
0.158,0.051,0.312,-5.337
0.136,0.050,0.315,-5.337
0.162,0.048,0.311,-5.337
0.126,0.050,0.308,-5.337
0.116,0.048,0.308,-5.337
0.159,0.047,0.309,-5.337
0.200,0.044,0.310,-5.337
0.231,0.047,0.311,-5.337
0.215,0.046,0.310,-5.337
0.225,0.043,0.312,-5.337
0.240,0.042,0.315,-5.337
0.216,0.040,0.311,-5.337
0.184,0.043,0.310,-5.337
0.145,0.043,0.311,-5.337
0.151,0.043,0.306,-5.337
0.140,0.044,0.306,-5.337
0.088,0.046,0.312,-5.337
0.088,0.046,0.317,-5.337
0.137,0.045,0.317,-5.337
0.195,0.045,0.314,-5.337
0.219,0.043,0.314,-5.337
0.179,0.042,0.313,-5.337
0.196,0.042,0.316,-5.337
0.206,0.047,0.317,-5.337
0.120,0.052,0.315,-5.337
0.108,0.049,0.309,-5.337
0.189,0.046,0.309,-5.337
0.238,0.046,0.310,-5.337
0.200,0.048,0.314,-5.337
0.203,0.047,0.318,-5.337
0.193,0.049,0.321,-5.337
0.238,0.045,0.316,-5.337
0.305,0.042,0.311,-5.337
0.286,0.041,0.309,-5.337
0.254,0.046,0.310,-5.337
0.230,0.046,0.309,-5.337
0.252,0.040,0.306,-5.337
0.244,0.041,0.304,-5.337
0.165,0.047,0.308,-5.337
0.137,0.048,0.313,-5.337
0.167,0.045,0.311,-5.337
0.196,0.042,0.310,-5.337
0.228,0.041,0.312,-5.337
0.248,0.044,0.316,-5.337
0.290,0.041,0.314,-5.337
0.344,0.040,0.311,-5.337
0.327,0.036,0.308,-5.337
0.263,0.037,0.311,-5.337
0.157,0.037,0.314,-5.337
0.118,0.040,0.315,-5.337
0.135,0.042,0.315,-5.337
0.134,0.041,0.314,-5.337
0.183,0.038,0.314,-5.337
0.161,0.038,0.313,-5.337
0.096,0.035,0.310,-5.337
0.142,0.040,0.307,-5.337
0.215,0.045,0.308,-5.337
0.232,0.043,0.313,-5.337
0.274,0.040,0.315,-5.337
0.214,0.037,0.316,-5.337
0.202,0.040,0.312,-5.337
0.214,0.042,0.308,-5.337
0.190,0.046,0.307,-5.337
0.203,0.045,0.310,-5.337
0.213,0.042,0.311,-5.337
0.234,0.042,0.309,-5.337
0.211,0.043,0.310,-5.337
0.141,0.044,0.314,-5.337
0.195,0.041,0.315,-5.337
0.192,0.041,0.310,-5.337
0.221,0.039,0.311,-5.337
0.262,0.038,0.310,-5.337
0.266,0.041,0.309,-5.337
0.258,0.041,0.310,-5.337
0.121,0.042,0.315,-5.337
0.098,0.038,0.314,-5.337
0.173,0.037,0.313,-5.337
0.206,0.037,0.314,-5.337
0.189,0.038,0.317,-5.337
0.153,0.038,0.319,-5.337
0.141,0.040,0.315,-5.337
0.147,0.037,0.314,-5.337
0.179,0.038,0.311,-5.337
0.240,0.042,0.307,-5.337
0.253,0.042,0.309,-5.337
0.167,0.041,0.314,-5.337
0.145,0.039,0.316,-5.337
0.180,0.041,0.316,-5.337
0.171,0.041,0.312,-5.337
0.228,0.038,0.308,-5.337
0.209,0.036,0.306,-5.337
0.163,0.039,0.313,-5.337
0.142,0.042,0.317,-5.337
0.193,0.039,0.318,-5.337
0.155,0.036,0.315,-5.337
0.134,0.036,0.317,-5.337
0.198,0.037,0.314,-5.337
0.220,0.037,0.311,-5.337
0.179,0.037,0.311,-5.337
0.187,0.037,0.314,-5.337
0.167,0.037,0.313,-5.337
0.184,0.034,0.310,-5.337
0.168,0.038,0.312,-5.337
0.215,0.040,0.316,-5.337
0.238,0.040,0.314,-5.337
0.302,0.034,0.311,-5.337
0.320,0.034,0.311,-5.337
0.245,0.036,0.312,-5.337
0.225,0.034,0.309,-5.337
0.227,0.036,0.308,-5.337
0.210,0.040,0.312,-5.337
0.197,0.040,0.314,-5.337
0.230,0.039,0.317,-5.337
0.231,0.036,0.317,-5.337
0.215,0.036,0.315,-5.337
0.238,0.035,0.312,-5.337
0.250,0.035,0.315,-5.337
0.174,0.037,0.316,-5.337
0.192,0.036,0.314,-5.337
0.247,0.033,0.309,-5.337
0.232,0.035,0.309,-5.337
0.267,0.034,0.309,-5.337
0.262,0.036,0.310,-5.337
0.196,0.035,0.311,-5.337
0.182,0.035,0.311,-5.337
0.209,0.033,0.311,-5.337
0.267,0.035,0.311,-5.337
0.318,0.034,0.313,-5.337
0.226,0.031,0.314,-5.337
0.220,0.030,0.315,-5.337
0.300,0.032,0.313,-5.337
0.269,0.035,0.316,-5.337
0.157,0.034,0.315,-5.337
0.190,0.033,0.311,-5.337
0.230,0.037,0.312,-5.337
0.241,0.036,0.314,-5.337
0.177,0.034,0.312,-5.337
0.191,0.034,0.311,-5.337
0.202,0.036,0.310,-5.337
0.164,0.037,0.313,-5.337
0.160,0.036,0.315,-5.337
0.115,0.034,0.317,-5.337
0.097,0.031,0.316,-5.337
0.153,0.035,0.314,-5.337
0.195,0.035,0.311,-5.337
0.108,0.035,0.308,-5.337
0.095,0.033,0.311,-5.337
0.198,0.036,0.315,-5.337
0.218,0.039,0.318,-5.337
0.119,0.041,0.314,-5.337
0.148,0.040,0.310,-5.337
0.234,0.038,0.312,-5.337
0.308,0.036,0.311,-5.337
0.271,0.035,0.309,-5.337
0.148,0.040,0.312,-5.337
0.094,0.040,0.316,-5.337
0.222,0.042,0.321,-5.337
0.253,0.041,0.318,-5.337
0.245,0.040,0.314,-5.337
0.221,0.037,0.311,-5.337
0.158,0.039,0.314,-5.337
0.160,0.039,0.317,-5.337
0.255,0.039,0.320,-5.337
0.249,0.039,0.317,-5.337
0.197,0.037,0.312,-5.337
0.214,0.035,0.313,-5.337
0.232,0.037,0.317,-5.337
0.207,0.034,0.319,-5.337
0.124,0.038,0.318,-5.337
0.070,0.038,0.317,-5.337
0.142,0.036,0.317,-5.337
0.260,0.032,0.316,-5.337
0.241,0.035,0.315,-5.337
0.204,0.035,0.310,-5.337
0.165,0.034,0.309,-5.337
0.166,0.034,0.311,-5.337
0.262,0.035,0.314,-5.337
0.320,0.034,0.315,-5.337
0.256,0.036,0.314,-5.337
0.170,0.036,0.313,-5.337
0.117,0.037,0.311,-5.337
0.145,0.036,0.312,-5.337
0.216,0.034,0.314,-5.337
0.210,0.039,0.318,-5.337
0.177,0.040,0.323,-5.337
0.213,0.037,0.320,-5.337
0.262,0.034,0.310,-5.337
0.288,0.034,0.304,-5.337
0.242,0.032,0.303,-5.337
0.243,0.034,0.310,-5.337
0.220,0.034,0.316,-5.337
0.232,0.034,0.315,-5.337
0.233,0.035,0.312,-5.337
0.260,0.036,0.312,-5.337
0.282,0.035,0.313,-5.337
0.239,0.035,0.312,-5.337
0.249,0.035,0.313,-5.337
0.256,0.040,0.315,-5.337
0.250,0.041,0.318,-5.337
0.232,0.042,0.317,-5.337
0.159,0.045,0.313,-5.337
0.133,0.044,0.314,-5.337
0.258,0.039,0.318,-5.337
0.315,0.037,0.313,-5.337
0.253,0.035,0.309,-5.337
0.249,0.035,0.310,-5.337
0.203,0.038,0.314,-5.337
0.128,0.041,0.314,-5.337
0.120,0.041,0.312,-5.337
0.175,0.037,0.310,-5.337
0.190,0.038,0.311,-5.337
0.235,0.035,0.313,-5.337
0.222,0.037,0.311,-5.337
0.157,0.039,0.309,-5.337
0.135,0.039,0.307,-5.337
0.131,0.038,0.307,-5.337
0.152,0.038,0.310,-5.337
0.208,0.038,0.316,-5.337
0.264,0.035,0.319,-5.337
0.271,0.036,0.316,-5.337
0.260,0.038,0.313,-5.337
0.266,0.038,0.311,-5.337
0.252,0.040,0.309,-5.337
0.200,0.038,0.309,-5.337
0.196,0.038,0.312,-5.337
0.226,0.036,0.316,-5.337
0.235,0.039,0.315,-5.337
0.154,0.043,0.312,-5.337
0.193,0.040,0.313,-5.337
0.227,0.041,0.317,-5.337
0.164,0.042,0.314,-5.337
0.159,0.040,0.313,-5.337
0.078,0.039,0.314,-5.337
0.090,0.039,0.312,-5.337
0.184,0.039,0.309,-5.337
0.205,0.041,0.310,-5.337
0.174,0.041,0.311,-5.337
0.137,0.037,0.310,-5.337
0.131,0.037,0.311,-5.337
0.211,0.040,0.314,-5.337
0.250,0.040,0.317,-5.337
0.250,0.043,0.318,-5.337
0.226,0.043,0.314,-5.337
0.298,0.045,0.313,-5.337
0.297,0.046,0.315,-5.337
0.206,0.044,0.312,-5.337
0.209,0.041,0.311,-5.337
0.257,0.041,0.313,-5.337
0.223,0.046,0.315,-5.337
0.210,0.049,0.312,-5.337
0.176,0.049,0.314,-5.337
0.180,0.048,0.315,-5.337
0.255,0.045,0.318,-5.337
0.303,0.047,0.319,-5.337
0.230,0.051,0.319,-5.337
0.134,0.051,0.318,-5.337
0.207,0.053,0.318,-5.337
0.272,0.051,0.317,-5.337
0.168,0.052,0.317,-5.337
0.099,0.047,0.315,-5.337
0.137,0.043,0.312,-5.337
0.253,0.039,0.312,-5.337
0.294,0.040,0.315,-5.337
0.186,0.044,0.314,-5.337
0.144,0.045,0.313,-5.337
0.136,0.045,0.310,-5.337
0.187,0.049,0.310,-5.337
0.252,0.045,0.313,-5.337
0.188,0.043,0.313,-5.337
0.224,0.040,0.315,-5.337
0.257,0.040,0.312,-5.337
0.161,0.042,0.312,-5.337
0.129,0.045,0.317,-5.337
0.190,0.043,0.320,-5.337
0.274,0.040,0.315,-5.337
0.223,0.045,0.313,-5.337
0.117,0.046,0.311,-5.337
0.197,0.050,0.312,-5.337
0.281,0.049,0.312,-5.337
0.265,0.051,0.314,-5.337
0.218,0.054,0.315,-5.337
0.185,0.052,0.318,-5.337
0.193,0.050,0.317,-5.337
0.133,0.053,0.317,-5.337
0.113,0.052,0.316,-5.337
0.146,0.050,0.316,-5.337
0.176,0.052,0.314,-5.337
0.198,0.055,0.314,-5.337
0.186,0.055,0.315,-5.337
0.127,0.054,0.314,-5.337
0.118,0.052,0.313,-5.337
0.138,0.052,0.312,-5.337
0.181,0.049,0.313,-5.337
0.251,0.048,0.316,-5.337
0.221,0.054,0.315,-5.337
0.200,0.051,0.311,-5.337
0.166,0.050,0.313,-5.337
0.154,0.052,0.311,-5.337
0.144,0.056,0.313,-5.337
0.191,0.053,0.315,-5.337
0.235,0.052,0.315,-5.337
0.217,0.050,0.313,-5.337
0.212,0.053,0.309,-5.337
0.213,0.051,0.314,-5.337
0.238,0.052,0.316,-5.337
0.218,0.052,0.311,-5.337
0.240,0.048,0.310,-5.337
0.239,0.049,0.310,-5.337
0.202,0.050,0.310,-5.337
0.205,0.050,0.312,-5.337
0.229,0.045,0.313,-5.337
0.283,0.042,0.314,-5.337
0.192,0.047,0.317,-5.337
0.120,0.047,0.319,-5.337
0.137,0.048,0.320,-5.337
0.119,0.047,0.319,-5.337
0.119,0.049,0.315,-5.337
0.178,0.048,0.315,-5.337
0.155,0.051,0.316,-5.337
0.159,0.051,0.315,-5.337
0.202,0.047,0.314,-5.337
0.249,0.045,0.311,-5.337
0.235,0.049,0.311,-5.337
0.202,0.050,0.317,-5.337
0.202,0.049,0.318,-5.337
0.232,0.052,0.315,-5.337
0.222,0.053,0.312,-5.337
0.293,0.051,0.310,-5.337
0.260,0.050,0.307,-5.337
0.220,0.053,0.308,-5.337
0.240,0.051,0.311,-5.337
0.169,0.057,0.310,-5.337
0.115,0.059,0.313,-5.337
0.224,0.056,0.317,-5.337
0.278,0.051,0.317,-5.337
0.238,0.051,0.316,-5.337
0.253,0.052,0.316,-5.337
0.213,0.060,0.315,-5.337
0.235,0.059,0.315,-5.337
0.176,0.056,0.313,-5.337
0.118,0.056,0.314,-5.337
0.130,0.055,0.314,-5.337
0.178,0.055,0.315,-5.337
0.180,0.059,0.311,-5.337
0.150,0.060,0.312,-5.337
0.094,0.058,0.318,-5.337
0.129,0.059,0.319,-5.337
0.195,0.059,0.318,-5.337
0.167,0.061,0.316,-5.337
0.117,0.061,0.312,-5.337
0.165,0.057,0.311,-5.337
0.168,0.057,0.314,-5.337
0.142,0.056,0.318,-5.337
0.200,0.056,0.313,-5.337
0.220,0.057,0.308,-5.337
0.247,0.054,0.310,-5.337
0.185,0.058,0.313,-5.337
0.110,0.058,0.313,-5.337
0.199,0.059,0.311,-5.337
0.195,0.062,0.313,-5.337
0.141,0.062,0.314,-5.337
0.157,0.058,0.319,-5.337
0.162,0.060,0.319,-5.337
0.166,0.064,0.319,-5.337
0.131,0.058,0.312,-5.337
0.124,0.053,0.308,-5.337
0.253,0.054,0.307,-5.337
0.251,0.062,0.312,-5.337
0.128,0.067,0.313,-5.337
0.097,0.064,0.314,-5.337
0.140,0.059,0.320,-5.337
0.205,0.060,0.324,-5.337
0.224,0.061,0.320,-5.337
0.202,0.066,0.316,-5.337
0.203,0.065,0.315,-5.337
0.219,0.062,0.315,-5.337
0.182,0.063,0.313,-5.337
0.179,0.062,0.311,-5.337
0.220,0.062,0.313,-5.337
0.190,0.062,0.315,-5.337
0.196,0.060,0.316,-5.337
0.183,0.063,0.312,-5.337
0.205,0.060,0.309,-5.337
0.239,0.060,0.310,-5.337
0.233,0.059,0.315,-5.337
0.194,0.059,0.316,-5.337
0.186,0.060,0.316,-5.337
0.184,0.062,0.315,-5.337
0.151,0.066,0.319,-5.337
0.129,0.064,0.321,-5.337
0.170,0.063,0.323,-5.337
0.209,0.058,0.319,-5.337
0.228,0.061,0.315,-5.337
0.153,0.060,0.312,-5.337
0.103,0.063,0.314,-5.337
0.137,0.062,0.314,-5.337
0.136,0.062,0.310,-5.337
0.214,0.066,0.310,-5.337
0.274,0.065,0.313,-5.337
0.257,0.067,0.312,-5.337
0.172,0.068,0.313,-5.337
0.119,0.066,0.317,-5.337
0.172,0.062,0.320,-5.337
0.262,0.055,0.318,-5.337
0.265,0.056,0.317,-5.337
0.285,0.058,0.318,-5.337
0.321,0.061,0.317,-5.337
0.245,0.061,0.316,-5.337
0.191,0.062,0.314,-5.337
0.235,0.063,0.314,-5.337
0.247,0.066,0.314,-5.337
0.249,0.066,0.319,-5.337
0.226,0.065,0.318,-5.337
0.187,0.066,0.311,-5.337
0.207,0.065,0.309,-5.337
0.216,0.065,0.314,-5.337
0.233,0.062,0.317,-5.337
0.185,0.059,0.317,-5.337
0.179,0.061,0.314,-5.337
0.156,0.063,0.312,-5.337
0.171,0.062,0.309,-5.337
0.191,0.067,0.308,-5.337
0.167,0.068,0.315,-5.337
0.166,0.065,0.321,-5.337
0.180,0.064,0.319,-5.337
0.238,0.064,0.313,-5.337
0.231,0.064,0.315,-5.337
0.159,0.061,0.317,-5.337
0.163,0.060,0.318,-5.337
0.175,0.058,0.319,-5.337
0.195,0.061,0.319,-5.337
0.231,0.061,0.318,-5.337
0.211,0.063,0.319,-5.337
0.153,0.064,0.316,-5.337
0.222,0.064,0.312,-5.337
0.201,0.065,0.309,-5.337
0.126,0.069,0.311,-5.337
0.064,0.067,0.314,-5.337
0.081,0.064,0.317,-5.337
0.084,0.064,0.317,-5.337
0.100,0.068,0.316,-5.337
0.143,0.067,0.314,-5.337
0.167,0.067,0.318,-5.337
0.148,0.066,0.317,-5.337
0.182,0.064,0.315,-5.337
0.219,0.063,0.317,-5.337
0.146,0.068,0.319,-5.337
0.147,0.067,0.317,-5.337
0.225,0.064,0.316,-5.337
0.240,0.061,0.319,-5.337
0.225,0.061,0.317,-5.337
0.133,0.066,0.318,-5.337
0.157,0.063,0.317,-5.337
0.185,0.064,0.315,-5.337
0.171,0.067,0.312,-5.337
0.151,0.065,0.316,-5.337
0.165,0.061,0.317,-5.337
0.144,0.065,0.317,-5.337
0.142,0.067,0.316,-5.337
0.149,0.065,0.311,-5.337
0.198,0.065,0.310,-5.337
0.279,0.068,0.313,-5.337
0.208,0.064,0.314,-5.337
0.157,0.060,0.312,-5.337
0.198,0.061,0.310,-5.337
0.236,0.064,0.312,-5.337
0.254,0.061,0.312,-5.337
0.175,0.064,0.314,-5.337
0.150,0.065,0.314,-5.337
0.174,0.062,0.316,-5.337
0.178,0.063,0.320,-5.337
0.210,0.063,0.318,-5.337
0.181,0.061,0.315,-5.337
0.177,0.059,0.311,-5.337
0.178,0.059,0.314,-5.337
0.192,0.059,0.316,-5.337
0.223,0.061,0.319,-5.337
0.180,0.065,0.317,-5.337
0.157,0.065,0.316,-5.337
0.146,0.063,0.316,-5.337
0.121,0.064,0.314,-5.337
0.175,0.059,0.311,-5.337
0.201,0.060,0.312,-5.337
0.198,0.058,0.313,-5.337
0.173,0.057,0.311,-5.337
0.090,0.058,0.311,-5.337
0.117,0.056,0.315,-5.337
0.218,0.060,0.315,-5.337
0.254,0.059,0.314,-5.337
0.272,0.056,0.315,-5.337
0.253,0.057,0.314,-5.337
0.162,0.056,0.315,-5.337
0.182,0.055,0.316,-5.337
0.239,0.054,0.318,-5.337
0.218,0.056,0.317,-5.337
0.236,0.057,0.317,-5.337
0.267,0.055,0.315,-5.337
0.273,0.056,0.312,-5.337
0.286,0.056,0.306,-5.337
0.247,0.057,0.309,-5.337
0.222,0.051,0.314,-5.337
0.208,0.053,0.317,-5.337
0.191,0.054,0.314,-5.337
0.110,0.054,0.310,-5.337
0.146,0.052,0.312,-5.337
0.144,0.053,0.316,-5.337
0.123,0.058,0.317,-5.337
0.181,0.057,0.316,-5.337
0.210,0.057,0.313,-5.337
0.207,0.058,0.315,-5.337
0.241,0.056,0.317,-5.337
0.280,0.054,0.316,-5.337
0.216,0.055,0.314,-5.337
0.157,0.058,0.318,-5.337
0.114,0.060,0.320,-5.337
0.105,0.060,0.318,-5.337
0.137,0.058,0.316,-5.337
0.136,0.059,0.314,-5.337
0.178,0.058,0.312,-5.337
0.257,0.055,0.313,-5.337
0.268,0.054,0.318,-5.337
0.251,0.056,0.318,-5.337
0.178,0.058,0.317,-5.337
0.143,0.055,0.316,-5.337
0.183,0.056,0.316,-5.337
0.157,0.060,0.315,-5.337
0.122,0.060,0.317,-5.337
0.160,0.057,0.318,-5.337
0.142,0.059,0.314,-5.337
0.125,0.056,0.313,-5.337
0.166,0.056,0.318,-5.337
0.211,0.053,0.322,-5.337
0.208,0.053,0.321,-5.337
0.193,0.050,0.316,-5.337
0.320,0.049,0.314,-5.337
0.358,0.050,0.313,-5.337
0.290,0.051,0.315,-5.337
0.267,0.048,0.318,-5.337
0.262,0.048,0.317,-5.337
0.272,0.052,0.318,-5.337
0.284,0.049,0.319,-5.337
0.276,0.048,0.319,-5.337
0.167,0.050,0.317,-5.337
0.143,0.050,0.314,-5.337
0.147,0.052,0.310,-5.337
0.214,0.051,0.313,-5.337
0.252,0.051,0.317,-5.337
0.230,0.050,0.320,-5.337
0.184,0.050,0.318,-5.337
0.169,0.050,0.314,-5.337
0.195,0.046,0.313,-5.337
0.169,0.045,0.314,-5.337
0.151,0.049,0.315,-5.337
0.206,0.051,0.318,-5.337
0.195,0.052,0.318,-5.337
0.212,0.050,0.314,-5.337
0.254,0.050,0.313,-5.337
0.223,0.052,0.318,-5.337
0.243,0.048,0.322,-5.337
0.220,0.052,0.319,-5.337
0.172,0.051,0.317,-5.337
0.243,0.048,0.315,-5.337
0.273,0.049,0.314,-5.337
0.230,0.050,0.311,-5.337
0.185,0.052,0.310,-5.337
0.177,0.048,0.309,-5.337
0.248,0.044,0.316,-5.337
0.305,0.045,0.322,-5.337
0.202,0.052,0.321,-5.337
0.091,0.056,0.318,-5.337
0.077,0.055,0.317,-5.337
0.151,0.050,0.315,-5.337
0.240,0.048,0.314,-5.337
0.217,0.048,0.315,-5.337
0.129,0.051,0.314,-5.337
0.100,0.048,0.314,-5.337
0.224,0.044,0.314,-5.337
0.235,0.046,0.317,-5.337
0.250,0.043,0.318,-5.337
0.230,0.042,0.315,-5.337
0.224,0.040,0.316,-5.337
0.261,0.040,0.320,-5.337
0.216,0.045,0.317,-5.337
0.164,0.045,0.317,-5.337
0.204,0.040,0.316,-5.337
0.278,0.040,0.314,-5.337
0.216,0.044,0.308,-5.337
0.119,0.047,0.313,-5.337
0.210,0.044,0.318,-5.337
0.249,0.045,0.319,-5.337
0.181,0.042,0.315,-5.337
0.139,0.042,0.310,-5.337
0.145,0.040,0.309,-5.337
0.220,0.040,0.311,-5.337
0.284,0.040,0.313,-5.337
0.292,0.045,0.319,-5.337
0.303,0.045,0.318,-5.337
0.246,0.046,0.316,-5.337
0.256,0.046,0.313,-5.337
0.292,0.044,0.311,-5.337
0.242,0.042,0.313,-5.337
0.232,0.045,0.314,-5.337
0.191,0.045,0.315,-5.337
0.167,0.045,0.313,-5.337
0.211,0.042,0.312,-5.337
0.256,0.044,0.312,-5.337
0.245,0.046,0.316,-5.337
0.232,0.042,0.318,-5.337
0.258,0.044,0.319,-5.337
0.273,0.047,0.319,-5.337
0.262,0.046,0.320,-5.337
0.283,0.045,0.317,-5.337
0.274,0.045,0.315,-5.337
0.186,0.050,0.314,-5.337
0.143,0.053,0.318,-5.337
0.164,0.047,0.318,-5.337
0.172,0.044,0.317,-5.337
0.188,0.039,0.317,-5.337
0.160,0.042,0.311,-5.337
0.156,0.043,0.309,-5.337
0.139,0.043,0.311,-5.337
0.179,0.040,0.314,-5.337
0.241,0.036,0.318,-5.337
0.207,0.037,0.318,-5.337
0.218,0.036,0.314,-5.337
0.200,0.037,0.313,-5.337
0.166,0.042,0.317,-5.337
0.183,0.042,0.322,-5.337
0.163,0.044,0.315,-5.337
0.148,0.044,0.314,-5.337
0.157,0.042,0.314,-5.337
0.242,0.040,0.313,-5.337
0.315,0.038,0.312,-5.337
0.261,0.041,0.316,-5.337
0.200,0.038,0.318,-5.337
0.210,0.034,0.316,-5.337
0.221,0.040,0.313,-5.337
0.167,0.042,0.315,-5.337
0.190,0.042,0.318,-5.337
0.235,0.041,0.318,-5.337
0.206,0.039,0.318,-5.337
0.177,0.042,0.317,-5.337
0.208,0.041,0.318,-5.337
0.185,0.042,0.315,-5.337
0.147,0.041,0.315,-5.337
0.138,0.044,0.317,-5.337
0.167,0.045,0.316,-5.337
0.199,0.042,0.319,-5.337
0.217,0.039,0.318,-5.337
0.209,0.042,0.318,-5.337
0.176,0.044,0.316,-5.337
0.217,0.043,0.316,-5.337
0.247,0.045,0.320,-5.337
0.252,0.044,0.320,-5.337
0.233,0.043,0.318,-5.337
0.222,0.043,0.314,-5.337
0.134,0.044,0.316,-5.337
0.213,0.038,0.316,-5.337
0.273,0.040,0.317,-5.337
0.246,0.043,0.313,-5.337
0.228,0.045,0.311,-5.337
0.202,0.042,0.313,-5.337
0.132,0.044,0.315,-5.337
0.132,0.042,0.316,-5.337
0.213,0.040,0.315,-5.337
0.188,0.041,0.316,-5.337
0.127,0.043,0.317,-5.337
0.211,0.040,0.315,-5.337
0.228,0.042,0.315,-5.337
0.229,0.039,0.315,-5.337
0.270,0.038,0.316,-5.337
0.262,0.041,0.317,-5.337
0.243,0.043,0.319,-5.337
0.227,0.043,0.322,-5.337
0.212,0.040,0.322,-5.337
0.199,0.041,0.317,-5.337
0.207,0.042,0.314,-5.337
0.189,0.043,0.312,-5.337
0.178,0.043,0.312,-5.337
0.190,0.041,0.314,-5.337
0.209,0.042,0.314,-5.337
0.222,0.044,0.316,-5.337
0.220,0.042,0.318,-5.337
0.280,0.039,0.317,-5.337
0.292,0.038,0.315,-5.337
0.237,0.041,0.314,-5.337
0.269,0.043,0.315,-5.337
0.255,0.044,0.319,-5.337
0.238,0.042,0.315,-5.337
0.208,0.038,0.314,-5.337
0.252,0.041,0.315,-5.337
0.203,0.044,0.318,-5.337
0.068,0.044,0.321,-5.337
0.139,0.043,0.320,-5.337
0.218,0.040,0.320,-5.337
0.227,0.041,0.317,-5.337
0.246,0.037,0.313,-5.337
0.247,0.038,0.310,-5.337
0.241,0.041,0.312,-5.337
0.245,0.044,0.316,-5.337
0.193,0.044,0.321,-5.337
0.163,0.042,0.320,-5.337
0.239,0.039,0.320,-5.337
0.332,0.038,0.316,-5.337
0.286,0.042,0.314,-5.337
0.188,0.042,0.312,-5.337
0.183,0.040,0.310,-5.337
0.241,0.036,0.314,-5.337
0.232,0.037,0.319,-5.337
0.289,0.038,0.322,-5.337
0.325,0.034,0.317,-5.337
0.370,0.035,0.313,-5.337
0.391,0.033,0.313,-5.337
0.315,0.034,0.312,-5.337
0.207,0.040,0.316,-5.337
0.252,0.039,0.319,-5.337
0.277,0.040,0.322,-5.337
0.252,0.038,0.321,-5.337
0.200,0.038,0.317,-5.337
0.135,0.039,0.312,-5.337
0.128,0.041,0.310,-5.337
0.175,0.045,0.314,-5.337
0.191,0.044,0.313,-5.337
0.274,0.039,0.317,-5.337
0.216,0.038,0.321,-5.337
0.186,0.042,0.321,-5.337
0.292,0.043,0.316,-5.337
0.297,0.043,0.312,-5.337
0.277,0.039,0.311,-5.337
0.263,0.038,0.313,-5.337
0.224,0.037,0.315,-5.337
0.154,0.040,0.316,-5.337
0.195,0.043,0.316,-5.337
0.172,0.044,0.318,-5.337
0.113,0.043,0.320,-5.337
0.072,0.045,0.322,-5.337
0.129,0.040,0.316,-5.337
0.204,0.041,0.310,-5.337
0.182,0.042,0.308,-5.337
0.253,0.039,0.309,-5.337
0.336,0.041,0.308,-5.337
0.245,0.045,0.307,-5.337
0.170,0.047,0.313,-5.337
0.211,0.042,0.320,-5.337
0.256,0.043,0.322,-5.337
0.187,0.049,0.318,-5.337
0.110,0.049,0.315,-5.337
0.062,0.049,0.309,-5.337
0.050,0.048,0.309,-5.337
0.089,0.046,0.309,-5.337
0.161,0.045,0.312,-5.337
0.173,0.047,0.310,-5.337
0.147,0.050,0.314,-5.337
0.175,0.048,0.319,-5.337
0.178,0.051,0.320,-5.337
0.148,0.050,0.317,-5.337
0.173,0.048,0.317,-5.337
0.172,0.047,0.314,-5.337
0.133,0.049,0.312,-5.337
0.180,0.048,0.313,-5.337
0.288,0.045,0.311,-5.337
0.317,0.047,0.310,-5.337
0.262,0.050,0.313,-5.337
0.201,0.053,0.316,-5.337
0.168,0.053,0.313,-5.337
0.213,0.048,0.314,-5.337
0.264,0.047,0.317,-5.337
0.284,0.046,0.315,-5.337
0.220,0.048,0.312,-5.337
0.162,0.048,0.314,-5.337
0.236,0.044,0.316,-5.337
0.292,0.045,0.317,-5.337
0.237,0.048,0.314,-5.337
0.204,0.047,0.313,-5.337
0.217,0.046,0.313,-5.337
0.144,0.049,0.317,-5.337
0.124,0.049,0.313,-5.337
0.205,0.048,0.308,-5.337
0.217,0.047,0.308,-5.337
0.262,0.048,0.310,-5.337
0.292,0.049,0.310,-5.337
0.270,0.049,0.313,-5.337
0.244,0.051,0.318,-5.337
0.208,0.051,0.320,-5.337
0.112,0.052,0.318,-5.337
0.153,0.051,0.316,-5.337
0.208,0.049,0.318,-5.337
0.253,0.049,0.322,-5.337
0.282,0.043,0.321,-5.337
0.232,0.048,0.317,-5.337
0.139,0.050,0.317,-5.337
0.108,0.048,0.314,-5.337
0.124,0.049,0.312,-5.337
0.200,0.050,0.311,-5.337
0.201,0.052,0.313,-5.337
0.113,0.054,0.313,-5.337
0.068,0.054,0.317,-5.337
0.140,0.051,0.318,-5.337
0.228,0.049,0.316,-5.337
0.233,0.047,0.314,-5.337
0.193,0.049,0.312,-5.337
0.206,0.051,0.314,-5.337
0.233,0.053,0.317,-5.337
0.232,0.052,0.313,-5.337
0.252,0.053,0.312,-5.337
0.282,0.052,0.313,-5.337
0.244,0.054,0.315,-5.337
0.206,0.054,0.315,-5.337
0.229,0.052,0.314,-5.337
0.200,0.055,0.315,-5.337
0.184,0.055,0.315,-5.337
0.258,0.052,0.313,-5.337
0.270,0.053,0.310,-5.337
0.203,0.055,0.314,-5.337
0.120,0.059,0.319,-5.337
0.105,0.060,0.322,-5.337
0.118,0.058,0.319,-5.337
0.152,0.058,0.315,-5.337
0.198,0.058,0.311,-5.337
0.256,0.055,0.310,-5.337
0.212,0.057,0.314,-5.337
0.187,0.055,0.319,-5.337
0.197,0.058,0.318,-5.337
0.207,0.060,0.315,-5.337
0.242,0.056,0.312,-5.337
0.165,0.059,0.314,-5.337
0.105,0.062,0.314,-5.337
0.107,0.062,0.314,-5.337
0.173,0.059,0.312,-5.337
0.182,0.057,0.310,-5.337
0.150,0.056,0.312,-5.337
0.157,0.054,0.310,-5.337
0.240,0.053,0.312,-5.337
0.248,0.058,0.316,-5.337
0.174,0.060,0.319,-5.337
0.167,0.063,0.318,-5.337
0.190,0.063,0.318,-5.337
0.170,0.059,0.317,-5.337
0.191,0.060,0.319,-5.337
0.231,0.061,0.318,-5.337
0.216,0.062,0.316,-5.337
0.182,0.061,0.314,-5.337
0.133,0.059,0.313,-5.337
0.136,0.058,0.312,-5.337
0.271,0.055,0.311,-5.337
0.290,0.057,0.311,-5.337
0.161,0.062,0.313,-5.337
0.075,0.059,0.317,-5.337
0.172,0.055,0.318,-5.337
0.242,0.061,0.316,-5.337
0.202,0.063,0.313,-5.337
0.202,0.061,0.310,-5.337
0.269,0.058,0.309,-5.337
0.265,0.060,0.312,-5.337
0.212,0.060,0.315,-5.337
0.220,0.061,0.316,-5.337
0.184,0.061,0.311,-5.337
0.152,0.063,0.310,-5.337
0.192,0.062,0.310,-5.337
0.258,0.064,0.315,-5.337
0.207,0.062,0.314,-5.337
0.207,0.060,0.312,-5.337
0.241,0.060,0.311,-5.337
0.261,0.061,0.310,-5.337
0.256,0.063,0.309,-5.337
0.280,0.064,0.312,-5.337
0.282,0.065,0.314,-5.337
0.214,0.066,0.315,-5.337
0.161,0.067,0.317,-5.337
0.147,0.067,0.316,-5.337
0.228,0.068,0.310,-5.337
0.214,0.068,0.308,-5.337
0.161,0.067,0.310,-5.337
0.129,0.064,0.313,-5.337
0.107,0.061,0.314,-5.337
0.186,0.059,0.315,-5.337
0.208,0.063,0.316,-5.337
0.228,0.059,0.314,-5.337
0.271,0.061,0.312,-5.337
0.220,0.067,0.312,-5.337
0.154,0.068,0.312,-5.337
0.165,0.066,0.312,-5.337
0.218,0.066,0.315,-5.337
0.199,0.068,0.317,-5.337
0.180,0.068,0.316,-5.337
0.136,0.068,0.315,-5.337
0.117,0.070,0.315,-5.337
0.113,0.066,0.312,-5.337
0.170,0.069,0.309,-5.337
0.204,0.067,0.307,-5.337
0.217,0.068,0.309,-5.337
0.244,0.069,0.312,-5.337
0.230,0.070,0.319,-5.337
0.155,0.070,0.319,-5.337
0.144,0.069,0.317,-5.337
0.210,0.066,0.316,-5.337
0.239,0.068,0.314,-5.337
0.178,0.070,0.314,-5.337
0.136,0.068,0.314,-5.337
0.224,0.062,0.315,-5.337
0.300,0.064,0.312,-5.337
0.260,0.064,0.313,-5.337
0.227,0.063,0.315,-5.337
0.231,0.063,0.315,-5.337
0.152,0.068,0.313,-5.337
0.090,0.069,0.311,-5.337
0.099,0.067,0.311,-5.337
0.160,0.064,0.311,-5.337
0.161,0.061,0.310,-5.337
0.134,0.066,0.310,-5.337
0.131,0.063,0.315,-5.337
0.126,0.065,0.319,-5.337
0.182,0.062,0.320,-5.337
0.194,0.063,0.318,-5.337
0.156,0.067,0.319,-5.337
0.136,0.067,0.319,-5.337
0.183,0.067,0.320,-5.337
0.225,0.067,0.319,-5.337
0.203,0.064,0.313,-5.337
0.191,0.066,0.308,-5.337
0.215,0.067,0.309,-5.337
0.241,0.066,0.312,-5.337
0.179,0.067,0.311,-5.337
0.171,0.071,0.309,-5.337
0.180,0.073,0.314,-5.337
0.139,0.073,0.319,-5.337
0.142,0.072,0.319,-5.337
0.131,0.070,0.315,-5.337
0.169,0.068,0.314,-5.337
0.156,0.068,0.311,-5.337
0.101,0.067,0.311,-5.337
0.141,0.067,0.313,-5.337
0.162,0.070,0.317,-5.337
0.157,0.068,0.319,-5.337
0.177,0.063,0.319,-5.337
0.237,0.064,0.318,-5.337
0.271,0.060,0.315,-5.337
0.212,0.056,0.314,-5.337
0.171,0.059,0.314,-5.337
0.135,0.060,0.316,-5.337
0.173,0.061,0.316,-5.337
0.225,0.059,0.317,-5.337
0.210,0.063,0.317,-5.337
0.217,0.063,0.313,-5.337
0.233,0.063,0.310,-5.337
0.292,0.063,0.313,-5.337
0.282,0.063,0.313,-5.337
0.154,0.064,0.312,-5.337
0.067,0.066,0.313,-5.337
0.111,0.068,0.319,-5.337
0.158,0.066,0.318,-5.337
0.133,0.068,0.314,-5.337
0.158,0.071,0.308,-5.337
0.199,0.069,0.307,-5.337
0.210,0.068,0.311,-5.337
0.210,0.069,0.315,-5.337
0.225,0.067,0.315,-5.337
0.213,0.068,0.315,-5.337
0.248,0.066,0.311,-5.337
0.249,0.068,0.314,-5.337
0.130,0.070,0.318,-5.337
0.108,0.072,0.320,-5.337
0.155,0.069,0.321,-5.337
0.198,0.069,0.319,-5.337
0.164,0.068,0.316,-5.337
0.142,0.067,0.313,-5.337
0.144,0.070,0.313,-5.337
0.139,0.073,0.312,-5.337
0.146,0.073,0.311,-5.337
0.128,0.067,0.313,-5.337
0.113,0.069,0.311,-5.337
0.120,0.069,0.310,-5.337
0.153,0.068,0.315,-5.337
0.153,0.068,0.320,-5.337
0.090,0.068,0.319,-5.337
0.140,0.067,0.316,-5.337
0.113,0.070,0.315,-5.337
0.091,0.071,0.316,-5.337
0.136,0.070,0.314,-5.337
0.224,0.066,0.311,-5.337
0.263,0.064,0.309,-5.337
0.241,0.061,0.314,-5.337
0.272,0.061,0.316,-5.337
0.218,0.061,0.316,-5.337
0.159,0.063,0.317,-5.337
0.170,0.061,0.318,-5.337
0.179,0.061,0.318,-5.337
0.211,0.060,0.318,-5.337
0.235,0.058,0.315,-5.337
0.192,0.055,0.314,-5.337
0.083,0.057,0.315,-5.337
0.116,0.058,0.317,-5.337
0.184,0.054,0.314,-5.337
0.228,0.053,0.313,-5.337
0.168,0.056,0.313,-5.337
0.196,0.060,0.315,-5.337
0.233,0.058,0.313,-5.337
0.156,0.062,0.313,-5.337
0.146,0.058,0.313,-5.337
0.188,0.054,0.313,-5.337
0.192,0.057,0.311,-5.337
0.237,0.060,0.312,-5.337
0.303,0.058,0.312,-5.337
0.385,0.053,0.314,-5.337
0.356,0.053,0.314,-5.337
0.289,0.058,0.312,-5.337
0.257,0.057,0.313,-5.337
0.249,0.052,0.313,-5.337
0.234,0.056,0.313,-5.337
0.273,0.058,0.313,-5.337
0.246,0.053,0.315,-5.337
0.224,0.054,0.316,-5.337
0.200,0.054,0.316,-5.337
0.138,0.056,0.315,-5.337
0.181,0.056,0.314,-5.337
0.220,0.055,0.309,-5.337
0.196,0.058,0.309,-5.337
0.163,0.056,0.313,-5.337
0.163,0.055,0.316,-5.337
0.182,0.051,0.317,-5.337
0.206,0.056,0.320,-5.337
0.152,0.057,0.320,-5.337
0.120,0.053,0.317,-5.337
0.177,0.050,0.314,-5.337
0.102,0.056,0.312,-5.337
0.122,0.055,0.310,-5.337
0.229,0.054,0.312,-5.337
0.266,0.055,0.309,-5.337
0.185,0.056,0.310,-5.337
0.149,0.054,0.311,-5.337
0.191,0.053,0.313,-5.337
0.218,0.054,0.316,-5.337
0.104,0.057,0.317,-5.337
0.130,0.058,0.315,-5.337
0.169,0.052,0.312,-5.337
0.191,0.048,0.314,-5.337
0.187,0.048,0.316,-5.337
0.158,0.048,0.315,-5.337
0.189,0.050,0.314,-5.337
0.288,0.052,0.316,-5.337
0.356,0.053,0.315,-5.337
0.270,0.053,0.313,-5.337
0.193,0.051,0.313,-5.337
0.186,0.051,0.316,-5.337
0.300,0.048,0.314,-5.337
0.309,0.050,0.315,-5.337
0.223,0.047,0.316,-5.337
0.235,0.046,0.311,-5.337
0.178,0.048,0.307,-5.337
0.139,0.048,0.311,-5.337
0.138,0.048,0.314,-5.337
0.212,0.048,0.315,-5.337
0.250,0.048,0.318,-5.337
0.198,0.050,0.317,-5.337
0.143,0.053,0.314,-5.337
0.198,0.052,0.315,-5.337
0.189,0.052,0.322,-5.337
0.207,0.056,0.327,-5.337
0.188,0.053,0.322,-5.337
0.243,0.051,0.318,-5.337
0.224,0.054,0.317,-5.337
0.143,0.056,0.315,-5.337
0.146,0.051,0.313,-5.337
0.210,0.046,0.313,-5.337
0.245,0.048,0.311,-5.337
0.221,0.051,0.310,-5.337
0.217,0.049,0.313,-5.337
0.282,0.048,0.313,-5.337
0.267,0.051,0.312,-5.337
0.201,0.049,0.309,-5.337
0.179,0.046,0.309,-5.337
0.198,0.043,0.313,-5.337
0.104,0.046,0.318,-5.337
0.050,0.051,0.318,-5.337
0.063,0.052,0.317,-5.337
0.062,0.051,0.314,-5.337
0.084,0.048,0.316,-5.337
0.127,0.049,0.319,-5.337
0.165,0.047,0.321,-5.337
0.217,0.047,0.321,-5.337
0.145,0.048,0.319,-5.337
0.063,0.049,0.319,-5.337
0.060,0.045,0.319,-5.337
0.194,0.043,0.320,-5.337
0.241,0.042,0.318,-5.337
0.178,0.044,0.317,-5.337
0.192,0.043,0.314,-5.337
0.215,0.043,0.311,-5.337
0.176,0.040,0.306,-5.337
0.145,0.041,0.307,-5.337
0.190,0.041,0.314,-5.337
0.301,0.041,0.317,-5.337
0.343,0.042,0.315,-5.337
0.257,0.044,0.315,-5.337
0.185,0.044,0.316,-5.337
0.230,0.045,0.313,-5.337
0.246,0.046,0.313,-5.337
0.258,0.047,0.316,-5.337
0.299,0.047,0.320,-5.337
0.308,0.046,0.322,-5.337
0.313,0.044,0.322,-5.337
0.323,0.044,0.319,-5.337
0.277,0.048,0.317,-5.337
0.222,0.049,0.317,-5.337
0.242,0.045,0.320,-5.337
0.302,0.044,0.315,-5.337
0.188,0.047,0.313,-5.337
0.066,0.047,0.312,-5.337
0.141,0.049,0.316,-5.337
0.171,0.047,0.321,-5.337
0.167,0.042,0.319,-5.337
0.219,0.043,0.317,-5.337
0.200,0.046,0.312,-5.337
0.206,0.042,0.308,-5.337
0.291,0.044,0.313,-5.337
0.262,0.047,0.318,-5.337
0.209,0.047,0.317,-5.337
0.216,0.049,0.314,-5.337
0.174,0.049,0.314,-5.337
0.091,0.049,0.315,-5.337
0.167,0.046,0.313,-5.337
0.203,0.048,0.316,-5.337
0.196,0.045,0.315,-5.337
0.229,0.044,0.314,-5.337
0.205,0.046,0.315,-5.337
0.140,0.044,0.317,-5.337
0.174,0.042,0.319,-5.337
0.157,0.043,0.320,-5.337
0.181,0.041,0.321,-5.337
0.147,0.040,0.325,-5.337
0.137,0.043,0.321,-5.337
0.205,0.043,0.316,-5.337
0.297,0.041,0.313,-5.337
0.228,0.044,0.314,-5.337
0.223,0.042,0.315,-5.337
0.290,0.041,0.312,-5.337
0.299,0.045,0.313,-5.337
0.177,0.045,0.318,-5.337
0.115,0.043,0.318,-5.337
0.151,0.042,0.317,-5.337
0.226,0.042,0.315,-5.337
0.246,0.044,0.316,-5.337
0.172,0.044,0.315,-5.337
0.110,0.046,0.316,-5.337
0.088,0.048,0.317,-5.337
0.198,0.042,0.314,-5.337
0.245,0.040,0.314,-5.337
0.259,0.043,0.310,-5.337
0.171,0.046,0.311,-5.337
0.133,0.042,0.311,-5.337
0.234,0.038,0.313,-5.337
0.256,0.042,0.312,-5.337
0.169,0.045,0.314,-5.337
0.079,0.044,0.318,-5.337
0.145,0.037,0.320,-5.337
0.283,0.037,0.317,-5.337
0.230,0.045,0.314,-5.337
0.145,0.044,0.316,-5.337
0.146,0.045,0.317,-5.337
0.128,0.045,0.318,-5.337
0.119,0.047,0.319,-5.337
0.182,0.045,0.321,-5.337
0.221,0.042,0.318,-5.337
0.198,0.044,0.314,-5.337
0.216,0.046,0.314,-5.337
0.213,0.047,0.312,-5.337
0.253,0.047,0.317,-5.337
0.236,0.051,0.321,-5.337
0.186,0.051,0.321,-5.337
0.168,0.048,0.318,-5.337
0.153,0.044,0.316,-5.337
0.176,0.047,0.317,-5.337
0.128,0.047,0.315,-5.337
0.130,0.045,0.314,-5.337
0.205,0.042,0.317,-5.337
0.221,0.041,0.319,-5.337
0.254,0.039,0.317,-5.337
0.291,0.040,0.318,-5.337
0.261,0.038,0.317,-5.337
0.237,0.041,0.315,-5.337
0.182,0.043,0.312,-5.337
0.179,0.045,0.310,-5.337
0.215,0.042,0.314,-5.337
0.306,0.045,0.314,-5.337
0.314,0.047,0.315,-5.337
0.214,0.049,0.320,-5.337
0.138,0.051,0.321,-5.337
0.224,0.048,0.317,-5.337
0.295,0.045,0.317,-5.337
0.312,0.041,0.314,-5.337
0.263,0.041,0.315,-5.337
0.236,0.044,0.318,-5.337
0.253,0.045,0.319,-5.337
0.277,0.041,0.317,-5.337
0.317,0.038,0.317,-5.337
0.330,0.040,0.315,-5.337
0.246,0.041,0.317,-5.337
0.101,0.041,0.320,-5.337
0.078,0.041,0.319,-5.337
0.204,0.040,0.316,-5.337
0.258,0.039,0.318,-5.337
0.244,0.039,0.320,-5.337
0.251,0.041,0.319,-5.337
0.223,0.039,0.317,-5.337
0.129,0.040,0.315,-5.337
0.083,0.040,0.314,-5.337
0.147,0.041,0.313,-5.337
0.227,0.040,0.314,-5.337
0.254,0.040,0.315,-5.337
0.236,0.042,0.316,-5.337
0.252,0.042,0.321,-5.337
0.235,0.039,0.324,-5.337
0.235,0.038,0.322,-5.337
0.264,0.038,0.316,-5.337
0.229,0.041,0.311,-5.337
0.201,0.037,0.311,-5.337
0.189,0.038,0.315,-5.337
0.168,0.039,0.320,-5.337
0.198,0.039,0.320,-5.337
0.256,0.040,0.318,-5.337
0.216,0.042,0.312,-5.337
0.162,0.044,0.312,-5.337
0.144,0.042,0.313,-5.337
0.189,0.039,0.317,-5.337
0.205,0.040,0.317,-5.337
0.192,0.042,0.315,-5.337
0.230,0.042,0.319,-5.337
0.283,0.043,0.323,-5.337
0.240,0.044,0.325,-5.337
0.202,0.043,0.322,-5.337
0.193,0.047,0.318,-5.337
0.230,0.047,0.317,-5.337
0.346,0.044,0.317,-5.337
0.283,0.044,0.317,-5.337
0.213,0.047,0.317,-5.337
0.261,0.048,0.314,-5.337
0.213,0.052,0.318,-5.337
0.146,0.052,0.319,-5.337
0.116,0.054,0.318,-5.337
0.078,0.053,0.317,-5.337
0.162,0.050,0.318,-5.337
0.289,0.044,0.319,-5.337
0.200,0.044,0.317,-5.337
0.139,0.045,0.312,-5.337
0.185,0.045,0.314,-5.337
0.181,0.045,0.319,-5.337
0.160,0.047,0.318,-5.337
0.195,0.047,0.317,-5.337
0.294,0.048,0.319,-5.337
0.287,0.047,0.319,-5.337
0.219,0.048,0.318,-5.337
0.195,0.045,0.314,-5.337
0.231,0.044,0.314,-5.337
0.257,0.041,0.316,-5.337
0.217,0.048,0.320,-5.337
0.171,0.047,0.322,-5.337
0.253,0.047,0.318,-5.337
0.247,0.048,0.315,-5.337
0.207,0.050,0.312,-5.337
0.227,0.046,0.314,-5.337
0.236,0.048,0.317,-5.337
0.188,0.050,0.320,-5.337
0.121,0.055,0.317,-5.337
0.056,0.057,0.318,-5.337
0.085,0.053,0.316,-5.337
0.136,0.056,0.312,-5.337
0.187,0.053,0.312,-5.337
0.168,0.056,0.315,-5.337
0.086,0.056,0.317,-5.337
0.120,0.054,0.316,-5.337
0.175,0.052,0.315,-5.337
0.235,0.050,0.317,-5.337
0.214,0.048,0.320,-5.337
0.233,0.049,0.319,-5.337
0.285,0.048,0.318,-5.337
0.207,0.049,0.316,-5.337
0.128,0.050,0.316,-5.337
0.162,0.050,0.316,-5.337
0.239,0.049,0.317,-5.337
0.290,0.049,0.317,-5.337
0.322,0.048,0.314,-5.337
0.262,0.050,0.313,-5.337
0.192,0.051,0.314,-5.337
0.198,0.052,0.314,-5.337
0.206,0.048,0.319,-5.337
0.096,0.054,0.322,-5.337
0.057,0.054,0.319,-5.337
0.200,0.047,0.314,-5.337
0.293,0.047,0.318,-5.337
0.224,0.048,0.316,-5.337
0.121,0.054,0.313,-5.337
0.140,0.051,0.314,-5.337
0.215,0.052,0.317,-5.337
0.182,0.053,0.317,-5.337
0.159,0.053,0.317,-5.337
0.119,0.053,0.316,-5.337
0.109,0.053,0.315,-5.337
0.151,0.051,0.313,-5.337
0.223,0.050,0.312,-5.337
0.235,0.053,0.314,-5.337
0.173,0.054,0.315,-5.337
0.174,0.052,0.314,-5.337
0.258,0.049,0.313,-5.337
0.264,0.053,0.319,-5.337
0.201,0.055,0.324,-5.337
0.219,0.053,0.325,-5.337
0.259,0.053,0.320,-5.337
0.204,0.055,0.316,-5.337
0.200,0.052,0.315,-5.337
0.230,0.050,0.317,-5.337
0.240,0.053,0.316,-5.337
0.242,0.053,0.313,-5.337
0.234,0.050,0.310,-5.337
0.253,0.052,0.312,-5.337
0.243,0.053,0.317,-5.337
0.252,0.053,0.320,-5.337
0.241,0.055,0.319,-5.337
0.199,0.056,0.319,-5.337
0.174,0.056,0.313,-5.337
0.182,0.054,0.309,-5.337
0.239,0.047,0.310,-5.337
0.307,0.049,0.315,-5.337
0.291,0.057,0.317,-5.337
0.155,0.060,0.319,-5.337
0.131,0.059,0.319,-5.337
0.150,0.057,0.316,-5.337
0.189,0.058,0.317,-5.337
0.182,0.059,0.317,-5.337
0.160,0.059,0.314,-5.337
0.162,0.057,0.310,-5.337
0.190,0.058,0.310,-5.337
0.176,0.059,0.314,-5.337
0.207,0.058,0.319,-5.337
0.215,0.059,0.316,-5.337
0.180,0.059,0.316,-5.337
0.170,0.059,0.313,-5.337
0.203,0.059,0.313,-5.337
0.196,0.058,0.317,-5.337
0.128,0.058,0.321,-5.337
0.157,0.055,0.322,-5.337
0.216,0.055,0.320,-5.337
0.209,0.058,0.317,-5.337
0.134,0.062,0.314,-5.337
0.123,0.062,0.316,-5.337
0.154,0.059,0.321,-5.337
0.193,0.061,0.322,-5.337
0.197,0.057,0.319,-5.337
0.243,0.055,0.320,-5.337
0.194,0.062,0.323,-5.337
0.189,0.058,0.324,-5.337
0.259,0.057,0.319,-5.337
0.249,0.060,0.311,-5.337
0.253,0.062,0.304,-5.337
0.325,0.060,0.307,-5.337
0.308,0.056,0.312,-5.337
0.235,0.062,0.318,-5.337
0.170,0.059,0.321,-5.337
0.179,0.059,0.318,-5.337
0.166,0.057,0.314,-5.337
0.151,0.056,0.314,-5.337
0.091,0.057,0.315,-5.337
0.098,0.058,0.314,-5.337
0.157,0.064,0.317,-5.337
0.128,0.062,0.320,-5.337
0.142,0.058,0.321,-5.337
0.162,0.059,0.320,-5.337
0.153,0.062,0.317,-5.337
0.188,0.061,0.316,-5.337
0.264,0.059,0.317,-5.337
0.260,0.060,0.321,-5.337
0.204,0.059,0.323,-5.337
0.189,0.059,0.319,-5.337
0.174,0.063,0.318,-5.337
0.172,0.061,0.316,-5.337
0.210,0.057,0.316,-5.337
0.236,0.057,0.315,-5.337
0.189,0.059,0.314,-5.337
0.178,0.060,0.312,-5.337
0.211,0.063,0.314,-5.337
0.236,0.063,0.315,-5.337
0.194,0.066,0.315,-5.337
0.104,0.064,0.315,-5.337
0.178,0.064,0.316,-5.337
0.217,0.061,0.314,-5.337
0.170,0.061,0.314,-5.337
0.141,0.061,0.317,-5.337
0.182,0.065,0.318,-5.337
0.235,0.064,0.318,-5.337
0.281,0.064,0.319,-5.337
0.299,0.066,0.318,-5.337
0.233,0.069,0.315,-5.337
0.187,0.066,0.315,-5.337
0.165,0.066,0.312,-5.337
0.206,0.068,0.310,-5.337
0.220,0.067,0.314,-5.337
0.179,0.064,0.318,-5.337
0.171,0.064,0.316,-5.337
0.159,0.063,0.314,-5.337
0.183,0.064,0.314,-5.337
0.191,0.064,0.317,-5.337
0.208,0.063,0.321,-5.337
0.160,0.067,0.321,-5.337
0.159,0.065,0.320,-5.337
0.195,0.068,0.317,-5.337
0.147,0.062,0.315,-5.337
0.108,0.062,0.316,-5.337
0.153,0.059,0.316,-5.337
0.247,0.059,0.318,-5.337
0.256,0.060,0.318,-5.337
0.251,0.061,0.317,-5.337
0.249,0.062,0.315,-5.337
0.295,0.059,0.315,-5.337
0.285,0.062,0.317,-5.337
0.255,0.062,0.318,-5.337
0.252,0.062,0.316,-5.337
0.272,0.060,0.313,-5.337
0.236,0.060,0.312,-5.337
0.239,0.063,0.315,-5.337
0.343,0.061,0.316,-5.337
0.365,0.062,0.313,-5.337
0.251,0.063,0.312,-5.337
0.196,0.063,0.312,-5.337
0.119,0.068,0.316,-5.337
0.019,0.070,0.317,-5.337
0.052,0.068,0.316,-5.337
0.083,0.068,0.317,-5.337
0.072,0.068,0.318,-5.337
0.085,0.071,0.319,-5.337
0.060,0.066,0.319,-5.337
0.081,0.068,0.319,-5.337
0.111,0.067,0.317,-5.337
0.180,0.064,0.314,-5.337
0.152,0.068,0.312,-5.337
0.168,0.069,0.315,-5.337
0.214,0.069,0.316,-5.337
0.164,0.066,0.316,-5.337
0.104,0.063,0.315,-5.337
0.082,0.064,0.315,-5.337
0.146,0.064,0.320,-5.337
0.194,0.063,0.320,-5.337
0.204,0.064,0.316,-5.337
0.158,0.065,0.314,-5.337
0.146,0.066,0.313,-5.337
0.157,0.065,0.318,-5.337
0.131,0.063,0.317,-5.337
0.151,0.061,0.316,-5.337
0.150,0.062,0.314,-5.337
0.163,0.064,0.315,-5.337
0.230,0.063,0.312,-5.337
0.302,0.062,0.312,-5.337
0.236,0.064,0.317,-5.337
0.206,0.063,0.321,-5.337
0.250,0.062,0.320,-5.337
0.280,0.063,0.317,-5.337
0.300,0.062,0.311,-5.337
0.303,0.064,0.310,-5.337
0.312,0.063,0.311,-5.337
0.271,0.062,0.316,-5.337
0.185,0.062,0.320,-5.337
0.130,0.065,0.319,-5.337
0.138,0.064,0.316,-5.337
0.178,0.062,0.314,-5.337
0.179,0.065,0.317,-5.337
0.123,0.068,0.317,-5.337
0.101,0.068,0.317,-5.337
0.083,0.063,0.315,-5.337
0.149,0.062,0.313,-5.337
0.216,0.065,0.311,-5.337
0.238,0.061,0.315,-5.337
0.273,0.059,0.318,-5.337
0.240,0.063,0.318,-5.337
0.161,0.061,0.317,-5.337
0.103,0.060,0.321,-5.337
0.137,0.057,0.322,-5.337
0.239,0.059,0.317,-5.337
0.241,0.060,0.313,-5.337
0.143,0.062,0.314,-5.337
0.166,0.060,0.318,-5.337
0.207,0.057,0.322,-5.337
0.230,0.057,0.320,-5.337
0.294,0.058,0.314,-5.337
0.263,0.057,0.310,-5.337
0.299,0.056,0.311,-5.337
0.281,0.057,0.318,-5.337
0.179,0.063,0.320,-5.337
0.170,0.062,0.320,-5.337
0.219,0.060,0.319,-5.337
0.321,0.055,0.318,-5.337
0.242,0.055,0.316,-5.337
0.133,0.057,0.318,-5.337
0.188,0.054,0.321,-5.337
0.254,0.057,0.323,-5.337
0.279,0.053,0.323,-5.337
0.252,0.050,0.322,-5.337
0.293,0.049,0.319,-5.337
0.306,0.054,0.317,-5.337
0.247,0.054,0.316,-5.337
0.233,0.050,0.318,-5.337
0.197,0.052,0.318,-5.337
0.177,0.058,0.316,-5.337
0.188,0.058,0.315,-5.337
0.209,0.051,0.315,-5.337
0.222,0.051,0.317,-5.337
0.136,0.058,0.315,-5.337
0.040,0.060,0.313,-5.337
0.035,0.057,0.316,-5.337
0.124,0.052,0.318,-5.337
0.231,0.054,0.310,-5.337
0.242,0.058,0.307,-5.337
0.230,0.058,0.314,-5.337
0.183,0.058,0.320,-5.337
0.242,0.051,0.320,-5.337
0.307,0.050,0.323,-5.337
0.306,0.050,0.324,-5.337
0.250,0.053,0.318,-5.337
0.232,0.048,0.315,-5.337
0.187,0.051,0.317,-5.337
0.098,0.056,0.316,-5.337
0.128,0.055,0.317,-5.337
0.171,0.052,0.317,-5.337
0.184,0.050,0.320,-5.337
0.147,0.053,0.318,-5.337
0.191,0.055,0.319,-5.337
0.256,0.053,0.318,-5.337
0.320,0.049,0.315,-5.337
0.281,0.052,0.316,-5.337
0.235,0.053,0.317,-5.337
0.256,0.050,0.317,-5.337
0.199,0.049,0.317,-5.337
0.170,0.054,0.316,-5.337
0.164,0.055,0.313,-5.337
0.178,0.051,0.314,-5.337
0.170,0.048,0.314,-5.337
0.148,0.047,0.314,-5.337
0.192,0.046,0.313,-5.337
0.213,0.047,0.315,-5.337
0.210,0.048,0.316,-5.337
0.205,0.049,0.315,-5.337
0.216,0.048,0.318,-5.337
0.243,0.049,0.321,-5.337
0.222,0.047,0.323,-5.337
0.224,0.047,0.318,-5.337
0.253,0.044,0.316,-5.337
0.246,0.046,0.315,-5.337
0.265,0.046,0.311,-5.337
0.209,0.047,0.314,-5.337
0.222,0.048,0.317,-5.337
0.252,0.049,0.319,-5.337
0.198,0.049,0.319,-5.337
0.194,0.050,0.318,-5.337
0.190,0.051,0.317,-5.337
0.166,0.050,0.311,-5.337
0.290,0.045,0.310,-5.337
0.344,0.049,0.312,-5.337
0.229,0.054,0.319,-5.337
0.170,0.053,0.319,-5.337
0.151,0.049,0.316,-5.337
0.209,0.046,0.312,-5.337
0.180,0.051,0.313,-5.337
0.127,0.048,0.314,-5.337
0.113,0.045,0.314,-5.337
0.175,0.043,0.313,-5.337
0.228,0.040,0.311,-5.337
0.240,0.044,0.311,-5.337
0.229,0.046,0.312,-5.337
0.174,0.045,0.315,-5.337
0.135,0.045,0.318,-5.337
0.151,0.046,0.315,-5.337
0.169,0.042,0.314,-5.337
0.193,0.040,0.317,-5.337
0.172,0.042,0.319,-5.337
0.118,0.044,0.317,-5.337
0.113,0.043,0.313,-5.337
0.189,0.044,0.310,-5.337
0.162,0.048,0.311,-5.337
0.133,0.048,0.318,-5.337
0.183,0.045,0.322,-5.337
0.238,0.043,0.319,-5.337
0.277,0.044,0.317,-5.337
0.268,0.045,0.318,-5.337
0.268,0.044,0.313,-5.337
0.227,0.047,0.313,-5.337
0.136,0.045,0.313,-5.337
0.123,0.042,0.317,-5.337
0.208,0.039,0.317,-5.337
0.194,0.042,0.315,-5.337
0.158,0.044,0.317,-5.337
0.184,0.046,0.318,-5.337
0.210,0.046,0.318,-5.337
0.239,0.047,0.317,-5.337
0.207,0.050,0.315,-5.337
0.181,0.051,0.315,-5.337
0.171,0.050,0.312,-5.337
0.158,0.048,0.312,-5.337
0.164,0.045,0.316,-5.337
0.242,0.042,0.318,-5.337
0.272,0.041,0.317,-5.337
0.315,0.043,0.315,-5.337
0.359,0.042,0.317,-5.337
0.345,0.041,0.316,-5.337
0.277,0.041,0.311,-5.337
0.205,0.043,0.307,-5.337
0.273,0.044,0.311,-5.337
0.315,0.043,0.318,-5.337
0.299,0.044,0.320,-5.337
0.304,0.044,0.317,-5.337
0.288,0.044,0.316,-5.337
0.301,0.042,0.316,-5.337
0.340,0.043,0.319,-5.337
0.260,0.046,0.322,-5.337
0.115,0.048,0.320,-5.337
0.115,0.043,0.316,-5.337
0.163,0.042,0.315,-5.337
0.244,0.041,0.318,-5.337
0.212,0.044,0.321,-5.337
