File Version,253.000000
# of Channels,2.000000
Samples/Channel,10300.000000
Scan Rate (Hz),10000.000000
Timestamp,3807792852.759867
Operating Mode,1.000000
Trial #,36.000000
Session #,24.000000
Subject code 1,82.000000
Subject code 2,88.000000
Feedback Window,0.000000
Feedback Ch,0.000000
Ch B,0.000000
Pre-Stim Acq. time (ms),100.000000
Post-Stim Acq. time (ms),900.000000
EMG Hi Limit,50.000000
EMG Lo Limit,0.000250
Target Value (V),5.000000
Stimulus Value (V),0.928763
Stimulus duration (ms),1.000000
EMG conditions time limit (sec),0.200000
M-response Start (ms),2.000000
M-response Duration (ms),2.000000
H-response Duration (ms),2.000000
H-response Start (ms),5.000000
Proportioanl gain,0.003000
Channel to monitor,0.000000
SIU gain,20.000000
FB Monitor value,0.260740
Inter-Stim delay (sec),5.000000
M-Window Mean,0.406547
H-Window Mean,0.011442
Stimulus paradigm,2.000000
# of Pulses in cond train,1.000000
Cond duration (ms),1.000000
Cond Train pulse period (ms),30.000000
Cond Value (V),0.928763
Start Delay (ms),0.000000
# of Pulses in stim train,1.000000
Stim Train pulse period (ms),30.000000
EMG amp gain ch 1,500.000000
EMG amp gain ch 2,500.000000
EMG amp gain ch 3,1000.000000
EMG amp gain ch 4,1000.000000
EMG amp gain ch 5,1000.000000
EMG amp gain ch 6,1000.000000
Stim Type 1,2.000000
Stim/Cond 1,0.000000
Stim Type 2,3.000000
Stim/Cond 2,0.000000
Stim Type 3,3.000000
Stim/Cond 3,0.000000
Stim Type 4,3.000000
Stim/Cond 4,0.000000
Stim Value 1,0.928763
Stim Value 2,0.000000
Stim Value 3,0.000000
Stim Value 4,0.000000
1st PP Channel,-1.000000
Pressure (g),0.000000
Speed (mm/sec),0.000000
Dwell (ms),0.000000
Pressure limit (g),0.000000
Travel limit (mm),0.000000
Amp gain,0.000000
Wait Trig?,0.000000
Move Timeout (ms),0.000000
Time Taken (ms),0.000000
Actual Travel (mm),0.000000
Recorded Data (mV),
0.042,0.035
0.046,0.037
0.044,0.032
0.045,0.036
0.045,0.033
0.048,0.034
0.047,0.035
0.049,0.035
0.047,0.038
0.047,0.036
0.046,0.041
0.047,0.039
0.048,0.042
0.048,0.040
0.048,0.040
0.048,0.040
0.047,0.045
0.046,0.041
0.051,0.044
0.048,0.041
0.050,0.042
0.049,0.041
0.050,0.043
0.047,0.043
0.051,0.044
0.050,0.044
0.049,0.045
0.048,0.043
0.049,0.045
0.048,0.047
0.047,0.044
0.047,0.048
0.046,0.047
0.047,0.051
0.047,0.049
0.047,0.049
0.049,0.049
0.050,0.045
0.048,0.045
0.050,0.045
0.049,0.043
0.048,0.041
0.049,0.041
0.050,0.043
0.049,0.039
0.051,0.040
0.050,0.041
0.049,0.037
0.050,0.041
0.050,0.039
0.050,0.041
0.047,0.038
0.045,0.038
0.045,0.036
0.048,0.037
0.048,0.033
0.050,0.035
0.047,0.032
0.051,0.030
0.049,0.029
0.047,0.028
0.051,0.029
0.047,0.028
0.049,0.026
0.047,0.025
0.048,0.025
0.052,0.022
0.051,0.021
0.054,0.019
0.056,0.018
0.054,0.019
0.055,0.019
0.053,0.018
0.049,0.011
0.051,0.016
0.051,0.013
0.054,0.013
0.050,0.012
0.053,0.014
0.049,0.012
0.052,0.014
0.049,0.011
0.051,0.012
0.049,0.007
0.049,0.011
0.048,0.009
0.051,0.008
0.049,0.009
0.051,0.005
0.049,0.007
0.050,0.003
0.048,0.007
0.048,0.004
0.049,0.009
0.046,0.008
0.049,0.009
0.047,0.007
0.050,0.006
0.050,0.001
0.051,0.004
0.052,-0.000
0.049,0.002
0.047,-0.003
0.050,-0.002
0.049,-0.002
0.052,-0.003
0.049,0.000
0.051,0.001
0.049,0.004
0.049,-0.001
0.048,0.002
0.047,-0.001
0.048,-0.001
0.048,-0.002
0.051,-0.001
0.047,-0.001
0.050,-0.000
0.047,-0.001
0.050,0.000
0.045,-0.003
0.048,0.001
0.044,0.003
0.049,0.002
0.047,0.009
0.049,0.005
0.049,0.010
0.049,0.008
0.050,0.007
0.048,0.009
0.049,0.011
0.049,0.011
0.049,0.012
0.047,0.010
0.050,0.009
0.047,0.008
0.049,0.013
0.047,0.009
0.049,0.013
0.047,0.010
0.050,0.010
0.046,0.014
0.047,0.013
0.048,0.018
0.046,0.015
0.046,0.019
0.046,0.014
0.048,0.019
0.049,0.018
0.048,0.019
0.049,0.015
0.047,0.023
0.045,0.020
0.047,0.024
0.044,0.021
0.047,0.025
0.045,0.026
0.044,0.023
0.045,0.029
0.042,0.031
0.048,0.033
0.044,0.029
0.049,0.030
0.047,0.029
0.049,0.031
0.046,0.030
0.047,0.035
0.044,0.034
0.046,0.035
0.045,0.034
0.049,0.038
0.047,0.037
0.047,0.038
0.048,0.038
0.049,0.037
0.048,0.038
0.047,0.037
0.049,0.039
0.046,0.039
0.045,0.043
0.046,0.043
0.043,0.045
0.045,0.043
0.043,0.044
0.046,0.041
0.044,0.044
0.044,0.043
0.048,0.044
0.045,0.046
0.050,0.046
0.048,0.046
0.049,0.045
0.048,0.045
0.047,0.046
0.049,0.043
0.048,0.044
0.048,0.045
0.047,0.042
0.049,0.048
0.047,0.045
0.047,0.048
0.048,0.047
0.049,0.048
0.048,0.047
0.045,0.046
0.046,0.049
0.049,0.046
0.049,0.043
0.049,0.045
0.050,0.045
0.051,0.043
0.049,0.040
0.050,0.039
0.050,0.041
0.050,0.039
0.048,0.040
0.050,0.037
0.049,0.041
0.050,0.038
0.049,0.040
0.049,0.036
0.051,0.034
0.051,0.033
0.055,0.032
0.054,0.031
0.054,0.030
0.052,0.026
0.052,0.027
0.051,0.027
0.052,0.028
0.053,0.026
0.052,0.028
0.051,0.027
0.050,0.025
0.050,0.024
0.050,0.024
0.050,0.021
0.052,0.023
0.054,0.019
0.054,0.019
0.054,0.016
0.053,0.016
0.050,0.011
0.053,0.013
0.049,0.013
0.051,0.013
0.051,0.010
0.052,0.011
0.050,0.010
0.054,0.011
0.051,0.006
0.053,0.007
0.052,0.003
0.056,0.003
0.053,0.005
0.052,0.001
0.052,0.004
0.051,0.002
0.051,0.004
0.051,0.001
0.049,0.004
0.049,0.006
0.049,0.006
0.050,0.004
0.050,0.005
0.050,0.001
0.050,0.003
0.048,-0.002
0.049,0.000
0.048,-0.003
0.052,-0.002
0.048,-0.000
0.050,-0.004
0.052,-0.003
0.049,-0.004
0.052,-0.003
0.050,-0.004
0.053,0.001
0.054,0.000
0.050,-0.000
0.052,-0.003
0.051,0.000
0.048,-0.003
0.051,0.000
0.052,0.000
0.052,-0.001
0.049,-0.002
0.051,0.000
0.049,-0.001
0.050,0.001
0.050,-0.000
0.049,0.004
0.049,0.006
0.048,0.002
0.046,0.008
0.048,0.006
0.045,0.010
0.044,0.007
0.048,0.008
0.046,0.011
0.048,0.010
0.047,0.009
0.050,0.008
0.048,0.009
0.048,0.008
0.049,0.010
0.049,0.010
0.050,0.009
0.050,0.011
0.048,0.010
0.048,0.013
0.049,0.014
0.053,0.015
0.052,0.015
0.052,0.015
0.049,0.017
0.048,0.020
0.049,0.017
0.048,0.018
0.050,0.017
0.048,0.018
0.046,0.018
0.049,0.025
0.044,0.024
0.049,0.028
0.044,0.028
0.048,0.030
0.047,0.028
0.047,0.028
0.049,0.025
0.049,0.028
0.045,0.027
0.048,0.031
0.045,0.030
0.045,0.031
0.047,0.031
0.049,0.033
0.046,0.037
0.045,0.034
0.049,0.035
0.048,0.037
0.047,0.039
0.049,0.039
0.048,0.038
0.048,0.037
0.050,0.038
0.047,0.036
0.047,0.039
0.046,0.036
0.047,0.039
0.044,0.038
0.043,0.041
0.042,0.038
0.043,0.041
0.042,0.044
0.044,0.043
0.045,0.040
0.046,0.043
0.046,0.041
0.047,0.043
0.045,0.041
0.045,0.039
0.045,0.041
0.046,0.041
0.046,0.041
0.047,0.040
0.046,0.043
0.045,0.042
0.044,0.047
0.045,0.043
0.048,0.045
0.048,0.041
0.048,0.042
0.047,0.041
0.047,0.041
0.047,0.039
0.048,0.041
0.048,0.037
0.046,0.041
0.047,0.039
0.048,0.037
0.049,0.038
0.048,0.034
0.048,0.037
0.048,0.034
0.050,0.037
0.047,0.034
0.048,0.036
0.046,0.036
0.045,0.035
0.048,0.036
0.048,0.033
0.049,0.034
0.049,0.033
0.048,0.031
0.049,0.029
0.047,0.027
0.049,0.031
0.050,0.028
0.049,0.031
0.048,0.028
0.053,0.028
0.049,0.022
0.054,0.023
0.053,0.021
0.054,0.020
0.052,0.017
0.050,0.018
0.052,0.013
0.051,0.017
0.050,0.013
0.051,0.017
0.048,0.015
0.051,0.013
0.048,0.012
0.048,0.010
0.049,0.013
0.051,0.012
0.050,0.010
0.054,0.011
0.050,0.008
0.055,0.007
0.052,0.003
0.053,0.006
0.052,0.006
0.050,0.004
0.050,0.004
0.050,0.004
0.051,0.007
0.050,0.005
0.048,0.006
0.054,0.005
0.050,0.007
0.054,0.003
0.052,0.004
0.050,0.002
0.056,0.001
0.050,-0.001
0.054,-0.002
0.052,-0.002
0.054,-0.001
0.053,-0.003
0.049,-0.000
0.049,0.000
0.050,-0.003
0.051,0.001
0.050,-0.004
0.051,0.001
0.050,-0.001
0.049,0.003
0.048,0.000
0.049,0.003
0.046,0.000
0.047,0.002
0.046,0.002
0.047,0.003
0.047,0.003
0.048,0.002
0.049,0.003
0.050,0.005
0.049,0.001
0.052,0.004
0.050,0.004
0.050,0.005
0.051,0.007
0.050,0.006
0.050,0.012
0.049,0.011
0.049,0.013
0.049,0.010
0.048,0.013
0.047,0.012
0.048,0.013
0.050,0.014
0.047,0.015
0.050,0.015
0.051,0.016
0.048,0.013
0.047,0.015
0.049,0.014
0.049,0.016
0.048,0.020
0.050,0.019
0.047,0.019
0.049,0.021
0.047,0.021
0.046,0.023
0.046,0.022
0.043,0.025
0.046,0.026
0.048,0.029
0.046,0.030
0.048,0.033
0.046,0.034
0.047,0.035
0.047,0.033
0.048,0.034
0.048,0.033
0.048,0.036
0.049,0.033
0.049,0.036
0.048,0.035
0.045,0.036
0.045,0.036
0.042,0.038
0.043,0.039
0.045,0.039
0.046,0.041
0.044,0.044
0.047,0.042
0.047,0.042
0.045,0.041
0.048,0.041
0.045,0.043
0.045,0.043
0.045,0.044
0.044,0.046
0.047,0.044
0.045,0.045
0.048,0.046
0.047,0.047
0.045,0.049
0.048,0.048
0.045,0.048
0.047,0.045
0.046,0.045
0.049,0.046
0.047,0.046
0.047,0.046
0.047,0.047
0.048,0.045
0.046,0.045
0.045,0.043
0.047,0.046
0.045,0.047
0.047,0.045
0.050,0.046
0.046,0.045
0.049,0.045
0.048,0.044
0.047,0.045
0.049,0.043
0.046,0.045
0.049,0.045
0.044,0.045
0.047,0.043
0.045,0.044
0.048,0.043
0.049,0.043
0.049,0.040
0.052,0.039
0.052,0.040
0.050,0.039
0.053,0.038
0.050,0.037
0.052,0.034
0.050,0.033
0.050,0.035
0.054,0.034
0.049,0.035
0.051,0.034
0.046,0.034
0.050,0.030
0.049,0.029
0.049,0.028
0.050,0.027
0.050,0.029
0.049,0.028
0.052,0.026
0.050,0.025
0.049,0.021
0.050,0.021
0.049,0.020
0.050,0.020
0.052,0.016
0.052,0.017
0.051,0.013
0.051,0.014
0.051,0.012
0.050,0.015
0.052,0.011
0.051,0.013
0.054,0.010
0.050,0.012
0.049,0.008
0.049,0.010
0.052,0.010
0.054,0.006
0.050,0.006
0.053,0.006
0.053,0.004
0.052,0.003
0.052,0.002
0.051,0.004
0.051,0.003
0.051,0.002
0.052,0.003
0.053,0.001
0.052,0.006
0.052,0.000
0.053,0.001
0.050,0.001
0.052,0.001
0.051,0.001
0.051,0.001
0.052,-0.001
0.050,-0.002
0.052,-0.003
0.054,-0.002
0.053,-0.001
0.055,-0.002
0.051,-0.004
0.053,-0.001
0.055,-0.001
0.055,-0.003
0.054,-0.003
0.052,-0.002
0.051,-0.001
0.050,-0.002
0.051,-0.000
0.051,0.001
0.047,0.004
0.051,0.002
0.049,0.003
0.054,0.004
0.049,0.005
0.049,0.005
0.049,0.009
0.049,0.007
0.050,0.007
0.049,0.007
0.052,0.009
0.050,0.010
0.052,0.010
0.051,0.011
0.051,0.011
0.052,0.013
0.052,0.013
0.049,0.013
0.049,0.012
0.049,0.013
0.052,0.014
0.048,0.014
0.050,0.013
0.049,0.018
0.050,0.017
0.050,0.017
0.051,0.018
0.048,0.019
0.048,0.021
0.047,0.019
0.049,0.020
0.048,0.022
0.045,0.021
0.045,0.024
0.046,0.024
0.041,0.028
0.045,0.028
0.045,0.032
0.046,0.029
0.046,0.034
0.048,0.029
0.049,0.032
0.047,0.030
0.047,0.030
0.045,0.031
0.044,0.035
0.045,0.032
0.045,0.036
0.045,0.033
0.047,0.036
0.048,0.036
0.046,0.039
0.048,0.036
0.048,0.036
0.050,0.035
0.049,0.037
0.047,0.038
0.047,0.040
0.046,0.039
0.045,0.039
0.045,0.040
0.047,0.042
0.045,0.041
0.048,0.043
0.047,0.043
0.048,0.045
0.044,0.044
0.047,0.041
0.046,0.045
0.047,0.042
0.045,0.043
0.044,0.044
0.045,0.043
0.048,0.043
0.044,0.046
0.047,0.044
0.043,0.048
0.047,0.048
0.045,0.050
0.044,0.047
0.045,0.049
0.044,0.046
0.049,0.047
0.047,0.045
0.053,0.046
0.051,0.041
0.048,0.041
0.049,0.040
0.045,0.044
0.048,0.039
0.048,0.040
0.049,0.039
0.048,0.040
0.050,0.039
0.048,0.036
0.046,0.040
0.046,0.037
0.046,0.039
0.047,0.039
0.049,0.038
0.046,0.038
0.050,0.035
0.047,0.033
0.050,0.031
0.049,0.032
0.049,0.029
0.050,0.030
0.049,0.028
0.048,0.030
0.050,0.026
0.050,0.025
0.051,0.024
0.051,0.024
0.053,0.023
0.051,0.022
0.053,0.021
0.051,0.019
0.053,0.022
0.051,0.017
0.051,0.016
0.049,0.015
0.050,0.013
0.049,0.011
0.050,0.012
0.050,0.010
0.049,0.012
0.050,0.009
0.048,0.010
0.049,0.008
0.049,0.006
0.051,0.005
0.050,0.006
0.052,0.003
0.051,0.002
0.050,0.004
0.049,0.004
0.049,0.004
0.051,0.003
0.045,0.005
0.048,0.002
0.046,0.003
0.050,0.003
0.048,0.005
0.047,0.002
0.051,0.002
0.049,0.000
0.051,-0.003
0.051,-0.003
0.053,-0.004
0.054,-0.006
0.052,-0.007
0.053,-0.006
0.051,-0.003
0.049,-0.003
0.049,-0.003
0.048,-0.001
0.051,0.001
0.047,0.002
0.050,-0.001
0.047,-0.001
0.046,-0.003
0.049,-0.000
0.046,-0.003
0.049,0.000
0.045,0.000
0.047,0.000
0.049,0.000
0.045,-0.002
0.048,-0.003
0.047,-0.002
0.047,0.002
0.048,0.003
0.047,0.004
0.047,0.006
0.045,0.007
0.047,0.008
0.045,0.009
0.046,0.007
0.044,0.009
0.046,0.008
0.046,0.009
0.045,0.007
0.048,0.010
0.050,0.008
0.045,0.011
0.049,0.010
0.046,0.013
0.047,0.012
0.047,0.013
0.046,0.012
0.047,0.014
0.046,0.017
0.049,0.015
0.045,0.020
0.048,0.021
0.045,0.021
0.045,0.020
0.045,0.018
0.046,0.021
0.046,0.022
0.047,0.024
0.043,0.023
0.045,0.028
0.042,0.033
0.043,0.031
0.046,0.030
0.046,0.033
0.047,0.032
0.046,0.034
0.046,0.034
0.047,0.035
0.041,0.033
0.044,0.036
0.043,0.036
0.043,0.036
0.043,0.038
0.043,0.038
0.045,0.036
0.045,0.041
0.047,0.039
0.045,0.039
0.045,0.039
0.047,0.037
0.045,0.039
0.046,0.039
0.046,0.041
0.046,0.042
0.041,0.042
0.044,0.044
0.044,0.045
0.044,0.045
0.043,0.046
0.047,0.046
0.046,0.046
0.046,0.048
0.047,0.048
0.047,0.044
0.046,0.044
0.045,0.039
0.048,0.045
0.047,0.042
0.050,0.043
0.049,0.043
0.047,0.042
0.046,0.046
0.045,0.047
0.043,0.048
0.046,0.048
0.045,0.047
0.046,0.046
0.045,0.046
0.046,0.044
0.044,0.046
0.046,0.040
0.046,0.044
0.046,0.040
0.051,0.043
0.046,0.040
0.049,0.044
0.047,0.039
0.049,0.039
0.046,0.040
0.049,0.036
0.046,0.039
0.050,0.036
0.046,0.038
0.047,0.037
0.047,0.037
0.047,0.036
0.049,0.036
0.048,0.033
0.048,0.033
0.047,0.030
0.049,0.029
0.049,0.026
0.048,0.026
0.047,0.025
0.047,0.026
0.049,0.021
0.051,0.024
0.048,0.023
0.053,0.023
0.049,0.021
0.053,0.020
0.051,0.016
0.051,0.017
0.050,0.014
0.049,0.013
0.047,0.013
0.051,0.013
0.048,0.011
0.052,0.010
0.050,0.007
0.052,0.008
0.051,0.008
0.054,0.009
0.053,0.006
0.053,0.007
0.051,0.005
0.053,0.006
0.051,0.003
0.054,0.002
0.052,0.005
0.052,0.003
0.052,0.002
0.046,0.002
0.050,0.004
0.048,-0.000
0.048,0.004
0.049,0.002
0.045,0.003
0.046,0.005
0.048,0.002
0.048,0.000
0.049,-0.001
0.049,-0.003
0.048,-0.005
0.051,-0.007
0.048,-0.005
0.048,-0.005
0.049,-0.003
0.049,-0.002
0.048,-0.001
0.049,0.002
0.052,0.000
0.049,0.003
0.048,0.000
0.050,-0.000
0.050,-0.002
0.051,-0.001
0.048,0.000
0.049,-0.001
0.048,-0.001
0.048,-0.002
0.050,-0.002
0.049,0.001
0.047,-0.001
0.047,-0.001
0.046,0.001
0.046,0.002
0.045,0.006
0.045,0.004
0.043,0.010
0.045,0.008
0.046,0.010
0.046,0.008
0.046,0.010
0.047,0.009
0.046,0.009
0.046,0.008
0.046,0.010
0.046,0.010
0.047,0.012
0.043,0.011
0.046,0.013
0.046,0.011
0.048,0.012
0.045,0.013
0.048,0.013
0.049,0.013
0.048,0.013
0.049,0.011
0.048,0.013
0.046,0.012
0.045,0.015
0.044,0.014
0.049,0.022
0.044,0.019
0.046,0.020
0.045,0.024
0.045,0.026
0.046,0.027
0.049,0.031
0.049,0.029
0.046,0.030
0.045,0.028
0.045,0.031
0.044,0.031
0.045,0.031
0.043,0.029
0.043,0.032
-0.018,0.008
-0.024,0.010
-0.027,0.014
-0.016,0.021
-0.014,0.020
-0.006,0.024
-0.005,0.023
0.003,0.025
0.038,0.029
0.164,0.037
0.499,0.051
0.948,-0.101
1.165,-0.527
1.020,-1.054
0.551,-1.133
-0.177,-0.013
-0.947,2.033
-1.542,3.706
-1.768,4.602
-1.533,5.086
-0.959,3.900
-0.178,1.178
0.576,-1.708
0.971,-3.775
0.984,-4.770
0.879,-4.288
0.740,-2.833
0.511,-1.487
0.279,-0.661
0.086,-0.261
-0.046,-0.089
-0.092,-0.020
-0.069,0.012
-0.014,0.026
0.048,0.032
0.091,0.037
0.117,0.034
0.127,0.028
0.120,0.025
0.106,0.018
0.096,0.016
0.081,0.015
0.072,0.013
0.062,0.008
0.054,0.013
0.050,0.011
0.045,0.015
0.038,0.017
0.039,0.016
0.034,0.015
0.036,0.012
0.037,0.010
0.037,0.007
0.038,0.006
0.038,0.005
0.042,0.002
0.044,0.002
0.044,0.002
0.043,0.000
0.045,-0.001
0.045,0.001
0.048,-0.002
0.043,0.001
0.040,-0.002
0.031,-0.001
0.026,-0.002
0.023,0.000
0.023,-0.003
0.022,-0.001
0.024,-0.002
0.031,-0.001
0.044,-0.008
0.047,-0.007
0.049,-0.009
0.046,-0.010
0.049,-0.011
0.045,-0.011
0.045,-0.013
0.043,-0.011
0.041,-0.012
0.044,-0.010
0.041,-0.011
0.045,-0.010
0.042,-0.011
0.041,-0.009
0.041,-0.009
0.042,-0.008
0.043,-0.013
0.043,-0.010
0.042,-0.013
0.041,-0.008
0.040,-0.010
0.037,-0.006
0.040,-0.008
0.038,-0.008
0.042,-0.008
0.043,-0.006
0.045,-0.010
0.046,-0.011
0.043,-0.013
0.043,-0.012
0.042,-0.013
0.041,-0.014
0.043,-0.014
0.040,-0.013
0.041,-0.010
0.041,-0.010
0.040,-0.009
0.042,-0.011
0.043,-0.009
0.043,-0.009
0.039,-0.007
0.042,-0.007
0.039,-0.004
0.041,-0.004
0.040,-0.006
0.042,-0.003
0.043,-0.006
0.041,-0.005
0.041,-0.003
0.043,-0.004
0.042,-0.003
0.043,-0.004
0.045,-0.002
0.041,0.000
0.044,0.002
0.040,0.001
0.041,0.001
0.039,0.003
0.041,0.004
0.039,0.006
0.042,0.007
0.042,0.008
0.041,0.008
0.038,0.010
0.039,0.008
0.040,0.011
0.038,0.009
0.040,0.013
0.038,0.012
0.042,0.014
0.039,0.014
0.041,0.013
0.043,0.013
0.044,0.016
0.044,0.017
0.045,0.018
0.044,0.017
0.044,0.020
0.043,0.016
0.044,0.019
0.043,0.021
0.041,0.023
0.041,0.024
0.041,0.026
0.041,0.028
0.045,0.033
0.044,0.031
0.043,0.033
0.046,0.034
0.042,0.035
0.043,0.037
0.043,0.036
0.043,0.036
0.041,0.038
0.042,0.039
0.040,0.041
0.043,0.040
0.042,0.043
0.042,0.039
0.045,0.043
0.044,0.041
0.048,0.041
0.046,0.040
0.045,0.040
0.044,0.039
0.048,0.040
0.046,0.042
0.046,0.041
0.043,0.044
0.044,0.043
0.041,0.049
0.044,0.043
0.042,0.049
0.042,0.047
0.044,0.051
0.044,0.048
0.046,0.048
0.046,0.048
0.045,0.047
0.045,0.045
0.048,0.049
0.047,0.047
0.049,0.048
0.043,0.045
0.044,0.048
0.043,0.050
0.045,0.047
0.044,0.051
0.045,0.047
0.042,0.051
0.043,0.048
0.043,0.049
0.043,0.048
0.047,0.045
0.045,0.045
0.047,0.045
0.046,0.042
0.050,0.043
0.049,0.039
0.051,0.039
0.049,0.037
0.051,0.038
0.049,0.038
0.052,0.036
0.050,0.039
0.049,0.036
0.049,0.039
0.048,0.037
0.045,0.038
0.046,0.036
0.049,0.033
0.048,0.032
0.050,0.034
0.050,0.032
0.052,0.030
0.049,0.026
0.050,0.027
0.050,0.025
0.052,0.025
0.048,0.025
0.049,0.026
0.049,0.021
0.052,0.020
0.052,0.017
0.053,0.019
0.053,0.018
0.053,0.015
0.051,0.016
0.053,0.013
0.051,0.012
0.048,0.012
0.049,0.009
0.051,0.012
0.050,0.008
0.050,0.013
0.049,0.009
0.050,0.010
0.049,0.008
0.050,0.009
0.049,0.009
0.051,0.009
0.048,0.007
0.052,0.007
0.049,0.005
0.049,0.003
0.049,0.003
0.049,0.004
0.045,0.005
0.049,0.004
0.047,0.006
0.048,0.002
0.049,0.005
0.050,0.001
0.051,0.002
0.051,0.001
0.051,-0.001
0.052,-0.003
0.052,-0.001
0.050,-0.006
0.052,-0.003
0.048,-0.005
0.048,-0.004
0.045,-0.004
0.048,-0.005
0.048,-0.002
0.046,-0.004
0.048,-0.000
0.049,-0.000
0.046,-0.000
0.047,-0.003
0.047,0.000
0.048,-0.005
0.049,-0.001
0.046,-0.003
0.047,0.001
0.045,-0.002
0.048,0.000
0.047,0.000
0.049,0.000
0.047,0.002
0.048,0.001
0.047,0.006
0.048,0.001
0.047,0.008
0.048,0.008
0.047,0.010
0.045,0.009
0.047,0.009
0.046,0.010
0.044,0.010
0.046,0.007
0.046,0.009
0.045,0.009
0.049,0.013
0.045,0.012
0.047,0.013
0.042,0.011
0.047,0.014
0.045,0.013
0.048,0.015
0.047,0.015
0.048,0.015
0.047,0.016
0.047,0.018
0.045,0.015
0.045,0.019
0.042,0.017
0.043,0.021
0.043,0.024
0.042,0.027
0.046,0.026
0.041,0.027
0.046,0.028
0.046,0.031
0.044,0.028
0.043,0.029
0.044,0.029
0.047,0.031
0.046,0.031
0.044,0.035
0.046,0.034
0.045,0.036
0.043,0.036
0.043,0.038
0.042,0.038
0.044,0.037
0.041,0.038
0.044,0.038
0.045,0.037
0.046,0.038
0.047,0.039
0.046,0.038
0.048,0.038
0.046,0.038
0.045,0.036
0.045,0.037
0.045,0.038
0.046,0.039
0.044,0.041
0.044,0.045
0.047,0.045
0.048,0.043
0.047,0.045
0.048,0.045
0.044,0.045
0.047,0.045
0.047,0.044
0.049,0.043
0.049,0.042
0.046,0.042
0.045,0.042
0.046,0.044
0.044,0.043
0.044,0.044
0.042,0.044
0.044,0.046
0.042,0.044
0.043,0.044
0.045,0.045
0.044,0.045
0.046,0.045
0.045,0.044
0.045,0.043
0.045,0.042
0.046,0.041
0.045,0.041
0.045,0.039
0.048,0.040
0.046,0.037
0.048,0.036
0.050,0.034
0.049,0.037
0.049,0.035
0.045,0.036
0.046,0.035
0.046,0.034
0.044,0.035
0.048,0.034
0.047,0.032
0.049,0.030
0.047,0.030
0.047,0.030
0.045,0.030
0.044,0.027
0.048,0.025
0.048,0.026
0.047,0.024
0.046,0.024
0.047,0.027
0.047,0.022
0.046,0.025
0.046,0.022
0.047,0.020
0.049,0.017
0.047,0.015
0.049,0.013
0.048,0.014
0.048,0.012
0.046,0.013
0.045,0.010
0.048,0.011
0.049,0.010
0.048,0.010
0.049,0.007
0.045,0.008
0.048,0.007
0.045,0.006
0.047,0.002
0.046,0.002
0.046,0.002
0.050,0.002
0.048,0.000
0.048,0.001
0.045,0.004
0.047,-0.001
0.046,0.003
0.047,0.002
0.049,0.000
0.047,0.001
0.046,0.002
0.049,0.002
0.047,-0.001
0.047,-0.004
0.046,-0.004
0.047,-0.004
0.048,-0.002
0.046,-0.002
0.048,-0.001
0.048,-0.003
0.048,-0.002
0.050,-0.000
0.049,-0.002
0.049,-0.002
0.047,-0.005
0.049,-0.002
0.045,-0.002
0.045,0.000
0.048,-0.002
0.042,0.001
0.046,0.000
0.040,0.002
0.043,0.001
0.042,0.003
0.043,0.004
0.044,0.001
0.044,0.003
0.043,0.002
0.042,0.004
0.044,0.005
0.044,0.006
0.045,0.007
0.045,0.006
0.046,0.006
0.044,0.007
0.047,0.009
0.045,0.012
0.047,0.012
0.042,0.013
0.041,0.011
0.042,0.012
0.043,0.012
0.045,0.013
0.045,0.013
0.045,0.014
0.044,0.014
0.041,0.015
0.042,0.015
0.043,0.016
0.041,0.013
0.046,0.015
0.038,0.016
0.046,0.020
0.041,0.021
0.043,0.022
0.044,0.022
0.041,0.025
0.042,0.023
0.041,0.026
0.043,0.026
0.042,0.028
0.042,0.028
0.043,0.032
0.043,0.032
0.044,0.033
0.044,0.030
0.044,0.032
0.047,0.032
0.041,0.035
0.043,0.033
0.040,0.034
0.041,0.036
0.042,0.036
0.045,0.037
0.045,0.035
0.045,0.035
0.045,0.036
0.045,0.035
0.045,0.036
0.043,0.031
0.046,0.035
0.042,0.035
0.044,0.036
0.043,0.039
0.044,0.038
0.042,0.042
0.044,0.043
0.043,0.047
0.046,0.044
0.045,0.046
0.045,0.044
0.044,0.044
0.047,0.043
0.045,0.043
0.045,0.041
0.043,0.043
0.043,0.041
0.045,0.044
0.042,0.042
0.047,0.043
0.043,0.042
0.046,0.045
0.043,0.044
0.046,0.043
0.046,0.045
0.049,0.045
0.048,0.042
0.048,0.041
0.043,0.043
0.045,0.039
0.044,0.044
0.044,0.040
0.042,0.043
0.043,0.040
0.049,0.037
0.045,0.038
0.047,0.038
0.045,0.034
0.046,0.035
0.046,0.034
0.047,0.034
0.048,0.034
0.049,0.033
0.047,0.032
0.048,0.029
0.047,0.032
0.050,0.028
0.047,0.031
0.049,0.027
0.049,0.030
0.049,0.025
0.049,0.027
0.046,0.022
0.049,0.024
0.048,0.023
0.050,0.023
0.050,0.023
0.049,0.025
0.051,0.020
0.048,0.021
0.049,0.014
0.051,0.017
0.049,0.014
0.049,0.015
0.049,0.011
0.049,0.014
0.049,0.011
0.051,0.011
0.050,0.009
0.049,0.013
0.050,0.010
0.047,0.010
0.049,0.009
0.047,0.009
0.048,0.007
0.047,0.009
0.048,0.003
0.048,0.008
0.048,0.003
0.050,0.003
0.049,0.004
0.050,0.005
0.051,0.003
0.049,0.003
0.048,0.002
0.050,0.001
0.051,-0.001
0.050,-0.001
0.050,-0.003
0.051,-0.002
0.048,-0.002
0.048,-0.005
0.044,-0.003
0.047,-0.006
0.041,-0.003
0.045,-0.001
0.044,0.000
0.045,-0.001
0.045,-0.001
0.046,-0.000
0.047,0.000
0.048,-0.002
0.049,-0.004
0.049,-0.002
0.047,0.001
0.047,-0.001
0.047,-0.000
0.045,-0.000
0.047,-0.001
0.044,0.002
0.048,0.001
0.044,0.004
0.043,0.003
0.043,0.006
0.044,0.004
0.044,0.003
0.043,0.006
0.044,0.009
0.045,0.005
0.047,0.008
0.046,0.006
0.047,0.009
0.047,0.007
0.047,0.009
0.046,0.009
0.049,0.012
0.043,0.014
0.046,0.012
0.044,0.013
0.045,0.011
0.043,0.014
0.044,0.015
0.042,0.016
0.042,0.018
0.043,0.017
0.045,0.020
0.044,0.018
0.046,0.021
0.042,0.023
0.047,0.021
0.043,0.023
0.048,0.023
0.043,0.026
0.042,0.025
0.043,0.028
0.043,0.029
0.043,0.030
0.042,0.029
0.045,0.029
0.045,0.031
0.044,0.032
0.046,0.031
0.044,0.031
0.043,0.034
0.047,0.032
0.044,0.035
0.044,0.033
0.046,0.038
0.046,0.034
0.047,0.035
0.045,0.040
0.045,0.038
0.043,0.039
0.044,0.040
0.041,0.042
0.040,0.043
0.040,0.042
0.043,0.039
0.044,0.041
0.043,0.041
0.043,0.043
0.040,0.041
0.044,0.045
0.043,0.045
0.046,0.045
0.046,0.045
0.049,0.044
0.049,0.043
0.049,0.043
0.048,0.045
0.046,0.042
0.047,0.042
0.046,0.042
0.044,0.044
0.046,0.043
0.044,0.048
0.048,0.045
0.045,0.047
0.045,0.044
0.045,0.046
0.046,0.043
0.048,0.046
0.047,0.042
0.049,0.045
0.045,0.041
0.048,0.042
0.047,0.042
0.051,0.041
0.048,0.042
0.047,0.040
0.049,0.041
0.049,0.038
0.047,0.039
0.046,0.036
0.044,0.039
0.047,0.035
0.046,0.039
0.045,0.035
0.049,0.036
0.048,0.034
0.052,0.033
0.049,0.031
0.051,0.031
0.052,0.028
0.050,0.028
0.049,0.028
0.052,0.028
0.051,0.031
0.051,0.026
0.047,0.030
0.049,0.027
0.047,0.028
0.051,0.023
0.047,0.024
0.049,0.023
0.050,0.024
0.050,0.020
0.051,0.020
0.050,0.016
0.049,0.015
0.051,0.013
0.050,0.016
0.050,0.013
0.049,0.014
0.049,0.009
0.050,0.013
0.049,0.011
0.050,0.010
0.049,0.008
0.049,0.007
0.051,0.007
0.048,0.008
0.051,0.005
0.048,0.008
0.051,0.004
0.049,0.007
0.051,0.006
0.050,0.004
0.049,0.005
0.053,0.005
0.052,0.004
0.051,0.001
0.051,-0.003
0.050,-0.001
0.051,-0.001
0.051,-0.001
0.050,0.001
0.051,-0.001
0.046,0.000
0.049,-0.002
0.046,-0.002
0.050,-0.001
0.047,-0.001
0.047,-0.001
0.048,0.000
0.049,-0.000
0.049,-0.001
0.050,-0.002
0.052,-0.003
0.050,-0.003
0.051,-0.002
0.050,0.000
0.049,-0.003
0.049,0.000
0.048,0.002
0.045,0.001
0.049,0.001
0.046,0.004
0.048,0.003
0.047,0.006
0.049,0.006
0.049,0.006
0.046,0.004
0.046,0.005
0.045,0.003
0.045,0.007
0.047,0.005
0.048,0.005
0.048,0.007
0.048,0.008
0.045,0.009
0.049,0.009
0.047,0.010
0.048,0.012
0.044,0.016
0.044,0.015
0.043,0.015
0.046,0.015
0.046,0.016
0.046,0.014
0.043,0.019
0.046,0.016
0.045,0.019
0.046,0.019
0.048,0.019
0.044,0.018
0.046,0.021
0.044,0.021
0.042,0.022
0.044,0.024
0.042,0.027
0.045,0.028
0.042,0.031
0.043,0.029
0.041,0.034
0.044,0.029
0.045,0.032
0.043,0.031
0.046,0.034
0.045,0.035
0.043,0.036
0.043,0.034
0.045,0.035
0.043,0.036
0.043,0.037
0.045,0.037
0.042,0.040
0.045,0.037
0.042,0.041
0.043,0.042
0.041,0.043
0.043,0.040
0.044,0.038
0.046,0.042
0.042,0.040
0.045,0.038
0.046,0.041
0.043,0.039
0.046,0.040
0.045,0.043
0.049,0.043
0.044,0.046
0.047,0.044
0.047,0.047
0.046,0.043
0.044,0.045
0.046,0.043
0.042,0.046
0.047,0.044
0.043,0.046
0.046,0.045
0.044,0.046
0.049,0.045
0.045,0.048
0.047,0.045
0.048,0.045
0.046,0.043
0.047,0.046
0.047,0.045
0.048,0.044
0.047,0.047
0.049,0.042
0.044,0.045
0.049,0.042
0.045,0.043
0.048,0.041
0.047,0.041
0.049,0.040
0.047,0.041
0.049,0.038
0.047,0.037
0.048,0.033
0.051,0.037
0.050,0.034
0.053,0.036
0.048,0.033
0.052,0.034
0.049,0.034
0.049,0.029
0.047,0.033
0.050,0.029
0.046,0.030
0.048,0.032
0.047,0.028
0.050,0.027
0.046,0.026
0.050,0.026
0.049,0.030
0.049,0.027
0.049,0.027
0.048,0.028
0.051,0.025
0.052,0.022
0.049,0.020
0.051,0.017
0.049,0.020
0.050,0.015
0.052,0.016
0.053,0.013
0.052,0.014
0.052,0.012
0.049,0.012
0.050,0.010
0.049,0.011
0.053,0.010
0.049,0.013
0.050,0.011
0.048,0.012
0.050,0.010
0.050,0.010
0.050,0.007
0.051,0.006
0.048,0.005
0.050,0.002
0.048,-0.000
0.050,-0.000
0.048,0.002
0.049,0.004
0.050,0.003
0.051,0.005
0.052,0.001
0.053,0.001
0.051,0.000
0.051,-0.002
0.048,-0.001
0.051,-0.002
0.047,0.000
0.049,0.001
0.050,-0.001
0.048,0.002
0.049,0.001
0.047,-0.002
0.049,-0.003
0.049,-0.002
0.049,-0.000
0.050,-0.002
0.047,0.001
0.048,0.000
0.049,0.000
0.049,0.004
0.048,0.001
0.046,0.005
0.046,0.000
0.044,0.005
0.045,0.006
0.045,0.005
0.044,0.006
0.046,0.005
0.047,0.005
0.050,0.010
0.050,0.006
0.051,0.009
0.049,0.007
0.050,0.008
0.048,0.007
0.048,0.009
0.044,0.010
0.047,0.011
0.044,0.013
0.047,0.013
0.044,0.017
0.044,0.015
0.043,0.015
0.043,0.014
0.043,0.014
0.047,0.015
0.042,0.018
0.043,0.017
0.043,0.018
0.041,0.015
0.043,0.018
0.044,0.019
0.043,0.020
0.043,0.022
0.040,0.024
0.041,0.023
0.040,0.028
0.042,0.024
0.042,0.029
0.043,0.027
0.042,0.029
0.044,0.029
0.041,0.030
0.042,0.030
0.042,0.030
0.046,0.030
0.044,0.031
0.042,0.031
0.041,0.033
0.043,0.031
0.040,0.036
0.044,0.036
0.043,0.037
0.045,0.034
0.043,0.037
0.045,0.036
0.043,0.036
0.042,0.037
0.046,0.038
0.046,0.036
0.044,0.038
0.045,0.035
0.044,0.038
0.043,0.036
0.045,0.038
0.044,0.040
0.048,0.040
0.044,0.042
0.045,0.040
0.045,0.042
0.047,0.041
0.046,0.042
0.048,0.043
0.045,0.039
0.045,0.040
0.043,0.041
0.048,0.040
0.045,0.041
0.042,0.041
0.046,0.042
0.043,0.040
0.049,0.040
0.046,0.041
0.048,0.040
0.048,0.040
0.049,0.041
0.047,0.043
0.048,0.037
0.045,0.040
0.046,0.040
0.046,0.040
0.047,0.039
0.046,0.037
0.046,0.037
0.048,0.037
0.048,0.035
0.048,0.037
0.046,0.032
0.048,0.034
0.048,0.033
0.049,0.031
0.049,0.031
0.048,0.030
0.045,0.032
0.048,0.028
0.048,0.031
0.050,0.029
0.046,0.029
0.047,0.026
0.047,0.026
0.049,0.026
0.047,0.024
0.048,0.025
0.049,0.023
0.049,0.022
0.049,0.022
0.050,0.019
0.048,0.020
0.049,0.017
0.047,0.014
0.049,0.013
0.049,0.015
0.049,0.011
0.050,0.011
0.049,0.009
0.049,0.008
0.049,0.006
0.049,0.007
0.050,0.007
0.049,0.010
0.049,0.006
0.050,0.006
0.050,0.003
0.050,0.006
0.051,0.006
0.049,0.003
0.050,0.003
0.048,0.002
0.050,0.001
0.050,-0.000
0.048,-0.001
0.049,-0.000
0.050,0.000
0.052,-0.001
0.052,0.000
0.050,-0.003
0.049,-0.001
0.050,-0.004
0.051,-0.004
0.049,-0.004
0.047,-0.004
0.050,-0.006
0.047,-0.004
0.046,-0.004
0.048,-0.004
0.049,-0.005
0.048,-0.004
0.048,-0.006
0.051,-0.003
0.049,-0.003
0.048,-0.005
0.050,-0.002
0.050,-0.005
0.049,-0.004
0.047,-0.005
0.047,-0.003
0.048,-0.002
0.044,-0.000
0.045,0.000
0.042,0.002
0.046,0.000
0.045,0.000
0.045,0.000
0.047,0.001
0.047,0.002
0.045,0.002
0.045,0.003
0.046,0.002
0.047,0.004
0.045,0.003
0.046,0.007
0.045,0.006
0.044,0.011
0.045,0.010
0.045,0.010
0.047,0.009
0.043,0.012
0.046,0.011
0.044,0.012
0.046,0.011
0.046,0.014
0.045,0.014
0.045,0.014
0.044,0.015
0.045,0.015
0.045,0.011
0.048,0.017
0.045,0.013
0.047,0.014
0.043,0.014
0.045,0.017
0.042,0.019
0.042,0.022
0.044,0.023
0.046,0.026
0.045,0.024
0.044,0.026
0.045,0.025
0.044,0.029
0.044,0.027
0.045,0.028
0.046,0.028
0.044,0.032
0.047,0.031
0.046,0.030
0.048,0.030
0.046,0.032
0.045,0.033
0.043,0.037
0.045,0.037
0.043,0.038
0.044,0.039
0.044,0.036
0.045,0.036
0.046,0.035
0.047,0.034
0.048,0.037
0.046,0.033
0.048,0.035
0.045,0.034
0.046,0.035
0.043,0.038
0.045,0.038
0.044,0.040
0.050,0.041
0.046,0.043
0.047,0.043
0.046,0.042
0.044,0.042
0.043,0.039
0.048,0.041
0.047,0.043
0.048,0.040
0.045,0.042
0.044,0.042
0.044,0.044
0.045,0.041
0.044,0.042
0.045,0.040
0.048,0.042
0.047,0.040
0.048,0.039
0.047,0.040
0.049,0.040
0.046,0.038
0.049,0.039
0.047,0.039
0.052,0.039
0.050,0.042
0.048,0.038
0.048,0.037
0.045,0.036
0.050,0.036
0.048,0.033
0.051,0.036
0.051,0.032
0.053,0.034
0.049,0.032
0.054,0.032
0.050,0.035
0.050,0.032
0.050,0.033
0.050,0.027
0.048,0.028
0.047,0.027
0.049,0.028
0.047,0.026
0.049,0.026
0.048,0.024
0.050,0.024
0.048,0.024
0.050,0.023
0.050,0.022
0.050,0.023
0.053,0.018
0.049,0.019
0.052,0.016
0.052,0.014
0.050,0.013
0.050,0.013
0.050,0.009
0.047,0.010
0.050,0.011
0.047,0.011
0.050,0.010
0.048,0.012
0.050,0.011
0.050,0.010
0.049,0.005
0.049,0.007
0.049,0.006
0.048,0.004
0.049,0.001
0.050,0.002
0.051,-0.000
0.052,0.000
0.052,0.001
0.052,-0.001
0.050,-0.001
0.050,-0.001
0.049,0.001
0.051,0.000
0.050,0.001
0.049,-0.001
0.048,-0.002
0.051,-0.002
0.049,-0.003
0.050,-0.005
0.049,-0.004
0.049,-0.005
0.052,-0.003
0.048,-0.005
0.050,-0.005
0.049,-0.003
0.050,-0.003
0.051,-0.004
0.052,-0.002
0.051,-0.003
0.050,-0.003
0.053,-0.005
0.052,-0.003
0.050,-0.003
0.051,-0.005
0.049,-0.005
0.052,-0.003
0.048,0.000
0.048,-0.002
0.046,0.002
0.046,0.002
0.047,0.002
0.047,0.000
0.048,0.001
0.048,0.001
0.049,0.003
0.048,0.002
0.050,0.001
0.046,0.001
0.050,0.001
0.045,0.007
0.048,0.002
0.047,0.007
0.047,0.006
0.046,0.012
0.046,0.009
0.047,0.010
0.049,0.011
0.050,0.011
0.047,0.010
0.050,0.010
0.047,0.008
0.050,0.013
0.047,0.011
0.049,0.013
0.048,0.013
0.051,0.014
0.047,0.014
0.047,0.015
0.045,0.017
0.047,0.017
0.043,0.018
0.045,0.020
0.045,0.022
0.040,0.023
0.044,0.024
0.042,0.027
0.045,0.027
0.042,0.028
0.047,0.026
0.046,0.031
0.047,0.025
0.045,0.029
0.045,0.027
0.044,0.029
0.045,0.031
0.045,0.031
0.047,0.034
0.045,0.034
0.050,0.033
0.045,0.037
0.045,0.034
0.046,0.035
0.043,0.035
0.046,0.035
0.044,0.033
0.047,0.036
0.045,0.032
0.050,0.036
0.047,0.037
0.047,0.037
0.047,0.039
0.047,0.039
0.048,0.042
0.047,0.043
0.047,0.045
0.045,0.042
0.043,0.046
0.047,0.044
0.046,0.042
0.043,0.039
0.046,0.041
0.044,0.041
0.047,0.044
0.044,0.042
0.049,0.043
0.049,0.040
0.049,0.042
0.050,0.043
0.049,0.046
0.051,0.044
0.050,0.043
0.052,0.043
0.049,0.042
0.049,0.046
0.049,0.040
0.049,0.040
0.050,0.040
0.050,0.038
0.049,0.036
0.050,0.037
0.050,0.036
0.050,0.034
0.049,0.032
0.050,0.032
0.048,0.032
0.049,0.031
0.049,0.032
0.049,0.029
0.052,0.028
0.048,0.026
0.048,0.025
0.049,0.027
0.047,0.029
0.048,0.027
0.048,0.025
0.049,0.023
0.051,0.022
0.051,0.022
0.052,0.022
0.053,0.023
0.054,0.020
0.054,0.021
0.053,0.020
0.054,0.018
0.050,0.017
0.051,0.013
0.051,0.012
0.049,0.009
0.048,0.009
0.047,0.009
0.049,0.009
0.048,0.010
0.051,0.010
0.051,0.008
0.048,0.010
0.049,0.006
0.048,0.008
0.048,0.004
0.049,0.007
0.048,0.001
0.048,0.004
0.050,0.003
0.049,0.002
0.049,0.001
0.051,-0.001
0.050,-0.003
0.051,-0.002
0.049,0.001
0.050,-0.001
0.052,0.002
0.054,-0.002
0.052,-0.001
0.050,-0.003
0.049,-0.003
0.049,-0.005
0.047,-0.003
0.049,-0.004
0.047,-0.002
0.048,-0.007
0.051,-0.004
0.049,-0.006
0.049,-0.007
0.049,-0.008
0.051,-0.007
0.050,-0.003
0.051,-0.007
0.051,-0.007
0.049,-0.008
0.046,-0.003
0.045,-0.005
0.046,-0.005
0.046,-0.006
0.046,-0.005
0.049,-0.005
0.046,-0.005
0.050,-0.004
0.047,-0.003
0.049,-0.006
0.050,-0.003
0.049,-0.001
0.051,-0.002
0.049,-0.001
0.048,0.000
0.048,0.001
0.046,0.001
0.047,0.001
0.047,0.000
0.047,0.003
0.045,0.003
0.045,0.006
0.046,0.006
0.047,0.010
0.045,0.005
0.044,0.007
0.045,0.009
0.043,0.007
0.043,0.008
0.046,0.011
0.046,0.011
0.046,0.014
0.045,0.011
0.048,0.014
0.046,0.012
0.047,0.014
0.041,0.013
0.048,0.015
0.044,0.014
0.041,0.019
0.043,0.019
0.040,0.022
0.046,0.021
0.046,0.025
0.046,0.019
0.044,0.025
0.045,0.023
0.044,0.022
0.045,0.022
0.042,0.023
0.043,0.023
0.042,0.027
0.044,0.026
0.041,0.030
0.044,0.031
0.042,0.032
0.045,0.032
0.042,0.031
0.046,0.032
0.043,0.036
0.044,0.033
0.047,0.033
0.044,0.031
0.049,0.033
0.045,0.032
0.047,0.031
0.042,0.030
0.043,0.035
0.043,0.035
0.044,0.035
0.045,0.036
0.047,0.036
0.042,0.039
0.044,0.036
0.044,0.039
0.043,0.036
0.044,0.038
0.045,0.038
0.042,0.039
0.040,0.037
0.043,0.039
0.040,0.038
0.044,0.043
0.042,0.038
0.046,0.041
0.042,0.041
0.044,0.038
0.042,0.038
0.046,0.039
0.047,0.037
0.048,0.037
0.049,0.036
0.047,0.037
0.045,0.038
0.046,0.038
0.046,0.040
0.045,0.036
0.042,0.037
0.045,0.035
0.046,0.039
0.047,0.035
0.048,0.037
0.041,0.033
0.047,0.032
0.045,0.032
0.046,0.030
0.046,0.028
0.049,0.029
0.049,0.031
0.047,0.026
0.048,0.027
0.046,0.024
0.047,0.027
0.044,0.024
0.044,0.025
0.048,0.024
0.045,0.022
0.047,0.022
0.049,0.020
0.052,0.019
0.049,0.023
0.054,0.017
0.049,0.015
0.051,0.014
0.051,0.013
0.052,0.011
0.049,0.009
0.051,0.007
0.050,0.010
0.048,0.008
0.047,0.008
0.048,0.006
0.048,0.009
0.047,0.007
0.050,0.007
0.050,0.004
0.051,0.006
0.049,0.002
0.046,0.006
0.049,0.006
0.050,0.007
0.048,0.002
0.051,0.002
0.050,0.001
0.050,0.000
0.047,0.000
0.050,-0.000
0.051,-0.002
0.049,0.002
0.050,-0.003
0.052,-0.001
0.053,-0.001
0.051,-0.003
0.052,-0.002
0.048,-0.006
0.049,-0.004
0.046,-0.007
0.047,-0.004
0.048,-0.004
0.046,-0.003
0.045,-0.003
0.046,-0.003
0.046,-0.005
0.046,-0.004
0.046,-0.006
0.049,-0.003
0.047,-0.005
0.048,-0.005
0.047,-0.005
0.047,-0.003
0.047,-0.001
0.045,-0.002
0.045,0.001
0.045,-0.002
0.044,0.002
0.046,0.002
0.043,0.002
0.046,0.001
0.043,0.003
0.046,0.002
0.046,0.004
0.047,0.003
0.050,0.004
0.045,0.003
0.046,0.003
0.049,0.004
0.046,0.007
0.049,0.005
0.049,0.006
0.042,0.008
0.045,0.009
0.045,0.011
0.046,0.010
0.045,0.015
0.049,0.010
0.043,0.012
0.045,0.014
0.043,0.014
0.045,0.013
0.044,0.015
0.049,0.013
0.045,0.017
0.047,0.016
0.045,0.018
0.044,0.019
0.044,0.024
0.047,0.021
0.046,0.024
0.047,0.022
0.046,0.023
0.046,0.023
0.043,0.026
0.045,0.024
0.046,0.026
0.045,0.023
0.043,0.026
0.046,0.026
0.043,0.026
0.044,0.027
0.047,0.030
0.044,0.031
0.045,0.033
0.047,0.033
0.044,0.034
0.045,0.034
0.044,0.036
0.045,0.035
0.044,0.037
0.045,0.036
0.042,0.038
0.045,0.039
0.045,0.036
0.043,0.036
0.044,0.036
0.045,0.038
0.044,0.040
0.047,0.039
0.047,0.043
0.046,0.037
0.048,0.040
0.047,0.039
0.049,0.040
0.047,0.040
0.049,0.040
0.045,0.039
0.046,0.039
0.045,0.039
0.043,0.038
0.043,0.041
0.044,0.043
0.041,0.042
0.045,0.044
0.043,0.044
0.045,0.042
0.043,0.043
0.043,0.040
0.045,0.039
0.044,0.036
0.047,0.040
0.045,0.040
0.046,0.039
0.045,0.041
0.047,0.041
0.046,0.039
0.049,0.037
0.045,0.036
0.047,0.036
0.044,0.037
0.048,0.033
0.045,0.036
0.045,0.032
0.045,0.034
0.044,0.034
0.050,0.034
0.047,0.030
0.050,0.029
0.047,0.026
0.049,0.024
0.047,0.028
0.045,0.027
0.046,0.026
0.045,0.025
0.046,0.026
0.049,0.022
0.047,0.024
0.049,0.021
0.047,0.023
0.048,0.018
0.049,0.019
0.049,0.014
0.049,0.012
0.049,0.012
0.048,0.013
0.049,0.014
0.047,0.011
0.047,0.009
0.049,0.007
0.050,0.011
0.049,0.007
0.049,0.011
0.047,0.006
0.052,0.009
0.049,0.007
0.052,0.008
0.049,0.004
0.050,0.004
0.048,0.006
0.045,0.001
0.044,0.007
0.046,0.004
0.044,0.007
0.043,0.004
0.043,0.004
0.045,0.003
0.044,0.004
0.047,0.002
0.047,-0.001
0.047,-0.002
0.046,-0.002
0.046,-0.004
0.049,-0.003
0.046,-0.004
0.051,-0.007
0.047,-0.006
0.050,-0.007
0.048,-0.003
0.047,-0.001
0.047,-0.000
0.046,-0.000
0.044,-0.001
0.047,-0.001
0.047,-0.002
0.045,-0.002
0.046,-0.002
0.046,-0.003
0.047,0.001
0.043,-0.002
0.045,-0.002
0.044,-0.002
0.047,0.000
0.045,0.000
0.045,0.002
0.045,0.001
0.045,0.001
0.041,0.003
0.044,0.002
0.041,0.008
0.042,0.007
0.041,0.012
0.043,0.007
0.043,0.007
0.040,0.007
0.045,0.010
0.042,0.009
0.046,0.009
0.043,0.008
0.044,0.010
0.043,0.010
0.044,0.011
0.040,0.009
0.043,0.011
0.043,0.014
0.044,0.014
0.043,0.017
0.043,0.014
0.040,0.019
0.041,0.015
0.043,0.019
0.040,0.018
0.041,0.018
0.042,0.021
0.044,0.024
0.043,0.027
0.042,0.026
0.040,0.026
0.042,0.028
0.040,0.031
0.040,0.028
0.038,0.031
0.039,0.034
0.043,0.033
0.041,0.029
0.041,0.032
0.040,0.031
0.041,0.033
0.042,0.031
0.043,0.034
0.040,0.035
0.043,0.037
0.042,0.035
0.049,0.036
0.045,0.034
0.045,0.034
0.045,0.034
0.045,0.035
0.045,0.036
0.044,0.036
0.044,0.039
0.042,0.038
0.042,0.040
0.043,0.038
0.042,0.043
0.040,0.039
0.043,0.044
0.041,0.042
0.046,0.042
0.043,0.043
0.045,0.043
0.042,0.042
0.043,0.043
0.044,0.039
0.045,0.039
0.045,0.037
0.046,0.037
0.046,0.041
0.045,0.041
0.043,0.045
0.043,0.043
0.044,0.046
0.043,0.044
0.045,0.041
0.042,0.042
0.046,0.042
0.044,0.041
0.043,0.039
0.044,0.039
0.045,0.042
0.043,0.040
0.047,0.039
0.045,0.040
0.047,0.037
0.045,0.038
0.045,0.034
0.045,0.039
0.045,0.038
0.044,0.036
0.045,0.036
0.044,0.034
0.046,0.032
0.046,0.033
0.046,0.032
0.048,0.032
0.049,0.027
0.049,0.027
0.049,0.027
0.050,0.027
0.048,0.025
0.048,0.023
0.048,0.025
0.050,0.025
0.049,0.024
0.049,0.024
0.049,0.020
0.049,0.021
0.050,0.016
0.051,0.017
0.050,0.014
0.053,0.016
0.050,0.013
0.052,0.014
0.047,0.012
0.048,0.012
0.045,0.011
0.048,0.011
0.045,0.010
0.049,0.012
0.047,0.009
0.048,0.009
0.046,0.006
0.051,0.006
0.049,0.003
0.050,0.002
0.049,0.002
0.050,0.003
0.050,0.004
0.050,0.004
0.049,0.002
0.049,0.003
0.048,0.003
0.048,0.001
0.050,0.007
0.049,0.002
0.047,0.003
0.049,0.002
0.047,0.000
0.049,-0.002
0.048,0.000
0.049,-0.002
0.047,-0.002
0.048,-0.004
0.049,-0.002
0.048,-0.004
0.050,-0.002
0.049,-0.002
0.049,-0.004
0.050,-0.000
0.047,-0.003
0.048,-0.001
0.047,-0.003
0.047,-0.003
0.049,-0.002
0.046,-0.001
0.044,0.000
0.047,0.002
0.047,-0.001
0.048,0.001
0.046,0.002
0.046,0.000
0.048,-0.001
0.046,0.001
0.047,0.003
0.044,0.003
0.046,0.004
0.045,0.004
0.045,0.007
0.046,0.007
0.042,0.010
0.045,0.006
0.045,0.010
0.044,0.009
0.045,0.011
0.046,0.013
0.047,0.009
0.046,0.009
0.045,0.010
0.046,0.012
0.046,0.012
0.044,0.011
0.044,0.015
0.041,0.013
0.044,0.013
0.045,0.013
0.046,0.015
0.043,0.015
0.044,0.015
0.041,0.014
0.042,0.016
0.042,0.019
0.044,0.022
0.040,0.021
0.042,0.028
0.042,0.027
0.043,0.030
0.042,0.029
0.043,0.029
0.041,0.031
0.043,0.028
0.041,0.031
0.041,0.033
0.041,0.031
0.039,0.030
0.039,0.033
0.039,0.034
0.042,0.035
0.040,0.034
0.041,0.035
0.042,0.036
0.045,0.034
0.045,0.037
0.045,0.035
0.046,0.037
0.043,0.034
0.050,0.037
0.045,0.039
0.046,0.038
0.044,0.038
0.043,0.036
0.041,0.040
0.043,0.040
0.042,0.043
0.042,0.044
0.040,0.045
0.044,0.044
0.042,0.044
0.043,0.043
0.045,0.042
0.044,0.040
0.045,0.042
0.042,0.040
0.043,0.044
0.043,0.039
0.046,0.041
0.044,0.042
0.047,0.040
0.046,0.041
0.046,0.041
0.044,0.044
0.045,0.042
0.042,0.045
0.045,0.044
0.044,0.043
0.046,0.040
0.044,0.042
0.044,0.040
0.044,0.039
0.044,0.035
0.047,0.036
0.046,0.036
0.048,0.036
0.047,0.037
0.048,0.037
0.045,0.041
0.048,0.038
0.044,0.038
0.045,0.036
0.041,0.034
0.047,0.035
0.043,0.034
0.043,0.030
0.046,0.032
0.043,0.028
0.048,0.031
0.044,0.026
0.047,0.028
0.046,0.023
0.048,0.027
0.048,0.024
0.050,0.025
0.046,0.021
0.051,0.022
0.047,0.020
0.049,0.019
0.048,0.017
0.047,0.019
0.047,0.014
0.047,0.017
0.047,0.013
0.046,0.012
0.048,0.009
0.048,0.010
0.046,0.010
0.046,0.010
0.046,0.011
0.047,0.011
0.049,0.004
0.049,0.007
0.049,0.003
0.050,0.005
0.049,0.003
0.050,0.006
0.047,0.004
0.049,0.006
0.049,0.009
0.049,0.004
0.048,0.008
0.048,0.004
0.046,0.004
0.044,0.004
0.045,0.005
0.046,0.002
0.046,0.004
0.050,0.003
0.049,0.001
0.048,-0.002
0.050,-0.001
0.047,-0.003
0.047,-0.003
0.045,0.002
0.046,-0.002
0.045,0.002
0.047,0.000
0.043,0.001
0.049,0.001
0.045,-0.000
0.047,-0.001
0.044,0.000
0.046,-0.002
0.046,0.000
0.046,0.001
0.049,0.003
0.045,-0.001
0.050,0.002
0.049,0.001
0.049,-0.000
0.046,0.002
0.048,0.002
0.045,0.006
0.046,0.005
0.044,0.010
0.049,0.008
0.043,0.011
0.046,0.009
0.045,0.010
0.046,0.007
0.043,0.010
0.043,0.009
0.046,0.012
0.044,0.008
0.049,0.011
0.046,0.011
0.048,0.013
0.048,0.012
0.047,0.012
0.049,0.011
0.047,0.015
0.045,0.016
0.048,0.015
0.047,0.019
0.047,0.017
0.045,0.019
0.043,0.017
0.046,0.018
0.046,0.017
0.048,0.017
0.045,0.019
0.044,0.019
0.044,0.023
0.043,0.022
0.043,0.025
0.041,0.028
0.045,0.029
0.043,0.029
0.045,0.032
0.047,0.030
0.047,0.033
0.046,0.029
0.045,0.036
0.044,0.032
0.042,0.036
0.040,0.032
0.046,0.036
0.042,0.035
0.048,0.037
0.043,0.038
0.043,0.036
0.044,0.037
0.044,0.038
0.044,0.040
0.045,0.036
0.043,0.036
0.045,0.036
0.042,0.038
0.045,0.037
0.043,0.040
0.041,0.040
0.045,0.043
0.044,0.043
0.048,0.044
0.044,0.041
0.046,0.046
0.046,0.042
0.047,0.044
0.046,0.040
0.046,0.043
0.044,0.043
0.048,0.039
0.045,0.046
0.043,0.044
0.042,0.043
0.042,0.046
0.045,0.046
0.044,0.044
0.046,0.046
0.044,0.044
0.047,0.045
0.046,0.043
0.050,0.046
0.046,0.044
0.049,0.046
0.049,0.042
0.050,0.042
0.047,0.040
0.049,0.038
0.048,0.039
0.049,0.037
0.047,0.038
0.046,0.037
0.046,0.038
0.045,0.038
0.048,0.037
0.047,0.036
0.049,0.035
0.046,0.032
0.049,0.032
0.046,0.028
0.050,0.030
0.048,0.031
0.050,0.028
0.047,0.029
0.048,0.027
0.046,0.028
0.047,0.026
0.047,0.026
0.047,0.021
0.050,0.022
0.048,0.021
0.052,0.023
0.051,0.020
0.051,0.020
0.053,0.016
0.052,0.016
0.051,0.014
0.051,0.012
0.049,0.011
0.051,0.011
0.049,0.011
0.049,0.009
0.050,0.011
0.051,0.009
0.051,0.007
0.048,0.006
0.052,0.005
0.049,0.009
0.050,0.006
0.050,0.008
0.050,0.006
0.048,0.004
0.051,0.003
0.048,0.003
0.049,0.001
0.049,0.003
0.049,-0.003
0.049,0.001
0.047,-0.002
0.052,-0.001
0.051,0.001
0.055,-0.000
0.055,-0.003
0.054,-0.003
0.053,-0.004
0.054,-0.004
0.052,-0.005
0.052,-0.005
0.047,-0.001
0.049,-0.003
0.047,-0.001
0.043,-0.006
0.048,-0.005
0.046,-0.005
0.049,-0.001
0.048,-0.003
0.049,-0.002
0.047,-0.007
0.051,-0.005
0.049,-0.007
0.051,-0.007
0.046,-0.003
0.046,-0.005
0.046,0.001
0.046,-0.001
0.045,0.002
0.047,0.001
0.045,0.002
0.045,-0.000
0.047,0.001
0.046,0.003
0.047,0.006
0.045,0.002
0.048,0.006
0.046,0.001
0.049,0.006
0.047,0.006
0.051,0.009
0.048,0.007
0.051,0.009
0.049,0.011
0.049,0.007
0.049,0.007
0.044,0.009
0.046,0.012
0.045,0.012
0.044,0.015
0.046,0.014
0.045,0.019
0.045,0.016
0.043,0.019
0.044,0.018
0.043,0.022
0.044,0.019
0.044,0.020
0.044,0.019
0.044,0.023
0.043,0.023
0.043,0.028
0.045,0.025
0.047,0.029
0.049,0.027
0.046,0.027
0.049,0.028
0.048,0.028
0.049,0.030
0.047,0.029
0.049,0.030
0.047,0.028
0.046,0.030
0.043,0.031
0.046,0.034
0.045,0.036
0.047,0.034
0.048,0.037
0.046,0.036
0.044,0.038
0.046,0.036
0.045,0.038
0.044,0.037
0.044,0.041
0.044,0.036
0.044,0.040
0.041,0.036
0.046,0.039
0.043,0.040
0.046,0.041
0.046,0.040
0.046,0.042
0.043,0.040
0.046,0.044
0.047,0.040
0.047,0.040
0.049,0.038
0.049,0.038
0.049,0.038
0.046,0.038
0.047,0.040
0.045,0.038
0.046,0.040
0.045,0.040
0.045,0.042
0.047,0.041
0.046,0.041
0.047,0.044
0.046,0.044
0.046,0.039
0.049,0.039
0.047,0.040
0.049,0.039
0.049,0.039
0.047,0.037
0.050,0.039
0.048,0.038
0.046,0.038
0.049,0.038
0.045,0.037
0.048,0.038
0.046,0.038
0.049,0.036
0.048,0.035
0.048,0.031
0.048,0.034
0.048,0.034
0.050,0.030
0.050,0.029
0.050,0.029
0.052,0.031
0.051,0.028
0.050,0.030
0.049,0.028
0.053,0.030
0.050,0.026
0.047,0.025
0.048,0.023
0.046,0.025
0.049,0.023
0.049,0.024
0.051,0.020
0.051,0.021
0.050,0.020
0.052,0.016
0.052,0.015
0.050,0.013
0.051,0.009
0.049,0.012
0.050,0.012
0.049,0.012
0.048,0.007
0.052,0.008
0.051,0.007
0.053,0.009
0.051,0.006
0.047,0.008
0.050,0.006
0.051,0.009
0.051,0.005
0.053,0.009
0.049,0.006
0.048,0.007
0.047,0.008
0.048,0.006
0.047,0.005
0.049,0.008
0.049,0.003
0.049,0.006
0.050,0.003
0.051,0.004
0.051,0.001
0.051,-0.003
0.048,-0.002
0.049,-0.003
0.049,-0.001
0.049,-0.003
0.047,-0.001
0.047,-0.002
0.047,-0.003
0.048,-0.003
0.049,-0.002
0.050,-0.003
0.049,-0.001
0.049,-0.005
0.050,-0.004
0.050,-0.004
0.050,-0.004
0.051,-0.003
0.049,-0.005
0.048,-0.002
0.048,-0.005
0.048,-0.002
0.046,-0.001
0.046,0.002
0.045,0.001
0.044,0.004
0.044,0.002
0.045,0.003
0.046,0.003
0.044,0.006
0.043,0.003
0.045,0.005
0.044,0.006
0.045,0.008
0.045,0.007
0.045,0.004
0.047,0.006
0.046,0.006
0.049,0.008
0.049,0.009
0.045,0.012
0.044,0.012
0.045,0.011
0.045,0.012
0.045,0.013
0.046,0.015
0.044,0.015
0.044,0.015
0.043,0.017
0.046,0.015
0.045,0.017
0.041,0.018
0.041,0.019
0.042,0.018
0.038,0.019
0.043,0.020
0.039,0.023
0.042,0.024
0.043,0.027
0.044,0.024
0.047,0.029
0.045,0.030
0.044,0.029
0.043,0.028
0.044,0.030
0.045,0.030
0.041,0.033
0.040,0.031
0.044,0.034
0.041,0.031
0.044,0.034
0.043,0.033
0.041,0.035
0.043,0.036
0.040,0.038
0.043,0.039
0.040,0.040
0.044,0.038
0.041,0.036
0.042,0.037
0.042,0.039
0.041,0.036
0.043,0.037
0.041,0.040
0.041,0.040
0.041,0.039
0.042,0.040
0.043,0.042
0.043,0.044
0.044,0.043
0.044,0.043
0.045,0.045
0.047,0.043
0.044,0.043
0.047,0.040
0.043,0.042
0.045,0.043
0.043,0.041
0.041,0.042
0.041,0.045
0.043,0.045
0.042,0.043
0.043,0.044
0.047,0.042
0.047,0.041
0.043,0.041
0.046,0.040
0.046,0.041
0.045,0.042
0.048,0.043
0.043,0.042
0.047,0.040
0.045,0.039
0.046,0.036
0.043,0.036
0.045,0.035
0.043,0.036
0.048,0.037
0.047,0.033
0.046,0.033
0.048,0.034
0.049,0.032
0.047,0.032
0.048,0.030
0.046,0.026
0.045,0.028
0.048,0.030
0.045,0.031
0.048,0.028
0.046,0.030
0.048,0.026
0.044,0.028
0.047,0.024
0.045,0.023
0.049,0.026
0.045,0.023
0.047,0.022
0.048,0.021
0.050,0.021
0.048,0.021
0.051,0.016
0.049,0.018
0.050,0.012
0.049,0.013
0.049,0.010
0.046,0.012
0.046,0.008
0.047,0.009
0.048,0.007
0.050,0.010
0.050,0.008
0.048,0.011
0.047,0.006
0.047,0.007
0.047,0.003
0.045,0.004
0.047,0.004
0.046,0.003
0.047,-0.001
0.047,0.002
0.045,-0.000
0.049,0.000
0.046,0.001
0.045,-0.001
0.049,-0.001
0.049,-0.001
0.051,-0.003
0.047,-0.005
0.048,-0.005
0.049,-0.005
0.045,-0.007
0.047,-0.006
0.041,-0.004
0.044,-0.005
0.043,-0.003
0.045,-0.002
0.046,-0.004
0.045,-0.003
0.045,-0.003
0.047,-0.004
0.047,-0.004
0.046,-0.007
0.045,-0.004
0.048,-0.003
0.042,-0.006
0.044,-0.005
0.044,-0.003
0.042,-0.003
0.045,-0.003
0.041,-0.003
0.044,-0.003
0.044,-0.002
0.043,-0.002
0.046,-0.002
0.042,0.001
0.043,0.000
0.047,0.002
0.046,0.004
0.048,0.002
0.047,0.003
0.044,0.000
0.044,0.002
0.043,0.006
0.044,0.004
0.044,0.008
0.043,0.007
0.042,0.007
0.046,0.006
0.042,0.010
0.043,0.008
0.041,0.007
0.045,0.009
0.041,0.012
0.046,0.012
0.046,0.014
0.044,0.011
0.044,0.015
0.043,0.010
0.045,0.013
0.043,0.015
0.045,0.019
0.044,0.018
0.040,0.021
0.042,0.019
0.042,0.024
0.043,0.021
0.042,0.025
0.042,0.023
0.044,0.026
0.043,0.025
0.045,0.026
0.045,0.025
0.042,0.026
0.043,0.027
0.043,0.028
0.041,0.028
0.038,0.030
0.040,0.030
0.041,0.034
0.043,0.034
0.039,0.035
0.043,0.036
0.040,0.036
0.043,0.034
0.042,0.035
0.045,0.032
0.043,0.033
0.042,0.031
0.042,0.033
0.041,0.032
0.045,0.036
0.039,0.032
0.043,0.036
0.043,0.036
0.045,0.039
0.045,0.037
0.044,0.037
0.043,0.040
0.048,0.036
0.043,0.039
0.043,0.038
0.043,0.037
0.042,0.037
0.042,0.040
0.042,0.037
0.045,0.039
0.042,0.040
0.043,0.040
0.042,0.037
0.044,0.041
0.042,0.039
0.046,0.040
0.044,0.039
0.044,0.039
0.045,0.039
0.049,0.041
0.045,0.039
0.046,0.036
0.045,0.040
0.044,0.035
0.045,0.036
0.046,0.036
0.049,0.031
0.049,0.032
0.050,0.034
0.049,0.031
0.049,0.032
0.045,0.028
0.049,0.027
0.048,0.028
0.052,0.028
0.051,0.030
0.048,0.024
0.049,0.024
0.048,0.024
0.047,0.026
0.049,0.023
0.045,0.023
0.047,0.021
0.046,0.024
0.048,0.020
0.045,0.022
0.048,0.019
0.049,0.019
0.046,0.017
0.051,0.017
0.052,0.015
0.050,0.011
0.052,0.008
0.049,0.009
0.051,0.010
0.052,0.007
0.051,0.009
0.051,0.008
0.051,0.006
0.048,0.008
0.050,0.006
0.046,0.005
0.050,0.004
0.050,0.006
0.052,0.002
0.047,0.001
0.049,-0.002
0.045,-0.000
0.045,0.000
0.048,0.004
0.047,-0.001
0.050,-0.002
0.050,-0.002
0.051,-0.001
0.050,-0.001
0.052,-0.003
0.050,-0.005
0.054,-0.002
0.051,-0.002
0.052,-0.003
0.051,-0.003
0.053,-0.006
0.050,-0.004
0.053,-0.007
0.048,-0.005
0.048,-0.006
0.050,-0.004
0.047,-0.004
0.052,-0.006
0.050,-0.005
0.054,-0.005
0.052,-0.007
0.051,-0.006
0.049,-0.007
0.049,-0.005
0.046,-0.005
0.050,-0.004
0.047,-0.001
0.049,-0.001
0.046,0.001
0.047,0.000
0.045,0.003
0.045,0.001
0.046,0.002
0.045,0.001
0.049,0.003
0.044,0.003
0.051,0.001
0.049,0.002
0.050,0.002
0.049,0.003
0.049,0.004
0.045,0.005
0.047,0.005
0.048,0.007
0.050,0.008
0.046,0.011
0.047,0.007
0.045,0.010
0.045,0.006
0.045,0.011
0.044,0.010
0.046,0.010
0.044,0.010
0.046,0.014
0.044,0.012
0.045,0.015
0.045,0.013
0.047,0.014
0.043,0.014
0.045,0.015
0.042,0.014
0.043,0.015
0.044,0.018
0.041,0.023
0.042,0.025
0.040,0.024
0.044,0.026
0.044,0.030
0.046,0.027
0.045,0.031
0.043,0.024
0.044,0.027
0.046,0.027
0.044,0.030
0.047,0.030
0.042,0.031
0.044,0.033
0.043,0.033
0.044,0.031
0.044,0.035
0.045,0.034
0.045,0.037
0.047,0.034
0.044,0.037
0.042,0.036
0.044,0.036
0.043,0.036
0.046,0.037
0.044,0.036
0.049,0.037
0.045,0.036
0.048,0.038
0.045,0.039
0.047,0.039
0.044,0.040
0.049,0.041
0.045,0.040
0.047,0.040
0.044,0.042
0.048,0.039
0.045,0.042
0.046,0.041
0.045,0.040
0.044,0.041
0.046,0.043
0.045,0.040
0.045,0.040
0.043,0.039
0.048,0.041
0.047,0.042
0.047,0.045
0.047,0.040
0.047,0.043
0.047,0.039
0.050,0.038
0.047,0.039
0.049,0.036
0.047,0.042
0.048,0.037
0.046,0.037
0.047,0.032
0.047,0.037
0.048,0.032
0.049,0.034
0.046,0.031
0.050,0.031
0.051,0.029
0.050,0.029
0.047,0.026
0.049,0.026
0.048,0.027
0.047,0.027
0.046,0.027
0.049,0.024
0.044,0.025
0.047,0.025
0.045,0.027
0.048,0.023
0.048,0.026
0.048,0.019
0.051,0.021
0.049,0.016
0.049,0.017
0.049,0.016
0.049,0.017
0.052,0.011
0.053,0.010
0.054,0.008
0.053,0.009
0.052,0.006
0.052,0.006
0.050,0.006
0.050,0.004
0.052,0.004
0.048,0.003
0.053,0.002
0.052,-0.001
0.053,0.000
0.052,0.002
0.054,0.001
0.052,0.002
0.050,-0.001
0.049,-0.001
0.050,0.000
0.047,-0.001
0.050,-0.002
0.045,-0.002
0.048,-0.003
0.046,-0.001
0.048,-0.005
0.051,-0.002
0.048,-0.006
0.052,-0.003
0.049,-0.003
0.053,-0.006
0.050,-0.009
0.051,-0.009
0.052,-0.011
0.053,-0.008
0.050,-0.007
0.054,-0.009
0.046,-0.006
0.050,-0.009
0.050,-0.007
0.052,-0.008
0.052,-0.006
0.049,-0.010
0.051,-0.007
0.048,-0.009
0.050,-0.008
0.047,-0.011
0.049,-0.009
0.049,-0.006
0.050,-0.006
0.048,-0.007
0.049,-0.004
0.047,-0.002
0.049,-0.003
0.047,0.000
0.049,-0.002
0.048,-0.000
0.047,-0.003
0.048,0.001
0.047,-0.002
0.051,0.001
0.049,0.002
0.049,0.001
0.048,0.004
0.051,0.004
0.049,0.002
0.053,0.006
0.049,0.004
0.053,0.006
0.048,0.005
0.049,0.006
0.047,0.009
0.048,0.007
0.046,0.011
0.046,0.009
0.046,0.011
0.045,0.011
0.046,0.014
0.047,0.017
0.047,0.016
0.049,0.016
0.047,0.019
0.049,0.015
0.048,0.016
0.050,0.017
0.050,0.023
0.047,0.022
0.047,0.023
0.045,0.022
0.045,0.023
0.050,0.025
0.047,0.025
0.051,0.022
0.048,0.026
0.049,0.024
0.049,0.026
0.048,0.026
0.047,0.025
0.051,0.028
0.047,0.032
0.050,0.030
0.048,0.034
0.048,0.033
0.048,0.036
0.046,0.032
0.045,0.034
0.045,0.037
0.044,0.035
0.043,0.035
0.047,0.036
0.043,0.033
0.044,0.036
0.043,0.036
0.044,0.037
0.043,0.036
0.047,0.038
0.042,0.037
0.048,0.036
0.046,0.037
0.048,0.038
0.049,0.038
0.049,0.038
0.049,0.039
0.050,0.036
0.048,0.041
0.048,0.039
0.045,0.042
0.043,0.037
0.043,0.043
0.044,0.042
0.045,0.045
0.046,0.044
0.045,0.041
0.047,0.040
0.048,0.041
0.046,0.037
0.046,0.037
0.046,0.038
0.049,0.039
0.049,0.040
0.049,0.039
0.047,0.040
0.048,0.036
0.049,0.038
0.048,0.033
0.046,0.034
0.046,0.033
0.047,0.034
0.048,0.034
0.048,0.032
0.047,0.032
0.049,0.031
0.051,0.026
0.055,0.030
0.052,0.026
0.054,0.026
0.051,0.026
0.050,0.024
0.050,0.028
0.053,0.025
0.050,0.026
0.050,0.022
0.048,0.023
0.049,0.021
0.050,0.018
0.051,0.019
0.050,0.021
0.051,0.016
0.050,0.018
0.051,0.014
0.051,0.010
0.053,0.009
0.053,0.008
0.052,0.008
0.051,0.008
0.053,0.004
0.050,0.006
0.055,0.004
0.056,0.004
0.054,0.004
0.054,0.003
0.054,0.001
0.054,0.002
0.052,0.002
0.052,0.007
0.050,0.001
0.049,0.003
0.052,0.000
0.049,0.002
0.046,-0.001
0.049,0.000
0.046,-0.001
0.050,0.000
0.049,-0.001
0.052,-0.001
0.053,-0.001
0.053,-0.002
0.053,-0.003
0.052,-0.003
0.053,-0.004
0.051,-0.006
0.051,-0.003
0.051,-0.007
0.050,-0.001
0.050,-0.003
0.049,-0.003
0.047,-0.005
0.052,-0.005
0.049,-0.007
0.053,-0.007
0.049,-0.007
0.052,-0.007
0.050,-0.006
0.049,-0.006
0.049,-0.005
0.046,-0.003
0.048,-0.003
0.051,-0.002
0.048,0.002
0.047,-0.000
0.045,0.002
0.044,0.000
0.046,-0.001
0.045,0.001
0.046,0.001
0.046,0.002
0.047,0.000
0.047,0.002
0.046,0.003
0.049,0.000
0.049,0.002
0.045,0.001
0.046,0.002
0.045,0.006
0.047,0.007
0.048,0.008
0.048,0.008
0.045,0.008
0.047,0.010
0.047,0.012
0.045,0.010
0.044,0.012
0.046,0.013
0.044,0.013
0.047,0.013
0.045,0.016
0.047,0.015
0.045,0.014
0.046,0.012
0.045,0.017
0.046,0.017
0.046,0.019
0.046,0.019
0.045,0.021
0.045,0.021
0.041,0.023
0.044,0.024
0.041,0.026
0.043,0.024
0.045,0.026
0.044,0.027
0.048,0.026
0.045,0.026
0.046,0.027
0.045,0.027
0.045,0.029
0.044,0.031
0.045,0.034
0.043,0.034
0.045,0.035
0.046,0.035
0.044,0.035
0.046,0.034
0.044,0.039
0.047,0.037
0.047,0.036
0.044,0.035
0.049,0.037
0.045,0.035
0.050,0.037
0.047,0.037
0.047,0.039
0.048,0.039
0.046,0.037
0.047,0.038
0.046,0.038
0.045,0.040
0.046,0.039
0.047,0.040
0.047,0.037
0.044,0.041
0.048,0.041
0.044,0.041
0.046,0.041
0.046,0.043
0.046,0.039
0.047,0.043
0.047,0.042
0.047,0.041
0.046,0.041
0.047,0.040
0.049,0.039
0.047,0.039
0.049,0.040
0.045,0.039
0.049,0.040
0.050,0.039
0.045,0.040
0.050,0.036
0.047,0.038
0.049,0.037
0.048,0.033
0.048,0.036
0.049,0.033
0.052,0.032
0.052,0.031
0.049,0.029
0.049,0.032
0.048,0.029
0.049,0.030
0.049,0.030
0.049,0.029
0.047,0.030
0.048,0.028
0.048,0.030
0.047,0.026
0.049,0.025
0.047,0.025
0.046,0.026
0.046,0.027
0.047,0.022
0.049,0.023
0.048,0.023
0.052,0.021
0.049,0.021
0.051,0.014
0.050,0.017
0.050,0.011
0.049,0.012
0.050,0.011
0.049,0.010
0.048,0.008
0.049,0.008
0.051,0.006
0.050,0.010
0.052,0.005
0.049,0.007
0.048,0.004
0.047,0.008
0.049,0.004
0.048,0.004
0.050,0.002
0.045,0.003
0.047,0.002
0.047,0.004
0.048,0.002
0.050,0.002
0.050,0.001
0.051,-0.000
0.050,0.001
0.048,0.002
0.050,0.001
0.049,-0.001
0.049,-0.001
0.050,-0.004
0.049,-0.000
0.048,-0.004
0.046,-0.003
0.047,-0.006
0.044,-0.003
0.046,-0.003
0.046,-0.002
0.046,-0.003
0.045,-0.002
0.046,-0.005
0.049,-0.003
0.049,-0.005
0.048,-0.005
0.049,-0.004
0.045,-0.004
0.050,-0.002
0.049,-0.001
0.047,-0.002
0.047,-0.003
0.043,0.000
0.046,-0.002
0.042,-0.001
0.043,0.000
0.043,0.002
0.045,0.002
0.046,0.001
0.047,0.004
0.046,0.002
0.046,0.001
0.047,0.004
0.047,0.001
0.048,0.005
0.046,0.004
0.048,0.004
0.046,0.009
0.046,0.008
0.044,0.011
0.045,0.008
0.044,0.011
0.046,0.011
0.045,0.012
0.044,0.012
0.043,0.014
0.041,0.011
0.043,0.013
0.040,0.013
0.043,0.014
0.041,0.014
0.044,0.016
0.042,0.015
0.041,0.019
0.043,0.017
0.041,0.022
0.042,0.020
0.041,0.025
0.044,0.026
0.046,0.030
0.042,0.026
0.044,0.030
0.042,0.029
0.045,0.027
0.044,0.028
0.046,0.030
0.050,0.031
0.044,0.032
0.045,0.032
0.042,0.030
0.044,0.032
0.043,0.032
0.046,0.033
0.044,0.035
0.044,0.036
0.043,0.037
0.043,0.036
0.042,0.041
0.044,0.036
0.044,0.039
0.045,0.039
0.045,0.039
0.044,0.037
0.043,0.039
0.039,0.039
0.046,0.042
0.043,0.041
0.046,0.044
0.043,0.044
0.044,0.044
0.044,0.039
0.045,0.042
0.044,0.043
0.047,0.039
0.043,0.041
0.045,0.040
0.042,0.044
0.045,0.040
0.041,0.044
0.043,0.044
0.048,0.045
0.044,0.043
0.045,0.044
0.040,0.041
0.045,0.046
0.045,0.044
0.049,0.045
0.046,0.043
0.043,0.042
0.043,0.043
0.045,0.040
0.045,0.041
0.047,0.039
0.045,0.041
0.047,0.037
0.044,0.039
0.045,0.037
0.044,0.038
0.044,0.034
0.047,0.037
0.046,0.032
0.048,0.034
0.048,0.033
0.049,0.032
0.049,0.030
0.049,0.030
0.049,0.029
0.050,0.028
0.046,0.031
0.053,0.029
0.050,0.031
0.049,0.026
0.044,0.026
0.045,0.024
0.044,0.026
0.046,0.024
0.046,0.025
0.049,0.023
0.048,0.022
0.051,0.017
0.049,0.018
0.048,0.015
0.048,0.015
0.050,0.014
0.052,0.012
0.052,0.010
0.050,0.010
0.053,0.011
0.052,0.011
0.051,0.008
0.050,0.006
0.050,0.006
0.051,0.006
0.050,0.007
0.050,0.007
0.052,0.006
0.048,0.003
0.052,0.003
0.047,0.005
0.049,0.001
0.047,0.004
0.046,0.001
0.046,0.007
0.045,0.002
0.046,0.003
0.046,-0.000
0.049,0.000
0.049,-0.003
0.050,-0.002
0.050,-0.000
0.049,-0.003
0.046,-0.003
0.050,-0.002
0.046,-0.003
0.049,-0.003
0.044,-0.002
0.047,-0.003
0.048,-0.001
0.047,0.001
0.050,-0.002
0.048,-0.002
0.050,-0.002
0.046,-0.004
0.047,-0.005
0.046,-0.004
0.047,-0.003
0.045,-0.003
0.046,-0.001
0.042,0.002
0.044,0.001
0.044,0.003
0.045,0.004
0.039,0.003
0.041,0.003
0.041,0.004
0.043,0.000
0.045,0.003
0.042,0.001
0.046,0.001
0.042,0.002
0.045,0.004
0.043,0.006
0.046,0.006
0.044,0.003
0.049,0.004
0.045,0.003
0.045,0.004
0.044,0.010
0.044,0.008
0.043,0.011
0.045,0.009
0.042,0.014
0.042,0.013
0.042,0.014
0.044,0.014
0.043,0.017
0.044,0.015
0.043,0.016
0.043,0.014
0.042,0.017
0.043,0.016
0.043,0.020
0.039,0.019
0.042,0.024
0.042,0.025
0.044,0.026
0.043,0.028
0.042,0.026
0.045,0.027
0.043,0.029
0.045,0.029
0.044,0.029
0.047,0.030
0.046,0.027
0.047,0.031
0.045,0.029
0.047,0.032
0.046,0.031
0.048,0.031
0.046,0.033
0.048,0.031
0.045,0.036
0.045,0.034
0.043,0.037
0.040,0.038
0.041,0.041
0.041,0.037
0.044,0.040
0.044,0.040
0.044,0.039
0.043,0.038
0.044,0.042
0.042,0.039
0.045,0.042
0.044,0.040
0.048,0.041
0.046,0.043
0.046,0.041
0.047,0.041
0.045,0.040
0.049,0.043
0.048,0.041
0.047,0.046
0.046,0.044
0.044,0.046
0.046,0.044
0.044,0.049
0.045,0.042
0.044,0.045
0.046,0.045
0.047,0.046
0.046,0.043
0.049,0.046
0.047,0.041
0.048,0.043
0.047,0.039
0.049,0.039
0.048,0.037
0.049,0.037
0.045,0.037
0.047,0.036
0.047,0.038
0.048,0.035
0.046,0.039
0.046,0.035
0.045,0.036
0.045,0.035
0.047,0.034
0.046,0.033
0.046,0.033
0.047,0.030
0.048,0.030
0.050,0.029
0.048,0.030
0.050,0.030
0.051,0.027
0.049,0.028
0.049,0.022
0.049,0.025
0.049,0.019
0.049,0.023
0.049,0.020
0.050,0.021
0.048,0.021
0.050,0.022
0.050,0.018
0.049,0.019
0.052,0.014
0.050,0.013
0.052,0.012
0.052,0.010
0.051,0.007
0.049,0.005
0.051,0.007
0.050,0.006
0.051,0.006
0.046,0.006
0.053,0.005
0.049,0.007
0.049,0.006
0.050,0.005
0.052,0.004
0.051,0.002
0.052,-0.002
0.050,0.000
0.052,-0.001
0.050,0.001
0.051,-0.002
0.048,0.002
0.050,-0.000
0.050,0.001
0.049,-0.002
0.053,-0.001
0.050,-0.002
0.052,-0.003
0.049,-0.005
0.049,-0.007
0.051,-0.009
0.049,-0.006
0.051,-0.007
0.049,-0.005
0.049,-0.004
0.050,-0.004
0.048,0.000
0.049,-0.007
0.049,-0.003
0.048,-0.006
0.047,-0.005
0.049,-0.004
0.046,-0.003
0.046,-0.005
0.048,-0.004
0.049,-0.005
0.048,-0.005
0.048,-0.003
0.047,-0.002
0.048,-0.001
0.045,-0.004
0.046,0.001
0.046,-0.001
0.045,0.004
0.048,0.002
0.046,0.006
0.048,0.002
0.047,0.005
0.043,0.002
0.047,0.004
0.044,0.000
0.045,-0.000
0.043,0.001
0.046,0.004
0.045,0.006
0.044,0.005
0.042,0.006
0.043,0.008
0.045,0.010
0.043,0.009
0.047,0.014
0.045,0.011
0.045,0.014
0.044,0.010
0.043,0.014
0.046,0.013
0.046,0.018
0.044,0.017
0.046,0.017
0.044,0.017
0.044,0.018
0.045,0.019
0.045,0.023
0.049,0.025
0.044,0.026
0.046,0.028
0.044,0.026
0.046,0.028
0.045,0.029
0.046,0.031
0.046,0.030
0.048,0.029
0.043,0.029
0.043,0.030
0.043,0.031
0.043,0.032
0.044,0.032
0.045,0.033
0.045,0.034
0.041,0.035
0.043,0.037
0.043,0.037
0.045,0.039
0.041,0.036
0.044,0.038
0.043,0.036
0.039,0.039
0.043,0.037
0.042,0.040
0.042,0.037
0.041,0.040
0.038,0.039
0.044,0.041
0.042,0.039
0.046,0.038
0.045,0.039
0.048,0.040
0.045,0.042
0.047,0.040
0.048,0.043
0.045,0.043
0.045,0.044
0.045,0.041
0.046,0.042
0.046,0.042
0.046,0.045
0.047,0.043
0.043,0.043
0.043,0.043
0.045,0.044
0.043,0.042
0.048,0.045
0.048,0.045
0.050,0.043
0.049,0.045
0.049,0.043
0.049,0.042
0.050,0.040
0.049,0.038
0.049,0.036
0.049,0.037
0.050,0.034
0.051,0.038
0.050,0.038
0.046,0.038
0.046,0.034
0.048,0.035
0.047,0.034
0.050,0.033
0.050,0.033
0.052,0.030
0.053,0.029
0.053,0.027
0.051,0.028
0.051,0.026
0.052,0.026
0.051,0.024
0.052,0.028
0.051,0.023
0.053,0.026
0.053,0.022
0.050,0.022
0.053,0.020
0.054,0.020
0.050,0.017
0.055,0.018
0.052,0.017
0.053,0.014
0.054,0.014
0.053,0.010
0.054,0.008
0.051,0.007
0.051,0.007
0.050,0.007
0.053,0.006
0.052,0.006
0.053,0.007
0.052,0.003
0.054,0.002
0.050,0.005
0.051,0.000
0.051,0.004
0.049,0.002
0.051,0.004
0.051,0.002
0.050,0.002
0.047,-0.001
0.047,-0.001
0.047,-0.000
0.049,-0.001
0.048,-0.001
0.052,0.000
0.049,-0.003
0.052,-0.003
0.051,-0.006
0.054,-0.008
0.053,-0.007
0.050,-0.010
0.050,-0.007
0.050,-0.007
0.049,-0.003
0.048,-0.004
0.049,-0.003
0.049,-0.003
0.050,-0.004
0.052,-0.006
0.056,-0.004
0.053,-0.006
0.056,-0.006
0.050,-0.007
0.052,-0.005
0.048,-0.005
0.049,-0.006
0.051,-0.006
0.049,-0.003
0.048,-0.003
0.045,-0.002
0.043,0.000
0.044,-0.001
0.043,0.000
0.045,-0.002
0.046,0.002
0.045,-0.001
0.045,-0.001
0.044,-0.001
0.044,0.002
0.045,0.003
0.045,0.006
0.047,0.004
0.047,0.005
0.047,0.004
0.046,0.004
0.047,0.008
0.047,0.006
0.044,0.008
0.044,0.011
0.042,0.011
0.046,0.012
0.043,0.011
0.044,0.013
0.043,0.014
0.045,0.011
0.040,0.014
0.041,0.014
0.042,0.017
0.042,0.017
0.041,0.017
0.043,0.018
0.039,0.020
0.042,0.019
0.039,0.023
0.041,0.023
0.043,0.025
0.043,0.022
0.043,0.027
0.041,0.026
0.044,0.026
0.042,0.028
0.043,0.026
0.044,0.027
0.045,0.028
0.047,0.030
0.045,0.032
0.044,0.029
0.044,0.029
0.044,0.033
0.045,0.033
0.043,0.035
0.044,0.037
0.045,0.035
0.044,0.037
0.045,0.035
0.041,0.037
0.042,0.035
0.042,0.035
0.042,0.039
0.044,0.036
0.044,0.037
0.045,0.040
0.044,0.037
0.044,0.042
0.043,0.038
0.044,0.040
0.045,0.037
0.044,0.039
0.044,0.040
0.047,0.039
0.045,0.042
0.048,0.040
0.044,0.043
0.048,0.038
0.043,0.043
0.044,0.042
0.046,0.043
0.047,0.043
0.048,0.044
0.046,0.041
0.049,0.043
0.047,0.040
0.048,0.041
0.047,0.041
0.049,0.042
0.048,0.043
0.050,0.040
0.045,0.039
0.047,0.038
0.045,0.039
0.043,0.039
0.044,0.040
0.046,0.037
0.043,0.038
0.046,0.037
0.045,0.036
0.046,0.032
0.049,0.035
0.046,0.031
0.049,0.033
0.047,0.032
0.049,0.030
0.047,0.030
0.048,0.029
0.047,0.031
0.047,0.025
0.046,0.026
0.049,0.025
0.049,0.024
0.051,0.025
0.048,0.025
0.050,0.024
0.048,0.024
0.053,0.020
0.051,0.023
0.054,0.019
0.052,0.019
0.050,0.015
0.047,0.015
0.046,0.012
0.047,0.011
0.046,0.010
0.050,0.011
0.048,0.009
0.048,0.011
0.049,0.007
0.048,0.008
0.048,0.004
0.051,0.009
0.049,0.004
0.051,0.007
0.047,0.004
0.045,0.005
0.051,0.004
0.047,0.006
0.048,0.001
0.045,0.004
0.047,0.003
0.048,0.002
0.047,0.000
0.049,0.003
0.049,0.000
0.047,-0.002
0.047,-0.004
0.048,-0.004
0.048,-0.005
0.049,-0.005
0.049,-0.005
0.049,-0.005
0.047,-0.003
0.048,-0.004
0.045,-0.002
0.045,-0.002
0.045,-0.001
0.045,-0.006
0.045,-0.005
0.046,-0.006
0.049,-0.005
0.046,-0.006
0.048,-0.006
0.049,-0.004
0.049,-0.003
0.048,-0.002
0.046,-0.002
0.048,0.000
0.050,-0.001
0.047,0.000
0.050,-0.003
0.045,0.002
0.046,-0.000
0.046,0.002
0.047,0.002
0.048,0.007
0.048,0.008
0.046,0.006
0.046,0.004
0.046,0.005
0.047,0.004
0.048,0.010
0.047,0.010
0.047,0.010
0.046,0.011
0.046,0.010
0.047,0.011
0.048,0.009
0.046,0.010
0.047,0.012
0.046,0.012
0.049,0.010
0.045,0.014
0.046,0.011
0.047,0.016
0.046,0.015
0.045,0.017
0.046,0.017
0.046,0.020
0.046,0.019
0.045,0.022
0.044,0.021
0.042,0.026
0.043,0.021
0.044,0.027
0.045,0.024
0.047,0.026
0.047,0.028
0.047,0.032
0.046,0.030
0.047,0.031
0.046,0.030
0.043,0.033
0.045,0.031
0.045,0.032
0.045,0.032
0.046,0.036
0.047,0.032
0.047,0.035
0.048,0.036
0.044,0.038
0.044,0.036
0.043,0.038
0.047,0.034
0.046,0.039
0.045,0.035
0.047,0.038
0.045,0.037
0.048,0.036
0.045,0.035
0.045,0.038
0.047,0.037
0.051,0.038
0.046,0.040
0.048,0.039
0.046,0.043
0.047,0.040
0.046,0.045
0.049,0.041
0.047,0.045
0.046,0.042
0.044,0.044
0.042,0.043
0.045,0.044
0.043,0.042
0.045,0.045
0.047,0.042
0.047,0.043
0.043,0.041
0.047,0.045
0.045,0.043
0.048,0.043
0.047,0.043
0.050,0.039
0.048,0.041
0.047,0.039
0.045,0.040
0.045,0.040
0.046,0.041
0.045,0.038
0.043,0.037
0.045,0.036
0.049,0.038
0.045,0.036
0.046,0.036
0.044,0.033
0.047,0.031
0.045,0.029
0.047,0.028
0.046,0.032
0.047,0.029
0.047,0.030
0.045,0.027
0.044,0.030
0.046,0.025
0.044,0.028
0.046,0.025
0.048,0.028
0.047,0.023
0.048,0.025
0.047,0.023
0.047,0.023
0.049,0.021
0.048,0.022
0.048,0.018
0.048,0.019
0.050,0.015
0.048,0.016
0.051,0.011
0.047,0.013
0.048,0.010
0.049,0.009
0.049,0.008
0.046,0.010
0.047,0.010
0.048,0.009
0.048,0.007
0.045,0.008
0.049,0.006
0.047,0.005
0.048,0.003
0.046,0.004
0.045,0.003
0.046,0.002
0.048,0.001
0.050,0.002
0.045,0.000
0.049,-0.001
0.048,-0.003
0.051,-0.001
0.049,-0.004
0.051,-0.002
0.050,-0.003
0.052,-0.002
0.049,-0.002
0.052,-0.003
0.047,-0.002
0.050,-0.004
0.047,-0.003
0.045,-0.006
0.046,-0.005
0.048,-0.007
0.045,-0.005
0.045,-0.007
0.050,-0.005
0.044,-0.009
0.052,-0.009
0.047,-0.009
0.048,-0.009
0.048,-0.005
0.046,-0.006
0.047,-0.002
0.046,-0.006
0.050,-0.003
0.047,-0.007
0.048,-0.002
0.048,-0.001
0.046,0.001
0.045,-0.002
0.047,0.002
0.046,-0.000
0.051,0.001
0.045,0.002
0.051,0.002
0.047,0.001
0.048,0.002
0.044,0.005
0.045,0.004
0.045,0.006
0.043,0.006
0.046,0.008
0.045,0.007
0.044,0.012
0.045,0.010
0.044,0.012
0.043,0.011
0.041,0.015
0.042,0.012
0.045,0.013
0.041,0.014
0.044,0.014
0.043,0.015
0.042,0.011
0.045,0.014
0.043,0.015
0.045,0.016
0.041,0.018
0.043,0.019
0.043,0.021
0.044,0.021
0.043,0.023
0.046,0.025
0.043,0.025
0.044,0.025
0.044,0.026
0.047,0.024
0.047,0.027
0.045,0.029
0.045,0.028
0.047,0.032
0.046,0.030
0.049,0.031
0.047,0.032
0.046,0.033
0.049,0.038
0.045,0.038
0.047,0.038
0.047,0.037
0.047,0.040
0.048,0.039
0.045,0.038
0.047,0.038
0.046,0.038
0.048,0.037
0.045,0.039
0.043,0.037
0.043,0.041
0.042,0.039
0.045,0.040
0.046,0.038
0.046,0.041
0.047,0.040
0.046,0.041
0.043,0.041
0.044,0.041
0.042,0.043
0.047,0.042
0.044,0.043
0.044,0.043
0.044,0.041
0.043,0.040
0.044,0.042
0.044,0.043
0.042,0.042
0.045,0.044
0.047,0.046
0.044,0.043
0.047,0.045
0.048,0.039
0.050,0.042
0.047,0.043
0.049,0.040
0.046,0.040
0.047,0.040
0.045,0.040
0.048,0.040
0.046,0.041
0.050,0.039
0.046,0.037
0.044,0.036
0.043,0.036
0.046,0.035
0.048,0.035
0.048,0.031
0.050,0.033
0.047,0.030
0.052,0.033
0.046,0.029
0.050,0.028
0.047,0.026
0.050,0.027
0.047,0.028
0.050,0.027
0.047,0.027
0.049,0.025
0.048,0.028
0.052,0.024
0.050,0.024
0.054,0.021
0.052,0.022
0.050,0.017
0.051,0.017
0.050,0.013
0.050,0.015
0.050,0.010
0.051,0.011
0.051,0.010
0.051,0.009
0.051,0.006
0.052,0.006
0.052,0.005
0.050,0.007
0.050,0.004
0.052,0.005
0.053,0.006
0.049,0.006
0.052,0.003
0.051,0.003
0.055,-0.001
0.052,0.002
0.054,-0.001
0.050,0.000
0.052,0.001
0.050,0.001
0.051,-0.000
0.050,-0.000
0.052,0.000
0.055,0.000
0.055,-0.001
0.051,-0.001
0.051,-0.001
0.050,-0.004
0.049,-0.003
0.049,-0.005
0.047,-0.001
0.049,-0.003
0.045,-0.003
0.049,-0.003
0.048,-0.003
0.046,-0.004
0.048,-0.004
0.046,-0.005
0.049,-0.002
0.049,-0.009
0.052,-0.008
0.050,-0.009
0.051,-0.009
0.050,-0.006
0.049,-0.006
0.047,-0.005
0.050,-0.004
0.050,-0.003
0.049,-0.002
0.046,0.000
0.046,-0.001
0.043,0.002
0.047,-0.001
0.045,0.003
0.045,0.001
0.046,0.001
0.046,0.003
0.047,0.005
0.042,0.003
0.049,0.002
0.047,0.003
0.048,0.005
0.045,0.006
0.047,0.007
0.045,0.010
0.046,0.011
0.042,0.014
0.044,0.014
0.044,0.014
0.046,0.012
0.042,0.016
0.043,0.016
0.045,0.018
0.044,0.015
0.042,0.016
0.042,0.015
0.044,0.018
0.043,0.017
0.042,0.023
0.044,0.020
0.040,0.023
0.040,0.022
0.038,0.024
0.038,0.026
0.042,0.026
0.043,0.026
0.042,0.026
0.045,0.027
0.042,0.027
0.046,0.027
0.043,0.029
0.046,0.032
0.041,0.031
0.047,0.031
0.042,0.027
0.044,0.030
0.044,0.033
0.043,0.034
0.045,0.038
0.043,0.037
0.044,0.037
0.043,0.037
0.044,0.037
0.046,0.036
0.044,0.039
0.043,0.036
0.043,0.040
0.040,0.038
0.043,0.039
0.040,0.038
0.043,0.040
0.040,0.043
0.044,0.043
0.042,0.041
0.044,0.042
0.043,0.047
0.043,0.043
0.044,0.046
0.043,0.042
0.043,0.044
0.044,0.044
0.043,0.047
0.043,0.044
0.042,0.047
0.045,0.044
0.044,0.047
0.043,0.044
0.046,0.047
0.042,0.048
0.046,0.045
0.045,0.045
0.044,0.046
0.046,0.043
0.044,0.045
0.043,0.046
0.045,0.043
0.044,0.045
0.045,0.040
0.046,0.044
0.043,0.042
0.043,0.040
0.044,0.038
0.042,0.037
0.045,0.037
0.043,0.037
0.041,0.036
0.044,0.036
0.046,0.032
0.048,0.035
0.047,0.032
0.046,0.029
0.047,0.030
0.046,0.027
0.048,0.031
0.047,0.026
0.045,0.028
0.047,0.026
0.046,0.028
0.047,0.025
0.043,0.027
0.047,0.024
0.047,0.022
0.049,0.020
0.048,0.019
0.050,0.016
0.046,0.016
0.049,0.012
0.046,0.011
0.049,0.010
0.043,0.012
0.047,0.009
0.046,0.012
0.047,0.008
0.049,0.010
0.048,0.006
0.049,0.007
0.050,0.007
0.049,0.007
0.049,0.000
0.049,0.004
0.050,0.001
0.047,0.003
0.049,0.002
0.047,0.001
0.043,0.003
0.046,0.000
0.045,-0.000
0.047,0.001
0.047,-0.001
0.047,-0.000
0.049,-0.002
0.049,-0.002
0.050,-0.003
0.049,-0.004
0.049,-0.004
0.050,-0.005
0.049,-0.003
0.047,-0.005
0.048,-0.003
0.047,-0.006
0.045,-0.003
0.046,-0.002
0.046,-0.006
0.048,-0.006
0.047,-0.003
0.048,-0.008
0.046,-0.007
0.045,-0.009
0.049,-0.007
0.047,-0.008
0.048,-0.005
0.047,-0.002
0.047,-0.004
0.044,-0.002
0.044,-0.003
0.044,0.000
0.043,-0.001
0.044,0.001
0.043,0.002
0.039,0.002
0.042,0.001
0.040,0.001
0.042,0.001
0.042,0.004
0.044,0.006
0.043,0.007
0.045,0.004
0.046,0.006
0.045,0.003
0.046,0.006
0.047,0.005
0.048,0.004
0.046,0.006
0.047,0.007
0.045,0.009
0.047,0.011
0.044,0.013
0.046,0.009
0.045,0.014
0.048,0.013
0.048,0.013
0.048,0.015
0.043,0.016
0.047,0.014
0.042,0.018
0.043,0.016
0.043,0.021
0.039,0.020
0.041,0.021
0.040,0.022
0.040,0.023
0.041,0.025
0.041,0.024
0.043,0.025
0.041,0.024
0.043,0.027
0.044,0.026
0.044,0.028
0.046,0.026
0.043,0.028
0.045,0.026
0.044,0.030
0.044,0.032
0.047,0.034
0.042,0.036
0.042,0.036
0.042,0.039
0.045,0.037
0.044,0.040
0.042,0.036
0.037,0.036
0.039,0.034
0.040,0.034
0.038,0.034
0.040,0.037
0.039,0.035
0.041,0.037
0.039,0.037
0.040,0.041
0.039,0.038
0.043,0.041
0.042,0.039
0.045,0.042
0.045,0.040
0.045,0.039
0.044,0.038
0.045,0.037
0.043,0.038
0.044,0.038
0.041,0.037
0.045,0.037
0.041,0.038
0.042,0.038
0.043,0.043
0.041,0.042
0.043,0.039
0.041,0.040
0.046,0.040
0.045,0.039
0.047,0.038
0.046,0.034
0.048,0.037
0.044,0.034
0.049,0.038
0.044,0.033
0.047,0.033
0.043,0.035
0.047,0.031
0.044,0.035
0.045,0.031
0.044,0.032
0.044,0.032
0.044,0.033
0.044,0.030
0.045,0.034
0.046,0.029
0.048,0.028
0.050,0.026
0.052,0.028
0.051,0.024
0.050,0.024
0.047,0.024
0.051,0.022
0.046,0.025
0.051,0.021
0.047,0.023
0.045,0.018
0.047,0.022
0.048,0.018
0.049,0.018
0.048,0.015
0.049,0.014
0.051,0.013
0.051,0.009
0.051,0.009
0.050,0.009
0.049,0.008
0.048,0.009
0.050,0.008
0.049,0.008
0.050,0.009
0.048,0.007
0.050,0.006
0.050,0.003
0.053,0.005
0.050,0.003
0.050,0.002
0.048,0.002
0.050,0.003
0.049,0.004
0.049,0.003
0.050,0.001
0.049,0.004
0.049,0.004
0.048,0.001
0.044,0.002
0.047,0.000
0.050,0.002
0.047,-0.002
0.051,-0.001
0.047,-0.005
0.051,-0.007
0.049,-0.006
0.049,-0.006
0.047,-0.005
0.047,-0.004
0.047,-0.003
0.046,-0.004
0.047,-0.003
0.050,-0.004
0.046,-0.005
0.049,-0.004
0.045,-0.004
0.045,-0.006
0.045,-0.003
0.046,-0.008
0.046,-0.004
0.043,-0.005
0.049,-0.003
0.045,-0.005
0.045,-0.004
0.046,-0.004
0.043,-0.007
0.040,-0.002
0.046,-0.001
0.043,0.000
0.044,0.001
0.042,0.004
0.044,0.003
0.040,0.006
0.042,0.005
0.038,0.007
0.043,0.005
0.044,0.006
0.043,0.004
0.046,0.004
0.043,0.005
0.047,0.006
0.045,0.004
0.047,0.007
0.045,0.008
0.044,0.009
0.043,0.010
0.045,0.007
0.044,0.013
0.045,0.010
0.044,0.015
0.045,0.015
0.044,0.016
0.044,0.011
0.045,0.015
0.042,0.013
0.042,0.015
0.043,0.015
0.041,0.023
0.041,0.021
0.040,0.023
0.042,0.022
0.040,0.023
0.041,0.024
0.039,0.022
0.042,0.026
0.038,0.026
0.042,0.029
0.041,0.025
0.043,0.029
0.042,0.029
0.043,0.031
0.041,0.031
0.042,0.033
0.041,0.032
0.043,0.034
0.042,0.030
0.044,0.035
0.044,0.033
0.042,0.032
0.042,0.036
0.043,0.033
0.042,0.037
0.040,0.036
0.043,0.036
0.038,0.036
0.037,0.037
0.039,0.038
0.037,0.040
0.038,0.039
0.042,0.041
0.040,0.040
0.042,0.039
0.040,0.038
0.045,0.041
0.043,0.038
0.043,0.039
0.046,0.038
0.045,0.036
0.044,0.036
0.044,0.037
0.042,0.042
0.043,0.041
0.040,0.044
0.042,0.041
0.043,0.041
0.044,0.042
0.043,0.045
0.045,0.043
0.045,0.041
0.045,0.042
0.046,0.041
0.045,0.037
0.046,0.039
0.046,0.037
0.048,0.039
0.047,0.038
0.045,0.036
0.047,0.038
0.045,0.036
0.045,0.038
0.044,0.035
0.044,0.037
0.045,0.034
0.043,0.033
0.046,0.031
0.046,0.030
0.046,0.030
0.049,0.030
0.043,0.026
0.046,0.027
0.048,0.028
0.049,0.026
0.049,0.024
0.049,0.021
0.049,0.021
0.047,0.021
0.049,0.021
0.047,0.021
0.049,0.020
0.047,0.022
0.047,0.017
0.052,0.015
0.048,0.015
0.051,0.014
0.045,0.010
0.049,0.015
0.048,0.012
0.048,0.013
0.047,0.009
0.051,0.012
0.047,0.007
0.049,0.008
0.045,0.008
0.050,0.008
0.049,0.006
0.051,0.005
0.049,0.001
0.048,0.000
0.048,0.000
0.048,-0.001
0.048,0.002
0.047,0.001
0.045,0.005
0.045,0.002
0.044,0.004
0.044,0.003
0.046,0.003
0.043,0.002
0.048,0.001
0.047,-0.002
0.047,-0.002
0.049,-0.006
0.050,-0.002
0.048,-0.006
0.048,-0.006
0.050,-0.007
0.048,-0.005
0.049,-0.002
0.045,-0.003
0.047,-0.003
0.048,-0.001
0.047,-0.001
0.050,-0.005
0.045,-0.004
0.047,-0.004
0.045,-0.004
0.047,-0.006
0.046,-0.003
0.047,-0.005
0.049,-0.002
0.048,-0.002
0.046,-0.003
0.047,-0.002
0.048,0.000
0.048,0.001
0.048,0.001
0.047,0.003
0.049,0.001
0.046,0.002
0.048,0.002
0.046,0.005
0.048,0.002
0.047,0.004
0.046,0.002
0.047,0.002
0.047,0.007
0.049,0.008
0.047,0.008
0.048,0.010
0.046,0.007
0.045,0.010
0.047,0.008
0.046,0.007
0.047,0.012
0.047,0.011
0.044,0.012
0.047,0.011
0.047,0.011
0.047,0.011
0.046,0.012
0.047,0.015
0.044,0.015
0.049,0.017
0.043,0.017
0.044,0.019
0.045,0.017
0.045,0.023
0.043,0.024
0.043,0.025
0.044,0.027
0.046,0.029
0.045,0.028
0.043,0.027
0.042,0.029
0.040,0.030
0.040,0.031
0.042,0.036
0.042,0.034
0.043,0.034
0.039,0.034
0.043,0.032
0.043,0.034
0.045,0.035
0.044,0.034
0.045,0.035
0.043,0.032
0.045,0.036
0.043,0.037
0.043,0.033
0.040,0.039
0.043,0.035
0.041,0.038
0.043,0.039
0.041,0.044
0.040,0.039
0.041,0.041
0.043,0.040
0.042,0.040
0.042,0.039
0.043,0.039
0.042,0.038
0.046,0.038
0.042,0.039
0.046,0.040
0.042,0.040
0.044,0.040
0.046,0.041
0.041,0.040
0.045,0.044
0.043,0.043
0.043,0.047
0.042,0.044
0.042,0.044
0.042,0.040
0.047,0.043
0.044,0.042
0.051,0.042
0.044,0.040
0.047,0.039
0.045,0.037
0.042,0.038
0.047,0.037
0.047,0.034
0.044,0.035
0.045,0.033
0.042,0.036
0.043,0.032
0.043,0.033
0.044,0.033
0.045,0.034
0.043,0.033
0.043,0.032
0.043,0.032
0.045,0.032
0.044,0.028
0.047,0.028
0.048,0.027
0.046,0.026
0.049,0.025
0.048,0.023
0.048,0.025
0.048,0.022
0.047,0.023
0.046,0.023
0.047,0.018
0.048,0.018
0.048,0.016
0.049,0.018
0.045,0.015
0.050,0.015
0.044,0.014
0.049,0.012
0.045,0.011
0.047,0.013
0.045,0.011
0.047,0.011
0.041,0.009
0.047,0.010
0.044,0.006
0.045,0.007
0.046,0.005
0.046,0.006
0.047,0.005
0.045,0.007
0.045,-0.001
0.047,0.002
0.048,0.001
0.047,-0.001
0.047,0.004
0.046,0.002
0.046,0.004
0.044,0.000
0.045,0.001
0.046,0.003
0.046,0.001
0.051,-0.001
0.049,-0.001
0.049,-0.003
0.046,-0.005
0.044,-0.006
0.045,-0.004
0.045,-0.005
0.046,-0.004
0.046,-0.005
0.047,-0.003
0.046,-0.003
0.046,-0.003
0.044,-0.003
0.049,-0.003
0.046,-0.003
0.048,-0.006
0.045,-0.004
0.049,-0.005
0.046,-0.003
0.046,-0.003
0.047,-0.003
0.046,-0.002
0.043,-0.003
0.044,-0.005
0.044,0.000
0.043,-0.001
0.045,0.002
0.043,0.000
0.046,0.001
0.045,0.001
0.044,0.003
0.044,0.004
0.046,0.002
0.043,0.004
0.044,0.005
0.041,0.008
0.043,0.007
0.043,0.009
0.046,0.007
0.044,0.009
0.044,0.007
0.044,0.008
0.041,0.008
0.044,0.009
0.044,0.010
0.044,0.011
0.042,0.012
0.043,0.013
0.041,0.012
0.046,0.011
0.043,0.011
0.043,0.011
0.039,0.013
0.041,0.015
0.040,0.017
0.040,0.019
0.039,0.019
0.039,0.022
0.039,0.022
0.039,0.024
0.038,0.026
0.040,0.029
0.040,0.028
0.041,0.029
0.044,0.027
0.040,0.030
0.042,0.030
0.040,0.030
0.041,0.030
0.042,0.034
0.041,0.033
0.042,0.036
0.043,0.035
0.039,0.035
0.038,0.035
0.041,0.034
0.039,0.034
0.044,0.034
0.040,0.033
0.045,0.035
0.042,0.033
0.041,0.034
0.041,0.037
0.038,0.036
0.040,0.037
0.039,0.039
0.037,0.043
0.043,0.042
0.042,0.047
0.043,0.040
0.041,0.043
0.043,0.041
0.042,0.041
0.041,0.039
0.043,0.038
0.042,0.040
0.042,0.039
0.041,0.039
0.043,0.039
0.043,0.040
0.043,0.040
0.045,0.041
0.041,0.041
0.042,0.042
0.042,0.041
0.041,0.043
0.042,0.041
0.043,0.043
0.043,0.038
0.043,0.041
0.042,0.040
0.044,0.039
0.044,0.039
0.044,0.039
0.045,0.036
0.043,0.038
0.044,0.034
0.044,0.036
0.044,0.036
0.046,0.034
0.044,0.035
0.045,0.033
0.046,0.034
0.047,0.028
0.047,0.027
0.049,0.026
0.045,0.028
0.044,0.028
0.043,0.024
0.042,0.024
0.045,0.023
0.045,0.023
0.044,0.022
0.043,0.023
0.043,0.026
0.042,0.023
0.046,0.023
0.046,0.021
0.043,0.018
0.049,0.016
0.045,0.014
0.049,0.012
0.047,0.012
0.048,0.010
0.046,0.010
0.049,0.010
0.049,0.010
0.047,0.010
0.046,0.011
0.047,0.010
0.048,0.009
0.048,0.007
0.048,0.008
0.045,0.003
0.047,0.003
0.045,0.002
0.048,0.001
0.046,-0.001
0.046,-0.002
0.048,-0.003
0.047,-0.002
0.047,-0.002
0.046,0.000
0.048,-0.001
0.049,-0.004
0.047,0.001
0.051,-0.004
0.049,-0.001
0.050,-0.001
0.048,-0.002
0.049,-0.005
0.047,-0.007
0.049,-0.006
0.050,-0.006
0.051,-0.005
0.050,-0.006
0.051,-0.005
0.049,-0.006
0.048,-0.006
0.050,-0.006
0.049,-0.009
0.052,-0.007
0.049,-0.005
0.051,-0.007
0.051,-0.003
0.049,-0.004
0.048,-0.002
0.047,-0.004
0.044,-0.003
0.045,-0.005
0.043,-0.002
0.044,-0.000
0.046,0.001
0.045,-0.002
0.047,0.000
0.044,-0.000
0.046,-0.000
0.043,0.003
0.044,0.002
0.048,0.005
0.044,0.003
0.048,0.005
0.047,0.005
0.044,0.008
0.049,0.008
0.046,0.010
0.044,0.010
0.042,0.012
0.047,0.012
0.045,0.011
0.045,0.014
0.046,0.013
0.044,0.011
0.045,0.017
0.043,0.011
0.045,0.013
0.044,0.013
0.046,0.017
0.044,0.016
0.045,0.020
0.044,0.019
0.043,0.020
0.040,0.021
0.040,0.023
0.044,0.022
0.041,0.028
0.044,0.028
0.046,0.029
0.044,0.030
0.042,0.029
0.046,0.028
0.044,0.027
0.048,0.029
0.044,0.031
0.044,0.032
0.045,0.034
0.046,0.033
0.045,0.036
0.047,0.036
0.042,0.036
0.045,0.033
0.043,0.037
0.043,0.037
0.043,0.038
0.043,0.037
0.044,0.038
0.043,0.037
0.045,0.038
0.044,0.036
0.045,0.038
0.044,0.037
0.044,0.038
0.042,0.043
0.044,0.042
0.042,0.043
0.043,0.044
0.042,0.047
0.043,0.043
0.041,0.045
0.045,0.042
0.043,0.042
0.045,0.041
0.043,0.042
0.044,0.039
0.046,0.042
0.042,0.040
0.044,0.043
0.042,0.042
0.045,0.043
0.046,0.044
0.047,0.045
0.047,0.043
0.045,0.043
0.043,0.043
0.044,0.041
0.044,0.042
0.047,0.040
0.045,0.042
0.047,0.038
0.043,0.040
0.047,0.037
0.043,0.039
0.042,0.035
0.045,0.035
0.042,0.034
0.045,0.037
0.045,0.034
0.048,0.032
0.046,0.030
0.048,0.030
0.045,0.033
0.048,0.029
0.047,0.031
0.046,0.027
0.047,0.030
0.048,0.027
0.045,0.027
0.046,0.025
0.046,0.024
0.047,0.024
0.050,0.024
0.047,0.022
0.047,0.023
0.046,0.020
0.049,0.021
0.044,0.019
0.048,0.018
0.049,0.015
0.048,0.012
0.048,0.011
0.046,0.013
0.048,0.013
0.048,0.013
0.052,0.011
0.048,0.011
0.052,0.010
0.049,0.011
0.049,0.010
0.048,0.007
0.051,0.005
0.047,0.004
0.052,0.006
0.048,0.003
0.046,0.002
0.048,0.003
0.045,0.001
0.050,0.001
0.048,0.001
0.052,0.001
0.051,0.000
0.052,0.001
0.052,-0.000
0.053,-0.002
0.050,0.000
0.051,-0.003
0.050,-0.002
0.049,-0.008
0.049,-0.006
0.047,-0.007
0.045,-0.003
0.045,-0.007
0.045,-0.005
0.044,-0.007
0.048,-0.004
0.048,-0.005
0.050,-0.004
0.047,-0.009
0.049,-0.005
0.047,-0.006
0.049,-0.007
0.047,-0.005
0.047,-0.007
0.045,-0.001
0.045,-0.001
0.047,0.001
0.045,-0.001
0.045,-0.000
0.046,-0.001
0.043,0.001
0.043,0.002
0.046,0.003
0.045,0.001
0.049,0.003
0.048,-0.001
0.049,-0.001
0.049,0.002
0.047,0.002
0.047,0.004
0.047,0.004
0.047,0.006
0.045,0.008
0.045,0.009
0.047,0.008
0.045,0.013
0.048,0.011
0.046,0.015
0.046,0.011
0.044,0.013
0.043,0.015
0.045,0.013
0.044,0.013
0.045,0.016
0.044,0.014
0.042,0.015
0.045,0.015
0.042,0.018
0.044,0.019
0.042,0.020
0.043,0.023
0.041,0.025
0.047,0.025
0.044,0.027
0.046,0.026
0.043,0.030
0.046,0.026
0.046,0.027
0.044,0.026
0.047,0.029
0.047,0.031
0.047,0.033
0.044,0.030
0.045,0.032
0.046,0.032
0.046,0.036
0.048,0.033
0.047,0.038
0.044,0.037
0.045,0.041
0.042,0.040
0.042,0.039
0.043,0.040
0.044,0.037
0.047,0.038
0.046,0.039
0.046,0.038
0.044,0.038
0.042,0.038
0.045,0.038
0.044,0.040
0.044,0.040
0.044,0.040
0.044,0.043
0.046,0.044
0.046,0.040
0.047,0.043
0.046,0.042
0.044,0.043
0.046,0.041
0.042,0.039
0.043,0.040
0.044,0.042
0.048,0.042
0.046,0.044
0.047,0.043
0.045,0.045
0.044,0.044
0.045,0.043
0.045,0.041
0.044,0.041
0.046,0.043
0.045,0.042
0.047,0.042
0.046,0.041
0.045,0.043
0.046,0.043
0.045,0.045
0.045,0.040
0.047,0.041
0.047,0.039
0.046,0.038
0.046,0.037
0.048,0.037
0.050,0.037
0.051,0.034
0.049,0.033
0.051,0.031
0.051,0.032
0.050,0.032
0.049,0.031
0.050,0.030
0.046,0.030
0.050,0.030
0.049,0.027
0.051,0.028
0.047,0.028
0.046,0.027
0.045,0.030
0.048,0.027
0.048,0.026
0.048,0.026
0.048,0.026
0.051,0.023
0.049,0.023
0.050,0.019
0.050,0.017
0.048,0.011
0.049,0.012
0.048,0.013
0.048,0.013
0.047,0.012
0.049,0.015
0.048,0.010
0.049,0.011
0.049,0.005
0.049,0.006
0.050,0.004
0.050,0.006
0.049,0.005
0.052,0.006
0.049,0.002
0.052,0.005
0.048,0.001
0.050,0.002
0.049,0.001
0.050,0.001
0.049,0.003
0.049,0.001
0.048,0.002
0.048,-0.001
0.047,-0.001
0.047,-0.001
0.047,-0.001
0.046,-0.002
0.045,-0.003
0.045,-0.005
0.045,-0.001
0.043,-0.004
0.046,-0.003
0.045,-0.004
0.045,-0.003
0.044,-0.002
0.046,-0.004
0.046,-0.003
0.046,-0.002
0.048,-0.002
0.047,-0.007
0.045,-0.003
0.045,-0.004
0.048,0.000
0.048,-0.002
0.045,0.002
0.043,0.000
0.042,0.002
0.044,0.000
0.043,0.003
0.044,-0.000
0.045,0.003
0.044,0.003
0.045,0.005
0.045,0.003
0.046,0.002
0.045,0.005
0.047,0.005
0.045,0.008
0.043,0.005
0.046,0.012
0.043,0.012
0.043,0.011
0.045,0.011
0.042,0.013
0.043,0.011
0.040,0.014
0.042,0.011
0.044,0.012
0.044,0.011
0.046,0.013
0.045,0.014
0.045,0.013
0.044,0.013
0.042,0.016
0.043,0.015
0.045,0.017
0.042,0.016
0.044,0.021
0.039,0.021
0.042,0.024
0.038,0.024
0.038,0.028
0.041,0.028
0.040,0.031
0.040,0.031
0.040,0.035
0.041,0.031
0.041,0.033
0.040,0.030
0.040,0.031
0.042,0.029
0.042,0.029
0.043,0.030
0.040,0.033
0.041,0.031
0.038,0.035
0.041,0.036
0.042,0.038
0.044,0.038
0.042,0.039
0.042,0.040
0.043,0.040
0.042,0.038
0.042,0.037
0.042,0.036
0.042,0.037
0.042,0.036
0.044,0.039
0.039,0.039
0.039,0.041
0.040,0.043
0.044,0.043
0.041,0.045
0.047,0.042
0.047,0.045
0.045,0.043
0.041,0.042
0.043,0.041
0.042,0.039
0.041,0.041
0.045,0.040
0.045,0.038
0.047,0.044
0.043,0.038
0.045,0.042
0.044,0.040
0.046,0.041
0.044,0.043
0.045,0.042
0.044,0.040
0.043,0.040
0.044,0.041
0.048,0.042
0.043,0.041
0.043,0.041
0.041,0.042
0.044,0.039
0.041,0.041
0.046,0.038
0.046,0.040
0.043,0.035
0.046,0.035
0.044,0.032
0.048,0.036
0.044,0.034
0.046,0.032
0.044,0.032
0.047,0.032
0.044,0.033
0.047,0.032
0.044,0.028
0.048,0.026
0.043,0.028
0.044,0.025
0.046,0.025
0.044,0.023
0.046,0.026
0.043,0.023
0.047,0.024
0.046,0.023
0.051,0.023
0.047,0.021
0.045,0.022
0.044,0.019
0.046,0.015
0.043,0.014
0.045,0.013
0.046,0.013
0.043,0.011
0.045,0.009
0.040,0.010
0.043,0.010
0.042,0.011
0.047,0.010
0.045,0.007
0.048,0.004
0.047,0.007
0.047,0.005
0.044,0.004
0.048,0.005
0.046,0.002
0.047,0.001
0.046,0.002
0.047,-0.002
0.046,-0.001
0.045,-0.003
0.045,-0.001
0.045,-0.003
0.046,-0.001
0.045,-0.001
0.047,-0.003
0.046,-0.001
0.048,-0.005
0.046,-0.003
0.045,-0.005
0.044,-0.004
0.045,-0.005
0.041,-0.004
0.043,-0.007
0.045,-0.004
0.044,-0.004
0.044,-0.003
0.043,-0.006
0.046,-0.003
0.047,-0.006
0.050,-0.007
0.047,-0.003
0.049,-0.007
0.046,-0.003
0.046,-0.003
0.046,-0.001
0.048,-0.001
0.042,0.000
0.043,-0.000
0.041,0.000
0.041,-0.004
0.043,0.000
0.041,-0.002
0.046,0.001
0.042,0.000
0.046,0.003
0.045,0.004
0.047,0.006
0.043,0.004
0.042,0.004
0.043,0.005
0.040,0.009
0.040,0.010
0.045,0.009
0.042,0.011
0.045,0.008
0.043,0.014
0.043,0.009
0.041,0.013
0.043,0.013
0.042,0.014
0.043,0.011
0.045,0.015
0.042,0.015
0.044,0.017
0.041,0.017
0.043,0.017
0.043,0.018
0.041,0.021
0.043,0.018
0.045,0.022
0.042,0.021
0.041,0.025
0.040,0.022
0.040,0.027
0.041,0.026
0.041,0.030
0.041,0.033
0.042,0.032
0.043,0.031
0.044,0.031
0.046,0.033
0.041,0.031
0.044,0.032
0.043,0.032
0.043,0.035
0.041,0.038
0.040,0.039
0.041,0.041
0.046,0.037
0.042,0.039
0.045,0.037
0.042,0.041
0.042,0.037
0.044,0.042
0.042,0.037
0.044,0.039
0.041,0.039
0.042,0.040
0.040,0.039
0.045,0.041
0.043,0.041
0.044,0.043
0.044,0.044
0.046,0.044
0.044,0.044
0.045,0.044
0.043,0.044
0.044,0.046
0.041,0.043
0.044,0.043
0.040,0.045
0.045,0.043
0.041,0.045
0.043,0.044
0.044,0.047
0.041,0.045
0.046,0.045
0.044,0.045
0.047,0.043
0.046,0.041
0.049,0.042
0.046,0.040
0.045,0.043
0.045,0.043
0.049,0.043
0.045,0.043
0.049,0.041
0.048,0.044
0.049,0.042
0.045,0.039
0.046,0.036
0.046,0.037
0.045,0.036
0.049,0.037
0.049,0.034
0.052,0.033
0.049,0.031
0.050,0.032
0.050,0.030
0.049,0.029
0.048,0.030
0.048,0.029
0.047,0.030
0.046,0.027
0.046,0.027
0.051,0.024
0.048,0.025
0.050,0.023
0.046,0.026
0.049,0.025
0.049,0.025
0.050,0.022
0.051,0.023
0.050,0.019
0.050,0.016
0.049,0.013
0.052,0.013
0.052,0.010
0.051,0.013
0.050,0.010
0.049,0.010
0.049,0.008
0.050,0.007
0.049,0.008
0.049,0.008
0.050,0.007
0.049,0.007
0.052,0.006
0.052,0.007
0.051,0.004
0.050,0.004
0.049,0.002
0.049,0.003
0.051,0.001
0.050,0.002
0.051,-0.003
0.052,-0.001
0.050,-0.002
0.051,-0.002
0.050,-0.001
0.052,-0.004
0.053,-0.002
0.053,-0.003
0.052,-0.002
0.052,-0.004
0.050,-0.005
0.049,-0.006
0.048,-0.007
0.049,-0.004
0.048,-0.005
0.048,-0.007
0.049,-0.005
0.050,-0.007
0.051,-0.004
0.049,-0.009
0.050,-0.008
0.046,-0.004
0.049,-0.007
0.049,-0.003
0.048,-0.007
0.045,-0.000
0.046,-0.003
0.043,0.000
0.045,-0.000
0.043,0.001
0.047,-0.001
0.044,-0.001
0.049,-0.002
0.047,0.003
0.046,-0.001
0.047,0.004
0.044,0.002
0.047,0.006
0.045,0.006
0.048,0.004
0.045,0.003
0.045,0.006
0.043,0.004
0.044,0.006
0.045,0.008
0.049,0.006
0.045,0.010
0.048,0.009
0.045,0.014
0.046,0.010
0.045,0.013
0.045,0.013
0.045,0.013
0.043,0.013
0.046,0.013
0.043,0.014
0.044,0.016
0.044,0.016
0.039,0.020
0.041,0.016
0.041,0.022
0.042,0.023
0.041,0.026
0.043,0.024
0.042,0.024
0.045,0.026
0.045,0.024
0.047,0.025
0.044,0.029
0.047,0.028
0.045,0.026
0.046,0.024
0.045,0.026
0.046,0.029
0.044,0.030
0.043,0.032
0.043,0.035
0.043,0.035
0.045,0.036
0.047,0.032
0.042,0.036
0.043,0.036
0.040,0.039
0.043,0.037
0.042,0.038
0.041,0.037
0.042,0.036
0.041,0.035
0.044,0.036
0.041,0.038
0.044,0.040
0.043,0.040
0.045,0.040
0.043,0.041
0.047,0.039
0.045,0.040
0.049,0.039
0.047,0.042
0.047,0.040
0.047,0.043
0.044,0.041
0.045,0.044
0.046,0.043
0.043,0.043
0.046,0.043
0.045,0.047
0.044,0.045
0.044,0.046
0.044,0.045
0.045,0.047
0.045,0.043
0.047,0.045
0.045,0.040
0.048,0.043
0.044,0.042
0.049,0.041
0.049,0.042
0.049,0.037
0.048,0.041
0.046,0.036
0.045,0.040
0.045,0.041
0.044,0.042
0.045,0.040
0.046,0.040
0.047,0.036
0.049,0.036
0.049,0.030
0.052,0.033
0.048,0.031
0.052,0.030
0.049,0.031
0.052,0.030
0.051,0.029
0.052,0.026
0.050,0.029
0.047,0.027
0.047,0.028
0.050,0.026
0.049,0.030
0.049,0.024
0.050,0.026
0.052,0.023
0.053,0.023
0.052,0.021
0.052,0.018
0.051,0.017
0.049,0.018
0.051,0.015
0.051,0.016
0.050,0.012
0.051,0.013
0.052,0.009
0.050,0.010
0.052,0.010
0.052,0.009
0.051,0.007
0.054,0.008
0.052,0.007
0.050,0.006
0.049,0.004
0.047,0.006
0.050,0.003
0.046,0.005
0.050,0.004
0.048,0.004
0.048,0.002
0.051,0.004
0.046,0.001
0.050,0.002
0.047,0.003
0.050,0.002
0.050,0.000
0.050,0.001
0.050,-0.000
0.050,-0.002
0.049,-0.003
0.049,-0.004
0.046,-0.001
0.050,-0.003
0.047,-0.001
0.047,-0.003
0.049,-0.002
0.048,-0.004
0.050,-0.002
0.048,-0.004
0.050,-0.003
0.048,-0.002
0.050,-0.006
0.046,-0.003
0.049,-0.001
0.049,0.003
0.049,-0.003
0.047,-0.001
0.049,-0.000
0.041,0.001
0.047,-0.002
0.044,0.001
0.045,0.002
0.045,0.005
0.047,0.001
0.048,0.004
0.042,0.003
0.048,0.002
0.044,0.002
0.048,0.005
0.046,0.004
0.047,0.008
0.046,0.010
0.048,0.009
0.044,0.011
0.047,0.011
0.045,0.013
0.049,0.011
0.046,0.013
0.046,0.010
0.042,0.013
0.042,0.013
0.043,0.013
0.044,0.014
0.046,0.015
0.045,0.014
0.046,0.015
0.044,0.017
0.044,0.018
0.041,0.016
0.041,0.019
0.042,0.016
0.040,0.021
0.042,0.025
0.042,0.023
0.043,0.026
0.040,0.028
0.043,0.026
0.043,0.032
0.044,0.032
0.040,0.032
0.045,0.028
0.042,0.032
0.042,0.030
0.043,0.035
0.044,0.033
0.041,0.038
0.043,0.038
0.042,0.040
0.043,0.038
0.040,0.040
0.042,0.037
0.042,0.039
0.043,0.038
0.043,0.040
0.043,0.038
0.042,0.037
0.040,0.038
0.043,0.039
0.041,0.037
0.041,0.039
0.040,0.039
0.044,0.041
0.043,0.042
0.045,0.041
0.044,0.045
0.043,0.043
0.041,0.044
0.045,0.042
0.041,0.045
0.043,0.043
0.040,0.045
0.041,0.042
0.043,0.042
0.040,0.040
0.042,0.042
0.042,0.043
0.042,0.045
0.043,0.045
0.043,0.047
0.043,0.044
0.045,0.044
0.047,0.041
0.045,0.042
0.044,0.043
0.046,0.042
0.043,0.042
0.047,0.039
0.042,0.039
0.045,0.035
0.043,0.038
0.043,0.035
0.043,0.038
0.046,0.036
0.047,0.036
0.044,0.034
0.048,0.034
0.047,0.032
0.048,0.035
0.044,0.029
0.046,0.031
0.047,0.030
0.049,0.028
0.044,0.030
0.043,0.026
0.042,0.031
0.043,0.026
0.041,0.027
0.043,0.024
0.044,0.027
0.044,0.026
0.047,0.023
0.045,0.022
0.047,0.022
0.048,0.019
0.049,0.020
0.050,0.016
0.049,0.018
0.051,0.013
0.048,0.013
0.046,0.009
0.049,0.009
0.047,0.009
0.050,0.010
0.051,0.008
0.046,0.010
0.049,0.006
0.047,0.006
0.049,0.003
0.047,0.004
0.049,0.001
0.047,0.002
0.048,0.001
0.046,0.001
0.046,0.001
0.044,0.001
0.048,0.000
0.044,0.000
0.045,0.000
0.047,0.003
0.045,-0.000
0.050,-0.000
0.049,-0.003
0.052,-0.004
0.049,-0.005
0.051,-0.005
0.049,-0.004
0.050,-0.005
0.046,-0.004
0.049,-0.003
0.046,-0.003
0.046,-0.002
0.045,-0.003
0.046,-0.005
0.047,-0.003
0.048,-0.006
0.046,-0.006
0.047,-0.007
0.049,-0.005
0.047,-0.006
0.049,-0.006
0.047,-0.007
0.049,-0.006
0.049,-0.003
0.046,-0.005
0.045,-0.003
0.047,-0.002
0.041,-0.003
0.047,-0.004
0.045,-0.003
0.048,-0.002
0.048,0.001
0.046,0.002
0.046,0.004
0.045,0.002
0.046,0.003
0.043,0.000
0.048,0.002
0.045,0.003
0.047,0.004
0.045,0.002
0.047,0.004
0.045,0.004
0.045,0.004
0.043,0.008
0.046,0.009
0.042,0.012
0.045,0.010
0.043,0.011
0.042,0.011
0.043,0.013
0.043,0.011
0.045,0.013
0.044,0.011
0.042,0.014
0.042,0.015
0.040,0.019
0.046,0.014
0.044,0.020
0.043,0.019
0.047,0.021
0.042,0.020
0.044,0.023
0.043,0.024
0.043,0.026
0.045,0.024
0.044,0.026
0.048,0.027
0.044,0.025
0.043,0.030
0.040,0.027
0.044,0.032
0.042,0.030
0.044,0.030
0.041,0.031
0.045,0.033
0.041,0.033
0.044,0.033
0.042,0.035
0.043,0.033
0.044,0.037
0.042,0.035
0.045,0.037
0.044,0.034
0.045,0.036
0.042,0.036
0.042,0.040
0.040,0.037
0.045,0.042
0.043,0.038
0.044,0.042
0.042,0.040
0.047,0.040
0.045,0.038
0.046,0.038
0.044,0.041
0.044,0.038
0.045,0.038
0.047,0.038
0.045,0.040
0.045,0.039
0.042,0.042
0.042,0.040
0.041,0.044
0.041,0.040
0.043,0.043
0.039,0.045
0.041,0.043
0.042,0.043
0.045,0.043
0.044,0.042
0.043,0.042
0.045,0.039
0.044,0.040
0.046,0.038
0.044,0.039
0.046,0.037
0.044,0.039
0.044,0.039
0.045,0.035
0.047,0.037
0.045,0.034
0.045,0.034
0.045,0.035
0.043,0.033
0.046,0.034
0.042,0.032
0.043,0.030
0.044,0.028
0.044,0.028
0.047,0.028
0.047,0.024
0.049,0.023
0.044,0.022
0.046,0.022
0.046,0.022
0.049,0.021
0.046,0.023
0.046,0.022
0.048,0.018
0.049,0.018
0.048,0.013
0.049,0.016
0.046,0.010
0.049,0.013
0.046,0.009
0.051,0.011
0.050,0.009
0.050,0.010
0.047,0.004
0.050,0.010
0.047,0.008
0.052,0.009
0.049,0.007
0.052,0.005
0.051,0.003
0.050,0.001
0.049,-0.001
0.048,0.000
0.048,-0.002
0.048,-0.002
0.046,0.000
0.048,-0.003
0.048,0.002
0.048,0.000
0.043,0.005
0.044,0.001
0.044,0.003
0.045,0.000
0.047,0.002
0.045,-0.002
0.052,-0.003
0.049,-0.006
0.050,-0.005
0.050,-0.005
0.051,-0.006
0.049,-0.006
0.049,-0.007
0.050,-0.008
0.050,-0.005
0.050,0.000
0.050,-0.005
0.048,-0.000
0.049,-0.005
0.049,-0.000
0.046,-0.006
0.047,-0.004
0.045,-0.004
0.050,-0.002
0.046,-0.002
0.046,-0.001
0.044,-0.002
0.043,-0.003
0.043,-0.002
0.045,-0.002
0.046,0.000
0.048,0.000
0.046,0.001
0.046,-0.002
0.047,0.002
0.046,0.000
0.046,0.002
0.044,0.003
0.041,0.005
0.043,0.006
0.044,0.007
0.045,0.006
0.047,0.006
0.046,0.003
0.046,0.004
0.048,0.005
0.050,0.007
0.046,0.006
0.046,0.010
0.046,0.012
0.047,0.012
0.047,0.011
0.045,0.013
0.045,0.010
0.044,0.012
0.042,0.011
0.043,0.014
0.041,0.011
0.045,0.016
0.042,0.016
0.046,0.019
0.042,0.022
0.042,0.023
0.041,0.025
0.043,0.027
0.041,0.024
0.044,0.025
0.040,0.024
0.043,0.026
0.043,0.030
0.043,0.029
0.041,0.029
0.041,0.030
0.044,0.031
0.042,0.032
0.041,0.033
0.045,0.036
0.043,0.035
0.046,0.035
0.044,0.036
0.046,0.033
0.044,0.032
0.044,0.032
0.044,0.031
0.045,0.033
0.043,0.035
0.042,0.036
0.041,0.040
0.043,0.036
0.040,0.043
0.042,0.042
0.041,0.045
0.039,0.045
0.041,0.045
0.043,0.044
0.042,0.044
0.041,0.042
0.044,0.040
0.045,0.041
0.046,0.041
0.044,0.039
0.045,0.039
0.046,0.038
0.045,0.040
0.043,0.043
0.045,0.040
0.041,0.043
0.043,0.040
0.041,0.044
0.045,0.043
0.042,0.043
0.045,0.042
0.040,0.042
0.042,0.040
0.044,0.039
0.045,0.040
0.042,0.042
0.045,0.038
0.045,0.038
0.044,0.037
0.048,0.035
0.045,0.037
0.047,0.034
0.045,0.035
0.046,0.032
0.043,0.032
0.045,0.030
0.041,0.035
0.044,0.033
0.043,0.032
0.045,0.033
0.047,0.029
0.048,0.025
0.046,0.026
0.048,0.024
0.051,0.026
0.049,0.022
0.049,0.024
0.047,0.023
0.048,0.023
0.046,0.021
0.052,0.022
0.048,0.017
0.051,0.018
0.047,0.016
0.048,0.016
0.045,0.015
0.046,0.014
0.043,0.011
0.045,0.013
0.045,0.010
0.044,0.012
0.043,0.011
0.047,0.012
0.044,0.012
0.047,0.010
0.047,0.009
0.048,0.008
0.048,0.007
0.050,0.003
0.051,0.002
0.049,0.001
0.049,0.002
0.047,0.002
0.047,0.003
0.048,0.001
0.051,0.005
0.048,0.003
0.047,0.002
0.047,0.002
0.044,0.003
0.049,0.002
0.047,-0.002
0.048,-0.004
0.048,-0.002
0.048,-0.006
0.049,-0.003
0.047,-0.003
0.048,-0.007
0.048,-0.005
0.047,-0.007
0.050,-0.005
0.046,-0.007
0.049,-0.003
0.046,-0.004
0.047,-0.001
0.048,-0.002
0.048,-0.002
0.047,-0.004
0.045,-0.004
0.049,-0.003
0.045,-0.003
0.046,-0.006
0.049,-0.002
0.047,-0.005
0.046,-0.006
0.048,-0.003
0.048,-0.001
0.045,-0.002
0.045,-0.000
0.045,-0.001
0.042,-0.001
0.044,0.002
0.041,0.003
0.042,0.003
0.043,0.006
0.042,0.006
0.045,0.006
0.041,0.010
0.043,0.007
0.041,0.007
0.041,0.006
0.042,0.007
0.041,0.007
0.042,0.010
0.043,0.008
0.044,0.010
0.042,0.009
0.044,0.012
0.041,0.009
0.046,0.014
0.043,0.009
0.046,0.013
0.044,0.012
0.045,0.015
0.039,0.013
0.041,0.018
0.039,0.018
0.042,0.023
0.039,0.023
0.043,0.025
0.037,0.023
0.040,0.023
0.042,0.025
0.041,0.025
0.041,0.024
0.041,0.027
0.045,0.028
0.037,0.029
0.041,0.030
0.038,0.030
0.040,0.030
0.038,0.030
0.039,0.033
0.040,0.037
0.041,0.035
0.043,0.036
0.043,0.032
0.041,0.036
0.043,0.034
0.043,0.036
0.042,0.031
0.045,0.031
0.041,0.033
0.045,0.035
0.040,0.036
0.042,0.037
0.040,0.037
0.040,0.037
0.036,0.040
0.041,0.043
0.037,0.042
0.041,0.040
0.039,0.043
0.042,0.039
0.039,0.042
0.039,0.040
0.040,0.041
0.039,0.039
0.044,0.038
0.038,0.039
0.042,0.042
0.040,0.041
0.042,0.041
0.040,0.041
0.039,0.044
0.037,0.044
0.041,0.041
0.038,0.038
0.042,0.040
0.040,0.040
0.043,0.037
0.037,0.037
0.044,0.038
0.043,0.038
0.044,0.036
0.043,0.038
0.042,0.035
0.044,0.035
0.040,0.033
0.045,0.035
0.041,0.031
0.042,0.030
0.042,0.029
0.043,0.031
0.046,0.031
0.044,0.031
0.042,0.031
0.047,0.031
0.043,0.030
0.047,0.027
0.044,0.029
0.045,0.027
0.043,0.029
0.044,0.024
0.042,0.022
0.042,0.021
0.044,0.022
0.045,0.020
0.042,0.022
0.045,0.019
0.047,0.018
0.048,0.015
0.046,0.014
0.044,0.015
0.042,0.012
0.044,0.010
0.042,0.012
0.045,0.010
0.042,0.010
0.045,0.006
0.044,0.009
0.049,0.006
0.049,0.007
0.048,0.004
0.047,0.006
0.045,0.004
0.044,0.006
0.044,0.006
0.042,0.006
0.045,0.001
0.046,0.003
0.045,0.001
0.046,0.000
0.044,-0.000
0.048,0.001
0.045,0.001
0.047,0.001
0.047,0.001
0.050,-0.002
0.047,-0.002
0.050,-0.002
0.050,-0.001
0.050,-0.003
0.044,-0.003
0.044,-0.004
0.042,-0.004
0.046,-0.001
0.043,-0.002
0.043,-0.006
0.045,-0.002
0.044,-0.004
0.049,-0.002
0.045,-0.006
0.046,-0.003
0.045,-0.003
0.046,-0.003
0.046,-0.002
0.044,-0.003
0.042,-0.002
0.044,-0.001
0.041,0.001
0.046,-0.002
0.043,0.000
0.043,0.001
0.043,0.004
0.045,0.004
0.046,0.009
0.041,0.002
0.044,0.004
0.039,0.003
0.041,0.005
0.041,0.004
0.047,0.006
0.046,0.004
0.046,0.002
0.045,0.004
0.042,0.008
0.042,0.009
0.043,0.011
0.041,0.012
0.040,0.011
0.037,0.013
0.040,0.012
0.038,0.015
0.039,0.015
0.040,0.015
0.038,0.016
0.040,0.017
0.039,0.015
0.041,0.014
0.042,0.016
0.039,0.019
0.037,0.018
0.041,0.022
0.038,0.021
0.042,0.024
0.039,0.025
0.041,0.023
0.041,0.028
0.041,0.026
0.043,0.028
0.040,0.024
0.043,0.026
0.043,0.026
0.042,0.029
0.040,0.030
0.044,0.031
0.041,0.032
0.043,0.034
0.044,0.034
0.044,0.034
0.041,0.036
0.044,0.035
0.041,0.039
0.041,0.036
0.041,0.036
0.040,0.034
0.040,0.037
0.039,0.036
0.038,0.041
0.038,0.040
0.039,0.041
0.038,0.038
0.041,0.041
0.038,0.038
0.041,0.042
0.039,0.040
0.043,0.041
0.043,0.040
0.043,0.039
0.043,0.043
0.041,0.040
0.042,0.046
0.040,0.042
0.039,0.044
0.040,0.043
0.040,0.046
0.041,0.043
0.039,0.045
0.037,0.045
0.041,0.048
0.040,0.045
0.045,0.045
0.042,0.044
0.043,0.043
0.042,0.039
0.043,0.040
0.044,0.038
0.045,0.038
0.045,0.042
0.046,0.038
0.046,0.039
0.045,0.036
0.044,0.038
0.044,0.035
0.042,0.038
0.042,0.034
0.046,0.036
0.042,0.033
0.044,0.032
0.044,0.031
0.047,0.032
0.048,0.028
0.049,0.029
0.046,0.024
0.045,0.025
0.046,0.025
0.046,0.024
0.049,0.026
0.046,0.021
0.046,0.023
0.045,0.020
0.048,0.021
0.045,0.021
0.048,0.020
0.047,0.017
0.049,0.017
0.049,0.013
0.047,0.015
0.049,0.014
0.045,0.010
0.048,0.008
0.048,0.007
0.047,0.010
0.044,0.008
0.049,0.009
0.044,0.007
0.051,0.006
0.046,0.004
0.051,0.004
0.047,0.007
0.047,0.003
0.049,0.005
0.045,0.001
0.049,0.002
0.042,0.000
0.047,0.002
0.047,0.001
0.043,0.005
0.046,0.002
0.044,0.006
0.044,0.003
0.046,0.003
0.046,-0.003
0.048,-0.002
0.046,-0.005
0.046,-0.003
0.046,-0.004
0.048,-0.003
0.048,0.001
0.045,-0.003
0.047,0.000
0.045,-0.002
0.043,0.001
0.045,0.000
0.045,0.001
0.044,-0.000
0.047,0.002
0.045,-0.002
0.048,0.000
0.043,-0.003
0.043,-0.004
0.042,-0.004
0.044,-0.005
0.044,-0.002
0.042,-0.002
0.043,-0.002
0.043,0.001
0.043,0.003
0.043,0.001
0.042,0.005
0.044,0.000
0.046,0.005
0.045,0.003
0.043,0.004
0.040,0.003
0.039,0.005
0.041,0.006
0.038,0.007
0.040,0.005
0.042,0.008
0.042,0.007
0.043,0.007
0.045,0.008
0.044,0.009
0.041,0.009
0.040,0.008
0.041,0.007
0.040,0.008
0.044,0.011
0.043,0.013
0.042,0.011
0.042,0.014
0.040,0.015
0.045,0.016
0.042,0.014
0.045,0.016
0.042,0.018
0.041,0.019
0.042,0.020
0.044,0.023
0.042,0.019
0.045,0.025
0.045,0.023
0.043,0.025
0.040,0.024
0.044,0.026
0.040,0.026
0.041,0.029
0.042,0.027
0.043,0.029
0.045,0.030
0.047,0.029
0.042,0.032
0.044,0.033
0.041,0.033
0.044,0.033
0.042,0.031
0.041,0.032
0.044,0.032
0.043,0.033
0.044,0.036
0.043,0.035
0.041,0.036
0.044,0.036
0.038,0.037
0.039,0.038
0.037,0.036
0.038,0.037
0.037,0.041
0.039,0.043
0.042,0.044
0.043,0.044
0.045,0.043
0.045,0.039
0.043,0.038
0.043,0.036
0.046,0.039
0.046,0.038
0.046,0.040
0.043,0.039
0.045,0.040
0.042,0.043
0.046,0.040
0.043,0.044
0.043,0.040
0.040,0.045
0.038,0.042
0.041,0.043
0.043,0.041
0.044,0.042
0.045,0.044
0.046,0.040
0.045,0.037
0.047,0.040
0.043,0.040
0.047,0.040
0.044,0.037
0.047,0.034
0.046,0.034
0.047,0.036
0.046,0.036
0.046,0.036
0.044,0.035
0.045,0.033
0.043,0.033
0.046,0.031
0.044,0.033
0.045,0.030
0.045,0.029
0.042,0.025
0.048,0.026
0.045,0.024
0.049,0.024
0.045,0.023
0.050,0.024
0.048,0.022
0.049,0.024
0.049,0.022
0.049,0.023
0.046,0.020
0.047,0.020
0.047,0.019
0.051,0.017
0.043,0.015
0.047,0.013
0.048,0.011
0.046,0.010
0.050,0.009
0.048,0.012
0.047,0.010
0.047,0.010
0.043,0.009
0.047,0.006
0.046,0.007
0.049,0.008
0.049,0.007
0.047,0.007
0.044,0.004
0.048,0.006
0.047,0.002
0.047,0.001
0.046,0.003
0.047,-0.001
0.048,0.003
0.045,-0.002
0.044,0.003
0.047,0.002
0.044,0.004
0.047,0.001
0.046,-0.000
0.049,-0.003
0.047,-0.003
0.047,-0.004
0.046,-0.003
0.043,-0.006
0.046,-0.006
0.042,-0.007
0.045,-0.005
0.042,-0.005
0.045,-0.006
0.045,-0.003
0.044,-0.003
0.045,0.002
0.046,-0.004
0.043,-0.002
0.045,-0.001
0.040,-0.002
0.044,-0.003
0.042,-0.003
0.044,-0.003
0.043,-0.000
0.044,-0.005
0.045,-0.003
0.043,-0.004
0.046,-0.002
0.042,0.001
0.044,0.003
0.041,0.002
0.044,0.002
0.043,0.005
0.044,0.004
0.045,0.005
0.045,0.006
0.045,0.006
0.046,0.004
0.043,0.008
0.044,0.005
0.042,0.010
0.044,0.008
0.040,0.010
0.041,0.011
0.044,0.012
0.043,0.012
0.046,0.015
0.044,0.014
0.045,0.015
0.042,0.014
0.044,0.013
0.040,0.014
0.043,0.018
0.041,0.017
0.045,0.016
0.040,0.017
0.043,0.019
0.037,0.023
0.039,0.024
0.035,0.024
0.038,0.027
0.037,0.028
0.037,0.030
0.039,0.029
0.039,0.032
0.040,0.032
0.040,0.030
0.041,0.033
0.040,0.032
0.041,0.032
0.039,0.035
0.041,0.035
0.037,0.036
0.039,0.035
0.041,0.036
0.038,0.036
0.037,0.037
0.039,0.035
0.045,0.039
0.041,0.038
0.043,0.038
0.043,0.036
0.043,0.038
0.038,0.038
0.039,0.038
0.039,0.039
0.038,0.040
0.039,0.045
0.039,0.043
0.039,0.045
0.038,0.044
0.039,0.044
0.037,0.043
0.040,0.045
0.039,0.044
0.041,0.045
0.039,0.041
0.043,0.043
0.042,0.042
0.044,0.045
0.041,0.040
0.044,0.041
0.043,0.044
0.044,0.043
0.040,0.045
0.041,0.041
0.040,0.045
0.042,0.044
0.042,0.047
0.045,0.041
0.044,0.041
0.043,0.042
0.039,0.040
0.041,0.039
0.041,0.039
0.042,0.039
0.044,0.040
0.042,0.037
0.045,0.040
0.040,0.034
0.043,0.036
0.042,0.033
0.046,0.033
0.041,0.034
0.044,0.034
0.042,0.035
0.041,0.033
0.044,0.030
0.042,0.027
0.044,0.026
0.044,0.023
0.045,0.024
0.043,0.024
0.045,0.025
0.041,0.018
0.045,0.021
0.042,0.018
0.046,0.019
0.045,0.018
0.049,0.020
0.046,0.019
0.049,0.019
0.045,0.018
0.045,0.016
0.045,0.015
0.045,0.015
0.046,0.010
0.044,0.012
0.046,0.011
0.046,0.009
0.046,0.009
0.044,0.008
0.046,0.006
0.043,0.007
0.045,0.004
0.047,0.005
0.046,0.003
0.052,0.006
0.046,0.005
0.049,0.004
0.047,0.002
0.049,0.001
0.048,0.001
0.049,-0.001
0.047,0.000
0.046,-0.002
0.045,-0.000
0.048,-0.001
0.046,0.003
0.047,0.002
0.045,0.002
0.045,0.000
0.046,-0.000
0.044,-0.002
0.046,-0.004
0.046,-0.004
0.046,-0.002
0.044,-0.001
0.048,0.000
0.047,-0.004
0.048,-0.004
0.047,-0.005
0.050,-0.004
0.046,-0.003
0.049,-0.002
0.042,-0.001
0.042,-0.003
0.043,0.001
0.044,-0.001
0.045,0.002
0.042,-0.001
0.044,0.001
0.040,-0.001
0.042,0.003
0.043,0.001
0.044,0.005
0.041,0.002
0.044,0.006
0.044,0.003
0.046,0.004
0.044,0.007
0.043,0.005
0.043,0.009
0.047,0.006
0.043,0.007
0.041,0.009
0.041,0.012
0.041,0.010
0.041,0.011
0.040,0.010
0.041,0.012
0.041,0.012
0.040,0.014
0.041,0.010
0.044,0.015
0.042,0.013
0.044,0.016
0.044,0.014
0.044,0.018
0.043,0.017
0.041,0.015
0.039,0.016
0.040,0.019
0.041,0.019
0.040,0.023
0.037,0.024
0.039,0.027
0.038,0.029
0.039,0.029
0.039,0.031
0.037,0.029
0.040,0.032
0.038,0.030
0.041,0.029
0.036,0.032
0.040,0.032
0.037,0.035
0.039,0.035
0.039,0.036
0.042,0.035
0.042,0.035
0.041,0.035
0.043,0.038
0.042,0.036
0.043,0.036
0.043,0.034
0.044,0.036
0.044,0.034
0.046,0.037
0.041,0.037
0.044,0.038
0.042,0.040
0.042,0.039
0.042,0.043
0.039,0.039
0.042,0.044
0.040,0.042
0.041,0.044
0.041,0.041
0.042,0.046
0.042,0.047
0.041,0.050
0.042,0.048
0.041,0.047
0.041,0.047
0.043,0.047
0.039,0.045
0.043,0.047
0.041,0.045
0.043,0.045
0.044,0.045
0.043,0.044
0.043,0.047
0.043,0.045
0.045,0.046
0.044,0.046
0.044,0.047
0.043,0.045
0.047,0.044
0.046,0.041
0.043,0.043
0.044,0.041
0.042,0.040
0.042,0.038
0.044,0.039
0.044,0.035
0.049,0.036
0.045,0.036
0.047,0.036
0.045,0.037
0.046,0.034
0.045,0.036
0.045,0.034
0.046,0.037
0.047,0.034
0.044,0.032
0.044,0.028
0.044,0.031
0.044,0.028
0.043,0.030
0.043,0.029
0.045,0.030
0.045,0.028
0.047,0.025
0.046,0.025
0.046,0.025
0.046,0.022
0.044,0.023
0.047,0.020
0.049,0.019
0.046,0.016
0.048,0.015
0.047,0.014
0.045,0.014
0.046,0.013
0.043,0.014
0.046,0.013
0.043,0.014
0.044,0.009
0.043,0.009
0.046,0.007
0.046,0.009
0.045,0.007
0.047,0.008
0.045,0.006
0.047,0.006
0.042,0.001
0.044,0.003
0.047,0.001
0.046,0.003
0.049,0.002
0.049,-0.000
0.047,0.001
0.049,-0.002
0.049,0.001
0.051,-0.002
0.047,0.002
0.048,0.000
0.047,0.003
0.044,-0.002
0.048,-0.003
0.047,-0.005
0.049,-0.002
0.047,-0.005
0.049,-0.003
0.046,-0.008
0.050,-0.004
0.048,-0.005
0.052,-0.005
0.049,-0.002
0.051,-0.007
0.047,-0.002
0.044,-0.003
0.043,-0.003
0.041,-0.003
0.042,-0.001
0.043,-0.001
0.044,0.003
0.044,0.003
0.044,0.003
0.044,0.001
0.049,0.003
0.047,0.001
0.049,0.004
0.046,0.003
0.048,0.003
0.045,0.008
0.047,0.005
0.043,0.010
0.045,0.005
0.043,0.010
0.043,0.010
0.046,0.011
0.045,0.011
0.044,0.012
0.042,0.010
0.043,0.010
0.041,0.009
0.044,0.014
0.044,0.011
0.047,0.014
0.044,0.014
0.047,0.016
0.045,0.015
0.047,0.015
0.046,0.016
0.046,0.017
0.045,0.016
0.043,0.020
0.045,0.018
0.044,0.020
0.043,0.020
0.044,0.023
0.043,0.027
0.042,0.029
0.043,0.028
0.039,0.031
0.043,0.028
0.042,0.033
0.043,0.032
0.046,0.033
0.044,0.032
0.044,0.033
0.041,0.032
0.041,0.033
0.042,0.032
0.041,0.036
0.040,0.034
0.039,0.037
0.045,0.034
0.041,0.039
0.041,0.039
0.043,0.037
0.040,0.037
0.044,0.038
0.042,0.040
0.044,0.039
0.044,0.040
0.041,0.037
0.043,0.042
0.038,0.039
0.039,0.045
0.039,0.042
0.041,0.045
0.042,0.043
0.042,0.042
0.042,0.041
0.044,0.044
0.041,0.044
0.043,0.044
0.041,0.042
0.044,0.042
0.045,0.043
0.044,0.045
0.043,0.043
0.043,0.043
0.042,0.043
0.046,0.045
0.046,0.043
0.044,0.042
0.045,0.047
0.046,0.046
0.046,0.046
0.043,0.043
0.043,0.043
0.041,0.044
0.038,0.043
0.039,0.043
0.041,0.043
0.043,0.041
0.043,0.039
0.046,0.037
0.048,0.035
0.047,0.033
0.049,0.036
0.047,0.035
0.049,0.032
0.050,0.037
0.048,0.032
0.049,0.036
0.048,0.033
0.046,0.032
0.048,0.031
0.049,0.031
0.044,0.027
0.045,0.026
0.043,0.025
0.043,0.025
0.045,0.026
0.046,0.025
0.046,0.024
0.049,0.025
0.048,0.024
0.048,0.022
0.049,0.021
0.050,0.018
0.052,0.016
0.049,0.019
0.050,0.013
0.046,0.014
0.050,0.011
0.047,0.017
0.047,0.011
0.047,0.012
0.046,0.010
0.047,0.012
0.047,0.010
0.046,0.009
0.048,0.009
0.049,0.010
0.049,0.004
0.049,0.003
0.044,0.003
0.047,0.002
0.044,0.001
0.049,-0.000
0.050,0.002
0.047,0.000
0.049,0.004
0.046,0.004
0.046,0.005
0.043,0.002
0.044,0.004
0.047,0.000
0.046,0.004
0.045,-0.000
0.046,-0.001
0.042,-0.004
0.045,-0.005
0.045,-0.006
0.045,-0.005
0.044,-0.005
0.044,-0.003
0.046,-0.004
0.046,-0.005
0.046,-0.003
0.047,-0.004
0.047,-0.002
0.044,-0.007
0.045,-0.000
0.045,-0.003
0.043,-0.001
0.042,-0.002
0.042,-0.002
0.040,0.000
0.039,0.002
0.041,0.003
0.036,0.001
0.043,-0.000
0.043,0.003
0.042,0.001
0.043,0.004
0.040,0.001
0.042,0.002
0.046,0.004
0.044,0.001
0.046,0.004
0.045,0.006
0.043,0.010
0.046,0.007
0.044,0.009
0.043,0.009
0.041,0.010
0.045,0.008
0.043,0.011
0.046,0.009
0.045,0.012
0.043,0.013
0.043,0.012
0.041,0.013
0.044,0.015
0.043,0.015
0.045,0.015
0.043,0.013
0.044,0.016
0.042,0.016
0.041,0.018
0.039,0.017
0.042,0.021
0.038,0.023
0.039,0.025
0.039,0.025
0.040,0.031
0.042,0.029
0.043,0.030
0.045,0.026
0.046,0.028
0.046,0.025
0.045,0.030
0.045,0.028
0.045,0.033
0.043,0.029
0.042,0.030
0.045,0.031
0.042,0.036
0.046,0.034
0.041,0.035
0.043,0.036
0.042,0.037
0.043,0.035
0.044,0.036
0.047,0.037
0.046,0.035
0.046,0.034
0.044,0.037
0.045,0.033
0.044,0.037
0.040,0.036
0.043,0.038
0.043,0.042
0.047,0.041
0.044,0.045
0.046,0.041
0.045,0.042
0.046,0.040
0.044,0.041
0.045,0.039
0.042,0.038
0.044,0.040
0.039,0.040
0.046,0.043
0.044,0.042
0.044,0.041
0.047,0.042
0.044,0.040
0.051,0.043
0.045,0.041
0.047,0.042
0.045,0.040
0.046,0.038
0.046,0.036
0.047,0.038
0.044,0.042
0.048,0.041
0.044,0.042
0.046,0.040
0.046,0.042
0.048,0.039
0.048,0.037
0.047,0.034
0.052,0.036
0.049,0.032
0.050,0.034
0.048,0.031
0.049,0.032
0.049,0.029
0.052,0.030
0.050,0.031
0.049,0.027
0.045,0.029
0.046,0.026
0.047,0.029
0.045,0.026
0.046,0.029
0.047,0.025
0.043,0.027
0.046,0.023
0.045,0.024
0.045,0.020
0.044,0.023
0.048,0.014
0.050,0.017
0.048,0.014
0.048,0.014
0.050,0.012
0.049,0.009
0.051,0.008
0.049,0.010
0.052,0.008
0.049,0.011
0.047,0.007
0.048,0.008
0.049,0.007
0.048,0.007
0.051,0.005
0.047,0.006
0.048,0.001
0.048,0.004
0.047,0.000
0.045,0.002
0.044,0.000
0.047,-0.002
0.043,-0.003
0.046,0.003
0.045,-0.001
0.048,0.002
0.046,-0.000
0.051,-0.001
0.049,-0.003
0.051,-0.006
0.050,-0.003
0.048,-0.005
0.047,-0.005
0.043,-0.008
0.046,-0.007
0.044,-0.006
0.045,-0.003
0.046,-0.005
0.045,-0.005
0.046,-0.005
0.049,-0.003
0.046,-0.007
0.045,-0.006
0.043,-0.010
0.048,-0.006
0.045,-0.009
0.049,-0.006
0.045,-0.004
0.043,-0.005
0.044,-0.003
0.044,-0.007
0.044,-0.003
0.042,-0.004
0.042,0.001
0.045,0.000
0.043,0.002
0.042,0.000
0.044,0.001
0.044,0.001
0.045,0.002
0.043,0.000
0.048,0.002
0.044,0.002
0.047,0.003
0.045,0.005
0.045,0.004
0.045,0.006
0.040,0.006
0.043,0.008
0.045,0.007
0.045,0.012
0.045,0.010
0.042,0.013
0.044,0.012
0.045,0.014
0.043,0.013
0.042,0.014
0.044,0.015
0.041,0.015
0.042,0.017
0.041,0.018
0.046,0.015
0.043,0.020
0.042,0.016
0.043,0.017
0.044,0.017
0.044,0.019
0.043,0.022
0.045,0.022
0.046,0.025
0.045,0.025
0.048,0.026
0.045,0.024
0.047,0.025
0.043,0.029
0.047,0.028
0.047,0.027
0.043,0.028
0.045,0.029
0.044,0.030
0.043,0.031
0.041,0.031
0.042,0.031
0.043,0.034
0.044,0.037
0.043,0.034
0.044,0.036
0.042,0.036
0.042,0.034
0.042,0.034
0.039,0.036
0.040,0.036
0.039,0.037
0.040,0.036
0.041,0.039
0.043,0.038
0.046,0.041
0.045,0.038
0.046,0.040
0.045,0.041
0.045,0.039
0.045,0.043
0.044,0.042
0.045,0.040
0.046,0.040
0.046,0.039
0.044,0.040
0.040,0.040
0.041,0.042
0.039,0.042
0.044,0.040
0.045,0.041
0.042,0.038
0.048,0.041
0.045,0.040
0.046,0.039
0.047,0.037
0.048,0.038
0.046,0.038
0.046,0.036
0.046,0.038
0.045,0.034
0.044,0.037
0.046,0.035
0.049,0.036
0.047,0.037
0.047,0.036
0.048,0.033
0.049,0.033
0.048,0.030
0.045,0.030
0.046,0.027
0.049,0.028
0.049,0.028
0.050,0.026
0.050,0.028
0.049,0.024
0.048,0.024
0.048,0.026
0.046,0.025
0.047,0.022
0.047,0.025
0.047,0.022
0.043,0.023
0.048,0.019
0.046,0.019
0.049,0.016
0.048,0.016
0.050,0.015
0.050,0.015
0.050,0.012
0.051,0.013
0.047,0.010
0.047,0.010
0.049,0.006
0.048,0.009
0.049,0.006
0.048,0.004
0.050,0.003
0.049,0.004
0.048,0.001
0.047,0.004
0.048,0.002
0.048,0.003
0.047,0.001
0.045,0.002
0.045,0.000
0.045,0.002
0.042,0.002
0.045,0.001
0.044,0.000
0.044,0.002
0.047,-0.001
0.048,0.000
0.049,-0.002
0.049,0.002
0.047,-0.002
0.051,-0.004
0.049,-0.008
0.050,-0.007
0.050,-0.009
0.049,-0.008
0.049,-0.003
0.049,-0.007
0.048,-0.001
0.048,-0.004
0.050,-0.004
0.049,-0.005
0.047,-0.005
0.048,-0.008
0.044,-0.007
0.047,-0.006
0.048,-0.007
0.047,-0.007
0.047,-0.006
0.047,-0.003
0.047,-0.003
0.046,-0.002
0.044,-0.001
0.046,0.004
0.047,0.002
0.047,0.006
0.048,0.002
0.047,0.004
0.046,0.004
0.045,0.004
0.047,0.004
0.046,0.004
0.046,0.003
0.047,0.006
0.049,0.004
0.045,0.004
0.045,0.004
0.045,0.003
0.045,0.007
0.045,0.004
0.043,0.008
0.044,0.005
0.044,0.009
0.045,0.010
0.044,0.010
0.043,0.010
0.043,0.010
0.044,0.011
0.040,0.012
0.043,0.015
0.040,0.014
0.041,0.014
0.041,0.016
0.044,0.016
0.042,0.017
0.044,0.017
0.042,0.021
0.044,0.021
0.040,0.022
0.043,0.019
0.042,0.026
0.045,0.022
0.043,0.025
0.043,0.023
0.045,0.024
0.046,0.023
0.047,0.024
0.045,0.027
0.046,0.031
0.046,0.028
0.042,0.034
0.043,0.031
0.043,0.034
0.042,0.035
0.044,0.036
0.043,0.034
0.047,0.036
0.043,0.036
0.044,0.035
0.043,0.034
0.044,0.033
0.044,0.033
0.044,0.036
0.042,0.034
0.046,0.036
0.044,0.039
0.042,0.038
0.043,0.041
0.043,0.040
0.046,0.045
0.045,0.042
0.043,0.042
0.044,0.042
0.043,0.042
0.045,0.042
0.043,0.039
0.046,0.036
0.043,0.038
0.044,0.039
0.045,0.038
0.045,0.039
0.045,0.041
0.046,0.038
0.046,0.039
0.047,0.041
0.047,0.039
0.048,0.040
0.045,0.038
0.045,0.040
0.045,0.036
0.043,0.038
0.047,0.037
0.044,0.038
0.043,0.037
0.042,0.039
0.045,0.036
0.042,0.039
0.043,0.036
0.043,0.033
0.045,0.034
0.047,0.033
0.046,0.031
0.045,0.030
0.046,0.030
0.047,0.028
0.049,0.027
0.049,0.026
0.047,0.028
0.047,0.026
0.047,0.028
0.050,0.027
0.045,0.027
0.049,0.023
0.047,0.023
0.049,0.021
0.048,0.023
0.051,0.020
0.046,0.020
0.050,0.018
0.049,0.016
0.050,0.011
0.050,0.012
0.050,0.008
0.048,0.008
0.049,0.006
0.049,0.005
0.048,0.004
0.047,0.007
0.052,0.008
0.052,0.006
0.051,0.003
0.051,0.004
0.052,0.001
0.052,0.004
0.050,-0.001
0.050,0.004
0.048,0.001
0.048,0.001
0.048,-0.000
0.049,-0.001
0.051,-0.001
0.050,-0.002
0.051,-0.001
0.051,-0.001
0.049,-0.004
0.049,-0.005
0.050,-0.004
0.052,-0.003
0.051,-0.003
0.048,-0.007
0.048,-0.004
0.049,-0.008
0.047,-0.006
0.048,-0.004
0.047,-0.003
0.048,-0.003
0.047,-0.007
0.049,-0.007
0.049,-0.004
0.050,-0.004
0.050,-0.003
0.049,-0.005
0.051,-0.006
0.052,-0.005
0.053,-0.006
0.051,-0.004
0.049,-0.005
0.050,-0.003
0.050,-0.001
0.047,-0.002
0.046,-0.003
0.044,0.002
0.047,0.000
0.045,0.000
0.045,0.003
0.043,0.003
0.043,0.002
0.046,0.004
0.043,0.003
0.046,0.003
0.047,0.006
0.046,0.007
0.045,0.006
0.043,0.007
0.045,0.007
0.045,0.010
0.044,0.010
0.045,0.011
0.042,0.013
0.045,0.013
0.044,0.015
0.047,0.013
0.044,0.017
0.045,0.016
0.042,0.017
0.045,0.016
0.043,0.019
0.047,0.019
0.044,0.019
0.043,0.018
0.042,0.020
0.040,0.022
0.038,0.023
0.041,0.024
0.041,0.027
0.042,0.027
0.039,0.031
0.042,0.028
0.042,0.032
0.041,0.028
0.043,0.031
0.043,0.028
0.045,0.031
0.043,0.031
0.042,0.036
0.042,0.033
0.039,0.035
0.042,0.036
0.043,0.039
0.040,0.037
0.040,0.039
0.042,0.037
0.041,0.036
0.042,0.038
0.044,0.037
0.044,0.036
0.043,0.037
0.043,0.037
0.043,0.039
0.044,0.037
0.045,0.037
0.044,0.041
0.044,0.039
0.044,0.042
0.041,0.041
0.041,0.041
0.041,0.042
0.042,0.045
0.044,0.044
0.039,0.045
0.044,0.042
0.041,0.043
0.043,0.043
0.041,0.042
0.041,0.044
0.040,0.044
0.042,0.046
0.041,0.044
0.042,0.042
0.044,0.041
0.043,0.041
0.045,0.043
0.043,0.040
0.048,0.043
0.045,0.043
0.046,0.041
0.045,0.043
0.045,0.042
0.045,0.042
0.046,0.039
0.044,0.039
0.043,0.038
0.043,0.037
0.044,0.036
0.044,0.038
0.045,0.034
0.045,0.036
0.044,0.032
0.047,0.034
0.046,0.029
0.047,0.031
0.046,0.032
0.047,0.030
0.047,0.032
0.045,0.028
0.043,0.031
0.045,0.029
0.044,0.030
0.045,0.028
0.046,0.025
0.049,0.026
0.048,0.023
0.049,0.024
0.048,0.023
0.048,0.019
0.047,0.021
0.048,0.018
0.047,0.017
0.049,0.015
0.048,0.014
0.048,0.011
0.046,0.012
0.046,0.010
0.046,0.014
0.046,0.008
0.049,0.010
0.047,0.009
0.049,0.009
0.048,0.008
0.049,0.007
0.050,0.005
0.046,0.008
0.049,0.006
0.046,0.005
0.048,0.002
0.047,0.002
0.049,0.002
0.051,0.003
0.049,0.002
0.050,0.002
0.050,0.002
0.049,-0.001
0.052,0.001
0.051,-0.000
0.052,-0.000
0.050,-0.005
0.049,-0.002
0.047,-0.005
0.047,-0.003
0.044,-0.006
0.045,-0.005
0.045,-0.004
0.047,-0.001
0.047,-0.006
0.043,-0.005
0.045,-0.004
0.044,-0.002
0.045,-0.004
0.047,-0.005
0.044,-0.002
0.044,-0.004
0.044,-0.002
0.042,-0.004
0.043,-0.003
0.044,-0.002
0.042,-0.001
0.043,0.000
0.042,-0.000
0.041,-0.001
0.040,0.003
0.041,0.001
0.045,0.003
0.043,0.004
0.043,0.007
0.043,0.002
0.042,0.003
0.044,0.005
0.044,0.007
0.045,0.006
0.044,0.007
0.043,0.010
0.043,0.008
0.041,0.010
0.043,0.010
0.040,0.012
0.044,0.011
0.041,0.013
0.044,0.012
0.041,0.015
0.040,0.013
0.044,0.016
0.042,0.016
0.044,0.018
0.044,0.017
0.043,0.015
0.046,0.017
0.042,0.019
0.043,0.017
0.041,0.023
0.041,0.021
0.040,0.026
0.043,0.025
0.040,0.027
0.042,0.025
0.040,0.027
0.040,0.026
0.040,0.030
0.040,0.029
0.040,0.033
0.040,0.031
0.043,0.033
0.040,0.032
0.041,0.034
0.043,0.033
0.043,0.036
0.044,0.035
0.040,0.038
0.041,0.036
0.042,0.041
0.044,0.036
0.041,0.036
0.045,0.039
0.044,0.037
0.048,0.037
0.043,0.037
0.045,0.035
0.044,0.037
0.042,0.039
0.045,0.042
0.043,0.042
0.045,0.042
0.043,0.043
0.046,0.041
0.043,0.043
0.045,0.041
0.044,0.045
0.044,0.042
0.040,0.042
0.044,0.042
0.039,0.046
0.042,0.043
0.039,0.042
0.040,0.040
0.045,0.043
0.041,0.043
0.045,0.046
0.044,0.043
0.045,0.042
0.046,0.040
0.045,0.041
0.046,0.041
0.045,0.039
0.043,0.041
0.047,0.038
0.044,0.040
0.045,0.038
0.045,0.040
0.044,0.037
0.043,0.037
0.043,0.036
0.046,0.035
0.044,0.034
0.046,0.038
0.043,0.033
0.045,0.035
0.046,0.031
0.048,0.034
0.048,0.030
0.050,0.029
0.047,0.029
0.049,0.027
0.046,0.028
0.048,0.026
0.045,0.032
0.045,0.026
0.047,0.027
0.046,0.021
0.049,0.024
0.049,0.023
0.049,0.024
0.050,0.021
0.047,0.024
0.051,0.019
0.047,0.020
0.049,0.016
0.051,0.017
0.052,0.012
0.049,0.010
0.048,0.009
0.047,0.011
0.046,0.009
0.047,0.013
0.050,0.010
0.049,0.009
0.049,0.006
0.048,0.008
0.047,0.005
0.046,0.006
0.048,0.006
0.047,0.006
0.049,0.004
0.047,0.003
0.050,0.000
0.051,0.002
0.050,-0.003
0.049,0.001
0.045,-0.002
0.050,-0.001
0.049,0.001
0.052,0.000
0.051,0.002
0.052,-0.002
0.049,-0.001
0.050,-0.003
0.049,-0.004
0.049,-0.004
0.045,-0.004
0.049,-0.004
0.050,-0.002
0.049,-0.003
0.048,-0.003
0.050,-0.006
0.050,-0.003
0.048,-0.005
0.049,-0.007
0.045,-0.008
0.050,-0.008
0.048,-0.004
0.047,-0.002
0.047,-0.001
0.048,-0.001
0.047,-0.001
0.049,-0.002
0.046,-0.001
0.047,-0.001
0.045,0.002
0.044,0.000
0.044,0.003
0.044,-0.002
0.046,0.002
0.045,0.000
0.048,0.002
0.046,0.002
0.047,0.006
0.047,0.003
0.046,0.006
0.047,0.007
0.048,0.008
0.047,0.008
0.049,0.007
0.048,0.014
0.049,0.013
0.044,0.016
0.049,0.015
0.044,0.016
0.043,0.018
0.043,0.018
0.042,0.017
0.043,0.019
0.042,0.018
0.043,0.018
0.044,0.018
0.043,0.022
0.045,0.017
0.046,0.023
0.044,0.021
0.043,0.025
0.043,0.026
0.043,0.028
0.043,0.029
0.043,0.030
0.046,0.030
0.046,0.033
0.047,0.032
0.046,0.034
0.048,0.032
0.044,0.035
0.044,0.034
0.042,0.035
0.044,0.034
0.043,0.037
0.048,0.038
0.040,0.038
0.045,0.036
0.043,0.039
0.045,0.038
0.044,0.040
0.042,0.038
0.046,0.037
0.043,0.037
0.045,0.040
0.043,0.041
0.045,0.040
0.045,0.038
0.046,0.042
0.042,0.044
0.046,0.043
0.043,0.048
0.041,0.047
0.043,0.049
0.043,0.045
0.045,0.045
0.048,0.044
0.042,0.043
0.041,0.040
0.041,0.043
0.039,0.039
0.042,0.046
0.040,0.043
0.045,0.048
0.044,0.045
0.046,0.043
0.043,0.042
0.046,0.042
0.044,0.043
0.043,0.039
0.044,0.042
0.042,0.041
0.044,0.043
0.042,0.041
0.043,0.040
0.045,0.038
0.044,0.039
0.045,0.036
0.047,0.039
0.046,0.034
0.046,0.037
0.045,0.034
0.048,0.034
0.045,0.035
0.048,0.033
0.048,0.034
0.049,0.032
0.052,0.031
0.047,0.027
0.049,0.029
0.047,0.027
0.045,0.027
0.046,0.025
0.045,0.027
0.046,0.025
0.047,0.025
0.045,0.024
0.045,0.026
0.045,0.024
0.045,0.021
0.047,0.021
0.045,0.021
0.049,0.021
0.047,0.018
0.051,0.017
0.048,0.016
0.052,0.011
0.047,0.011
0.049,0.010
0.047,0.010
0.048,0.011
0.047,0.008
0.047,0.006
0.048,0.009
0.049,0.006
0.046,0.007
0.049,0.004
0.044,0.003
0.049,0.002
0.045,0.004
0.046,0.004
0.046,0.004
0.047,0.002
0.049,0.003
0.048,-0.001
0.046,0.001
0.044,-0.002
0.045,0.004
0.045,0.002
0.047,0.000
0.047,0.003
0.049,-0.002
0.049,0.000
0.048,-0.004
0.047,-0.001
0.046,-0.003
0.046,-0.003
0.043,-0.004
0.044,-0.003
0.044,-0.003
0.045,-0.002
0.043,-0.002
0.047,0.000
0.045,-0.005
0.049,-0.003
0.047,-0.005
0.049,-0.005
0.044,-0.003
0.047,-0.005
0.044,-0.002
0.045,-0.002
0.047,-0.001
0.043,-0.003
0.043,0.002
0.042,0.001
0.042,0.001
0.045,-0.000
0.043,-0.001
0.042,-0.000
0.044,0.004
0.042,0.001
0.043,0.005
0.042,0.004
0.045,0.004
0.044,0.004
0.047,0.002
0.045,0.004
0.043,0.006
0.046,0.009
0.043,0.008
0.044,0.011
0.043,0.008
0.042,0.011
0.042,0.011
0.042,0.011
0.040,0.012
0.041,0.015
0.038,0.013
0.041,0.012
0.038,0.013
0.041,0.015
0.040,0.017
0.039,0.018
0.041,0.019
0.039,0.021
0.041,0.020
0.039,0.024
0.041,0.023
0.037,0.026
0.040,0.027
0.042,0.026
0.042,0.028
0.042,0.028
0.043,0.029
0.041,0.029
0.044,0.027
0.043,0.031
0.042,0.028
0.044,0.030
0.043,0.031
0.043,0.032
0.041,0.034
0.043,0.035
0.043,0.036
0.043,0.041
0.042,0.036
0.041,0.038
0.041,0.036
0.041,0.040
0.040,0.037
0.043,0.038
0.042,0.036
0.042,0.038
0.041,0.038
0.044,0.039
0.044,0.039
0.043,0.042
0.040,0.040
0.043,0.042
0.043,0.045
0.043,0.043
0.043,0.044
0.042,0.041
0.044,0.043
0.047,0.040
0.045,0.041
0.043,0.042
0.043,0.043
0.040,0.043
0.041,0.043
0.041,0.045
0.041,0.046
0.042,0.043
0.043,0.046
0.045,0.045
0.045,0.045
0.044,0.043
0.043,0.042
0.045,0.040
0.045,0.042
0.046,0.042
0.046,0.039
0.046,0.042
0.045,0.038
0.045,0.042
0.045,0.038
0.045,0.039
0.041,0.035
0.045,0.036
0.041,0.035
0.044,0.036
0.044,0.032
0.048,0.033
0.044,0.032
0.045,0.032
0.045,0.031
0.045,0.029
0.047,0.027
0.047,0.025
0.048,0.027
0.047,0.024
0.046,0.025
0.047,0.022
0.047,0.023
0.047,0.019
0.046,0.023
0.047,0.022
0.046,0.021
0.045,0.018
0.047,0.017
0.046,0.011
0.044,0.014
0.048,0.013
0.047,0.016
0.047,0.011
0.049,0.010
0.047,0.010
0.050,0.008
0.050,0.006
0.048,0.006
0.050,0.005
0.048,0.008
0.048,0.007
0.044,0.008
0.048,0.008
0.048,0.008
0.049,0.003
0.047,0.002
0.047,0.004
0.046,0.003
0.045,0.002
0.044,0.002
0.046,0.002
0.047,0.001
0.045,0.004
0.047,0.002
0.047,0.000
0.049,0.001
0.049,-0.002
0.052,-0.003
0.048,-0.006
0.049,-0.007
0.046,-0.003
0.047,-0.005
0.046,-0.001
0.043,-0.001
0.043,0.000
0.044,-0.002
0.046,-0.001
0.045,-0.005
0.043,-0.004
0.044,-0.004
0.048,-0.000
0.044,-0.002
0.047,0.000
0.045,0.000
0.049,-0.003
0.046,-0.003
0.045,-0.002
0.046,0.001
0.044,-0.001
0.044,0.002
0.043,0.002
0.044,0.006
0.046,0.005
0.041,0.008
0.045,0.006
0.043,0.008
0.044,0.008
0.044,0.011
0.041,0.008
0.041,0.010
0.041,0.006
0.045,0.009
0.042,0.009
0.045,0.011
0.043,0.010
0.045,0.010
0.045,0.010
0.042,0.011
0.045,0.015
0.045,0.013
0.045,0.016
0.046,0.017
0.043,0.020
0.043,0.019
0.041,0.020
0.040,0.017
0.042,0.020
0.043,0.017
0.045,0.019
0.043,0.021
0.042,0.023
0.044,0.021
0.041,0.024
0.042,0.024
0.042,0.027
0.045,0.027
0.042,0.028
0.043,0.031
0.042,0.030
0.044,0.032
0.039,0.028
0.043,0.031
0.037,0.030
0.044,0.032
0.039,0.034
0.043,0.034
0.044,0.034
0.043,0.037
0.044,0.035
0.043,0.037
0.045,0.036
0.043,0.036
0.043,0.036
0.042,0.037
0.043,0.042
0.043,0.038
0.043,0.045
0.041,0.039
0.041,0.041
0.041,0.040
0.042,0.043
0.042,0.044
0.043,0.042
0.043,0.040
0.046,0.041
0.048,0.043
0.048,0.043
0.047,0.042
0.046,0.041
0.044,0.041
0.045,0.041
0.043,0.043
0.042,0.041
0.041,0.046
0.041,0.043
0.043,0.047
0.040,0.048
0.041,0.048
0.043,0.047
0.043,0.045
0.042,0.045
0.043,0.046
0.046,0.043
0.047,0.044
0.047,0.041
0.048,0.038
0.049,0.039
0.050,0.038
0.049,0.040
0.049,0.040
0.046,0.041
0.046,0.038
0.046,0.038
0.046,0.037
0.045,0.037
0.044,0.036
0.046,0.036
0.045,0.034
0.046,0.035
0.048,0.031
