File Version,253.000000
# of Channels,2.000000
Samples/Channel,10300.000000
Scan Rate (Hz),10000.000000
Timestamp,3807792937.752849
Operating Mode,1.000000
Trial #,53.000000
Session #,24.000000
Subject code 1,82.000000
Subject code 2,88.000000
Feedback Window,0.000000
Feedback Ch,0.000000
Ch B,0.000000
Pre-Stim Acq. time (ms),100.000000
Post-Stim Acq. time (ms),900.000000
EMG Hi Limit,50.000000
EMG Lo Limit,0.000250
Target Value (V),5.000000
Stimulus Value (V),1.144540
Stimulus duration (ms),1.000000
EMG conditions time limit (sec),0.200000
M-response Start (ms),2.000000
M-response Duration (ms),2.000000
H-response Duration (ms),2.000000
H-response Start (ms),5.000000
Proportioanl gain,0.003000
Channel to monitor,0.000000
SIU gain,20.000000
FB Monitor value,0.904647
Inter-Stim delay (sec),5.000000
M-Window Mean,0.888836
H-Window Mean,0.005069
Stimulus paradigm,2.000000
# of Pulses in cond train,1.000000
Cond duration (ms),1.000000
Cond Train pulse period (ms),30.000000
Cond Value (V),1.144540
Start Delay (ms),0.000000
# of Pulses in stim train,1.000000
Stim Train pulse period (ms),30.000000
EMG amp gain ch 1,500.000000
EMG amp gain ch 2,500.000000
EMG amp gain ch 3,1000.000000
EMG amp gain ch 4,1000.000000
EMG amp gain ch 5,1000.000000
EMG amp gain ch 6,1000.000000
Stim Type 1,2.000000
Stim/Cond 1,0.000000
Stim Type 2,3.000000
Stim/Cond 2,0.000000
Stim Type 3,3.000000
Stim/Cond 3,0.000000
Stim Type 4,3.000000
Stim/Cond 4,0.000000
Stim Value 1,1.144540
Stim Value 2,0.000000
Stim Value 3,0.000000
Stim Value 4,0.000000
1st PP Channel,-1.000000
Pressure (g),0.000000
Speed (mm/sec),0.000000
Dwell (ms),0.000000
Pressure limit (g),0.000000
Travel limit (mm),0.000000
Amp gain,0.000000
Wait Trig?,0.000000
Move Timeout (ms),0.000000
Time Taken (ms),0.000000
Actual Travel (mm),0.000000
Recorded Data (mV),
0.046,0.028
0.046,0.025
0.048,0.025
0.047,0.026
0.045,0.023
0.046,0.019
0.046,0.019
0.049,0.021
0.048,0.020
0.050,0.015
0.050,0.015
0.051,0.014
0.050,0.013
0.050,0.011
0.049,0.009
0.050,0.009
0.050,0.008
0.051,0.009
0.049,0.008
0.050,0.007
0.046,0.008
0.046,0.007
0.049,0.007
0.047,0.004
0.049,0.001
0.048,0.003
0.049,0.006
0.046,0.002
0.045,0.007
0.046,0.000
0.046,0.004
0.045,0.001
0.050,0.002
0.046,0.000
0.050,-0.000
0.048,0.000
0.050,0.002
0.047,-0.001
0.049,-0.001
0.047,-0.004
0.048,-0.005
0.051,-0.005
0.048,-0.007
0.049,-0.005
0.048,-0.006
0.045,-0.002
0.047,-0.003
0.046,-0.002
0.048,-0.004
0.049,-0.003
0.046,-0.005
0.050,-0.004
0.044,-0.003
0.049,-0.004
0.048,-0.002
0.048,-0.005
0.049,-0.003
0.045,-0.005
0.046,-0.000
0.048,-0.001
0.045,0.000
0.047,-0.000
0.044,0.004
0.042,0.002
0.044,0.002
0.043,0.004
0.046,0.002
0.047,0.001
0.047,-0.000
0.047,0.001
0.049,0.002
0.048,0.003
0.049,0.006
0.047,0.008
0.046,0.005
0.046,0.011
0.047,0.007
0.047,0.011
0.046,0.010
0.046,0.012
0.044,0.010
0.046,0.012
0.044,0.011
0.045,0.014
0.042,0.011
0.045,0.011
0.044,0.014
0.045,0.013
0.043,0.012
0.043,0.014
0.045,0.015
0.042,0.019
0.041,0.018
0.040,0.022
0.042,0.022
0.039,0.026
0.042,0.027
0.040,0.029
0.041,0.028
0.041,0.029
0.042,0.030
0.040,0.029
0.044,0.027
0.040,0.030
0.043,0.031
0.041,0.036
0.043,0.032
0.041,0.035
0.039,0.034
0.040,0.035
0.041,0.035
0.043,0.037
0.042,0.036
0.046,0.035
0.043,0.033
0.047,0.036
0.045,0.033
0.045,0.036
0.044,0.034
0.045,0.036
0.040,0.035
0.041,0.036
0.038,0.041
0.040,0.039
0.036,0.043
0.042,0.040
0.041,0.043
0.041,0.041
0.042,0.044
0.041,0.043
0.042,0.044
0.040,0.041
0.044,0.043
0.043,0.042
0.045,0.043
0.041,0.042
0.043,0.043
0.043,0.043
0.047,0.043
0.044,0.045
0.045,0.043
0.043,0.044
0.045,0.042
0.043,0.043
0.045,0.040
0.043,0.043
0.045,0.041
0.047,0.040
0.043,0.036
0.048,0.036
0.046,0.038
0.050,0.037
0.047,0.035
0.046,0.036
0.045,0.032
0.047,0.033
0.045,0.035
0.049,0.033
0.045,0.035
0.048,0.032
0.046,0.032
0.046,0.029
0.045,0.031
0.045,0.027
0.047,0.026
0.044,0.023
0.051,0.025
0.044,0.023
0.048,0.024
0.047,0.021
0.047,0.024
0.046,0.020
0.047,0.023
0.047,0.020
0.050,0.021
0.049,0.016
0.050,0.017
0.045,0.013
0.050,0.013
0.047,0.011
0.049,0.011
0.047,0.008
0.049,0.007
0.049,0.006
0.049,0.007
0.049,0.007
0.051,0.007
0.051,0.005
0.048,0.005
0.049,0.004
0.049,0.004
0.050,0.003
0.049,0.000
0.050,0.001
0.047,-0.000
0.049,0.003
0.048,0.001
0.048,0.001
0.048,0.000
0.045,-0.001
0.047,0.000
0.047,0.001
0.045,-0.003
0.049,-0.001
0.049,-0.004
0.051,-0.004
0.049,-0.004
0.049,-0.005
0.048,-0.004
0.049,-0.003
0.048,-0.002
0.047,-0.004
0.048,-0.002
0.046,-0.009
0.045,-0.004
0.047,-0.003
0.047,-0.003
0.049,-0.002
0.048,-0.005
0.047,-0.007
0.047,-0.005
0.047,-0.006
0.047,-0.005
0.048,-0.007
0.048,-0.004
0.048,-0.001
0.050,-0.002
0.050,0.001
0.049,0.000
0.049,0.001
0.045,-0.002
0.047,0.002
0.042,0.002
0.043,0.003
0.042,0.003
0.043,0.006
0.045,0.005
0.044,0.006
0.048,0.002
0.045,0.005
0.046,0.005
0.048,0.007
0.047,0.009
0.044,0.008
0.045,0.013
0.043,0.009
0.043,0.012
0.043,0.010
0.046,0.012
0.043,0.013
0.044,0.013
0.044,0.016
0.045,0.015
0.044,0.015
0.041,0.015
0.044,0.014
0.040,0.016
0.042,0.016
0.042,0.020
0.042,0.021
0.041,0.024
0.045,0.024
0.044,0.025
0.045,0.027
0.046,0.028
0.045,0.028
0.042,0.027
0.046,0.027
0.042,0.027
0.043,0.026
0.042,0.029
0.043,0.029
0.044,0.033
0.042,0.032
0.043,0.034
0.043,0.036
0.040,0.038
0.041,0.036
0.038,0.039
0.041,0.034
0.042,0.039
0.039,0.036
0.041,0.038
0.039,0.037
0.041,0.036
0.041,0.037
0.044,0.037
0.045,0.036
0.043,0.037
0.043,0.038
0.042,0.038
0.043,0.041
0.045,0.042
0.043,0.042
0.043,0.039
0.043,0.043
0.041,0.038
0.042,0.040
0.040,0.038
0.041,0.038
0.040,0.038
0.044,0.039
0.041,0.042
0.046,0.043
0.042,0.040
0.044,0.042
0.042,0.042
0.043,0.039
0.043,0.041
0.043,0.040
0.044,0.042
0.043,0.041
0.044,0.042
0.043,0.037
0.042,0.039
0.045,0.035
0.043,0.038
0.043,0.036
0.045,0.036
0.043,0.034
0.048,0.036
0.045,0.034
0.047,0.030
0.046,0.034
0.047,0.031
0.045,0.033
0.047,0.030
0.045,0.034
0.045,0.031
0.044,0.030
0.047,0.027
0.047,0.025
0.046,0.023
0.049,0.024
0.045,0.018
0.046,0.021
0.045,0.019
0.047,0.022
0.045,0.018
0.048,0.022
0.048,0.017
0.051,0.019
0.049,0.016
0.049,0.015
0.050,0.013
0.049,0.015
0.050,0.012
0.049,0.011
0.048,0.011
0.050,0.009
0.049,0.009
0.049,0.009
0.049,0.007
0.048,0.009
0.048,0.006
0.048,0.008
0.045,0.003
0.050,0.003
0.046,0.001
0.050,0.002
0.049,-0.001
0.050,0.002
0.046,0.000
0.049,-0.000
0.046,-0.001
0.049,-0.003
0.044,0.000
0.046,0.001
0.049,0.002
0.049,-0.000
0.047,-0.000
0.048,-0.002
0.048,-0.002
0.047,-0.006
0.052,-0.006
0.048,-0.008
0.049,-0.008
0.049,-0.006
0.048,-0.009
0.047,-0.003
0.046,-0.003
0.045,-0.003
0.047,-0.002
0.047,-0.004
0.049,-0.005
0.046,-0.005
0.048,-0.005
0.047,-0.004
0.048,-0.005
0.048,-0.001
0.044,-0.004
0.047,-0.003
0.044,-0.003
0.047,-0.001
0.046,0.001
0.046,-0.001
0.045,0.004
0.043,0.002
0.042,0.002
0.042,0.001
0.043,0.003
0.041,0.003
0.041,0.004
0.041,0.003
0.042,0.006
0.044,0.004
0.042,0.008
0.044,0.004
0.046,0.004
0.042,0.007
0.045,0.008
0.040,0.010
0.044,0.011
0.039,0.012
0.041,0.011
0.043,0.017
0.044,0.013
0.041,0.014
0.042,0.014
0.040,0.011
0.044,0.016
0.041,0.016
0.043,0.016
0.038,0.017
0.042,0.017
0.041,0.019
0.043,0.019
0.041,0.022
0.041,0.023
0.042,0.024
0.041,0.024
0.043,0.027
0.044,0.027
0.045,0.028
0.045,0.026
0.048,0.028
0.048,0.025
0.046,0.029
0.045,0.026
0.047,0.031
0.042,0.031
0.044,0.034
0.042,0.034
0.042,0.037
0.044,0.036
0.041,0.036
0.045,0.036
0.042,0.036
0.042,0.034
0.047,0.036
0.043,0.034
0.046,0.036
0.044,0.036
0.041,0.037
0.043,0.037
0.040,0.035
0.042,0.039
0.039,0.039
0.043,0.038
0.041,0.040
0.041,0.043
0.045,0.043
0.042,0.043
0.044,0.038
0.044,0.038
0.044,0.041
0.046,0.039
0.043,0.040
0.045,0.041
0.044,0.040
0.045,0.042
0.045,0.043
0.044,0.044
0.046,0.042
0.042,0.041
0.043,0.042
0.042,0.039
0.043,0.043
0.045,0.041
0.042,0.043
0.045,0.042
0.045,0.043
0.046,0.039
0.043,0.039
0.045,0.038
0.045,0.038
0.046,0.037
0.047,0.037
0.046,0.035
0.047,0.034
0.046,0.035
0.046,0.034
0.047,0.033
0.045,0.034
0.043,0.034
0.045,0.031
0.048,0.029
0.045,0.030
0.047,0.029
0.047,0.027
0.047,0.030
0.044,0.027
0.047,0.026
0.047,0.025
0.051,0.025
0.048,0.023
0.047,0.023
0.048,0.020
0.047,0.019
0.048,0.016
0.046,0.017
0.047,0.014
0.046,0.016
0.045,0.014
0.047,0.015
0.045,0.014
0.045,0.010
0.047,0.012
0.045,0.013
0.045,0.008
0.046,0.009
0.044,0.006
0.049,0.009
0.047,0.005
0.049,0.006
0.045,0.003
0.049,0.004
0.047,0.001
0.049,0.001
0.048,0.001
0.049,0.002
0.050,0.001
0.048,-0.001
0.046,-0.002
0.047,0.001
0.045,0.003
0.046,0.000
0.046,0.002
0.047,-0.001
0.052,-0.001
0.052,-0.004
0.052,-0.003
0.048,-0.004
0.052,-0.008
0.047,-0.007
0.049,-0.006
0.047,-0.005
0.047,-0.004
0.045,0.001
0.045,-0.003
0.045,-0.001
0.047,-0.003
0.048,-0.003
0.047,-0.004
0.049,-0.001
0.046,-0.003
0.049,-0.003
0.045,-0.005
0.049,-0.004
0.047,0.000
0.047,-0.002
0.044,0.002
0.044,0.000
0.044,0.004
0.044,0.002
0.043,0.001
0.044,0.003
0.045,0.004
0.042,0.002
0.045,0.007
0.044,0.004
0.048,0.006
0.044,0.005
0.049,0.007
0.048,0.008
0.049,0.007
0.047,0.010
0.045,0.010
0.043,0.013
0.041,0.011
0.041,0.017
0.042,0.012
0.043,0.016
0.043,0.016
0.041,0.017
0.042,0.015
0.042,0.019
0.043,0.015
0.043,0.019
0.043,0.019
0.044,0.021
0.042,0.018
0.043,0.019
0.041,0.020
0.041,0.025
0.043,0.022
0.041,0.026
0.043,0.024
0.044,0.026
0.045,0.026
0.045,0.024
0.043,0.026
0.043,0.026
0.042,0.029
0.040,0.031
0.043,0.029
0.043,0.032
0.042,0.030
0.040,0.034
0.042,0.032
0.043,0.036
0.043,0.035
0.041,0.036
0.041,0.038
0.041,0.038
0.042,0.036
0.045,0.039
0.041,0.036
0.045,0.040
0.042,0.036
0.043,0.039
0.041,0.038
0.041,0.043
0.040,0.040
0.039,0.041
0.039,0.042
0.042,0.039
0.041,0.046
0.044,0.043
0.040,0.047
0.040,0.044
0.041,0.045
0.039,0.043
0.041,0.041
0.039,0.042
0.041,0.042
0.041,0.039
0.047,0.046
0.044,0.041
0.044,0.043
0.042,0.043
0.046,0.040
0.043,0.045
0.044,0.043
0.045,0.048
0.045,0.040
0.045,0.045
0.043,0.041
0.042,0.042
0.041,0.041
0.042,0.039
0.042,0.038
0.046,0.036
0.042,0.032
0.047,0.035
0.045,0.032
0.045,0.034
0.045,0.036
0.047,0.032
0.043,0.036
0.045,0.032
0.042,0.033
0.045,0.030
0.045,0.030
0.042,0.025
0.046,0.026
0.043,0.026
0.049,0.024
0.045,0.024
0.047,0.023
0.046,0.021
0.049,0.024
0.046,0.021
0.047,0.021
0.046,0.018
0.047,0.021
0.048,0.017
0.048,0.017
0.048,0.014
0.052,0.013
0.048,0.011
0.048,0.009
0.045,0.009
0.048,0.007
0.046,0.005
0.047,0.007
0.050,0.006
0.047,0.009
0.048,0.004
0.049,0.007
0.047,0.005
0.047,0.003
0.048,0.003
0.050,-0.000
0.049,0.001
0.049,0.001
0.048,0.003
0.049,0.001
0.048,0.003
0.049,0.000
0.047,0.000
0.047,-0.000
0.047,0.003
0.050,-0.002
0.051,-0.002
0.052,-0.005
0.054,-0.005
0.051,-0.008
0.054,-0.008
0.052,-0.006
0.051,-0.007
0.049,-0.005
0.047,-0.007
0.050,-0.003
0.049,-0.004
0.049,-0.003
0.049,-0.001
0.047,-0.005
0.047,-0.007
0.047,-0.004
0.047,-0.006
0.049,-0.003
0.046,-0.004
0.049,-0.002
0.050,-0.004
0.048,-0.003
0.049,-0.001
0.046,-0.002
0.050,-0.001
0.046,-0.001
0.045,0.001
0.041,0.002
0.040,0.003
0.042,0.004
0.041,0.004
0.043,0.003
0.044,0.006
0.044,0.002
0.045,0.005
0.045,0.006
0.046,0.007
0.046,0.006
0.045,0.005
0.048,0.005
0.043,0.009
0.045,0.007
0.045,0.007
0.048,0.010
0.045,0.011
0.045,0.013
0.043,0.013
0.043,0.015
0.042,0.013
0.038,0.015
0.044,0.014
0.041,0.016
0.043,0.016
0.042,0.019
0.042,0.019
0.039,0.021
0.039,0.022
0.040,0.025
0.041,0.024
0.042,0.024
0.045,0.025
0.043,0.023
0.045,0.026
0.044,0.025
0.044,0.025
0.044,0.027
0.044,0.029
0.044,0.028
0.044,0.028
0.045,0.030
0.043,0.030
0.045,0.034
0.041,0.032
0.042,0.038
0.041,0.036
0.041,0.036
0.042,0.035
0.040,0.038
0.039,0.035
0.040,0.034
0.039,0.035
0.043,0.034
0.043,0.034
0.041,0.036
0.042,0.036
0.040,0.037
0.040,0.036
0.040,0.037
0.043,0.040
0.041,0.039
0.040,0.041
0.041,0.039
0.043,0.043
0.041,0.039
0.041,0.041
0.041,0.038
0.039,0.043
0.036,0.042
0.038,0.041
0.037,0.044
0.040,0.042
0.041,0.040
0.041,0.042
0.041,0.041
0.041,0.041
0.042,0.043
0.040,0.040
0.041,0.043
0.044,0.042
0.044,0.041
0.047,0.038
0.045,0.042
0.048,0.037
0.044,0.039
0.044,0.037
0.047,0.035
0.043,0.034
0.044,0.034
0.044,0.033
0.044,0.032
0.048,0.030
0.047,0.033
0.048,0.031
0.047,0.029
0.047,0.031
0.049,0.028
0.047,0.029
0.045,0.028
0.045,0.025
0.043,0.024
0.044,0.023
0.045,0.023
0.048,0.024
0.044,0.023
0.048,0.024
0.046,0.023
0.046,0.023
0.046,0.022
0.048,0.021
0.049,0.016
0.046,0.016
0.049,0.015
0.046,0.014
0.049,0.015
0.046,0.014
0.046,0.011
0.045,0.011
0.049,0.007
0.049,0.010
0.049,0.007
0.050,0.008
0.050,0.008
0.050,0.005
0.053,0.004
0.049,0.003
0.050,0.000
0.051,0.003
0.050,-0.001
0.051,-0.000
0.050,0.001
0.049,0.000
0.046,0.002
0.047,-0.001
0.045,-0.001
0.050,0.000
0.048,0.002
0.049,0.001
0.049,0.001
0.049,-0.001
0.049,-0.003
0.050,-0.004
0.050,-0.002
0.050,-0.004
0.051,-0.003
0.052,-0.006
0.048,-0.005
0.050,-0.004
0.047,-0.002
0.050,-0.001
0.053,-0.002
0.048,-0.003
0.052,-0.005
0.046,-0.004
0.049,-0.004
0.046,-0.003
0.049,-0.006
0.049,-0.004
0.049,-0.005
0.051,-0.004
0.048,-0.003
0.050,-0.000
0.049,0.000
0.048,-0.000
0.049,0.002
0.047,0.001
0.050,0.003
0.046,0.003
0.046,0.003
0.046,0.005
0.044,0.005
0.044,0.005
0.045,0.006
0.046,0.006
0.047,0.010
0.045,0.008
0.048,0.011
0.047,0.011
0.045,0.013
0.046,0.012
0.045,0.011
0.045,0.013
0.045,0.015
0.044,0.015
0.047,0.015
0.041,0.014
0.044,0.015
0.041,0.017
0.044,0.014
0.041,0.018
0.046,0.017
0.042,0.018
0.045,0.019
0.041,0.022
0.043,0.021
0.043,0.024
0.044,0.025
0.045,0.023
0.048,0.025
0.045,0.027
0.047,0.029
0.043,0.025
0.049,0.028
0.044,0.027
0.046,0.031
0.045,0.031
0.045,0.029
0.045,0.032
0.043,0.030
0.043,0.032
0.044,0.031
0.046,0.037
0.047,0.036
0.046,0.036
0.044,0.035
0.044,0.036
0.042,0.036
0.040,0.037
0.040,0.037
0.039,0.040
0.041,0.038
0.043,0.039
0.040,0.039
0.045,0.038
0.040,0.040
0.045,0.037
0.044,0.041
0.044,0.040
0.045,0.041
0.045,0.041
0.045,0.041
0.041,0.040
0.041,0.041
0.040,0.038
0.043,0.041
0.040,0.041
0.040,0.043
0.042,0.042
0.043,0.046
0.043,0.041
0.046,0.043
0.044,0.044
0.045,0.045
0.043,0.043
0.045,0.043
0.046,0.041
0.047,0.039
0.042,0.045
0.044,0.040
0.043,0.042
0.045,0.037
0.043,0.040
0.042,0.037
0.047,0.037
0.041,0.036
0.048,0.036
0.044,0.032
0.046,0.033
0.045,0.032
0.047,0.036
0.045,0.031
0.046,0.029
0.041,0.029
0.046,0.028
0.041,0.029
0.045,0.025
0.041,0.026
0.040,0.024
-0.037,-0.004
-0.044,-0.005
-0.046,0.001
-0.040,0.006
-0.036,0.006
-0.024,0.008
-0.022,0.007
-0.012,0.011
0.065,0.013
0.348,0.002
1.172,-0.012
2.621,-0.221
3.993,-0.704
4.437,-1.278
3.601,-1.395
1.797,-0.375
0.119,1.630
-1.170,3.471
-2.078,4.477
-2.580,5.017
-2.682,4.199
-2.526,1.735
-2.122,-1.018
-1.759,-3.102
-1.477,-4.188
-1.193,-4.119
-0.818,-2.983
-0.396,-1.633
-0.022,-0.728
0.234,-0.285
0.346,-0.126
0.355,-0.089
0.318,-0.084
0.260,-0.082
0.212,-0.081
0.167,-0.072
0.129,-0.056
0.099,-0.042
0.082,-0.028
0.068,-0.015
0.052,-0.001
0.043,-0.003
0.039,-0.008
0.038,-0.021
0.037,-0.031
0.035,-0.034
0.035,-0.033
0.036,-0.038
0.038,-0.039
0.046,-0.037
0.043,-0.038
0.047,-0.037
0.048,-0.037
0.050,-0.037
0.051,-0.037
0.049,-0.037
0.046,-0.029
0.040,-0.029
0.035,-0.029
0.032,-0.029
0.032,-0.026
0.034,-0.030
0.041,-0.026
0.040,-0.032
0.044,-0.030
0.042,-0.029
0.044,-0.029
0.040,-0.027
0.038,-0.027
0.036,-0.021
0.042,-0.023
0.045,-0.018
0.047,-0.020
0.045,-0.016
0.042,-0.016
0.039,-0.014
0.038,-0.014
0.036,-0.010
0.033,-0.009
0.033,-0.008
0.034,-0.009
0.038,-0.010
0.040,-0.012
0.046,-0.012
0.047,-0.012
0.047,-0.010
0.046,-0.007
0.045,-0.006
0.044,-0.003
0.041,-0.003
0.041,-0.001
0.040,0.004
0.041,0.008
0.038,0.009
0.043,0.009
0.042,0.011
0.047,0.011
0.042,0.012
0.044,0.009
0.040,0.012
0.041,0.011
0.043,0.015
0.041,0.016
0.045,0.017
0.044,0.019
0.042,0.025
0.040,0.021
0.042,0.024
0.042,0.025
0.041,0.028
0.040,0.028
0.039,0.029
0.041,0.027
0.044,0.029
0.043,0.026
0.045,0.030
0.042,0.026
0.045,0.028
0.044,0.029
0.046,0.032
0.042,0.034
0.045,0.035
0.042,0.037
0.041,0.037
0.040,0.041
0.042,0.039
0.044,0.039
0.040,0.039
0.041,0.040
0.040,0.039
0.040,0.039
0.041,0.038
0.044,0.042
0.039,0.038
0.041,0.043
0.039,0.041
0.043,0.041
0.041,0.040
0.042,0.040
0.041,0.044
0.042,0.041
0.039,0.043
0.041,0.042
0.039,0.043
0.040,0.041
0.038,0.043
0.037,0.041
0.038,0.041
0.041,0.039
0.041,0.040
0.040,0.038
0.041,0.041
0.042,0.037
0.045,0.039
0.044,0.034
0.046,0.036
0.043,0.035
0.044,0.032
0.043,0.035
0.045,0.033
0.042,0.036
0.044,0.033
0.040,0.032
0.042,0.028
0.042,0.032
0.039,0.030
0.043,0.033
0.043,0.031
0.049,0.030
0.047,0.026
0.048,0.029
0.047,0.026
0.045,0.027
0.046,0.023
0.047,0.022
0.045,0.021
0.047,0.021
0.043,0.019
0.045,0.018
0.045,0.018
0.047,0.019
0.045,0.015
0.046,0.015
0.046,0.012
0.045,0.015
0.046,0.014
0.049,0.015
0.048,0.014
0.049,0.013
0.049,0.008
0.052,0.006
0.051,0.005
0.053,0.007
0.052,0.008
0.050,0.004
0.050,0.008
0.048,0.006
0.050,0.007
0.048,0.006
0.050,0.008
0.050,0.008
0.049,0.008
0.051,0.006
0.049,0.005
0.052,0.005
0.055,0.003
0.052,-0.001
0.052,-0.003
0.053,-0.003
0.054,-0.002
0.051,-0.000
0.052,0.002
0.052,0.003
0.053,0.001
0.053,0.001
0.052,0.000
0.051,0.001
0.052,-0.000
0.053,0.000
0.053,-0.001
0.055,0.000
0.054,0.001
0.054,0.003
0.055,0.004
0.054,0.001
0.054,0.006
0.054,0.004
0.054,0.007
0.053,0.004
0.051,0.007
0.053,0.006
0.054,0.006
0.051,0.007
0.053,0.006
0.051,0.005
0.056,0.006
0.054,0.006
0.055,0.008
0.053,0.008
0.054,0.009
0.054,0.008
0.054,0.009
0.053,0.008
0.052,0.008
0.054,0.012
0.055,0.013
0.051,0.014
0.053,0.014
0.052,0.017
0.052,0.018
0.052,0.019
0.051,0.014
0.051,0.017
0.050,0.016
0.051,0.017
0.050,0.018
0.051,0.021
0.048,0.022
0.045,0.024
0.047,0.027
0.045,0.029
0.050,0.027
0.049,0.030
0.052,0.028
0.051,0.031
0.051,0.027
0.049,0.031
0.051,0.032
0.051,0.033
0.052,0.032
0.050,0.030
0.052,0.029
0.051,0.034
0.050,0.030
0.049,0.033
0.049,0.032
0.049,0.037
0.048,0.036
0.048,0.039
0.049,0.038
0.048,0.040
0.048,0.037
0.054,0.039
0.051,0.039
0.051,0.039
0.049,0.037
0.048,0.038
0.045,0.041
0.045,0.039
0.044,0.046
0.046,0.041
0.045,0.043
0.047,0.042
0.047,0.044
0.048,0.042
0.045,0.045
0.048,0.043
0.047,0.041
0.047,0.040
0.050,0.041
0.048,0.041
0.049,0.043
0.046,0.041
0.047,0.041
0.046,0.043
0.049,0.044
0.047,0.046
0.048,0.043
0.045,0.046
0.046,0.041
0.046,0.045
0.050,0.041
0.050,0.040
0.047,0.039
0.048,0.042
0.045,0.038
0.049,0.038
0.049,0.033
0.050,0.035
0.050,0.034
0.052,0.034
0.049,0.033
0.049,0.034
0.042,0.036
0.045,0.033
0.043,0.034
0.046,0.029
0.044,0.030
0.044,0.028
0.046,0.026
0.046,0.026
0.047,0.028
0.045,0.025
0.049,0.025
0.046,0.022
0.049,0.023
0.050,0.020
0.050,0.018
0.050,0.019
0.052,0.021
0.048,0.019
0.050,0.020
0.051,0.017
0.056,0.017
0.052,0.015
0.056,0.011
0.051,0.010
0.053,0.010
0.051,0.008
0.051,0.010
0.049,0.008
0.051,0.009
0.053,0.007
0.052,0.008
0.054,0.006
0.052,0.005
0.050,0.001
0.052,0.002
0.051,0.003
0.053,-0.003
0.052,0.001
0.050,-0.002
0.051,0.000
0.047,-0.003
0.050,-0.002
0.047,-0.003
0.048,0.000
0.048,-0.001
0.050,-0.002
0.051,-0.002
0.052,-0.003
0.053,-0.005
0.051,-0.007
0.051,-0.005
0.048,-0.007
0.050,-0.006
0.052,-0.007
0.049,-0.007
0.050,-0.008
0.051,-0.005
0.047,-0.007
0.051,-0.006
0.047,-0.005
0.050,-0.004
0.049,-0.007
0.050,-0.005
0.048,-0.008
0.048,-0.007
0.051,-0.005
0.051,-0.007
0.051,-0.004
0.048,-0.006
0.046,-0.000
0.046,-0.004
0.044,-0.002
0.044,-0.003
0.047,0.000
0.045,-0.000
0.050,0.001
0.047,0.002
0.049,0.003
0.047,0.004
0.047,0.003
0.045,0.002
0.043,0.004
0.044,0.006
0.047,0.008
0.045,0.010
0.046,0.008
0.045,0.010
0.045,0.007
0.044,0.008
0.043,0.010
0.046,0.013
0.045,0.012
0.048,0.013
0.043,0.011
0.047,0.011
0.043,0.010
0.044,0.011
0.045,0.014
0.045,0.014
0.044,0.014
0.044,0.015
0.043,0.014
0.044,0.018
0.042,0.020
0.042,0.025
0.044,0.026
0.041,0.028
0.041,0.027
0.041,0.027
0.043,0.030
0.040,0.031
0.044,0.026
0.039,0.030
0.042,0.029
0.041,0.034
0.041,0.031
0.041,0.033
0.041,0.033
0.041,0.037
0.042,0.034
0.042,0.037
0.040,0.034
0.043,0.037
0.039,0.035
0.045,0.037
0.043,0.035
0.046,0.035
0.046,0.036
0.045,0.035
0.043,0.035
0.042,0.036
0.043,0.039
0.042,0.039
0.042,0.041
0.044,0.042
0.041,0.044
0.042,0.042
0.042,0.044
0.042,0.043
0.046,0.044
0.043,0.041
0.045,0.043
0.043,0.039
0.045,0.039
0.047,0.038
0.044,0.040
0.042,0.041
0.040,0.043
0.041,0.042
0.044,0.043
0.040,0.046
0.041,0.042
0.040,0.043
0.042,0.043
0.044,0.043
0.042,0.041
0.045,0.040
0.044,0.037
0.046,0.040
0.043,0.039
0.046,0.037
0.044,0.037
0.046,0.035
0.047,0.036
0.045,0.034
0.047,0.035
0.045,0.033
0.046,0.033
0.045,0.033
0.045,0.032
0.045,0.032
0.048,0.032
0.046,0.026
0.048,0.029
0.048,0.024
0.047,0.027
0.048,0.024
0.049,0.023
0.045,0.027
0.046,0.023
0.046,0.024
0.044,0.019
0.046,0.021
0.048,0.020
0.047,0.019
0.046,0.015
0.049,0.015
0.050,0.013
0.049,0.011
0.048,0.008
0.045,0.008
0.046,0.007
0.048,0.006
0.048,0.007
0.048,0.008
0.047,0.008
0.048,0.007
0.049,0.008
0.049,0.005
0.049,0.006
0.048,0.003
0.050,0.003
0.046,0.006
0.047,0.002
0.046,0.004
0.046,0.004
0.044,0.000
0.046,0.001
0.046,0.001
0.047,0.002
0.046,0.001
0.042,-0.004
0.045,-0.003
0.045,-0.006
0.047,-0.004
0.048,-0.004
0.049,-0.006
0.047,-0.005
0.046,-0.006
0.045,-0.004
0.044,-0.005
0.043,-0.003
0.043,-0.003
0.043,-0.003
0.043,-0.003
0.045,-0.003
0.047,-0.004
0.045,-0.003
0.047,-0.006
0.047,-0.005
0.046,-0.006
0.048,-0.007
0.045,-0.004
0.048,-0.005
0.043,-0.003
0.047,-0.003
0.041,-0.000
0.044,-0.002
0.042,0.001
0.043,0.002
0.046,0.000
0.048,0.002
0.048,-0.001
0.047,0.000
0.046,0.002
0.045,0.004
0.043,0.004
0.043,0.004
0.043,0.003
0.042,0.005
0.044,0.006
0.040,0.008
0.043,0.007
0.041,0.009
0.042,0.009
0.040,0.009
0.040,0.008
0.043,0.010
0.041,0.010
0.043,0.012
0.042,0.012
0.043,0.013
0.042,0.012
0.040,0.015
0.042,0.014
0.041,0.018
0.037,0.015
0.040,0.023
0.036,0.021
0.037,0.021
0.038,0.024
0.039,0.024
0.038,0.022
0.039,0.028
0.041,0.025
0.040,0.028
0.037,0.026
0.039,0.029
0.040,0.026
0.039,0.029
0.037,0.027
0.039,0.029
0.037,0.031
0.039,0.033
0.036,0.034
0.042,0.036
0.041,0.037
0.042,0.037
0.040,0.035
0.040,0.036
0.040,0.036
0.039,0.036
0.044,0.035
0.041,0.035
0.043,0.038
0.040,0.037
0.043,0.041
0.039,0.038
0.038,0.043
0.037,0.041
0.038,0.042
0.039,0.041
0.038,0.043
0.038,0.045
0.036,0.044
0.039,0.044
0.038,0.043
0.040,0.040
0.040,0.043
0.041,0.037
0.042,0.041
0.042,0.040
0.042,0.038
0.043,0.041
0.045,0.041
0.041,0.044
0.044,0.045
0.042,0.048
0.045,0.044
0.044,0.043
0.045,0.042
0.045,0.041
0.044,0.043
0.044,0.042
0.042,0.039
0.044,0.038
0.045,0.039
0.047,0.036
0.046,0.038
0.045,0.037
0.047,0.036
0.047,0.036
0.044,0.037
0.045,0.035
0.044,0.037
0.045,0.034
0.045,0.035
0.044,0.033
0.044,0.033
0.044,0.031
0.047,0.030
0.044,0.025
0.048,0.026
0.049,0.026
0.046,0.025
0.047,0.024
0.045,0.023
0.048,0.023
0.048,0.025
0.046,0.022
0.048,0.021
0.048,0.021
0.050,0.016
0.050,0.019
0.048,0.014
0.050,0.016
0.049,0.012
0.049,0.011
0.050,0.011
0.049,0.010
0.048,0.009
0.049,0.008
0.051,0.008
0.050,0.008
0.053,0.009
0.048,0.005
0.048,0.002
0.049,0.005
0.049,0.003
0.049,0.006
0.048,0.004
0.050,0.004
0.049,0.004
0.044,0.001
0.047,-0.000
0.047,0.002
0.045,0.003
0.048,0.004
0.048,0.003
0.047,0.002
0.048,-0.002
0.051,-0.002
0.049,-0.004
0.049,-0.002
0.048,-0.002
0.049,-0.006
0.046,-0.003
0.050,-0.005
0.047,-0.002
0.046,-0.005
0.049,-0.001
0.046,-0.001
0.048,-0.000
0.048,-0.001
0.049,-0.003
0.047,-0.004
0.045,-0.002
0.047,-0.003
0.043,-0.007
0.045,-0.001
0.044,-0.003
0.038,0.000
0.042,-0.001
0.036,0.001
0.040,0.001
0.036,0.003
0.037,0.004
0.041,0.006
0.041,0.003
0.045,0.003
0.048,0.003
0.049,0.001
0.047,0.003
0.045,0.003
0.044,0.006
0.043,0.003
0.043,0.007
0.043,0.008
0.042,0.008
0.041,0.012
0.039,0.011
0.042,0.010
0.041,0.012
0.043,0.011
0.045,0.014
0.044,0.011
0.046,0.013
0.043,0.010
0.046,0.010
0.045,0.011
0.045,0.012
0.043,0.012
0.040,0.014
0.043,0.016
0.042,0.015
0.042,0.018
0.039,0.022
0.038,0.022
0.038,0.026
0.039,0.027
0.040,0.029
0.039,0.028
0.041,0.029
0.040,0.026
0.038,0.029
0.040,0.031
0.037,0.031
0.037,0.029
0.040,0.035
0.040,0.034
0.036,0.035
0.040,0.036
0.038,0.038
0.041,0.035
0.041,0.037
0.039,0.033
0.043,0.036
0.041,0.034
0.043,0.035
0.043,0.036
0.041,0.031
0.042,0.038
0.039,0.038
0.039,0.040
0.040,0.041
0.041,0.043
0.038,0.044
0.041,0.045
0.041,0.042
0.040,0.042
0.044,0.041
0.046,0.042
0.043,0.041
0.045,0.041
0.046,0.039
0.044,0.038
0.043,0.039
0.045,0.038
0.041,0.038
0.043,0.038
0.042,0.043
0.040,0.041
0.040,0.047
0.040,0.045
0.038,0.046
0.039,0.042
0.042,0.042
0.039,0.041
0.040,0.045
0.039,0.039
0.045,0.040
0.044,0.036
0.047,0.039
0.043,0.036
0.046,0.035
0.045,0.035
0.046,0.032
0.044,0.035
0.045,0.034
0.044,0.037
0.043,0.035
0.044,0.034
0.041,0.031
0.042,0.033
0.041,0.033
0.044,0.031
0.044,0.026
0.048,0.027
0.049,0.022
0.047,0.025
0.045,0.024
0.047,0.023
0.045,0.021
0.048,0.021
0.044,0.020
0.049,0.018
0.048,0.020
0.047,0.017
0.049,0.015
0.047,0.015
0.047,0.011
0.047,0.012
0.046,0.011
0.048,0.010
0.048,0.011
0.049,0.011
0.048,0.008
0.047,0.009
0.047,0.005
0.047,0.008
0.045,0.005
0.046,0.007
0.044,0.004
0.047,0.005
0.047,0.002
0.050,0.000
0.048,0.002
0.050,-0.000
0.048,-0.001
0.049,-0.002
0.048,-0.000
0.049,-0.001
0.046,0.001
0.046,0.001
0.049,0.000
0.049,0.001
0.047,0.000
0.048,-0.004
0.048,-0.003
0.048,-0.006
0.049,-0.007
0.049,-0.009
0.048,-0.007
0.047,-0.003
0.047,-0.005
0.041,-0.003
0.041,-0.005
0.043,-0.003
0.044,-0.004
0.044,-0.004
0.044,-0.006
0.045,-0.003
0.046,-0.004
0.046,-0.007
0.047,-0.006
0.049,-0.005
0.047,-0.007
0.045,-0.003
0.045,-0.001
0.045,-0.001
0.044,0.003
0.045,0.001
0.041,0.003
0.044,0.000
0.042,0.003
0.048,0.001
0.043,0.001
0.046,0.001
0.044,0.003
0.044,0.003
0.046,0.002
0.047,0.002
0.047,0.003
0.047,0.004
0.045,0.006
0.045,0.004
0.045,0.006
0.045,0.010
0.043,0.011
0.041,0.012
0.043,0.011
0.041,0.011
0.043,0.013
0.040,0.012
0.044,0.014
0.043,0.016
0.041,0.014
0.041,0.017
0.041,0.015
0.039,0.017
0.040,0.014
0.039,0.017
0.040,0.019
0.036,0.021
0.041,0.022
0.039,0.024
0.040,0.022
0.041,0.028
0.041,0.027
0.046,0.028
0.041,0.026
0.044,0.026
0.041,0.027
0.041,0.031
0.041,0.030
0.043,0.031
0.043,0.031
0.043,0.033
0.043,0.030
0.042,0.033
0.043,0.036
0.041,0.035
0.044,0.034
0.044,0.034
0.047,0.035
0.046,0.034
0.044,0.034
0.045,0.036
0.045,0.033
0.044,0.035
0.043,0.037
0.045,0.037
0.045,0.039
0.048,0.039
0.045,0.045
0.041,0.039
0.041,0.041
0.041,0.039
0.042,0.039
0.041,0.039
0.040,0.040
0.041,0.043
0.041,0.040
0.043,0.041
0.042,0.039
0.041,0.038
0.042,0.042
0.042,0.040
0.043,0.040
0.041,0.040
0.042,0.040
0.043,0.044
0.043,0.041
0.040,0.044
0.040,0.041
0.041,0.041
0.039,0.041
0.040,0.041
0.043,0.039
0.043,0.037
0.044,0.038
0.044,0.037
0.045,0.035
0.047,0.036
0.045,0.033
0.046,0.036
0.046,0.034
0.046,0.032
0.045,0.031
0.046,0.031
0.046,0.032
0.044,0.029
0.046,0.030
0.047,0.026
0.047,0.029
0.044,0.029
0.045,0.028
0.044,0.027
0.045,0.025
0.045,0.024
0.045,0.024
0.043,0.022
0.045,0.023
0.045,0.022
0.045,0.020
0.044,0.018
0.045,0.014
0.043,0.015
0.045,0.011
0.046,0.010
0.045,0.010
0.046,0.007
0.046,0.010
0.047,0.007
0.048,0.008
0.047,0.008
0.047,0.009
0.044,0.006
0.046,0.006
0.045,0.005
0.048,0.004
0.049,0.001
0.052,0.002
0.049,0.000
0.052,0.000
0.045,-0.001
0.050,-0.002
0.045,-0.001
0.047,-0.003
0.045,-0.001
0.048,-0.002
0.045,0.002
0.048,-0.002
0.047,0.002
0.045,-0.003
0.048,-0.004
0.047,-0.005
0.050,-0.006
0.045,-0.009
0.050,-0.009
0.046,-0.007
0.051,-0.005
0.048,-0.003
0.049,-0.005
0.047,-0.002
0.047,-0.005
0.047,-0.002
0.049,-0.001
0.046,-0.003
0.048,-0.005
0.046,-0.003
0.047,-0.006
0.048,-0.003
0.047,-0.004
0.052,-0.002
0.048,-0.003
0.047,-0.003
0.047,-0.002
0.048,0.000
0.046,0.002
0.048,0.001
0.043,0.002
0.045,0.002
0.045,0.005
0.048,0.001
0.045,0.007
0.044,0.002
0.045,0.005
0.046,0.007
0.048,0.006
0.043,0.004
0.048,0.006
0.045,0.006
0.046,0.007
0.044,0.006
0.045,0.006
0.044,0.008
0.044,0.012
0.045,0.012
0.045,0.013
0.046,0.015
0.045,0.012
0.043,0.015
0.046,0.015
0.043,0.017
0.043,0.014
0.043,0.018
0.046,0.013
0.044,0.019
0.041,0.018
0.043,0.023
0.042,0.022
0.041,0.023
0.042,0.025
0.042,0.024
0.042,0.024
0.047,0.025
0.045,0.025
0.046,0.028
0.044,0.026
0.042,0.026
0.040,0.028
0.042,0.029
0.041,0.030
0.038,0.031
0.042,0.032
0.041,0.032
0.042,0.034
0.038,0.035
0.040,0.034
0.038,0.037
0.041,0.035
0.042,0.037
0.043,0.036
0.042,0.035
0.044,0.039
0.037,0.038
0.040,0.034
0.039,0.037
0.038,0.034
0.041,0.037
0.043,0.035
0.041,0.039
0.042,0.041
0.043,0.038
0.040,0.041
0.043,0.039
0.042,0.043
0.044,0.039
0.040,0.041
0.042,0.037
0.043,0.042
0.044,0.041
0.037,0.043
0.042,0.041
0.043,0.042
0.044,0.043
0.045,0.041
0.042,0.040
0.046,0.041
0.046,0.039
0.045,0.038
0.048,0.041
0.046,0.038
0.048,0.038
0.047,0.038
0.046,0.038
0.045,0.035
0.045,0.036
0.045,0.034
0.040,0.035
0.044,0.035
0.045,0.035
0.046,0.032
0.046,0.036
0.044,0.032
0.047,0.029
0.046,0.032
0.047,0.027
0.048,0.027
0.048,0.027
0.047,0.026
0.048,0.027
0.045,0.027
0.046,0.024
0.046,0.026
0.050,0.024
0.046,0.025
0.046,0.022
0.045,0.026
0.049,0.023
0.048,0.023
0.051,0.019
0.050,0.015
0.050,0.016
0.051,0.013
0.052,0.014
0.048,0.011
0.051,0.009
0.046,0.010
0.048,0.009
0.045,0.010
0.049,0.009
0.045,0.009
0.048,0.006
0.048,0.007
0.051,0.004
0.052,0.005
0.051,0.004
0.051,0.005
0.050,0.001
0.049,0.000
0.045,-0.001
0.045,0.000
0.043,-0.003
0.046,-0.001
0.044,-0.002
0.047,-0.002
0.045,-0.002
0.050,-0.003
0.049,0.001
0.052,-0.001
0.048,-0.002
0.049,-0.005
0.050,-0.004
0.049,-0.006
0.051,-0.005
0.047,-0.005
0.052,-0.005
0.049,-0.005
0.049,-0.006
0.048,-0.006
0.049,-0.004
0.047,-0.004
0.051,-0.004
0.048,-0.004
0.050,-0.006
0.045,-0.002
0.045,-0.006
0.043,-0.001
0.046,-0.005
0.042,-0.002
0.045,-0.007
0.044,-0.003
0.043,-0.005
0.046,-0.003
0.044,-0.002
0.046,-0.002
0.045,-0.002
0.049,-0.002
0.048,0.003
0.049,0.002
0.047,0.005
0.049,0.005
0.046,0.007
0.045,0.006
0.046,0.006
0.046,0.006
0.044,0.006
0.044,0.007
0.043,0.008
0.041,0.007
0.043,0.010
0.041,0.009
0.045,0.009
0.044,0.009
0.045,0.011
0.044,0.013
0.047,0.010
0.045,0.015
0.046,0.013
0.044,0.013
0.044,0.014
0.041,0.018
0.041,0.018
0.038,0.014
0.044,0.018
0.040,0.020
0.044,0.022
0.041,0.022
0.048,0.026
0.045,0.024
0.046,0.026
0.041,0.025
0.042,0.029
0.039,0.027
0.042,0.027
0.039,0.026
0.039,0.028
0.038,0.028
0.037,0.031
0.037,0.032
0.037,0.034
0.036,0.032
0.040,0.033
0.040,0.035
0.044,0.035
0.044,0.038
0.047,0.033
0.045,0.036
0.045,0.035
0.042,0.038
0.041,0.036
0.041,0.037
0.037,0.038
0.039,0.039
0.037,0.042
0.039,0.042
0.043,0.041
0.045,0.041
0.047,0.038
0.046,0.039
0.048,0.038
0.043,0.037
0.044,0.040
0.045,0.037
0.043,0.043
0.042,0.039
0.043,0.043
0.045,0.042
0.045,0.043
0.045,0.042
0.045,0.043
0.045,0.043
0.045,0.043
0.044,0.043
0.045,0.043
0.047,0.041
0.046,0.040
0.048,0.039
0.047,0.037
0.050,0.038
0.051,0.039
0.051,0.041
0.048,0.038
0.048,0.041
0.047,0.038
0.047,0.040
0.043,0.036
0.047,0.037
0.044,0.032
0.046,0.034
0.043,0.033
0.046,0.029
0.047,0.032
0.047,0.029
0.047,0.030
0.047,0.029
0.049,0.029
0.048,0.027
0.048,0.027
0.046,0.025
0.044,0.027
0.048,0.023
0.048,0.024
0.049,0.022
0.049,0.023
0.051,0.020
0.049,0.020
0.049,0.019
0.050,0.017
0.050,0.014
0.051,0.016
0.053,0.010
0.051,0.012
0.053,0.010
0.050,0.012
0.050,0.009
0.049,0.012
0.047,0.008
0.048,0.010
0.049,0.007
0.050,0.004
0.052,0.001
0.049,0.001
0.052,0.002
0.051,0.001
0.053,0.001
0.050,0.002
0.045,-0.003
0.047,-0.001
0.042,-0.003
0.044,-0.001
0.045,0.000
0.049,-0.005
0.052,-0.002
0.060,-0.005
0.061,-0.002
0.060,-0.005
0.055,-0.004
0.050,-0.004
0.046,-0.004
0.044,-0.006
0.049,-0.006
0.052,-0.006
0.056,-0.007
0.057,-0.011
0.053,-0.005
0.047,-0.009
0.045,-0.004
0.037,-0.003
0.032,-0.001
0.025,-0.000
0.024,-0.003
0.027,0.001
0.039,-0.004
0.045,-0.005
0.050,-0.008
0.054,-0.007
0.054,-0.008
0.052,-0.004
0.050,-0.003
0.053,0.006
0.049,0.007
0.047,0.006
0.045,0.006
0.044,0.006
0.039,0.005
0.039,0.007
0.034,0.008
0.033,0.006
0.035,0.007
0.037,0.006
0.040,0.005
0.041,0.006
0.043,0.006
0.044,0.005
0.046,0.003
0.046,0.004
0.048,0.008
0.048,0.006
0.050,0.007
0.046,0.009
0.049,0.013
0.049,0.020
0.049,0.023
0.050,0.029
0.050,0.032
0.047,0.030
0.042,0.026
0.039,0.021
0.037,0.020
0.037,0.014
0.041,0.014
0.038,0.015
0.042,0.016
0.040,0.015
0.042,0.017
0.039,0.024
0.039,0.028
0.039,0.030
0.041,0.033
0.040,0.031
0.041,0.035
0.041,0.032
0.041,0.036
0.038,0.033
0.043,0.035
0.042,0.033
0.048,0.034
0.044,0.034
0.045,0.032
0.043,0.035
0.044,0.032
0.044,0.034
0.044,0.034
0.042,0.035
0.039,0.035
0.041,0.038
0.041,0.036
0.044,0.039
0.044,0.038
0.042,0.039
0.037,0.037
0.033,0.039
0.031,0.039
0.032,0.041
0.028,0.038
0.031,0.043
0.036,0.038
0.047,0.042
0.052,0.041
0.055,0.040
0.050,0.040
0.051,0.040
0.047,0.045
0.047,0.047
0.046,0.053
0.046,0.049
0.045,0.049
0.044,0.052
0.049,0.065
0.047,0.074
0.048,0.088
0.047,0.085
0.049,0.072
0.048,0.043
0.049,0.018
0.045,0.001
0.047,0.002
0.046,0.012
0.049,0.018
0.045,0.026
0.049,0.027
0.047,0.029
0.047,0.027
0.045,0.032
0.042,0.031
0.044,0.033
0.043,0.033
0.049,0.038
0.056,0.044
0.069,0.050
0.071,0.058
0.067,0.066
0.056,0.065
0.046,0.052
0.036,0.034
0.033,0.012
0.032,-0.004
0.036,-0.009
0.036,-0.008
0.040,-0.003
0.039,0.003
0.044,0.004
0.043,0.007
0.049,0.003
0.047,0.006
0.048,0.003
0.048,0.003
0.045,0.001
0.049,0.004
0.050,0.002
0.054,0.003
0.054,0.001
0.057,0.005
0.055,0.002
0.056,0.005
0.057,0.001
0.056,0.004
0.054,0.002
0.049,0.007
0.044,0.010
0.039,0.012
0.034,0.014
0.037,0.019
0.036,0.026
0.042,0.035
0.045,0.025
0.048,0.001
0.050,-0.018
0.050,-0.023
0.053,-0.028
0.056,-0.023
0.058,-0.021
0.060,-0.015
0.061,-0.009
0.064,-0.010
0.062,-0.006
0.058,-0.009
0.052,-0.005
0.046,-0.009
0.043,-0.006
0.036,-0.007
0.034,-0.007
0.030,-0.010
0.031,-0.007
0.032,-0.000
0.034,0.002
0.042,0.010
0.045,0.010
0.047,0.013
0.049,0.010
0.048,0.010
0.050,0.007
0.050,0.004
0.050,0.004
0.051,0.009
0.048,-0.005
0.052,-0.025
0.049,-0.036
0.048,-0.030
0.041,-0.021
0.039,-0.013
0.035,-0.005
0.035,-0.003
0.035,0.004
0.037,0.001
0.042,0.010
0.047,0.013
0.049,0.020
0.049,0.017
0.052,0.013
0.049,0.011
0.049,0.017
0.049,0.017
0.050,0.020
0.051,0.016
0.053,0.015
0.051,0.016
0.049,0.029
0.046,0.028
0.043,0.030
0.040,0.035
0.040,0.033
0.039,0.014
0.036,0.001
0.033,-0.011
0.036,-0.011
0.030,-0.009
0.036,-0.001
0.038,0.001
0.045,0.005
0.048,0.009
0.043,0.018
0.042,0.021
0.039,0.026
0.038,0.032
0.037,0.036
0.032,0.038
0.032,0.039
0.034,0.041
0.035,0.042
0.039,0.043
0.039,0.041
0.043,0.035
0.041,0.036
0.042,0.044
0.045,0.060
0.042,0.074
0.043,0.084
0.043,0.078
0.045,0.058
0.042,0.036
0.041,0.019
0.041,0.020
0.041,0.025
0.040,0.035
0.044,0.044
0.042,0.054
0.042,0.061
0.042,0.058
0.040,0.043
0.039,0.021
0.037,0.009
0.038,0.008
0.041,0.018
0.043,0.023
0.045,0.026
0.045,0.026
0.048,0.028
0.050,0.032
0.051,0.036
0.049,0.033
0.045,0.034
0.039,0.035
0.032,0.036
0.036,0.036
0.032,0.038
0.031,0.037
0.035,0.036
0.055,0.037
0.064,0.037
0.057,0.037
0.041,0.038
0.027,0.044
0.029,0.049
0.038,0.050
0.042,0.054
0.045,0.058
0.040,0.060
0.039,0.067
0.042,0.074
0.049,0.079
0.055,0.060
0.052,0.034
0.046,0.009
0.043,-0.003
0.040,-0.004
0.043,0.003
0.045,0.008
0.046,0.018
0.044,0.032
0.044,0.045
0.043,0.059
0.040,0.057
0.036,0.050
0.033,0.027
0.031,0.005
0.028,-0.007
0.023,-0.008
0.025,-0.005
0.042,-0.002
0.065,0.000
0.075,0.001
0.071,-0.003
0.057,-0.003
0.051,-0.004
0.046,-0.011
0.048,-0.009
0.047,-0.013
0.050,-0.009
0.045,-0.008
0.045,0.003
0.042,0.009
0.044,0.010
0.045,0.010
0.050,0.005
0.053,0.003
0.056,-0.003
0.056,-0.004
0.053,-0.007
0.048,-0.003
0.047,0.001
0.043,0.010
0.039,0.005
0.039,0.008
0.041,0.003
0.049,0.003
0.048,-0.002
0.051,-0.001
0.052,-0.003
0.053,-0.003
0.052,-0.004
0.052,-0.007
0.049,-0.007
0.049,-0.010
0.049,-0.008
0.049,-0.011
0.049,-0.008
0.045,-0.010
0.042,-0.008
0.039,-0.011
0.043,-0.010
0.043,-0.012
0.047,-0.010
0.050,-0.013
0.054,-0.010
0.060,-0.007
0.063,-0.011
0.058,-0.008
0.053,-0.009
0.040,-0.007
0.029,-0.006
0.017,0.000
0.014,0.004
0.024,0.010
0.036,0.010
0.052,0.011
0.058,0.005
0.059,0.006
0.055,0.002
0.058,0.003
0.056,-0.003
0.055,-0.003
0.050,0.002
0.049,0.005
0.046,0.011
0.044,0.011
0.045,0.017
0.046,0.016
0.046,0.021
0.045,0.026
0.042,0.037
0.041,0.037
0.040,0.020
0.043,0.000
0.040,-0.007
0.042,-0.008
0.048,0.001
0.049,0.003
0.052,0.012
0.049,0.020
0.051,0.034
0.043,0.049
0.044,0.062
0.037,0.055
0.034,0.034
0.034,0.004
0.031,-0.019
0.032,-0.018
0.026,-0.013
0.027,-0.003
0.024,0.010
0.026,0.015
0.024,0.022
0.028,0.023
0.030,0.028
0.042,0.025
0.049,0.028
0.054,0.031
0.050,0.028
0.051,0.024
0.042,0.024
0.045,0.023
0.041,0.024
0.040,0.019
0.041,0.023
0.039,0.023
0.044,0.026
0.042,0.026
0.046,0.029
0.041,0.029
0.044,0.033
0.040,0.038
0.041,0.042
0.039,0.043
0.042,0.039
0.041,0.039
0.043,0.033
0.040,0.035
0.042,0.032
0.039,0.036
0.038,0.035
0.040,0.041
0.039,0.044
0.042,0.043
0.040,0.042
0.045,0.043
0.042,0.041
0.047,0.041
0.044,0.040
0.043,0.039
0.043,0.041
0.042,0.040
0.041,0.040
0.042,0.037
0.041,0.034
0.047,0.034
0.044,0.037
0.044,0.033
0.041,0.036
0.038,0.034
0.039,0.036
0.040,0.032
0.042,0.032
0.041,0.032
0.043,0.031
0.042,0.029
0.045,0.028
0.046,0.026
0.049,0.026
0.049,0.027
0.051,0.023
0.050,0.024
0.052,0.022
0.046,0.021
0.042,0.023
0.034,0.022
0.033,0.019
0.031,0.023
0.031,0.020
0.034,0.021
0.039,0.019
0.052,0.020
0.054,0.020
0.057,0.020
0.054,0.017
0.058,0.015
0.058,0.015
0.065,0.015
0.062,0.010
0.061,0.013
0.054,0.010
0.045,0.014
0.035,0.016
0.030,0.025
0.031,0.032
0.039,0.036
0.038,0.015
0.045,-0.006
0.042,-0.016
0.042,-0.020
0.039,-0.016
0.036,-0.009
0.030,-0.003
0.037,-0.001
0.056,-0.000
0.072,-0.003
0.076,-0.003
0.069,-0.006
0.059,-0.005
0.052,-0.006
0.047,-0.002
0.046,0.000
0.041,0.004
0.039,0.002
0.042,0.003
0.044,0.003
0.052,0.019
0.049,0.025
0.051,0.038
0.047,0.032
0.048,0.012
0.046,-0.012
0.043,-0.033
0.041,-0.034
0.041,-0.031
0.045,-0.025
0.046,-0.020
0.044,-0.017
0.047,-0.016
0.048,-0.014
0.047,-0.014
0.048,-0.007
0.046,-0.007
0.046,0.004
0.044,-0.001
0.048,0.002
0.044,-0.001
0.045,0.000
0.041,0.000
0.042,-0.000
0.041,0.003
0.043,-0.002
0.042,-0.001
0.040,-0.001
0.042,0.000
0.041,-0.002
0.043,-0.002
0.041,0.000
0.043,0.003
0.043,0.002
0.045,0.004
0.044,-0.000
0.045,0.002
0.044,0.000
0.049,0.004
0.047,0.004
0.048,0.007
0.046,0.010
0.046,0.007
0.042,0.013
0.044,0.013
0.042,0.013
0.042,0.011
0.045,0.009
0.044,0.008
0.045,0.007
0.044,0.006
0.042,0.011
0.040,0.011
0.042,0.017
0.046,0.016
0.058,0.021
0.063,0.020
0.067,0.024
0.059,0.025
0.050,0.026
0.036,0.027
0.030,0.027
0.032,0.028
0.035,0.023
0.044,0.021
0.044,0.020
0.046,0.022
0.041,0.021
0.042,0.026
0.040,0.026
0.042,0.027
0.040,0.032
0.041,0.030
0.040,0.032
0.043,0.032
0.040,0.032
0.041,0.032
0.040,0.030
0.043,0.035
0.045,0.034
0.047,0.033
0.044,0.035
0.046,0.033
0.046,0.037
0.045,0.034
0.044,0.038
0.043,0.036
0.042,0.039
0.037,0.042
0.041,0.039
0.038,0.041
0.039,0.039
0.039,0.042
0.040,0.042
0.038,0.041
0.039,0.043
0.037,0.041
0.038,0.038
0.041,0.040
0.039,0.038
0.041,0.040
0.043,0.038
0.043,0.038
0.042,0.039
0.043,0.040
0.041,0.039
0.044,0.039
0.042,0.041
0.044,0.043
0.042,0.046
0.046,0.043
0.046,0.045
0.046,0.050
0.048,0.061
0.051,0.072
0.054,0.076
0.053,0.066
0.054,0.041
0.052,0.018
0.047,0.002
0.044,0.004
0.043,0.007
0.046,0.016
0.047,0.018
0.052,0.020
0.052,0.017
0.047,0.017
0.043,0.017
0.044,0.018
0.046,0.018
0.051,0.018
0.048,0.014
0.043,0.013
0.037,0.010
0.029,0.012
0.017,0.012
0.021,0.015
0.033,0.015
0.056,0.015
0.068,0.014
0.066,0.015
0.063,0.013
0.056,0.010
0.053,0.004
0.049,0.004
0.045,0.004
0.048,0.009
0.048,0.008
0.049,0.010
0.047,0.007
0.051,0.009
0.045,0.006
0.046,0.005
0.041,0.000
0.036,0.000
0.036,0.000
0.044,0.000
0.050,0.000
0.055,-0.003
0.056,0.002
0.056,-0.001
0.052,0.002
0.049,-0.002
0.047,0.001
0.045,-0.000
0.048,-0.002
0.047,-0.003
0.051,-0.005
0.049,-0.004
0.051,-0.005
0.049,-0.004
0.049,-0.003
0.046,-0.004
0.047,-0.004
0.045,-0.003
0.048,-0.005
0.044,-0.004
0.047,-0.008
0.045,-0.006
0.049,-0.011
0.047,-0.006
0.048,-0.005
0.049,-0.004
0.046,-0.006
0.047,-0.005
0.047,-0.007
0.052,-0.007
0.053,-0.004
0.057,-0.003
0.058,-0.001
0.058,-0.003
0.052,-0.001
0.051,0.000
0.045,0.002
0.043,0.002
0.043,0.004
0.043,0.002
0.044,0.003
0.045,0.002
0.045,0.002
0.041,-0.000
0.044,-0.000
0.045,-0.001
0.045,-0.003
0.046,0.001
0.044,0.001
0.043,0.005
0.043,0.011
0.040,0.016
0.040,0.015
0.036,0.014
0.039,0.011
0.042,0.013
0.046,0.011
0.046,0.015
0.049,0.015
0.047,0.016
0.049,0.015
0.046,0.018
0.043,0.017
0.038,0.019
0.035,0.020
0.036,0.022
0.033,0.022
0.032,0.024
0.033,0.025
0.043,0.029
0.049,0.026
0.056,0.028
0.056,0.024
0.053,0.030
0.047,0.028
0.045,0.031
0.045,0.029
0.046,0.032
0.051,0.030
0.052,0.032
0.053,0.031
0.050,0.032
0.051,0.034
0.048,0.036
0.047,0.034
0.040,0.035
0.036,0.035
0.040,0.038
0.041,0.032
0.044,0.034
0.041,0.034
0.042,0.033
0.042,0.036
0.041,0.037
0.041,0.041
0.044,0.039
0.048,0.039
0.051,0.041
0.057,0.041
0.054,0.039
0.046,0.041
0.041,0.042
0.028,0.041
0.020,0.043
0.014,0.043
0.020,0.042
0.029,0.044
0.040,0.044
0.049,0.042
0.049,0.037
0.048,0.040
0.045,0.041
0.042,0.043
0.038,0.047
0.037,0.042
0.036,0.043
0.036,0.049
0.039,0.063
0.039,0.079
0.042,0.083
0.041,0.069
0.042,0.043
0.039,0.020
0.040,0.010
0.039,0.008
0.039,0.011
0.042,0.019
0.039,0.021
0.041,0.028
0.046,0.029
0.049,0.029
0.052,0.028
0.054,0.028
0.055,0.028
0.050,0.028
0.048,0.026
0.051,0.027
0.048,0.024
0.049,0.023
0.042,0.020
0.045,0.021
0.045,0.021
0.045,0.022
0.043,0.018
0.049,0.019
0.047,0.017
0.049,0.013
0.049,0.010
0.049,0.013
0.048,0.011
0.050,0.011
0.049,0.007
0.053,0.004
0.053,0.005
0.056,0.003
0.055,0.003
0.059,0.003
0.060,0.002
0.057,0.004
0.053,-0.000
0.051,0.002
0.045,-0.001
0.044,0.003
0.035,0.003
0.040,0.002
0.043,0.004
0.052,0.002
0.049,0.002
0.051,-0.001
0.048,-0.000
0.046,0.002
0.045,0.001
0.044,0.001
0.045,-0.002
0.046,-0.001
0.047,-0.004
0.050,-0.005
0.051,-0.005
0.053,-0.009
0.055,-0.007
0.061,-0.008
0.061,-0.009
0.058,-0.007
0.058,-0.007
0.051,-0.005
0.046,-0.007
0.038,-0.003
0.037,-0.003
0.041,-0.007
0.046,-0.012
0.050,-0.011
0.052,-0.007
0.052,-0.003
0.053,0.001
0.050,-0.002
0.048,-0.002
0.048,-0.004
0.048,-0.002
0.047,-0.003
0.045,0.001
0.040,0.000
0.040,0.000
0.040,0.001
0.041,0.000
0.049,0.002
0.054,0.004
0.058,0.002
0.058,0.004
0.052,0.001
0.046,0.003
0.039,0.009
0.031,0.008
0.027,0.011
0.026,0.010
0.033,0.015
0.039,0.013
0.044,0.015
0.044,0.012
0.046,0.013
0.044,0.014
0.044,0.013
0.043,0.013
0.042,0.014
0.041,0.016
0.040,0.016
0.039,0.013
0.041,0.018
0.042,0.014
0.043,0.018
0.044,0.017
0.042,0.021
0.041,0.023
0.041,0.022
0.041,0.025
0.039,0.026
0.044,0.028
0.041,0.028
0.046,0.030
0.041,0.030
0.045,0.028
0.044,0.031
0.045,0.027
0.041,0.031
0.039,0.030
0.038,0.035
0.036,0.031
0.041,0.035
0.040,0.035
0.039,0.033
0.040,0.034
0.042,0.032
0.038,0.030
0.043,0.031
0.040,0.030
0.044,0.036
0.044,0.036
0.050,0.036
0.053,0.039
0.054,0.041
0.055,0.043
0.051,0.042
0.044,0.046
0.036,0.042
0.024,0.045
0.017,0.042
0.018,0.041
0.024,0.039
0.030,0.041
0.035,0.038
0.046,0.039
0.051,0.039
0.061,0.039
0.056,0.037
0.056,0.040
0.047,0.043
0.043,0.043
0.041,0.047
0.041,0.046
0.041,0.047
0.041,0.044
0.043,0.043
0.045,0.042
0.047,0.043
0.049,0.041
0.047,0.036
0.039,0.032
0.033,0.032
0.023,0.030
0.020,0.033
0.010,0.033
0.017,0.034
0.035,0.036
0.061,0.035
0.071,0.035
0.074,0.030
0.072,0.032
0.070,0.027
0.069,0.027
0.063,0.027
0.058,0.030
0.047,0.031
0.037,0.035
0.026,0.032
0.023,0.031
0.015,0.029
0.015,0.029
0.019,0.020
0.032,0.019
0.039,0.015
0.047,0.016
0.048,0.021
0.063,0.025
0.075,0.029
0.081,0.028
0.073,0.023
0.064,0.019
0.053,0.015
0.047,0.010
0.039,0.010
0.033,0.009
0.031,0.009
0.040,0.011
0.045,0.012
0.051,0.018
0.051,0.015
0.048,0.012
0.045,0.013
0.046,0.025
0.045,0.037
0.047,0.045
0.047,0.044
0.047,0.023
0.046,-0.002
0.044,-0.024
0.044,-0.025
0.041,-0.022
0.040,-0.016
0.043,-0.013
0.046,-0.011
0.047,-0.013
0.048,-0.009
0.049,-0.011
0.052,-0.009
0.055,-0.009
0.055,-0.010
0.060,-0.007
0.062,-0.011
0.059,-0.010
0.049,-0.012
0.040,-0.009
0.025,-0.008
0.015,-0.006
0.007,-0.004
0.016,0.000
0.036,0.000
0.056,-0.001
0.060,-0.001
0.059,-0.004
0.055,-0.005
0.053,-0.007
0.051,-0.009
0.051,-0.008
0.051,-0.009
0.050,-0.007
0.050,-0.005
0.048,-0.005
0.048,-0.001
0.050,-0.000
0.048,0.003
0.045,0.001
0.045,0.002
0.041,0.005
0.045,0.004
0.041,0.006
0.043,0.003
0.041,0.003
0.045,0.004
0.045,0.006
0.045,0.005
0.047,0.005
0.045,0.005
0.044,0.010
0.039,0.008
0.036,0.010
0.036,0.010
0.037,0.010
0.041,0.008
0.045,0.010
0.045,0.010
0.049,0.014
0.045,0.013
0.044,0.018
0.043,0.014
0.044,0.016
0.042,0.014
0.042,0.015
0.045,0.015
0.046,0.018
0.043,0.018
0.044,0.019
0.046,0.018
0.044,0.019
0.050,0.020
0.051,0.023
0.057,0.020
0.061,0.023
0.064,0.021
0.056,0.026
0.041,0.026
0.022,0.031
0.006,0.031
0.004,0.035
0.004,0.037
0.005,0.041
0.021,0.043
0.042,0.042
0.063,0.038
0.070,0.040
0.060,0.036
0.054,0.039
0.046,0.038
0.047,0.038
0.043,0.035
0.044,0.037
0.043,0.035
0.045,0.037
0.042,0.038
0.044,0.039
0.042,0.041
0.040,0.041
0.041,0.044
0.041,0.043
0.039,0.045
0.041,0.044
0.039,0.044
0.041,0.039
0.043,0.042
0.043,0.039
0.048,0.043
0.041,0.042
0.043,0.046
0.036,0.046
0.036,0.047
0.035,0.047
0.043,0.045
0.044,0.047
0.050,0.039
0.046,0.041
0.049,0.038
0.045,0.036
0.044,0.034
0.039,0.030
0.040,0.030
0.038,0.030
0.039,0.033
0.042,0.039
0.043,0.042
0.043,0.047
0.044,0.045
0.045,0.045
0.046,0.045
0.050,0.040
0.048,0.039
0.050,0.036
0.050,0.038
0.050,0.029
0.049,0.032
0.051,0.031
0.050,0.027
0.052,0.029
0.049,0.023
0.049,0.026
0.049,0.025
0.048,0.025
0.048,0.028
0.047,0.024
0.048,0.026
0.046,0.022
0.048,0.023
0.046,0.019
0.049,0.017
0.046,0.012
0.049,0.014
0.048,0.013
0.052,0.012
0.047,0.008
0.048,0.010
0.047,0.007
0.051,0.008
0.048,0.007
0.049,0.009
0.046,0.005
0.049,0.008
0.047,0.004
0.051,0.006
0.047,0.006
0.049,0.003
0.050,0.002
0.052,0.000
0.051,-0.000
0.049,-0.001
0.049,0.000
0.047,0.001
0.046,0.002
0.047,0.000
0.048,0.003
0.049,-0.001
0.047,0.000
0.047,-0.002
0.053,-0.001
0.049,-0.006
0.053,-0.002
0.050,-0.007
0.047,-0.007
0.043,-0.007
0.047,-0.006
0.042,-0.003
0.040,-0.004
0.041,-0.003
0.039,-0.001
0.040,0.001
0.043,0.002
0.046,0.001
0.044,-0.002
0.048,-0.003
0.049,-0.003
0.054,-0.004
0.055,-0.007
0.056,-0.005
0.055,-0.007
0.058,-0.005
0.053,-0.001
0.055,-0.002
0.050,0.003
0.051,0.003
0.046,0.006
0.046,-0.001
0.045,0.007
0.042,0.003
0.043,0.004
0.043,0.007
0.045,0.007
0.041,0.006
0.047,0.009
0.043,0.008
0.048,0.011
0.044,0.009
0.043,0.011
0.043,0.012
0.041,0.013
0.042,0.013
0.047,0.010
0.045,0.015
0.050,0.012
0.051,0.015
0.050,0.015
0.049,0.018
0.045,0.015
0.044,0.017
0.040,0.017
0.041,0.021
0.041,0.019
0.045,0.023
0.047,0.022
0.047,0.026
0.048,0.024
0.049,0.026
0.045,0.029
0.041,0.031
0.037,0.035
0.038,0.037
0.045,0.035
0.047,0.034
0.050,0.031
0.046,0.033
0.047,0.034
0.045,0.037
0.044,0.033
0.040,0.037
0.043,0.035
0.039,0.035
0.040,0.039
0.038,0.038
0.038,0.037
0.041,0.041
0.046,0.037
0.045,0.037
0.045,0.036
0.043,0.038
0.040,0.035
0.040,0.037
0.041,0.036
0.044,0.035
0.047,0.038
0.060,0.036
0.061,0.041
0.061,0.044
0.052,0.045
0.044,0.046
0.036,0.046
0.032,0.048
0.026,0.048
0.030,0.048
0.029,0.048
0.039,0.044
0.041,0.046
0.042,0.044
0.044,0.049
0.041,0.046
0.044,0.047
0.042,0.045
0.045,0.045
0.041,0.046
0.046,0.044
0.043,0.046
0.044,0.043
0.044,0.044
0.047,0.044
0.045,0.043
0.045,0.040
0.045,0.041
0.045,0.041
0.045,0.039
0.045,0.041
0.047,0.036
0.046,0.036
0.048,0.036
0.046,0.034
0.047,0.034
0.049,0.032
0.049,0.031
0.050,0.034
0.048,0.032
0.043,0.034
0.045,0.031
0.044,0.031
0.046,0.027
0.045,0.030
0.045,0.028
0.045,0.029
0.048,0.025
0.049,0.026
0.047,0.025
0.050,0.024
0.047,0.023
0.049,0.023
0.051,0.019
0.050,0.020
0.049,0.017
0.049,0.018
0.047,0.013
0.049,0.014
0.048,0.012
0.051,0.011
0.047,0.011
0.050,0.011
0.049,0.013
0.049,0.013
0.049,0.008
0.048,0.009
0.048,0.005
0.054,0.006
0.049,0.004
0.055,0.002
0.052,0.002
0.052,0.001
0.054,0.005
0.050,0.002
0.051,0.005
0.050,0.003
0.049,0.004
0.049,0.002
0.048,0.003
0.047,0.001
0.047,0.002
0.047,0.001
0.048,-0.001
0.048,-0.004
0.047,-0.003
0.050,-0.003
0.052,-0.004
0.050,-0.002
0.051,-0.003
0.050,-0.002
0.052,-0.002
0.047,0.001
0.049,-0.002
0.045,-0.000
0.046,-0.003
0.049,-0.003
0.046,-0.006
0.050,-0.002
0.049,-0.003
0.049,-0.003
0.047,-0.004
0.047,-0.001
0.047,0.001
0.044,0.001
0.043,0.004
0.045,0.003
0.043,0.006
0.043,0.002
0.043,0.007
0.043,0.003
0.043,0.004
0.042,0.006
0.042,0.007
0.041,0.005
0.043,0.007
0.044,0.008
0.047,0.009
0.041,0.009
0.045,0.012
0.043,0.007
0.046,0.007
0.047,0.011
0.047,0.009
0.046,0.010
0.045,0.010
0.044,0.015
0.044,0.015
0.036,0.017
0.038,0.016
0.032,0.018
0.034,0.020
0.031,0.023
0.036,0.022
0.037,0.024
0.040,0.023
0.044,0.024
0.048,0.023
0.048,0.025
0.046,0.027
0.048,0.026
0.044,0.025
0.047,0.030
0.045,0.028
0.047,0.028
0.046,0.029
0.046,0.027
0.046,0.032
0.045,0.032
0.045,0.033
0.042,0.034
0.046,0.034
0.042,0.035
0.046,0.035
0.040,0.038
0.041,0.039
0.040,0.041
0.040,0.041
0.040,0.042
0.041,0.040
0.043,0.040
0.044,0.039
0.045,0.041
0.044,0.038
0.043,0.039
0.044,0.036
0.041,0.042
0.043,0.040
0.041,0.042
0.038,0.045
0.040,0.044
0.038,0.050
0.044,0.048
0.040,0.047
0.043,0.044
0.044,0.044
0.045,0.044
0.045,0.042
0.044,0.043
0.044,0.044
0.044,0.045
0.044,0.046
0.045,0.043
0.043,0.044
0.042,0.046
0.046,0.045
0.041,0.046
0.047,0.046
0.047,0.049
0.048,0.045
0.043,0.046
0.046,0.046
0.045,0.045
0.045,0.046
0.043,0.044
0.043,0.042
0.045,0.041
0.043,0.039
0.045,0.039
0.043,0.035
0.045,0.036
0.042,0.036
0.041,0.037
0.036,0.041
0.035,0.038
0.031,0.039
0.038,0.036
0.040,0.037
0.045,0.034
0.049,0.031
0.050,0.028
0.052,0.026
0.053,0.026
0.052,0.027
0.052,0.024
0.053,0.026
0.055,0.023
0.052,0.026
0.052,0.021
0.054,0.025
0.052,0.021
0.056,0.021
0.051,0.017
0.053,0.013
0.049,0.010
0.051,0.010
0.049,0.007
0.051,0.011
0.048,0.010
0.051,0.010
0.048,0.009
0.052,0.008
0.047,0.008
0.050,0.009
0.044,0.009
0.043,0.006
0.046,0.008
0.045,0.006
0.050,0.007
0.050,0.004
0.050,0.006
0.049,0.002
0.050,0.004
0.050,0.001
0.050,0.003
0.047,0.002
0.054,0.001
0.052,0.002
0.052,-0.001
0.052,0.000
0.052,-0.002
0.050,-0.005
0.049,-0.003
0.051,-0.002
0.049,-0.004
0.047,-0.003
0.049,-0.004
0.046,-0.001
0.047,-0.002
0.049,0.000
0.047,-0.004
0.049,-0.001
0.048,-0.004
0.052,-0.004
0.051,-0.003
0.051,-0.000
0.047,-0.000
0.049,-0.002
0.048,0.002
0.048,-0.003
0.046,0.001
0.047,0.001
0.047,0.003
0.046,-0.000
0.047,0.001
0.047,0.000
0.049,0.004
0.047,0.004
0.049,0.007
0.045,0.004
0.048,0.006
0.047,0.004
0.052,0.007
0.048,0.007
0.047,0.006
0.043,0.008
0.043,0.004
0.041,0.007
0.043,0.006
0.042,0.011
0.040,0.013
0.041,0.014
0.042,0.014
0.042,0.015
0.045,0.015
0.045,0.017
0.045,0.016
0.045,0.019
0.042,0.015
0.047,0.015
0.042,0.014
0.044,0.017
0.042,0.018
0.040,0.019
0.041,0.023
0.039,0.026
0.041,0.025
0.038,0.031
0.042,0.028
0.040,0.030
0.045,0.026
0.045,0.029
0.046,0.027
0.045,0.031
0.049,0.029
0.045,0.032
0.048,0.028
0.042,0.034
0.041,0.031
0.038,0.032
0.039,0.034
0.042,0.036
0.039,0.034
0.042,0.036
0.038,0.035
0.041,0.036
0.043,0.033
0.046,0.036
0.045,0.032
0.047,0.034
0.044,0.030
0.046,0.033
0.043,0.032
0.041,0.030
0.041,0.036
0.040,0.035
0.039,0.042
0.040,0.041
0.042,0.045
0.044,0.047
0.046,0.049
0.047,0.048
0.046,0.048
0.044,0.046
0.044,0.044
0.041,0.042
0.042,0.040
0.042,0.038
0.045,0.042
0.041,0.041
0.045,0.041
0.042,0.044
0.045,0.040
0.043,0.044
0.045,0.042
0.041,0.043
0.045,0.042
0.044,0.044
0.039,0.041
0.042,0.041
0.040,0.041
0.044,0.038
0.043,0.036
0.047,0.037
0.046,0.036
0.048,0.035
0.048,0.036
0.050,0.032
0.049,0.034
0.050,0.033
0.047,0.034
0.049,0.031
0.046,0.033
0.048,0.029
0.046,0.030
0.045,0.029
0.049,0.029
0.044,0.026
0.049,0.028
0.049,0.024
0.051,0.026
0.049,0.023
0.049,0.024
0.049,0.022
0.049,0.022
0.049,0.021
0.050,0.019
0.051,0.019
0.052,0.017
0.052,0.016
0.054,0.015
0.049,0.012
0.051,0.011
0.047,0.010
0.050,0.013
0.049,0.011
0.049,0.011
0.051,0.008
0.050,0.010
0.050,0.007
0.050,0.007
0.050,0.008
0.050,0.007
0.052,0.007
0.051,0.003
0.050,0.004
0.047,0.002
0.049,0.006
0.046,0.006
0.046,0.006
0.048,0.002
0.048,0.004
0.048,0.002
0.049,0.002
0.049,0.002
0.050,0.002
0.051,0.000
0.052,-0.001
0.052,-0.000
0.052,-0.003
0.053,-0.002
0.051,-0.004
0.051,-0.002
0.050,0.000
0.049,0.002
0.049,0.001
0.049,-0.001
0.049,-0.002
0.049,-0.003
0.047,-0.004
0.047,-0.003
0.048,-0.004
0.046,-0.004
0.048,-0.005
0.047,-0.002
0.047,0.000
0.048,-0.000
0.046,0.003
0.046,0.004
0.045,0.003
0.047,0.002
0.046,0.004
0.045,-0.000
0.045,0.003
0.043,0.004
0.047,0.006
0.044,0.003
0.048,0.006
0.045,0.004
0.049,0.006
0.047,0.008
0.046,0.007
0.047,0.010
0.047,0.007
0.046,0.013
0.047,0.011
0.047,0.013
0.046,0.013
0.047,0.016
0.046,0.013
0.044,0.014
0.045,0.013
0.049,0.014
0.047,0.011
0.049,0.015
0.045,0.015
0.045,0.016
0.045,0.016
0.045,0.019
0.041,0.018
0.042,0.020
0.043,0.023
0.042,0.027
0.040,0.027
0.041,0.029
0.043,0.028
0.041,0.032
0.044,0.030
0.043,0.035
0.042,0.031
0.044,0.032
0.045,0.032
0.044,0.033
0.047,0.032
0.043,0.034
0.046,0.034
0.042,0.035
0.044,0.033
0.044,0.037
0.044,0.039
0.045,0.040
0.046,0.038
0.047,0.040
0.045,0.037
0.047,0.039
0.045,0.037
0.045,0.039
0.044,0.041
0.046,0.040
0.043,0.044
0.044,0.042
0.042,0.045
0.045,0.042
0.042,0.047
0.043,0.044
0.040,0.047
0.038,0.045
0.044,0.046
0.041,0.044
0.043,0.047
0.042,0.043
0.043,0.045
0.043,0.041
0.042,0.045
0.045,0.043
0.043,0.046
0.044,0.045
0.046,0.043
0.043,0.046
0.046,0.046
0.041,0.048
0.044,0.045
0.045,0.047
0.045,0.043
0.046,0.045
0.044,0.045
0.046,0.045
0.045,0.041
0.048,0.041
0.047,0.037
0.047,0.037
0.047,0.036
0.048,0.036
0.050,0.036
0.051,0.035
0.046,0.034
0.050,0.033
0.046,0.035
0.047,0.033
0.047,0.034
0.047,0.032
0.050,0.033
0.046,0.032
0.049,0.028
0.046,0.023
0.048,0.024
0.046,0.024
0.049,0.026
0.046,0.025
0.047,0.026
0.048,0.022
0.051,0.022
0.051,0.021
0.052,0.017
0.048,0.021
0.050,0.016
0.048,0.015
0.050,0.014
0.049,0.010
0.050,0.013
0.049,0.011
0.046,0.014
0.048,0.011
0.048,0.010
0.048,0.008
0.049,0.004
0.049,0.001
0.050,0.002
0.051,0.007
0.049,0.003
0.050,0.005
0.050,0.004
0.048,0.004
0.049,0.004
0.049,0.000
0.048,0.003
0.046,0.002
0.047,0.001
0.045,0.003
0.047,-0.000
0.046,0.003
0.047,0.001
0.051,0.000
0.050,0.000
0.050,-0.002
0.050,0.001
0.048,-0.002
0.048,0.000
0.047,-0.001
0.045,0.001
0.045,-0.001
0.045,0.001
0.046,-0.001
0.046,-0.003
0.042,-0.003
0.049,-0.002
0.049,-0.003
0.049,-0.002
0.050,-0.003
0.049,-0.003
0.049,-0.003
0.047,-0.003
0.046,0.001
0.043,0.001
0.043,0.003
0.043,0.000
0.043,0.004
0.044,0.003
0.044,0.004
0.047,0.006
0.050,0.005
0.046,0.005
0.050,0.006
0.047,0.006
0.050,0.003
0.050,0.004
0.047,0.001
0.048,0.006
0.043,0.005
0.043,0.008
0.042,0.008
0.043,0.011
0.040,0.011
0.040,0.014
0.044,0.013
0.044,0.016
0.041,0.014
0.045,0.016
0.042,0.017
0.045,0.017
0.043,0.016
0.045,0.017
0.041,0.017
0.041,0.016
0.043,0.018
0.045,0.021
0.043,0.020
0.042,0.020
0.042,0.021
0.040,0.024
0.040,0.027
0.039,0.026
0.041,0.029
0.039,0.029
0.043,0.029
0.041,0.033
0.045,0.032
0.042,0.033
0.044,0.029
0.042,0.034
0.043,0.032
0.041,0.034
0.041,0.033
0.041,0.038
0.040,0.035
0.043,0.036
0.039,0.038
0.041,0.037
0.037,0.037
0.042,0.036
0.040,0.034
0.045,0.037
0.040,0.033
0.043,0.035
0.042,0.034
0.043,0.036
0.040,0.036
0.041,0.038
0.037,0.042
0.042,0.039
0.039,0.045
0.042,0.043
0.042,0.048
0.042,0.043
0.042,0.045
0.039,0.042
0.044,0.042
0.042,0.040
0.045,0.043
0.043,0.040
0.043,0.043
0.042,0.040
0.044,0.041
0.044,0.042
0.046,0.041
0.041,0.044
0.044,0.041
0.039,0.045
0.045,0.039
0.043,0.043
0.044,0.039
0.045,0.042
0.044,0.039
0.047,0.039
0.045,0.036
0.049,0.037
0.043,0.036
0.048,0.034
0.048,0.035
0.046,0.035
0.045,0.036
0.047,0.036
0.044,0.036
0.045,0.035
0.044,0.035
0.045,0.035
0.045,0.032
0.046,0.031
0.045,0.031
0.047,0.028
0.046,0.029
0.048,0.025
0.050,0.029
0.045,0.025
0.049,0.026
0.046,0.025
0.047,0.024
0.047,0.023
0.048,0.023
0.048,0.019
0.052,0.020
0.048,0.015
0.052,0.018
0.050,0.013
0.053,0.015
0.049,0.012
0.048,0.011
0.047,0.011
0.047,0.010
0.048,0.010
0.045,0.010
0.046,0.007
0.048,0.009
0.047,0.006
0.050,0.007
0.047,0.004
0.049,0.007
0.050,0.006
0.049,0.004
0.050,0.004
0.049,0.001
0.049,0.004
0.048,0.002
0.047,0.002
0.046,0.001
0.047,0.001
0.045,0.001
0.049,0.001
0.046,0.003
0.047,0.001
0.049,-0.000
0.049,-0.003
0.050,-0.003
0.050,-0.003
0.049,-0.003
0.049,-0.005
0.046,-0.000
0.047,-0.003
0.047,0.001
0.047,-0.002
0.049,0.000
0.048,-0.001
0.049,-0.004
0.048,-0.003
0.049,-0.006
0.045,-0.004
0.047,-0.002
0.050,-0.003
0.049,-0.006
0.050,-0.001
0.048,-0.003
0.045,0.000
0.047,-0.001
0.044,0.002
0.045,0.001
0.046,0.005
0.045,0.004
0.045,0.004
0.043,0.002
0.047,0.003
0.046,0.004
0.046,0.004
0.048,0.005
0.048,0.005
0.049,0.006
0.046,0.005
0.047,0.007
0.047,0.009
0.047,0.013
0.046,0.010
0.045,0.014
0.045,0.013
0.044,0.016
0.044,0.013
0.046,0.016
0.045,0.017
0.046,0.014
0.043,0.016
0.046,0.014
0.041,0.016
0.043,0.017
0.041,0.019
0.042,0.020
0.041,0.020
0.038,0.021
0.040,0.024
0.040,0.025
0.044,0.028
0.041,0.028
0.042,0.027
0.041,0.029
0.043,0.028
0.040,0.028
0.044,0.026
0.039,0.027
0.039,0.024
0.039,0.028
0.037,0.029
0.039,0.032
0.040,0.031
0.041,0.033
0.040,0.035
0.041,0.036
0.042,0.034
0.044,0.037
0.040,0.033
0.045,0.036
0.041,0.035
0.046,0.033
0.041,0.034
0.043,0.033
0.043,0.036
0.044,0.036
0.044,0.036
0.044,0.039
0.042,0.044
0.039,0.039
0.039,0.040
0.039,0.041
0.041,0.040
0.042,0.039
0.040,0.040
0.041,0.036
0.041,0.038
0.042,0.038
0.042,0.040
0.039,0.036
0.041,0.042
0.041,0.038
0.043,0.037
0.041,0.044
0.040,0.041
0.040,0.046
0.040,0.044
0.039,0.043
0.043,0.043
0.043,0.041
0.043,0.045
0.042,0.045
0.041,0.042
0.043,0.042
0.041,0.037
0.045,0.038
0.042,0.037
0.047,0.037
0.043,0.035
0.044,0.034
0.042,0.036
0.043,0.033
0.042,0.036
0.043,0.034
0.045,0.036
0.044,0.033
0.044,0.033
0.045,0.032
0.044,0.029
0.044,0.028
0.046,0.030
0.046,0.025
0.047,0.029
0.046,0.025
0.047,0.025
0.042,0.023
0.047,0.024
0.047,0.021
0.049,0.022
0.044,0.022
0.049,0.022
0.048,0.019
0.046,0.016
0.047,0.010
0.047,0.010
0.048,0.012
0.045,0.011
0.045,0.010
0.045,0.011
0.046,0.009
0.043,0.007
0.047,0.007
0.045,0.007
0.047,0.003
0.045,0.007
0.047,0.002
0.048,0.002
0.046,-0.001
0.048,0.002
0.046,0.002
0.045,0.001
0.046,-0.000
0.047,0.002
0.043,0.000
0.045,0.002
0.046,0.005
0.045,0.001
0.043,0.002
0.045,0.000
0.047,-0.001
0.047,-0.003
0.048,-0.002
0.048,-0.006
0.049,-0.005
0.047,-0.007
0.048,-0.006
0.049,-0.008
0.048,-0.007
0.048,-0.005
0.049,-0.006
0.045,-0.004
0.048,-0.005
0.048,-0.003
0.048,-0.004
0.048,-0.003
0.048,-0.003
0.043,-0.004
0.045,-0.004
0.045,-0.003
0.049,-0.004
0.048,-0.003
0.047,-0.003
0.047,-0.001
0.045,-0.002
0.045,-0.001
0.044,0.001
0.046,0.002
0.041,0.004
0.044,0.004
0.042,0.006
0.042,0.003
0.043,0.006
0.041,0.006
0.042,0.007
0.043,0.008
0.042,0.008
0.043,0.006
0.043,0.009
0.043,0.009
0.044,0.010
0.044,0.008
0.044,0.011
0.042,0.014
0.043,0.011
0.041,0.013
0.044,0.015
0.043,0.015
0.046,0.013
0.042,0.017
0.044,0.012
0.043,0.015
0.044,0.013
0.043,0.013
0.043,0.017
0.041,0.018
0.043,0.021
0.044,0.021
0.044,0.023
0.043,0.024
0.046,0.023
0.041,0.024
0.043,0.027
0.039,0.026
0.041,0.028
0.040,0.026
0.040,0.028
0.042,0.028
0.041,0.031
0.038,0.031
0.040,0.032
0.041,0.032
0.039,0.031
0.041,0.033
0.041,0.033
0.040,0.035
0.042,0.035
0.040,0.038
0.040,0.037
0.039,0.039
0.037,0.040
0.038,0.039
0.040,0.039
0.037,0.039
0.038,0.039
0.038,0.040
0.041,0.038
0.041,0.040
0.042,0.039
0.043,0.041
0.043,0.042
0.040,0.039
0.041,0.039
0.042,0.037
0.042,0.040
0.041,0.039
0.040,0.041
0.038,0.039
0.039,0.043
0.039,0.041
0.042,0.040
0.038,0.040
0.041,0.042
0.039,0.039
0.043,0.040
0.042,0.041
0.043,0.041
0.044,0.041
0.041,0.042
0.042,0.040
0.040,0.037
0.042,0.039
0.040,0.037
0.041,0.039
0.042,0.036
0.039,0.037
0.039,0.036
0.041,0.036
0.039,0.032
0.043,0.032
0.040,0.029
0.045,0.030
0.045,0.028
0.044,0.027
0.045,0.029
0.044,0.026
0.046,0.026
0.045,0.026
0.045,0.026
0.045,0.024
0.045,0.027
0.044,0.024
0.041,0.026
0.043,0.022
0.044,0.023
0.048,0.020
0.049,0.022
0.047,0.017
0.046,0.018
0.048,0.014
0.047,0.017
0.046,0.013
0.046,0.013
0.045,0.010
0.044,0.012
0.047,0.011
0.045,0.010
0.045,0.008
0.042,0.012
0.045,0.006
0.043,0.010
0.045,0.008
0.043,0.010
0.046,0.009
0.043,0.007
0.045,0.006
0.045,0.004
0.045,0.002
0.045,0.001
0.045,-0.003
0.044,-0.001
0.044,0.002
0.046,0.003
0.045,0.000
0.047,0.002
0.045,0.000
0.048,0.000
0.046,0.001
0.049,-0.003
0.046,-0.004
0.047,-0.004
0.047,-0.004
0.047,-0.003
0.050,-0.004
0.048,-0.004
0.046,-0.004
0.048,-0.007
0.047,-0.005
0.046,-0.006
0.046,-0.003
0.046,-0.006
0.049,-0.005
0.045,0.000
0.048,-0.004
0.046,-0.002
0.045,-0.004
0.042,-0.003
0.044,-0.003
0.041,-0.000
0.043,-0.001
0.044,-0.002
0.043,0.000
0.045,0.001
0.043,0.000
0.043,0.003
0.044,0.002
0.046,0.003
0.047,0.003
0.044,0.002
0.046,0.005
0.046,0.007
0.043,0.009
0.045,0.007
0.043,0.010
0.045,0.009
0.046,0.010
0.045,0.008
0.044,0.010
0.042,0.009
0.043,0.008
0.045,0.008
0.045,0.012
0.043,0.010
0.045,0.014
0.045,0.010
0.044,0.016
0.044,0.017
0.047,0.017
0.042,0.017
0.045,0.019
0.040,0.017
0.044,0.021
0.038,0.021
0.041,0.026
0.039,0.024
0.041,0.024
0.041,0.024
0.042,0.030
0.039,0.028
0.040,0.030
0.039,0.029
0.039,0.029
0.038,0.029
0.039,0.031
0.035,0.032
0.037,0.031
0.037,0.034
0.041,0.032
0.038,0.032
0.040,0.036
0.041,0.035
0.043,0.036
0.045,0.034
0.044,0.036
0.046,0.036
0.041,0.034
0.043,0.037
0.040,0.035
0.038,0.038
0.039,0.035
0.037,0.039
0.036,0.038
0.038,0.042
0.037,0.040
0.043,0.042
0.041,0.042
0.046,0.040
0.040,0.040
0.040,0.041
0.043,0.041
0.041,0.040
0.042,0.041
0.041,0.041
0.043,0.043
0.040,0.041
0.038,0.044
0.040,0.042
0.040,0.043
0.039,0.043
0.041,0.043
0.038,0.041
0.044,0.043
0.042,0.041
0.046,0.044
0.041,0.040
0.048,0.041
0.044,0.037
0.045,0.037
0.046,0.035
0.046,0.037
0.044,0.036
0.043,0.036
0.042,0.040
0.041,0.037
0.044,0.039
0.043,0.035
0.045,0.035
0.045,0.032
0.045,0.032
0.042,0.030
0.047,0.031
0.046,0.029
0.046,0.027
0.046,0.026
0.047,0.026
0.047,0.030
0.047,0.025
0.046,0.028
0.044,0.023
0.045,0.023
0.046,0.022
0.045,0.025
0.045,0.024
0.045,0.023
0.048,0.022
0.047,0.023
0.050,0.017
0.049,0.018
0.050,0.012
0.049,0.011
0.051,0.008
0.051,0.012
0.049,0.009
0.050,0.010
0.048,0.009
0.047,0.009
0.051,0.007
0.048,0.010
0.049,0.006
0.048,0.004
0.052,0.006
0.048,0.005
0.049,0.003
0.046,0.001
0.049,0.002
0.049,0.001
0.050,0.003
0.049,0.002
0.047,-0.000
0.048,0.001
0.049,0.001
0.050,-0.002
0.051,-0.001
0.050,-0.002
0.052,0.001
0.050,-0.003
0.048,-0.002
0.047,-0.005
0.046,-0.004
0.046,-0.003
0.046,-0.004
0.046,-0.004
0.048,-0.004
0.048,-0.002
0.047,-0.003
0.049,-0.002
0.049,-0.002
0.051,-0.003
0.048,-0.003
0.047,-0.001
0.047,-0.005
0.045,-0.000
0.048,-0.005
0.047,-0.000
0.044,-0.003
0.046,-0.003
0.043,-0.001
0.048,-0.002
0.044,-0.002
0.048,-0.003
0.048,-0.002
0.047,0.003
0.048,0.001
0.047,0.000
0.048,0.003
0.048,0.004
0.045,0.005
0.047,0.005
0.044,0.008
0.047,0.006
0.045,0.008
0.043,0.007
0.044,0.011
0.040,0.007
0.043,0.011
0.041,0.009
0.045,0.011
0.043,0.010
0.045,0.012
0.044,0.013
0.045,0.013
0.045,0.017
0.046,0.014
0.047,0.016
0.047,0.016
0.045,0.017
0.043,0.020
0.043,0.018
0.045,0.022
0.040,0.021
0.042,0.024
0.039,0.024
0.042,0.026
0.041,0.029
0.042,0.031
0.042,0.032
0.044,0.030
0.041,0.032
0.043,0.032
0.041,0.030
0.040,0.034
0.041,0.032
0.045,0.036
0.043,0.035
0.045,0.037
0.043,0.036
0.045,0.038
0.043,0.036
0.047,0.037
0.046,0.038
0.045,0.037
0.045,0.039
0.046,0.037
0.046,0.038
0.044,0.037
0.041,0.038
0.043,0.039
0.041,0.038
0.045,0.041
0.043,0.042
0.044,0.041
0.046,0.047
0.044,0.044
0.047,0.043
0.043,0.041
0.046,0.040
0.045,0.039
0.045,0.037
0.045,0.041
0.045,0.040
0.044,0.044
0.043,0.044
0.041,0.043
0.043,0.043
0.040,0.048
0.042,0.043
0.039,0.044
0.041,0.041
0.045,0.043
0.042,0.042
0.045,0.041
0.046,0.039
0.050,0.038
0.047,0.035
0.048,0.032
0.046,0.037
0.047,0.036
0.046,0.037
0.045,0.036
0.045,0.036
0.046,0.034
0.046,0.032
0.049,0.034
0.047,0.034
0.049,0.032
0.049,0.033
0.048,0.031
0.049,0.031
0.048,0.027
0.050,0.027
0.046,0.025
0.049,0.025
0.047,0.029
0.050,0.027
0.046,0.029
0.049,0.026
0.045,0.026
0.047,0.023
0.047,0.024
0.050,0.022
0.050,0.019
0.052,0.018
0.050,0.016
0.049,0.011
0.047,0.012
0.051,0.012
0.047,0.012
0.047,0.007
0.047,0.010
0.046,0.008
0.047,0.010
0.048,0.004
0.050,0.007
0.047,0.004
0.051,0.005
0.051,0.003
0.052,0.005
0.050,0.000
0.048,0.001
0.047,-0.002
0.049,-0.000
0.048,-0.001
0.052,0.001
0.048,-0.003
0.051,-0.003
0.047,-0.002
0.049,-0.004
0.050,-0.002
0.047,-0.003
0.049,-0.003
0.046,-0.004
0.049,-0.004
0.049,-0.007
0.049,-0.005
0.048,-0.005
0.049,-0.006
0.045,-0.006
0.048,-0.004
0.047,-0.009
0.049,-0.007
0.047,-0.010
0.049,-0.006
0.047,-0.005
0.049,-0.007
0.046,-0.004
0.048,-0.009
0.049,-0.002
0.047,-0.007
0.047,-0.001
0.047,-0.004
0.045,-0.003
0.047,-0.003
0.046,-0.001
0.045,0.001
0.047,0.003
0.046,-0.001
0.047,0.003
0.049,-0.001
0.050,0.000
0.048,-0.002
0.049,0.000
0.044,0.005
0.047,0.001
0.044,0.006
0.045,0.007
0.044,0.007
0.044,0.004
0.043,0.007
0.046,0.008
0.045,0.009
0.043,0.010
0.046,0.012
0.043,0.010
0.044,0.016
0.043,0.009
0.046,0.013
0.043,0.012
0.045,0.014
0.044,0.012
0.045,0.013
0.042,0.017
0.045,0.014
0.045,0.016
0.044,0.017
0.044,0.018
0.044,0.022
0.042,0.021
0.043,0.024
0.041,0.023
0.043,0.026
0.040,0.025
0.042,0.027
0.043,0.026
0.041,0.028
0.041,0.030
0.041,0.030
0.042,0.026
0.043,0.031
0.042,0.029
0.043,0.030
0.039,0.030
0.046,0.032
0.040,0.031
0.045,0.032
0.041,0.033
0.045,0.033
0.044,0.034
0.045,0.035
0.043,0.034
0.044,0.034
0.043,0.036
0.043,0.037
0.040,0.037
0.041,0.036
0.041,0.041
0.042,0.037
0.041,0.041
0.039,0.039
0.040,0.042
0.040,0.039
0.043,0.040
0.040,0.038
0.045,0.038
0.043,0.039
0.045,0.038
0.044,0.037
0.047,0.038
0.044,0.038
0.043,0.038
0.041,0.039
0.043,0.038
0.043,0.042
0.046,0.042
0.044,0.043
0.046,0.039
0.045,0.039
0.045,0.038
0.046,0.040
0.044,0.035
0.048,0.036
0.047,0.036
0.049,0.036
0.045,0.035
0.045,0.034
0.045,0.036
0.045,0.034
0.043,0.034
0.046,0.035
0.043,0.037
0.043,0.032
0.045,0.032
0.044,0.029
0.046,0.028
0.046,0.026
0.047,0.030
0.046,0.025
0.049,0.025
0.046,0.025
0.047,0.024
0.045,0.025
0.047,0.020
0.048,0.024
0.049,0.021
0.049,0.021
0.049,0.020
0.048,0.017
0.052,0.020
0.051,0.015
0.050,0.014
0.050,0.013
0.051,0.011
0.048,0.009
0.052,0.009
0.048,0.007
0.050,0.006
0.050,0.010
0.050,0.006
0.048,0.008
0.049,0.004
0.047,0.004
0.048,0.003
0.050,0.006
0.048,0.004
0.047,0.009
0.047,0.004
0.047,0.007
0.048,-0.001
0.049,0.003
0.047,0.001
0.049,0.002
0.046,0.000
0.047,0.001
0.048,-0.002
0.049,0.000
0.050,-0.003
0.048,-0.003
0.051,-0.004
0.054,-0.003
0.054,-0.004
0.051,-0.005
0.049,-0.002
0.049,-0.004
0.046,-0.001
0.047,-0.003
0.047,-0.002
0.047,-0.002
0.046,-0.002
0.045,-0.007
0.051,-0.002
0.047,-0.007
0.050,-0.005
0.045,-0.007
0.047,-0.007
0.044,-0.003
0.045,-0.007
0.045,-0.004
0.043,-0.007
0.042,-0.001
0.042,-0.002
0.043,0.001
0.041,-0.002
0.045,-0.002
0.042,0.001
0.044,0.001
0.043,-0.000
0.046,0.002
0.043,0.000
0.045,0.001
0.042,0.000
0.044,0.002
0.040,0.004
0.044,0.004
0.043,0.008
0.042,0.004
0.043,0.008
0.044,0.008
0.043,0.010
0.044,0.010
0.044,0.010
0.044,0.010
0.044,0.013
0.045,0.011
0.045,0.013
0.043,0.011
0.046,0.012
0.044,0.009
0.048,0.012
0.044,0.012
0.047,0.015
0.045,0.015
0.043,0.015
0.041,0.017
0.041,0.018
0.040,0.020
0.039,0.022
0.041,0.024
0.041,0.024
0.042,0.026
0.040,0.027
0.042,0.029
0.043,0.029
0.043,0.031
0.040,0.030
0.042,0.030
0.042,0.033
0.041,0.031
0.039,0.033
0.041,0.032
0.040,0.035
0.039,0.035
0.037,0.038
0.038,0.036
0.041,0.038
0.040,0.037
0.046,0.037
0.042,0.034
0.046,0.035
0.045,0.038
0.043,0.035
0.042,0.036
0.040,0.038
0.040,0.041
0.037,0.040
0.038,0.042
0.042,0.041
0.041,0.045
0.041,0.040
0.042,0.041
0.040,0.041
0.040,0.040
0.040,0.039
0.042,0.040
0.040,0.037
0.043,0.038
0.040,0.037
0.039,0.041
0.038,0.043
0.040,0.042
0.040,0.045
0.042,0.043
0.039,0.046
0.043,0.047
0.040,0.044
0.041,0.040
0.040,0.040
0.043,0.039
0.043,0.039
0.044,0.037
0.045,0.038
0.045,0.036
0.045,0.039
0.044,0.039
0.042,0.039
0.043,0.039
0.044,0.035
0.042,0.037
0.045,0.036
0.040,0.036
0.043,0.033
0.041,0.033
0.043,0.032
0.045,0.031
0.044,0.031
0.047,0.029
0.049,0.028
0.048,0.027
0.049,0.023
0.046,0.023
0.045,0.023
0.044,0.023
0.045,0.021
0.047,0.022
0.046,0.020
0.047,0.022
0.048,0.019
0.049,0.018
0.049,0.015
0.050,0.015
0.048,0.013
0.049,0.011
0.049,0.007
0.048,0.008
0.047,0.007
0.047,0.011
0.046,0.010
0.051,0.010
0.047,0.009
0.050,0.006
0.048,0.005
0.049,0.003
0.049,0.006
0.048,0.002
0.050,0.005
0.049,0.003
0.050,0.003
0.047,0.004
0.050,0.004
0.047,0.002
0.052,0.002
0.047,0.001
0.049,0.001
0.048,-0.002
0.050,0.001
0.051,-0.003
0.052,0.003
0.050,-0.002
0.053,-0.003
0.047,-0.003
0.049,-0.005
0.050,-0.003
0.047,-0.003
0.045,-0.002
0.044,-0.003
0.045,-0.001
0.045,-0.003
0.048,-0.003
0.049,-0.005
0.047,-0.001
0.046,-0.004
0.049,-0.003
0.045,-0.004
0.048,-0.004
0.045,-0.001
0.049,-0.003
0.048,-0.002
0.046,-0.002
0.046,0.000
0.046,-0.001
0.039,0.003
0.043,0.003
0.044,0.003
0.042,0.001
0.047,0.005
0.045,0.002
0.048,0.003
0.044,0.005
0.047,0.006
0.045,0.007
0.047,0.006
0.044,0.009
0.045,0.008
0.042,0.009
0.043,0.011
0.040,0.011
0.042,0.011
0.043,0.012
0.043,0.010
0.042,0.015
0.043,0.011
0.045,0.015
0.045,0.013
0.047,0.017
0.042,0.016
0.048,0.019
0.043,0.017
0.045,0.017
0.040,0.017
0.043,0.019
0.038,0.019
0.041,0.022
0.038,0.024
0.040,0.028
0.039,0.028
0.044,0.030
0.040,0.026
0.046,0.029
0.041,0.028
0.045,0.029
0.043,0.030
0.044,0.030
0.043,0.032
0.040,0.033
0.040,0.034
0.039,0.035
0.041,0.032
0.043,0.037
0.040,0.032
0.044,0.034
0.045,0.035
0.046,0.036
0.043,0.036
0.045,0.033
0.045,0.041
0.046,0.034
0.044,0.037
0.041,0.036
0.040,0.037
0.041,0.042
0.038,0.041
0.041,0.045
0.039,0.044
0.040,0.044
0.042,0.044
0.044,0.041
0.045,0.039
0.045,0.039
0.046,0.041
0.043,0.039
0.044,0.040
0.045,0.038
0.045,0.039
0.045,0.041
0.043,0.041
0.043,0.043
0.042,0.040
0.040,0.046
0.045,0.043
0.040,0.042
0.045,0.044
0.046,0.045
0.046,0.042
0.048,0.042
0.045,0.042
0.046,0.039
0.048,0.039
0.046,0.037
0.045,0.037
0.045,0.035
0.047,0.037
0.045,0.037
0.047,0.039
0.045,0.038
0.041,0.037
0.044,0.037
0.042,0.036
0.043,0.035
0.044,0.036
0.045,0.033
0.047,0.031
0.049,0.026
0.046,0.028
0.048,0.028
0.046,0.025
0.046,0.033
0.047,0.029
0.047,0.032
0.049,0.027
0.048,0.028
0.046,0.025
0.052,0.022
0.051,0.019
0.051,0.021
0.051,0.019
0.049,0.018
0.050,0.016
0.049,0.013
0.048,0.011
0.049,0.011
0.049,0.012
0.049,0.010
0.049,0.009
0.049,0.010
0.046,0.008
0.048,0.009
0.047,0.006
0.045,0.009
0.047,0.006
0.044,0.010
0.050,0.005
0.044,0.006
0.048,0.006
0.046,0.007
0.047,0.002
0.046,0.005
0.044,-0.000
0.049,0.002
0.048,0.002
0.049,-0.000
0.048,0.000
0.048,0.001
0.048,0.002
0.049,-0.001
0.048,0.000
0.050,-0.003
0.049,-0.003
0.050,-0.003
0.048,-0.007
0.050,-0.003
0.050,-0.004
0.049,-0.003
0.051,-0.002
0.049,-0.001
0.049,-0.003
0.050,-0.002
0.053,-0.003
0.050,-0.004
0.050,-0.005
0.046,-0.004
0.048,-0.004
0.046,-0.001
0.047,-0.003
0.045,0.001
0.047,0.001
0.046,0.000
0.046,-0.000
0.046,0.003
0.047,0.001
0.045,0.003
0.047,0.000
0.049,0.003
0.046,0.004
0.049,0.006
0.045,0.008
0.047,0.007
0.046,0.009
0.046,0.006
0.043,0.009
0.046,0.008
0.045,0.011
0.045,0.011
0.043,0.012
0.045,0.015
0.044,0.013
0.047,0.012
0.044,0.014
0.045,0.012
0.045,0.013
0.047,0.013
0.049,0.016
0.046,0.014
0.049,0.017
0.045,0.015
0.045,0.019
0.044,0.017
0.044,0.023
0.040,0.023
0.044,0.023
0.041,0.023
0.041,0.027
0.040,0.024
0.041,0.030
0.040,0.029
0.043,0.029
0.041,0.032
0.039,0.033
0.041,0.034
0.041,0.035
0.042,0.035
0.041,0.037
0.041,0.035
0.041,0.036
0.043,0.036
0.041,0.036
0.042,0.036
0.044,0.037
0.040,0.036
0.045,0.037
0.042,0.038
0.045,0.036
0.045,0.038
0.042,0.037
0.044,0.040
0.039,0.039
0.041,0.044
0.038,0.041
0.041,0.043
0.040,0.042
0.042,0.044
0.040,0.045
0.042,0.044
0.043,0.042
0.046,0.040
0.046,0.039
0.045,0.042
0.044,0.041
0.043,0.039
0.046,0.042
0.043,0.039
0.040,0.044
0.040,0.042
0.041,0.047
0.044,0.042
0.041,0.049
0.044,0.045
0.043,0.047
0.041,0.044
0.044,0.044
0.042,0.044
0.043,0.043
0.044,0.038
0.043,0.040
0.043,0.039
0.045,0.038
0.047,0.040
0.045,0.040
0.047,0.040
0.048,0.036
0.044,0.038
0.043,0.034
0.045,0.037
0.041,0.036
0.046,0.038
0.043,0.033
0.049,0.033
0.044,0.031
0.049,0.031
0.047,0.031
0.047,0.031
0.047,0.031
0.047,0.029
0.046,0.030
0.047,0.026
0.048,0.026
0.047,0.023
0.047,0.024
0.049,0.023
0.048,0.024
0.049,0.022
0.046,0.022
0.049,0.019
0.050,0.018
0.050,0.015
0.048,0.015
0.046,0.013
0.048,0.013
0.046,0.010
0.045,0.013
0.046,0.011
0.045,0.011
0.047,0.008
0.047,0.011
0.047,0.007
0.045,0.008
0.047,0.007
0.046,0.011
0.048,0.008
0.045,0.007
0.048,0.004
0.045,0.006
0.047,0.001
0.044,0.005
0.044,0.003
0.047,0.006
0.047,0.003
0.048,0.004
0.050,0.002
0.051,0.000
0.051,-0.001
0.053,-0.003
0.050,-0.000
0.052,-0.005
0.049,-0.001
0.050,-0.001
0.043,-0.003
0.044,-0.003
0.044,-0.001
0.045,-0.000
0.045,-0.003
0.046,-0.003
0.046,-0.003
0.046,-0.002
0.046,-0.003
0.045,-0.002
0.045,-0.003
0.045,0.001
0.044,-0.002
0.043,0.000
0.046,0.000
0.043,0.002
0.046,0.001
0.042,0.002
0.042,0.002
0.043,0.005
0.046,0.006
0.044,0.006
0.044,0.004
0.045,0.004
0.046,0.004
0.044,0.005
0.045,0.007
0.044,0.006
0.041,0.010
0.045,0.008
0.044,0.012
0.044,0.010
0.042,0.012
0.039,0.011
0.041,0.011
0.042,0.010
0.043,0.012
0.044,0.013
0.044,0.014
0.045,0.011
0.044,0.015
0.045,0.013
0.044,0.013
0.047,0.015
0.045,0.014
0.043,0.014
0.044,0.020
0.041,0.018
0.043,0.021
0.041,0.021
0.041,0.023
0.041,0.024
0.044,0.028
0.042,0.028
0.044,0.031
0.042,0.027
0.044,0.030
0.043,0.028
0.046,0.030
0.042,0.029
0.044,0.031
0.043,0.032
0.043,0.034
0.043,0.031
0.044,0.034
0.043,0.035
0.046,0.038
0.046,0.036
0.046,0.036
0.045,0.036
0.044,0.036
0.044,0.038
0.043,0.038
0.045,0.040
0.043,0.040
0.044,0.040
0.045,0.040
0.044,0.041
0.045,0.040
0.042,0.044
0.044,0.042
0.045,0.044
0.045,0.042
0.048,0.043
0.048,0.044
0.046,0.044
0.045,0.042
0.048,0.042
0.048,0.047
0.046,0.041
0.047,0.043
0.042,0.040
0.043,0.043
0.042,0.044
0.044,0.047
0.042,0.045
0.043,0.043
0.041,0.043
0.043,0.044
0.043,0.043
0.047,0.042
0.047,0.041
0.047,0.041
0.045,0.038
0.046,0.042
0.046,0.041
0.047,0.037
0.047,0.038
0.048,0.037
0.048,0.040
0.046,0.036
0.046,0.038
0.046,0.036
0.045,0.037
0.047,0.036
0.046,0.034
0.045,0.035
0.047,0.034
0.047,0.032
0.048,0.032
0.047,0.028
0.048,0.026
0.049,0.028
0.049,0.023
0.049,0.025
0.048,0.024
0.047,0.025
0.046,0.023
0.048,0.025
0.046,0.022
0.048,0.023
0.048,0.020
0.051,0.020
0.052,0.017
0.051,0.017
0.054,0.013
0.052,0.014
0.051,0.010
0.053,0.012
0.051,0.010
0.050,0.010
0.050,0.008
0.048,0.011
0.049,0.009
0.049,0.010
0.052,0.006
0.050,0.009
0.052,0.007
0.049,0.008
0.050,0.005
0.046,0.003
0.048,0.002
0.046,0.002
0.049,0.001
0.047,0.003
0.047,0.001
0.046,0.004
0.045,0.002
0.050,0.002
0.045,-0.000
0.051,-0.001
0.050,0.003
0.051,0.002
0.049,-0.001
0.050,-0.000
0.046,-0.002
0.049,-0.001
0.046,-0.002
0.050,-0.003
0.050,-0.001
0.050,-0.004
0.054,-0.002
0.053,-0.004
0.054,-0.003
0.052,-0.004
0.047,-0.002
0.049,-0.002
0.048,-0.004
0.045,-0.002
0.048,-0.004
0.046,0.000
0.047,-0.003
0.044,0.002
0.046,0.003
0.047,0.001
0.046,0.003
0.049,0.004
0.049,0.002
0.047,0.001
0.049,0.002
0.047,0.002
0.047,0.003
0.046,0.004
0.044,0.007
0.046,0.006
0.041,0.011
0.045,0.010
0.043,0.013
0.045,0.011
0.043,0.010
0.044,0.010
0.046,0.011
0.043,0.013
0.045,0.013
0.046,0.012
0.048,0.012
0.049,0.010
0.048,0.012
0.047,0.011
0.049,0.014
0.046,0.011
0.050,0.015
0.046,0.013
0.050,0.018
0.044,0.016
0.048,0.021
0.042,0.020
0.043,0.024
0.038,0.024
0.044,0.027
0.041,0.028
0.044,0.029
0.040,0.028
0.043,0.029
0.041,0.028
0.045,0.031
0.040,0.029
0.042,0.032
0.041,0.033
0.045,0.036
0.040,0.035
0.041,0.036
0.041,0.038
0.045,0.037
0.043,0.039
0.045,0.041
0.047,0.039
0.043,0.036
0.043,0.037
0.043,0.038
0.043,0.039
0.041,0.038
0.039,0.040
0.039,0.038
0.041,0.043
0.039,0.042
0.039,0.042
0.040,0.043
0.043,0.044
0.043,0.044
0.044,0.043
0.044,0.042
0.045,0.042
0.046,0.041
0.045,0.042
0.045,0.043
0.045,0.042
0.044,0.044
0.046,0.040
0.042,0.046
0.040,0.042
0.041,0.045
0.042,0.042
0.046,0.042
0.043,0.042
0.044,0.044
0.043,0.043
0.047,0.043
0.045,0.042
0.045,0.040
0.044,0.042
0.043,0.040
0.045,0.042
0.043,0.040
0.045,0.039
0.047,0.038
0.043,0.038
0.041,0.036
0.043,0.038
0.043,0.035
0.046,0.037
0.044,0.031
0.046,0.034
0.044,0.032
0.049,0.030
0.048,0.034
0.049,0.029
0.049,0.032
0.050,0.028
0.047,0.029
0.047,0.026
0.046,0.028
0.046,0.024
0.046,0.025
0.045,0.024
0.047,0.023
0.049,0.022
0.046,0.022
0.049,0.018
0.050,0.021
0.050,0.016
0.048,0.018
0.048,0.010
0.045,0.014
0.048,0.010
0.046,0.009
0.046,0.009
0.046,0.011
0.045,0.009
0.047,0.010
0.048,0.010
0.049,0.007
0.052,0.006
0.047,0.006
0.048,0.003
0.045,0.006
0.047,0.005
0.049,0.002
0.051,0.002
0.051,0.000
0.051,-0.001
0.049,0.000
0.054,-0.000
0.051,-0.002
0.052,0.000
0.049,-0.001
0.050,-0.001
0.052,0.001
0.050,-0.002
0.051,-0.002
0.048,-0.002
0.050,-0.003
0.049,-0.005
0.049,-0.008
0.052,-0.005
0.051,-0.006
0.052,-0.005
0.050,-0.003
0.050,-0.004
0.050,-0.003
0.049,-0.004
0.050,-0.002
0.050,-0.007
0.048,-0.006
0.049,-0.005
0.047,-0.003
0.047,-0.003
0.046,-0.003
0.048,-0.004
0.045,0.000
0.046,-0.003
0.046,0.001
0.047,0.001
0.047,-0.001
0.048,0.002
0.047,-0.002
0.050,0.002
0.051,-0.001
0.049,0.004
0.047,0.004
0.046,0.005
0.045,0.005
0.045,0.005
0.045,0.003
0.047,0.005
0.049,0.005
0.047,0.006
0.046,0.007
0.047,0.009
0.047,0.007
0.046,0.009
0.045,0.010
0.046,0.009
0.045,0.012
0.048,0.011
0.047,0.014
0.045,0.012
0.046,0.015
0.045,0.017
0.045,0.017
0.045,0.018
0.046,0.020
0.045,0.018
0.044,0.019
0.043,0.021
0.043,0.025
0.045,0.025
0.046,0.025
0.046,0.030
0.046,0.029
0.046,0.032
0.044,0.030
0.046,0.029
0.043,0.026
0.046,0.028
0.042,0.027
0.044,0.030
0.042,0.031
0.047,0.032
0.043,0.033
0.045,0.034
0.045,0.036
0.044,0.033
0.044,0.038
0.046,0.033
0.044,0.035
0.045,0.035
0.043,0.037
0.043,0.036
0.045,0.037
0.044,0.038
0.041,0.040
0.039,0.038
0.041,0.042
0.040,0.037
0.042,0.040
0.041,0.039
0.046,0.041
0.043,0.040
0.045,0.040
0.042,0.042
0.042,0.039
0.044,0.043
0.044,0.041
0.043,0.039
0.041,0.039
0.041,0.040
0.042,0.041
0.043,0.041
0.041,0.041
0.045,0.042
0.043,0.039
0.043,0.039
0.043,0.040
0.047,0.039
0.045,0.037
0.048,0.036
0.043,0.036
0.046,0.036
0.045,0.038
0.047,0.035
0.043,0.039
0.048,0.036
0.046,0.038
0.046,0.034
0.047,0.034
0.045,0.030
0.048,0.032
0.045,0.029
0.047,0.029
0.047,0.028
0.045,0.027
0.045,0.030
0.049,0.024
0.046,0.028
0.045,0.027
0.048,0.029
0.048,0.027
0.050,0.025
0.048,0.025
0.047,0.023
0.049,0.022
0.043,0.021
0.046,0.021
0.043,0.022
0.044,0.018
0.043,0.022
0.048,0.017
0.045,0.016
0.047,0.013
0.047,0.012
0.045,0.011
0.046,0.010
0.045,0.010
0.044,0.012
0.046,0.012
0.043,0.013
0.047,0.009
0.045,0.011
0.045,0.008
0.044,0.006
0.048,0.001
0.047,0.004
0.047,0.001
0.048,0.002
0.047,-0.001
0.049,-0.001
0.048,0.002
0.047,-0.001
0.048,0.000
0.047,-0.001
0.049,0.003
0.049,0.001
0.047,0.002
0.049,-0.001
0.050,-0.001
0.050,-0.002
0.049,-0.000
0.046,-0.006
0.048,-0.004
0.046,-0.009
0.047,-0.007
0.045,-0.009
0.048,-0.007
0.044,-0.006
0.045,-0.006
0.044,-0.003
0.048,-0.005
0.042,-0.000
0.045,-0.006
0.045,-0.004
0.043,-0.004
0.043,-0.003
0.044,-0.004
0.049,-0.003
0.044,-0.005
0.048,-0.004
0.048,-0.003
0.047,-0.004
0.047,0.000
0.047,0.000
0.046,0.003
0.048,0.002
0.046,0.004
0.046,0.002
0.041,0.004
0.044,0.001
0.043,0.004
0.042,0.002
0.045,0.005
0.042,0.004
0.045,0.007
0.045,0.007
0.048,0.009
0.045,0.007
0.043,0.008
0.042,0.007
0.044,0.008
0.041,0.011
0.043,0.009
0.043,0.013
0.045,0.010
0.044,0.014
0.046,0.012
0.045,0.015
0.046,0.013
0.043,0.017
0.045,0.016
0.044,0.019
0.042,0.020
0.043,0.024
0.039,0.024
0.042,0.024
0.040,0.025
0.041,0.024
0.042,0.027
0.042,0.027
0.044,0.029
0.043,0.028
0.042,0.026
0.045,0.029
0.041,0.030
0.041,0.027
0.042,0.031
0.044,0.029
0.043,0.032
0.044,0.032
0.044,0.033
0.042,0.037
0.042,0.036
0.041,0.039
0.046,0.038
0.042,0.042
0.043,0.039
0.045,0.038
0.042,0.037
0.044,0.038
0.042,0.037
0.043,0.038
0.041,0.039
0.041,0.039
0.043,0.041
0.045,0.040
0.045,0.043
0.045,0.042
0.045,0.042
0.045,0.041
0.044,0.039
0.044,0.040
0.041,0.041
0.044,0.042
0.042,0.042
0.043,0.040
0.040,0.043
0.041,0.042
0.042,0.042
0.043,0.043
0.045,0.044
0.043,0.042
0.045,0.044
0.046,0.040
0.044,0.041
0.047,0.039
0.045,0.038
0.046,0.038
0.048,0.039
0.045,0.039
0.048,0.038
0.046,0.037
0.048,0.035
0.044,0.039
0.047,0.036
0.045,0.036
0.045,0.036
0.047,0.034
0.047,0.033
0.051,0.031
0.049,0.031
0.049,0.028
0.049,0.029
0.047,0.027
0.046,0.029
0.046,0.025
0.046,0.027
0.046,0.024
0.046,0.025
0.045,0.024
0.047,0.023
0.047,0.023
0.045,0.025
0.047,0.025
0.046,0.023
0.047,0.019
0.047,0.018
0.049,0.017
0.044,0.015
0.048,0.012
0.047,0.012
0.046,0.009
0.046,0.010
0.048,0.012
0.043,0.011
0.048,0.008
0.048,0.008
0.049,0.005
0.047,0.007
0.050,0.006
0.048,0.004
0.048,0.003
0.049,0.001
0.048,0.002
0.052,0.001
0.049,-0.002
0.051,-0.001
0.050,-0.000
0.047,0.001
0.047,0.002
0.049,0.000
0.046,0.001
0.047,-0.001
0.045,0.000
0.049,-0.001
0.048,0.001
0.050,-0.004
0.049,0.000
0.051,-0.002
0.049,-0.002
0.049,-0.002
0.051,-0.001
0.047,-0.004
0.053,-0.004
0.051,-0.005
0.051,-0.006
0.050,-0.003
0.049,-0.004
0.047,-0.003
0.048,-0.003
0.045,-0.004
0.047,-0.004
0.045,-0.001
0.045,-0.002
0.046,-0.001
0.046,-0.003
0.049,-0.002
0.048,-0.003
0.047,0.000
0.046,0.000
0.049,-0.000
0.046,0.002
0.047,0.001
0.043,0.006
0.047,0.005
0.044,0.005
0.045,0.006
0.045,0.005
0.046,0.007
0.047,0.006
0.045,0.006
0.044,0.006
0.044,0.003
0.046,0.008
0.043,0.006
0.046,0.010
0.042,0.009
0.047,0.011
0.043,0.011
0.047,0.012
0.044,0.014
0.046,0.012
0.045,0.016
0.044,0.015
0.044,0.019
0.045,0.016
0.045,0.018
0.048,0.018
0.046,0.020
0.045,0.020
0.044,0.022
0.045,0.022
0.043,0.020
0.047,0.026
0.041,0.025
0.047,0.029
0.042,0.028
0.046,0.028
0.042,0.027
0.045,0.032
0.044,0.029
0.044,0.031
0.045,0.030
0.044,0.033
0.044,0.033
0.042,0.033
0.043,0.036
0.044,0.035
0.043,0.039
0.046,0.035
0.044,0.036
0.047,0.039
0.045,0.038
0.042,0.036
0.044,0.039
0.043,0.039
0.041,0.039
0.043,0.038
0.042,0.039
0.043,0.038
0.046,0.041
0.046,0.039
0.046,0.040
0.045,0.039
0.045,0.039
0.044,0.044
0.047,0.041
0.044,0.043
0.045,0.040
0.045,0.042
0.043,0.042
0.044,0.044
0.042,0.041
0.044,0.046
0.043,0.042
0.047,0.041
0.044,0.041
0.047,0.041
0.044,0.040
0.045,0.041
0.047,0.043
0.045,0.041
0.049,0.043
0.045,0.040
0.048,0.041
0.047,0.039
0.049,0.037
0.049,0.037
0.046,0.037
0.046,0.036
0.050,0.036
0.048,0.034
0.051,0.035
0.049,0.032
0.052,0.035
0.050,0.031
0.051,0.031
0.047,0.031
0.046,0.031
0.043,0.032
0.041,0.029
0.041,0.031
0.044,0.031
0.045,0.031
0.047,0.030
0.045,0.028
0.045,0.027
0.045,0.025
0.049,0.024
0.046,0.023
0.049,0.020
0.050,0.022
0.050,0.019
0.047,0.018
0.048,0.013
0.049,0.015
0.047,0.011
0.049,0.011
0.048,0.011
0.047,0.010
0.049,0.010
0.046,0.011
0.049,0.009
0.048,0.009
0.048,0.005
0.046,0.007
0.048,0.006
0.045,0.008
0.047,0.006
0.048,0.004
0.047,0.003
0.047,0.006
0.047,0.001
0.049,0.001
0.051,0.000
0.050,0.001
0.051,-0.001
0.049,-0.001
0.051,0.002
0.052,0.000
0.047,-0.002
0.050,-0.003
0.049,0.001
0.049,-0.003
0.048,-0.003
0.049,-0.005
0.050,-0.004
0.047,-0.002
0.050,-0.003
0.049,-0.004
0.050,-0.007
0.052,-0.003
0.052,-0.004
0.054,-0.004
0.055,-0.004
0.053,-0.003
0.052,-0.003
0.047,-0.001
0.046,-0.002
0.043,-0.004
0.042,-0.001
0.040,-0.001
0.043,-0.003
0.042,-0.001
0.044,-0.003
0.046,-0.001
0.049,-0.001
0.047,-0.002
0.047,-0.001
0.048,-0.003
0.049,0.005
0.049,0.002
0.048,0.003
0.049,0.004
0.047,0.007
0.046,0.007
0.046,0.008
0.046,0.010
0.046,0.007
0.043,0.010
0.043,0.010
0.042,0.007
0.044,0.011
0.043,0.010
0.044,0.011
0.042,0.015
0.039,0.013
0.039,0.018
0.039,0.016
0.039,0.020
0.043,0.016
0.045,0.017
0.045,0.014
0.049,0.017
0.047,0.018
0.049,0.019
0.051,0.021
0.052,0.022
0.051,0.023
0.045,0.023
0.047,0.026
0.048,0.027
0.058,0.032
0.069,0.030
0.093,0.032
0.108,0.026
0.116,0.033
0.100,0.028
0.083,0.032
0.062,0.028
0.037,0.029
0.014,0.030
0.002,0.031
0.006,0.035
0.017,0.034
0.024,0.039
0.028,0.036
0.027,0.040
0.032,0.038
0.035,0.039
0.030,0.038
0.031,0.038
0.031,0.039
0.033,0.038
0.032,0.038
0.039,0.041
0.042,0.038
0.047,0.043
0.044,0.041
0.045,0.042
0.040,0.045
0.045,0.044
0.042,0.045
0.043,0.043
0.042,0.046
0.040,0.040
0.041,0.043
0.041,0.043
0.044,0.042
0.052,0.043
0.056,0.039
0.058,0.041
0.058,0.041
0.053,0.036
0.049,0.038
0.038,0.037
0.031,0.042
0.029,0.045
0.033,0.046
0.035,0.046
0.040,0.045
0.038,0.049
0.041,0.046
0.038,0.047
0.039,0.041
0.043,0.037
0.044,0.034
0.051,0.033
0.048,0.031
0.050,0.031
0.050,0.030
0.054,0.032
0.050,0.028
0.050,0.031
0.046,0.029
0.045,0.029
0.042,0.030
0.047,0.027
0.041,0.029
0.039,0.025
0.040,0.028
0.042,0.026
0.044,0.026
0.044,0.023
0.047,0.024
0.047,0.021
0.047,0.023
0.045,0.022
0.045,0.023
0.047,0.019
0.051,0.016
0.052,0.013
0.055,0.016
0.056,0.012
0.055,0.014
0.056,0.011
0.058,0.011
0.058,0.006
0.060,0.006
0.054,0.004
0.052,0.002
0.055,0.002
0.052,0.001
0.051,0.003
0.042,0.007
0.040,0.010
0.048,0.011
0.058,0.010
0.061,0.009
0.062,0.005
0.056,0.003
0.047,0.001
0.041,-0.004
0.035,-0.003
0.037,-0.007
0.040,-0.002
0.061,-0.002
0.085,0.003
0.093,0.004
0.084,0.006
0.062,0.006
0.043,0.004
0.033,-0.003
0.031,-0.011
0.033,-0.012
0.030,-0.013
0.034,-0.008
0.035,-0.005
0.047,0.000
0.054,0.000
0.059,0.002
0.060,-0.001
0.058,-0.001
0.056,-0.004
0.054,-0.003
0.047,-0.007
0.048,-0.007
0.043,-0.006
0.048,-0.005
0.049,-0.006
0.048,-0.004
0.040,-0.003
0.033,-0.003
0.027,-0.001
0.019,0.001
0.015,0.005
0.018,0.004
0.035,0.007
0.060,0.000
0.070,0.003
0.065,0.002
0.049,0.005
0.041,0.006
0.044,0.010
0.043,0.010
0.036,0.013
0.029,0.016
0.039,0.019
0.047,0.018
0.049,0.015
0.041,0.013
0.034,0.013
0.032,0.013
0.031,0.011
0.032,0.012
0.034,0.011
0.046,0.013
0.063,0.008
0.078,0.009
0.086,0.005
0.081,0.009
0.064,0.005
0.049,0.011
0.035,0.013
0.025,0.021
0.012,0.024
0.005,0.026
0.007,0.030
0.018,0.029
0.040,0.030
0.061,0.022
0.075,0.020
0.067,0.019
0.045,0.022
0.012,0.025
-0.010,0.031
-0.028,0.041
-0.024,0.052
0.000,0.059
0.051,0.068
0.093,0.075
0.100,0.078
0.084,0.068
0.068,0.041
0.060,0.020
0.063,0.009
0.057,0.011
0.049,0.021
0.032,0.039
0.025,0.046
0.022,0.044
0.019,0.033
0.028,0.037
0.036,0.028
0.055,-0.006
0.067,-0.055
0.069,-0.024
0.059,0.065
0.054,0.132
0.050,0.182
0.054,0.198
0.058,0.178
0.060,0.135
0.051,0.074
0.045,0.033
0.029,0.002
0.028,-0.035
0.032,-0.053
0.045,-0.049
0.053,-0.027
0.055,0.002
0.063,0.032
0.060,0.049
0.044,0.055
0.019,0.049
0.004,0.033
-0.011,0.019
-0.020,0.016
-0.019,0.020
0.022,0.013
0.080,0.011
0.117,0.014
0.111,0.025
0.087,0.039
0.065,0.051
0.052,0.052
0.042,0.038
0.038,0.026
0.034,0.021
0.034,-0.003
0.045,-0.043
0.053,-0.032
0.058,0.053
0.056,0.139
0.056,0.201
0.052,0.233
0.054,0.217
0.047,0.171
0.046,0.086
0.060,0.020
0.070,-0.018
0.076,-0.040
0.067,-0.058
0.050,-0.063
0.031,-0.058
0.008,-0.052
-0.010,-0.053
-0.029,-0.070
-0.030,-0.092
-0.016,-0.071
0.024,-0.000
0.060,0.073
0.078,0.114
0.082,0.128
0.066,0.122
0.050,0.092
0.047,0.043
0.050,-0.011
0.052,-0.063
0.038,-0.091
0.025,-0.081
0.024,-0.045
0.034,-0.021
0.049,-0.004
0.060,0.002
0.064,-0.000
0.059,-0.004
0.059,-0.016
0.054,-0.020
0.054,-0.025
0.051,-0.017
0.048,-0.012
0.046,0.006
0.045,0.021
0.048,0.026
0.049,-0.008
0.052,-0.065
0.050,-0.093
0.054,-0.037
0.054,0.038
0.057,0.090
0.058,0.125
0.053,0.120
0.049,0.087
0.049,0.038
0.044,-0.029
0.045,-0.068
0.046,-0.082
0.046,-0.078
0.044,-0.063
0.043,-0.052
0.046,-0.040
0.044,-0.033
0.050,-0.024
0.048,-0.020
0.052,-0.017
0.044,-0.015
0.044,-0.015
0.043,-0.010
0.042,-0.011
0.039,-0.006
0.046,-0.003
0.053,-0.001
0.066,0.001
0.061,0.002
0.054,0.000
0.044,-0.001
0.043,-0.009
0.047,-0.010
0.049,-0.011
0.053,-0.012
0.048,-0.009
0.047,-0.003
0.041,0.006
0.043,0.013
0.050,0.020
0.063,0.015
0.068,0.008
0.066,-0.005
0.058,-0.010
0.047,-0.005
0.023,0.002
0.010,0.011
0.003,0.016
0.024,0.020
0.044,0.024
0.069,0.017
0.082,0.016
0.084,0.011
0.066,0.011
0.034,0.010
0.007,0.016
-0.018,0.024
-0.017,0.035
0.019,0.040
0.071,0.045
0.099,0.048
0.090,0.039
0.070,0.030
0.032,0.030
-0.006,0.036
-0.037,0.051
-0.044,0.057
-0.027,0.055
0.026,0.036
0.115,0.022
0.164,0.015
0.135,0.010
0.079,0.008
0.037,0.011
0.025,0.020
0.020,0.030
0.026,0.041
0.030,0.050
0.037,0.052
0.039,0.033
0.043,0.008
0.043,-0.003
0.043,-0.003
0.045,0.011
0.041,0.024
0.045,0.036
0.043,0.039
0.045,0.040
0.048,0.038
0.046,0.036
0.049,0.036
0.048,0.030
0.051,0.033
0.051,0.028
0.043,0.030
0.035,0.034
0.024,0.034
0.014,0.040
0.006,0.042
0.006,0.040
0.019,0.040
0.043,0.035
0.061,0.034
0.071,0.035
0.065,0.034
0.056,0.033
0.053,0.034
0.049,0.037
0.046,0.032
0.045,0.039
0.043,0.034
0.042,0.035
0.038,0.033
0.034,0.031
0.032,0.034
0.030,0.037
0.027,0.040
0.029,0.040
0.038,0.041
0.047,0.040
0.055,0.045
0.052,0.051
0.049,0.058
0.046,0.053
0.044,0.045
0.051,0.023
0.064,0.000
0.064,-0.018
0.057,-0.018
0.041,-0.012
0.022,-0.001
0.006,0.011
0.019,0.016
0.060,0.016
0.087,0.015
0.086,0.014
0.065,0.011
0.052,0.006
0.045,0.007
0.053,0.003
0.051,0.004
0.043,-0.000
0.030,0.001
0.020,-0.002
0.008,0.002
0.007,0.006
0.010,0.009
0.036,0.012
0.060,0.014
0.079,0.013
0.083,0.012
0.089,0.008
0.083,0.009
0.074,0.001
0.062,0.002
0.047,0.001
0.036,0.006
0.025,0.016
0.026,0.004
0.034,-0.039
0.042,-0.066
0.049,-0.017
0.052,0.057
0.055,0.114
0.056,0.124
0.047,0.090
0.047,0.017
0.042,-0.060
0.043,-0.102
0.044,-0.099
0.048,-0.077
0.058,-0.047
0.069,-0.026
0.085,-0.010
0.080,-0.004
0.074,0.004
0.060,0.012
0.050,0.012
0.042,0.017
0.042,0.016
0.041,0.017
0.047,0.016
0.047,0.016
0.037,0.018
0.020,0.020
0.000,-0.005
-0.018,-0.049
-0.024,-0.080
-0.001,-0.032
0.049,0.037
0.086,0.098
0.093,0.134
0.081,0.127
0.068,0.091
0.062,0.030
0.052,-0.037
0.050,-0.068
0.048,-0.061
0.050,-0.035
0.047,-0.010
0.044,-0.000
0.039,-0.010
0.037,-0.024
0.033,-0.028
0.031,-0.028
0.030,-0.015
0.028,-0.011
0.034,-0.004
0.038,-0.004
0.045,-0.009
0.043,-0.012
0.037,-0.017
0.029,-0.011
0.026,-0.010
0.018,-0.000
0.024,0.005
0.046,0.010
0.082,0.012
0.111,0.015
0.115,0.018
0.099,0.019
0.078,0.025
0.059,0.030
0.046,0.032
0.040,0.029
0.042,0.026
0.043,0.020
0.049,0.021
0.045,0.022
0.047,0.026
0.044,0.030
0.041,0.031
0.034,0.032
0.033,0.032
0.030,0.034
0.028,0.044
0.025,0.050
0.026,0.035
0.032,0.017
0.042,0.012
0.049,0.016
0.054,0.017
0.055,0.031
0.054,0.028
0.051,0.035
0.052,0.033
0.049,0.036
0.046,0.038
0.042,0.039
0.036,0.043
0.026,0.046
0.022,0.048
0.020,0.050
0.031,0.047
0.052,0.044
0.070,0.043
0.067,0.039
0.058,0.037
0.047,0.032
0.041,0.034
0.037,0.032
0.036,0.032
0.039,0.033
0.043,0.039
0.048,0.042
0.050,0.045
0.055,0.048
0.054,0.048
0.051,0.043
0.050,0.043
0.049,0.036
0.049,0.031
0.033,0.026
0.014,0.026
-0.005,0.029
-0.021,0.032
-0.034,0.042
-0.013,0.046
0.043,0.051
0.094,0.046
0.106,0.047
0.087,0.050
0.056,0.057
0.036,0.056
0.032,0.045
0.045,0.023
0.066,0.007
0.073,-0.001
0.070,0.003
0.059,0.008
0.051,0.016
0.040,0.025
0.036,0.023
0.035,0.029
0.043,0.026
0.052,0.026
0.061,0.021
0.059,0.022
0.055,0.021
0.045,0.027
0.039,0.031
0.030,0.042
0.026,0.049
0.028,0.037
0.045,0.011
0.066,-0.008
0.075,-0.018
0.072,-0.020
0.067,-0.020
0.063,-0.015
0.064,-0.012
0.067,-0.010
0.074,-0.008
0.074,-0.004
0.074,-0.005
0.066,0.002
0.056,0.002
0.041,0.008
0.032,0.011
0.028,0.010
0.034,0.013
0.040,0.015
0.039,0.015
0.035,0.015
0.031,0.012
0.030,0.012
0.034,0.009
0.034,0.009
0.037,0.004
0.039,0.001
0.039,0.000
0.048,-0.006
0.052,-0.004
0.062,-0.006
0.067,-0.007
0.070,-0.011
0.073,-0.014
0.074,-0.019
0.064,-0.020
0.036,-0.020
0.009,-0.016
-0.014,-0.012
-0.020,-0.006
0.003,0.001
0.041,-0.002
0.083,-0.000
0.091,-0.001
0.073,-0.001
0.053,-0.001
0.043,-0.004
0.042,-0.006
0.047,-0.005
0.057,-0.002
0.062,0.000
0.063,0.001
0.063,0.003
0.059,0.003
0.058,0.004
0.055,0.003
0.051,0.000
0.049,0.000
0.047,0.001
0.046,0.007
0.047,0.010
0.045,0.003
0.043,-0.040
0.043,-0.078
0.040,-0.029
0.043,0.062
0.042,0.137
0.046,0.166
0.044,0.140
0.046,0.086
0.045,0.006
0.042,-0.040
0.040,-0.054
0.040,-0.044
0.041,-0.031
0.042,-0.021
0.043,-0.013
0.045,-0.013
0.049,-0.004
0.050,-0.005
0.052,-0.002
0.054,-0.001
0.056,0.006
0.057,0.008
0.058,0.013
0.058,0.018
0.058,0.017
0.061,0.018
0.051,0.015
0.051,0.017
0.041,0.017
0.039,0.019
0.033,0.018
0.035,0.022
0.035,0.022
0.047,0.023
0.059,0.022
0.065,0.028
0.053,0.031
0.039,0.035
0.028,0.038
0.030,0.039
0.034,0.034
0.040,0.028
0.042,0.030
0.042,0.028
0.040,0.031
0.040,0.032
0.035,0.037
0.035,0.034
0.047,0.036
0.059,0.035
0.059,0.036
0.050,0.036
0.039,0.037
0.029,0.037
0.022,0.042
0.018,0.042
0.030,0.050
0.044,0.043
0.064,0.041
0.073,0.050
0.066,0.064
0.049,0.086
0.035,0.091
0.022,0.088
0.020,0.067
0.021,0.042
0.027,0.026
0.033,0.027
0.043,0.029
0.059,0.039
0.062,0.044
0.064,0.047
0.056,0.044
0.058,0.039
0.058,0.032
0.047,0.029
0.031,0.026
0.011,0.024
-0.009,0.029
-0.012,0.028
0.008,0.030
0.056,0.032
0.081,0.037
0.086,0.039
0.073,0.042
0.065,0.037
0.056,0.032
0.051,0.026
0.047,0.020
0.048,0.016
0.058,0.016
0.061,0.018
0.067,0.021
0.063,0.028
0.058,0.033
0.053,0.036
0.048,0.034
0.045,0.032
0.044,0.031
0.037,0.029
0.036,0.027
0.036,0.026
0.044,0.020
0.038,0.016
0.043,0.008
0.042,0.011
0.045,0.003
0.046,0.006
0.047,0.007
0.051,0.010
0.051,0.015
0.054,0.017
0.062,0.017
0.065,0.014
0.069,0.009
0.065,0.005
0.062,0.003
0.051,0.005
0.041,0.007
0.032,0.015
0.037,0.016
0.052,0.021
0.065,0.019
0.075,0.021
0.070,0.013
0.060,0.011
0.051,0.009
0.046,0.003
0.042,0.003
0.038,0.002
0.034,0.005
0.029,0.001
0.027,-0.002
0.036,-0.007
0.041,-0.014
0.050,-0.017
0.052,-0.012
0.057,-0.008
0.064,-0.003
0.067,-0.009
0.072,-0.007
0.059,-0.014
0.037,-0.014
0.009,-0.013
-0.012,-0.007
-0.028,0.004
-0.012,0.005
0.026,0.010
0.068,0.006
0.096,0.003
0.100,-0.002
0.092,-0.004
0.072,-0.007
0.057,-0.006
0.047,-0.006
0.041,-0.002
0.038,-0.001
0.044,0.002
0.044,-0.000
0.051,0.003
0.051,0.008
0.054,0.006
0.052,0.010
0.049,0.012
0.042,0.025
0.048,0.036
0.056,0.050
0.064,0.051
0.062,0.039
0.049,0.007
0.043,-0.018
0.030,-0.033
0.028,-0.029
0.028,-0.020
0.049,-0.006
0.065,0.002
0.072,0.009
0.067,0.013
0.060,0.014
0.051,0.018
0.049,0.020
0.044,0.017
0.055,0.017
0.057,0.017
0.062,0.012
0.060,0.014
0.058,0.013
0.056,0.015
0.052,0.019
0.054,0.019
0.049,0.023
0.044,0.024
0.044,0.027
0.042,0.028
0.042,0.027
0.044,0.029
0.050,0.026
0.054,0.025
0.056,0.021
0.057,0.022
0.058,0.023
0.054,0.023
0.050,0.030
0.046,0.032
0.041,0.035
0.042,0.034
0.047,0.040
0.050,0.038
0.060,0.036
0.060,0.037
0.065,0.038
0.056,0.041
0.053,0.043
0.041,0.048
0.037,0.051
0.031,0.054
0.033,0.050
0.035,0.058
0.035,0.056
0.038,0.059
0.041,0.059
0.050,0.059
0.056,0.057
0.063,0.054
0.062,0.054
0.060,0.048
0.051,0.047
0.046,0.040
0.039,0.039
0.033,0.036
0.029,0.038
0.023,0.039
0.027,0.040
0.023,0.041
0.033,0.038
0.040,0.037
0.056,0.031
0.064,0.028
0.067,0.027
0.070,0.029
0.071,0.030
0.071,0.033
0.066,0.035
0.055,0.039
0.043,0.039
0.030,0.042
0.018,0.041
0.022,0.044
0.037,0.039
0.062,0.039
0.078,0.035
0.089,0.033
0.087,0.030
0.084,0.032
0.071,0.027
0.060,0.030
0.045,0.032
0.031,0.028
0.018,0.035
0.017,0.034
0.020,0.043
0.037,0.043
0.052,0.044
0.065,0.035
0.076,0.026
0.062,0.013
0.049,0.007
0.021,0.007
0.004,0.011
-0.003,0.018
0.023,0.022
0.060,0.021
0.091,0.023
0.095,0.021
0.086,0.017
0.074,0.015
0.068,0.015
0.062,0.015
0.057,0.016
0.052,0.015
0.050,0.016
0.050,0.015
0.044,0.015
0.044,0.018
0.039,0.014
0.042,0.009
0.044,0.010
0.051,0.005
0.052,0.005
0.049,0.005
0.053,0.005
0.050,0.007
0.050,0.010
0.052,0.017
0.051,0.015
0.056,0.020
0.058,0.018
0.062,0.023
0.063,0.028
0.067,0.025
0.062,0.002
0.045,-0.021
0.035,-0.028
0.029,-0.031
0.030,-0.030
0.031,-0.022
0.035,-0.018
0.047,-0.012
0.058,-0.010
0.061,-0.009
0.055,-0.009
0.047,-0.010
0.042,-0.002
0.040,0.004
0.034,0.008
0.034,0.004
0.037,0.002
0.045,-0.003
0.050,-0.009
0.054,-0.012
0.061,-0.013
0.057,-0.010
0.057,-0.013
0.052,-0.011
0.046,-0.010
0.038,-0.011
0.030,-0.008
0.023,-0.001
0.019,-0.001
0.023,0.006
0.039,0.008
0.052,0.014
0.058,0.011
0.055,0.010
0.051,0.005
0.054,0.005
0.053,0.003
0.059,0.005
0.056,0.005
0.057,0.006
0.054,0.007
0.055,0.008
0.055,0.008
0.055,0.007
0.054,0.006
0.054,0.003
0.056,0.005
0.053,0.006
0.048,0.012
0.047,0.014
0.044,0.029
0.035,0.037
0.021,0.056
0.003,0.062
-0.014,0.061
-0.022,0.038
0.006,0.016
0.050,-0.003
0.082,-0.006
0.091,-0.005
0.087,0.004
0.074,0.012
0.067,0.018
0.060,0.025
0.052,0.024
0.052,0.030
0.046,0.030
0.046,0.031
0.044,0.029
0.044,0.028
0.045,0.027
0.042,0.028
0.040,0.030
0.041,0.033
0.040,0.038
0.042,0.038
0.034,0.043
0.035,0.040
0.033,0.044
0.035,0.045
0.038,0.046
0.036,0.045
0.037,0.042
0.037,0.033
0.042,0.031
0.039,0.023
0.041,0.023
0.043,0.022
0.047,0.024
0.049,0.023
0.052,0.025
0.050,0.026
0.050,0.026
0.048,0.029
0.045,0.032
0.037,0.041
0.034,0.054
0.029,0.069
0.033,0.071
0.034,0.075
0.039,0.071
0.044,0.071
0.044,0.057
0.048,0.042
0.050,0.028
0.054,0.023
0.051,0.023
0.051,0.022
0.042,0.024
0.040,0.021
0.036,0.024
0.035,0.022
0.038,0.020
0.048,0.020
0.053,0.023
0.063,0.029
0.062,0.038
0.058,0.043
0.054,0.051
0.048,0.051
0.051,0.048
0.049,0.039
0.052,0.035
0.050,0.032
0.050,0.026
0.050,0.025
0.050,0.021
0.047,0.021
0.048,0.021
0.045,0.021
0.046,0.020
0.047,0.020
0.050,0.020
0.048,0.019
0.052,0.016
0.054,0.016
0.054,0.011
0.052,0.005
0.050,-0.003
0.048,-0.011
0.045,-0.017
0.041,-0.011
0.043,-0.002
0.042,0.010
0.041,0.017
0.042,0.025
0.040,0.029
0.040,0.025
0.042,0.017
0.043,0.012
0.039,0.012
0.038,0.013
0.040,0.009
0.046,0.006
0.049,-0.013
0.056,-0.039
0.056,-0.076
0.059,-0.115
0.056,-0.141
0.054,-0.130
0.048,-0.075
0.040,-0.010
0.038,0.056
0.028,0.085
0.027,0.098
0.029,0.083
0.031,0.068
0.035,0.050
0.040,0.036
0.048,0.025
0.057,0.023
0.059,0.023
0.060,0.023
0.054,0.018
0.055,0.010
0.051,0.003
0.054,-0.002
0.051,-0.003
0.058,-0.006
0.055,-0.006
0.055,-0.005
0.053,-0.002
0.048,-0.006
0.044,-0.011
0.040,-0.016
0.042,-0.019
0.037,-0.024
0.041,-0.021
0.041,-0.017
0.045,-0.016
0.046,-0.018
0.056,-0.022
0.058,-0.013
0.061,0.001
0.055,0.014
0.057,0.023
0.053,0.022
0.050,0.019
0.046,0.018
0.047,0.010
0.049,0.009
0.045,0.006
0.052,0.006
0.050,0.001
0.052,0.002
0.045,-0.000
0.041,-0.003
0.036,-0.002
0.036,-0.002
0.036,0.004
0.034,0.010
0.030,0.014
0.024,0.019
0.015,0.021
0.019,0.023
0.022,0.025
0.028,0.026
0.033,0.027
0.053,0.023
0.064,0.027
0.066,0.028
0.058,0.030
0.048,0.030
0.048,0.031
0.047,0.028
0.049,0.029
0.047,0.028
0.046,0.030
0.048,0.028
0.047,0.031
0.047,0.027
0.048,0.030
0.048,0.029
0.046,0.031
0.041,0.034
0.039,0.035
0.038,0.034
0.034,0.037
0.036,0.039
0.035,0.041
0.041,0.040
0.043,0.041
0.047,0.036
0.047,0.037
0.050,0.035
0.049,0.035
0.052,0.036
0.052,0.037
0.050,0.037
0.049,0.037
0.047,0.038
0.046,0.037
0.046,0.041
0.043,0.040
0.046,0.045
0.044,0.044
0.040,0.045
0.041,0.046
0.041,0.047
0.044,0.042
0.046,0.043
0.047,0.039
0.047,0.039
0.045,0.042
0.044,0.042
0.045,0.045
0.047,0.046
0.046,0.045
0.045,0.043
0.046,0.046
0.045,0.042
0.048,0.039
0.042,0.036
0.044,0.032
0.043,0.030
0.044,0.030
0.041,0.034
0.041,0.046
0.043,0.059
0.047,0.061
0.046,0.057
0.048,0.049
0.046,0.040
0.049,0.036
0.049,0.034
0.045,0.032
0.042,0.035
0.041,0.033
0.043,0.034
0.044,0.029
0.046,0.033
0.048,0.031
0.053,0.032
0.052,0.027
0.047,0.023
0.046,0.021
0.046,0.025
0.047,0.024
0.046,0.030
0.046,0.027
0.046,0.025
0.050,0.024
0.049,0.027
0.048,0.028
0.050,0.027
0.050,0.020
0.049,0.018
0.048,0.013
0.043,0.016
0.036,0.012
0.035,0.014
0.029,0.011
0.031,0.015
0.026,0.011
0.042,0.011
0.052,0.009
0.058,0.008
0.048,0.004
0.051,0.004
0.049,0.002
0.053,0.003
0.049,0.002
0.054,0.003
0.052,0.002
0.056,0.004
0.053,0.002
0.051,0.006
0.052,0.007
0.051,0.005
0.048,0.008
0.050,0.006
0.046,0.001
0.052,-0.007
0.051,-0.008
0.049,-0.014
0.052,-0.008
0.049,-0.009
0.052,-0.003
0.050,-0.006
0.049,-0.005
0.049,-0.002
0.050,-0.003
0.049,-0.001
0.048,-0.003
0.046,-0.002
0.049,-0.003
0.049,-0.004
0.054,-0.004
0.052,-0.006
0.052,-0.008
0.045,-0.006
0.043,-0.008
0.044,-0.006
0.043,-0.008
0.045,-0.010
0.041,-0.011
0.042,-0.010
0.038,-0.006
0.039,-0.003
0.036,0.007
0.039,0.010
0.038,0.013
0.040,0.010
0.045,0.009
0.048,0.009
0.049,0.010
0.049,0.012
0.047,0.009
0.049,0.009
0.047,0.009
0.048,0.007
0.047,0.009
0.045,0.008
0.045,0.011
0.045,0.010
0.047,0.010
0.044,0.013
0.045,0.010
0.040,0.016
0.044,0.014
0.037,0.017
0.039,0.015
0.036,0.022
0.037,0.020
0.037,0.022
0.040,0.021
0.040,0.015
0.043,0.010
0.042,0.011
0.041,0.011
0.041,0.016
0.043,0.020
0.042,0.023
0.043,0.024
0.044,0.029
0.045,0.031
0.043,0.035
0.046,0.035
0.046,0.033
0.043,0.031
0.042,0.031
0.045,0.029
0.047,0.029
0.045,0.032
0.046,0.033
0.043,0.034
0.045,0.033
0.046,0.029
0.045,0.030
0.045,0.026
0.041,0.033
0.041,0.040
0.041,0.048
0.038,0.047
0.039,0.046
0.038,0.041
0.043,0.041
0.040,0.040
0.045,0.040
0.041,0.040
0.044,0.040
0.044,0.041
0.042,0.041
0.045,0.045
0.045,0.040
0.046,0.042
0.045,0.040
0.047,0.042
0.045,0.040
0.043,0.043
0.043,0.040
0.041,0.043
0.039,0.043
0.042,0.046
0.040,0.043
0.043,0.045
0.044,0.043
0.045,0.043
0.044,0.040
0.045,0.041
0.047,0.041
0.046,0.039
0.047,0.041
0.044,0.037
0.047,0.039
0.045,0.039
0.045,0.039
0.045,0.036
0.047,0.038
0.044,0.032
0.047,0.035
0.044,0.032
0.048,0.034
0.046,0.032
0.050,0.028
0.046,0.030
0.045,0.026
0.043,0.025
0.044,0.019
0.042,0.020
0.044,0.018
0.040,0.028
0.042,0.037
0.044,0.045
0.039,0.044
0.044,0.037
0.043,0.026
0.049,0.023
0.049,0.019
0.052,0.019
0.048,0.018
0.047,0.018
0.043,0.016
0.041,0.017
0.039,0.011
0.044,0.009
0.043,0.009
0.046,0.009
0.048,0.006
0.049,0.008
0.048,0.006
0.047,0.009
0.042,0.007
0.046,0.008
0.045,0.006
0.047,0.006
0.049,0.005
0.052,0.002
0.052,0.000
0.056,-0.001
0.055,-0.003
0.054,-0.003
0.057,-0.004
0.056,-0.004
0.056,-0.005
0.055,-0.006
0.052,-0.003
0.052,-0.004
0.042,-0.000
0.040,0.000
0.035,-0.001
0.036,-0.004
0.037,-0.000
0.037,-0.003
0.041,-0.004
0.041,-0.005
0.047,-0.005
0.052,-0.006
0.052,-0.004
0.053,-0.004
0.051,-0.006
0.050,-0.006
0.050,-0.004
0.048,-0.005
0.052,-0.006
0.043,-0.004
0.043,-0.008
0.039,-0.006
0.041,-0.006
0.039,-0.005
0.036,-0.004
0.040,-0.002
0.040,0.001
0.041,-0.001
0.046,-0.003
0.047,-0.002
0.050,-0.003
0.051,-0.004
0.050,-0.003
0.052,-0.003
0.050,0.001
0.051,0.001
0.047,0.003
0.047,0.001
0.047,0.005
0.050,0.004
0.047,0.004
0.046,0.003
0.047,0.009
0.043,0.008
0.041,0.007
0.036,0.010
0.036,0.010
0.035,0.013
0.033,0.011
0.032,0.014
0.033,0.010
0.032,0.013
0.037,0.010
0.037,0.013
0.039,0.014
0.041,0.016
0.047,0.014
0.048,0.020
0.056,0.017
0.055,0.021
0.055,0.017
0.052,0.019
0.052,0.019
0.050,0.022
0.047,0.025
0.044,0.023
0.045,0.020
0.045,0.018
0.046,0.023
0.041,0.026
0.042,0.029
0.039,0.034
0.043,0.033
0.041,0.032
0.044,0.031
0.048,0.035
0.044,0.032
0.047,0.036
0.044,0.034
0.045,0.038
0.043,0.038
0.045,0.039
0.045,0.036
0.044,0.039
0.044,0.036
0.045,0.035
0.042,0.035
0.044,0.035
0.041,0.036
0.045,0.037
0.042,0.037
0.044,0.037
0.046,0.040
0.045,0.038
0.047,0.044
0.046,0.040
0.045,0.044
0.042,0.041
0.040,0.042
0.036,0.042
0.039,0.047
0.035,0.045
0.035,0.043
0.035,0.042
0.040,0.045
0.041,0.041
0.047,0.043
0.049,0.039
0.054,0.040
0.054,0.040
0.055,0.039
0.052,0.042
0.052,0.039
0.051,0.041
0.051,0.039
0.050,0.041
0.047,0.038
0.047,0.038
0.042,0.036
0.048,0.039
0.046,0.035
0.047,0.035
0.044,0.031
0.044,0.031
0.039,0.032
0.036,0.031
0.039,0.033
0.042,0.030
0.045,0.032
0.049,0.032
0.048,0.029
0.054,0.027
0.049,0.029
0.047,0.025
0.041,0.026
0.038,0.026
0.037,0.024
0.034,0.023
0.040,0.025
0.042,0.022
0.044,0.019
0.047,0.017
0.054,0.018
0.054,0.017
0.055,0.018
0.051,0.015
0.050,0.013
0.050,0.010
0.048,0.012
0.044,0.008
0.046,0.011
0.042,0.009
0.048,0.010
0.041,0.009
0.042,0.009
0.044,0.009
0.046,0.004
0.051,0.004
0.052,0.002
0.054,0.000
0.054,-0.003
0.054,-0.002
0.054,-0.003
0.054,-0.002
0.051,-0.001
0.049,0.002
0.047,-0.002
0.045,0.001
0.047,-0.001
0.047,0.001
0.047,-0.003
0.050,-0.001
0.047,-0.005
0.052,-0.006
0.048,-0.008
0.052,-0.008
0.049,-0.009
0.051,-0.007
0.048,-0.009
0.048,-0.010
0.047,-0.006
0.047,-0.010
0.045,-0.007
0.045,-0.007
0.044,-0.006
0.043,-0.005
0.044,-0.006
0.045,-0.009
0.049,-0.006
0.048,-0.008
0.049,-0.006
0.050,-0.007
0.050,-0.008
0.048,-0.004
0.046,-0.004
0.043,-0.002
0.043,-0.003
0.043,0.004
0.047,0.002
0.045,0.004
0.047,0.002
0.048,0.002
0.047,0.003
0.047,0.006
0.044,0.003
0.042,0.007
0.039,0.004
0.039,0.007
0.039,0.004
0.044,0.007
0.041,0.004
0.043,0.005
0.045,0.008
0.046,0.007
0.049,0.011
0.048,0.008
0.045,0.012
0.045,0.010
0.046,0.014
0.045,0.010
0.045,0.013
0.045,0.012
0.046,0.016
0.047,0.013
0.043,0.018
0.046,0.017
0.042,0.021
0.042,0.021
0.044,0.026
0.042,0.023
0.047,0.025
0.048,0.025
0.050,0.023
0.051,0.026
0.050,0.027
0.049,0.026
0.044,0.024
0.046,0.026
0.044,0.029
0.046,0.028
0.041,0.030
0.046,0.029
0.045,0.031
0.046,0.032
0.043,0.033
0.045,0.032
0.044,0.032
0.046,0.035
0.044,0.035
0.043,0.036
0.039,0.033
0.041,0.031
0.037,0.031
0.037,0.031
0.034,0.036
0.034,0.035
0.036,0.039
0.030,0.036
0.033,0.038
0.031,0.041
0.034,0.040
0.036,0.039
0.040,0.041
0.039,0.040
0.047,0.039
0.046,0.038
0.052,0.037
0.050,0.038
0.049,0.034
0.044,0.038
0.046,0.039
0.043,0.039
0.042,0.040
0.043,0.041
0.043,0.041
0.043,0.039
0.046,0.040
0.046,0.040
0.047,0.040
0.044,0.036
0.046,0.036
0.046,0.032
0.049,0.035
0.051,0.033
0.049,0.037
0.052,0.035
0.048,0.035
0.046,0.033
0.044,0.034
0.040,0.035
0.044,0.032
0.044,0.029
0.048,0.032
0.047,0.029
0.045,0.028
0.048,0.029
0.044,0.025
0.047,0.025
0.045,0.025
0.043,0.024
0.043,0.026
0.045,0.024
0.049,0.023
0.048,0.022
0.049,0.019
0.047,0.019
0.049,0.020
0.048,0.023
0.049,0.019
0.047,0.018
0.048,0.014
0.050,0.012
0.050,0.012
0.047,0.012
0.047,0.010
0.043,0.009
0.044,0.006
0.042,0.008
0.045,0.008
0.046,0.010
0.050,0.006
0.049,0.008
0.049,0.007
0.050,0.005
0.048,0.003
0.046,0.003
0.043,0.000
0.048,0.002
0.048,-0.002
0.051,0.001
0.050,0.001
0.049,0.000
0.050,-0.001
0.051,-0.003
0.047,0.001
0.051,-0.003
0.049,0.001
0.050,-0.003
0.051,-0.003
0.049,-0.005
0.051,-0.002
0.047,-0.005
0.049,-0.007
0.049,-0.008
0.052,-0.007
0.052,-0.007
0.053,-0.006
0.051,-0.007
0.049,-0.006
0.044,-0.004
0.041,-0.003
0.035,-0.002
0.035,-0.003
0.030,-0.003
0.033,-0.003
0.031,0.001
0.036,-0.002
0.044,-0.002
0.050,-0.004
0.056,-0.003
0.054,-0.006
0.056,-0.004
0.052,-0.004
0.055,-0.005
0.052,0.000
0.051,-0.001
0.050,0.002
0.049,0.001
0.046,0.004
0.046,0.002
0.045,0.003
0.046,0.004
0.045,0.005
0.044,0.002
0.049,0.004
0.045,0.002
0.049,0.005
0.045,0.008
0.048,0.008
0.047,0.006
0.048,0.010
0.046,0.007
0.046,0.010
0.047,0.010
0.048,0.011
0.046,0.013
0.049,0.012
0.046,0.015
0.048,0.013
0.045,0.016
0.047,0.014
0.045,0.020
0.042,0.019
0.045,0.022
0.044,0.023
0.044,0.023
0.045,0.023
0.048,0.023
0.046,0.025
0.049,0.023
0.046,0.025
0.047,0.024
0.047,0.026
0.046,0.027
0.045,0.030
0.044,0.027
0.045,0.032
0.043,0.034
0.043,0.032
0.041,0.037
0.039,0.035
0.039,0.041
0.035,0.037
0.035,0.036
0.033,0.035
0.035,0.036
0.035,0.037
0.037,0.035
0.042,0.035
0.043,0.039
0.047,0.039
0.046,0.039
0.048,0.038
0.044,0.040
0.045,0.038
0.047,0.040
0.045,0.039
0.047,0.040
0.046,0.042
0.046,0.041
0.046,0.045
0.048,0.040
0.046,0.043
0.042,0.039
0.041,0.041
0.041,0.042
0.040,0.042
0.041,0.042
0.045,0.041
0.045,0.042
0.047,0.041
0.047,0.039
0.045,0.041
0.045,0.038
0.046,0.039
0.045,0.040
0.045,0.040
0.045,0.041
0.044,0.039
0.047,0.040
0.047,0.036
0.045,0.036
0.044,0.037
0.043,0.040
0.043,0.037
0.047,0.037
0.046,0.033
0.049,0.033
0.051,0.034
0.052,0.030
0.052,0.035
0.050,0.030
0.050,0.032
0.046,0.029
0.048,0.029
0.047,0.028
0.047,0.029
0.042,0.025
0.043,0.027
0.040,0.026
0.040,0.026
0.042,0.022
0.047,0.024
0.045,0.023
0.051,0.023
0.050,0.021
0.056,0.021
0.054,0.019
0.052,0.017
0.050,0.015
0.050,0.014
0.048,0.011
0.047,0.011
0.050,0.011
0.046,0.011
0.049,0.009
0.047,0.008
0.050,0.007
0.049,0.009
0.047,0.007
0.050,0.006
0.050,0.004
0.050,0.003
0.050,0.003
0.051,0.001
0.052,0.001
0.052,-0.001
0.051,0.002
0.052,0.000
0.052,0.002
0.049,-0.000
0.051,0.002
0.051,-0.001
0.051,-0.001
0.052,-0.001
0.051,-0.002
0.050,-0.004
0.050,-0.003
0.051,-0.006
0.050,-0.005
0.049,-0.006
0.048,-0.005
0.049,-0.007
0.047,-0.005
0.046,-0.002
0.045,-0.005
0.045,-0.002
0.044,-0.008
0.045,-0.005
0.046,-0.006
0.047,-0.007
0.048,-0.006
0.050,-0.007
0.051,-0.006
0.051,-0.006
0.049,-0.004
0.050,-0.004
0.049,-0.005
0.050,-0.004
0.048,-0.002
0.047,-0.002
0.046,0.002
0.046,-0.000
0.048,0.003
0.046,0.003
0.047,0.004
0.046,0.003
0.047,0.004
0.049,0.004
0.052,0.007
0.048,0.004
0.052,0.007
0.047,0.007
0.048,0.006
0.046,0.007
0.045,0.007
0.047,0.010
0.045,0.010
0.048,0.011
0.047,0.012
0.045,0.013
0.047,0.013
0.044,0.014
0.045,0.012
0.044,0.015
0.045,0.015
0.045,0.017
0.047,0.015
0.046,0.016
0.044,0.013
0.046,0.017
0.044,0.020
0.046,0.022
0.045,0.020
0.049,0.020
0.049,0.022
0.048,0.022
0.050,0.026
0.046,0.024
0.048,0.025
0.047,0.028
0.046,0.027
0.044,0.028
0.045,0.030
0.042,0.029
0.039,0.030
0.038,0.034
0.036,0.036
0.037,0.037
0.040,0.034
0.042,0.036
0.046,0.034
0.049,0.035
0.048,0.035
0.046,0.035
0.045,0.033
0.044,0.036
0.043,0.037
0.044,0.037
0.043,0.036
0.044,0.036
0.044,0.037
0.046,0.038
0.046,0.042
0.043,0.042
0.046,0.043
0.044,0.042
0.044,0.043
0.048,0.041
0.043,0.040
0.046,0.037
0.041,0.039
0.042,0.035
0.043,0.039
0.039,0.039
0.044,0.042
0.041,0.040
0.044,0.040
0.044,0.039
0.045,0.040
0.046,0.039
0.046,0.038
0.046,0.039
0.048,0.040
0.043,0.037
0.045,0.038
0.043,0.040
0.047,0.037
0.045,0.038
0.047,0.032
0.049,0.034
0.045,0.031
0.047,0.033
0.047,0.031
0.050,0.030
0.047,0.031
0.050,0.030
0.045,0.032
0.048,0.028
0.047,0.029
0.047,0.028
0.045,0.027
0.048,0.025
0.046,0.023
0.049,0.023
0.048,0.024
0.049,0.023
0.048,0.023
0.046,0.018
0.048,0.022
0.045,0.018
0.051,0.018
0.046,0.018
0.049,0.020
0.047,0.016
0.049,0.015
0.048,0.010
0.051,0.011
0.051,0.008
0.053,0.010
0.048,0.008
0.048,0.009
0.046,0.008
0.045,0.008
0.042,0.007
0.045,0.005
0.046,0.004
0.046,0.006
0.048,0.002
0.046,0.003
0.048,-0.001
0.047,-0.000
0.045,-0.002
0.047,-0.002
0.048,0.000
0.048,-0.002
0.048,0.003
0.047,0.002
0.047,0.002
0.047,0.001
0.047,0.001
0.046,-0.002
0.047,-0.003
0.046,-0.004
0.051,-0.005
0.049,-0.009
0.049,-0.009
0.047,-0.009
0.049,-0.009
0.046,-0.006
0.047,-0.005
0.048,-0.004
0.048,-0.005
0.049,-0.002
0.045,-0.004
0.047,-0.003
0.047,-0.007
0.047,-0.006
0.048,-0.008
0.049,-0.004
0.045,-0.008
0.048,-0.004
0.047,-0.003
0.038,-0.005
0.021,-0.002
0.002,-0.005
-0.044,-0.001
-0.067,-0.003
-0.072,0.003
-0.049,0.002
-0.009,0.004
0.028,0.002
0.061,0.003
0.083,0.002
0.093,0.003
0.101,0.003
0.105,0.005
0.108,0.006
0.106,0.010
0.103,0.006
0.100,0.008
0.090,0.007
0.084,0.005
0.073,0.008
0.059,0.006
0.042,0.010
0.027,0.008
0.001,0.014
-0.029,0.012
-0.048,0.011
-0.052,0.009
-0.045,0.014
-0.024,0.014
0.002,0.016
0.030,0.014
0.052,0.019
0.071,0.016
0.084,0.021
0.088,0.018
0.094,0.022
0.093,0.023
0.095,0.024
0.089,0.024
0.089,0.026
0.090,0.026
0.085,0.026
0.085,0.028
0.078,0.028
0.075,0.026
0.069,0.029
0.068,0.032
0.062,0.032
0.059,0.032
0.053,0.035
0.054,0.033
0.047,0.036
0.047,0.033
0.044,0.036
0.047,0.036
0.043,0.037
0.044,0.035
0.045,0.036
0.043,0.034
0.044,0.036
0.041,0.034
0.042,0.037
0.042,0.038
0.043,0.038
0.040,0.040
0.042,0.040
0.039,0.040
0.041,0.041
0.040,0.042
0.043,0.043
0.043,0.040
0.044,0.039
0.044,0.039
0.043,0.040
0.042,0.039
0.043,0.037
0.045,0.041
0.043,0.038
0.043,0.038
0.041,0.039
0.042,0.039
0.041,0.041
0.044,0.039
0.043,0.041
0.046,0.039
0.045,0.042
0.045,0.039
0.043,0.039
0.044,0.039
0.043,0.038
0.044,0.037
0.043,0.036
0.043,0.034
0.045,0.035
0.047,0.034
0.046,0.034
0.048,0.031
0.046,0.032
0.045,0.034
0.045,0.033
0.040,0.032
0.043,0.030
0.043,0.031
0.044,0.028
0.041,0.029
0.041,0.028
0.042,0.026
0.045,0.024
0.046,0.022
0.045,0.023
0.046,0.021
0.047,0.021
0.048,0.021
0.048,0.019
0.049,0.018
0.047,0.015
0.049,0.017
0.045,0.011
0.045,0.012
0.046,0.010
0.048,0.010
0.044,0.009
0.051,0.007
0.047,0.006
0.046,0.007
0.043,0.007
0.041,0.009
0.040,0.008
0.041,0.009
0.041,0.004
0.043,0.004
0.048,0.000
0.054,0.000
0.052,-0.001
0.052,0.000
0.053,0.001
0.049,-0.000
0.048,0.001
0.047,0.000
0.046,0.001
0.045,0.000
0.044,0.002
0.045,0.000
0.047,0.001
0.046,-0.003
0.051,-0.004
0.048,-0.007
0.049,-0.006
0.048,-0.009
0.051,-0.006
0.047,-0.009
0.049,-0.010
0.046,-0.006
0.044,-0.009
0.044,-0.003
0.043,-0.005
0.046,-0.004
0.047,-0.005
0.049,-0.006
0.047,-0.007
0.051,-0.006
0.051,-0.008
0.048,-0.004
0.047,-0.005
0.047,-0.006
0.044,-0.004
0.044,-0.004
0.042,-0.003
0.045,-0.002
0.038,0.004
0.044,0.001
0.043,0.005
0.044,-0.000
0.044,0.002
0.043,-0.000
0.044,0.001
0.042,0.002
0.045,0.003
0.045,0.003
0.047,0.008
0.045,0.006
0.050,0.004
0.050,0.003
0.051,0.006
0.048,0.003
0.046,0.008
0.043,0.010
0.043,0.010
0.036,0.013
0.042,0.013
0.042,0.015
0.043,0.011
0.042,0.013
0.046,0.013
0.047,0.016
0.045,0.014
0.048,0.016
0.046,0.016
0.044,0.017
0.043,0.018
0.044,0.020
0.041,0.020
0.041,0.024
0.041,0.022
0.041,0.025
0.041,0.024
0.044,0.026
0.044,0.025
0.045,0.028
0.044,0.025
0.043,0.028
0.043,0.028
0.045,0.030
0.043,0.026
0.038,0.031
0.041,0.031
0.036,0.033
0.039,0.031
0.038,0.034
0.041,0.035
0.041,0.037
0.045,0.039
0.049,0.037
0.048,0.037
0.047,0.036
0.047,0.033
0.047,0.034
0.048,0.033
0.046,0.037
0.044,0.036
0.044,0.040
0.043,0.041
0.044,0.042
0.043,0.042
0.047,0.042
0.042,0.042
0.047,0.040
0.043,0.041
0.043,0.037
0.044,0.040
0.043,0.037
0.042,0.038
0.041,0.039
0.044,0.039
0.042,0.041
0.042,0.039
0.044,0.040
0.043,0.037
0.045,0.041
0.046,0.039
0.045,0.040
0.044,0.042
0.043,0.040
0.045,0.039
0.044,0.040
0.046,0.036
0.043,0.037
0.047,0.034
0.046,0.036
0.044,0.035
0.046,0.035
0.047,0.032
0.047,0.034
0.050,0.029
0.049,0.029
0.047,0.031
0.047,0.028
0.049,0.029
0.048,0.027
0.049,0.029
0.047,0.029
0.045,0.024
0.049,0.026
0.048,0.025
0.052,0.024
0.048,0.023
0.048,0.021
0.049,0.022
0.047,0.021
0.047,0.021
0.049,0.019
0.047,0.017
0.045,0.017
0.048,0.013
0.048,0.013
0.047,0.012
0.049,0.010
0.047,0.010
0.047,0.008
0.047,0.008
0.046,0.005
0.047,0.007
0.048,0.005
0.046,0.004
0.045,0.007
0.048,0.007
0.045,0.004
0.048,0.003
0.047,0.001
0.049,0.001
0.047,0.001
0.049,-0.000
0.051,0.000
0.052,-0.005
0.051,-0.003
0.051,-0.003
0.049,-0.005
0.051,-0.003
0.047,-0.001
0.048,-0.006
0.049,-0.003
0.051,-0.003
0.051,-0.006
0.053,-0.008
0.054,-0.007
0.052,-0.011
0.050,-0.007
0.047,-0.009
0.049,-0.011
0.045,-0.008
0.049,-0.013
0.046,-0.007
0.047,-0.005
0.045,-0.006
0.047,-0.004
0.048,-0.006
0.047,-0.009
0.049,-0.007
0.049,-0.009
0.046,-0.007
0.050,-0.012
0.046,-0.008
0.049,-0.008
0.048,-0.006
0.047,-0.004
0.048,-0.003
0.045,0.001
0.044,-0.002
0.043,0.001
0.043,-0.003
0.040,-0.002
0.041,-0.001
0.039,0.001
0.041,0.002
0.044,0.001
0.043,0.001
0.046,0.001
0.050,0.003
0.050,0.001
0.052,0.004
0.048,0.004
0.050,0.005
0.050,0.005
0.045,0.009
0.049,0.007
0.047,0.008
0.049,0.009
0.045,0.010
0.045,0.010
0.040,0.010
0.041,0.011
0.037,0.012
0.043,0.011
0.039,0.013
0.046,0.013
0.041,0.017
0.043,0.013
0.044,0.017
0.045,0.018
0.046,0.023
0.042,0.022
0.043,0.024
0.043,0.024
0.044,0.026
0.045,0.024
0.044,0.021
0.047,0.023
0.045,0.024
0.048,0.023
0.046,0.027
0.046,0.026
0.046,0.032
0.043,0.030
0.044,0.033
0.042,0.032
0.039,0.035
0.042,0.034
0.043,0.035
0.045,0.036
0.044,0.035
0.043,0.034
0.045,0.035
0.043,0.034
0.045,0.036
0.041,0.035
0.044,0.037
0.043,0.037
0.043,0.037
0.042,0.038
0.045,0.040
0.045,0.042
0.044,0.039
0.043,0.041
0.044,0.040
0.041,0.037
0.045,0.037
0.043,0.039
0.043,0.037
0.041,0.042
0.040,0.040
0.040,0.043
0.040,0.041
0.043,0.040
0.044,0.039
0.043,0.038
0.047,0.040
0.049,0.038
0.050,0.040
0.049,0.038
0.049,0.038
0.047,0.036
0.045,0.037
0.046,0.036
0.045,0.036
0.040,0.034
0.040,0.033
0.041,0.031
0.045,0.036
0.042,0.031
0.045,0.032
0.046,0.030
0.050,0.029
0.049,0.031
0.050,0.029
0.049,0.032
0.047,0.029
0.049,0.032
0.048,0.028
0.049,0.027
0.047,0.024
0.049,0.022
0.047,0.021
0.050,0.020
0.049,0.020
0.049,0.021
0.051,0.020
0.048,0.020
0.051,0.019
0.049,0.019
0.047,0.014
0.048,0.013
0.048,0.015
0.049,0.012
0.048,0.011
0.049,0.010
0.049,0.009
0.050,0.008
0.052,0.006
0.050,0.007
0.052,0.005
0.051,0.010
0.050,0.008
0.052,0.006
0.049,0.001
0.055,0.002
0.052,-0.002
0.053,0.000
0.051,-0.000
0.054,0.000
0.051,0.003
0.053,0.003
0.048,0.002
0.049,0.001
0.049,0.003
0.051,0.001
0.051,0.002
0.052,0.002
0.049,0.000
0.053,-0.001
0.048,-0.004
0.046,-0.005
0.049,-0.004
0.049,-0.007
0.050,-0.007
0.050,-0.007
0.052,-0.008
0.053,-0.005
0.054,-0.007
0.053,-0.004
0.051,-0.005
0.050,-0.001
0.053,-0.003
0.050,-0.001
0.051,-0.004
0.050,-0.001
0.048,-0.002
0.046,-0.003
0.045,-0.004
0.052,-0.003
0.049,-0.007
0.049,-0.002
0.047,-0.002
0.049,0.001
0.048,0.004
0.049,0.004
0.049,0.004
0.049,0.003
0.045,0.003
0.049,0.004
0.044,0.008
0.046,0.003
0.044,0.006
0.044,0.006
0.047,0.008
0.045,0.007
0.047,0.009
0.045,0.008
0.048,0.008
0.046,0.011
0.050,0.009
0.046,0.011
0.049,0.010
0.046,0.013
0.048,0.013
0.046,0.016
0.048,0.017
0.047,0.015
0.045,0.012
0.046,0.014
0.045,0.013
0.045,0.018
0.047,0.015
0.045,0.019
0.045,0.017
0.045,0.023
0.042,0.022
0.043,0.022
0.042,0.024
0.043,0.027
0.046,0.028
0.045,0.023
0.047,0.028
0.045,0.027
0.047,0.031
0.045,0.030
0.045,0.033
0.045,0.028
0.043,0.029
0.044,0.030
0.046,0.030
0.046,0.033
0.043,0.033
0.042,0.034
0.043,0.036
0.037,0.035
0.040,0.035
0.036,0.036
0.037,0.036
0.036,0.039
0.040,0.039
0.039,0.038
0.038,0.039
0.042,0.040
0.042,0.038
0.044,0.043
0.043,0.039
0.043,0.041
0.042,0.043
0.040,0.040
0.042,0.041
0.044,0.041
0.045,0.041
0.045,0.039
0.046,0.040
0.045,0.038
0.045,0.040
0.044,0.039
0.043,0.041
0.041,0.041
0.041,0.043
0.043,0.041
0.043,0.043
0.045,0.043
0.043,0.042
0.044,0.040
0.045,0.039
0.042,0.043
0.043,0.040
0.043,0.040
0.043,0.036
0.045,0.036
0.043,0.040
0.046,0.038
0.047,0.037
0.047,0.035
0.049,0.034
0.049,0.034
0.049,0.030
0.049,0.033
0.050,0.029
0.049,0.032
0.049,0.030
0.049,0.028
0.047,0.031
0.047,0.026
0.045,0.027
0.047,0.027
0.045,0.027
0.044,0.023
0.047,0.023
0.047,0.024
0.050,0.023
0.050,0.021
0.048,0.020
0.050,0.019
0.047,0.018
0.051,0.015
0.047,0.014
0.052,0.014
0.048,0.013
0.049,0.013
0.048,0.014
0.050,0.010
0.046,0.010
0.047,0.009
0.044,0.009
0.049,0.007
0.046,0.008
0.048,0.006
0.048,0.005
0.049,0.002
0.050,0.003
0.050,0.002
0.052,0.002
0.050,0.000
0.052,0.002
0.052,0.000
0.050,-0.001
0.050,0.000
0.051,-0.001
0.047,0.001
0.052,0.000
0.049,0.002
0.051,-0.000
0.048,-0.002
0.051,-0.003
0.050,-0.003
0.046,-0.006
0.044,0.000
0.043,-0.003
0.040,-0.004
0.042,-0.003
0.045,-0.004
0.042,-0.003
0.049,-0.003
0.048,-0.000
0.053,-0.001
0.052,-0.000
0.053,-0.004
0.050,-0.005
0.049,-0.004
0.049,-0.003
0.049,-0.004
0.049,-0.003
0.050,-0.003
0.048,-0.002
0.050,-0.004
0.049,-0.001
0.048,-0.001
0.049,0.001
0.047,0.001
0.045,0.002
0.043,0.004
0.045,0.003
0.041,0.004
0.029,0.006
0.011,0.007
-0.015,0.009
-0.055,0.008
-0.063,0.007
-0.061,0.009
-0.033,0.007
0.006,0.008
0.038,0.004
0.069,0.009
0.086,0.008
0.097,0.010
0.100,0.011
0.106,0.011
0.105,0.009
0.108,0.011
0.103,0.014
0.098,0.017
0.088,0.015
0.079,0.013
0.071,0.014
0.061,0.015
0.045,0.016
0.033,0.014
0.014,0.019
-0.016,0.021
-0.039,0.024
-0.044,0.025
-0.042,0.024
-0.029,0.027
-0.007,0.026
0.021,0.030
0.043,0.028
0.065,0.031
0.077,0.030
0.088,0.031
0.091,0.029
0.090,0.032
0.093,0.030
0.091,0.033
0.090,0.031
0.093,0.036
0.086,0.034
0.081,0.036
0.066,0.034
0.058,0.033
0.035,0.039
0.011,0.038
-0.013,0.039
-0.018,0.039
-0.023,0.039
-0.019,0.040
-0.012,0.039
0.009,0.040
0.027,0.040
0.043,0.040
0.056,0.041
0.070,0.039
0.080,0.043
0.083,0.042
0.087,0.044
0.085,0.042
0.085,0.045
0.084,0.046
0.085,0.042
0.080,0.044
0.079,0.045
0.079,0.045
0.078,0.046
0.078,0.045
0.077,0.046
0.073,0.047
0.071,0.046
0.068,0.046
0.066,0.042
0.063,0.044
0.060,0.041
0.058,0.043
0.054,0.043
0.055,0.041
0.050,0.043
0.050,0.043
0.049,0.043
0.050,0.039
0.049,0.041
0.050,0.041
0.051,0.039
0.051,0.038
0.050,0.037
0.049,0.035
0.049,0.036
0.045,0.032
0.045,0.034
0.043,0.033
0.043,0.033
0.041,0.034
0.044,0.031
0.044,0.031
0.048,0.031
0.047,0.028
0.049,0.028
0.048,0.028
0.045,0.026
0.043,0.026
0.043,0.024
0.045,0.025
0.047,0.024
0.045,0.022
0.050,0.021
0.048,0.021
0.049,0.015
0.049,0.017
0.049,0.011
0.046,0.016
0.044,0.011
0.044,0.013
0.045,0.011
0.046,0.013
0.045,0.010
0.047,0.012
0.048,0.007
0.047,0.007
0.047,0.007
0.046,0.009
0.044,0.006
0.046,0.006
0.043,0.004
0.042,0.006
0.045,0.007
0.047,0.003
0.045,0.002
0.044,0.000
0.043,-0.000
0.045,0.000
0.045,0.004
0.044,0.001
0.047,0.004
0.047,0.002
0.043,0.002
0.045,-0.001
0.047,0.000
0.044,-0.002
0.046,0.001
0.045,-0.005
0.047,-0.005
0.043,-0.006
0.050,-0.003
0.048,-0.003
0.044,-0.003
0.047,-0.002
0.047,-0.005
0.045,-0.001
0.046,-0.002
0.046,0.000
0.045,-0.001
0.046,-0.001
0.046,-0.003
0.046,-0.001
0.047,-0.002
0.050,0.001
0.046,-0.003
0.048,-0.000
0.044,0.000
0.046,0.002
0.041,0.003
0.038,0.002
0.039,0.005
0.037,0.006
0.038,0.010
0.039,0.008
0.040,0.013
0.044,0.009
0.046,0.009
0.046,0.006
0.045,0.007
0.043,0.008
0.045,0.010
0.040,0.011
0.044,0.011
0.042,0.010
0.042,0.012
0.041,0.012
0.041,0.013
0.043,0.011
0.042,0.013
0.043,0.013
0.042,0.013
0.042,0.012
0.043,0.016
0.042,0.016
0.043,0.017
0.042,0.018
0.041,0.021
0.044,0.021
0.043,0.026
0.040,0.026
0.041,0.028
0.039,0.026
0.041,0.031
0.041,0.031
0.040,0.032
0.039,0.032
0.043,0.033
0.039,0.032
0.045,0.032
0.041,0.032
0.042,0.034
0.043,0.034
0.045,0.038
0.039,0.034
0.041,0.035
0.041,0.035
0.044,0.036
0.042,0.036
0.040,0.036
0.040,0.040
0.039,0.039
0.041,0.042
0.039,0.037
0.039,0.039
0.037,0.038
0.038,0.041
0.039,0.043
0.044,0.042
0.040,0.042
0.042,0.041
0.042,0.037
0.047,0.044
0.044,0.037
0.046,0.040
0.045,0.037
0.048,0.040
0.043,0.042
0.045,0.041
0.038,0.044
0.042,0.042
0.039,0.044
0.040,0.044
0.041,0.045
0.042,0.045
0.045,0.044
0.043,0.045
0.043,0.043
0.039,0.040
0.042,0.040
0.038,0.039
0.042,0.041
0.043,0.037
0.045,0.039
0.046,0.040
0.044,0.040
0.042,0.040
0.043,0.038
0.044,0.037
0.043,0.035
0.046,0.038
0.043,0.038
0.042,0.038
0.041,0.037
0.045,0.036
0.044,0.035
0.048,0.033
0.046,0.030
0.047,0.029
0.047,0.025
0.049,0.026
0.046,0.030
0.048,0.026
0.044,0.027
0.045,0.024
0.043,0.027
0.046,0.022
0.047,0.025
0.048,0.022
0.052,0.022
0.050,0.019
0.052,0.018
0.048,0.011
0.047,0.014
0.043,0.008
0.039,0.012
0.037,0.010
0.038,0.013
0.038,0.010
0.043,0.013
0.043,0.010
0.049,0.012
0.052,0.008
0.049,0.007
0.050,0.006
