File Version,253.000000
# of Channels,2.000000
Samples/Channel,10300.000000
Scan Rate (Hz),10000.000000
Timestamp,3807792767.757550
Operating Mode,1.000000
Trial #,19.000000
Session #,24.000000
Subject code 1,82.000000
Subject code 2,88.000000
Feedback Window,0.000000
Feedback Ch,0.000000
Ch B,0.000000
Pre-Stim Acq. time (ms),100.000000
Post-Stim Acq. time (ms),900.000000
EMG Hi Limit,50.000000
EMG Lo Limit,0.000250
Target Value (V),5.000000
Stimulus Value (V),0.684428
Stimulus duration (ms),1.000000
EMG conditions time limit (sec),0.200000
M-response Start (ms),2.000000
M-response Duration (ms),2.000000
H-response Duration (ms),2.000000
H-response Start (ms),5.000000
Proportioanl gain,0.003000
Channel to monitor,0.000000
SIU gain,20.000000
FB Monitor value,0.031550
Inter-Stim delay (sec),5.000000
M-Window Mean,0.087108
H-Window Mean,0.014291
Stimulus paradigm,2.000000
# of Pulses in cond train,1.000000
Cond duration (ms),1.000000
Cond Train pulse period (ms),30.000000
Cond Value (V),0.684428
Start Delay (ms),0.000000
# of Pulses in stim train,1.000000
Stim Train pulse period (ms),30.000000
EMG amp gain ch 1,500.000000
EMG amp gain ch 2,500.000000
EMG amp gain ch 3,1000.000000
EMG amp gain ch 4,1000.000000
EMG amp gain ch 5,1000.000000
EMG amp gain ch 6,1000.000000
Stim Type 1,2.000000
Stim/Cond 1,0.000000
Stim Type 2,3.000000
Stim/Cond 2,0.000000
Stim Type 3,3.000000
Stim/Cond 3,0.000000
Stim Type 4,3.000000
Stim/Cond 4,0.000000
Stim Value 1,0.684428
Stim Value 2,0.000000
Stim Value 3,0.000000
Stim Value 4,0.000000
1st PP Channel,-1.000000
Pressure (g),0.000000
Speed (mm/sec),0.000000
Dwell (ms),0.000000
Pressure limit (g),0.000000
Travel limit (mm),0.000000
Amp gain,0.000000
Wait Trig?,0.000000
Move Timeout (ms),0.000000
Time Taken (ms),0.000000
Actual Travel (mm),0.000000
Recorded Data (mV),
0.044,0.113
0.049,0.113
0.047,0.105
0.046,0.102
0.045,0.096
0.047,0.090
0.045,0.080
0.046,0.074
0.050,0.060
0.049,0.058
0.049,0.049
0.050,0.045
0.049,0.036
0.050,0.034
0.050,0.031
0.050,0.027
0.049,0.023
0.049,0.017
0.054,0.014
0.050,0.007
0.049,-0.001
0.052,-0.005
0.053,-0.012
0.049,-0.011
0.053,-0.015
0.052,-0.019
0.054,-0.020
0.052,-0.021
0.055,-0.025
0.053,-0.025
0.056,-0.029
0.053,-0.030
0.053,-0.037
0.051,-0.041
0.052,-0.052
0.053,-0.054
0.052,-0.065
0.053,-0.068
0.051,-0.073
0.051,-0.074
0.052,-0.076
0.051,-0.074
0.055,-0.075
0.055,-0.073
0.056,-0.075
0.055,-0.075
0.056,-0.081
0.054,-0.085
0.053,-0.091
0.051,-0.094
0.055,-0.098
0.053,-0.099
0.057,-0.104
0.053,-0.105
0.058,-0.106
0.053,-0.104
0.053,-0.103
0.054,-0.099
0.056,-0.096
0.057,-0.092
0.056,-0.091
0.057,-0.090
0.056,-0.089
0.057,-0.082
0.055,-0.082
0.056,-0.072
0.057,-0.075
0.057,-0.067
0.055,-0.066
0.059,-0.062
0.055,-0.058
0.058,-0.052
0.056,-0.049
0.057,-0.048
0.059,-0.042
0.057,-0.036
0.055,-0.029
0.058,-0.025
0.052,-0.019
0.058,-0.017
0.055,-0.011
0.057,-0.008
0.054,-0.003
0.052,0.002
0.052,0.007
0.053,0.011
0.054,0.018
0.053,0.024
0.053,0.034
0.056,0.039
0.053,0.049
0.052,0.055
0.053,0.067
0.050,0.069
0.051,0.078
0.051,0.080
0.051,0.086
0.051,0.090
0.049,0.094
0.049,0.099
0.047,0.104
0.050,0.112
0.050,0.120
0.050,0.123
0.054,0.132
0.052,0.138
0.052,0.142
0.050,0.150
0.047,0.150
0.043,0.159
0.045,0.156
0.048,0.164
0.044,0.164
0.047,0.167
0.045,0.175
0.045,0.176
0.041,0.187
0.044,0.190
0.043,0.200
0.043,0.208
0.045,0.217
0.045,0.219
0.047,0.223
0.044,0.221
0.043,0.223
0.043,0.228
0.042,0.229
0.041,0.233
0.041,0.235
0.048,0.236
0.047,0.238
0.040,0.239
0.040,0.245
0.039,0.244
0.039,0.245
0.039,0.245
0.041,0.244
0.041,0.244
0.042,0.243
0.042,0.241
0.038,0.237
0.036,0.240
0.038,0.236
0.039,0.236
0.039,0.231
0.041,0.227
0.042,0.224
0.043,0.221
0.042,0.222
0.043,0.216
0.040,0.216
0.041,0.209
0.039,0.209
0.039,0.201
0.044,0.199
0.040,0.197
0.038,0.194
0.040,0.190
0.040,0.187
0.039,0.184
0.041,0.181
0.040,0.177
0.043,0.172
0.039,0.166
0.041,0.162
0.043,0.157
0.042,0.152
0.041,0.150
0.040,0.147
0.042,0.143
0.039,0.135
0.041,0.127
0.043,0.117
0.045,0.108
0.044,0.101
0.044,0.090
0.045,0.085
0.044,0.080
0.046,0.072
0.048,0.071
0.046,0.065
0.046,0.062
0.045,0.057
0.045,0.053
0.045,0.045
0.047,0.041
0.046,0.034
0.044,0.031
0.047,0.021
0.047,0.019
0.047,0.014
0.046,0.009
0.047,0.007
0.047,0.000
0.046,-0.002
0.046,-0.003
0.050,-0.005
0.048,-0.004
0.047,-0.009
0.051,-0.015
0.050,-0.023
0.049,-0.030
0.049,-0.039
0.050,-0.042
0.049,-0.051
0.054,-0.054
0.050,-0.055
0.052,-0.054
0.051,-0.059
0.056,-0.056
0.054,-0.058
0.054,-0.058
0.051,-0.064
0.053,-0.065
0.050,-0.075
0.053,-0.076
0.054,-0.082
0.055,-0.087
0.053,-0.090
0.055,-0.092
0.055,-0.095
0.053,-0.094
0.054,-0.092
0.054,-0.090
0.056,-0.086
0.054,-0.083
0.057,-0.083
0.057,-0.081
0.056,-0.076
0.054,-0.077
0.053,-0.071
0.054,-0.076
0.053,-0.069
0.056,-0.067
0.054,-0.062
0.054,-0.058
0.053,-0.056
0.053,-0.052
0.052,-0.049
0.053,-0.048
0.051,-0.042
0.052,-0.041
0.055,-0.032
0.051,-0.029
0.052,-0.026
0.052,-0.022
0.055,-0.016
0.051,-0.014
0.054,-0.009
0.052,-0.004
0.050,0.001
0.054,0.004
0.054,0.010
0.052,0.015
0.053,0.027
0.050,0.030
0.054,0.042
0.051,0.048
0.055,0.058
0.052,0.062
0.052,0.069
0.048,0.070
0.049,0.076
0.044,0.079
0.049,0.085
0.044,0.088
0.049,0.093
0.048,0.099
0.046,0.102
0.049,0.111
0.050,0.114
0.048,0.124
0.048,0.127
0.045,0.134
0.045,0.135
0.047,0.137
0.045,0.139
0.047,0.145
0.045,0.149
0.046,0.152
0.046,0.155
0.046,0.160
0.043,0.167
0.045,0.168
0.045,0.180
0.045,0.184
0.043,0.192
0.043,0.195
0.044,0.198
0.040,0.204
0.042,0.204
0.039,0.204
0.039,0.201
0.041,0.203
0.043,0.202
0.041,0.207
0.041,0.211
0.040,0.213
0.039,0.219
0.039,0.218
0.041,0.221
0.040,0.220
0.043,0.218
0.039,0.216
0.041,0.215
0.043,0.214
0.039,0.211
0.039,0.210
0.037,0.204
0.039,0.205
0.041,0.201
0.042,0.200
0.042,0.197
0.043,0.198
0.041,0.196
0.042,0.193
0.037,0.191
0.041,0.186
0.038,0.184
0.037,0.180
0.042,0.180
0.040,0.178
0.046,0.175
0.042,0.169
0.044,0.166
0.041,0.164
0.046,0.159
0.039,0.160
0.041,0.151
0.039,0.147
0.043,0.147
0.042,0.143
0.043,0.140
0.042,0.136
0.040,0.132
0.040,0.130
0.041,0.124
0.041,0.117
0.039,0.108
0.040,0.105
0.038,0.092
0.041,0.085
0.040,0.077
0.041,0.072
0.041,0.068
0.041,0.065
0.041,0.063
0.043,0.066
0.044,0.061
0.042,0.060
0.043,0.050
0.047,0.046
0.047,0.035
0.046,0.032
0.043,0.023
0.045,0.015
0.046,0.011
0.045,0.008
0.049,0.001
0.044,-0.001
0.046,-0.006
0.044,-0.010
0.046,-0.014
0.045,-0.017
0.045,-0.020
0.045,-0.026
0.047,-0.032
0.042,-0.040
0.045,-0.046
0.040,-0.052
0.044,-0.062
0.046,-0.067
0.046,-0.075
0.046,-0.079
0.048,-0.085
0.053,-0.082
0.050,-0.081
0.052,-0.085
0.049,-0.090
0.051,-0.092
0.049,-0.100
0.051,-0.102
0.053,-0.113
0.051,-0.115
0.050,-0.122
0.051,-0.125
0.049,-0.131
0.052,-0.130
0.049,-0.129
0.050,-0.129
0.049,-0.127
0.050,-0.124
0.050,-0.124
0.054,-0.119
0.051,-0.119
0.052,-0.115
0.050,-0.114
0.052,-0.110
0.050,-0.107
0.052,-0.106
0.052,-0.103
0.052,-0.097
0.049,-0.094
0.053,-0.088
0.050,-0.081
0.050,-0.078
0.048,-0.068
0.050,-0.062
0.047,-0.056
0.049,-0.051
0.049,-0.044
0.049,-0.043
0.049,-0.039
0.051,-0.034
0.046,-0.031
0.046,-0.028
0.043,-0.022
0.047,-0.020
0.044,-0.018
0.046,-0.016
0.045,-0.005
0.049,0.000
0.050,0.013
0.047,0.020
0.045,0.033
0.045,0.041
0.047,0.049
0.043,0.053
0.046,0.059
0.045,0.061
0.045,0.065
0.043,0.067
0.042,0.073
0.042,0.075
0.045,0.083
0.041,0.087
0.045,0.093
0.043,0.101
0.042,0.106
0.041,0.114
0.039,0.115
0.041,0.125
0.039,0.130
0.037,0.132
0.040,0.132
0.040,0.137
0.038,0.135
0.042,0.143
0.040,0.141
0.043,0.149
0.040,0.160
0.040,0.162
0.035,0.176
0.037,0.180
0.037,0.186
0.034,0.188
0.036,0.192
0.034,0.187
0.037,0.187
0.032,0.189
0.038,0.190
0.034,0.193
0.036,0.195
0.033,0.198
0.036,0.199
0.036,0.206
0.038,0.206
0.037,0.208
0.033,0.212
0.034,0.209
0.031,0.210
0.034,0.209
0.031,0.207
0.032,0.205
0.033,0.205
0.032,0.198
0.031,0.199
0.033,0.199
0.032,0.197
0.031,0.196
0.033,0.192
0.035,0.186
0.033,0.181
0.035,0.178
0.033,0.176
0.036,0.175
0.034,0.173
0.032,0.168
0.035,0.169
0.035,0.163
0.033,0.158
0.033,0.150
0.035,0.146
0.036,0.137
0.038,0.133
0.037,0.130
0.038,0.126
0.034,0.123
0.035,0.117
0.032,0.114
0.033,0.109
0.034,0.108
0.034,0.102
0.036,0.094
0.035,0.083
0.036,0.070
0.038,0.061
0.035,0.047
0.037,0.041
0.036,0.033
0.036,0.029
0.037,0.023
0.037,0.016
0.038,0.009
0.036,0.003
0.038,-0.002
0.036,-0.008
0.040,-0.017
0.038,-0.022
0.040,-0.032
0.042,-0.039
0.040,-0.050
0.042,-0.050
0.043,-0.055
0.042,-0.058
0.040,-0.064
0.038,-0.065
0.041,-0.070
0.041,-0.069
0.041,-0.075
0.043,-0.074
0.038,-0.079
0.039,-0.084
0.038,-0.092
0.038,-0.099
0.043,-0.106
0.040,-0.111
0.040,-0.117
0.040,-0.120
0.043,-0.124
0.039,-0.126
0.045,-0.125
0.041,-0.126
0.045,-0.129
0.042,-0.127
0.046,-0.131
0.044,-0.130
0.045,-0.136
0.042,-0.139
0.043,-0.147
0.043,-0.151
0.045,-0.154
0.045,-0.152
0.044,-0.155
0.046,-0.153
0.046,-0.154
0.046,-0.153
0.048,-0.154
0.044,-0.146
0.048,-0.147
0.048,-0.145
0.048,-0.143
0.049,-0.137
0.049,-0.135
0.049,-0.133
0.049,-0.128
0.046,-0.125
0.049,-0.123
0.046,-0.119
0.047,-0.120
0.045,-0.112
0.049,-0.109
0.044,-0.106
0.045,-0.102
0.045,-0.099
0.044,-0.092
0.043,-0.085
0.042,-0.082
0.045,-0.075
0.042,-0.074
0.045,-0.068
0.043,-0.065
0.047,-0.060
0.046,-0.056
0.047,-0.050
0.042,-0.047
0.046,-0.036
0.042,-0.029
0.045,-0.021
0.040,-0.011
0.040,-0.002
0.041,0.008
0.037,0.017
0.040,0.023
0.038,0.029
0.039,0.031
0.039,0.036
0.039,0.039
0.040,0.045
0.040,0.051
0.042,0.055
0.040,0.062
0.042,0.068
0.042,0.075
0.041,0.080
0.039,0.086
0.037,0.094
0.037,0.102
0.036,0.103
0.032,0.106
0.034,0.110
0.036,0.113
0.036,0.113
0.035,0.116
0.038,0.119
0.036,0.125
0.035,0.134
0.036,0.138
0.034,0.149
0.035,0.153
0.037,0.161
0.032,0.167
0.036,0.168
0.033,0.170
0.034,0.172
0.033,0.172
0.031,0.174
0.031,0.178
0.030,0.178
0.033,0.181
0.032,0.184
0.034,0.186
0.035,0.186
0.036,0.188
0.033,0.193
0.030,0.189
0.030,0.191
0.032,0.188
0.031,0.187
0.028,0.184
0.030,0.180
0.029,0.176
0.031,0.176
0.033,0.172
0.031,0.169
0.030,0.173
0.033,0.172
0.029,0.172
0.031,0.170
0.030,0.165
0.032,0.162
0.031,0.160
0.031,0.153
0.032,0.153
0.033,0.149
0.033,0.148
0.030,0.147
0.031,0.146
0.027,0.146
0.029,0.141
0.027,0.141
0.030,0.142
0.029,0.142
0.028,0.140
0.030,0.134
0.030,0.128
0.030,0.124
0.031,0.117
0.031,0.114
0.031,0.104
0.031,0.099
0.028,0.092
0.030,0.087
0.029,0.073
0.030,0.065
0.032,0.057
0.032,0.053
0.034,0.043
0.035,0.035
0.032,0.028
0.034,0.023
0.035,0.019
0.033,0.018
0.036,0.013
0.034,0.009
0.036,-0.000
0.036,-0.005
0.038,-0.012
0.037,-0.016
0.038,-0.023
0.036,-0.025
0.040,-0.030
0.039,-0.035
0.043,-0.040
0.043,-0.044
0.045,-0.048
0.041,-0.054
0.040,-0.059
0.037,-0.059
0.039,-0.070
0.040,-0.074
0.040,-0.084
0.040,-0.089
0.038,-0.095
0.040,-0.096
0.038,-0.104
0.042,-0.104
0.043,-0.108
0.042,-0.102
0.043,-0.105
0.045,-0.104
0.043,-0.108
0.042,-0.107
0.042,-0.110
0.040,-0.113
0.043,-0.120
0.043,-0.120
0.046,-0.130
0.043,-0.130
0.042,-0.137
0.046,-0.134
0.047,-0.133
0.045,-0.134
0.047,-0.131
0.044,-0.128
0.048,-0.127
0.044,-0.121
0.048,-0.123
0.047,-0.117
0.044,-0.117
0.045,-0.116
0.047,-0.115
0.047,-0.109
0.043,-0.107
0.044,-0.099
0.047,-0.098
0.047,-0.093
0.048,-0.090
0.048,-0.083
0.044,-0.083
0.045,-0.080
0.045,-0.075
0.047,-0.072
0.046,-0.067
0.046,-0.064
0.045,-0.059
0.045,-0.055
0.043,-0.050
0.044,-0.044
0.041,-0.042
0.043,-0.036
0.044,-0.030
0.044,-0.023
0.044,-0.017
0.045,-0.010
0.046,-0.001
0.042,0.010
0.042,0.019
0.044,0.027
0.042,0.033
0.044,0.043
0.039,0.051
0.038,0.056
0.037,0.062
0.041,0.067
0.040,0.068
0.042,0.075
0.038,0.078
0.041,0.084
0.037,0.089
0.038,0.097
0.038,0.104
0.037,0.110
0.036,0.116
0.036,0.117
0.034,0.123
0.034,0.127
0.034,0.130
0.034,0.129
0.035,0.132
0.034,0.132
0.035,0.134
0.036,0.143
0.036,0.147
0.034,0.157
0.033,0.167
0.034,0.176
0.036,0.180
0.036,0.187
0.032,0.187
0.034,0.185
0.031,0.189
0.031,0.188
0.030,0.188
0.030,0.188
0.030,0.192
0.031,0.191
0.033,0.190
0.031,0.198
0.031,0.203
0.032,0.208
0.028,0.206
0.029,0.205
0.029,0.204
0.030,0.202
0.034,0.196
0.033,0.194
0.034,0.190
0.033,0.187
0.034,0.188
0.032,0.185
0.028,0.184
0.032,0.182
0.030,0.182
0.030,0.179
0.035,0.178
0.034,0.175
0.036,0.171
0.032,0.170
0.035,0.164
0.032,0.165
0.032,0.159
0.031,0.159
0.030,0.152
0.033,0.147
0.031,0.142
0.036,0.137
0.034,0.127
0.036,0.126
0.037,0.124
0.034,0.121
0.036,0.119
0.034,0.117
0.035,0.115
0.039,0.108
0.035,0.106
0.037,0.097
0.034,0.093
0.034,0.080
0.037,0.075
0.036,0.066
0.038,0.057
0.037,0.051
0.039,0.047
0.041,0.043
0.038,0.035
0.040,0.035
0.038,0.033
0.039,0.029
0.041,0.023
0.037,0.016
0.039,0.007
0.039,-0.000
0.039,-0.008
0.041,-0.013
0.041,-0.018
0.042,-0.025
0.042,-0.026
0.042,-0.031
0.042,-0.036
0.042,-0.037
0.042,-0.043
0.044,-0.043
0.042,-0.049
0.044,-0.052
0.039,-0.058
0.045,-0.060
0.042,-0.071
0.046,-0.079
0.042,-0.086
0.042,-0.094
0.043,-0.098
0.045,-0.096
0.045,-0.100
0.046,-0.097
0.048,-0.103
0.051,-0.102
0.049,-0.107
0.047,-0.109
0.051,-0.112
0.048,-0.115
0.047,-0.121
0.047,-0.124
0.046,-0.127
0.049,-0.128
0.043,-0.133
0.048,-0.135
0.045,-0.138
0.050,-0.136
0.048,-0.135
0.050,-0.132
0.050,-0.131
0.050,-0.125
0.050,-0.127
0.052,-0.125
0.048,-0.124
0.052,-0.119
0.050,-0.117
0.051,-0.115
0.051,-0.111
0.049,-0.107
0.049,-0.103
0.048,-0.099
0.048,-0.095
0.046,-0.094
0.048,-0.087
0.049,-0.086
0.049,-0.079
0.051,-0.077
0.048,-0.068
0.047,-0.066
0.045,-0.059
0.047,-0.055
0.044,-0.049
0.047,-0.044
0.045,-0.039
0.045,-0.036
0.042,-0.029
0.045,-0.027
0.042,-0.023
0.046,-0.016
0.040,-0.004
0.043,0.004
0.043,0.014
0.045,0.021
0.042,0.031
0.047,0.037
0.041,0.046
0.044,0.045
0.040,0.054
0.041,0.056
0.039,0.063
0.039,0.064
0.038,0.075
0.038,0.079
0.041,0.087
0.037,0.092
0.039,0.102
0.039,0.103
0.040,0.109
0.038,0.109
0.039,0.118
0.036,0.124
0.039,0.126
0.038,0.131
0.036,0.132
0.036,0.135
0.036,0.137
0.039,0.145
0.037,0.149
0.038,0.156
0.036,0.169
0.037,0.179
0.036,0.187
0.039,0.194
0.033,0.197
0.033,0.196
0.034,0.197
0.035,0.196
0.033,0.196
0.036,0.200
0.033,0.205
0.031,0.207
0.032,0.207
0.031,0.212
0.033,0.213
0.032,0.218
0.032,0.218
0.036,0.221
0.032,0.223
0.033,0.219
0.032,0.222
0.028,0.214
0.034,0.213
0.032,0.214
0.036,0.210
0.034,0.209
0.030,0.207
0.031,0.208
0.032,0.206
0.032,0.206
0.031,0.204
0.032,0.199
0.031,0.194
0.034,0.192
0.030,0.183
0.033,0.183
0.030,0.179
0.034,0.172
0.032,0.169
0.032,0.166
0.032,0.160
0.030,0.156
0.032,0.150
0.030,0.144
0.034,0.142
0.033,0.135
0.035,0.132
0.035,0.126
0.036,0.125
0.036,0.118
-0.008,0.096
-0.012,0.091
-0.011,0.089
-0.011,0.081
-0.005,0.078
-0.001,0.064
0.000,0.055
0.003,0.048
0.008,0.042
0.015,0.044
0.093,0.076
0.134,0.068
0.165,-0.017
0.149,-0.106
0.085,-0.029
-0.010,0.194
-0.119,0.662
-0.226,1.115
-0.326,1.398
-0.345,1.367
-0.210,0.902
0.028,0.150
0.195,-0.555
0.223,-0.960
0.184,-1.021
0.144,-0.838
0.120,-0.603
0.105,-0.413
0.100,-0.296
0.097,-0.224
0.093,-0.185
0.083,-0.160
0.078,-0.146
0.069,-0.142
0.067,-0.140
0.064,-0.143
0.062,-0.145
0.062,-0.150
0.061,-0.149
0.059,-0.150
0.062,-0.148
0.056,-0.146
0.058,-0.141
0.057,-0.137
0.056,-0.136
0.055,-0.137
0.054,-0.143
0.058,-0.146
0.056,-0.151
0.056,-0.154
0.054,-0.148
0.060,-0.148
0.056,-0.153
0.058,-0.179
0.056,-0.189
0.058,-0.190
0.058,-0.182
0.058,-0.176
0.054,-0.171
0.060,-0.170
0.057,-0.162
0.058,-0.163
0.056,-0.158
0.057,-0.158
0.058,-0.152
0.056,-0.149
0.055,-0.144
0.054,-0.143
0.056,-0.137
0.058,-0.133
0.058,-0.130
0.055,-0.130
0.056,-0.126
0.055,-0.123
0.055,-0.120
0.052,-0.114
0.050,-0.110
0.052,-0.106
0.052,-0.103
0.054,-0.100
0.052,-0.096
0.052,-0.094
0.054,-0.086
0.050,-0.086
0.052,-0.081
0.051,-0.074
0.051,-0.068
0.051,-0.062
0.050,-0.048
0.048,-0.042
0.049,-0.032
0.046,-0.026
0.047,-0.016
0.043,-0.013
0.048,-0.006
0.045,-0.003
0.045,-0.001
0.045,-0.000
0.047,0.004
0.043,0.009
0.047,0.014
0.041,0.016
0.049,0.024
0.046,0.027
0.048,0.033
0.043,0.040
0.045,0.041
0.044,0.044
0.042,0.045
0.045,0.049
0.044,0.050
0.039,0.054
0.037,0.053
0.040,0.059
0.041,0.061
0.044,0.068
0.041,0.071
0.042,0.083
0.041,0.084
0.043,0.093
0.040,0.099
0.039,0.094
0.037,0.095
0.036,0.095
0.036,0.095
0.035,0.093
0.039,0.095
0.036,0.096
0.038,0.097
0.037,0.096
0.037,0.102
0.035,0.101
0.032,0.104
0.031,0.104
0.033,0.103
0.033,0.106
0.034,0.101
0.032,0.101
0.033,0.099
0.035,0.095
0.034,0.093
0.034,0.089
0.033,0.087
0.033,0.084
0.028,0.084
0.030,0.079
0.032,0.078
0.034,0.075
0.037,0.071
0.033,0.068
0.034,0.066
0.034,0.059
0.035,0.058
0.036,0.055
0.035,0.053
0.037,0.052
0.036,0.047
0.032,0.047
0.033,0.041
0.035,0.043
0.037,0.043
0.034,0.040
0.037,0.039
0.033,0.036
0.039,0.030
0.034,0.025
0.036,0.022
0.034,0.023
0.037,0.015
0.036,0.010
0.037,-0.001
0.040,-0.006
0.038,-0.015
0.042,-0.023
0.041,-0.028
0.038,-0.036
0.042,-0.039
0.042,-0.043
0.043,-0.045
0.042,-0.047
0.041,-0.047
0.041,-0.051
0.042,-0.055
0.037,-0.058
0.039,-0.063
0.040,-0.069
0.041,-0.074
0.044,-0.082
0.043,-0.085
0.045,-0.088
0.042,-0.089
0.044,-0.091
0.045,-0.090
0.046,-0.097
0.044,-0.100
0.045,-0.102
0.047,-0.106
0.048,-0.110
0.047,-0.113
0.046,-0.123
0.043,-0.125
0.046,-0.132
0.046,-0.137
0.049,-0.143
0.047,-0.145
0.047,-0.148
0.048,-0.144
0.050,-0.147
0.047,-0.145
0.049,-0.146
0.048,-0.146
0.049,-0.147
0.049,-0.150
0.046,-0.158
0.050,-0.161
0.049,-0.164
0.049,-0.169
0.051,-0.173
0.050,-0.174
0.052,-0.176
0.052,-0.172
0.052,-0.172
0.052,-0.166
0.052,-0.167
0.051,-0.163
0.053,-0.160
0.054,-0.157
0.052,-0.155
0.051,-0.151
0.050,-0.150
0.048,-0.145
0.050,-0.143
0.049,-0.136
0.052,-0.134
0.050,-0.132
0.050,-0.127
0.049,-0.124
0.049,-0.120
0.049,-0.116
0.047,-0.110
0.050,-0.105
0.052,-0.102
0.051,-0.094
0.050,-0.089
0.050,-0.082
0.049,-0.078
0.049,-0.071
0.049,-0.064
0.049,-0.057
0.051,-0.051
0.051,-0.047
0.049,-0.042
0.051,-0.032
0.050,-0.025
0.056,-0.015
0.048,-0.007
0.049,0.004
0.043,0.012
0.047,0.019
0.046,0.023
0.044,0.030
0.043,0.031
0.043,0.036
0.044,0.038
0.046,0.044
0.045,0.048
0.045,0.057
0.044,0.064
0.045,0.069
0.045,0.076
0.044,0.081
0.045,0.088
0.040,0.089
0.036,0.097
0.038,0.100
0.038,0.103
0.039,0.104
0.038,0.108
0.038,0.109
0.037,0.112
0.040,0.118
0.038,0.120
0.036,0.128
0.039,0.138
0.039,0.145
0.038,0.150
0.039,0.154
0.038,0.157
0.040,0.159
0.035,0.159
0.036,0.160
0.037,0.163
0.038,0.161
0.035,0.164
0.036,0.163
0.038,0.167
0.035,0.168
0.037,0.170
0.035,0.174
0.034,0.174
0.033,0.179
0.035,0.179
0.032,0.182
0.034,0.177
0.033,0.176
0.033,0.172
0.032,0.173
0.031,0.168
0.034,0.166
0.031,0.167
0.034,0.164
0.032,0.165
0.034,0.162
0.033,0.160
0.034,0.154
0.036,0.151
0.037,0.147
0.036,0.141
0.033,0.138
0.034,0.134
0.033,0.132
0.033,0.129
0.035,0.134
0.035,0.127
0.031,0.127
0.036,0.121
0.034,0.121
0.035,0.116
0.036,0.115
0.035,0.112
0.036,0.111
0.036,0.106
0.037,0.101
0.037,0.097
0.038,0.096
0.038,0.089
0.038,0.085
0.039,0.075
0.036,0.071
0.035,0.063
0.037,0.058
0.040,0.049
0.040,0.046
0.042,0.039
0.037,0.040
0.041,0.034
0.041,0.034
0.041,0.031
0.041,0.027
0.042,0.023
0.042,0.016
0.043,0.011
0.043,0.008
0.045,-0.001
0.043,-0.005
0.047,-0.012
0.044,-0.011
0.049,-0.017
0.045,-0.018
0.049,-0.022
0.045,-0.026
0.049,-0.031
0.047,-0.029
0.047,-0.033
0.047,-0.036
0.048,-0.043
0.046,-0.048
0.049,-0.056
0.048,-0.061
0.050,-0.067
0.049,-0.069
0.051,-0.073
0.050,-0.073
0.047,-0.075
0.052,-0.074
0.051,-0.075
0.053,-0.075
0.050,-0.077
0.053,-0.075
0.049,-0.082
0.053,-0.088
0.049,-0.095
0.051,-0.095
0.049,-0.098
0.054,-0.100
0.054,-0.105
0.056,-0.103
0.056,-0.104
0.056,-0.102
0.056,-0.102
0.059,-0.098
0.057,-0.097
0.060,-0.093
0.057,-0.092
0.056,-0.086
0.055,-0.083
0.055,-0.082
0.057,-0.081
0.056,-0.079
0.057,-0.075
0.055,-0.072
0.052,-0.069
0.055,-0.066
0.051,-0.063
0.054,-0.061
0.052,-0.055
0.053,-0.052
0.051,-0.042
0.055,-0.039
0.052,-0.037
0.055,-0.028
0.052,-0.024
0.054,-0.022
0.051,-0.017
0.054,-0.016
0.051,-0.009
0.050,-0.008
0.050,-0.003
0.048,0.003
0.051,0.012
0.049,0.017
0.050,0.028
0.050,0.035
0.050,0.042
0.048,0.049
0.046,0.060
0.046,0.064
0.045,0.070
0.048,0.072
0.047,0.074
0.043,0.083
0.045,0.085
0.044,0.092
0.045,0.097
0.046,0.103
0.045,0.110
0.046,0.111
0.046,0.118
0.043,0.123
0.043,0.126
0.040,0.133
0.043,0.136
0.041,0.141
0.040,0.145
0.041,0.151
0.038,0.150
0.042,0.156
0.040,0.162
0.043,0.168
0.041,0.179
0.039,0.185
0.040,0.196
0.036,0.200
0.042,0.208
0.039,0.208
0.039,0.209
0.038,0.211
0.039,0.210
0.034,0.210
0.036,0.211
0.036,0.206
0.039,0.206
0.038,0.211
0.038,0.211
0.035,0.212
0.037,0.216
0.034,0.215
0.034,0.216
0.036,0.214
0.036,0.211
0.036,0.204
0.036,0.202
0.035,0.202
0.035,0.194
0.035,0.191
0.035,0.188
0.035,0.183
0.034,0.181
0.036,0.178
0.040,0.174
0.038,0.170
0.037,0.167
0.035,0.165
0.035,0.162
0.035,0.158
0.035,0.155
0.035,0.147
0.036,0.146
0.036,0.139
0.039,0.135
0.036,0.127
0.038,0.123
0.036,0.118
0.041,0.114
0.042,0.110
0.040,0.103
0.044,0.100
0.041,0.096
0.041,0.093
0.040,0.088
0.041,0.087
0.042,0.077
0.041,0.073
0.042,0.061
0.044,0.056
0.046,0.042
0.044,0.033
0.043,0.029
0.042,0.018
0.043,0.016
0.041,0.009
0.043,0.005
0.041,-0.001
0.044,-0.005
0.044,-0.011
0.042,-0.015
0.043,-0.023
0.042,-0.026
0.045,-0.034
0.046,-0.040
0.045,-0.048
0.049,-0.054
0.048,-0.062
0.049,-0.067
0.051,-0.069
0.050,-0.073
0.051,-0.078
0.048,-0.079
0.051,-0.081
0.050,-0.085
0.049,-0.089
0.045,-0.095
0.047,-0.102
0.050,-0.112
0.049,-0.120
0.050,-0.124
0.050,-0.128
0.049,-0.134
0.051,-0.137
0.052,-0.137
0.052,-0.142
0.052,-0.140
0.051,-0.137
0.054,-0.138
0.051,-0.141
0.053,-0.144
0.054,-0.150
0.057,-0.152
0.054,-0.159
0.055,-0.164
0.055,-0.168
0.055,-0.168
0.057,-0.171
0.058,-0.170
0.058,-0.168
0.056,-0.166
0.058,-0.162
0.055,-0.158
0.060,-0.155
0.056,-0.149
0.057,-0.150
0.058,-0.145
0.055,-0.144
0.054,-0.140
0.057,-0.136
0.057,-0.135
0.058,-0.132
0.056,-0.127
0.057,-0.128
0.058,-0.123
0.058,-0.119
0.057,-0.111
0.056,-0.108
0.060,-0.101
0.056,-0.097
0.056,-0.091
0.055,-0.087
0.054,-0.081
0.054,-0.079
0.057,-0.073
0.055,-0.070
0.057,-0.066
0.055,-0.063
0.056,-0.054
0.055,-0.049
0.054,-0.042
0.051,-0.035
0.055,-0.026
0.049,-0.017
0.050,-0.005
0.050,0.004
0.051,0.014
0.050,0.018
0.049,0.025
0.049,0.029
0.050,0.034
0.048,0.040
0.051,0.042
0.048,0.049
0.049,0.055
0.047,0.059
0.045,0.066
0.046,0.072
0.046,0.081
0.047,0.087
0.046,0.093
0.041,0.099
0.044,0.099
0.039,0.105
0.042,0.107
0.042,0.112
0.042,0.112
0.048,0.115
0.045,0.119
0.043,0.126
0.044,0.135
0.042,0.142
0.040,0.150
0.038,0.156
0.039,0.162
0.040,0.164
0.037,0.167
0.037,0.169
0.038,0.171
0.037,0.175
0.038,0.172
0.034,0.175
0.036,0.172
0.039,0.176
0.037,0.175
0.040,0.182
0.039,0.183
0.038,0.184
0.037,0.188
0.038,0.186
0.036,0.187
0.036,0.186
0.036,0.183
0.033,0.182
0.037,0.179
0.035,0.175
0.038,0.173
0.036,0.169
0.039,0.167
0.036,0.166
0.037,0.162
0.036,0.162
0.036,0.162
0.036,0.158
0.034,0.153
0.039,0.153
0.038,0.147
0.040,0.146
0.042,0.145
0.041,0.139
0.040,0.138
0.042,0.136
0.039,0.135
0.039,0.129
0.040,0.129
0.038,0.123
0.043,0.122
0.041,0.116
0.045,0.112
0.041,0.105
0.043,0.104
0.040,0.099
0.043,0.101
0.041,0.096
0.043,0.090
0.043,0.079
0.044,0.075
0.041,0.064
0.044,0.058
0.042,0.049
0.044,0.046
0.044,0.041
0.043,0.035
0.045,0.035
0.045,0.029
0.049,0.023
0.047,0.021
0.051,0.017
0.049,0.014
0.049,0.010
0.049,0.004
0.051,-0.000
0.049,-0.004
0.053,-0.010
0.050,-0.009
0.053,-0.014
0.050,-0.015
0.052,-0.020
0.054,-0.020
0.050,-0.023
0.055,-0.024
0.052,-0.030
0.054,-0.031
0.054,-0.041
0.055,-0.046
0.052,-0.052
0.055,-0.056
0.053,-0.067
0.059,-0.069
0.057,-0.072
0.060,-0.071
0.060,-0.073
0.060,-0.073
0.060,-0.075
0.060,-0.073
0.060,-0.075
0.060,-0.075
0.059,-0.080
0.060,-0.083
0.061,-0.087
0.062,-0.090
0.060,-0.094
0.064,-0.097
0.064,-0.100
0.063,-0.097
0.066,-0.098
0.062,-0.098
0.063,-0.096
0.064,-0.092
0.064,-0.091
0.065,-0.087
0.063,-0.085
0.066,-0.085
0.063,-0.080
0.064,-0.079
0.061,-0.074
0.063,-0.073
0.062,-0.067
0.063,-0.064
0.059,-0.064
0.061,-0.061
0.058,-0.054
0.062,-0.053
0.057,-0.045
0.058,-0.043
0.057,-0.040
0.057,-0.034
0.061,-0.030
0.056,-0.026
0.060,-0.020
0.054,-0.020
0.059,-0.014
0.057,-0.014
0.060,-0.006
0.058,-0.007
0.059,0.000
0.058,0.006
0.056,0.014
0.053,0.022
0.060,0.033
0.057,0.041
0.057,0.050
0.052,0.058
0.053,0.064
0.052,0.066
0.051,0.073
0.052,0.074
0.052,0.081
0.051,0.082
0.053,0.085
0.048,0.091
0.051,0.095
0.052,0.106
0.049,0.108
0.051,0.119
0.050,0.120
0.049,0.123
0.049,0.128
0.049,0.132
0.046,0.134
0.045,0.135
0.047,0.136
0.046,0.141
0.047,0.145
0.046,0.148
0.043,0.153
0.045,0.153
0.043,0.160
0.043,0.166
0.045,0.174
0.043,0.181
0.043,0.188
0.040,0.193
0.040,0.192
0.038,0.192
0.037,0.190
0.040,0.193
0.039,0.192
0.042,0.192
0.040,0.190
0.043,0.193
0.040,0.199
0.040,0.204
0.039,0.205
0.039,0.205
0.039,0.204
0.042,0.204
0.041,0.203
0.039,0.197
0.035,0.193
0.035,0.192
0.036,0.188
0.033,0.185
0.035,0.179
0.036,0.179
0.035,0.174
0.040,0.170
0.038,0.166
0.038,0.161
0.038,0.160
0.039,0.154
0.038,0.154
0.039,0.147
0.042,0.142
0.038,0.138
0.043,0.134
0.042,0.126
0.042,0.126
0.042,0.120
0.042,0.117
0.043,0.115
0.044,0.110
0.043,0.110
0.041,0.100
0.039,0.101
0.042,0.094
0.041,0.091
0.043,0.084
0.044,0.082
0.043,0.074
0.045,0.068
0.043,0.060
0.041,0.051
0.043,0.042
0.041,0.035
0.046,0.027
0.045,0.020
0.049,0.013
0.048,0.004
0.049,-0.001
0.048,-0.005
0.047,-0.006
0.045,-0.011
0.047,-0.015
0.046,-0.023
0.048,-0.029
0.049,-0.034
0.051,-0.043
0.050,-0.048
0.049,-0.053
0.047,-0.063
0.047,-0.065
0.047,-0.070
0.051,-0.072
0.050,-0.074
0.052,-0.077
0.053,-0.079
0.054,-0.081
0.051,-0.085
0.052,-0.094
0.051,-0.099
0.050,-0.106
0.053,-0.117
0.050,-0.122
0.053,-0.130
0.057,-0.132
0.054,-0.139
0.059,-0.136
0.057,-0.139
0.057,-0.137
0.055,-0.142
0.058,-0.140
0.056,-0.143
0.057,-0.142
0.055,-0.150
0.057,-0.153
0.055,-0.159
0.059,-0.160
0.056,-0.166
0.058,-0.169
0.058,-0.170
0.058,-0.167
0.057,-0.168
0.056,-0.166
0.058,-0.162
0.057,-0.159
0.057,-0.157
0.058,-0.152
0.060,-0.153
0.058,-0.145
0.057,-0.142
0.059,-0.139
0.056,-0.136
0.058,-0.133
0.058,-0.130
0.059,-0.126
0.058,-0.123
0.059,-0.119
0.057,-0.119
0.056,-0.115
0.059,-0.112
0.060,-0.105
0.057,-0.099
0.059,-0.093
0.053,-0.088
0.054,-0.084
0.054,-0.076
0.055,-0.074
0.051,-0.065
0.050,-0.062
0.049,-0.055
0.050,-0.053
0.052,-0.049
0.053,-0.042
0.051,-0.033
0.054,-0.027
0.053,-0.011
0.054,-0.006
0.051,0.007
0.051,0.010
0.052,0.016
0.050,0.024
0.049,0.030
0.045,0.033
0.047,0.040
0.047,0.043
0.047,0.048
0.046,0.050
0.045,0.062
0.047,0.064
0.046,0.071
0.046,0.075
0.046,0.085
0.043,0.090
0.047,0.095
0.045,0.097
0.047,0.100
0.045,0.104
0.044,0.107
0.042,0.111
0.041,0.114
0.041,0.119
0.044,0.120
0.045,0.126
0.041,0.134
0.045,0.144
0.042,0.147
0.040,0.155
0.038,0.161
0.040,0.165
0.039,0.170
0.041,0.168
0.039,0.167
0.037,0.163
0.037,0.167
0.039,0.165
0.038,0.170
0.037,0.171
0.039,0.175
0.036,0.181
0.038,0.181
0.036,0.180
0.035,0.181
0.035,0.181
0.036,0.179
0.039,0.177
0.035,0.173
0.038,0.168
0.037,0.164
0.036,0.161
0.038,0.161
0.036,0.155
0.036,0.155
0.034,0.153
0.040,0.151
0.036,0.148
0.040,0.144
0.039,0.141
0.036,0.136
0.038,0.138
0.035,0.135
0.037,0.132
0.036,0.128
0.037,0.126
0.037,0.120
0.038,0.118
0.040,0.111
0.043,0.107
0.038,0.102
0.043,0.098
0.042,0.096
0.042,0.094
0.039,0.093
0.040,0.088
0.042,0.085
0.041,0.082
0.042,0.077
0.044,0.075
0.043,0.066
0.043,0.059
0.043,0.047
0.045,0.039
0.045,0.034
0.043,0.027
0.045,0.021
0.042,0.023
0.045,0.015
0.043,0.014
0.047,0.008
0.045,0.007
0.047,-0.001
0.047,-0.005
0.048,-0.014
0.047,-0.020
0.051,-0.031
0.050,-0.034
0.052,-0.043
0.054,-0.043
0.052,-0.051
0.053,-0.053
0.053,-0.057
0.053,-0.060
0.050,-0.064
0.052,-0.066
0.053,-0.070
0.053,-0.074
0.056,-0.081
0.054,-0.089
0.053,-0.098
0.053,-0.106
0.055,-0.114
0.056,-0.116
0.055,-0.122
0.056,-0.124
0.058,-0.125
0.056,-0.122
0.060,-0.125
0.057,-0.124
0.060,-0.127
0.057,-0.127
0.058,-0.132
0.057,-0.137
0.058,-0.144
0.059,-0.147
0.060,-0.153
0.059,-0.155
0.060,-0.162
0.061,-0.161
0.061,-0.161
0.062,-0.157
0.063,-0.159
0.060,-0.156
0.059,-0.157
0.059,-0.153
0.059,-0.148
0.060,-0.145
0.061,-0.142
0.059,-0.140
0.061,-0.138
0.060,-0.136
0.060,-0.135
0.060,-0.130
0.059,-0.124
0.059,-0.122
0.058,-0.117
0.061,-0.115
0.062,-0.111
0.062,-0.106
0.062,-0.103
0.062,-0.094
0.063,-0.091
0.060,-0.086
0.060,-0.081
0.059,-0.076
0.060,-0.072
0.060,-0.068
0.056,-0.060
0.057,-0.057
0.052,-0.050
0.055,-0.048
0.055,-0.040
0.056,-0.030
0.054,-0.022
0.052,-0.010
0.052,-0.002
0.053,0.008
0.050,0.016
0.050,0.024
0.048,0.031
0.049,0.036
0.050,0.039
0.049,0.043
0.049,0.048
0.047,0.054
0.045,0.059
0.047,0.067
0.047,0.080
0.046,0.083
0.047,0.091
0.044,0.096
0.043,0.101
0.044,0.104
0.045,0.109
0.044,0.111
0.044,0.116
0.046,0.120
0.043,0.121
0.042,0.126
0.042,0.131
0.042,0.136
0.043,0.141
0.044,0.151
0.043,0.159
0.043,0.166
0.041,0.173
0.040,0.180
0.037,0.183
0.040,0.186
0.037,0.188
0.038,0.184
0.035,0.186
0.036,0.186
0.037,0.189
0.039,0.192
0.036,0.195
0.036,0.204
0.038,0.205
0.034,0.207
0.035,0.205
0.034,0.206
0.034,0.205
0.037,0.199
0.035,0.202
0.035,0.201
0.036,0.197
0.035,0.195
0.037,0.189
0.037,0.189
0.036,0.185
0.036,0.181
0.037,0.180
0.037,0.177
0.039,0.172
0.037,0.172
0.036,0.166
0.035,0.166
0.032,0.163
0.037,0.162
0.035,0.159
0.037,0.152
0.037,0.146
0.038,0.144
0.039,0.139
0.036,0.136
0.038,0.133
0.039,0.128
0.039,0.130
0.041,0.121
0.040,0.121
0.041,0.116
0.042,0.112
0.040,0.106
0.038,0.104
0.038,0.097
0.041,0.095
0.041,0.087
0.040,0.076
0.044,0.069
0.041,0.059
0.044,0.052
0.044,0.048
0.048,0.041
0.046,0.038
0.049,0.036
0.047,0.030
0.052,0.028
0.050,0.022
0.051,0.020
0.048,0.014
0.050,0.010
0.049,0.003
0.048,-0.002
0.051,-0.008
0.051,-0.013
0.050,-0.020
0.055,-0.021
0.052,-0.024
0.055,-0.026
0.052,-0.029
0.056,-0.031
0.053,-0.031
0.054,-0.036
0.056,-0.042
0.055,-0.049
0.054,-0.055
0.057,-0.064
0.055,-0.069
0.058,-0.075
0.055,-0.078
0.058,-0.082
0.057,-0.080
0.058,-0.085
0.058,-0.084
0.059,-0.085
0.059,-0.086
0.060,-0.087
0.060,-0.087
0.061,-0.092
0.060,-0.094
0.062,-0.102
0.059,-0.104
0.057,-0.108
0.057,-0.108
0.059,-0.113
0.060,-0.110
0.061,-0.112
0.059,-0.104
0.061,-0.106
0.060,-0.102
0.059,-0.099
0.058,-0.094
0.060,-0.095
0.060,-0.092
0.062,-0.092
0.060,-0.088
0.063,-0.084
0.057,-0.080
0.061,-0.079
0.058,-0.074
0.060,-0.071
0.060,-0.069
0.058,-0.066
0.059,-0.064
0.057,-0.061
0.057,-0.054
0.058,-0.052
0.059,-0.044
0.059,-0.042
0.061,-0.036
0.057,-0.036
0.058,-0.031
0.055,-0.023
0.058,-0.019
0.055,-0.017
0.056,-0.017
0.055,-0.011
0.058,-0.003
0.057,0.002
0.056,0.012
0.053,0.019
0.057,0.033
0.053,0.039
0.052,0.049
0.048,0.056
0.050,0.063
0.048,0.069
0.049,0.074
0.049,0.077
0.048,0.082
0.049,0.089
0.049,0.093
0.047,0.100
0.047,0.102
0.045,0.111
0.045,0.114
0.044,0.121
0.042,0.126
0.045,0.129
0.043,0.133
0.044,0.139
0.045,0.141
0.043,0.143
0.046,0.149
0.044,0.151
0.042,0.155
0.042,0.157
0.043,0.164
0.039,0.166
0.045,0.176
0.041,0.183
0.042,0.186
0.037,0.195
0.038,0.199
0.038,0.204
0.035,0.200
0.038,0.201
0.036,0.199
0.041,0.202
0.040,0.201
0.041,0.204
0.038,0.207
0.038,0.206
0.033,0.213
0.038,0.214
0.034,0.214
0.038,0.213
0.036,0.213
0.035,0.212
0.036,0.208
0.034,0.209
0.036,0.203
0.034,0.202
0.036,0.197
0.036,0.194
0.034,0.190
0.037,0.186
0.035,0.183
0.036,0.178
0.038,0.174
0.037,0.168
0.039,0.168
0.037,0.165
0.036,0.164
0.038,0.159
0.037,0.155
0.037,0.151
0.036,0.148
0.039,0.141
0.040,0.140
0.039,0.133
0.040,0.128
0.039,0.130
0.041,0.120
0.039,0.119
0.039,0.115
0.039,0.114
0.039,0.108
0.040,0.102
0.040,0.099
0.038,0.095
0.043,0.090
0.038,0.083
0.044,0.070
0.041,0.064
0.044,0.056
0.044,0.049
0.047,0.038
0.046,0.033
0.050,0.027
0.050,0.022
0.050,0.016
0.050,0.015
0.053,0.008
0.053,0.003
0.053,-0.002
0.052,-0.011
0.051,-0.014
0.051,-0.024
0.052,-0.030
0.049,-0.035
0.051,-0.042
0.053,-0.045
0.051,-0.046
0.053,-0.047
0.053,-0.050
0.058,-0.053
0.057,-0.053
0.056,-0.053
0.059,-0.058
0.057,-0.061
0.059,-0.069
0.058,-0.075
0.059,-0.085
0.059,-0.090
0.062,-0.095
0.058,-0.097
0.063,-0.101
0.062,-0.098
0.063,-0.101
0.063,-0.099
0.061,-0.098
0.062,-0.097
0.061,-0.099
0.059,-0.100
0.062,-0.107
0.063,-0.108
0.065,-0.114
0.064,-0.111
0.064,-0.114
0.066,-0.112
0.067,-0.114
0.065,-0.113
0.064,-0.112
0.066,-0.110
0.065,-0.109
0.067,-0.106
0.065,-0.105
0.063,-0.101
0.064,-0.099
0.063,-0.094
0.068,-0.093
0.062,-0.087
0.063,-0.088
0.061,-0.083
0.063,-0.082
0.064,-0.080
0.064,-0.075
0.063,-0.070
0.061,-0.066
0.064,-0.064
0.063,-0.062
0.065,-0.056
0.063,-0.052
0.064,-0.046
0.061,-0.044
0.061,-0.041
0.060,-0.036
0.060,-0.033
0.057,-0.029
0.057,-0.027
0.058,-0.021
0.060,-0.022
0.058,-0.016
0.060,-0.013
0.058,-0.001
0.063,0.002
0.059,0.012
0.057,0.020
0.058,0.032
0.056,0.035
0.055,0.044
0.053,0.047
0.054,0.052
0.054,0.053
0.053,0.060
0.051,0.060
0.051,0.066
0.054,0.070
0.049,0.079
0.050,0.078
0.050,0.087
0.046,0.089
0.048,0.093
0.046,0.100
0.051,0.101
0.048,0.106
0.047,0.111
0.048,0.115
0.047,0.114
0.044,0.119
0.043,0.118
0.043,0.123
0.041,0.129
0.043,0.136
0.040,0.137
0.045,0.148
0.042,0.153
0.042,0.155
0.041,0.165
0.037,0.167
0.039,0.169
0.038,0.167
0.040,0.168
0.037,0.167
0.037,0.169
0.038,0.169
0.040,0.171
0.037,0.175
0.038,0.179
0.036,0.183
0.036,0.182
0.036,0.184
0.035,0.179
0.037,0.178
0.036,0.175
0.038,0.174
0.036,0.170
0.037,0.167
0.034,0.167
0.036,0.163
0.034,0.161
0.035,0.158
0.038,0.156
0.037,0.148
0.038,0.144
0.038,0.140
0.037,0.135
0.037,0.134
0.034,0.130
0.036,0.129
0.039,0.128
0.037,0.127
0.038,0.121
0.036,0.117
0.038,0.113
0.039,0.107
0.040,0.101
0.041,0.101
0.040,0.095
0.042,0.092
0.041,0.090
0.041,0.084
0.041,0.082
0.041,0.074
0.044,0.075
0.045,0.071
0.044,0.064
0.045,0.059
0.043,0.050
0.047,0.042
0.041,0.034
0.044,0.027
0.045,0.018
0.043,0.014
0.044,0.008
0.046,0.004
0.046,-0.001
0.049,-0.003
0.046,-0.005
0.049,-0.011
0.050,-0.015
0.049,-0.019
0.049,-0.027
0.049,-0.034
0.052,-0.039
0.049,-0.043
0.053,-0.051
0.051,-0.050
0.053,-0.054
0.053,-0.055
0.054,-0.060
0.054,-0.061
0.055,-0.065
0.055,-0.068
0.057,-0.069
0.054,-0.073
0.058,-0.079
0.056,-0.083
0.056,-0.094
0.058,-0.095
0.058,-0.104
0.058,-0.110
0.059,-0.113
0.062,-0.113
0.060,-0.116
0.063,-0.116
0.061,-0.116
0.062,-0.115
0.062,-0.116
0.061,-0.116
0.061,-0.122
0.063,-0.128
0.062,-0.134
0.063,-0.136
0.062,-0.140
0.066,-0.143
0.063,-0.146
0.067,-0.144
0.067,-0.146
0.065,-0.142
0.064,-0.141
0.068,-0.136
0.065,-0.134
0.066,-0.129
0.065,-0.131
0.065,-0.128
0.063,-0.125
0.066,-0.121
0.063,-0.118
0.064,-0.117
0.062,-0.115
0.063,-0.109
0.063,-0.109
0.063,-0.106
0.063,-0.106
0.064,-0.096
0.062,-0.096
0.063,-0.091
0.062,-0.087
0.065,-0.080
0.063,-0.075
0.063,-0.073
0.062,-0.068
0.062,-0.067
0.060,-0.060
0.060,-0.055
0.060,-0.054
0.062,-0.047
0.057,-0.042
0.059,-0.039
0.057,-0.029
0.058,-0.024
0.058,-0.016
0.059,-0.007
0.059,0.002
0.056,0.008
0.056,0.016
0.054,0.022
0.054,0.030
0.051,0.033
0.053,0.036
0.051,0.039
0.052,0.045
0.052,0.050
0.048,0.058
0.049,0.063
0.046,0.072
0.047,0.078
0.045,0.084
0.043,0.089
0.043,0.095
0.041,0.099
0.042,0.104
0.044,0.106
0.042,0.110
0.042,0.115
0.043,0.117
0.041,0.120
0.041,0.125
0.040,0.132
0.041,0.140
0.039,0.146
0.038,0.157
0.039,0.160
0.040,0.162
0.038,0.167
0.036,0.174
0.035,0.172
0.035,0.176
0.035,0.173
0.038,0.176
0.037,0.171
0.038,0.173
0.036,0.175
0.037,0.178
0.036,0.184
0.035,0.183
0.032,0.188
0.032,0.188
0.033,0.186
0.033,0.186
0.033,0.185
0.034,0.185
0.035,0.184
0.034,0.180
0.034,0.175
0.033,0.175
0.036,0.173
0.033,0.171
0.032,0.166
0.034,0.165
0.033,0.160
0.037,0.158
0.033,0.154
0.036,0.154
0.031,0.153
0.035,0.148
0.034,0.144
0.035,0.142
0.032,0.141
0.035,0.136
0.035,0.132
0.034,0.128
0.036,0.125
0.037,0.117
0.037,0.116
0.038,0.109
0.038,0.109
0.038,0.105
0.039,0.103
0.038,0.099
0.041,0.093
0.041,0.091
0.041,0.086
0.041,0.081
0.042,0.076
0.042,0.066
0.043,0.056
0.043,0.047
0.045,0.043
0.042,0.037
0.044,0.031
0.044,0.028
0.043,0.024
0.045,0.020
0.046,0.019
0.046,0.014
0.046,0.009
0.047,0.005
0.047,-0.004
0.049,-0.009
0.049,-0.015
0.049,-0.018
0.048,-0.021
0.051,-0.028
0.051,-0.033
0.053,-0.036
0.052,-0.037
0.053,-0.041
0.055,-0.042
0.052,-0.044
0.052,-0.047
0.049,-0.054
0.055,-0.060
0.054,-0.068
0.058,-0.077
0.059,-0.085
0.056,-0.090
0.057,-0.094
0.059,-0.093
0.057,-0.100
0.062,-0.096
0.058,-0.097
0.059,-0.096
0.058,-0.097
0.062,-0.100
0.060,-0.101
0.062,-0.105
0.062,-0.114
0.062,-0.116
0.063,-0.121
0.062,-0.124
0.065,-0.129
0.068,-0.130
0.068,-0.133
0.068,-0.129
0.066,-0.128
0.067,-0.127
0.066,-0.124
0.067,-0.121
0.066,-0.123
0.065,-0.118
0.062,-0.119
0.065,-0.112
0.064,-0.111
0.067,-0.108
0.065,-0.104
0.064,-0.104
0.063,-0.101
0.063,-0.097
0.061,-0.095
0.061,-0.089
0.060,-0.088
0.062,-0.083
0.060,-0.080
0.062,-0.072
0.058,-0.065
0.059,-0.063
0.057,-0.057
0.057,-0.056
0.059,-0.049
0.055,-0.046
0.058,-0.043
0.052,-0.041
0.055,-0.035
0.053,-0.029
0.056,-0.022
0.055,-0.014
0.053,-0.005
0.054,0.003
0.053,0.015
0.050,0.019
0.051,0.031
0.048,0.038
0.048,0.045
0.049,0.048
0.048,0.054
0.050,0.058
0.046,0.061
0.046,0.062
0.046,0.071
0.048,0.076
0.047,0.084
0.047,0.089
0.045,0.093
0.047,0.099
0.044,0.107
0.041,0.112
0.043,0.118
0.038,0.121
0.043,0.123
0.040,0.126
0.039,0.127
0.042,0.133
0.041,0.132
0.044,0.138
0.046,0.144
0.044,0.153
0.041,0.164
0.039,0.168
0.039,0.178
0.036,0.181
0.038,0.186
0.037,0.183
0.038,0.184
0.037,0.186
0.036,0.184
0.035,0.191
0.033,0.190
0.035,0.197
0.033,0.197
0.037,0.202
0.035,0.201
0.037,0.204
0.037,0.199
0.036,0.204
0.033,0.203
0.034,0.200
0.032,0.202
0.030,0.197
0.034,0.195
0.033,0.186
0.038,0.187
0.035,0.183
0.034,0.181
0.036,0.180
0.035,0.177
0.034,0.174
0.036,0.171
0.036,0.167
0.036,0.163
0.036,0.160
0.037,0.155
0.038,0.157
0.037,0.153
0.037,0.149
0.036,0.150
0.037,0.144
0.036,0.143
0.039,0.136
0.035,0.134
0.038,0.130
0.036,0.127
0.037,0.125
0.037,0.119
0.038,0.114
0.038,0.114
0.039,0.108
0.041,0.105
0.037,0.097
0.043,0.093
0.037,0.084
0.040,0.077
0.038,0.069
0.039,0.060
0.040,0.053
0.040,0.050
0.044,0.042
0.043,0.041
0.044,0.034
0.045,0.033
0.043,0.026
0.044,0.023
0.046,0.016
0.047,0.010
0.046,0.005
0.046,-0.002
0.049,-0.008
0.049,-0.013
0.051,-0.020
0.052,-0.023
0.051,-0.027
0.052,-0.029
0.051,-0.032
0.051,-0.034
0.054,-0.037
0.053,-0.040
0.052,-0.045
0.050,-0.045
0.050,-0.056
0.048,-0.060
0.049,-0.068
0.052,-0.076
0.051,-0.085
0.054,-0.089
0.054,-0.094
0.053,-0.095
0.056,-0.099
0.057,-0.099
0.056,-0.098
0.058,-0.096
0.057,-0.098
0.057,-0.099
0.057,-0.105
0.059,-0.109
0.056,-0.115
0.058,-0.118
0.059,-0.123
0.058,-0.126
0.061,-0.130
0.060,-0.131
0.059,-0.132
0.057,-0.129
0.061,-0.127
0.061,-0.125
0.062,-0.121
0.060,-0.119
0.059,-0.116
0.059,-0.114
0.060,-0.112
0.058,-0.108
0.059,-0.106
0.060,-0.100
0.056,-0.101
0.063,-0.096
0.058,-0.095
0.061,-0.091
0.057,-0.089
0.059,-0.086
0.058,-0.083
0.061,-0.078
0.060,-0.074
0.060,-0.068
0.055,-0.060
0.057,-0.060
0.053,-0.051
0.056,-0.050
0.054,-0.045
0.054,-0.042
0.053,-0.035
0.052,-0.031
0.052,-0.024
0.051,-0.020
0.051,-0.010
0.052,-0.006
0.051,0.004
0.050,0.010
0.050,0.020
0.048,0.026
0.050,0.035
0.047,0.043
0.048,0.044
0.045,0.050
0.046,0.053
0.048,0.058
0.044,0.065
0.048,0.068
0.043,0.073
0.043,0.077
0.041,0.088
0.043,0.093
0.039,0.100
0.041,0.104
0.039,0.110
0.041,0.111
0.042,0.116
0.041,0.120
0.039,0.124
0.040,0.126
0.040,0.125
0.038,0.133
0.039,0.134
0.041,0.141
0.043,0.147
0.043,0.154
0.043,0.161
0.043,0.169
0.039,0.176
0.036,0.176
0.035,0.185
0.034,0.185
0.032,0.185
0.028,0.186
0.032,0.188
0.032,0.188
0.034,0.188
0.033,0.195
0.031,0.196
0.030,0.199
0.034,0.204
0.031,0.204
0.032,0.201
0.036,0.203
0.036,0.197
0.038,0.196
0.034,0.194
0.035,0.189
0.033,0.191
0.035,0.187
0.035,0.184
0.034,0.180
0.036,0.178
0.034,0.174
0.036,0.170
0.034,0.166
0.035,0.162
0.033,0.163
0.035,0.158
0.035,0.156
0.036,0.152
0.033,0.150
0.036,0.144
0.037,0.140
0.036,0.133
0.038,0.129
0.037,0.123
0.040,0.118
0.036,0.115
0.039,0.110
0.038,0.109
0.040,0.103
0.038,0.101
0.040,0.093
0.038,0.094
0.041,0.086
0.038,0.086
0.040,0.077
0.042,0.072
0.039,0.061
0.042,0.053
0.042,0.042
0.042,0.034
0.043,0.028
0.045,0.019
0.045,0.016
0.047,0.010
0.048,0.004
0.049,0.001
0.051,-0.003
0.049,-0.007
0.048,-0.013
0.049,-0.020
0.048,-0.024
0.049,-0.032
0.049,-0.039
0.046,-0.046
0.052,-0.051
0.051,-0.054
0.054,-0.057
0.051,-0.062
0.054,-0.063
0.053,-0.068
0.055,-0.068
0.052,-0.074
0.054,-0.079
0.050,-0.083
0.052,-0.089
0.051,-0.096
0.052,-0.101
0.056,-0.113
0.057,-0.119
0.057,-0.124
0.058,-0.127
0.057,-0.129
0.059,-0.128
0.057,-0.128
0.060,-0.128
0.061,-0.127
0.061,-0.127
0.059,-0.133
0.056,-0.137
0.057,-0.141
0.057,-0.145
0.058,-0.153
0.058,-0.155
0.057,-0.157
0.061,-0.158
0.060,-0.157
0.062,-0.155
0.059,-0.155
0.058,-0.151
0.058,-0.152
0.059,-0.146
0.058,-0.149
0.061,-0.142
0.061,-0.142
0.064,-0.137
0.060,-0.136
0.063,-0.132
0.060,-0.129
0.061,-0.126
0.061,-0.121
0.058,-0.116
0.061,-0.114
0.057,-0.111
0.057,-0.107
0.056,-0.104
0.057,-0.096
0.058,-0.092
0.060,-0.084
0.055,-0.084
0.054,-0.078
0.052,-0.075
0.052,-0.070
0.052,-0.064
0.052,-0.059
0.052,-0.052
0.049,-0.049
0.052,-0.044
0.052,-0.035
0.054,-0.030
0.053,-0.020
0.053,-0.014
0.051,-0.005
0.051,0.004
0.050,0.012
0.051,0.019
0.046,0.028
0.049,0.031
0.044,0.039
0.045,0.041
0.045,0.046
0.043,0.048
0.042,0.058
0.042,0.062
0.043,0.070
0.047,0.071
0.045,0.079
0.044,0.083
0.045,0.092
0.043,0.092
0.044,0.101
0.043,0.101
0.044,0.105
0.043,0.110
0.042,0.109
0.038,0.117
0.038,0.118
0.038,0.123
0.038,0.130
0.041,0.137
0.039,0.140
0.040,0.153
0.042,0.159
0.037,0.165
0.037,0.171
0.036,0.169
0.033,0.174
0.036,0.172
0.039,0.173
0.036,0.173
0.039,0.177
0.036,0.179
0.036,0.183
0.036,0.189
0.037,0.192
0.035,0.193
0.033,0.192
0.032,0.191
0.033,0.190
0.033,0.191
0.034,0.188
0.034,0.186
0.032,0.185
0.032,0.182
0.031,0.179
0.033,0.176
0.033,0.173
0.033,0.171
0.035,0.167
0.034,0.162
0.038,0.161
0.037,0.161
0.036,0.158
0.036,0.158
0.033,0.152
0.034,0.151
0.035,0.146
0.037,0.142
0.035,0.136
0.037,0.133
0.037,0.125
0.038,0.120
0.039,0.111
0.037,0.108
0.040,0.107
0.037,0.103
0.039,0.100
0.038,0.094
0.038,0.088
0.038,0.083
0.037,0.081
0.037,0.075
0.038,0.073
0.039,0.065
0.042,0.061
0.040,0.054
0.043,0.057
0.043,0.051
0.044,0.041
0.046,0.035
0.044,0.021
0.049,0.015
0.046,0.009
0.051,0.007
0.047,0.001
0.047,0.002
0.046,-0.002
0.046,-0.006
0.047,-0.011
0.048,-0.009
0.045,-0.014
0.049,-0.021
0.047,-0.029
0.048,-0.032
0.049,-0.038
0.052,-0.041
0.050,-0.045
0.052,-0.043
0.051,-0.043
0.055,-0.043
0.053,-0.049
0.053,-0.051
0.053,-0.058
0.054,-0.063
0.054,-0.071
0.054,-0.079
0.057,-0.085
0.058,-0.086
0.057,-0.089
0.061,-0.085
0.058,-0.089
0.060,-0.089
0.058,-0.090
0.060,-0.088
0.060,-0.091
0.060,-0.090
0.056,-0.098
0.059,-0.101
0.058,-0.105
0.058,-0.104
0.059,-0.109
0.060,-0.111
0.060,-0.113
0.062,-0.111
0.062,-0.113
0.061,-0.110
0.064,-0.107
0.062,-0.106
0.063,-0.105
0.062,-0.102
0.062,-0.095
0.064,-0.094
0.065,-0.087
0.062,-0.087
0.063,-0.081
0.060,-0.080
0.059,-0.077
0.061,-0.074
0.059,-0.071
0.060,-0.069
0.056,-0.068
0.058,-0.065
0.057,-0.058
0.059,-0.055
0.059,-0.048
0.059,-0.045
0.058,-0.039
0.057,-0.035
0.061,-0.031
0.058,-0.029
0.062,-0.024
0.061,-0.022
0.062,-0.015
0.059,-0.010
0.059,-0.003
0.059,0.001
0.061,0.014
0.055,0.020
0.056,0.031
0.051,0.039
0.056,0.047
0.055,0.053
0.053,0.064
0.053,0.068
0.055,0.074
0.050,0.076
0.051,0.083
0.049,0.089
0.050,0.093
0.050,0.098
0.052,0.107
0.053,0.115
0.050,0.120
0.048,0.127
0.049,0.130
0.047,0.136
0.046,0.138
0.045,0.142
0.044,0.142
0.048,0.148
0.044,0.150
0.046,0.148
0.042,0.153
0.044,0.154
0.044,0.163
0.042,0.166
0.044,0.173
0.041,0.178
0.046,0.188
0.041,0.191
0.042,0.195
0.041,0.197
0.041,0.201
0.038,0.203
0.040,0.202
0.038,0.200
0.038,0.198
0.040,0.202
0.042,0.202
0.040,0.206
0.041,0.209
0.038,0.209
0.035,0.211
0.037,0.208
0.038,0.209
0.038,0.205
0.036,0.204
0.037,0.201
0.035,0.194
0.035,0.195
0.034,0.190
0.039,0.187
0.038,0.183
0.039,0.179
0.042,0.175
0.039,0.170
0.042,0.169
0.041,0.163
0.042,0.161
0.040,0.155
0.043,0.155
0.041,0.149
0.040,0.148
0.038,0.143
0.041,0.140
0.039,0.136
0.040,0.137
0.041,0.131
0.042,0.127
0.040,0.124
0.041,0.119
0.039,0.116
0.039,0.110
0.039,0.111
0.039,0.106
0.041,0.102
0.042,0.096
0.041,0.093
0.045,0.087
0.043,0.082
0.045,0.070
0.042,0.066
0.045,0.055
0.045,0.046
0.045,0.038
0.045,0.030
0.049,0.027
0.047,0.023
0.051,0.018
0.051,0.012
0.051,0.011
0.051,0.005
0.050,0.004
0.049,-0.006
0.052,-0.012
0.049,-0.019
0.052,-0.024
0.050,-0.031
0.055,-0.037
0.053,-0.043
0.052,-0.043
0.055,-0.048
0.055,-0.049
0.056,-0.055
0.057,-0.057
0.058,-0.058
0.055,-0.060
0.056,-0.064
0.056,-0.071
0.059,-0.074
0.056,-0.084
0.058,-0.090
0.055,-0.097
0.056,-0.099
0.056,-0.102
0.056,-0.106
0.055,-0.104
0.055,-0.103
0.059,-0.101
0.057,-0.101
0.061,-0.102
0.058,-0.101
0.057,-0.105
0.058,-0.107
0.059,-0.109
0.057,-0.113
0.063,-0.116
0.057,-0.115
0.062,-0.116
0.057,-0.113
0.061,-0.119
0.060,-0.116
0.061,-0.113
0.062,-0.107
0.059,-0.105
0.061,-0.099
0.059,-0.098
0.058,-0.094
0.060,-0.094
0.059,-0.088
0.058,-0.085
0.058,-0.080
0.057,-0.080
0.060,-0.076
0.061,-0.073
0.060,-0.067
0.060,-0.065
0.058,-0.062
0.059,-0.062
0.059,-0.054
0.060,-0.050
0.061,-0.042
0.059,-0.039
0.061,-0.034
0.058,-0.034
0.058,-0.029
0.056,-0.024
0.054,-0.020
0.055,-0.012
0.053,-0.007
0.056,-0.001
0.055,0.003
0.054,0.010
0.056,0.016
0.055,0.027
0.054,0.033
0.052,0.045
0.051,0.051
0.052,0.058
0.052,0.067
0.052,0.073
0.049,0.077
0.048,0.082
0.051,0.086
0.048,0.091
0.046,0.095
0.047,0.103
0.045,0.110
0.043,0.121
0.045,0.123
0.045,0.130
0.043,0.134
0.046,0.137
0.040,0.142
0.044,0.145
0.043,0.145
0.044,0.146
0.044,0.152
0.042,0.152
0.042,0.155
0.041,0.159
0.042,0.166
0.038,0.169
0.042,0.178
0.043,0.184
0.041,0.192
0.038,0.198
0.037,0.204
0.034,0.205
0.036,0.203
0.034,0.204
0.035,0.201
0.036,0.204
0.035,0.201
0.036,0.203
0.033,0.205
0.035,0.205
0.034,0.208
0.035,0.209
0.036,0.208
0.034,0.207
0.033,0.203
0.036,0.201
0.034,0.201
0.032,0.200
0.031,0.196
0.030,0.192
0.031,0.191
0.031,0.188
0.032,0.182
0.033,0.179
0.033,0.174
0.032,0.171
0.035,0.173
0.033,0.170
0.035,0.170
0.034,0.165
0.032,0.162
0.032,0.156
0.031,0.156
0.032,0.150
0.033,0.149
0.033,0.142
0.034,0.139
0.033,0.136
0.035,0.129
0.034,0.125
0.033,0.119
0.034,0.115
0.033,0.112
0.035,0.110
0.037,0.104
0.035,0.104
0.034,0.098
0.035,0.096
0.038,0.087
0.036,0.081
0.041,0.072
0.034,0.065
0.040,0.054
0.040,0.049
0.042,0.041
0.041,0.034
0.045,0.029
0.044,0.023
0.046,0.021
0.043,0.015
0.044,0.013
0.044,0.010
0.045,0.004
0.043,-0.002
0.044,-0.008
0.046,-0.013
0.046,-0.018
0.048,-0.025
0.049,-0.029
0.046,-0.035
0.048,-0.037
0.049,-0.040
0.049,-0.042
0.050,-0.044
0.050,-0.048
0.051,-0.051
0.052,-0.052
0.049,-0.059
0.055,-0.063
0.053,-0.071
0.055,-0.077
0.054,-0.084
0.053,-0.089
0.054,-0.094
0.055,-0.095
0.054,-0.097
0.056,-0.095
0.052,-0.097
0.056,-0.097
0.055,-0.097
0.054,-0.100
0.056,-0.102
0.053,-0.104
0.054,-0.109
0.055,-0.115
0.056,-0.120
0.057,-0.124
0.056,-0.126
0.058,-0.127
0.056,-0.124
0.055,-0.126
0.056,-0.122
0.055,-0.124
0.056,-0.122
0.058,-0.118
0.057,-0.117
0.056,-0.117
0.055,-0.111
0.058,-0.110
0.055,-0.104
0.056,-0.106
0.054,-0.099
0.059,-0.101
0.054,-0.094
0.058,-0.092
0.055,-0.087
0.054,-0.087
0.054,-0.083
0.055,-0.082
0.050,-0.076
0.051,-0.072
0.053,-0.068
0.052,-0.065
0.051,-0.061
0.049,-0.060
0.050,-0.055
0.049,-0.052
0.049,-0.046
0.046,-0.043
0.050,-0.038
0.047,-0.036
0.048,-0.029
0.046,-0.023
0.046,-0.013
0.046,-0.005
0.046,0.001
0.048,0.010
0.045,0.020
0.046,0.026
0.041,0.032
0.042,0.037
0.040,0.040
0.042,0.045
0.040,0.048
0.043,0.051
0.040,0.059
0.040,0.062
0.041,0.069
0.037,0.073
0.038,0.081
0.037,0.084
0.039,0.093
0.036,0.095
0.035,0.100
0.034,0.105
0.035,0.107
0.031,0.112
0.033,0.112
0.034,0.115
0.035,0.114
0.037,0.121
0.035,0.124
0.037,0.133
0.033,0.143
0.034,0.151
0.032,0.158
0.031,0.163
0.029,0.167
0.031,0.169
0.028,0.170
0.029,0.167
0.028,0.172
0.029,0.171
0.026,0.172
0.027,0.177
0.030,0.180
0.025,0.185
0.029,0.188
0.028,0.189
0.027,0.187
0.031,0.188
0.028,0.185
0.029,0.182
0.030,0.186
0.026,0.181
0.029,0.183
0.025,0.177
0.024,0.171
0.023,0.170
0.029,0.166
0.030,0.162
0.029,0.161
0.031,0.157
0.029,0.156
0.027,0.156
0.031,0.152
0.027,0.150
0.029,0.145
0.027,0.144
0.028,0.139
0.031,0.141
0.031,0.136
0.034,0.129
0.033,0.127
0.036,0.123
0.032,0.119
0.032,0.114
0.034,0.114
0.033,0.111
0.034,0.110
0.034,0.104
0.033,0.104
0.032,0.099
0.035,0.097
0.035,0.091
0.035,0.086
0.035,0.080
0.034,0.075
0.036,0.064
0.037,0.056
0.039,0.046
0.036,0.040
0.039,0.035
0.037,0.030
0.040,0.028
0.039,0.021
0.043,0.020
0.041,0.017
0.045,0.016
0.040,0.010
0.045,0.007
0.043,0.002
0.048,-0.005
0.049,-0.010
0.049,-0.013
0.047,-0.018
0.047,-0.022
0.045,-0.026
0.049,-0.027
0.049,-0.030
0.047,-0.031
0.049,-0.033
0.049,-0.032
0.050,-0.038
0.049,-0.045
0.050,-0.053
0.049,-0.058
0.050,-0.065
0.052,-0.073
0.050,-0.078
0.055,-0.084
0.053,-0.083
0.055,-0.084
0.054,-0.085
0.055,-0.086
0.056,-0.085
0.057,-0.085
0.057,-0.090
0.056,-0.093
0.053,-0.094
0.054,-0.099
0.054,-0.101
0.054,-0.105
0.058,-0.108
0.056,-0.116
0.056,-0.115
0.057,-0.113
0.057,-0.110
0.058,-0.110
0.057,-0.110
0.057,-0.109
0.058,-0.106
0.058,-0.107
0.060,-0.103
0.058,-0.100
0.054,-0.097
0.055,-0.094
0.057,-0.094
0.058,-0.091
0.056,-0.088
0.057,-0.088
0.052,-0.083
0.053,-0.082
0.051,-0.079
0.053,-0.079
0.050,-0.076
0.053,-0.070
0.053,-0.065
0.055,-0.062
0.054,-0.059
0.055,-0.056
0.055,-0.048
0.053,-0.047
0.057,-0.041
0.052,-0.035
0.056,-0.027
0.051,-0.027
0.051,-0.017
0.051,-0.015
0.052,-0.005
0.050,0.002
0.052,0.012
0.049,0.016
0.052,0.026
0.046,0.033
0.047,0.038
0.044,0.043
0.044,0.043
0.043,0.050
0.044,0.051
0.044,0.055
0.043,0.061
0.043,0.069
0.044,0.073
0.044,0.079
0.042,0.086
0.044,0.093
0.044,0.097
0.045,0.103
0.040,0.105
0.041,0.106
0.037,0.109
0.043,0.110
0.041,0.111
0.038,0.113
0.038,0.115
0.037,0.115
0.036,0.125
0.037,0.129
0.034,0.141
0.034,0.144
0.037,0.153
0.035,0.156
0.037,0.162
0.034,0.163
0.033,0.166
0.034,0.170
0.032,0.167
0.030,0.166
0.036,0.166
0.034,0.169
0.033,0.172
0.036,0.177
0.035,0.177
0.034,0.177
0.028,0.178
0.030,0.178
0.026,0.182
0.030,0.178
0.031,0.178
0.030,0.171
0.034,0.169
0.030,0.166
0.032,0.160
0.032,0.158
0.030,0.159
0.026,0.164
0.031,0.160
0.031,0.156
0.034,0.153
0.033,0.147
0.033,0.140
0.033,0.140
0.034,0.132
0.035,0.131
0.034,0.126
0.035,0.121
0.032,0.120
0.034,0.114
0.032,0.113
0.034,0.108
0.034,0.107
0.034,0.106
0.036,0.106
0.038,0.102
0.037,0.098
0.037,0.093
0.037,0.090
0.037,0.087
0.040,0.087
0.036,0.085
0.038,0.081
0.036,0.075
0.039,0.068
0.041,0.057
0.039,0.050
0.041,0.038
0.044,0.034
0.042,0.023
0.043,0.018
0.043,0.008
0.042,0.004
0.046,-0.001
0.043,-0.004
0.047,-0.006
0.045,-0.011
0.049,-0.016
0.047,-0.018
0.046,-0.026
0.049,-0.030
0.047,-0.034
0.047,-0.036
0.051,-0.043
0.050,-0.050
0.054,-0.055
0.052,-0.055
0.055,-0.060
0.051,-0.054
0.054,-0.057
0.053,-0.050
0.053,-0.057
0.052,-0.066
0.053,-0.076
0.054,-0.085
0.055,-0.094
0.054,-0.102
0.054,-0.107
0.054,-0.112
0.055,-0.114
0.057,-0.113
0.056,-0.115
0.057,-0.117
0.058,-0.119
0.055,-0.121
0.056,-0.125
0.057,-0.127
0.057,-0.133
0.057,-0.135
0.060,-0.137
0.062,-0.135
0.062,-0.140
0.062,-0.143
0.062,-0.148
0.063,-0.144
0.060,-0.146
0.063,-0.141
0.063,-0.138
0.062,-0.137
0.062,-0.137
0.061,-0.132
0.062,-0.131
0.062,-0.127
0.063,-0.128
0.064,-0.122
0.061,-0.123
0.063,-0.118
0.058,-0.115
0.062,-0.110
0.059,-0.106
0.062,-0.102
0.060,-0.099
0.064,-0.094
0.062,-0.091
0.064,-0.086
0.062,-0.078
0.062,-0.076
0.058,-0.068
0.061,-0.065
0.059,-0.055
0.058,-0.050
0.058,-0.040
0.055,-0.035
0.057,-0.028
0.055,-0.025
0.055,-0.015
0.058,-0.007
0.058,0.003
0.056,0.004
0.055,0.014
0.055,0.023
0.055,0.033
0.051,0.037
0.049,0.049
0.049,0.062
0.048,0.076
0.050,0.086
0.047,0.097
0.049,0.099
0.045,0.109
0.048,0.118
0.045,0.129
0.049,0.140
0.045,0.147
0.047,0.159
0.046,0.166
0.047,0.171
0.046,0.180
0.045,0.190
0.044,0.198
0.043,0.208
0.043,0.214
0.041,0.217
0.044,0.220
0.047,0.230
0.045,0.241
0.045,0.248
0.044,0.257
0.043,0.262
0.041,0.272
0.041,0.279
0.042,0.284
0.039,0.284
0.043,0.286
0.041,0.290
0.040,0.294
0.037,0.300
0.037,0.301
0.038,0.308
0.037,0.309
0.040,0.313
0.037,0.318
0.039,0.316
0.037,0.319
0.038,0.313
0.039,0.311
0.040,0.302
0.036,0.294
0.038,0.293
0.037,0.283
0.036,0.275
0.037,0.268
0.040,0.263
0.036,0.254
0.037,0.249
0.040,0.246
0.037,0.238
0.037,0.234
0.037,0.229
0.037,0.222
0.036,0.212
0.039,0.204
0.037,0.191
0.040,0.185
0.037,0.178
0.039,0.175
0.038,0.166
0.041,0.156
0.037,0.148
0.040,0.141
0.037,0.139
0.041,0.133
0.038,0.127
0.040,0.113
0.039,0.104
0.041,0.095
0.046,0.093
0.042,0.084
0.045,0.079
0.043,0.076
0.043,0.078
0.043,0.075
0.042,0.071
0.042,0.057
0.047,0.047
0.045,0.039
0.043,0.029
0.048,0.023
0.046,0.018
0.049,0.009
0.049,0.004
0.050,-0.003
0.049,-0.011
0.052,-0.018
0.050,-0.028
0.051,-0.035
0.049,-0.045
0.054,-0.051
0.051,-0.061
0.056,-0.068
0.053,-0.072
0.054,-0.078
0.058,-0.077
0.055,-0.081
0.057,-0.083
0.052,-0.087
0.054,-0.086
0.055,-0.094
0.056,-0.094
0.056,-0.108
0.054,-0.116
0.056,-0.130
0.056,-0.139
0.058,-0.149
0.059,-0.152
0.058,-0.158
0.060,-0.156
0.059,-0.158
0.061,-0.159
0.060,-0.159
0.061,-0.160
0.061,-0.161
0.060,-0.164
0.065,-0.171
0.063,-0.175
0.067,-0.182
0.063,-0.188
0.062,-0.193
0.063,-0.200
0.066,-0.199
0.067,-0.200
0.067,-0.198
0.063,-0.196
0.064,-0.195
0.062,-0.190
0.065,-0.186
0.065,-0.179
0.063,-0.172
0.062,-0.166
0.062,-0.161
0.062,-0.158
0.063,-0.149
0.062,-0.146
0.064,-0.140
0.061,-0.137
0.063,-0.132
0.066,-0.127
0.061,-0.120
0.062,-0.113
0.061,-0.105
0.060,-0.095
0.061,-0.086
0.062,-0.074
0.060,-0.064
0.054,-0.055
0.058,-0.049
0.053,-0.041
0.055,-0.039
0.053,-0.031
0.055,-0.026
0.054,-0.018
0.056,-0.010
0.054,0.000
0.057,0.011
0.055,0.024
0.055,0.037
0.051,0.053
0.055,0.057
0.052,0.074
0.049,0.083
0.047,0.092
0.047,0.098
0.049,0.101
0.049,0.108
0.051,0.114
0.047,0.117
0.045,0.126
0.047,0.129
0.048,0.141
0.046,0.149
0.046,0.156
0.046,0.166
0.043,0.171
0.042,0.178
0.041,0.182
0.043,0.187
0.042,0.188
0.044,0.189
0.043,0.189
0.043,0.193
0.039,0.199
0.042,0.204
0.036,0.212
0.040,0.222
0.040,0.231
0.039,0.239
0.041,0.247
0.036,0.253
0.038,0.255
0.037,0.258
0.038,0.256
0.034,0.258
0.036,0.257
0.036,0.257
0.034,0.255
0.038,0.257
0.037,0.266
0.036,0.264
0.032,0.269
0.031,0.267
0.032,0.267
0.033,0.265
0.036,0.262
0.036,0.259
0.034,0.257
0.034,0.257
0.033,0.253
0.031,0.254
0.030,0.248
0.034,0.246
0.031,0.236
0.034,0.233
0.032,0.230
0.033,0.225
0.029,0.221
0.028,0.210
0.031,0.207
0.028,0.201
0.033,0.195
0.030,0.186
0.036,0.180
0.034,0.174
0.035,0.169
0.034,0.163
0.035,0.154
0.031,0.145
0.035,0.135
0.033,0.131
0.033,0.125
0.029,0.121
0.032,0.114
0.035,0.113
0.032,0.108
0.035,0.102
0.032,0.098
0.034,0.091
0.034,0.084
0.035,0.073
0.034,0.059
0.034,0.048
0.038,0.032
0.039,0.023
0.041,0.007
0.043,0.004
0.044,-0.003
0.046,-0.008
0.045,-0.014
0.046,-0.021
0.046,-0.024
0.042,-0.034
0.047,-0.038
0.044,-0.049
0.049,-0.058
0.047,-0.067
0.048,-0.076
0.046,-0.088
0.050,-0.090
0.046,-0.098
0.050,-0.104
0.049,-0.108
0.052,-0.113
0.050,-0.120
0.051,-0.122
0.050,-0.126
0.051,-0.128
0.050,-0.140
0.051,-0.149
0.051,-0.160
0.052,-0.171
0.053,-0.183
0.053,-0.189
0.054,-0.197
0.058,-0.200
0.053,-0.202
0.055,-0.203
0.051,-0.205
0.055,-0.201
0.051,-0.203
0.053,-0.206
0.053,-0.211
0.053,-0.214
0.054,-0.224
0.053,-0.227
0.054,-0.235
0.054,-0.237
0.054,-0.239
0.054,-0.240
0.056,-0.239
0.054,-0.237
0.057,-0.234
0.054,-0.228
0.058,-0.228
0.057,-0.221
0.059,-0.220
0.059,-0.213
0.057,-0.209
0.056,-0.204
0.056,-0.198
0.055,-0.192
0.056,-0.189
0.055,-0.179
0.055,-0.178
0.053,-0.170
0.054,-0.165
0.055,-0.156
0.052,-0.150
0.051,-0.144
0.053,-0.137
0.052,-0.124
0.052,-0.121
0.049,-0.111
0.051,-0.104
0.051,-0.097
0.048,-0.091
0.047,-0.085
0.047,-0.075
0.047,-0.063
0.048,-0.053
0.046,-0.044
0.050,-0.036
0.044,-0.023
0.047,-0.008
0.046,0.010
0.045,0.022
0.044,0.034
0.044,0.044
0.043,0.054
0.042,0.064
0.040,0.071
0.040,0.076
0.036,0.087
0.041,0.089
0.039,0.100
0.039,0.106
0.037,0.119
0.035,0.123
0.035,0.135
0.034,0.140
0.037,0.152
0.033,0.158
0.036,0.165
0.034,0.170
0.032,0.175
0.030,0.180
0.031,0.183
0.032,0.185
0.033,0.187
0.035,0.194
0.032,0.201
0.034,0.209
0.032,0.225
0.032,0.234
0.028,0.246
0.030,0.251
0.031,0.257
0.028,0.261
0.026,0.262
0.027,0.266
0.025,0.267
0.023,0.268
0.026,0.271
0.025,0.273
0.026,0.275
0.028,0.280
0.029,0.287
0.027,0.292
0.023,0.294
0.025,0.293
0.024,0.295
0.023,0.291
0.026,0.291
0.023,0.290
0.025,0.288
0.023,0.289
0.024,0.282
0.020,0.279
0.021,0.277
0.024,0.276
0.023,0.272
0.024,0.270
0.024,0.266
0.024,0.261
0.023,0.258
0.024,0.253
0.020,0.250
0.021,0.247
0.022,0.244
0.025,0.237
0.025,0.233
0.027,0.229
0.028,0.224
0.027,0.219
0.028,0.209
0.027,0.207
0.029,0.199
0.026,0.196
0.026,0.193
0.027,0.186
0.026,0.182
0.029,0.176
0.028,0.173
0.027,0.169
0.027,0.156
0.028,0.152
0.027,0.136
0.029,0.123
0.027,0.106
0.032,0.094
0.034,0.085
0.034,0.075
0.033,0.067
0.031,0.061
0.033,0.053
0.035,0.047
0.038,0.038
0.039,0.035
0.039,0.023
0.038,0.019
0.038,0.007
0.040,-0.001
0.037,-0.013
0.037,-0.018
0.036,-0.026
0.036,-0.029
0.040,-0.033
0.037,-0.034
0.040,-0.042
0.040,-0.044
0.041,-0.049
0.040,-0.053
0.042,-0.060
0.041,-0.067
0.042,-0.077
0.041,-0.088
0.046,-0.103
0.046,-0.113
0.045,-0.124
0.045,-0.131
0.047,-0.137
0.048,-0.137
0.048,-0.138
0.049,-0.137
0.049,-0.138
0.047,-0.135
0.047,-0.139
0.048,-0.139
0.049,-0.146
0.050,-0.153
0.051,-0.162
0.051,-0.169
0.049,-0.173
0.050,-0.173
0.052,-0.178
0.049,-0.177
0.054,-0.179
0.052,-0.177
0.054,-0.176
0.054,-0.171
0.056,-0.171
0.052,-0.169
0.054,-0.164
0.052,-0.163
0.054,-0.158
0.051,-0.157
0.054,-0.153
0.052,-0.145
0.051,-0.145
0.050,-0.139
0.050,-0.137
0.051,-0.129
0.049,-0.125
0.049,-0.122
0.050,-0.119
0.050,-0.112
0.048,-0.107
0.049,-0.100
0.046,-0.094
0.052,-0.087
0.049,-0.085
0.050,-0.081
0.046,-0.072
0.049,-0.065
0.048,-0.059
0.049,-0.053
0.049,-0.049
0.049,-0.037
0.047,-0.031
0.048,-0.019
0.046,-0.005
0.045,0.010
0.042,0.023
0.042,0.034
0.042,0.045
0.040,0.053
0.043,0.059
0.042,0.067
0.040,0.072
0.041,0.080
0.037,0.086
0.043,0.097
0.039,0.106
0.043,0.114
0.041,0.118
0.043,0.130
0.038,0.140
0.039,0.145
0.034,0.153
0.038,0.158
0.034,0.163
0.036,0.169
0.033,0.170
0.034,0.174
0.033,0.177
0.031,0.180
0.029,0.186
0.030,0.200
0.030,0.205
0.030,0.216
0.028,0.227
0.028,0.233
0.027,0.243
0.025,0.247
0.023,0.252
0.020,0.250
0.019,0.255
0.019,0.255
0.022,0.255
0.019,0.254
0.017,0.257
0.018,0.264
0.019,0.266
0.017,0.271
0.013,0.273
0.013,0.272
0.011,0.269
0.012,0.270
0.012,0.267
0.011,0.265
0.010,0.264
0.014,0.260
0.011,0.255
0.012,0.250
0.010,0.248
0.011,0.241
0.011,0.239
0.012,0.237
0.011,0.234
0.010,0.233
0.010,0.224
0.010,0.225
0.010,0.219
0.010,0.214
0.008,0.212
0.008,0.208
0.007,0.202
0.010,0.198
0.011,0.192
0.008,0.186
0.007,0.179
0.006,0.175
0.006,0.172
0.006,0.167
0.003,0.163
0.005,0.159
0.005,0.156
0.004,0.149
0.002,0.146
-0.000,0.142
-0.003,0.138
-0.003,0.131
-0.007,0.122
-0.004,0.105
-0.008,0.092
-0.002,0.076
-0.003,0.070
-0.003,0.058
-0.002,0.051
-0.003,0.043
-0.003,0.036
-0.000,0.031
0.000,0.024
0.000,0.019
-0.002,0.012
-0.002,0.003
-0.003,-0.003
-0.005,-0.014
-0.004,-0.025
-0.002,-0.029
-0.004,-0.039
-0.002,-0.044
0.000,-0.051
0.001,-0.054
0.001,-0.062
0.004,-0.064
-0.001,-0.069
0.006,-0.071
0.005,-0.079
0.007,-0.085
0.008,-0.094
0.011,-0.100
0.010,-0.114
0.013,-0.124
0.011,-0.133
0.017,-0.136
0.016,-0.146
0.019,-0.148
0.017,-0.148
0.019,-0.149
0.018,-0.152
0.020,-0.150
0.020,-0.152
0.020,-0.153
0.019,-0.156
0.020,-0.164
0.022,-0.172
0.022,-0.180
0.024,-0.185
0.025,-0.188
0.027,-0.191
0.027,-0.195
0.031,-0.197
0.029,-0.195
0.029,-0.194
0.029,-0.187
0.027,-0.185
0.028,-0.176
0.027,-0.175
0.029,-0.171
0.025,-0.167
0.024,-0.163
0.023,-0.158
0.024,-0.154
0.023,-0.150
0.026,-0.141
0.028,-0.137
0.027,-0.132
0.027,-0.128
0.027,-0.122
0.023,-0.118
0.026,-0.111
0.021,-0.102
0.022,-0.094
0.021,-0.085
0.020,-0.078
0.023,-0.076
0.024,-0.068
0.023,-0.062
0.023,-0.052
0.022,-0.046
0.018,-0.038
0.015,-0.030
0.016,-0.023
0.017,-0.013
0.017,-0.003
0.015,0.008
0.017,0.023
0.013,0.036
0.014,0.049
0.011,0.059
0.012,0.069
0.008,0.078
0.010,0.086
0.005,0.092
0.006,0.100
0.003,0.102
0.007,0.110
0.002,0.117
0.006,0.125
0.004,0.136
0.007,0.143
0.005,0.155
0.004,0.164
0.006,0.174
0.003,0.176
0.004,0.184
0.002,0.186
0.006,0.193
0.006,0.195
0.006,0.198
0.002,0.204
-0.000,0.211
-0.003,0.219
-0.002,0.229
-0.002,0.240
-0.001,0.248
-0.001,0.260
-0.003,0.267
-0.005,0.273
-0.007,0.275
-0.005,0.278
-0.012,0.281
-0.012,0.280
-0.014,0.279
-0.011,0.276
-0.008,0.279
-0.002,0.287
0.003,0.288
-0.000,0.296
-0.001,0.296
-0.003,0.299
-0.007,0.299
-0.007,0.296
-0.010,0.294
-0.009,0.294
-0.007,0.291
-0.009,0.285
-0.009,0.283
-0.010,0.278
-0.008,0.274
-0.010,0.266
-0.009,0.261
-0.010,0.256
-0.013,0.254
-0.017,0.253
-0.016,0.246
-0.016,0.245
-0.009,0.240
-0.006,0.237
-0.003,0.229
-0.001,0.224
-0.004,0.218
-0.001,0.213
-0.002,0.207
-0.001,0.199
-0.003,0.197
-0.002,0.188
-0.004,0.184
-0.004,0.177
-0.001,0.172
-0.005,0.166
-0.002,0.163
-0.003,0.157
-0.003,0.153
-0.000,0.146
-0.001,0.142
-0.002,0.128
0.001,0.122
-0.002,0.108
0.003,0.100
0.005,0.086
0.009,0.072
0.013,0.056
0.017,0.049
0.020,0.036
0.018,0.032
0.014,0.024
0.012,0.023
0.008,0.016
0.006,0.012
0.007,0.003
0.004,-0.005
0.006,-0.014
0.005,-0.024
0.008,-0.036
0.009,-0.050
0.013,-0.060
0.013,-0.069
0.017,-0.071
0.017,-0.071
0.020,-0.076
0.019,-0.078
0.021,-0.083
0.023,-0.085
0.019,-0.091
0.019,-0.097
0.015,-0.106
0.012,-0.117
0.013,-0.128
0.013,-0.141
0.020,-0.152
0.023,-0.159
0.025,-0.166
0.031,-0.170
0.033,-0.174
0.032,-0.176
0.031,-0.176
0.028,-0.176
0.025,-0.172
0.021,-0.177
0.022,-0.176
0.017,-0.185
0.021,-0.193
0.019,-0.205
0.024,-0.213
0.022,-0.221
0.026,-0.223
0.023,-0.229
0.026,-0.224
0.023,-0.224
0.023,-0.222
0.023,-0.221
0.023,-0.218
0.023,-0.213
0.024,-0.210
0.024,-0.206
0.022,-0.204
0.024,-0.203
0.019,-0.195
0.015,-0.191
0.012,-0.187
0.012,-0.176
0.007,-0.167
0.006,-0.156
0.004,-0.148
0.016,-0.143
0.024,-0.138
0.032,-0.134
0.030,-0.126
0.025,-0.121
0.021,-0.111
0.018,-0.106
0.018,-0.099
0.011,-0.094
0.015,-0.085
0.010,-0.080
0.010,-0.071
0.007,-0.062
0.006,-0.055
0.004,-0.044
0.002,-0.031
0.004,-0.018
0.005,-0.001
0.007,0.010
0.007,0.025
0.006,0.035
0.004,0.050
0.004,0.062
0.003,0.072
0.007,0.077
0.001,0.087
0.001,0.098
-0.006,0.119
-0.003,0.139
-0.007,0.164
-0.010,0.182
-0.013,0.186
-0.014,0.179
-0.013,0.160
-0.015,0.143
-0.019,0.145
-0.021,0.157
-0.020,0.169
-0.012,0.180
-0.009,0.187
-0.010,0.198
-0.010,0.207
-0.016,0.218
-0.021,0.231
-0.026,0.247
-0.035,0.263
-0.038,0.285
-0.043,0.323
-0.044,0.337
-0.036,0.333
-0.029,0.328
-0.021,0.329
-0.024,0.317
-0.020,0.306
-0.023,0.290
-0.021,0.278
-0.022,0.276
-0.020,0.282
-0.020,0.293
-0.022,0.307
-0.024,0.319
-0.028,0.332
-0.033,0.339
-0.038,0.349
-0.040,0.352
-0.043,0.351
-0.041,0.349
-0.043,0.344
-0.045,0.335
-0.042,0.331
-0.039,0.328
-0.029,0.325
-0.021,0.321
-0.012,0.317
-0.013,0.314
-0.017,0.303
-0.022,0.299
-0.030,0.294
-0.035,0.290
-0.037,0.291
-0.031,0.282
-0.029,0.275
-0.030,0.268
-0.028,0.263
-0.028,0.256
-0.019,0.247
-0.015,0.234
-0.011,0.223
-0.012,0.212
-0.014,0.200
-0.016,0.197
-0.025,0.191
-0.030,0.193
-0.033,0.189
-0.032,0.188
-0.031,0.178
-0.030,0.176
-0.030,0.165
-0.027,0.159
-0.024,0.144
-0.022,0.130
-0.020,0.112
-0.018,0.095
-0.010,0.080
-0.011,0.066
-0.007,0.061
-0.013,0.057
-0.012,0.062
-0.016,0.062
-0.015,0.038
-0.018,0.005
-0.015,-0.013
-0.014,-0.030
-0.011,-0.040
-0.010,-0.048
-0.007,-0.051
-0.009,-0.055
-0.010,-0.062
-0.010,-0.071
-0.004,-0.081
-0.002,-0.081
0.002,-0.081
0.004,-0.084
0.007,-0.089
0.011,-0.098
0.014,-0.106
0.013,-0.114
0.008,-0.121
-0.001,-0.128
-0.008,-0.133
-0.014,-0.139
-0.014,-0.141
-0.019,-0.144
-0.024,-0.145
-0.017,-0.147
0.003,-0.138
0.020,-0.135
0.029,-0.145
0.030,-0.187
0.026,-0.232
0.024,-0.260
0.019,-0.254
0.013,-0.247
0.008,-0.230
-0.007,-0.219
-0.013,-0.212
-0.002,-0.218
0.021,-0.224
0.041,-0.232
0.041,-0.231
0.039,-0.236
0.033,-0.230
0.029,-0.216
0.026,-0.200
0.025,-0.180
0.023,-0.181
0.022,-0.192
0.022,-0.218
0.023,-0.244
0.022,-0.251
0.023,-0.242
0.023,-0.227
0.024,-0.205
0.026,-0.185
0.026,-0.169
0.025,-0.160
0.020,-0.159
0.019,-0.167
0.019,-0.168
0.019,-0.160
0.020,-0.152
0.021,-0.139
0.022,-0.131
0.024,-0.120
0.021,-0.111
0.020,-0.101
0.022,-0.093
0.021,-0.084
0.024,-0.079
0.024,-0.070
0.023,-0.062
0.016,-0.050
0.013,-0.034
0.011,-0.021
0.015,-0.005
0.012,0.009
0.011,0.026
0.005,0.041
0.002,0.055
-0.004,0.069
-0.018,0.080
-0.012,0.084
0.003,0.087
0.020,0.091
0.017,0.095
0.012,0.106
0.000,0.113
-0.008,0.126
-0.012,0.136
-0.013,0.151
-0.015,0.160
-0.013,0.172
-0.009,0.179
-0.004,0.185
-0.005,0.188
-0.005,0.194
-0.008,0.198
-0.013,0.203
-0.012,0.212
-0.015,0.215
-0.017,0.226
-0.012,0.235
-0.007,0.249
-0.006,0.259
-0.006,0.277
-0.014,0.283
-0.021,0.294
-0.026,0.301
-0.029,0.303
-0.030,0.307
-0.031,0.308
-0.029,0.306
-0.020,0.300
-0.005,0.299
0.002,0.301
-0.007,0.301
-0.018,0.308
-0.016,0.313
-0.002,0.321
0.012,0.324
0.007,0.324
-0.004,0.326
-0.010,0.324
-0.014,0.325
-0.014,0.320
-0.009,0.317
-0.011,0.310
-0.011,0.304
-0.013,0.293
-0.010,0.283
-0.007,0.281
-0.005,0.279
-0.006,0.278
-0.007,0.273
-0.010,0.268
-0.007,0.258
-0.006,0.254
-0.006,0.247
-0.003,0.244
-0.004,0.235
0.002,0.230
0.000,0.227
0.001,0.220
0.001,0.215
-0.003,0.207
-0.004,0.201
-0.003,0.192
-0.002,0.188
-0.002,0.178
0.001,0.176
0.002,0.170
0.004,0.170
0.004,0.164
0.007,0.158
0.003,0.151
0.009,0.150
0.012,0.146
0.011,0.148
0.013,0.133
0.013,0.109
0.015,0.078
0.017,0.041
0.017,0.020
0.016,0.010
0.019,0.006
0.023,0.005
0.029,-0.002
0.034,-0.002
0.038,-0.015
0.036,-0.022
0.035,-0.029
0.039,-0.039
0.036,-0.049
0.037,-0.055
0.035,-0.063
0.041,-0.068
0.044,-0.075
0.041,-0.077
0.041,-0.080
0.043,-0.084
0.039,-0.088
0.039,-0.095
0.042,-0.101
0.051,-0.112
0.053,-0.120
0.052,-0.134
0.054,-0.146
0.054,-0.159
0.056,-0.169
0.055,-0.176
0.057,-0.183
0.058,-0.187
0.062,-0.191
0.057,-0.192
0.060,-0.193
0.060,-0.193
0.064,-0.195
0.066,-0.201
0.068,-0.201
0.067,-0.206
0.068,-0.207
0.064,-0.209
0.062,-0.214
0.058,-0.219
0.055,-0.228
0.057,-0.236
0.065,-0.240
0.071,-0.240
0.077,-0.232
0.079,-0.225
0.088,-0.220
0.091,-0.237
0.095,-0.249
0.086,-0.253
0.076,-0.249
0.060,-0.240
0.053,-0.227
0.037,-0.218
0.031,-0.205
0.035,-0.192
0.066,-0.179
0.100,-0.174
0.109,-0.168
0.099,-0.166
0.086,-0.161
0.073,-0.159
0.071,-0.151
0.066,-0.144
0.068,-0.134
0.065,-0.130
0.069,-0.124
0.073,-0.117
0.080,-0.112
0.081,-0.104
0.079,-0.098
0.079,-0.090
0.071,-0.084
0.065,-0.076
0.055,-0.063
0.050,-0.051
0.056,-0.033
0.052,-0.020
0.049,-0.002
0.045,0.011
0.064,0.023
0.083,0.033
0.092,0.042
0.087,0.044
0.079,0.053
0.063,0.055
0.060,0.065
0.049,0.073
0.046,0.081
0.038,0.095
0.042,0.106
0.047,0.121
0.052,0.130
0.054,0.140
0.053,0.147
0.057,0.154
0.055,0.159
0.057,0.165
0.055,0.170
0.056,0.178
0.055,0.182
0.058,0.184
0.053,0.192
0.052,0.200
0.049,0.213
0.045,0.223
0.046,0.237
0.045,0.249
0.050,0.256
0.051,0.266
0.054,0.265
0.049,0.265
0.041,0.260
0.037,0.261
0.032,0.264
0.028,0.265
0.036,0.271
0.050,0.279
0.062,0.281
0.063,0.285
0.053,0.290
0.037,0.290
0.020,0.297
0.011,0.296
0.018,0.298
0.039,0.299
0.057,0.291
0.068,0.288
0.064,0.280
0.063,0.273
0.054,0.274
0.050,0.269
0.042,0.267
0.040,0.262
0.045,0.257
0.044,0.250
0.043,0.247
0.037,0.240
0.039,0.238
0.034,0.237
0.035,0.232
0.045,0.229
0.059,0.222
0.065,0.212
0.058,0.206
0.050,0.197
0.042,0.189
0.042,0.180
0.050,0.175
0.069,0.173
0.083,0.173
0.079,0.170
0.064,0.169
0.057,0.163
0.058,0.157
0.065,0.147
0.064,0.140
0.070,0.128
0.068,0.119
0.071,0.107
0.071,0.096
0.075,0.080
0.073,0.067
0.078,0.050
0.078,0.042
0.084,0.031
0.089,0.024
0.091,0.015
0.095,0.010
0.096,0.004
0.099,0.000
0.098,-0.007
0.090,-0.017
0.079,-0.029
0.064,-0.040
0.054,-0.053
0.051,-0.062
0.045,-0.069
0.062,-0.073
0.085,-0.079
0.108,-0.083
0.112,-0.089
0.104,-0.091
0.100,-0.098
0.095,-0.100
0.092,-0.107
0.088,-0.111
0.086,-0.121
0.083,-0.131
0.081,-0.147
0.085,-0.163
0.089,-0.174
0.092,-0.182
0.096,-0.195
0.098,-0.196
0.099,-0.198
0.097,-0.196
0.097,-0.200
0.096,-0.198
0.095,-0.201
0.098,-0.204
0.099,-0.210
0.099,-0.220
0.098,-0.232
0.098,-0.237
0.099,-0.246
0.099,-0.251
0.097,-0.257
0.097,-0.258
0.092,-0.261
0.092,-0.257
0.092,-0.252
0.090,-0.249
0.092,-0.247
0.093,-0.239
0.100,-0.235
0.108,-0.224
0.111,-0.220
0.111,-0.216
0.107,-0.212
0.105,-0.197
0.103,-0.184
0.102,-0.164
0.102,-0.159
0.099,-0.166
0.099,-0.187
0.095,-0.206
0.097,-0.212
0.095,-0.203
0.098,-0.191
0.101,-0.174
0.098,-0.162
0.099,-0.149
0.096,-0.139
0.089,-0.132
0.088,-0.124
0.086,-0.113
0.088,-0.111
0.087,-0.102
0.084,-0.098
0.083,-0.089
0.075,-0.076
0.066,-0.062
0.070,-0.045
0.085,-0.029
0.105,-0.015
0.107,-0.002
0.094,0.007
0.077,0.016
0.070,0.017
0.067,0.023
0.067,0.028
0.069,0.033
0.071,0.040
0.067,0.051
0.069,0.062
0.066,0.073
0.068,0.081
0.062,0.095
0.061,0.104
0.061,0.115
0.060,0.121
0.060,0.126
0.059,0.134
0.058,0.137
0.058,0.144
0.061,0.147
0.060,0.151
0.062,0.158
0.068,0.164
0.069,0.173
0.067,0.181
0.068,0.192
0.062,0.205
0.056,0.214
0.047,0.225
0.037,0.230
0.028,0.240
0.023,0.247
0.024,0.251
0.027,0.253
0.037,0.254
0.046,0.255
0.052,0.259
0.049,0.258
0.049,0.264
0.046,0.266
0.045,0.273
0.041,0.274
0.042,0.272
0.036,0.275
0.035,0.272
0.036,0.269
0.034,0.262
0.039,0.258
0.035,0.255
0.041,0.251
0.039,0.249
0.042,0.242
0.048,0.237
0.047,0.236
0.050,0.229
0.050,0.225
0.048,0.222
0.042,0.220
0.035,0.216
0.034,0.214
0.039,0.206
0.044,0.204
0.050,0.198
0.050,0.193
0.055,0.185
0.056,0.179
0.059,0.168
0.066,0.161
0.065,0.154
0.069,0.147
0.068,0.143
0.071,0.140
0.066,0.137
0.066,0.131
0.062,0.128
0.061,0.116
0.055,0.106
0.045,0.092
0.032,0.081
0.016,0.072
0.011,0.062
0.018,0.049
0.049,0.034
0.086,0.018
0.106,0.008
0.107,-0.006
0.091,-0.013
0.079,-0.021
0.074,-0.028
0.075,-0.032
0.076,-0.040
0.085,-0.046
0.097,-0.061
0.111,-0.067
0.109,-0.081
0.106,-0.094
0.098,-0.101
0.096,-0.110
0.093,-0.118
0.098,-0.124
0.100,-0.130
0.102,-0.135
0.104,-0.140
0.106,-0.141
0.106,-0.146
0.104,-0.155
0.105,-0.164
0.105,-0.175
0.109,-0.185
0.106,-0.197
0.107,-0.212
0.108,-0.219
0.108,-0.229
0.111,-0.235
0.111,-0.236
0.114,-0.235
0.113,-0.237
0.116,-0.236
0.115,-0.240
0.116,-0.242
0.116,-0.248
0.118,-0.252
0.115,-0.266
0.116,-0.272
0.110,-0.282
0.114,-0.285
0.108,-0.289
0.108,-0.293
0.108,-0.292
0.122,-0.289
0.126,-0.289
0.128,-0.287
0.128,-0.285
0.124,-0.278
0.124,-0.276
0.122,-0.270
0.122,-0.267
0.121,-0.262
0.123,-0.255
0.123,-0.252
0.121,-0.247
0.120,-0.242
0.121,-0.238
0.117,-0.232
0.114,-0.230
0.115,-0.222
0.119,-0.218
0.127,-0.210
0.132,-0.207
0.139,-0.198
0.139,-0.193
0.140,-0.184
0.135,-0.179
0.127,-0.172
0.115,-0.167
0.109,-0.157
0.099,-0.150
0.102,-0.144
0.100,-0.136
0.106,-0.128
0.105,-0.118
0.107,-0.106
0.106,-0.095
0.107,-0.079
0.107,-0.066
0.104,-0.050
0.101,-0.040
0.101,-0.026
0.098,-0.017
0.101,-0.010
0.098,-0.005
0.100,0.002
0.095,0.007
0.096,0.015
0.095,0.020
0.093,0.032
0.092,0.042
0.092,0.053
0.089,0.065
0.093,0.072
0.090,0.085
0.092,0.086
0.091,0.092
0.094,0.098
0.097,0.103
0.096,0.106
0.091,0.110
0.090,0.116
0.085,0.123
0.084,0.135
0.082,0.143
0.079,0.154
0.082,0.165
0.082,0.180
0.082,0.192
0.084,0.201
0.082,0.208
0.081,0.210
0.082,0.214
0.081,0.214
0.083,0.217
0.083,0.216
0.085,0.219
0.080,0.225
0.082,0.229
0.083,0.240
0.080,0.243
0.081,0.250
0.077,0.250
0.084,0.250
0.080,0.252
0.082,0.249
0.079,0.247
0.081,0.245
0.079,0.240
0.080,0.234
0.081,0.230
0.083,0.226
0.084,0.218
0.085,0.216
0.088,0.212
0.085,0.208
0.088,0.206
0.088,0.204
0.090,0.199
0.087,0.194
0.086,0.190
0.086,0.183
0.084,0.182
0.087,0.173
0.085,0.168
0.083,0.163
0.090,0.159
0.084,0.150
0.087,0.144
0.085,0.136
0.085,0.132
0.082,0.127
0.080,0.125
0.076,0.122
0.078,0.115
0.083,0.110
0.089,0.098
0.094,0.092
0.096,0.080
0.099,0.071
0.102,0.054
0.103,0.038
0.103,0.026
0.104,0.009
0.101,-0.002
0.105,-0.017
0.106,-0.026
0.103,-0.031
0.107,-0.035
0.103,-0.041
0.102,-0.044
0.102,-0.051
0.103,-0.059
0.103,-0.071
0.105,-0.081
0.102,-0.090
0.108,-0.100
0.103,-0.107
0.109,-0.116
0.108,-0.123
0.109,-0.128
0.111,-0.136
0.112,-0.141
0.113,-0.145
0.114,-0.146
0.116,-0.151
0.118,-0.159
0.115,-0.170
0.117,-0.183
0.119,-0.198
0.119,-0.209
0.121,-0.224
0.118,-0.231
0.120,-0.240
0.122,-0.242
0.121,-0.246
0.122,-0.245
0.121,-0.247
0.123,-0.244
0.121,-0.247
0.123,-0.250
0.121,-0.255
0.121,-0.266
0.117,-0.279
0.119,-0.283
0.115,-0.294
0.117,-0.298
0.118,-0.302
0.122,-0.302
0.117,-0.302
0.119,-0.301
0.118,-0.299
0.115,-0.296
0.121,-0.293
0.117,-0.286
0.119,-0.287
0.119,-0.278
0.121,-0.277
0.115,-0.272
0.117,-0.270
0.115,-0.267
0.116,-0.258
0.116,-0.255
0.119,-0.254
0.115,-0.246
0.118,-0.243
0.115,-0.234
0.115,-0.228
0.117,-0.218
0.115,-0.211
0.110,-0.202
0.109,-0.196
0.111,-0.181
0.109,-0.176
0.111,-0.169
0.109,-0.162
0.109,-0.155
0.111,-0.151
0.110,-0.143
0.110,-0.134
0.108,-0.124
0.109,-0.115
0.110,-0.103
0.107,-0.088
0.107,-0.071
0.109,-0.055
0.102,-0.039
0.103,-0.029
0.099,-0.014
0.103,-0.006
0.100,0.003
0.098,0.007
0.099,0.014
0.095,0.021
0.095,0.032
0.096,0.039
0.097,0.051
0.096,0.059
0.094,0.071
0.094,0.082
0.096,0.093
0.093,0.103
0.094,0.110
0.090,0.119
0.092,0.119
0.088,0.128
0.086,0.130
0.091,0.136
0.089,0.139
0.091,0.142
0.088,0.155
0.085,0.166
0.085,0.179
0.084,0.194
0.083,0.207
0.082,0.212
0.080,0.225
0.076,0.229
0.074,0.232
0.072,0.231
0.072,0.233
0.067,0.239
0.069,0.238
0.072,0.242
0.073,0.245
0.075,0.250
0.077,0.258
0.076,0.260
0.076,0.265
0.076,0.263
0.076,0.262
0.074,0.260
0.079,0.258
0.076,0.257
0.073,0.252
0.069,0.250
0.067,0.243
0.071,0.239
0.068,0.235
0.071,0.230
0.069,0.228
0.068,0.219
0.068,0.215
0.072,0.210
0.069,0.205
0.073,0.199
0.071,0.192
0.075,0.185
0.079,0.181
0.075,0.174
0.076,0.170
0.072,0.167
0.073,0.158
0.071,0.151
0.075,0.140
0.075,0.135
0.078,0.129
0.078,0.122
0.075,0.118
0.073,0.107
0.071,0.105
0.070,0.101
0.072,0.094
0.074,0.089
0.074,0.078
0.078,0.068
0.075,0.052
0.080,0.039
0.079,0.023
0.084,0.008
0.084,-0.005
0.086,-0.019
0.083,-0.030
0.087,-0.037
0.084,-0.043
0.085,-0.048
0.086,-0.057
0.087,-0.062
0.087,-0.074
0.089,-0.082
0.088,-0.095
0.088,-0.107
0.088,-0.118
0.087,-0.125
0.088,-0.133
0.086,-0.139
0.088,-0.147
0.090,-0.152
0.092,-0.159
0.091,-0.163
0.090,-0.167
0.088,-0.171
0.089,-0.179
0.090,-0.186
0.093,-0.202
0.091,-0.212
0.091,-0.227
0.090,-0.238
0.091,-0.248
0.092,-0.257
0.096,-0.263
0.095,-0.267
0.094,-0.269
0.094,-0.270
0.094,-0.268
0.095,-0.270
0.094,-0.268
0.093,-0.275
0.094,-0.282
0.093,-0.290
0.098,-0.299
0.096,-0.307
0.098,-0.312
0.096,-0.318
0.099,-0.319
0.097,-0.325
0.099,-0.324
0.098,-0.321
0.099,-0.318
0.096,-0.314
0.096,-0.309
0.097,-0.305
0.096,-0.302
0.098,-0.295
0.093,-0.289
0.096,-0.286
0.092,-0.277
0.093,-0.275
0.090,-0.267
0.094,-0.265
0.088,-0.258
0.090,-0.255
0.088,-0.247
0.091,-0.242
0.087,-0.235
0.087,-0.226
0.087,-0.216
0.088,-0.209
0.087,-0.198
0.089,-0.194
0.085,-0.180
0.085,-0.177
0.084,-0.165
0.083,-0.158
0.084,-0.148
0.085,-0.145
0.080,-0.133
0.078,-0.126
0.078,-0.110
0.080,-0.097
0.079,-0.079
0.078,-0.067
0.079,-0.048
0.076,-0.036
0.074,-0.023
0.073,-0.009
0.073,0.001
0.073,0.006
0.070,0.013
0.072,0.019
0.068,0.028
0.068,0.036
0.069,0.049
0.068,0.060
0.066,0.072
0.068,0.085
0.068,0.096
0.068,0.106
0.068,0.114
0.069,0.121
0.064,0.126
0.065,0.134
0.064,0.141
0.062,0.147
0.063,0.151
0.062,0.157
0.064,0.162
0.065,0.175
0.063,0.186
0.064,0.205
0.065,0.221
0.062,0.229
0.062,0.243
0.061,0.246
0.060,0.249
0.058,0.249
0.060,0.249
0.059,0.252
0.062,0.250
0.061,0.255
0.058,0.258
0.061,0.260
0.057,0.268
0.060,0.272
0.059,0.279
0.057,0.279
0.058,0.279
0.059,0.279
0.062,0.278
0.058,0.273
0.058,0.270
0.057,0.264
0.054,0.260
0.052,0.256
0.052,0.251
0.052,0.245
0.055,0.240
0.058,0.237
0.055,0.230
0.060,0.226
0.060,0.224
0.061,0.215
0.060,0.212
0.058,0.203
0.057,0.201
0.057,0.191
0.057,0.187
0.056,0.182
0.059,0.176
0.058,0.166
0.059,0.160
0.057,0.151
0.058,0.143
0.058,0.141
0.057,0.132
0.057,0.127
0.056,0.124
0.056,0.118
0.055,0.113
0.055,0.106
0.056,0.095
0.055,0.086
0.057,0.071
0.060,0.056
0.058,0.039
0.060,0.024
0.063,0.007
0.063,-0.003
0.066,-0.017
0.065,-0.027
0.066,-0.039
0.067,-0.045
0.068,-0.049
0.066,-0.058
0.070,-0.062
0.066,-0.076
0.069,-0.085
0.068,-0.095
0.071,-0.107
0.069,-0.120
0.069,-0.129
0.069,-0.141
0.069,-0.146
0.070,-0.155
0.071,-0.159
0.074,-0.165
0.074,-0.168
0.076,-0.169
0.075,-0.175
0.074,-0.185
0.075,-0.192
0.075,-0.206
0.073,-0.219
0.075,-0.237
0.075,-0.247
0.075,-0.258
0.079,-0.261
0.073,-0.268
0.076,-0.263
0.077,-0.262
0.076,-0.261
0.078,-0.263
0.076,-0.260
0.077,-0.265
0.076,-0.261
0.078,-0.269
0.080,-0.276
0.079,-0.284
0.081,-0.288
0.081,-0.291
0.080,-0.288
0.082,-0.288
0.081,-0.280
0.083,-0.273
0.082,-0.265
0.084,-0.259
0.083,-0.252
0.086,-0.249
0.083,-0.248
0.084,-0.240
0.080,-0.236
0.080,-0.234
0.079,-0.232
0.080,-0.230
0.080,-0.231
0.085,-0.229
0.083,-0.227
0.084,-0.223
0.082,-0.221
0.080,-0.215
0.078,-0.209
0.080,-0.203
0.079,-0.192
0.077,-0.182
0.074,-0.170
0.073,-0.160
0.075,-0.148
0.075,-0.142
0.074,-0.132
0.073,-0.123
0.074,-0.111
0.073,-0.101
0.073,-0.095
0.074,-0.085
0.071,-0.072
0.074,-0.052
0.070,-0.036
0.073,-0.015
0.071,-0.000
0.071,0.018
0.068,0.030
0.072,0.044
0.067,0.054
0.070,0.062
0.068,0.069
0.068,0.074
0.067,0.081
0.063,0.087
0.064,0.098
0.061,0.107
0.062,0.120
0.061,0.131
0.060,0.148
0.060,0.158
0.061,0.170
0.059,0.177
0.060,0.191
0.059,0.204
0.059,0.212
0.059,0.222
0.058,0.229
0.062,0.235
0.060,0.239
0.064,0.251
0.060,0.262
0.061,0.273
0.060,0.285
0.062,0.296
0.056,0.300
0.056,0.305
0.057,0.309
0.058,0.309
0.056,0.312
0.055,0.309
0.055,0.308
0.055,0.305
0.056,0.304
0.058,0.306
0.055,0.311
0.054,0.314
0.055,0.316
0.055,0.313
0.059,0.311
0.056,0.309
0.055,0.309
0.054,0.311
0.055,0.306
0.053,0.302
0.050,0.295
0.053,0.291
0.051,0.286
0.055,0.283
0.054,0.283
0.054,0.279
0.055,0.270
0.055,0.264
0.054,0.253
0.057,0.245
0.057,0.234
0.057,0.221
0.056,0.212
0.056,0.204
0.056,0.194
0.054,0.189
0.058,0.183
0.054,0.176
0.058,0.166
0.057,0.162
0.059,0.159
0.061,0.153
0.059,0.148
0.060,0.141
0.057,0.136
0.056,0.134
0.057,0.128
0.054,0.124
0.054,0.119
0.054,0.110
0.055,0.099
0.053,0.092
0.051,0.078
0.053,0.069
0.050,0.052
0.054,0.041
0.052,0.027
0.054,0.020
0.054,0.008
0.055,-0.002
0.055,-0.014
0.054,-0.018
0.053,-0.028
0.057,-0.038
0.052,-0.050
0.055,-0.063
0.055,-0.073
0.056,-0.085
0.058,-0.094
0.055,-0.100
0.059,-0.105
0.061,-0.110
0.062,-0.113
0.062,-0.112
0.062,-0.114
0.063,-0.111
0.063,-0.112
0.062,-0.116
0.065,-0.120
0.066,-0.124
0.065,-0.134
0.064,-0.145
0.066,-0.156
0.068,-0.166
0.069,-0.175
0.068,-0.181
0.068,-0.186
0.066,-0.186
0.069,-0.191
0.070,-0.190
0.071,-0.193
0.072,-0.192
0.073,-0.198
0.071,-0.203
0.071,-0.213
0.071,-0.217
0.071,-0.227
0.069,-0.230
0.073,-0.239
0.071,-0.242
0.075,-0.244
0.075,-0.242
0.076,-0.241
0.075,-0.236
0.077,-0.231
0.078,-0.223
0.076,-0.223
0.074,-0.215
0.076,-0.210
0.076,-0.204
0.076,-0.199
0.075,-0.194
0.075,-0.193
0.077,-0.188
0.076,-0.188
0.073,-0.182
0.070,-0.177
0.071,-0.175
0.072,-0.174
0.070,-0.172
0.072,-0.166
0.070,-0.159
0.071,-0.152
0.070,-0.144
0.072,-0.138
0.071,-0.127
0.071,-0.119
0.070,-0.109
0.068,-0.101
0.069,-0.094
0.071,-0.084
0.066,-0.074
0.067,-0.064
0.063,-0.049
0.066,-0.039
0.065,-0.021
0.064,-0.011
0.064,0.007
0.060,0.016
0.063,0.031
0.061,0.036
0.062,0.049
0.061,0.050
0.058,0.059
0.058,0.062
0.055,0.070
0.060,0.072
0.058,0.081
0.058,0.088
0.058,0.097
0.056,0.105
0.060,0.112
0.057,0.118
0.060,0.123
0.058,0.127
0.059,0.129
0.061,0.135
0.060,0.140
0.058,0.147
0.060,0.146
0.059,0.153
0.061,0.156
0.063,0.166
0.059,0.177
0.060,0.188
0.057,0.208
0.058,0.213
0.058,0.222
0.056,0.223
0.058,0.228
0.054,0.227
0.055,0.227
0.051,0.228
0.054,0.228
0.050,0.226
0.054,0.227
0.055,0.229
0.056,0.230
0.057,0.235
0.055,0.238
0.055,0.239
0.051,0.239
0.049,0.238
0.045,0.242
0.048,0.238
0.056,0.240
0.065,0.238
0.072,0.235
0.071,0.234
0.070,0.230
0.067,0.231
0.064,0.225
0.062,0.224
0.060,0.221
0.063,0.218
0.063,0.213
0.065,0.206
0.063,0.203
0.058,0.200
0.055,0.195
0.047,0.188
0.020,0.185
-0.011,0.176
-0.036,0.169
-0.058,0.158
-0.047,0.151
-0.016,0.140
0.036,0.129
0.091,0.123
0.133,0.119
0.160,0.118
0.163,0.114
0.157,0.109
0.149,0.103
0.136,0.101
0.121,0.093
0.099,0.090
0.080,0.079
0.073,0.068
0.070,0.055
0.070,0.039
0.067,0.027
0.063,0.017
0.056,0.009
0.047,0.000
0.038,-0.004
0.025,-0.014
0.025,-0.017
0.025,-0.024
0.042,-0.029
0.056,-0.038
0.073,-0.046
0.083,-0.055
0.094,-0.065
0.097,-0.078
0.094,-0.085
0.082,-0.096
0.075,-0.097
0.068,-0.104
0.071,-0.106
0.079,-0.112
0.088,-0.113
0.100,-0.118
0.106,-0.119
0.109,-0.127
0.112,-0.133
0.109,-0.144
0.109,-0.155
0.108,-0.163
0.107,-0.174
0.106,-0.183
0.100,-0.185
0.093,-0.193
0.086,-0.190
0.077,-0.195
0.073,-0.195
0.063,-0.198
0.051,-0.200
0.042,-0.204
0.039,-0.209
0.039,-0.217
0.043,-0.224
0.046,-0.236
0.050,-0.239
0.056,-0.246
0.061,-0.248
0.060,-0.254
0.065,-0.255
0.065,-0.252
0.065,-0.248
0.068,-0.245
0.063,-0.239
0.066,-0.235
0.064,-0.228
0.067,-0.224
0.066,-0.218
0.065,-0.212
0.064,-0.208
0.065,-0.205
0.066,-0.200
0.067,-0.195
0.067,-0.188
0.069,-0.185
0.067,-0.178
0.066,-0.174
0.069,-0.163
0.068,-0.160
0.069,-0.153
0.071,-0.145
0.069,-0.133
0.070,-0.129
0.064,-0.120
0.063,-0.114
0.064,-0.106
0.064,-0.099
0.057,-0.095
0.062,-0.088
0.058,-0.080
0.063,-0.072
0.063,-0.061
0.063,-0.048
0.063,-0.035
0.065,-0.020
0.062,-0.004
0.067,0.008
0.064,0.022
0.063,0.030
0.052,0.042
0.040,0.047
0.037,0.055
0.045,0.060
0.066,0.066
0.077,0.067
0.078,0.077
0.076,0.082
0.072,0.091
0.064,0.097
0.059,0.106
0.057,0.111
0.057,0.123
0.055,0.127
0.057,0.135
0.057,0.145
0.061,0.151
0.064,0.160
0.063,0.163
0.069,0.166
0.074,0.169
0.075,0.178
0.073,0.183
0.075,0.199
0.083,0.215
0.091,0.225
0.055,0.235
0.001,0.240
-0.047,0.246
-0.099,0.249
-0.120,0.253
-0.120,0.252
-0.095,0.250
-0.054,0.252
-0.004,0.252
0.043,0.257
0.083,0.258
0.113,0.263
0.130,0.265
0.142,0.266
0.153,0.270
0.159,0.266
0.166,0.264
0.172,0.263
0.171,0.258
0.174,0.251
0.167,0.248
0.128,0.244
0.073,0.241
0.024,0.240
-0.015,0.236
-0.048,0.232
-0.065,0.227
-0.061,0.223
-0.054,0.218
-0.031,0.209
-0.006,0.204
0.025,0.198
0.051,0.192
0.077,0.185
0.095,0.180
0.103,0.174
0.113,0.170
0.117,0.164
0.120,0.158
0.117,0.153
0.115,0.146
0.108,0.140
0.102,0.130
0.088,0.129
0.070,0.120
0.056,0.117
0.055,0.109
0.062,0.106
0.072,0.100
0.083,0.097
0.085,0.087
0.085,0.079
0.088,0.067
0.086,0.053
0.088,0.040
0.090,0.029
0.091,0.017
0.090,0.010
0.090,0.002
0.087,-0.004
0.087,-0.008
0.079,-0.014
0.075,-0.021
0.072,-0.026
0.067,-0.033
0.064,-0.046
0.066,-0.056
0.062,-0.065
0.062,-0.076
0.062,-0.087
0.064,-0.096
0.062,-0.103
0.067,-0.110
0.065,-0.114
0.063,-0.122
0.061,-0.121
0.059,-0.126
0.060,-0.129
0.061,-0.135
0.063,-0.144
0.062,-0.156
0.068,-0.163
0.072,-0.175
0.072,-0.186
0.072,-0.193
0.078,-0.200
0.101,-0.204
0.140,-0.208
0.166,-0.210
0.175,-0.210
0.160,-0.210
0.128,-0.213
0.097,-0.215
0.069,-0.219
0.038,-0.224
0.007,-0.236
-0.006,-0.244
-0.002,-0.250
0.015,-0.253
0.030,-0.257
0.060,-0.261
0.083,-0.264
0.103,-0.262
0.114,-0.256
0.112,-0.254
0.099,-0.249
0.099,-0.244
0.109,-0.241
0.117,-0.234
0.120,-0.232
0.112,-0.225
0.103,-0.219
0.090,-0.216
0.074,-0.206
0.062,-0.201
0.049,-0.197
0.038,-0.193
0.017,-0.188
-0.013,-0.178
-0.025,-0.175
-0.019,-0.169
-0.010,-0.165
0.007,-0.155
0.015,-0.152
0.028,-0.145
0.034,-0.141
0.046,-0.133
0.061,-0.129
0.090,-0.120
0.112,-0.116
0.132,-0.106
0.130,-0.098
0.121,-0.087
0.099,-0.074
0.072,-0.061
0.054,-0.047
0.040,-0.028
0.031,-0.016
0.030,-0.000
0.031,0.011
0.036,0.021
0.043,0.032
0.049,0.036
0.053,0.043
0.060,0.052
0.067,0.058
0.056,0.066
0.041,0.070
0.039,0.084
0.034,0.089
0.036,0.101
0.034,0.109
0.035,0.117
0.038,0.128
0.045,0.139
0.045,0.143
0.049,0.149
0.042,0.152
0.036,0.153
0.029,0.161
0.025,0.163
0.029,0.171
0.032,0.179
0.043,0.189
0.054,0.203
0.064,0.212
0.059,0.226
0.049,0.231
0.036,0.240
-0.003,0.245
-0.018,0.248
-0.057,0.253
-0.114,0.252
-0.129,0.251
-0.104,0.249
-0.039,0.252
0.022,0.255
0.072,0.258
0.101,0.266
0.108,0.267
0.111,0.272
0.108,0.275
0.117,0.274
0.125,0.270
0.133,0.270
0.134,0.264
0.133,0.260
0.121,0.254
0.115,0.250
0.099,0.246
0.076,0.239
0.062,0.235
0.030,0.230
-0.002,0.226
-0.032,0.227
-0.060,0.222
-0.073,0.216
-0.058,0.209
-0.044,0.206
-0.043,0.200
-0.028,0.196
-0.000,0.189
0.043,0.185
0.087,0.182
0.126,0.177
0.159,0.171
0.184,0.158
0.204,0.153
0.218,0.147
0.216,0.143
0.204,0.136
0.188,0.131
0.168,0.121
0.140,0.112
0.108,0.110
0.069,0.102
0.031,0.093
0.000,0.084
-0.009,0.073
-0.001,0.062
0.017,0.049
0.040,0.037
0.045,0.023
0.036,0.016
0.017,0.007
0.006,0.004
-0.008,-0.005
-0.009,-0.012
-0.006,-0.017
0.019,-0.024
0.023,-0.030
0.041,-0.038
0.063,-0.050
0.061,-0.058
0.079,-0.068
0.101,-0.075
0.130,-0.084
0.159,-0.088
0.183,-0.095
0.201,-0.097
0.215,-0.103
0.216,-0.107
0.210,-0.113
0.188,-0.117
0.153,-0.126
0.116,-0.129
0.089,-0.141
0.072,-0.147
0.049,-0.164
0.037,-0.174
0.021,-0.186
0.004,-0.192
-0.001,-0.197
0.005,-0.199
0.000,-0.201
0.002,-0.198
0.011,-0.198
0.036,-0.198
0.052,-0.200
0.080,-0.205
0.097,-0.212
0.120,-0.219
0.140,-0.230
0.155,-0.235
0.168,-0.241
0.173,-0.244
0.172,-0.247
0.159,-0.247
0.146,-0.248
0.133,-0.245
0.120,-0.243
0.112,-0.241
0.108,-0.237
0.100,-0.231
0.090,-0.228
0.063,-0.222
0.029,-0.221
-0.005,-0.216
-0.029,-0.211
-0.044,-0.203
-0.032,-0.200
-0.005,-0.198
0.026,-0.195
0.053,-0.190
0.075,-0.186
0.089,-0.180
0.101,-0.174
0.112,-0.171
0.116,-0.163
0.122,-0.154
0.124,-0.149
0.097,-0.141
0.048,-0.135
0.008,-0.127
-0.002,-0.125
0.003,-0.118
0.024,-0.110
0.044,-0.102
0.050,-0.096
0.045,-0.085
0.049,-0.077
0.092,-0.065
0.120,-0.054
0.142,-0.037
0.161,-0.023
0.146,-0.010
0.125,0.000
0.104,0.014
0.084,0.023
0.076,0.032
0.096,0.034
0.129,0.041
0.147,0.046
0.148,0.057
0.136,0.061
0.109,0.075
0.064,0.077
0.022,0.087
-0.024,0.097
-0.081,0.105
-0.130,0.115
-0.158,0.119
-0.169,0.129
-0.152,0.131
-0.133,0.136
-0.094,0.137
-0.050,0.142
-0.007,0.145
0.027,0.153
0.059,0.159
0.114,0.171
0.171,0.184
0.233,0.200
0.275,0.210
0.297,0.218
0.295,0.226
0.280,0.226
0.252,0.230
0.209,0.230
0.170,0.233
0.144,0.236
0.130,0.236
0.114,0.239
0.102,0.241
0.089,0.247
0.083,0.257
0.080,0.258
0.075,0.262
0.068,0.256
0.059,0.257
0.047,0.255
0.036,0.252
0.012,0.253
-0.010,0.246
-0.022,0.243
-0.026,0.237
-0.012,0.234
0.008,0.229
0.036,0.228
0.056,0.226
0.077,0.218
0.088,0.217
0.095,0.214
0.093,0.211
0.096,0.206
0.095,0.202
0.096,0.196
0.100,0.193
0.101,0.190
0.104,0.186
0.097,0.181
0.088,0.172
0.081,0.168
0.094,0.159
0.095,0.155
0.062,0.150
0.034,0.144
0.023,0.140
0.024,0.133
0.033,0.125
0.044,0.119
0.053,0.112
0.067,0.108
0.075,0.098
0.087,0.087
0.083,0.076
0.085,0.065
0.077,0.051
0.071,0.041
0.061,0.030
0.058,0.021
0.056,0.013
0.059,0.007
0.067,-0.003
0.074,-0.007
0.072,-0.011
0.055,-0.016
0.028,-0.026
0.010,-0.034
0.002,-0.042
-0.001,-0.052
0.001,-0.066
-0.001,-0.075
0.006,-0.084
0.006,-0.088
0.016,-0.093
0.035,-0.098
0.062,-0.106
0.093,-0.108
0.131,-0.113
0.158,-0.115
0.180,-0.125
0.184,-0.129
0.173,-0.139
0.149,-0.148
0.124,-0.160
0.101,-0.171
0.088,-0.181
0.070,-0.186
0.035,-0.190
-0.005,-0.192
-0.025,-0.196
-0.023,-0.193
-0.012,-0.198
0.001,-0.196
0.010,-0.200
0.021,-0.202
0.027,-0.209
0.034,-0.216
0.051,-0.226
0.058,-0.233
0.071,-0.240
0.072,-0.243
0.070,-0.248
0.058,-0.245
0.054,-0.244
0.048,-0.243
0.040,-0.238
0.032,-0.238
0.018,-0.230
-0.019,-0.229
-0.050,-0.222
-0.064,-0.218
-0.058,-0.217
-0.037,-0.213
-0.007,-0.210
0.024,-0.204
0.063,-0.198
0.130,-0.196
0.193,-0.191
0.210,-0.183
0.188,-0.179
0.157,-0.172
0.122,-0.166
0.081,-0.162
0.038,-0.150
0.009,-0.145
-0.000,-0.137
0.002,-0.136
0.019,-0.128
0.043,-0.125
0.061,-0.116
0.062,-0.111
0.050,-0.102
0.040,-0.098
0.048,-0.088
0.055,-0.079
0.066,-0.066
0.065,-0.055
0.062,-0.039
0.054,-0.027
0.054,-0.014
0.056,-0.002
0.066,0.008
0.071,0.018
0.075,0.026
0.074,0.028
0.070,0.039
0.063,0.045
0.059,0.052
0.066,0.058
0.081,0.071
0.093,0.079
0.088,0.087
0.077,0.096
0.068,0.105
0.059,0.116
0.049,0.127
0.036,0.130
0.031,0.136
0.028,0.140
0.029,0.140
0.031,0.146
0.035,0.150
0.028,0.152
0.023,0.160
0.007,0.165
-0.000,0.179
-0.007,0.188
-0.019,0.203
-0.019,0.209
0.014,0.218
0.045,0.222
0.082,0.226
0.105,0.228
0.123,0.228
0.129,0.234
0.139,0.234
0.152,0.236
0.165,0.239
0.179,0.246
0.179,0.252
0.168,0.257
0.143,0.258
0.121,0.259
0.097,0.258
0.061,0.258
0.019,0.256
-0.012,0.258
-0.030,0.256
-0.033,0.251
-0.031,0.246
-0.014,0.241
0.006,0.237
0.021,0.234
0.036,0.228
0.043,0.225
0.049,0.224
0.052,0.216
0.055,0.214
0.057,0.211
0.057,0.208
0.062,0.202
0.067,0.199
0.069,0.192
0.073,0.184
0.073,0.185
0.073,0.179
0.072,0.176
0.069,0.169
0.069,0.164
0.069,0.158
0.066,0.153
0.062,0.145
0.060,0.144
0.060,0.137
0.068,0.136
0.079,0.128
0.097,0.127
0.098,0.117
0.098,0.108
0.083,0.100
0.068,0.087
0.050,0.071
0.040,0.061
0.041,0.048
0.052,0.042
0.091,0.034
0.136,0.028
0.151,0.019
0.138,0.012
0.098,0.008
0.050,0.001
0.006,-0.005
-0.034,-0.015
-0.057,-0.023
-0.060,-0.033
-0.036,-0.044
-0.010,-0.052
0.019,-0.060
0.040,-0.066
0.053,-0.073
0.061,-0.078
0.065,-0.083
0.068,-0.085
0.068,-0.091
0.066,-0.093
0.065,-0.102
0.062,-0.104
0.058,-0.117
0.054,-0.123
0.052,-0.138
0.046,-0.148
0.045,-0.160
0.046,-0.168
0.046,-0.172
0.042,-0.174
0.032,-0.177
-0.006,-0.178
-0.048,-0.180
-0.073,-0.179
-0.095,-0.180
-0.094,-0.184
-0.058,-0.191
-0.005,-0.200
0.050,-0.209
0.100,-0.215
0.138,-0.221
0.156,-0.225
0.160,-0.233
0.149,-0.234
0.132,-0.235
0.117,-0.230
0.100,-0.230
0.085,-0.226
0.075,-0.220
0.055,-0.217
0.026,-0.215
-0.013,-0.210
-0.052,-0.207
-0.088,-0.204
-0.100,-0.203
-0.085,-0.199
-0.058,-0.195
-0.040,-0.193
-0.024,-0.184
-0.009,-0.181
0.017,-0.173
0.041,-0.169
0.069,-0.165
0.073,-0.160
0.087,-0.150
0.089,-0.145
0.097,-0.138
0.076,-0.134
0.072,-0.123
0.067,-0.121
0.081,-0.116
0.101,-0.113
0.126,-0.107
0.140,-0.098
0.145,-0.091
0.151,-0.083
0.148,-0.073
0.134,-0.062
0.112,-0.048
0.088,-0.035
0.078,-0.024
0.075,-0.012
0.073,-0.002
0.075,0.009
0.077,0.014
0.077,0.021
0.074,0.028
0.073,0.036
0.076,0.042
0.082,0.050
0.089,0.057
0.095,0.070
0.102,0.078
0.102,0.088
0.103,0.096
0.098,0.106
0.091,0.110
0.086,0.116
0.079,0.122
0.068,0.124
0.066,0.133
0.059,0.138
0.058,0.140
0.056,0.144
0.057,0.152
0.058,0.158
0.058,0.171
0.059,0.183
0.056,0.197
0.054,0.212
0.050,0.218
0.049,0.228
0.047,0.229
0.050,0.231
0.047,0.231
0.051,0.232
0.047,0.232
0.046,0.235
0.049,0.240
0.049,0.241
0.055,0.246
0.055,0.249
0.062,0.255
0.060,0.253
0.058,0.257
0.060,0.258
0.057,0.257
0.049,0.252
0.051,0.249
0.050,0.246
0.048,0.239
0.048,0.239
0.046,0.235
0.048,0.228
0.044,0.225
0.047,0.221
0.049,0.217
0.057,0.214
0.066,0.210
0.080,0.205
0.092,0.205
0.104,0.202
0.117,0.196
0.125,0.197
0.121,0.190
0.108,0.186
0.078,0.180
0.038,0.173
0.006,0.167
-0.005,0.159
-0.008,0.153
-0.011,0.150
-0.016,0.142
-0.025,0.136
-0.057,0.133
-0.081,0.127
-0.087,0.125
-0.065,0.116
-0.028,0.113
0.010,0.101
0.049,0.090
0.083,0.079
0.115,0.067
0.137,0.057
0.147,0.044
0.156,0.037
0.151,0.028
0.145,0.023
0.132,0.014
0.128,0.008
0.118,0.003
0.114,-0.002
0.121,-0.012
0.134,-0.016
0.134,-0.025
0.123,-0.033
0.093,-0.047
0.065,-0.057
0.031,-0.068
-0.007,-0.077
-0.031,-0.085
-0.043,-0.089
-0.042,-0.088
-0.033,-0.089
-0.023,-0.092
-0.012,-0.093
-0.004,-0.096
0.005,-0.101
0.020,-0.105
0.047,-0.114
0.049,-0.131
0.021,-0.140
-0.005,-0.155
-0.011,-0.162
-0.025,-0.168
-0.044,-0.172
-0.043,-0.173
-0.012,-0.172
0.031,-0.176
0.072,-0.173
0.103,-0.178
0.115,-0.178
0.121,-0.180
0.118,-0.185
0.110,-0.193
0.099,-0.204
0.089,-0.211
0.082,-0.214
0.076,-0.221
0.068,-0.223
0.063,-0.225
0.058,-0.221
0.057,-0.222
0.058,-0.220
0.059,-0.217
0.059,-0.212
0.059,-0.210
0.058,-0.205
0.062,-0.202
0.061,-0.198
0.061,-0.195
0.039,-0.188
0.020,-0.185
-0.027,-0.176
-0.097,-0.175
-0.135,-0.170
-0.120,-0.167
-0.077,-0.161
-0.020,-0.162
0.030,-0.152
0.070,-0.147
0.091,-0.136
0.103,-0.130
0.115,-0.120
0.124,-0.115
0.127,-0.107
0.126,-0.102
0.118,-0.096
0.105,-0.093
0.090,-0.085
0.079,-0.081
0.072,-0.074
0.063,-0.066
0.045,-0.053
0.039,-0.043
0.011,-0.029
-0.027,-0.016
-0.065,-0.001
-0.078,0.010
-0.055,0.021
-0.004,0.029
0.044,0.038
0.087,0.042
0.100,0.054
0.108,0.056
0.100,0.063
0.090,0.069
0.085,0.079
0.084,0.087
0.088,0.096
0.098,0.106
0.103,0.117
0.102,0.123
0.108,0.128
0.101,0.130
0.099,0.138
0.091,0.142
0.084,0.142
0.078,0.148
0.082,0.152
0.095,0.159
0.125,0.161
0.167,0.170
0.195,0.184
0.199,0.193
0.181,0.205
0.143,0.215
0.097,0.222
0.049,0.226
-0.004,0.225
-0.042,0.233
-0.056,0.231
-0.048,0.234
-0.033,0.234
-0.030,0.236
-0.045,0.237
-0.053,0.242
-0.063,0.247
-0.101,0.252
-0.146,0.256
-0.183,0.255
-0.193,0.258
-0.151,0.256
-0.106,0.255
-0.069,0.250
-0.013,0.247
0.039,0.243
0.073,0.240
0.093,0.236
0.114,0.231
0.132,0.227
0.144,0.221
0.162,0.222
0.181,0.216
0.188,0.215
0.192,0.209
0.194,0.206
0.190,0.201
0.189,0.195
0.181,0.193
0.168,0.189
0.149,0.184
0.130,0.177
0.110,0.174
0.092,0.165
0.067,0.160
0.029,0.150
-0.009,0.147
-0.028,0.144
-0.026,0.137
-0.021,0.135
-0.001,0.127
0.017,0.127
0.040,0.119
0.057,0.114
0.071,0.104
0.081,0.095
0.092,0.084
0.096,0.072
0.106,0.058
0.106,0.048
0.107,0.031
0.102,0.023
0.099,0.011
0.095,0.007
0.084,-0.003
0.078,-0.008
0.076,-0.013
0.070,-0.020
0.066,-0.025
0.061,-0.034
0.059,-0.040
0.054,-0.052
0.053,-0.058
0.049,-0.066
0.043,-0.074
0.046,-0.083
0.052,-0.086
0.055,-0.094
0.054,-0.095
0.050,-0.102
0.053,-0.105
0.051,-0.109
0.054,-0.113
0.058,-0.117
0.072,-0.125
0.104,-0.135
0.136,-0.145
0.146,-0.159
0.143,-0.165
0.117,-0.177
0.086,-0.178
0.058,-0.185
0.031,-0.184
0.013,-0.185
0.020,-0.185
0.028,-0.185
0.036,-0.186
0.042,-0.189
0.042,-0.190
0.043,-0.199
0.045,-0.205
0.053,-0.215
0.062,-0.221
0.068,-0.226
0.079,-0.230
0.084,-0.236
0.080,-0.230
0.081,-0.231
0.086,-0.224
0.074,-0.224
0.058,-0.219
0.031,-0.216
0.021,-0.213
0.006,-0.211
0.002,-0.208
-0.007,-0.203
-0.003,-0.195
0.000,-0.193
0.002,-0.187
-0.001,-0.186
-0.007,-0.184
-0.036,-0.174
-0.036,-0.169
-0.018,-0.164
0.010,-0.159
0.029,-0.153
0.046,-0.144
0.059,-0.139
0.070,-0.130
0.077,-0.123
0.077,-0.116
0.078,-0.110
0.081,-0.105
0.082,-0.100
0.080,-0.093
0.079,-0.090
0.085,-0.080
0.092,-0.076
0.108,-0.063
0.111,-0.057
0.112,-0.040
0.100,-0.026
0.089,-0.014
0.075,-0.004
0.065,0.009
0.051,0.016
0.028,0.030
0.010,0.034
0.007,0.040
0.006,0.045
0.015,0.049
0.024,0.055
0.035,0.063
0.042,0.071
0.049,0.078
0.051,0.090
0.050,0.096
0.051,0.111
0.049,0.114
0.049,0.127
0.049,0.130
0.049,0.134
0.049,0.140
0.049,0.142
0.047,0.142
0.049,0.148
0.050,0.154
0.049,0.160
0.051,0.170
0.055,0.180
0.063,0.191
0.084,0.203
0.122,0.211
0.148,0.215
0.162,0.223
0.150,0.225
0.121,0.227
0.094,0.231
0.075,0.230
0.050,0.232
0.028,0.234
0.016,0.235
0.010,0.242
0.012,0.244
0.025,0.247
0.039,0.247
0.052,0.248
0.054,0.246
0.050,0.245
0.044,0.247
0.038,0.241
0.029,0.240
0.024,0.234
0.013,0.230
0.008,0.226
0.009,0.220
0.020,0.213
0.030,0.214
0.036,0.210
0.031,0.204
0.026,0.206
0.011,0.196
-0.021,0.195
-0.050,0.189
-0.075,0.183
-0.095,0.179
-0.100,0.174
-0.119,0.169
-0.109,0.164
-0.068,0.158
-0.047,0.153
-0.003,0.144
0.043,0.140
0.091,0.138
0.133,0.131
0.165,0.129
0.184,0.123
0.193,0.118
0.195,0.112
0.191,0.108
0.179,0.100
0.162,0.093
0.136,0.080
0.109,0.071
0.096,0.060
0.073,0.048
0.051,0.033
0.018,0.026
0.002,0.014
-0.001,0.006
0.010,-0.003
0.023,-0.006
0.039,-0.013
0.052,-0.019
0.067,-0.023
0.077,-0.028
0.085,-0.040
0.087,-0.048
0.088,-0.056
0.088,-0.068
0.083,-0.079
0.078,-0.084
0.072,-0.092
0.068,-0.092
0.064,-0.101
0.062,-0.100
0.061,-0.111
0.063,-0.110
0.057,-0.113
0.058,-0.118
0.055,-0.124
0.055,-0.134
0.056,-0.146
0.058,-0.158
0.075,-0.170
0.106,-0.176
0.143,-0.186
0.158,-0.190
0.153,-0.195
0.129,-0.195
0.095,-0.195
0.059,-0.195
0.022,-0.195
-0.011,-0.195
-0.024,-0.199
-0.023,-0.205
-0.010,-0.214
0.001,-0.220
0.013,-0.226
0.019,-0.233
0.023,-0.235
0.030,-0.238
0.032,-0.238
0.034,-0.240
0.039,-0.237
0.045,-0.236
0.054,-0.232
0.060,-0.229
0.062,-0.222
0.062,-0.218
0.059,-0.216
0.060,-0.212
0.056,-0.206
0.054,-0.205
0.052,-0.199
0.050,-0.197
0.050,-0.192
0.048,-0.188
0.054,-0.180
0.052,-0.176
0.051,-0.168
0.050,-0.165
0.053,-0.156
0.059,-0.154
0.075,-0.143
0.089,-0.137
0.107,-0.130
0.108,-0.128
0.107,-0.116
0.092,-0.111
0.077,-0.106
0.059,-0.099
0.042,-0.092
0.022,-0.086
0.014,-0.076
0.017,-0.066
0.025,-0.055
0.033,-0.043
0.045,-0.027
0.047,-0.016
0.055,-0.001
0.067,0.008
0.084,0.019
0.099,0.026
0.101,0.035
0.096,0.038
0.083,0.047
0.062,0.050
0.049,0.060
0.037,0.064
0.032,0.074
0.030,0.084
0.035,0.091
0.040,0.102
0.045,0.112
0.048,0.121
0.052,0.128
0.050,0.135
0.054,0.138
0.059,0.143
0.065,0.146
0.088,0.146
0.120,0.149
0.153,0.155
0.161,0.167
0.154,0.176
0.126,0.190
0.094,0.202
0.056,0.207
0.019,0.218
-0.008,0.223
-0.017,0.227
-0.016,0.230
0.000,0.228
0.013,0.228
0.027,0.229
0.037,0.230
0.041,0.231
0.049,0.236
0.051,0.241
0.055,0.247
0.055,0.249
0.058,0.250
0.052,0.248
0.053,0.249
0.052,0.247
0.049,0.247
0.046,0.244
0.049,0.238
0.052,0.231
0.057,0.227
0.056,0.223
0.057,0.216
0.056,0.217
0.057,0.210
0.064,0.208
0.073,0.205
0.091,0.199
0.090,0.195
0.089,0.187
0.079,0.181
0.066,0.177
0.056,0.171
0.045,0.165
0.036,0.161
0.028,0.157
0.021,0.146
0.023,0.142
0.023,0.137
0.030,0.134
0.038,0.127
0.041,0.126
0.049,0.118
0.058,0.115
0.086,0.110
0.117,0.104
0.142,0.097
0.147,0.091
0.123,0.085
0.076,0.074
0.048,0.062
0.023,0.049
0.000,0.037
-0.015,0.024
-0.010,0.010
-0.003,0.006
0.011,-0.002
0.022,-0.008
0.029,-0.014
0.036,-0.021
0.039,-0.029
0.039,-0.032
0.041,-0.043
0.043,-0.053
0.046,-0.060
0.043,-0.069
0.043,-0.079
0.042,-0.086
0.039,-0.095
0.040,-0.098
0.039,-0.103
0.042,-0.109
0.042,-0.112
0.042,-0.112
0.045,-0.117
0.047,-0.120
0.050,-0.125
0.052,-0.133
0.056,-0.142
0.054,-0.152
0.055,-0.164
0.053,-0.174
0.052,-0.185
0.049,-0.191
0.047,-0.194
0.043,-0.195
0.046,-0.197
0.046,-0.192
0.051,-0.195
0.049,-0.195
0.045,-0.198
0.047,-0.202
0.043,-0.208
0.047,-0.216
0.041,-0.223
0.045,-0.227
0.045,-0.231
0.045,-0.235
0.048,-0.240
0.046,-0.238
0.047,-0.238
0.043,-0.236
0.044,-0.231
0.044,-0.229
0.043,-0.222
0.045,-0.220
0.046,-0.213
0.046,-0.213
0.048,-0.207
0.043,-0.204
0.046,-0.197
0.043,-0.195
0.049,-0.186
0.045,-0.183
0.048,-0.177
0.047,-0.175
0.049,-0.168
0.046,-0.163
0.051,-0.159
0.049,-0.153
0.052,-0.143
0.049,-0.138
0.050,-0.128
0.048,-0.123
0.049,-0.113
0.050,-0.109
0.051,-0.101
0.048,-0.094
0.047,-0.087
0.049,-0.082
0.062,-0.073
0.087,-0.065
0.119,-0.054
0.147,-0.044
0.162,-0.027
0.157,-0.014
0.145,0.001
0.140,0.011
0.159,0.023
0.145,0.031
0.146,0.040
0.129,0.043
0.115,0.049
0.085,0.053
0.047,0.060
0.006,0.067
-0.026,0.076
-0.048,0.085
-0.048,0.093
-0.035,0.104
-0.008,0.113
0.008,0.122
0.023,0.127
0.026,0.134
0.034,0.138
0.041,0.143
0.047,0.140
0.049,0.146
0.051,0.152
0.052,0.153
0.054,0.165
0.061,0.173
0.061,0.185
0.059,0.197
0.059,0.209
0.057,0.216
0.057,0.227
0.055,0.231
0.054,0.233
0.055,0.234
0.065,0.233
0.083,0.235
0.112,0.233
0.140,0.235
0.153,0.237
0.140,0.243
0.107,0.249
0.063,0.253
0.041,0.256
0.017,0.254
0.000,0.256
0.010,0.253
0.041,0.248
0.078,0.247
0.124,0.243
0.151,0.240
0.180,0.235
0.179,0.229
0.170,0.226
0.143,0.224
0.118,0.222
0.090,0.214
0.061,0.214
0.036,0.207
0.028,0.201
0.023,0.194
0.019,0.192
0.011,0.186
-0.002,0.181
-0.005,0.179
-0.009,0.173
-0.015,0.168
-0.014,0.161
-0.007,0.154
0.002,0.144
0.016,0.137
0.028,0.132
0.052,0.129
0.064,0.122
0.091,0.115
0.099,0.111
0.096,0.106
0.085,0.097
0.070,0.094
0.057,0.085
0.048,0.078
0.035,0.068
0.023,0.054
0.010,0.039
0.002,0.029
0.005,0.017
0.009,0.004
0.018,-0.006
0.025,-0.012
0.032,-0.019
0.036,-0.022
0.040,-0.030
0.039,-0.036
0.042,-0.044
0.042,-0.053
0.041,-0.062
0.047,-0.068
0.048,-0.081
0.048,-0.087
0.049,-0.096
0.046,-0.102
0.045,-0.110
0.048,-0.112
0.045,-0.114
0.047,-0.119
0.044,-0.122
0.045,-0.125
0.046,-0.129
0.047,-0.138
0.046,-0.143
0.044,-0.153
0.048,-0.166
0.058,-0.175
0.093,-0.186
0.130,-0.193
0.149,-0.203
0.147,-0.204
0.127,-0.206
0.095,-0.206
0.061,-0.205
0.020,-0.208
-0.011,-0.208
-0.029,-0.208
-0.025,-0.213
-0.015,-0.222
0.000,-0.228
0.012,-0.236
0.023,-0.241
0.026,-0.246
0.033,-0.249
0.033,-0.251
0.037,-0.249
0.039,-0.248
0.040,-0.244
0.038,-0.243
0.039,-0.237
0.044,-0.234
0.042,-0.226
0.040,-0.224
0.044,-0.219
0.040,-0.214
0.045,-0.211
0.043,-0.207
0.047,-0.201
0.046,-0.200
0.047,-0.194
0.045,-0.191
0.043,-0.184
0.041,-0.180
0.040,-0.174
0.038,-0.169
0.043,-0.158
0.050,-0.150
0.054,-0.137
0.055,-0.126
0.054,-0.120
0.049,-0.115
0.051,-0.110
0.048,-0.104
0.049,-0.096
0.051,-0.091
0.049,-0.081
0.050,-0.076
0.054,-0.064
0.053,-0.055
0.053,-0.040
0.055,-0.024
0.055,-0.010
0.057,0.002
0.051,0.015
0.057,0.024
0.054,0.035
0.056,0.039
0.055,0.045
0.054,0.051
0.055,0.058
0.056,0.063
0.056,0.074
0.055,0.082
0.059,0.093
0.057,0.099
0.060,0.110
0.061,0.120
0.060,0.129
0.057,0.138
0.059,0.143
0.056,0.147
0.057,0.147
0.057,0.153
0.057,0.155
0.061,0.162
0.058,0.165
0.060,0.173
0.059,0.188
0.064,0.197
0.064,0.209
0.065,0.217
0.063,0.229
0.063,0.232
0.061,0.236
0.060,0.239
0.055,0.243
0.051,0.246
0.052,0.248
0.047,0.249
0.051,0.251
0.053,0.251
0.059,0.252
0.062,0.255
0.065,0.259
0.064,0.261
0.064,0.262
0.062,0.258
0.066,0.259
0.066,0.256
0.070,0.250
0.065,0.249
0.061,0.242
0.061,0.241
0.061,0.236
0.058,0.232
0.055,0.227
0.057,0.223
0.057,0.220
0.057,0.216
0.059,0.215
0.058,0.209
0.060,0.200
0.058,0.196
0.057,0.194
0.056,0.186
0.056,0.181
0.058,0.175
0.057,0.169
0.056,0.162
0.058,0.153
0.053,0.149
0.057,0.141
0.053,0.140
0.053,0.135
0.055,0.127
0.056,0.121
0.056,0.117
0.054,0.110
0.054,0.103
0.053,0.097
0.054,0.089
0.057,0.079
0.052,0.070
0.048,0.055
0.045,0.044
0.040,0.028
0.036,0.019
0.032,0.006
0.034,0.002
0.042,-0.006
0.050,-0.009
0.056,-0.020
0.056,-0.024
0.058,-0.033
0.055,-0.044
0.056,-0.047
0.055,-0.062
0.055,-0.069
0.052,-0.080
0.054,-0.086
0.049,-0.097
0.052,-0.102
0.045,-0.108
0.044,-0.110
0.042,-0.118
0.049,-0.121
0.050,-0.126
0.057,-0.126
0.058,-0.135
0.056,-0.140
0.048,-0.152
0.047,-0.161
0.040,-0.172
0.044,-0.184
0.042,-0.193
0.045,-0.198
0.044,-0.203
0.041,-0.204
0.041,-0.204
0.042,-0.205
0.040,-0.206
0.040,-0.207
0.038,-0.209
0.038,-0.211
0.039,-0.215
0.042,-0.223
0.047,-0.231
0.049,-0.237
0.054,-0.244
0.055,-0.246
0.053,-0.250
0.049,-0.249
0.048,-0.249
0.047,-0.244
0.044,-0.240
0.044,-0.233
0.044,-0.231
0.043,-0.229
0.039,-0.228
0.039,-0.218
0.043,-0.216
0.045,-0.210
0.046,-0.211
0.047,-0.203
0.049,-0.200
0.052,-0.195
0.054,-0.193
0.059,-0.186
0.060,-0.182
0.060,-0.177
0.060,-0.175
0.054,-0.165
0.051,-0.155
0.042,-0.142
0.043,-0.132
0.040,-0.117
0.039,-0.111
0.036,-0.105
0.043,-0.101
0.041,-0.097
0.045,-0.094
0.043,-0.086
0.053,-0.079
0.060,-0.066
0.069,-0.061
0.069,-0.049
0.065,-0.040
0.059,-0.023
0.046,-0.009
0.030,0.010
0.010,0.018
0.002,0.033
0.016,0.041
0.040,0.047
0.058,0.053
0.066,0.056
0.072,0.064
0.075,0.072
0.073,0.077
0.069,0.089
0.069,0.097
0.060,0.106
0.052,0.116
0.046,0.128
0.040,0.137
0.042,0.144
0.045,0.150
0.043,0.156
0.044,0.164
0.061,0.165
0.069,0.166
0.069,0.167
0.062,0.173
0.055,0.175
0.056,0.184
0.056,0.198
0.056,0.210
0.059,0.223
0.063,0.231
0.066,0.238
0.064,0.241
0.066,0.244
0.060,0.245
0.052,0.246
0.047,0.247
0.045,0.247
0.038,0.247
0.037,0.249
0.036,0.257
0.037,0.264
0.039,0.269
0.045,0.271
0.060,0.271
0.074,0.268
0.088,0.261
0.083,0.252
0.075,0.243
0.066,0.241
0.053,0.240
0.047,0.236
0.040,0.241
0.041,0.237
0.038,0.233
0.037,0.230
0.038,0.226
0.037,0.220
0.036,0.212
0.036,0.204
0.030,0.198
0.036,0.195
0.046,0.188
0.057,0.180
0.063,0.172
0.056,0.171
0.043,0.164
0.029,0.159
0.015,0.150
0.018,0.147
0.023,0.143
0.041,0.140
0.060,0.133
0.071,0.126
0.068,0.120
0.059,0.113
0.049,0.106
0.038,0.101
0.033,0.095
0.026,0.086
0.023,0.075
0.027,0.065
0.035,0.052
0.051,0.038
0.054,0.024
0.048,0.013
0.038,0.005
0.029,0.004
0.027,-0.001
0.030,-0.007
0.040,-0.019
0.051,-0.028
0.064,-0.039
0.068,-0.047
0.072,-0.053
0.063,-0.054
0.050,-0.057
0.035,-0.057
0.018,-0.060
0.002,-0.053
-0.002,-0.052
0.002,-0.046
0.013,-0.049
0.026,-0.061
0.040,-0.086
0.048,-0.115
0.057,-0.134
0.053,-0.133
0.049,-0.130
0.039,-0.154
0.036,-0.191
0.025,-0.212
0.022,-0.227
0.016,-0.255
0.019,-0.309
0.031,-0.306
0.054,-0.199
0.063,-0.088
0.059,-0.020
0.053,0.015
0.044,-0.006
0.036,-0.039
0.031,-0.115
0.026,-0.191
0.023,-0.253
0.013,-0.289
0.020,-0.302
0.021,-0.290
0.028,-0.279
0.033,-0.269
0.036,-0.277
0.040,-0.287
0.040,-0.292
0.041,-0.308
0.041,-0.328
0.039,-0.315
0.036,-0.224
0.033,-0.125
0.037,-0.054
0.036,-0.022
0.037,-0.026
0.037,-0.072
0.039,-0.128
0.041,-0.203
0.041,-0.263
0.043,-0.282
0.043,-0.271
0.043,-0.244
0.044,-0.222
0.038,-0.204
0.035,-0.193
0.027,-0.192
0.028,-0.207
0.027,-0.204
0.033,-0.157
0.052,-0.058
0.072,0.019
0.071,0.062
0.062,0.070
0.049,0.050
0.041,-0.001
0.045,-0.042
0.049,-0.093
0.046,-0.125
0.035,-0.130
0.014,-0.101
-0.013,-0.063
-0.038,-0.014
-0.037,0.025
0.006,0.055
0.061,0.077
0.085,0.087
0.085,0.090
0.070,0.104
0.065,0.115
0.072,0.136
0.084,0.144
0.090,0.141
0.088,0.129
0.080,0.114
0.071,0.107
0.060,0.120
0.056,0.131
0.052,0.151
0.045,0.171
0.050,0.192
0.054,0.207
0.061,0.212
0.064,0.217
0.063,0.219
0.060,0.230
0.058,0.245
0.057,0.255
0.049,0.264
0.036,0.267
0.028,0.273
0.026,0.283
0.015,0.303
-0.006,0.326
-0.019,0.343
0.007,0.348
0.055,0.338
0.093,0.329
0.104,0.318
0.102,0.315
0.087,0.321
0.078,0.337
0.072,0.349
0.073,0.345
0.068,0.324
0.058,0.301
0.052,0.294
0.044,0.296
0.034,0.303
0.029,0.303
0.040,0.304
0.055,0.303
0.067,0.300
0.068,0.300
0.064,0.294
0.062,0.290
0.060,0.293
0.057,0.292
0.055,0.294
0.054,0.283
0.054,0.265
0.047,0.245
0.047,0.227
0.050,0.220
0.051,0.218
0.053,0.230
0.054,0.245
0.051,0.236
0.051,0.209
0.050,0.185
0.047,0.161
0.045,0.196
0.040,0.246
0.041,0.298
0.041,0.322
0.038,0.220
0.037,0.133
0.035,0.072
0.037,0.050
0.037,0.050
0.042,0.060
0.045,0.065
0.048,0.076
0.058,0.061
0.059,0.016
0.062,-0.003
0.060,0.075
0.056,0.153
0.052,0.192
0.047,0.164
0.041,0.074
0.038,-0.014
0.032,-0.097
0.031,-0.131
0.028,-0.130
0.032,-0.111
0.039,-0.100
0.046,-0.102
0.049,-0.108
0.040,-0.109
0.031,-0.110
0.018,-0.107
0.008,-0.111
0.008,-0.114
0.021,-0.120
0.040,-0.125
0.060,-0.127
0.065,-0.125
0.060,-0.124
0.043,-0.122
0.037,-0.134
0.032,-0.151
0.029,-0.177
0.021,-0.200
0.017,-0.218
0.013,-0.230
0.016,-0.236
0.017,-0.231
0.026,-0.228
0.038,-0.225
0.051,-0.225
0.053,-0.221
0.045,-0.224
0.035,-0.222
0.025,-0.224
0.021,-0.231
0.018,-0.243
0.017,-0.256
0.020,-0.270
0.021,-0.275
0.024,-0.277
0.026,-0.277
0.023,-0.275
0.032,-0.276
0.048,-0.274
0.054,-0.281
0.036,-0.280
0.003,-0.277
-0.013,-0.268
-0.023,-0.254
-0.033,-0.234
-0.029,-0.214
0.004,-0.199
0.049,-0.193
0.076,-0.193
0.072,-0.197
0.062,-0.198
0.053,-0.199
0.044,-0.191
0.041,-0.187
0.043,-0.178
0.042,-0.173
0.045,-0.163
0.042,-0.153
0.047,-0.145
0.043,-0.135
0.042,-0.124
0.042,-0.120
0.041,-0.109
0.036,-0.102
0.033,-0.087
0.027,-0.074
0.034,-0.061
0.043,-0.053
0.057,-0.042
0.062,-0.032
0.058,-0.017
0.055,-0.006
0.052,0.015
0.052,0.034
0.049,0.049
0.046,0.061
0.040,0.070
0.038,0.075
0.032,0.074
0.025,0.069
0.025,0.077
0.019,0.083
0.017,0.096
0.012,0.105
0.021,0.114
0.033,0.122
0.052,0.129
0.059,0.140
0.058,0.150
0.054,0.156
0.059,0.161
0.068,0.163
0.068,0.168
0.068,0.174
0.066,0.178
0.063,0.184
0.060,0.192
0.061,0.205
0.054,0.216
0.055,0.231
0.052,0.244
0.054,0.254
0.055,0.261
0.055,0.267
0.059,0.267
0.054,0.270
0.057,0.268
0.058,0.268
0.057,0.265
0.057,0.267
0.055,0.269
0.054,0.273
0.054,0.280
0.056,0.285
0.054,0.289
0.055,0.289
0.058,0.289
0.057,0.286
0.058,0.288
0.056,0.290
0.055,0.285
0.054,0.286
0.055,0.277
0.058,0.276
0.053,0.268
0.056,0.267
0.049,0.265
0.052,0.257
0.051,0.253
0.061,0.241
0.070,0.233
0.079,0.221
0.085,0.219
0.080,0.214
0.082,0.216
0.067,0.216
0.053,0.212
0.036,0.213
0.027,0.204
0.024,0.201
0.032,0.190
0.040,0.175
0.042,0.163
0.043,0.153
0.052,0.147
0.062,0.140
0.062,0.134
0.041,0.126
0.023,0.121
0.013,0.112
0.007,0.108
0.007,0.098
0.015,0.094
0.034,0.086
0.052,0.071
0.061,0.056
0.056,0.044
0.053,0.036
0.048,0.030
0.048,0.025
0.044,0.016
0.042,0.004
0.041,-0.008
0.042,-0.015
0.041,-0.028
0.036,-0.040
0.034,-0.051
0.030,-0.063
0.024,-0.071
0.024,-0.076
0.028,-0.087
0.038,-0.096
0.046,-0.107
0.050,-0.111
0.052,-0.113
0.050,-0.115
0.051,-0.121
0.048,-0.121
0.045,-0.123
0.037,-0.123
0.029,-0.134
0.024,-0.141
0.016,-0.149
0.013,-0.159
0.024,-0.172
0.043,-0.184
0.058,-0.193
0.060,-0.200
0.054,-0.203
0.046,-0.199
0.040,-0.199
0.038,-0.198
0.034,-0.201
0.036,-0.200
0.034,-0.206
0.036,-0.211
0.040,-0.219
0.036,-0.229
0.040,-0.238
0.036,-0.240
0.036,-0.246
0.033,-0.248
0.032,-0.248
0.035,-0.248
0.042,-0.246
0.048,-0.245
0.055,-0.240
0.053,-0.236
0.053,-0.233
0.039,-0.226
0.032,-0.219
0.024,-0.216
0.024,-0.209
0.023,-0.208
0.021,-0.198
0.018,-0.194
0.019,-0.186
0.019,-0.181
0.026,-0.173
0.035,-0.170
0.044,-0.165
0.044,-0.157
0.044,-0.152
0.044,-0.146
0.042,-0.140
0.048,-0.135
0.049,-0.124
0.050,-0.118
0.053,-0.107
0.047,-0.100
0.043,-0.092
0.027,-0.087
0.019,-0.081
0.009,-0.072
0.008,-0.062
0.008,-0.052
0.030,-0.034
0.052,-0.020
0.068,-0.003
0.074,0.014
0.071,0.039
0.065,0.059
0.059,0.057
0.046,0.043
0.050,0.044
0.047,0.048
0.039,0.056
0.021,0.067
0.021,0.083
0.029,0.096
0.034,0.108
0.034,0.122
0.028,0.133
0.031,0.144
0.038,0.147
0.043,0.157
0.048,0.160
0.046,0.169
0.045,0.169
0.049,0.173
0.049,0.176
0.052,0.180
0.049,0.189
0.049,0.192
0.048,0.200
0.049,0.205
0.052,0.215
0.045,0.223
0.048,0.232
0.042,0.243
0.039,0.255
0.036,0.268
0.042,0.275
0.051,0.278
0.060,0.276
0.064,0.273
0.062,0.278
0.049,0.288
0.039,0.304
0.029,0.313
0.023,0.313
0.019,0.297
0.018,0.271
0.026,0.256
0.042,0.253
0.058,0.260
0.066,0.263
0.062,0.269
0.057,0.273
0.050,0.275
0.044,0.271
0.041,0.267
0.040,0.263
0.048,0.258
0.049,0.261
0.050,0.258
0.047,0.255
0.046,0.251
0.045,0.243
0.038,0.236
0.037,0.236
0.039,0.241
0.051,0.248
0.061,0.236
0.062,0.208
0.056,0.188
0.050,0.179
0.046,0.171
0.045,0.168
0.049,0.172
0.053,0.171
0.054,0.174
0.052,0.167
0.053,0.161
0.048,0.153
0.047,0.147
0.038,0.141
0.030,0.134
0.026,0.129
0.033,0.119
0.035,0.108
0.036,0.097
0.033,0.087
0.034,0.072
0.032,0.060
0.034,0.050
0.031,0.039
0.034,0.032
0.033,0.027
0.035,0.023
0.038,0.011
0.043,0.007
0.045,-0.007
0.043,-0.021
0.038,-0.035
0.032,-0.044
0.016,-0.052
0.002,-0.057
-0.006,-0.061
0.000,-0.062
0.018,-0.067
0.029,-0.068
0.036,-0.079
0.040,-0.082
0.036,-0.089
0.035,-0.093
0.031,-0.104
0.033,-0.107
0.029,-0.120
0.021,-0.131
0.013,-0.145
0.008,-0.157
0.002,-0.169
0.004,-0.174
0.007,-0.182
0.019,-0.174
0.023,-0.172
0.021,-0.169
0.029,-0.169
0.046,-0.172
0.065,-0.178
0.064,-0.184
0.062,-0.198
0.053,-0.202
0.052,-0.215
0.049,-0.216
0.043,-0.222
0.035,-0.224
0.030,-0.228
0.019,-0.224
0.021,-0.221
0.013,-0.212
0.015,-0.211
0.017,-0.203
0.020,-0.204
0.018,-0.196
0.019,-0.196
0.022,-0.193
0.041,-0.195
0.057,-0.195
0.063,-0.197
0.057,-0.191
0.027,-0.191
-0.007,-0.184
-0.043,-0.175
-0.077,-0.159
-0.089,-0.148
-0.056,-0.131
0.008,-0.117
0.070,-0.094
0.100,-0.073
0.101,-0.056
0.090,-0.062
0.070,-0.085
0.054,-0.115
0.036,-0.135
0.031,-0.133
0.028,-0.118
0.028,-0.099
0.023,-0.080
0.028,-0.067
0.025,-0.052
0.028,-0.039
0.027,-0.018
0.030,-0.003
0.029,0.015
0.041,0.023
0.043,0.036
0.045,0.043
0.044,0.054
0.042,0.055
0.044,0.058
0.046,0.055
0.050,0.052
0.054,0.052
0.054,0.063
0.057,0.074
0.051,0.091
0.047,0.107
0.043,0.130
0.037,0.151
0.035,0.177
0.027,0.183
0.027,0.168
0.025,0.155
0.027,0.154
0.026,0.161
0.028,0.169
0.030,0.178
0.031,0.189
0.038,0.197
0.039,0.209
0.040,0.228
0.042,0.241
0.044,0.255
0.041,0.264
0.042,0.271
0.041,0.275
0.042,0.273
0.039,0.271
0.037,0.271
0.028,0.276
0.020,0.278
0.014,0.282
0.017,0.283
0.022,0.286
0.028,0.290
0.032,0.293
0.034,0.292
0.037,0.296
0.039,0.294
0.041,0.291
0.046,0.287
0.052,0.284
0.041,0.273
0.019,0.264
-0.007,0.257
-0.027,0.253
-0.047,0.256
-0.047,0.256
-0.004,0.259
0.061,0.255
0.106,0.251
0.105,0.242
0.087,0.238
0.063,0.230
0.046,0.225
0.031,0.219
0.024,0.218
0.013,0.214
0.009,0.213
0.001,0.210
0.003,0.204
0.009,0.201
0.013,0.192
0.024,0.182
0.026,0.175
0.034,0.167
0.036,0.161
0.041,0.154
0.040,0.149
0.040,0.141
0.033,0.137
0.028,0.131
0.022,0.125
0.023,0.118
0.018,0.105
0.013,0.093
0.004,0.077
0.002,0.059
-0.003,0.047
-0.002,0.033
-0.005,0.026
-0.002,0.024
-0.003,0.020
0.009,0.016
0.021,0.011
0.024,0.009
0.016,-0.001
0.006,-0.007
-0.003,-0.016
-0.004,-0.027
-0.004,-0.038
-0.003,-0.049
-0.003,-0.058
-0.002,-0.067
-0.001,-0.071
-0.002,-0.075
0.000,-0.081
-0.004,-0.084
-0.001,-0.090
-0.002,-0.091
-0.006,-0.097
-0.003,-0.102
-0.005,-0.110
-0.005,-0.116
-0.005,-0.122
-0.003,-0.130
-0.003,-0.138
-0.002,-0.143
0.001,-0.143
0.002,-0.132
0.003,-0.123
0.001,-0.117
-0.001,-0.131
-0.005,-0.154
-0.008,-0.188
-0.013,-0.208
-0.014,-0.220
-0.006,-0.218
0.002,-0.215
-0.001,-0.211
0.001,-0.213
-0.009,-0.210
-0.019,-0.211
-0.029,-0.211
-0.032,-0.209
-0.031,-0.206
-0.028,-0.205
-0.026,-0.207
-0.026,-0.203
-0.031,-0.207
-0.030,-0.198
-0.033,-0.194
-0.028,-0.188
-0.021,-0.182
-0.004,-0.173
0.018,-0.168
0.039,-0.162
0.042,-0.159
0.033,-0.153
0.018,-0.149
0.014,-0.139
0.012,-0.132
0.008,-0.121
0.002,-0.118
0.006,-0.115
0.000,-0.115
-0.001,-0.112
-0.002,-0.107
0.008,-0.100
0.021,-0.096
0.024,-0.086
0.017,-0.081
0.000,-0.068
-0.013,-0.057
-0.015,-0.043
-0.016,-0.037
-0.008,-0.025
-0.005,-0.017
0.003,-0.003
0.007,0.011
0.019,0.026
0.028,0.034
0.021,0.042
0.000,0.046
-0.028,0.053
-0.061,0.059
-0.082,0.067
-0.075,0.074
-0.038,0.087
-0.002,0.100
0.029,0.113
0.031,0.124
0.025,0.130
0.011,0.136
0.003,0.141
-0.003,0.144
-0.007,0.151
-0.007,0.161
-0.004,0.162
0.002,0.172
0.003,0.174
-0.003,0.177
-0.016,0.176
-0.021,0.180
-0.028,0.186
-0.023,0.195
-0.015,0.205
-0.007,0.215
-0.003,0.229
-0.000,0.234
0.003,0.249
0.006,0.256
0.008,0.260
0.011,0.263
0.019,0.267
0.024,0.265
0.027,0.262
0.020,0.266
0.022,0.262
0.021,0.263
0.020,0.261
0.015,0.263
0.010,0.269
0.008,0.275
0.003,0.283
-0.002,0.279
-0.014,0.285
-0.022,0.283
-0.025,0.283
-0.025,0.274
-0.021,0.267
-0.016,0.264
-0.014,0.256
-0.010,0.255
-0.008,0.249
-0.005,0.245
-0.005,0.234
-0.003,0.227
-0.012,0.221
-0.016,0.218
-0.027,0.217
-0.037,0.212
-0.049,0.213
-0.049,0.212
-0.031,0.210
-0.010,0.204
0.003,0.197
0.002,0.190
-0.006,0.184
-0.016,0.173
-0.019,0.171
-0.028,0.164
-0.029,0.158
-0.036,0.152
-0.032,0.139
-0.032,0.127
-0.027,0.123
-0.024,0.114
-0.024,0.108
-0.023,0.099
-0.025,0.098
-0.024,0.094
-0.022,0.092
-0.018,0.089
-0.021,0.074
-0.022,0.049
-0.029,0.016
-0.032,-0.009
-0.042,-0.014
-0.040,-0.014
-0.035,-0.008
-0.027,-0.008
-0.026,-0.008
-0.030,-0.014
-0.036,-0.021
-0.037,-0.030
-0.039,-0.039
-0.040,-0.050
-0.036,-0.060
-0.034,-0.068
-0.030,-0.073
-0.031,-0.077
-0.030,-0.081
-0.028,-0.084
-0.024,-0.088
-0.015,-0.096
-0.010,-0.103
-0.007,-0.107
-0.010,-0.115
-0.016,-0.113
-0.026,-0.114
-0.033,-0.121
-0.045,-0.152
-0.041,-0.173
-0.043,-0.185
-0.031,-0.188
-0.023,-0.188
-0.009,-0.180
-0.013,-0.177
-0.017,-0.172
-0.027,-0.173
-0.028,-0.170
-0.026,-0.177
-0.024,-0.176
-0.025,-0.180
-0.025,-0.182
-0.026,-0.185
-0.024,-0.186
-0.026,-0.192
-0.026,-0.191
-0.026,-0.192
-0.030,-0.190
-0.025,-0.195
-0.024,-0.194
-0.017,-0.194
-0.018,-0.193
-0.017,-0.192
-0.019,-0.189
-0.017,-0.181
-0.019,-0.176
-0.017,-0.169
-0.020,-0.161
-0.018,-0.156
-0.019,-0.151
-0.015,-0.149
-0.015,-0.143
-0.015,-0.139
-0.016,-0.137
-0.014,-0.133
-0.016,-0.128
-0.019,-0.124
-0.020,-0.117
-0.021,-0.109
-0.019,-0.098
-0.020,-0.092
-0.018,-0.083
-0.017,-0.080
-0.014,-0.071
-0.014,-0.063
-0.013,-0.058
-0.010,-0.055
-0.006,-0.052
-0.003,-0.046
-0.006,-0.041
-0.003,-0.028
-0.008,-0.013
-0.004,0.002
-0.007,0.017
-0.004,0.036
-0.007,0.047
-0.009,0.060
-0.011,0.066
-0.012,0.076
-0.013,0.080
-0.008,0.086
-0.010,0.085
-0.004,0.093
-0.001,0.101
0.001,0.110
0.001,0.119
-0.001,0.127
0.000,0.138
-0.002,0.146
-0.002,0.153
0.001,0.157
-0.002,0.164
-0.003,0.165
-0.005,0.170
-0.006,0.174
-0.003,0.178
-0.002,0.182
-0.001,0.195
-0.002,0.209
-0.001,0.214
-0.002,0.223
-0.004,0.235
-0.005,0.253
-0.006,0.267
-0.003,0.283
-0.005,0.291
-0.006,0.278
-0.007,0.258
-0.004,0.230
-0.005,0.218
-0.004,0.215
0.000,0.226
0.001,0.232
0.001,0.243
0.001,0.252
-0.005,0.256
-0.009,0.262
-0.010,0.262
-0.017,0.260
-0.020,0.253
-0.021,0.247
-0.024,0.242
-0.024,0.236
-0.024,0.233
-0.023,0.231
-0.020,0.232
-0.013,0.229
-0.002,0.223
0.004,0.220
0.008,0.221
0.004,0.215
0.007,0.208
0.007,0.198
0.001,0.186
0.002,0.179
-0.001,0.169
-0.003,0.165
-0.003,0.158
0.000,0.164
-0.000,0.168
-0.004,0.170
-0.006,0.158
-0.002,0.153
-0.001,0.151
0.007,0.157
0.009,0.154
0.015,0.155
0.011,0.155
0.013,0.158
0.011,0.154
0.012,0.146
0.010,0.133
0.012,0.119
0.008,0.102
0.007,0.089
0.006,0.071
0.007,0.058
0.006,0.047
0.008,0.036
0.015,0.029
0.015,0.023
0.017,0.023
0.015,0.021
0.020,0.017
0.018,0.012
0.020,0.004
0.014,0.001
0.013,-0.013
0.012,-0.024
0.014,-0.038
0.018,-0.047
0.022,-0.059
0.027,-0.062
0.032,-0.069
0.036,-0.069
0.036,-0.073
0.036,-0.078
0.039,-0.083
0.036,-0.084
0.035,-0.089
0.030,-0.090
0.035,-0.102
0.033,-0.110
0.035,-0.128
0.039,-0.135
0.036,-0.149
0.040,-0.151
0.039,-0.160
0.041,-0.161
0.042,-0.163
0.039,-0.159
0.044,-0.157
0.042,-0.156
0.042,-0.159
0.038,-0.161
0.039,-0.165
0.036,-0.173
0.037,-0.180
0.037,-0.188
0.037,-0.195
0.036,-0.199
0.039,-0.202
0.036,-0.205
0.035,-0.203
0.035,-0.197
0.033,-0.192
0.034,-0.189
0.030,-0.183
0.025,-0.182
0.022,-0.174
0.020,-0.169
0.022,-0.163
0.023,-0.156
0.025,-0.154
0.026,-0.150
0.033,-0.147
0.039,-0.147
0.036,-0.145
0.035,-0.144
0.030,-0.138
0.029,-0.133
0.031,-0.124
0.027,-0.121
0.028,-0.113
0.024,-0.105
0.025,-0.099
0.023,-0.094
0.021,-0.087
0.019,-0.081
0.016,-0.077
0.012,-0.070
0.011,-0.065
0.006,-0.059
0.004,-0.051
0.003,-0.045
0.007,-0.036
0.006,-0.025
0.013,-0.013
0.016,-0.002
0.021,0.010
0.022,0.022
0.018,0.032
0.017,0.039
0.011,0.047
0.011,0.050
0.010,0.057
0.008,0.060
0.009,0.064
0.007,0.067
0.007,0.075
0.008,0.085
0.007,0.099
0.008,0.111
0.007,0.121
0.001,0.131
-0.001,0.136
-0.011,0.140
-0.013,0.141
-0.011,0.145
-0.010,0.147
-0.005,0.153
-0.002,0.156
0.002,0.154
0.004,0.160
0.002,0.159
0.001,0.165
-0.001,0.168
-0.006,0.180
-0.010,0.192
-0.011,0.210
-0.014,0.227
-0.011,0.237
-0.012,0.237
-0.009,0.229
-0.006,0.227
-0.005,0.219
-0.005,0.223
-0.006,0.225
-0.007,0.228
-0.008,0.232
-0.010,0.239
-0.012,0.238
-0.013,0.238
-0.012,0.239
-0.012,0.238
-0.017,0.236
-0.015,0.233
-0.016,0.232
-0.021,0.228
-0.019,0.227
-0.028,0.223
-0.029,0.218
-0.034,0.215
-0.035,0.213
-0.035,0.214
-0.037,0.212
-0.039,0.209
-0.035,0.205
-0.030,0.202
-0.024,0.197
-0.019,0.193
-0.017,0.190
-0.018,0.186
-0.020,0.180
-0.020,0.179
-0.021,0.173
-0.024,0.171
-0.025,0.165
-0.026,0.160
-0.027,0.158
-0.024,0.155
-0.025,0.153
-0.021,0.146
-0.022,0.143
-0.024,0.140
-0.026,0.138
-0.030,0.136
-0.028,0.136
-0.030,0.128
-0.030,0.117
-0.027,0.109
-0.029,0.098
-0.024,0.082
-0.026,0.073
-0.022,0.060
-0.024,0.052
-0.021,0.044
-0.022,0.038
-0.022,0.032
-0.022,0.025
-0.021,0.021
-0.023,0.015
-0.020,0.009
-0.023,0.001
-0.021,-0.005
-0.019,-0.013
-0.020,-0.021
-0.020,-0.033
-0.018,-0.037
-0.018,-0.043
-0.018,-0.044
-0.018,-0.049
-0.015,-0.053
-0.017,-0.056
-0.012,-0.056
-0.016,-0.060
-0.010,-0.062
-0.010,-0.068
-0.007,-0.080
-0.009,-0.092
-0.006,-0.099
-0.007,-0.111
-0.003,-0.114
-0.005,-0.121
0.001,-0.126
-0.002,-0.128
0.001,-0.126
-0.001,-0.127
0.003,-0.122
0.000,-0.123
0.002,-0.121
0.001,-0.126
0.003,-0.128
0.003,-0.137
0.007,-0.143
0.005,-0.150
0.008,-0.153
0.003,-0.159
0.006,-0.158
0.010,-0.159
0.007,-0.159
0.010,-0.157
0.009,-0.153
0.008,-0.152
0.012,-0.144
0.009,-0.142
0.011,-0.135
0.013,-0.132
0.012,-0.129
0.011,-0.128
0.010,-0.122
0.006,-0.121
0.008,-0.113
0.005,-0.109
0.007,-0.104
0.004,-0.101
0.007,-0.097
0.006,-0.094
0.009,-0.087
0.009,-0.085
0.008,-0.077
0.008,-0.069
0.008,-0.063
0.006,-0.055
0.004,-0.051
0.003,-0.043
0.001,-0.040
0.001,-0.033
-0.003,-0.026
-0.001,-0.021
-0.001,-0.013
-0.002,-0.004
-0.004,0.006
-0.002,0.011
-0.006,0.027
-0.009,0.034
-0.007,0.051
-0.013,0.060
-0.011,0.070
-0.014,0.076
-0.013,0.085
-0.017,0.090
-0.014,0.100
-0.018,0.103
-0.019,0.110
-0.024,0.116
-0.018,0.125
-0.022,0.134
-0.023,0.145
-0.020,0.155
-0.024,0.161
-0.027,0.172
-0.026,0.180
-0.027,0.187
-0.029,0.189
-0.029,0.194
-0.031,0.193
-0.032,0.198
-0.033,0.197
-0.035,0.200
-0.040,0.204
-0.037,0.209
-0.041,0.221
-0.042,0.229
-0.042,0.242
-0.043,0.250
-0.040,0.260
-0.044,0.267
-0.042,0.275
-0.040,0.278
-0.039,0.278
-0.035,0.275
-0.032,0.275
-0.031,0.276
-0.033,0.282
-0.033,0.284
-0.035,0.290
-0.037,0.298
-0.036,0.304
-0.039,0.305
-0.036,0.308
-0.035,0.309
-0.038,0.308
-0.035,0.303
-0.035,0.301
-0.037,0.299
-0.040,0.290
-0.040,0.292
-0.038,0.283
-0.037,0.281
-0.036,0.272
-0.027,0.267
-0.021,0.261
-0.016,0.256
-0.015,0.252
-0.016,0.246
-0.013,0.243
-0.013,0.238
-0.010,0.233
-0.005,0.226
-0.004,0.223
-0.005,0.213
-0.003,0.206
-0.003,0.198
0.002,0.192
0.005,0.187
0.006,0.186
0.009,0.185
0.008,0.174
0.008,0.167
0.011,0.155
0.010,0.150
0.012,0.144
0.012,0.146
0.010,0.140
0.011,0.135
0.011,0.122
0.012,0.114
0.012,0.101
0.014,0.090
0.017,0.076
0.021,0.064
0.023,0.056
0.020,0.046
0.023,0.041
0.021,0.036
0.025,0.029
0.024,0.026
0.030,0.019
0.030,0.012
0.034,0.001
0.036,-0.012
0.043,-0.020
0.043,-0.028
0.050,-0.036
0.049,-0.043
0.049,-0.051
0.051,-0.056
0.052,-0.062
0.052,-0.063
0.056,-0.067
0.055,-0.073
0.060,-0.074
0.060,-0.081
0.064,-0.088
0.066,-0.098
0.068,-0.108
0.066,-0.120
0.066,-0.131
0.062,-0.141
0.060,-0.143
0.062,-0.150
0.061,-0.152
0.059,-0.150
0.061,-0.150
0.056,-0.150
0.057,-0.153
0.058,-0.153
0.056,-0.156
0.059,-0.165
0.060,-0.171
0.060,-0.178
0.060,-0.183
0.063,-0.190
0.067,-0.195
0.066,-0.196
0.070,-0.196
0.069,-0.195
0.073,-0.192
0.069,-0.189
0.068,-0.184
0.066,-0.182
0.064,-0.176
0.064,-0.175
0.066,-0.170
0.067,-0.167
0.068,-0.159
0.066,-0.159
0.065,-0.153
0.070,-0.145
0.068,-0.143
0.070,-0.136
0.071,-0.138
0.068,-0.128
0.067,-0.125
0.066,-0.116
0.069,-0.111
0.069,-0.102
0.071,-0.097
0.065,-0.088
0.066,-0.084
0.064,-0.080
0.065,-0.075
0.066,-0.069
0.068,-0.064
0.066,-0.058
0.066,-0.057
0.064,-0.046
0.063,-0.041
