File Version,253.000000
# of Channels,2.000000
Samples/Channel,10300.000000
Scan Rate (Hz),10000.000000
Timestamp,3807792927.744833
Operating Mode,1.000000
Trial #,51.000000
Session #,24.000000
Subject code 1,82.000000
Subject code 2,88.000000
Feedback Window,0.000000
Feedback Ch,0.000000
Ch B,0.000000
Pre-Stim Acq. time (ms),100.000000
Post-Stim Acq. time (ms),900.000000
EMG Hi Limit,50.000000
EMG Lo Limit,0.000250
Target Value (V),5.000000
Stimulus Value (V),1.119851
Stimulus duration (ms),1.000000
EMG conditions time limit (sec),0.200000
M-response Start (ms),2.000000
M-response Duration (ms),2.000000
H-response Duration (ms),2.000000
H-response Start (ms),5.000000
Proportioanl gain,0.003000
Channel to monitor,0.000000
SIU gain,20.000000
FB Monitor value,0.913584
Inter-Stim delay (sec),5.000000
M-Window Mean,0.904647
H-Window Mean,0.015573
Stimulus paradigm,2.000000
# of Pulses in cond train,1.000000
Cond duration (ms),1.000000
Cond Train pulse period (ms),30.000000
Cond Value (V),1.119851
Start Delay (ms),0.000000
# of Pulses in stim train,1.000000
Stim Train pulse period (ms),30.000000
EMG amp gain ch 1,500.000000
EMG amp gain ch 2,500.000000
EMG amp gain ch 3,1000.000000
EMG amp gain ch 4,1000.000000
EMG amp gain ch 5,1000.000000
EMG amp gain ch 6,1000.000000
Stim Type 1,2.000000
Stim/Cond 1,0.000000
Stim Type 2,3.000000
Stim/Cond 2,0.000000
Stim Type 3,3.000000
Stim/Cond 3,0.000000
Stim Type 4,3.000000
Stim/Cond 4,0.000000
Stim Value 1,1.119851
Stim Value 2,0.000000
Stim Value 3,0.000000
Stim Value 4,0.000000
1st PP Channel,-1.000000
Pressure (g),0.000000
Speed (mm/sec),0.000000
Dwell (ms),0.000000
Pressure limit (g),0.000000
Travel limit (mm),0.000000
Amp gain,0.000000
Wait Trig?,0.000000
Move Timeout (ms),0.000000
Time Taken (ms),0.000000
Actual Travel (mm),0.000000
Recorded Data (mV),
0.040,0.038
0.043,0.042
0.044,0.040
0.044,0.041
0.044,0.040
0.043,0.042
0.043,0.040
0.045,0.039
0.043,0.043
0.045,0.038
0.043,0.040
0.045,0.037
0.041,0.038
0.044,0.035
0.044,0.038
0.044,0.037
0.045,0.036
0.043,0.034
0.045,0.035
0.042,0.033
0.043,0.033
0.046,0.032
0.043,0.031
0.044,0.031
0.042,0.030
0.045,0.033
0.044,0.033
0.045,0.032
0.045,0.030
0.046,0.031
0.044,0.027
0.047,0.029
0.044,0.025
0.048,0.027
0.042,0.022
0.049,0.022
0.046,0.016
0.049,0.018
0.044,0.017
0.050,0.016
0.046,0.016
0.050,0.012
0.047,0.010
0.049,0.009
0.049,0.010
0.047,0.010
0.047,0.005
0.049,0.009
0.047,0.010
0.046,0.010
0.048,0.010
0.047,0.007
0.048,0.007
0.046,0.006
0.047,0.004
0.047,0.003
0.045,0.000
0.045,0.004
0.045,0.001
0.046,0.003
0.046,0.004
0.047,0.001
0.046,0.003
0.048,-0.000
0.044,0.001
0.046,-0.001
0.044,0.000
0.044,-0.001
0.045,-0.001
0.046,-0.004
0.048,-0.003
0.048,-0.006
0.049,-0.006
0.048,-0.010
0.049,-0.011
0.049,-0.008
0.048,-0.007
0.049,-0.003
0.047,-0.004
0.046,-0.003
0.047,-0.003
0.046,-0.003
0.047,-0.003
0.045,-0.002
0.047,-0.004
0.046,-0.004
0.045,-0.007
0.044,-0.004
0.044,-0.005
0.044,-0.003
0.045,-0.000
0.047,-0.000
0.046,0.002
0.044,0.001
0.042,0.003
0.045,0.002
0.042,0.004
0.044,0.003
0.045,0.005
0.045,0.004
0.043,0.005
0.043,0.005
0.046,0.007
0.042,0.007
0.046,0.008
0.046,0.007
0.044,0.009
0.046,0.011
0.047,0.011
0.045,0.010
0.044,0.012
0.041,0.015
0.044,0.013
0.041,0.012
0.043,0.013
0.044,0.017
0.046,0.017
0.045,0.018
0.044,0.019
0.045,0.019
0.044,0.020
0.043,0.022
0.044,0.020
0.040,0.021
0.044,0.020
0.041,0.023
0.043,0.022
0.041,0.027
0.045,0.025
0.043,0.029
0.041,0.027
0.041,0.033
0.041,0.030
0.043,0.035
0.042,0.031
0.043,0.031
0.043,0.030
0.044,0.034
0.045,0.033
0.043,0.036
0.043,0.037
0.041,0.040
0.041,0.037
0.040,0.041
0.043,0.039
0.045,0.040
0.043,0.038
0.045,0.040
0.045,0.036
0.047,0.038
0.045,0.036
0.045,0.038
0.042,0.040
0.043,0.041
0.045,0.043
0.044,0.043
0.045,0.044
0.045,0.044
0.045,0.045
0.045,0.045
0.044,0.045
0.045,0.044
0.042,0.044
0.042,0.042
0.043,0.043
0.045,0.042
0.045,0.045
0.044,0.042
0.043,0.043
0.043,0.042
0.046,0.042
0.045,0.045
0.044,0.042
0.045,0.047
0.045,0.044
0.046,0.044
0.042,0.042
0.045,0.041
0.043,0.039
0.045,0.039
0.045,0.040
0.045,0.041
0.047,0.037
0.048,0.040
0.046,0.036
0.051,0.034
0.049,0.035
0.049,0.035
0.048,0.038
0.047,0.034
0.046,0.036
0.047,0.032
0.046,0.035
0.046,0.032
0.050,0.031
0.050,0.028
0.050,0.028
0.049,0.025
0.049,0.027
0.046,0.025
0.049,0.027
0.045,0.022
0.049,0.023
0.047,0.020
0.051,0.022
0.048,0.019
0.053,0.022
0.047,0.019
0.052,0.015
0.049,0.013
0.052,0.013
0.049,0.011
0.048,0.011
0.048,0.010
0.049,0.010
0.048,0.009
0.049,0.010
0.049,0.009
0.049,0.010
0.051,0.006
0.052,0.008
0.051,0.002
0.052,0.001
0.052,0.002
0.051,0.002
0.051,0.004
0.050,0.000
0.051,0.004
0.049,0.000
0.049,0.001
0.047,0.002
0.050,0.003
0.049,0.002
0.050,0.001
0.050,-0.001
0.049,-0.002
0.052,-0.005
0.051,-0.005
0.049,-0.003
0.049,-0.006
0.049,-0.003
0.047,-0.004
0.048,0.002
0.048,-0.003
0.046,-0.001
0.047,-0.003
0.048,-0.003
0.047,-0.005
0.050,-0.004
0.047,-0.005
0.049,-0.004
0.048,-0.006
0.049,-0.005
0.047,-0.003
0.047,-0.002
0.047,-0.002
0.046,-0.001
0.046,0.002
0.044,0.001
0.045,0.003
0.046,0.002
0.045,0.003
0.046,0.002
0.048,0.002
0.045,0.002
0.048,0.003
0.044,0.002
0.048,0.002
0.043,0.002
0.046,0.005
0.045,0.007
0.045,0.003
0.044,0.008
0.042,0.005
0.046,0.008
0.045,0.005
0.042,0.010
0.042,0.009
0.040,0.013
0.042,0.013
0.043,0.013
0.041,0.013
0.045,0.013
0.042,0.013
0.043,0.014
0.044,0.012
0.045,0.015
0.041,0.017
0.043,0.016
0.039,0.016
0.037,0.017
0.039,0.021
0.037,0.024
0.042,0.024
0.042,0.027
0.041,0.023
0.040,0.027
0.043,0.025
0.038,0.028
0.044,0.027
0.043,0.029
0.045,0.029
0.040,0.029
0.044,0.030
0.037,0.031
0.043,0.032
0.041,0.034
0.042,0.034
0.043,0.036
0.044,0.034
0.045,0.036
0.042,0.032
0.045,0.036
0.040,0.033
0.041,0.034
0.042,0.037
0.043,0.036
0.039,0.038
0.042,0.038
0.037,0.037
0.040,0.040
0.038,0.043
0.041,0.040
0.037,0.045
0.039,0.042
0.039,0.045
0.041,0.042
0.044,0.044
0.040,0.042
0.047,0.042
0.041,0.037
0.045,0.038
0.043,0.036
0.042,0.039
0.042,0.038
0.044,0.040
0.043,0.042
0.045,0.041
0.043,0.043
0.043,0.041
0.043,0.043
0.045,0.043
0.041,0.040
0.044,0.041
0.044,0.039
0.047,0.038
0.046,0.040
0.047,0.036
0.045,0.037
0.047,0.034
0.045,0.034
0.045,0.036
0.048,0.035
0.045,0.034
0.047,0.029
0.044,0.031
0.044,0.031
0.043,0.031
0.044,0.029
0.047,0.029
0.045,0.030
0.047,0.028
0.048,0.027
0.047,0.026
0.047,0.025
0.045,0.023
0.046,0.025
0.048,0.023
0.046,0.023
0.048,0.021
0.046,0.023
0.049,0.020
0.047,0.018
0.050,0.016
0.049,0.016
0.050,0.014
0.048,0.014
0.050,0.011
0.046,0.010
0.047,0.009
0.048,0.010
0.049,0.007
0.046,0.010
0.046,0.008
0.048,0.010
0.047,0.007
0.047,0.005
0.045,0.003
0.046,0.009
0.046,0.004
0.045,0.006
0.046,0.003
0.046,0.005
0.045,0.002
0.047,0.004
0.046,0.001
0.046,0.001
0.045,-0.002
0.050,-0.001
0.048,-0.003
0.048,-0.003
0.047,-0.001
0.049,-0.002
0.046,0.002
0.047,-0.001
0.046,0.002
0.045,-0.006
0.046,-0.005
0.044,-0.007
0.047,-0.004
0.046,-0.006
0.047,-0.004
0.043,-0.007
0.047,-0.005
0.046,-0.005
0.049,-0.008
0.048,-0.005
0.049,-0.007
0.046,-0.004
0.049,-0.005
0.045,-0.004
0.044,-0.006
0.045,-0.004
0.044,-0.003
0.046,-0.001
0.042,-0.003
0.045,-0.001
0.044,-0.003
0.048,0.000
0.045,-0.003
0.044,-0.001
0.045,0.001
0.044,0.001
0.044,0.004
0.044,0.004
0.042,0.004
0.043,0.007
0.042,0.007
0.043,0.008
0.045,0.009
0.043,0.007
0.043,0.010
0.042,0.009
0.043,0.011
0.042,0.008
0.043,0.010
0.043,0.011
0.047,0.011
0.044,0.010
0.043,0.011
0.045,0.012
0.046,0.012
0.043,0.013
0.045,0.012
0.045,0.015
0.046,0.016
0.046,0.017
0.045,0.017
0.045,0.019
0.045,0.022
0.043,0.023
0.043,0.025
0.043,0.025
0.041,0.026
0.043,0.026
0.046,0.027
0.047,0.027
0.046,0.026
0.041,0.028
0.042,0.030
0.041,0.030
0.044,0.030
0.042,0.030
0.041,0.032
0.042,0.032
0.044,0.033
0.046,0.033
0.045,0.036
0.044,0.035
0.044,0.036
0.043,0.034
0.046,0.032
0.041,0.036
0.043,0.036
0.041,0.040
0.043,0.039
0.042,0.042
0.042,0.039
0.043,0.043
0.042,0.041
0.046,0.041
0.046,0.042
0.048,0.043
0.049,0.043
0.048,0.042
0.049,0.044
0.048,0.043
0.047,0.041
0.047,0.039
0.045,0.043
0.045,0.041
0.044,0.044
0.044,0.044
0.046,0.046
0.044,0.041
0.046,0.045
0.044,0.043
0.047,0.042
0.045,0.042
0.047,0.040
0.048,0.037
0.047,0.037
0.047,0.038
0.047,0.039
0.050,0.041
0.050,0.040
0.048,0.041
0.050,0.038
0.045,0.036
0.047,0.035
0.047,0.036
0.048,0.033
0.049,0.036
0.048,0.032
0.048,0.032
0.051,0.028
0.051,0.029
0.051,0.032
0.050,0.030
0.049,0.034
0.047,0.026
0.049,0.031
0.047,0.024
0.049,0.025
0.047,0.025
0.046,0.026
0.047,0.023
0.049,0.024
0.049,0.021
0.048,0.023
0.054,0.019
0.050,0.017
0.052,0.014
0.048,0.017
0.049,0.013
0.047,0.012
0.049,0.010
0.048,0.011
0.049,0.010
0.047,0.010
0.049,0.008
0.050,0.010
0.053,0.006
0.050,0.006
0.051,0.002
0.051,0.006
0.050,0.002
0.049,0.006
0.049,0.004
0.049,0.004
0.050,0.000
0.051,-0.000
0.050,-0.000
0.053,-0.001
0.049,-0.003
0.050,0.001
0.049,-0.001
0.050,0.001
0.050,0.000
0.050,-0.002
0.049,-0.001
0.051,-0.005
0.048,-0.004
0.050,-0.007
0.048,-0.004
0.048,-0.007
0.049,-0.005
0.047,-0.008
0.051,-0.003
0.050,-0.005
0.054,-0.004
0.049,-0.006
0.053,-0.003
0.048,-0.004
0.050,-0.006
0.047,-0.003
0.048,-0.003
0.045,-0.003
0.047,-0.004
0.044,-0.004
0.046,-0.003
0.045,-0.001
0.044,-0.003
0.045,0.001
0.043,-0.003
0.047,0.001
0.044,-0.002
0.049,0.000
0.045,-0.001
0.045,0.001
0.048,0.001
0.048,0.004
0.046,0.005
0.046,0.005
0.044,0.006
0.046,0.006
0.044,0.008
0.045,0.007
0.041,0.008
0.045,0.007
0.043,0.010
0.043,0.009
0.045,0.011
0.043,0.008
0.045,0.015
0.046,0.013
0.045,0.015
0.043,0.011
0.045,0.015
0.043,0.015
0.047,0.016
0.046,0.012
0.046,0.015
0.043,0.017
0.044,0.021
0.040,0.023
0.042,0.026
0.039,0.024
0.040,0.028
0.041,0.026
0.043,0.028
0.040,0.029
0.041,0.031
0.042,0.032
0.042,0.030
0.042,0.032
0.042,0.032
0.041,0.031
0.038,0.032
0.044,0.035
0.044,0.035
0.045,0.033
0.045,0.036
0.042,0.033
0.045,0.036
0.045,0.036
0.046,0.035
0.046,0.036
0.045,0.036
0.047,0.036
0.046,0.034
0.045,0.039
0.046,0.037
0.044,0.038
0.043,0.038
0.046,0.041
0.044,0.043
0.045,0.042
0.045,0.045
0.046,0.043
0.045,0.042
0.046,0.042
0.045,0.043
0.045,0.042
0.046,0.037
0.048,0.039
0.049,0.040
0.050,0.042
0.049,0.045
0.043,0.042
0.044,0.047
0.045,0.046
0.044,0.045
0.043,0.044
0.044,0.044
0.045,0.041
0.046,0.043
0.046,0.041
0.049,0.042
0.047,0.042
0.049,0.040
0.048,0.041
0.048,0.037
0.048,0.041
0.048,0.036
0.047,0.036
0.048,0.035
0.044,0.036
0.045,0.036
0.047,0.036
0.046,0.034
0.050,0.032
0.049,0.033
0.049,0.030
0.050,0.030
0.050,0.030
0.049,0.028
0.047,0.028
0.048,0.026
0.050,0.026
0.048,0.027
0.050,0.025
0.052,0.027
0.050,0.023
0.050,0.024
0.049,0.019
0.048,0.021
0.048,0.018
0.049,0.018
0.049,0.015
0.050,0.012
0.052,0.010
0.050,0.010
0.050,0.012
0.047,0.012
0.051,0.009
0.047,0.012
0.047,0.010
0.049,0.012
0.050,0.009
0.050,0.009
0.051,0.007
0.053,0.005
0.052,0.003
0.050,0.004
0.050,-0.001
0.047,0.003
0.049,0.004
0.047,0.002
0.048,-0.003
0.050,0.001
0.048,-0.003
0.051,0.001
0.051,0.001
0.051,0.001
0.050,-0.001
0.053,-0.003
0.052,-0.002
0.052,-0.004
0.050,-0.002
0.049,-0.004
0.046,-0.005
0.046,-0.004
0.044,-0.005
0.047,-0.004
0.047,-0.004
0.046,-0.006
0.050,-0.002
0.049,-0.004
0.049,-0.002
0.048,-0.004
0.047,-0.003
0.044,-0.004
0.046,-0.004
0.045,-0.003
0.047,-0.003
0.044,-0.001
0.044,-0.000
0.045,-0.001
0.045,-0.003
0.047,-0.002
0.047,-0.002
0.046,-0.002
0.049,-0.001
0.046,0.000
0.048,-0.000
0.047,0.002
0.047,0.004
0.047,0.003
0.045,0.006
0.049,0.001
0.044,0.006
0.046,0.005
0.044,0.009
0.046,0.006
0.045,0.009
0.045,0.005
0.044,0.009
0.043,0.010
0.045,0.008
0.045,0.010
0.047,0.009
0.045,0.010
0.045,0.012
0.046,0.012
0.045,0.012
0.043,0.012
0.045,0.015
0.045,0.016
0.044,0.020
0.043,0.019
0.045,0.023
0.042,0.020
0.043,0.024
0.043,0.025
0.044,0.026
0.045,0.025
0.043,0.027
0.046,0.026
0.046,0.031
0.043,0.029
0.043,0.030
0.044,0.027
0.046,0.029
0.045,0.028
0.047,0.032
0.045,0.032
0.049,0.032
0.045,0.035
0.045,0.036
0.046,0.033
0.045,0.033
0.048,0.033
0.047,0.033
0.049,0.034
0.048,0.032
0.046,0.033
0.046,0.032
0.045,0.036
0.043,0.036
0.044,0.043
0.041,0.043
0.045,0.043
0.044,0.043
0.044,0.042
0.046,0.041
0.044,0.042
0.045,0.041
0.045,0.042
0.047,0.040
0.045,0.041
0.048,0.039
0.047,0.041
0.046,0.041
0.047,0.041
0.045,0.045
0.046,0.041
0.045,0.043
0.045,0.041
0.045,0.045
0.046,0.043
0.047,0.045
0.044,0.040
0.049,0.043
0.049,0.039
0.050,0.039
0.050,0.039
0.049,0.037
0.048,0.037
0.050,0.037
0.051,0.037
0.048,0.037
0.049,0.037
0.049,0.036
0.047,0.037
0.049,0.034
0.050,0.032
0.049,0.031
0.052,0.031
0.049,0.030
0.054,0.030
0.050,0.028
0.050,0.026
0.049,0.028
0.045,0.023
0.047,0.030
0.049,0.024
0.050,0.026
0.052,0.026
0.051,0.027
0.052,0.024
0.051,0.024
0.050,0.023
0.050,0.023
0.051,0.020
0.052,0.021
0.051,0.011
0.051,0.015
0.050,0.010
0.052,0.011
0.051,0.010
0.053,0.009
0.050,0.010
0.052,0.008
0.052,0.006
0.051,0.005
0.055,0.005
0.052,0.003
0.053,0.003
0.051,0.006
0.054,0.003
0.050,0.004
0.052,0.002
0.049,-0.001
0.050,0.000
0.051,0.000
0.051,-0.002
0.051,-0.001
0.052,-0.001
0.052,-0.003
0.053,-0.004
0.052,-0.003
0.051,-0.005
0.052,-0.005
0.053,-0.006
0.053,-0.006
0.051,-0.004
0.050,-0.006
0.046,-0.005
0.050,-0.007
0.048,-0.006
0.050,-0.008
0.046,-0.007
0.051,-0.005
0.050,-0.006
0.051,-0.004
0.051,-0.005
0.051,-0.006
0.050,-0.005
0.054,-0.007
0.051,-0.009
0.052,-0.004
0.048,-0.003
0.049,-0.003
0.049,-0.003
0.046,-0.002
0.047,-0.001
0.047,0.000
0.046,-0.003
0.047,-0.000
0.046,-0.003
0.047,-0.003
0.047,0.001
0.048,0.001
0.046,0.004
0.049,0.001
0.047,0.006
0.047,0.004
0.047,0.006
0.045,0.006
0.045,0.008
0.042,0.008
0.043,0.008
0.043,0.009
0.041,0.009
0.042,0.009
0.044,0.012
0.045,0.009
0.045,0.015
0.046,0.012
0.044,0.014
0.045,0.012
0.043,0.011
0.045,0.012
0.045,0.015
0.043,0.016
0.044,0.017
0.042,0.019
0.041,0.020
0.042,0.021
0.041,0.025
0.040,0.024
0.042,0.027
0.043,0.025
0.040,0.025
0.040,0.026
0.045,0.029
0.043,0.027
0.044,0.028
0.042,0.028
0.045,0.028
0.043,0.030
0.042,0.032
0.039,0.032
0.044,0.034
0.040,0.031
0.045,0.035
0.041,0.031
0.045,0.034
0.045,0.032
0.046,0.033
0.043,0.033
0.045,0.034
0.040,0.037
0.042,0.034
0.039,0.036
0.039,0.037
0.038,0.038
0.040,0.040
0.039,0.042
0.039,0.039
0.044,0.043
0.041,0.041
0.045,0.043
0.043,0.042
0.046,0.040
0.043,0.040
0.044,0.040
0.043,0.039
0.044,0.038
0.041,0.040
-0.030,0.007
-0.039,0.015
-0.038,0.018
-0.038,0.024
-0.029,0.029
-0.020,0.030
-0.017,0.030
-0.012,0.032
0.065,0.033
0.348,0.028
1.174,0.009
2.630,-0.203
4.003,-0.692
4.517,-1.275
3.747,-1.358
1.944,-0.279
0.229,1.738
-1.104,3.537
-2.053,4.511
-2.605,5.037
-2.718,4.116
-2.585,1.656
-2.219,-1.086
-1.854,-3.190
-1.528,-4.283
-1.206,-4.122
-0.828,-2.912
-0.411,-1.551
-0.038,-0.660
0.212,-0.235
0.334,-0.090
0.348,-0.053
0.310,-0.052
0.255,-0.045
0.205,-0.045
0.161,-0.039
0.122,-0.026
0.088,-0.020
0.064,-0.008
0.043,-0.001
0.023,0.011
0.003,0.022
-0.011,0.025
-0.006,0.028
0.009,0.036
0.030,0.016
0.045,-0.036
0.058,-0.064
0.072,-0.067
0.079,-0.054
0.086,-0.048
0.087,-0.038
0.085,-0.036
0.081,-0.040
0.078,-0.038
0.075,-0.035
0.063,-0.031
0.058,-0.030
0.051,-0.027
0.047,-0.028
0.044,-0.027
0.041,-0.024
0.042,-0.027
0.042,-0.024
0.044,-0.028
0.046,-0.029
0.048,-0.031
0.051,-0.033
0.049,-0.035
0.052,-0.035
0.049,-0.038
0.048,-0.036
0.048,-0.036
0.046,-0.036
0.046,-0.036
0.043,-0.035
0.045,-0.033
0.044,-0.033
0.043,-0.030
0.047,-0.029
0.044,-0.025
0.047,-0.029
0.047,-0.029
0.045,-0.030
0.048,-0.025
0.044,-0.025
0.048,-0.023
0.045,-0.025
0.048,-0.024
0.048,-0.023
0.047,-0.024
0.045,-0.021
0.044,-0.022
0.047,-0.018
0.046,-0.016
0.044,-0.016
0.045,-0.016
0.046,-0.010
0.046,-0.014
0.045,-0.009
0.047,-0.014
0.045,-0.010
0.046,-0.009
0.045,-0.005
0.043,-0.007
0.045,-0.007
0.043,-0.006
0.047,-0.005
0.043,-0.004
0.046,-0.002
0.044,-0.004
0.047,-0.002
0.048,0.002
0.046,0.001
0.046,0.003
0.043,0.003
0.046,0.007
0.042,0.004
0.047,0.008
0.045,0.008
0.047,0.011
0.045,0.010
0.046,0.011
0.044,0.011
0.043,0.013
0.042,0.017
0.042,0.019
0.043,0.023
0.043,0.021
0.045,0.025
0.040,0.023
0.043,0.023
0.041,0.023
0.043,0.023
0.040,0.023
0.043,0.028
0.040,0.027
0.043,0.031
0.038,0.029
0.042,0.032
0.042,0.032
0.043,0.030
0.041,0.034
0.044,0.030
0.042,0.035
0.044,0.032
0.044,0.037
0.042,0.035
0.039,0.037
0.039,0.037
0.040,0.038
0.039,0.037
0.041,0.038
0.040,0.040
0.042,0.040
0.040,0.037
0.043,0.039
0.045,0.039
0.045,0.042
0.042,0.041
0.043,0.039
0.039,0.041
0.041,0.038
0.040,0.042
0.039,0.039
0.042,0.045
0.039,0.044
0.038,0.046
0.040,0.044
0.041,0.046
0.042,0.044
0.043,0.047
0.039,0.041
0.045,0.046
0.043,0.043
0.045,0.042
0.042,0.044
0.046,0.042
0.046,0.043
0.045,0.041
0.047,0.042
0.045,0.038
0.047,0.041
0.048,0.035
0.047,0.039
0.047,0.041
0.047,0.041
0.047,0.037
0.049,0.037
0.049,0.034
0.051,0.035
0.049,0.035
0.048,0.032
0.050,0.030
0.049,0.028
0.049,0.030
0.052,0.028
0.052,0.031
0.051,0.027
0.049,0.025
0.049,0.024
0.050,0.026
0.050,0.022
0.050,0.022
0.051,0.023
0.051,0.022
0.052,0.021
0.052,0.021
0.053,0.017
0.055,0.015
0.055,0.013
0.052,0.017
0.052,0.011
0.050,0.014
0.053,0.010
0.053,0.012
0.056,0.009
0.054,0.009
0.057,0.010
0.055,0.011
0.055,0.008
0.053,0.010
0.057,0.006
0.051,0.002
0.056,0.003
0.056,0.004
0.056,0.001
0.055,0.001
0.056,-0.000
0.056,-0.001
0.055,0.000
0.056,0.002
0.056,-0.001
0.053,-0.003
0.057,-0.002
0.056,-0.003
0.057,-0.003
0.056,-0.004
0.054,-0.003
0.054,-0.001
0.052,-0.003
0.052,-0.003
0.053,-0.005
0.053,-0.003
0.056,-0.003
0.056,-0.002
0.057,-0.003
0.057,-0.005
0.055,-0.005
0.055,-0.003
0.055,-0.005
0.052,-0.002
0.054,-0.003
0.052,-0.003
0.054,0.000
0.052,-0.002
0.051,-0.002
0.053,-0.004
0.054,-0.003
0.053,-0.001
0.054,-0.001
0.054,0.001
0.054,0.002
0.052,0.001
0.052,0.004
0.051,0.004
0.052,0.004
0.053,0.001
0.053,0.005
0.052,0.004
0.051,0.006
0.051,0.005
0.049,0.006
0.048,0.006
0.049,0.006
0.047,0.006
0.049,0.007
0.049,0.009
0.051,0.008
0.051,0.009
0.051,0.010
0.051,0.013
0.049,0.011
0.049,0.013
0.049,0.011
0.050,0.015
0.051,0.013
0.048,0.017
0.047,0.016
0.049,0.015
0.046,0.019
0.047,0.019
0.046,0.022
0.048,0.023
0.050,0.024
0.049,0.023
0.052,0.026
0.052,0.024
0.051,0.024
0.049,0.023
0.052,0.026
0.048,0.025
0.051,0.027
0.047,0.025
0.050,0.029
0.046,0.027
0.049,0.029
0.044,0.031
0.046,0.030
0.049,0.034
0.048,0.034
0.048,0.033
0.046,0.035
0.047,0.035
0.046,0.034
0.045,0.035
0.046,0.032
0.047,0.036
0.046,0.034
0.045,0.038
0.043,0.033
0.047,0.037
0.046,0.036
0.050,0.039
0.049,0.040
0.052,0.041
0.049,0.043
0.049,0.036
0.049,0.044
0.048,0.038
0.046,0.042
0.044,0.040
0.047,0.043
0.044,0.042
0.046,0.042
0.045,0.042
0.047,0.042
0.049,0.040
0.049,0.043
0.049,0.041
0.054,0.044
0.050,0.040
0.053,0.039
0.047,0.039
0.049,0.036
0.048,0.041
0.049,0.037
0.046,0.041
0.047,0.037
0.049,0.038
0.049,0.038
0.050,0.036
0.048,0.032
0.047,0.034
0.047,0.031
0.050,0.033
0.050,0.029
0.051,0.029
0.049,0.030
0.052,0.029
0.049,0.032
0.050,0.027
0.049,0.029
0.049,0.027
0.049,0.026
0.047,0.024
0.051,0.026
0.048,0.024
0.050,0.024
0.046,0.022
0.051,0.023
0.047,0.019
0.051,0.022
0.053,0.018
0.054,0.017
0.052,0.013
0.053,0.015
0.050,0.011
0.050,0.009
0.048,0.009
0.052,0.007
0.047,0.008
0.051,0.007
0.048,0.007
0.048,0.007
0.050,0.005
0.048,0.009
0.050,0.007
0.050,0.005
0.051,0.003
0.051,0.002
0.049,0.000
0.050,-0.003
0.048,-0.003
0.047,-0.001
0.049,-0.000
0.049,-0.000
0.049,0.000
0.049,-0.002
0.050,0.000
0.052,-0.003
0.049,-0.001
0.053,-0.002
0.052,-0.001
0.052,-0.003
0.049,-0.004
0.050,-0.003
0.053,-0.006
0.051,-0.004
0.048,-0.007
0.050,-0.002
0.047,0.000
0.047,0.000
0.049,-0.001
0.047,-0.002
0.047,-0.001
0.045,-0.003
0.048,-0.005
0.045,-0.005
0.046,-0.004
0.044,-0.004
0.046,-0.003
0.046,0.000
0.047,-0.001
0.047,-0.001
0.047,0.000
0.045,-0.002
0.047,0.001
0.044,0.001
0.046,0.003
0.042,0.003
0.042,0.008
0.044,0.003
0.041,0.007
0.043,0.006
0.042,0.005
0.045,0.005
0.046,0.006
0.047,0.007
0.046,0.009
0.046,0.008
0.046,0.011
0.045,0.008
0.046,0.011
0.045,0.012
0.046,0.014
0.045,0.015
0.050,0.014
0.045,0.014
0.049,0.013
0.044,0.017
0.046,0.018
0.043,0.017
0.042,0.016
0.042,0.017
0.044,0.017
0.041,0.017
0.045,0.021
0.039,0.023
0.040,0.025
0.038,0.028
0.041,0.027
0.040,0.028
0.042,0.028
0.041,0.028
0.046,0.030
0.043,0.029
0.041,0.031
0.043,0.028
0.044,0.032
0.042,0.030
0.043,0.032
0.043,0.032
0.042,0.031
0.042,0.037
0.042,0.036
0.045,0.039
0.042,0.037
0.043,0.039
0.042,0.037
0.040,0.036
0.043,0.036
0.040,0.036
0.041,0.037
0.041,0.037
0.039,0.038
0.041,0.042
0.040,0.043
0.042,0.042
0.043,0.044
0.046,0.042
0.047,0.044
0.045,0.043
0.045,0.045
0.041,0.042
0.040,0.044
0.043,0.043
0.041,0.042
0.044,0.043
0.042,0.042
0.042,0.041
0.041,0.045
0.043,0.042
0.043,0.044
0.044,0.042
0.044,0.046
0.046,0.043
0.049,0.041
0.047,0.042
0.049,0.040
0.049,0.043
0.045,0.039
0.048,0.041
0.047,0.041
0.046,0.039
0.046,0.039
0.045,0.038
0.046,0.037
0.047,0.038
0.050,0.033
0.049,0.034
0.047,0.032
0.049,0.030
0.049,0.033
0.048,0.028
0.045,0.032
0.048,0.029
0.045,0.031
0.047,0.030
0.047,0.026
0.042,0.026
0.048,0.027
0.044,0.029
0.046,0.027
0.047,0.023
0.046,0.023
0.048,0.022
0.049,0.022
0.047,0.020
0.049,0.022
0.049,0.019
0.049,0.017
0.050,0.015
0.050,0.013
0.049,0.011
0.047,0.010
0.048,0.009
0.049,0.009
0.049,0.007
0.049,0.010
0.048,0.008
0.047,0.009
0.045,0.006
0.048,0.006
0.047,0.004
0.049,0.003
0.048,0.001
0.049,0.002
0.048,-0.001
0.051,0.003
0.049,-0.003
0.050,-0.002
0.052,-0.002
0.049,-0.002
0.048,0.003
0.049,0.000
0.050,0.004
0.049,-0.002
0.048,0.001
0.047,-0.001
0.047,-0.002
0.046,-0.005
0.049,-0.002
0.046,-0.006
0.049,-0.005
0.049,-0.005
0.049,-0.003
0.049,-0.007
0.049,-0.004
0.048,-0.001
0.049,-0.004
0.049,0.001
0.048,-0.003
0.044,-0.003
0.043,-0.004
0.043,-0.001
0.041,-0.004
0.045,-0.003
0.043,-0.003
0.047,-0.006
0.044,-0.003
0.047,0.001
0.047,-0.001
0.046,0.002
0.043,0.003
0.046,0.002
0.044,0.002
0.045,0.002
0.045,0.005
0.045,0.003
0.043,0.008
0.042,0.004
0.042,0.007
0.045,0.008
0.043,0.010
0.044,0.008
0.046,0.007
0.046,0.006
0.049,0.010
0.046,0.009
0.049,0.010
0.046,0.012
0.048,0.011
0.044,0.013
0.046,0.012
0.044,0.015
0.047,0.013
0.046,0.015
0.047,0.014
0.047,0.016
0.045,0.015
0.045,0.018
0.045,0.017
0.043,0.020
0.040,0.017
0.043,0.023
0.044,0.023
0.045,0.026
0.045,0.026
0.045,0.026
0.047,0.027
0.047,0.024
0.044,0.026
0.044,0.026
0.045,0.031
0.045,0.030
0.046,0.033
0.043,0.030
0.046,0.033
0.045,0.034
0.045,0.034
0.043,0.037
0.044,0.039
0.044,0.041
0.045,0.038
0.043,0.039
0.047,0.039
0.045,0.038
0.048,0.036
0.045,0.037
0.044,0.036
0.045,0.038
0.045,0.036
0.045,0.040
0.046,0.041
0.047,0.041
0.043,0.042
0.045,0.040
0.045,0.042
0.045,0.040
0.042,0.042
0.043,0.041
0.041,0.043
0.046,0.043
0.039,0.041
0.045,0.042
0.042,0.044
0.043,0.043
0.046,0.043
0.044,0.042
0.047,0.042
0.044,0.041
0.045,0.042
0.045,0.044
0.048,0.040
0.045,0.042
0.048,0.043
0.044,0.043
0.050,0.042
0.045,0.038
0.046,0.038
0.048,0.039
0.047,0.036
0.048,0.037
0.049,0.034
0.048,0.035
0.045,0.035
0.047,0.034
0.049,0.034
0.050,0.032
0.046,0.033
0.048,0.032
0.046,0.031
0.051,0.029
0.045,0.031
0.049,0.030
0.046,0.028
0.047,0.028
0.048,0.025
0.048,0.024
0.049,0.023
0.047,0.023
0.050,0.026
0.047,0.023
0.046,0.023
0.048,0.018
0.050,0.019
0.046,0.019
0.049,0.019
0.048,0.017
0.047,0.016
0.049,0.010
0.048,0.011
0.048,0.009
0.049,0.011
0.045,0.010
0.048,0.010
0.047,0.011
0.049,0.008
0.047,0.009
0.049,0.006
0.049,0.006
0.052,0.006
0.049,0.004
0.049,0.003
0.048,0.002
0.046,0.002
0.048,0.004
0.046,0.004
0.047,0.004
0.044,0.003
0.045,0.004
0.047,0.002
0.043,0.004
0.048,0.001
0.049,0.002
0.047,-0.003
0.050,-0.004
0.045,-0.004
0.050,-0.005
0.047,-0.005
0.047,-0.003
0.050,-0.002
0.049,-0.003
0.048,-0.003
0.048,0.000
0.046,-0.001
0.048,-0.002
0.048,0.001
0.047,-0.003
0.048,0.000
0.047,-0.001
0.046,0.000
0.046,0.000
0.046,0.000
0.045,-0.005
0.046,0.001
0.045,-0.002
0.044,-0.001
0.046,0.000
0.044,0.000
0.045,0.004
0.048,0.002
0.046,0.007
0.043,0.002
0.043,0.004
0.045,0.006
0.043,0.006
0.043,0.004
0.042,0.006
0.043,0.009
0.043,0.008
0.045,0.006
0.043,0.007
0.045,0.004
0.046,0.007
0.047,0.008
0.045,0.010
0.045,0.011
0.046,0.010
0.045,0.012
0.044,0.012
0.043,0.017
0.046,0.012
0.046,0.015
0.045,0.013
0.045,0.014
0.040,0.012
0.042,0.016
0.043,0.015
0.042,0.020
0.043,0.020
0.041,0.024
0.042,0.023
0.041,0.023
0.042,0.027
0.042,0.026
0.045,0.026
0.042,0.025
0.043,0.027
0.042,0.028
0.043,0.028
0.045,0.029
0.043,0.031
0.044,0.031
0.040,0.034
0.042,0.035
0.040,0.037
0.041,0.039
0.039,0.036
0.040,0.039
0.041,0.036
0.042,0.039
0.043,0.040
0.045,0.039
0.043,0.038
0.043,0.041
0.042,0.039
0.044,0.040
0.043,0.041
0.043,0.042
0.042,0.040
0.044,0.041
0.043,0.042
0.043,0.041
0.044,0.045
0.042,0.043
0.042,0.046
0.043,0.044
0.042,0.045
0.041,0.043
0.038,0.043
0.038,0.043
0.041,0.046
0.042,0.044
0.042,0.048
0.041,0.045
0.044,0.046
0.041,0.047
0.045,0.046
0.045,0.046
0.043,0.044
0.044,0.044
0.043,0.041
0.044,0.043
0.043,0.042
0.042,0.044
0.043,0.044
0.045,0.043
0.045,0.041
0.048,0.042
0.049,0.038
0.050,0.038
0.048,0.037
0.051,0.035
0.047,0.035
0.048,0.032
0.049,0.036
0.048,0.034
0.049,0.036
0.049,0.033
0.048,0.034
0.047,0.031
0.046,0.030
0.047,0.030
0.049,0.031
0.049,0.030
0.049,0.029
0.047,0.026
0.049,0.025
0.046,0.022
0.049,0.022
0.047,0.023
0.049,0.020
0.049,0.018
0.050,0.017
0.050,0.017
0.049,0.014
0.047,0.011
0.047,0.013
0.049,0.013
0.046,0.012
0.047,0.011
0.047,0.011
0.048,0.010
0.052,0.010
0.049,0.008
0.049,0.009
0.047,0.006
0.048,0.008
0.050,0.004
0.049,0.006
0.049,0.002
0.048,0.000
0.046,-0.001
0.049,0.001
0.047,0.003
0.048,0.002
0.049,0.003
0.048,0.001
0.046,0.004
0.049,0.002
0.047,0.003
0.047,-0.000
0.049,-0.002
0.048,-0.003
0.048,-0.003
0.049,-0.002
0.049,-0.005
0.050,-0.005
0.047,-0.005
0.048,-0.002
0.046,-0.003
0.048,-0.001
0.048,-0.001
0.045,-0.001
0.050,0.001
0.046,-0.001
0.046,-0.005
0.051,-0.003
0.047,-0.006
0.049,-0.003
0.048,-0.002
0.049,-0.003
0.047,0.000
0.047,-0.003
0.050,0.001
0.049,0.000
0.045,0.003
0.045,0.000
0.045,0.003
0.044,0.005
0.044,0.005
0.044,0.005
0.045,0.007
0.044,0.007
0.046,0.007
0.046,0.005
0.045,0.009
0.047,0.008
0.046,0.008
0.047,0.006
0.047,0.008
0.046,0.011
0.046,0.009
0.047,0.013
0.045,0.012
0.045,0.018
0.045,0.013
0.046,0.019
0.047,0.019
0.045,0.018
0.046,0.017
0.041,0.017
0.045,0.018
0.042,0.020
0.044,0.020
0.043,0.023
0.043,0.023
0.044,0.025
0.044,0.025
0.045,0.027
0.046,0.028
0.047,0.029
0.046,0.026
0.046,0.026
0.044,0.031
0.043,0.029
0.044,0.031
0.043,0.032
0.043,0.034
0.042,0.034
0.045,0.035
0.047,0.036
0.043,0.035
0.044,0.038
0.043,0.036
0.043,0.040
0.043,0.039
0.043,0.041
0.042,0.041
0.042,0.044
0.045,0.041
0.042,0.038
0.045,0.036
0.045,0.040
0.048,0.041
0.047,0.042
0.047,0.044
0.046,0.042
0.046,0.044
0.045,0.042
0.046,0.047
0.044,0.041
0.047,0.044
0.045,0.043
0.045,0.045
0.044,0.043
0.044,0.044
0.044,0.044
0.041,0.046
0.043,0.047
0.043,0.046
0.045,0.046
0.044,0.046
0.045,0.047
0.044,0.046
0.047,0.044
0.047,0.044
0.046,0.045
0.047,0.043
0.045,0.043
0.044,0.038
0.048,0.044
0.048,0.042
0.044,0.043
0.044,0.043
0.042,0.042
0.045,0.041
0.047,0.040
0.046,0.036
0.050,0.037
0.049,0.035
0.047,0.035
0.048,0.034
0.050,0.034
0.049,0.036
0.049,0.032
0.047,0.035
0.048,0.030
0.049,0.030
0.050,0.028
0.047,0.029
0.045,0.028
0.045,0.028
0.047,0.028
0.044,0.027
0.048,0.023
0.043,0.025
0.046,0.024
0.045,0.021
0.046,0.017
0.045,0.017
0.045,0.016
0.046,0.016
0.047,0.012
0.045,0.012
0.047,0.011
0.045,0.008
0.045,0.007
0.047,0.010
0.049,0.010
0.045,0.010
0.050,0.008
0.048,0.008
0.049,0.001
0.046,0.003
0.047,-0.000
0.048,0.003
0.048,0.002
0.050,0.004
0.045,-0.001
0.046,0.002
0.045,0.000
0.048,0.000
0.046,0.001
0.049,-0.000
0.046,-0.001
0.048,-0.003
0.046,-0.003
0.048,-0.002
0.047,-0.003
0.048,-0.005
0.049,-0.005
0.047,-0.008
0.047,-0.006
0.048,-0.005
0.048,-0.005
0.046,-0.003
0.047,-0.004
0.046,-0.003
0.045,-0.003
0.045,-0.001
0.048,-0.003
0.048,-0.000
0.048,0.000
0.044,-0.003
0.046,-0.002
0.044,0.001
0.043,0.000
0.041,0.002
0.045,0.001
0.046,0.002
0.045,-0.002
0.045,0.001
0.045,0.002
0.048,0.002
0.045,0.004
0.048,0.001
0.046,0.005
0.047,0.003
0.046,0.008
0.044,0.008
0.043,0.006
0.043,0.009
0.045,0.008
0.044,0.008
0.044,0.010
0.043,0.010
0.045,0.010
0.046,0.010
0.046,0.010
0.046,0.010
0.046,0.010
0.046,0.012
0.046,0.011
0.045,0.015
0.045,0.013
0.041,0.016
0.043,0.016
0.042,0.018
0.044,0.016
0.043,0.017
0.036,0.019
0.038,0.023
0.041,0.024
0.040,0.026
0.041,0.029
0.041,0.026
0.042,0.028
0.041,0.026
0.046,0.029
0.042,0.031
0.046,0.033
0.042,0.031
0.045,0.031
0.042,0.030
0.044,0.032
0.042,0.032
0.043,0.033
0.044,0.032
0.043,0.035
0.044,0.034
0.043,0.036
0.044,0.037
0.042,0.034
0.043,0.037
0.045,0.035
0.043,0.039
0.044,0.037
0.043,0.040
0.040,0.038
0.041,0.040
0.040,0.041
0.041,0.041
0.042,0.043
0.041,0.040
0.042,0.040
0.043,0.044
0.045,0.041
0.044,0.041
0.043,0.039
0.044,0.042
0.043,0.041
0.044,0.042
0.044,0.041
0.044,0.044
0.040,0.046
0.043,0.044
0.041,0.047
0.040,0.043
0.045,0.046
0.042,0.044
0.045,0.042
0.043,0.043
0.045,0.043
0.046,0.040
0.047,0.041
0.049,0.039
0.046,0.039
0.049,0.038
0.049,0.038
0.049,0.038
0.050,0.034
0.046,0.040
0.047,0.037
0.046,0.040
0.045,0.037
0.046,0.038
0.043,0.035
0.046,0.035
0.048,0.033
0.046,0.033
0.048,0.031
0.048,0.032
0.048,0.028
0.046,0.026
0.048,0.027
0.048,0.024
0.049,0.026
0.048,0.024
0.047,0.024
0.046,0.023
0.049,0.023
0.047,0.019
0.045,0.019
0.048,0.019
0.050,0.016
0.051,0.011
0.049,0.014
0.050,0.010
0.050,0.010
0.050,0.007
0.050,0.006
0.049,0.006
0.049,0.004
0.051,0.008
0.050,0.007
0.051,0.007
0.049,0.006
0.051,0.006
0.048,0.006
0.050,0.002
0.048,0.005
0.050,0.004
0.046,0.006
0.048,0.001
0.049,0.004
0.047,0.001
0.047,-0.002
0.044,-0.002
0.048,0.001
0.045,0.000
0.050,0.003
0.045,-0.004
0.048,-0.001
0.046,-0.003
0.051,-0.003
0.048,-0.002
0.048,-0.004
0.046,-0.001
0.046,-0.004
0.045,-0.003
0.047,-0.004
0.047,-0.001
0.045,-0.003
0.048,-0.002
0.045,-0.004
0.047,-0.004
0.045,-0.005
0.048,-0.005
0.049,-0.007
0.046,-0.006
0.048,-0.002
0.048,-0.001
0.047,-0.000
0.050,-0.002
0.045,0.000
0.046,0.002
0.043,0.001
0.045,-0.001
0.042,0.003
0.044,0.000
0.046,0.004
0.044,0.002
0.048,0.004
0.045,0.004
0.046,0.003
0.044,0.007
0.045,0.005
0.043,0.008
0.046,0.008
0.044,0.009
0.045,0.008
0.042,0.010
0.044,0.009
0.042,0.012
0.042,0.012
0.042,0.013
0.043,0.010
0.044,0.012
0.043,0.011
0.046,0.013
0.043,0.010
0.045,0.015
0.044,0.013
0.047,0.015
0.043,0.014
0.043,0.018
0.044,0.018
0.043,0.023
0.040,0.023
0.042,0.027
0.043,0.025
0.046,0.026
0.043,0.027
0.043,0.027
0.041,0.028
0.044,0.028
0.044,0.030
0.042,0.027
0.041,0.027
0.041,0.031
0.046,0.033
0.043,0.033
0.044,0.034
0.043,0.036
0.042,0.034
0.044,0.036
0.043,0.034
0.046,0.035
0.044,0.036
0.046,0.036
0.043,0.039
0.046,0.038
0.045,0.038
0.043,0.036
0.045,0.038
0.044,0.039
0.040,0.043
0.044,0.042
0.039,0.045
0.044,0.041
0.042,0.043
0.043,0.040
0.046,0.041
0.047,0.039
0.047,0.039
0.047,0.036
0.050,0.038
0.048,0.039
0.049,0.040
0.044,0.043
0.044,0.040
0.042,0.043
0.043,0.043
0.040,0.045
0.043,0.043
0.042,0.046
0.046,0.045
0.045,0.046
0.048,0.043
0.048,0.043
0.046,0.041
0.045,0.040
0.047,0.039
0.046,0.040
0.049,0.039
0.048,0.038
0.045,0.038
0.046,0.036
0.046,0.038
0.045,0.037
0.045,0.039
0.045,0.034
0.047,0.034
0.047,0.033
0.046,0.034
0.046,0.031
0.049,0.034
0.049,0.029
0.050,0.028
0.049,0.026
0.049,0.026
0.048,0.026
0.049,0.024
0.049,0.026
0.049,0.023
0.049,0.025
0.048,0.022
0.047,0.023
0.048,0.020
0.045,0.018
0.048,0.017
0.047,0.014
0.049,0.015
0.049,0.014
0.050,0.016
0.050,0.010
0.048,0.012
0.048,0.010
0.048,0.008
0.047,0.005
0.050,0.008
0.047,0.007
0.050,0.004
0.048,0.005
0.047,0.003
0.050,0.005
0.048,0.001
0.049,0.001
0.048,0.003
0.048,0.004
0.047,0.001
0.046,0.003
0.046,0.000
0.044,0.003
0.043,0.002
0.048,0.003
0.047,0.000
0.050,0.001
0.047,-0.003
0.050,-0.002
0.046,-0.002
0.048,-0.004
0.045,-0.003
0.047,-0.006
0.045,-0.002
0.046,-0.005
0.047,-0.003
0.045,-0.004
0.046,-0.003
0.044,-0.005
0.046,-0.004
0.045,-0.005
0.049,-0.004
0.047,-0.007
0.050,-0.006
0.045,-0.007
0.047,-0.005
0.045,-0.004
0.047,-0.007
0.047,-0.005
0.047,-0.005
0.048,-0.001
0.048,0.002
0.047,0.002
0.044,0.000
0.045,0.003
0.046,0.000
0.046,0.004
0.046,0.004
0.049,0.006
0.047,0.003
0.048,0.006
0.047,0.004
0.050,0.006
0.049,0.005
0.051,0.003
0.048,0.006
0.050,0.007
0.048,0.010
0.046,0.007
0.044,0.011
0.043,0.010
0.045,0.012
0.046,0.013
0.044,0.013
0.043,0.012
0.045,0.014
0.042,0.016
0.045,0.017
0.044,0.014
0.045,0.016
0.042,0.016
0.045,0.019
0.042,0.016
0.043,0.021
0.042,0.023
0.042,0.023
0.043,0.026
0.044,0.028
0.046,0.026
0.043,0.029
0.045,0.028
0.045,0.028
0.048,0.027
0.046,0.028
0.045,0.029
0.045,0.030
0.047,0.030
0.042,0.036
0.045,0.031
0.044,0.035
0.043,0.033
0.045,0.036
0.044,0.032
0.046,0.036
0.043,0.034
0.045,0.038
0.042,0.034
0.046,0.035
0.044,0.036
0.045,0.036
0.043,0.037
0.041,0.036
0.041,0.039
0.040,0.042
0.040,0.043
0.042,0.043
0.041,0.045
0.044,0.044
0.043,0.041
0.043,0.041
0.041,0.041
0.042,0.039
0.043,0.041
0.042,0.036
0.043,0.042
0.042,0.042
0.046,0.038
0.046,0.039
0.045,0.039
0.043,0.043
0.045,0.043
0.045,0.045
0.045,0.044
0.044,0.044
0.045,0.044
0.045,0.045
0.049,0.043
0.047,0.044
0.048,0.041
0.048,0.040
0.046,0.037
0.049,0.037
0.048,0.034
0.046,0.034
0.049,0.035
0.049,0.033
0.048,0.035
0.047,0.034
0.045,0.034
0.046,0.033
0.043,0.034
0.045,0.034
0.045,0.032
0.046,0.029
0.049,0.026
0.047,0.023
0.048,0.026
0.048,0.025
0.050,0.026
0.047,0.023
0.050,0.020
0.050,0.021
0.050,0.018
0.052,0.020
0.051,0.016
0.050,0.016
0.052,0.015
0.050,0.013
0.054,0.011
0.051,0.011
0.054,0.010
0.049,0.011
0.050,0.007
0.049,0.008
0.049,0.007
0.049,0.005
0.049,0.007
0.051,0.006
0.049,0.006
0.049,0.003
0.047,0.000
0.049,0.006
0.048,0.000
0.047,0.003
0.049,0.001
0.047,0.001
0.045,-0.000
0.048,0.003
0.047,0.000
0.047,0.002
0.047,0.000
0.045,0.002
0.044,-0.000
0.047,0.001
0.047,-0.003
0.050,-0.005
0.050,-0.004
0.051,-0.006
0.048,-0.003
0.050,-0.005
0.048,-0.002
0.046,-0.004
0.048,-0.004
0.047,-0.005
0.044,-0.005
0.045,-0.004
0.047,-0.003
0.046,-0.003
0.046,-0.003
0.048,-0.006
0.047,-0.005
0.047,-0.006
0.047,-0.006
0.047,-0.004
0.047,-0.006
0.045,-0.001
0.046,-0.005
0.046,-0.002
0.046,-0.003
0.045,-0.001
0.043,0.000
0.046,0.002
0.045,0.001
0.045,0.004
0.046,0.001
0.047,0.003
0.047,0.002
0.049,0.002
0.047,0.003
0.045,0.006
0.045,0.010
0.045,0.006
0.046,0.010
0.044,0.007
0.044,0.011
0.044,0.012
0.044,0.012
0.045,0.011
0.044,0.014
0.046,0.014
0.044,0.012
0.042,0.014
0.046,0.015
0.044,0.012
0.045,0.016
0.044,0.015
0.046,0.015
0.043,0.018
0.044,0.017
0.042,0.021
0.042,0.022
0.044,0.022
0.041,0.025
0.044,0.024
0.040,0.030
0.045,0.027
0.040,0.030
0.043,0.030
0.042,0.030
0.044,0.029
0.045,0.032
0.043,0.028
0.044,0.035
0.043,0.030
0.046,0.033
0.045,0.030
0.044,0.035
0.046,0.033
0.043,0.036
0.045,0.034
0.042,0.036
0.041,0.032
0.047,0.036
0.044,0.033
0.046,0.034
0.042,0.035
0.046,0.035
0.043,0.036
0.043,0.038
0.042,0.038
0.041,0.036
0.042,0.038
0.041,0.037
0.044,0.045
0.043,0.042
0.044,0.044
0.043,0.044
0.044,0.041
0.045,0.039
0.047,0.042
0.044,0.038
0.046,0.039
0.045,0.037
0.043,0.039
0.044,0.043
0.045,0.043
0.045,0.046
0.049,0.043
0.044,0.045
0.043,0.041
0.043,0.044
0.042,0.041
0.045,0.041
0.042,0.040
0.045,0.040
0.047,0.038
0.049,0.039
0.049,0.037
0.051,0.038
0.050,0.035
0.049,0.038
0.048,0.039
0.047,0.033
0.047,0.040
0.048,0.033
0.049,0.037
0.050,0.033
0.050,0.033
0.050,0.037
0.053,0.031
0.049,0.031
0.052,0.032
0.049,0.029
0.049,0.031
0.050,0.029
0.049,0.029
0.048,0.026
0.052,0.027
0.049,0.023
0.050,0.025
0.049,0.023
0.050,0.022
0.050,0.023
0.052,0.019
0.051,0.015
0.052,0.013
0.052,0.013
0.051,0.012
0.052,0.012
0.051,0.013
0.052,0.010
0.051,0.010
0.051,0.007
0.050,0.009
0.049,0.007
0.050,0.009
0.051,0.008
0.053,0.004
0.051,0.006
0.049,0.004
0.049,0.002
0.048,-0.001
0.047,0.003
0.046,0.000
0.048,0.000
0.045,-0.001
0.045,0.000
0.048,0.002
0.049,0.002
0.050,-0.001
0.050,0.001
0.050,-0.003
0.052,-0.001
0.051,-0.005
0.051,-0.004
0.049,-0.003
0.049,-0.005
0.048,-0.001
0.046,-0.005
0.047,0.000
0.050,-0.004
0.050,-0.003
0.049,-0.006
0.050,-0.003
0.049,-0.003
0.051,-0.003
0.048,-0.003
0.051,-0.005
0.050,-0.005
0.051,-0.004
0.049,-0.001
0.049,-0.002
0.049,0.001
0.047,-0.001
0.048,0.003
0.048,0.004
0.047,0.006
0.051,0.004
0.049,0.004
0.048,0.002
0.050,0.005
0.048,0.002
0.050,0.004
0.047,0.003
0.049,0.004
0.047,0.004
0.047,0.006
0.048,0.008
0.045,0.007
0.048,0.012
0.044,0.010
0.047,0.011
0.045,0.009
0.044,0.013
0.046,0.012
0.045,0.014
0.044,0.013
0.046,0.015
0.045,0.014
0.049,0.015
0.046,0.017
0.048,0.017
0.045,0.018
0.047,0.015
0.045,0.019
0.045,0.021
0.044,0.021
0.043,0.024
0.047,0.024
0.043,0.027
0.044,0.025
0.042,0.030
0.046,0.027
0.044,0.030
0.047,0.026
0.046,0.031
0.045,0.030
0.045,0.030
0.045,0.030
0.040,0.035
0.045,0.032
0.041,0.036
0.043,0.034
0.042,0.038
0.042,0.034
0.044,0.034
0.042,0.035
0.048,0.038
0.045,0.036
0.047,0.038
0.047,0.034
0.047,0.037
0.045,0.035
0.047,0.034
0.045,0.037
0.045,0.037
0.043,0.042
0.043,0.039
0.043,0.043
0.044,0.039
0.048,0.042
0.047,0.043
0.048,0.042
0.043,0.041
0.047,0.042
0.046,0.040
0.049,0.040
0.045,0.039
0.049,0.042
0.048,0.038
0.050,0.041
0.046,0.043
0.048,0.043
0.044,0.045
0.047,0.041
0.044,0.044
0.047,0.041
0.046,0.044
0.044,0.040
0.046,0.045
0.045,0.040
0.050,0.041
0.045,0.040
0.049,0.041
0.047,0.037
0.049,0.036
0.045,0.032
0.049,0.036
0.049,0.038
0.047,0.037
0.049,0.038
0.052,0.034
0.045,0.035
0.046,0.032
0.047,0.036
0.047,0.033
0.049,0.032
0.045,0.031
0.048,0.030
0.048,0.026
0.050,0.027
0.046,0.025
0.049,0.026
0.048,0.023
0.052,0.023
0.049,0.022
0.053,0.025
0.050,0.023
0.051,0.021
0.051,0.017
0.053,0.019
0.052,0.012
0.053,0.014
0.053,0.012
0.052,0.012
0.050,0.008
0.052,0.010
0.049,0.007
0.049,0.007
0.049,0.006
0.049,0.008
0.049,0.007
0.051,0.007
0.050,0.007
0.051,0.006
0.052,0.005
0.048,0.003
0.050,0.004
0.047,0.001
0.046,0.003
0.049,0.003
0.048,0.001
0.050,0.000
0.045,0.003
0.047,0.002
0.047,0.001
0.047,-0.001
0.047,0.003
0.049,-0.003
0.050,-0.003
0.049,-0.004
0.051,-0.005
0.049,-0.001
0.047,-0.005
0.046,-0.003
0.045,-0.002
0.045,-0.002
0.045,-0.005
0.046,0.000
0.045,-0.001
0.043,-0.000
0.047,-0.003
0.048,-0.006
0.047,-0.007
0.049,-0.003
0.047,-0.006
0.046,-0.004
0.046,-0.001
0.045,-0.003
0.044,0.001
0.044,-0.002
0.045,0.003
0.045,-0.003
0.047,0.002
0.042,0.000
0.045,0.001
0.044,0.001
0.046,0.003
0.044,0.002
0.046,0.004
0.046,0.004
0.047,0.003
0.044,0.006
0.044,0.006
0.043,0.004
0.043,0.006
0.046,0.009
0.046,0.006
0.045,0.012
0.047,0.011
0.042,0.016
0.044,0.011
0.044,0.013
0.042,0.015
0.045,0.015
0.041,0.016
0.046,0.016
0.045,0.017
0.045,0.020
0.045,0.018
0.044,0.019
0.044,0.020
0.041,0.021
0.040,0.021
0.042,0.025
0.042,0.026
0.039,0.023
0.042,0.030
0.040,0.032
0.043,0.033
0.040,0.034
0.044,0.034
0.041,0.036
0.045,0.032
0.041,0.033
0.044,0.031
0.044,0.035
0.046,0.034
0.044,0.039
0.045,0.037
0.044,0.039
0.042,0.037
0.043,0.041
0.040,0.038
0.043,0.036
0.040,0.035
0.043,0.039
0.043,0.035
0.045,0.035
0.045,0.036
0.043,0.037
0.045,0.039
0.044,0.042
0.042,0.042
0.039,0.043
0.039,0.045
0.041,0.045
0.041,0.046
0.043,0.043
0.043,0.044
0.043,0.044
0.044,0.044
0.039,0.044
0.045,0.044
0.043,0.042
0.046,0.045
0.044,0.043
0.044,0.048
0.042,0.044
0.043,0.046
0.042,0.044
0.043,0.045
0.042,0.048
0.046,0.047
0.046,0.045
0.046,0.041
0.044,0.045
0.043,0.041
0.045,0.043
0.043,0.041
0.047,0.042
0.047,0.039
0.048,0.038
0.048,0.036
0.050,0.039
0.046,0.036
0.049,0.036
0.047,0.036
0.049,0.033
0.049,0.035
0.048,0.033
0.046,0.036
0.046,0.032
0.045,0.032
0.043,0.030
0.048,0.031
0.044,0.029
0.048,0.030
0.046,0.028
0.049,0.025
0.045,0.023
0.050,0.026
0.047,0.022
0.048,0.023
0.049,0.020
0.051,0.021
0.049,0.019
0.052,0.016
0.053,0.016
0.052,0.015
0.051,0.013
0.051,0.012
0.049,0.010
0.050,0.011
0.050,0.008
0.051,0.011
0.053,0.010
0.054,0.010
0.053,0.008
0.051,0.008
0.053,0.006
0.054,0.003
0.054,0.001
0.052,0.003
0.053,0.002
0.051,0.004
0.047,0.006
0.047,0.004
0.044,0.009
0.050,0.005
0.046,0.007
0.049,0.004
0.049,0.004
0.050,0.003
0.051,0.001
0.049,0.001
0.053,-0.001
0.054,-0.001
0.052,-0.002
0.052,-0.001
0.050,-0.002
0.052,0.000
0.050,-0.003
0.048,-0.002
0.050,-0.002
0.050,-0.000
0.050,-0.002
0.052,-0.000
0.051,-0.000
0.054,-0.000
0.052,-0.002
0.051,-0.002
0.049,-0.000
0.049,-0.001
0.047,0.000
0.048,-0.001
0.046,0.001
0.050,0.000
0.052,0.003
0.057,0.002
0.055,0.003
0.058,0.000
0.058,0.002
0.055,0.002
0.050,0.005
0.045,0.004
0.039,0.005
0.035,0.006
0.033,0.006
0.032,0.008
0.034,0.007
0.037,0.009
0.043,0.009
0.049,0.009
0.048,0.011
0.049,0.012
0.047,0.011
0.047,0.012
0.048,0.013
0.045,0.015
0.049,0.013
0.046,0.016
0.053,0.017
0.049,0.019
0.052,0.019
0.048,0.018
0.048,0.017
0.042,0.020
0.039,0.019
0.035,0.019
0.037,0.021
0.035,0.024
0.036,0.026
0.035,0.025
0.045,0.025
0.048,0.028
0.054,0.025
0.056,0.031
0.055,0.028
0.055,0.029
0.050,0.029
0.048,0.029
0.041,0.030
0.041,0.036
0.038,0.033
0.041,0.037
0.041,0.033
0.039,0.037
0.041,0.032
0.038,0.036
0.038,0.035
0.040,0.036
0.040,0.039
0.044,0.039
0.048,0.039
0.054,0.037
0.055,0.038
0.054,0.038
0.054,0.037
0.053,0.041
0.046,0.040
0.044,0.043
0.041,0.043
0.038,0.043
0.037,0.047
0.043,0.043
0.042,0.048
0.045,0.044
0.045,0.047
0.045,0.044
0.044,0.043
0.040,0.042
0.044,0.041
0.044,0.041
0.047,0.044
0.049,0.044
0.051,0.044
0.052,0.045
0.046,0.041
0.045,0.044
0.038,0.042
0.033,0.044
0.031,0.043
0.028,0.044
0.029,0.040
0.034,0.041
0.043,0.039
0.051,0.039
0.051,0.038
0.053,0.036
0.049,0.031
0.052,0.029
0.053,0.033
0.052,0.034
0.057,0.039
0.058,0.038
0.063,0.038
0.069,0.035
0.070,0.030
0.067,0.023
0.062,0.024
0.050,0.021
0.039,0.023
0.026,0.023
0.017,0.028
0.026,0.029
0.045,0.036
0.053,0.034
0.067,0.030
0.064,0.022
0.069,0.021
0.061,0.017
0.062,0.017
0.051,0.017
0.042,0.019
0.036,0.020
0.034,0.020
0.042,0.018
0.055,0.019
0.061,0.013
0.063,0.015
0.059,0.012
0.055,0.016
0.049,0.012
0.048,0.010
0.043,0.013
0.041,0.024
0.041,0.039
0.045,0.056
0.047,0.068
0.053,0.062
0.050,0.040
0.051,-0.002
0.049,-0.028
0.049,-0.041
0.048,-0.037
0.049,-0.032
0.047,-0.020
0.049,-0.016
0.047,-0.009
0.045,-0.005
0.045,0.000
0.047,0.004
0.049,0.004
0.051,0.001
0.051,0.000
0.056,0.001
0.054,0.010
0.057,0.025
0.055,0.035
0.054,0.047
0.049,0.045
0.045,0.033
0.041,0.007
0.037,-0.020
0.036,-0.038
0.035,-0.044
0.036,-0.043
0.038,-0.033
0.044,-0.026
0.047,-0.017
0.047,-0.011
0.048,-0.005
0.048,-0.001
0.048,0.004
0.044,0.010
0.043,0.009
0.045,0.015
0.047,0.018
0.045,0.027
0.045,0.025
0.048,0.003
0.050,-0.015
0.047,-0.021
0.049,-0.020
0.048,-0.015
0.051,-0.008
0.055,-0.002
0.059,-0.002
0.061,0.004
0.050,0.003
0.040,0.002
0.024,0.007
0.007,0.008
-0.010,0.016
-0.017,0.018
0.007,0.026
0.040,0.027
0.070,0.029
0.081,0.029
0.077,0.033
0.070,0.039
0.060,0.037
0.051,0.017
0.040,0.002
0.036,-0.008
0.028,-0.003
0.035,-0.001
0.041,0.009
0.047,0.012
0.050,0.018
0.064,0.021
0.068,0.025
0.063,0.023
0.051,-0.008
0.047,-0.057
0.043,-0.044
0.042,0.043
0.042,0.126
0.040,0.193
0.033,0.231
0.021,0.226
0.003,0.187
-0.009,0.099
0.004,0.034
0.042,-0.009
0.074,-0.029
0.080,-0.047
0.070,-0.048
0.059,-0.027
0.054,0.007
0.053,0.039
0.054,0.062
0.043,0.063
0.032,0.051
0.020,0.025
0.015,0.012
0.010,0.009
0.009,0.013
0.013,0.024
0.022,0.038
0.036,0.048
0.044,0.059
0.048,0.067
0.058,0.070
0.066,0.077
0.065,0.056
0.058,0.004
0.049,-0.064
0.045,-0.053
0.043,0.028
0.044,0.103
0.043,0.155
0.042,0.166
0.037,0.135
0.039,0.081
0.042,0.009
0.045,-0.036
0.046,-0.040
0.046,-0.023
0.043,0.007
0.043,0.034
0.039,0.054
0.040,0.053
0.036,0.045
0.039,0.033
0.040,0.032
0.043,0.026
0.043,0.024
0.044,0.022
0.042,0.024
0.035,0.024
0.035,0.026
0.029,0.030
0.025,0.034
0.023,0.038
0.039,0.036
0.061,0.034
0.070,0.030
0.065,0.028
0.056,0.025
0.046,0.026
0.045,0.020
0.040,0.021
0.042,0.020
0.042,0.022
0.046,0.018
0.045,0.021
0.046,0.016
0.047,0.014
0.047,0.012
0.049,0.010
0.047,0.012
0.046,0.011
0.044,0.011
0.045,0.010
0.045,0.008
0.045,0.009
0.046,0.004
0.045,0.006
0.047,0.004
0.044,0.006
0.047,0.007
0.046,0.006
0.049,0.003
0.047,0.004
0.049,0.003
0.051,0.001
0.054,0.000
0.056,0.001
0.054,-0.004
0.058,-0.002
0.055,-0.004
0.056,-0.006
0.051,-0.007
0.052,-0.008
0.049,-0.005
0.049,-0.008
0.043,-0.006
0.038,-0.008
0.036,-0.006
0.043,-0.008
0.043,-0.006
0.048,-0.005
0.044,-0.001
0.043,-0.003
0.048,-0.001
0.046,-0.003
0.049,-0.006
0.043,-0.006
0.045,-0.007
0.042,-0.004
0.044,-0.005
0.038,-0.005
0.037,-0.005
0.039,-0.005
0.046,-0.004
0.049,-0.004
0.049,-0.003
0.049,0.000
0.045,-0.003
0.043,-0.003
0.040,-0.003
0.042,-0.002
0.040,-0.002
0.043,-0.001
0.044,0.002
0.052,-0.001
0.053,0.002
0.057,-0.002
0.060,0.000
0.062,0.000
0.061,-0.001
0.057,0.000
0.049,0.002
0.040,0.004
0.029,0.012
0.023,0.024
0.025,0.024
0.033,-0.016
0.049,-0.036
0.047,0.034
0.042,0.119
0.032,0.177
0.024,0.207
0.013,0.179
0.014,0.118
0.028,0.024
0.042,-0.046
0.051,-0.084
0.048,-0.095
0.035,-0.092
0.027,-0.073
0.028,-0.044
0.042,-0.017
0.055,-0.002
0.055,-0.002
0.047,0.001
0.042,0.006
0.042,0.015
0.041,0.025
0.045,0.029
0.047,0.034
0.046,0.033
0.052,0.032
0.051,0.030
0.050,0.028
0.048,0.028
0.047,0.028
0.043,0.029
0.036,0.031
0.031,0.033
0.030,0.034
0.038,0.037
0.041,0.036
0.046,0.036
0.048,0.035
0.051,0.036
0.053,0.033
0.051,0.034
0.049,0.031
0.038,0.034
0.032,0.035
0.024,0.039
0.023,0.043
0.024,0.049
0.036,0.050
0.056,0.050
0.070,0.048
0.076,0.043
0.068,0.035
0.055,0.032
0.046,0.032
0.036,0.034
0.030,0.038
0.030,0.038
0.031,0.039
0.035,0.038
0.034,0.036
0.042,0.036
0.041,0.037
0.042,0.035
0.043,0.038
0.043,0.039
0.047,0.042
0.047,0.043
0.046,0.043
0.043,0.041
0.039,0.039
0.036,0.039
0.031,0.039
0.028,0.041
0.024,0.042
0.023,0.044
0.034,0.043
0.049,0.038
0.064,0.035
0.059,0.036
0.054,0.030
0.050,0.034
0.046,0.032
0.046,0.028
0.049,0.031
0.049,0.029
0.052,0.032
0.051,0.027
0.047,0.030
0.043,0.024
0.041,0.030
0.040,0.029
0.038,0.032
0.042,0.032
0.045,0.028
0.051,0.024
0.052,0.022
0.054,0.016
0.055,0.019
0.059,0.016
0.066,0.015
0.068,0.010
0.063,0.010
0.052,0.005
0.039,0.004
0.026,0.006
0.011,0.010
0.007,0.010
0.019,0.014
0.043,0.010
0.060,0.010
0.065,0.007
0.057,0.008
0.054,0.004
0.053,0.006
0.047,0.006
0.044,0.005
0.045,0.004
0.042,0.005
0.042,0.004
0.043,0.004
0.042,0.002
0.046,0.004
0.044,-0.001
0.047,0.003
0.044,-0.001
0.050,-0.004
0.048,-0.002
0.047,-0.007
0.046,-0.003
0.047,-0.008
0.046,-0.002
0.046,-0.005
0.043,-0.003
0.046,-0.003
0.048,-0.002
0.050,-0.003
0.051,-0.003
0.050,-0.004
0.053,-0.003
0.048,-0.005
0.052,-0.006
0.053,-0.006
0.058,-0.008
0.053,-0.006
0.050,-0.009
0.043,-0.005
0.036,-0.004
0.029,0.000
0.024,0.000
0.024,0.001
0.035,0.001
0.044,0.005
0.046,0.000
0.047,0.006
0.041,0.003
0.043,0.005
0.038,0.006
0.039,0.006
0.040,0.007
0.044,0.005
0.045,0.008
0.049,0.004
0.049,0.007
0.047,0.003
0.049,0.009
0.045,0.009
0.044,0.014
0.043,0.016
0.043,0.019
0.043,0.015
0.046,0.018
0.044,0.029
0.044,0.044
0.044,0.055
0.044,0.055
0.044,0.041
0.043,0.014
0.039,-0.011
0.041,-0.018
0.039,-0.014
0.043,-0.007
0.043,0.000
0.040,0.008
0.039,0.013
0.040,0.019
0.036,0.019
0.033,0.024
0.036,0.029
0.037,0.033
0.044,0.033
0.047,0.034
0.051,0.039
0.050,0.041
0.053,0.048
0.045,0.063
0.043,0.053
0.029,0.033
0.027,0.020
0.028,0.013
0.026,0.010
0.036,0.014
0.037,0.016
0.047,0.020
0.047,0.024
0.052,0.027
0.051,0.030
0.051,0.034
0.046,0.036
0.042,0.040
0.037,0.039
0.037,0.037
0.033,0.041
0.036,0.040
0.037,0.041
0.043,0.039
0.046,0.042
0.044,0.043
0.041,0.046
0.033,0.045
0.037,0.049
0.029,0.047
0.030,0.047
0.027,0.041
0.032,0.042
0.035,0.040
0.039,0.043
0.043,0.040
0.046,0.041
0.044,0.041
0.045,0.042
0.042,0.045
0.042,0.043
0.038,0.045
0.041,0.042
0.040,0.043
0.042,0.042
0.046,0.040
0.043,0.036
0.047,0.037
0.044,0.036
0.046,0.034
0.046,0.036
0.047,0.033
0.044,0.032
0.045,0.033
0.047,0.035
0.047,0.033
0.044,0.033
0.045,0.033
0.045,0.031
0.044,0.030
0.045,0.031
0.045,0.026
0.049,0.032
0.044,0.027
0.044,0.029
0.042,0.023
0.043,0.024
0.044,0.022
0.046,0.024
0.043,0.023
0.046,0.023
0.047,0.018
0.048,0.020
0.047,0.018
0.050,0.016
0.051,0.012
0.055,0.011
0.054,0.012
0.059,0.011
0.057,0.010
0.060,0.008
0.058,0.008
0.053,0.008
0.050,0.008
0.049,0.008
0.049,0.005
0.048,0.006
0.048,0.003
0.049,0.004
0.047,0.003
0.047,0.002
0.047,0.003
0.053,0.003
0.057,0.004
0.064,-0.002
0.064,-0.001
0.062,-0.005
0.058,-0.003
0.052,-0.003
0.046,-0.003
0.039,-0.001
0.037,0.001
0.040,-0.002
0.047,-0.004
0.046,-0.006
0.043,-0.006
0.037,-0.003
0.039,-0.006
0.044,-0.003
0.050,-0.003
0.054,-0.000
0.052,-0.001
0.051,0.002
0.051,0.001
0.049,0.000
0.048,-0.005
0.049,-0.002
0.046,-0.004
0.047,-0.004
0.045,-0.005
0.048,-0.005
0.045,-0.004
0.047,-0.005
0.044,-0.003
0.044,-0.002
0.044,-0.000
0.046,-0.002
0.049,-0.001
0.049,-0.001
0.049,-0.004
0.050,-0.002
0.052,0.000
0.050,0.000
0.057,0.003
0.056,0.001
0.057,0.003
0.048,-0.001
0.045,0.002
0.030,0.002
0.022,0.004
0.017,0.006
0.028,0.008
0.049,0.012
0.069,0.012
0.069,0.014
0.057,0.011
0.047,0.018
0.040,0.018
0.037,0.021
0.039,0.018
0.043,0.021
0.049,0.022
0.047,0.023
0.050,0.018
0.047,0.019
0.045,0.016
0.040,0.017
0.038,0.016
0.036,0.020
0.034,0.020
0.037,0.022
0.039,0.025
0.043,0.027
0.047,0.025
0.045,0.026
0.048,0.022
0.046,0.025
0.048,0.026
0.045,0.026
0.044,0.030
0.043,0.030
0.044,0.030
0.041,0.033
0.041,0.032
0.040,0.038
0.040,0.033
0.040,0.036
0.041,0.032
0.041,0.035
0.041,0.034
0.043,0.035
0.043,0.034
0.045,0.037
0.044,0.034
0.052,0.037
0.050,0.034
0.055,0.035
0.058,0.036
0.058,0.036
0.052,0.040
0.052,0.040
0.043,0.043
0.041,0.038
0.038,0.044
0.045,0.038
0.046,0.041
0.047,0.037
0.045,0.038
0.043,0.040
0.044,0.040
0.046,0.040
0.052,0.043
0.050,0.046
0.048,0.045
0.042,0.047
0.043,0.043
0.040,0.044
0.043,0.041
0.042,0.041
0.045,0.041
0.044,0.041
0.049,0.037
0.052,0.036
0.049,0.035
0.049,0.035
0.047,0.033
0.045,0.036
0.041,0.034
0.041,0.035
0.041,0.037
0.045,0.038
0.045,0.039
0.046,0.037
0.047,0.039
0.047,0.039
0.042,0.038
0.044,0.039
0.043,0.049
0.044,0.058
0.044,0.069
0.045,0.070
0.045,0.058
0.047,0.030
0.050,0.007
0.045,-0.013
0.048,-0.011
0.043,-0.007
0.045,0.000
0.040,0.003
0.043,0.011
0.046,0.010
0.060,0.014
0.071,0.012
0.067,0.013
0.057,0.010
0.050,0.011
0.043,0.006
0.045,0.010
0.043,0.005
0.048,0.006
0.046,0.002
0.055,0.006
0.052,0.005
0.054,0.001
0.046,-0.001
0.043,-0.000
0.040,-0.000
0.033,0.000
0.033,0.002
0.041,0.002
0.054,0.006
0.065,-0.000
0.068,-0.000
0.068,-0.002
0.062,-0.001
0.050,-0.001
0.041,0.001
0.032,0.001
0.040,0.002
0.048,-0.001
0.058,-0.003
0.058,-0.006
0.050,-0.007
0.043,-0.012
0.032,-0.009
0.022,-0.005
0.016,-0.005
0.023,-0.001
0.044,0.000
0.062,-0.001
0.067,-0.005
0.065,-0.003
0.060,-0.003
0.054,0.001
0.053,-0.004
0.050,0.000
0.044,0.000
0.044,-0.000
0.040,-0.003
0.042,-0.003
0.044,-0.006
0.045,-0.007
0.047,-0.004
0.049,-0.003
0.049,-0.002
0.052,-0.000
0.054,-0.000
0.060,0.001
0.063,0.003
0.067,0.001
0.067,0.003
0.060,0.004
0.056,0.006
0.042,0.007
0.034,0.009
0.023,0.006
0.021,0.009
0.021,0.014
0.019,0.016
0.023,0.018
0.040,0.017
0.054,0.020
0.056,0.014
0.054,0.015
0.044,0.012
0.042,0.015
0.040,0.015
0.040,0.018
0.042,0.016
0.043,0.019
0.045,0.017
0.044,0.021
0.046,0.019
0.046,0.023
0.051,0.021
0.049,0.023
0.049,0.023
0.045,0.026
0.040,0.026
0.037,0.030
0.032,0.030
0.025,0.032
0.026,0.033
0.030,0.034
0.039,0.031
0.042,0.033
0.046,0.030
0.043,0.034
0.043,0.033
0.041,0.036
0.041,0.036
0.038,0.038
0.040,0.039
0.035,0.040
0.038,0.037
0.037,0.041
0.038,0.036
0.041,0.039
0.040,0.035
0.041,0.040
0.038,0.038
0.042,0.039
0.037,0.036
0.039,0.040
0.038,0.038
0.037,0.040
0.034,0.042
0.040,0.043
0.040,0.044
0.046,0.046
0.048,0.044
0.054,0.044
0.053,0.043
0.050,0.042
0.050,0.040
0.049,0.039
0.051,0.039
0.049,0.037
0.055,0.036
0.053,0.036
0.055,0.039
0.054,0.039
0.050,0.040
0.049,0.046
0.047,0.046
0.042,0.047
0.042,0.044
0.040,0.047
0.041,0.046
0.040,0.044
0.041,0.041
0.045,0.042
0.047,0.036
0.050,0.039
0.049,0.035
0.047,0.035
0.044,0.034
0.043,0.035
0.041,0.039
0.042,0.036
0.040,0.039
0.046,0.036
0.046,0.033
0.048,0.032
0.045,0.030
0.045,0.030
0.045,0.029
0.045,0.027
0.044,0.026
0.042,0.023
0.040,0.024
0.038,0.020
0.036,0.024
0.034,0.024
0.042,0.022
0.047,0.024
0.053,0.023
0.052,0.021
0.050,0.021
0.046,0.017
0.049,0.015
0.047,0.010
0.050,0.011
0.049,0.008
0.050,0.009
0.046,0.008
0.049,0.010
0.043,0.007
0.044,0.008
0.044,0.008
0.047,0.006
0.049,0.004
0.051,0.004
0.052,0.002
0.054,0.000
0.051,-0.000
0.050,-0.002
0.048,0.002
0.046,0.002
0.042,0.009
0.038,0.004
0.036,0.010
0.036,0.006
0.039,0.004
0.043,0.002
0.050,-0.002
0.050,-0.008
0.053,-0.009
0.052,-0.008
0.051,-0.005
0.049,-0.005
0.047,-0.005
0.047,-0.005
0.047,-0.002
0.047,-0.004
0.046,-0.004
0.044,0.001
0.045,-0.004
0.045,-0.001
0.045,-0.004
0.047,-0.001
0.045,-0.005
0.049,-0.003
0.045,-0.005
0.048,-0.003
0.045,-0.002
0.048,-0.002
0.046,-0.002
0.048,-0.004
0.047,0.001
0.047,-0.002
0.045,0.001
0.045,0.001
0.046,0.004
0.043,0.006
0.043,0.009
0.040,0.007
0.044,0.010
0.046,0.006
0.051,0.007
0.048,0.005
0.053,0.005
0.049,0.007
0.047,0.007
0.040,0.008
0.039,0.010
0.034,0.015
0.033,0.017
0.037,0.018
0.039,0.013
0.045,0.015
0.045,0.015
0.045,0.017
0.049,0.015
0.050,0.016
0.051,0.017
0.049,0.021
0.049,0.017
0.046,0.021
0.046,0.021
0.047,0.021
0.050,0.022
0.047,0.024
0.047,0.024
0.039,0.026
0.036,0.026
0.027,0.030
0.029,0.029
0.027,0.028
0.031,0.026
0.035,0.030
0.043,0.029
0.047,0.030
0.052,0.032
0.048,0.032
0.046,0.034
0.045,0.035
0.044,0.037
0.043,0.039
0.044,0.037
0.041,0.039
0.041,0.036
0.040,0.039
0.041,0.038
0.044,0.040
0.040,0.040
0.042,0.044
0.039,0.041
0.042,0.042
0.041,0.039
0.045,0.038
0.047,0.036
0.047,0.036
0.047,0.038
0.050,0.036
0.047,0.038
0.046,0.036
0.045,0.041
0.043,0.041
0.043,0.041
0.043,0.041
0.043,0.043
0.043,0.039
0.043,0.038
0.042,0.038
0.045,0.043
0.039,0.040
0.042,0.046
0.039,0.042
0.042,0.045
0.042,0.044
0.046,0.040
0.045,0.041
0.046,0.039
0.043,0.042
0.047,0.040
0.044,0.041
0.045,0.038
0.044,0.037
0.043,0.034
0.046,0.036
0.044,0.034
0.050,0.034
0.050,0.032
0.052,0.030
0.049,0.031
0.051,0.026
0.050,0.031
0.049,0.031
0.045,0.033
0.045,0.031
0.045,0.028
0.044,0.029
0.048,0.029
0.050,0.025
0.052,0.025
0.050,0.020
0.051,0.022
0.049,0.019
0.052,0.025
0.049,0.022
0.051,0.021
0.048,0.019
0.051,0.022
0.049,0.021
0.049,0.020
0.048,0.015
0.052,0.018
0.049,0.012
0.055,0.010
0.048,0.006
0.050,0.009
0.043,0.008
0.043,0.008
0.040,0.008
0.041,0.009
0.041,0.007
0.043,0.008
0.040,0.008
0.045,0.008
0.047,0.006
0.049,0.004
0.050,0.001
0.050,0.002
0.050,0.002
0.049,0.002
0.049,0.003
0.049,0.001
0.047,0.004
0.049,-0.001
0.050,0.001
0.049,0.000
0.053,-0.002
0.049,-0.004
0.052,-0.003
0.048,-0.005
0.050,-0.004
0.047,-0.002
0.046,-0.004
0.047,0.000
0.045,-0.001
0.044,-0.002
0.047,0.000
0.046,0.001
0.045,0.002
0.047,0.001
0.048,-0.000
0.046,-0.002
0.043,-0.003
0.046,-0.002
0.044,-0.004
0.049,-0.002
0.048,-0.000
0.051,-0.001
0.047,-0.001
0.048,0.000
0.044,0.006
0.042,0.003
0.038,0.006
0.036,0.008
0.035,0.010
0.039,0.008
0.045,0.009
0.044,0.008
0.049,0.009
0.047,0.008
0.049,0.009
0.046,0.010
0.046,0.012
0.044,0.009
0.048,0.010
0.046,0.010
0.047,0.010
0.044,0.012
0.045,0.011
0.042,0.014
0.044,0.013
0.043,0.016
0.044,0.013
0.041,0.015
0.043,0.017
0.045,0.018
0.042,0.017
0.043,0.019
0.043,0.020
0.041,0.022
0.040,0.022
0.036,0.023
0.034,0.023
0.033,0.028
0.034,0.029
0.036,0.033
0.038,0.029
0.043,0.031
0.042,0.031
0.045,0.034
0.045,0.028
0.045,0.032
0.043,0.028
0.043,0.030
0.047,0.031
0.046,0.036
0.048,0.033
0.044,0.036
0.046,0.035
0.046,0.039
0.047,0.038
0.045,0.037
0.042,0.039
0.044,0.039
0.046,0.038
0.048,0.038
0.046,0.036
0.047,0.037
0.043,0.036
0.041,0.038
0.040,0.039
0.042,0.040
0.043,0.043
0.046,0.043
0.044,0.046
0.044,0.044
0.042,0.045
0.044,0.042
0.042,0.043
0.041,0.043
0.042,0.040
0.043,0.040
0.044,0.041
0.043,0.040
0.044,0.045
0.042,0.043
0.041,0.045
0.042,0.042
0.043,0.043
0.042,0.046
0.044,0.043
0.043,0.046
0.045,0.042
0.042,0.042
0.045,0.040
0.044,0.040
0.045,0.040
0.051,0.039
0.048,0.038
0.047,0.036
0.047,0.035
0.048,0.037
0.048,0.034
0.046,0.034
0.046,0.034
0.045,0.035
0.044,0.035
0.044,0.032
0.044,0.031
0.047,0.030
0.042,0.030
0.045,0.031
0.042,0.030
0.045,0.031
0.044,0.030
0.045,0.027
0.046,0.028
0.044,0.025
0.046,0.025
0.045,0.026
0.044,0.023
0.045,0.022
0.049,0.024
0.049,0.018
0.049,0.018
0.049,0.015
0.050,0.017
0.048,0.016
0.051,0.015
0.048,0.011
0.050,0.012
0.046,0.010
0.048,0.010
0.048,0.009
0.051,0.012
0.050,0.008
0.053,0.009
0.047,0.006
0.048,0.006
0.044,0.003
0.048,0.004
0.046,0.003
0.047,-0.001
0.045,0.001
0.043,-0.001
0.043,0.004
0.043,0.001
0.042,0.003
0.044,-0.001
0.045,0.002
0.045,0.001
0.049,0.001
0.047,-0.002
0.051,0.002
0.051,-0.005
0.056,-0.003
0.050,-0.008
0.052,-0.006
0.050,-0.007
0.050,-0.007
0.049,-0.002
0.050,-0.008
0.044,-0.003
0.049,-0.007
0.048,-0.003
0.047,-0.003
0.050,-0.001
0.048,-0.004
0.051,-0.002
0.047,-0.005
0.048,-0.003
0.046,-0.005
0.047,-0.002
0.047,-0.006
0.047,-0.004
0.044,-0.002
0.045,-0.002
0.046,0.004
0.046,0.001
0.045,0.004
0.045,0.000
0.044,0.003
0.044,0.006
0.044,0.006
0.045,0.007
0.045,0.010
0.045,0.009
0.048,0.010
0.045,0.007
0.049,0.010
0.047,0.009
0.048,0.010
0.044,0.010
0.049,0.011
0.044,0.013
0.045,0.012
0.043,0.015
0.041,0.014
0.041,0.015
0.041,0.013
0.045,0.017
0.043,0.017
0.047,0.020
0.048,0.019
0.042,0.019
0.045,0.017
0.041,0.019
0.040,0.017
0.039,0.022
0.037,0.019
0.037,0.024
0.037,0.023
0.040,0.029
0.039,0.030
0.041,0.031
0.045,0.032
0.044,0.032
0.047,0.032
0.045,0.031
0.046,0.032
0.042,0.032
0.044,0.032
0.043,0.033
0.042,0.035
0.043,0.036
0.043,0.037
0.043,0.040
0.044,0.038
0.042,0.038
0.043,0.036
0.041,0.039
0.042,0.036
0.045,0.036
0.042,0.037
0.043,0.037
0.042,0.035
0.047,0.037
0.042,0.040
0.044,0.039
0.045,0.043
0.044,0.042
0.046,0.044
0.045,0.041
0.043,0.042
0.045,0.042
0.042,0.043
0.045,0.042
0.042,0.044
0.042,0.039
0.042,0.041
0.043,0.041
0.044,0.040
0.041,0.040
0.042,0.044
0.039,0.043
0.043,0.042
0.043,0.044
0.045,0.044
0.043,0.045
0.045,0.045
0.045,0.047
0.045,0.044
0.041,0.044
0.046,0.044
0.042,0.043
0.046,0.042
0.043,0.041
0.048,0.038
0.046,0.040
0.046,0.039
0.045,0.037
0.045,0.037
0.048,0.038
0.046,0.037
0.047,0.036
0.044,0.038
0.047,0.035
0.045,0.035
0.045,0.032
0.047,0.031
0.048,0.030
0.049,0.030
0.045,0.029
0.047,0.026
0.046,0.025
0.048,0.024
0.047,0.023
0.047,0.023
0.049,0.022
0.048,0.025
0.050,0.022
0.048,0.024
0.048,0.020
0.049,0.020
0.048,0.015
0.047,0.015
0.046,0.013
0.048,0.012
0.045,0.010
0.047,0.014
0.048,0.012
0.049,0.017
0.047,0.010
0.050,0.012
0.048,0.007
0.054,0.006
0.049,0.004
0.051,0.003
0.052,0.006
0.053,0.003
0.050,0.003
0.050,0.002
0.048,0.007
0.049,0.004
0.047,0.005
0.046,0.005
0.047,0.005
0.045,0.004
0.049,0.002
0.049,-0.001
0.052,0.000
0.048,-0.004
0.052,-0.003
0.049,-0.001
0.051,-0.003
0.047,-0.003
0.049,-0.003
0.047,-0.000
0.047,-0.002
0.047,-0.001
0.047,-0.002
0.048,-0.003
0.047,-0.003
0.050,0.000
0.046,-0.002
0.049,-0.002
0.049,-0.003
0.049,-0.002
0.047,-0.002
0.048,-0.002
0.046,-0.002
0.047,-0.001
0.045,0.003
0.047,0.000
0.044,0.002
0.044,0.000
0.045,0.004
0.041,0.005
0.044,0.006
0.044,0.005
0.045,0.005
0.043,0.003
0.049,0.005
0.047,0.005
0.047,0.007
0.046,0.006
0.045,0.008
0.043,0.006
0.044,0.007
0.042,0.010
0.043,0.011
0.045,0.011
0.047,0.011
0.046,0.010
0.046,0.010
0.046,0.013
0.046,0.013
0.047,0.016
0.041,0.015
0.041,0.018
0.042,0.017
0.042,0.021
0.041,0.020
0.042,0.023
0.042,0.023
0.038,0.023
0.041,0.023
0.040,0.026
0.044,0.029
0.037,0.029
0.040,0.031
0.039,0.031
0.041,0.030
0.039,0.034
0.042,0.029
0.043,0.032
0.042,0.031
0.040,0.033
0.044,0.036
0.042,0.034
0.044,0.033
0.041,0.038
0.041,0.034
0.043,0.038
0.041,0.036
0.040,0.037
0.039,0.037
0.044,0.037
0.042,0.038
0.044,0.041
0.043,0.036
0.044,0.040
0.045,0.037
0.044,0.038
0.042,0.039
0.044,0.039
0.041,0.045
0.042,0.039
0.041,0.043
0.045,0.039
0.043,0.041
0.043,0.040
0.043,0.041
0.042,0.040
0.045,0.040
0.042,0.039
0.043,0.040
0.042,0.040
0.041,0.043
0.043,0.041
0.042,0.042
0.040,0.044
0.042,0.043
0.041,0.046
0.042,0.043
0.040,0.045
0.045,0.044
0.040,0.042
0.042,0.040
0.046,0.042
0.043,0.039
0.043,0.039
0.042,0.036
0.046,0.036
0.044,0.037
0.044,0.038
0.045,0.037
0.047,0.037
0.044,0.035
0.047,0.034
0.047,0.034
0.047,0.032
0.044,0.034
0.044,0.034
0.043,0.034
0.042,0.029
0.046,0.030
0.041,0.026
0.044,0.028
0.041,0.025
0.045,0.025
0.045,0.024
0.044,0.025
0.044,0.024
0.045,0.025
0.045,0.019
0.048,0.022
0.047,0.018
0.050,0.016
0.046,0.011
0.049,0.010
0.045,0.011
0.047,0.010
0.043,0.012
0.046,0.010
0.044,0.011
0.044,0.011
0.046,0.011
0.048,0.011
0.046,0.005
0.048,0.006
0.048,0.005
0.048,0.003
0.050,0.002
0.049,0.000
0.046,0.004
0.047,-0.001
0.048,0.003
0.046,0.002
0.046,0.003
0.046,0.000
0.042,0.003
0.044,0.000
0.043,-0.000
0.044,-0.000
0.044,0.001
0.046,-0.002
0.048,-0.003
0.047,-0.004
0.046,-0.005
0.048,-0.003
0.045,-0.006
0.046,-0.003
0.046,-0.007
0.046,-0.005
0.046,-0.001
0.045,-0.003
0.045,-0.002
0.045,-0.003
0.046,-0.003
0.045,-0.005
0.046,-0.005
0.046,-0.004
0.047,-0.007
0.045,-0.004
0.045,-0.006
0.045,-0.006
0.042,-0.003
0.046,-0.003
0.045,0.000
0.045,-0.003
0.044,0.001
0.042,0.001
0.044,0.000
0.042,0.001
0.040,0.004
0.040,0.004
0.040,0.003
0.042,0.002
0.043,0.005
0.043,0.005
0.042,0.007
0.042,0.005
0.044,0.007
0.041,0.008
0.041,0.006
0.040,0.014
0.042,0.010
0.041,0.014
0.040,0.014
0.042,0.015
0.041,0.017
0.041,0.014
0.042,0.015
0.042,0.017
0.043,0.016
0.039,0.018
0.042,0.018
0.039,0.019
0.041,0.016
0.038,0.018
0.041,0.023
0.037,0.023
0.043,0.025
0.040,0.027
0.043,0.026
0.041,0.030
0.044,0.028
0.041,0.029
0.040,0.028
0.040,0.030
0.038,0.028
0.039,0.034
0.040,0.030
0.040,0.033
0.039,0.032
0.039,0.036
0.038,0.033
0.040,0.036
0.040,0.034
0.040,0.037
0.039,0.037
0.041,0.038
0.041,0.034
0.043,0.036
0.042,0.035
0.046,0.036
0.042,0.034
0.047,0.036
0.043,0.037
0.041,0.038
0.042,0.039
0.043,0.040
0.042,0.040
0.043,0.040
0.041,0.044
0.042,0.040
0.042,0.042
0.044,0.040
0.046,0.042
0.043,0.039
0.046,0.039
0.042,0.037
0.047,0.039
0.044,0.041
0.043,0.041
0.042,0.039
0.043,0.043
0.043,0.041
0.043,0.043
0.045,0.046
0.043,0.044
0.043,0.047
0.044,0.046
0.042,0.046
0.044,0.041
0.043,0.044
0.042,0.038
0.045,0.039
0.045,0.036
0.045,0.038
0.042,0.036
0.047,0.034
0.044,0.034
0.044,0.034
0.045,0.032
0.044,0.032
0.045,0.036
0.044,0.034
0.043,0.031
0.044,0.031
0.043,0.030
0.043,0.029
0.042,0.028
0.041,0.025
0.044,0.027
0.041,0.024
0.047,0.025
0.042,0.022
0.045,0.023
0.043,0.021
0.047,0.020
0.048,0.016
0.049,0.015
0.048,0.014
0.048,0.014
0.048,0.015
0.047,0.010
0.046,0.012
0.045,0.009
0.046,0.010
0.042,0.009
0.045,0.011
0.044,0.009
0.046,0.008
0.047,0.009
0.047,0.005
0.047,0.006
0.047,0.003
0.049,0.004
0.044,0.003
0.050,0.004
0.044,-0.001
0.048,-0.003
0.045,-0.003
0.048,-0.002
0.048,-0.002
0.051,-0.002
0.051,-0.003
0.049,-0.001
0.047,-0.000
0.048,-0.002
0.044,0.000
0.045,-0.004
0.046,-0.002
0.045,-0.005
0.046,-0.003
0.044,-0.008
0.044,-0.007
0.042,-0.007
0.047,-0.008
0.043,-0.010
0.045,-0.008
0.045,-0.010
0.045,-0.007
0.045,-0.002
0.045,-0.004
0.044,-0.004
0.047,-0.005
0.042,-0.006
0.047,-0.008
0.045,-0.005
0.045,-0.005
0.044,-0.003
0.043,-0.005
0.044,-0.003
0.043,-0.003
0.045,-0.000
0.042,-0.003
0.043,-0.004
0.041,0.000
0.044,0.001
0.043,0.006
0.043,0.002
0.041,0.004
0.041,0.005
0.041,0.005
0.045,0.008
0.043,0.006
0.042,0.007
0.042,0.008
0.043,0.007
0.043,0.009
0.042,0.010
0.041,0.009
0.042,0.008
0.042,0.012
0.043,0.009
0.042,0.012
0.042,0.014
0.042,0.013
0.039,0.016
0.041,0.014
0.040,0.017
0.042,0.015
0.039,0.018
0.044,0.016
0.042,0.018
0.043,0.020
0.044,0.020
0.042,0.025
0.040,0.023
0.043,0.027
0.041,0.024
0.043,0.026
0.039,0.025
0.043,0.024
0.040,0.027
0.041,0.029
0.040,0.029
0.040,0.032
0.041,0.031
0.039,0.034
0.039,0.034
0.041,0.035
0.041,0.035
0.044,0.036
0.039,0.034
0.042,0.034
0.043,0.034
0.043,0.032
0.041,0.037
0.041,0.035
0.041,0.038
0.041,0.036
0.040,0.039
0.040,0.039
0.040,0.040
0.039,0.041
0.041,0.041
0.039,0.042
0.043,0.043
0.043,0.043
0.041,0.043
0.043,0.042
0.043,0.040
0.047,0.041
0.045,0.041
0.046,0.039
0.044,0.038
0.042,0.042
0.039,0.041
0.040,0.046
0.041,0.046
0.045,0.045
0.041,0.044
0.044,0.044
0.044,0.044
0.044,0.044
0.047,0.042
0.047,0.041
0.047,0.040
0.048,0.038
0.044,0.040
0.048,0.038
0.047,0.039
0.048,0.039
0.046,0.040
0.046,0.036
0.044,0.040
0.047,0.035
0.044,0.035
0.042,0.035
0.046,0.035
0.045,0.035
0.043,0.034
0.045,0.030
0.047,0.028
0.046,0.029
0.044,0.027
0.046,0.027
0.044,0.028
0.046,0.028
0.046,0.027
0.045,0.028
0.045,0.025
0.048,0.026
0.048,0.021
0.048,0.023
0.049,0.018
0.048,0.021
0.049,0.016
0.047,0.017
0.050,0.016
0.049,0.013
0.049,0.011
0.049,0.011
0.050,0.009
0.046,0.008
0.048,0.008
0.043,0.009
0.046,0.009
0.045,0.011
0.048,0.007
0.048,0.008
0.047,0.006
0.045,0.008
0.046,0.006
0.044,0.004
0.047,0.002
0.045,0.003
0.046,0.001
0.045,0.001
0.047,-0.000
0.046,-0.000
0.046,0.001
0.046,0.001
0.046,0.001
0.048,-0.003
0.045,-0.000
0.049,-0.003
0.047,-0.001
0.046,-0.003
0.043,-0.003
0.045,-0.003
0.045,-0.004
0.044,-0.004
0.047,-0.000
0.048,-0.005
0.048,-0.003
0.047,-0.005
0.049,-0.002
0.048,-0.005
0.049,-0.003
0.046,-0.005
0.049,-0.006
0.046,-0.003
0.049,-0.004
0.046,-0.001
0.045,-0.003
0.044,-0.001
0.043,-0.002
0.044,0.000
0.043,0.001
0.043,0.002
0.045,0.002
0.046,0.006
0.045,0.004
0.045,0.003
0.046,0.001
0.047,0.004
0.045,0.007
0.049,0.006
0.046,0.009
0.045,0.007
0.044,0.010
0.047,0.010
0.043,0.011
0.047,0.010
0.044,0.011
0.045,0.012
0.041,0.014
0.042,0.011
0.042,0.016
0.042,0.011
0.045,0.012
0.043,0.010
0.046,0.013
0.043,0.013
0.045,0.017
0.043,0.014
0.046,0.017
0.040,0.017
0.044,0.020
0.039,0.021
0.045,0.023
0.043,0.023
0.042,0.023
0.042,0.023
0.041,0.028
0.040,0.026
0.042,0.029
0.041,0.031
0.041,0.032
0.041,0.032
0.040,0.032
0.043,0.034
0.039,0.034
0.043,0.035
0.039,0.037
0.041,0.038
0.041,0.038
0.042,0.039
0.043,0.037
0.041,0.035
0.043,0.037
0.043,0.036
0.044,0.038
0.045,0.038
0.044,0.037
0.044,0.037
0.046,0.038
0.041,0.039
0.044,0.039
0.040,0.043
0.042,0.041
0.040,0.045
0.043,0.043
0.043,0.046
0.043,0.045
0.043,0.044
0.043,0.043
0.044,0.045
0.044,0.044
0.046,0.040
0.045,0.039
0.044,0.041
0.044,0.041
0.041,0.042
0.044,0.045
0.042,0.042
0.042,0.045
0.043,0.049
0.040,0.046
0.041,0.046
0.040,0.044
0.042,0.045
0.043,0.044
0.041,0.038
0.043,0.036
0.043,0.035
0.044,0.035
0.044,0.036
0.044,0.034
0.047,0.036
0.045,0.034
0.046,0.035
0.047,0.032
0.045,0.032
0.046,0.031
0.041,0.031
0.044,0.030
0.044,0.032
0.044,0.029
0.046,0.030
0.045,0.027
0.047,0.026
0.044,0.024
0.045,0.026
0.044,0.022
0.044,0.023
0.046,0.023
0.044,0.022
0.048,0.022
0.047,0.020
0.047,0.019
0.047,0.017
0.043,0.015
0.050,0.017
0.048,0.013
0.050,0.009
0.047,0.010
0.047,0.009
0.046,0.007
0.046,0.011
0.043,0.007
0.046,0.010
0.044,0.007
0.047,0.008
0.045,0.005
0.049,0.003
0.048,0.003
0.051,0.002
0.049,0.003
0.050,0.000
0.050,0.004
0.047,-0.001
0.048,0.002
0.045,0.001
0.045,0.002
0.047,0.001
0.046,0.003
0.047,0.001
0.047,0.003
0.045,-0.002
0.048,0.001
0.048,-0.003
0.049,-0.004
0.044,-0.006
0.050,-0.006
0.048,-0.008
0.047,-0.005
0.046,-0.004
0.044,-0.005
0.046,-0.004
0.043,-0.008
0.045,-0.004
0.044,-0.005
0.044,-0.003
0.046,-0.004
0.045,-0.004
0.047,-0.006
0.047,-0.003
0.048,-0.003
0.047,-0.003
0.045,-0.004
0.049,-0.003
0.047,-0.004
0.047,-0.005
0.045,-0.000
0.049,-0.002
0.045,0.002
0.045,-0.000
0.044,0.001
0.044,0.001
0.043,0.003
0.047,0.002
0.047,0.002
0.046,0.003
0.047,0.004
0.046,0.004
0.051,0.005
0.048,0.001
0.051,0.003
0.047,0.002
0.048,0.005
0.047,0.005
0.043,0.005
0.045,0.010
0.044,0.009
0.044,0.011
0.044,0.012
0.043,0.013
0.043,0.011
0.042,0.014
0.043,0.016
0.041,0.014
0.043,0.013
0.040,0.018
0.042,0.016
0.039,0.019
0.042,0.018
0.042,0.021
0.042,0.020
0.043,0.025
0.042,0.022
0.043,0.028
0.041,0.026
0.047,0.026
0.046,0.024
0.046,0.023
0.047,0.026
0.045,0.025
0.046,0.028
0.042,0.028
0.045,0.030
0.044,0.030
0.046,0.032
0.042,0.034
0.045,0.033
0.042,0.035
0.046,0.034
0.045,0.034
0.046,0.037
0.043,0.036
0.043,0.038
0.038,0.037
0.042,0.036
0.041,0.036
0.041,0.035
0.041,0.040
0.039,0.038
0.042,0.040
0.042,0.040
0.041,0.041
0.041,0.040
0.040,0.039
0.043,0.041
0.044,0.038
0.041,0.043
0.044,0.043
0.042,0.043
0.044,0.041
0.040,0.042
0.044,0.040
0.042,0.042
0.041,0.041
0.043,0.042
0.043,0.039
0.045,0.043
0.044,0.040
0.047,0.042
0.046,0.041
0.049,0.042
0.048,0.041
0.048,0.043
0.045,0.044
0.047,0.038
0.044,0.044
0.045,0.038
0.043,0.039
0.044,0.038
0.045,0.036
0.045,0.036
0.042,0.034
0.044,0.034
0.047,0.036
0.045,0.033
0.047,0.031
0.044,0.031
0.045,0.031
0.046,0.035
0.047,0.030
0.045,0.033
0.047,0.027
0.044,0.029
0.045,0.029
0.046,0.026
0.046,0.024
0.044,0.026
0.049,0.023
0.046,0.024
0.047,0.022
0.049,0.020
0.047,0.019
0.048,0.021
0.046,0.018
0.049,0.015
0.047,0.015
0.051,0.013
0.047,0.015
0.048,0.013
0.043,0.011
0.045,0.015
0.046,0.014
0.049,0.010
0.047,0.010
0.050,0.009
0.049,0.008
0.049,0.008
0.049,0.008
0.049,0.006
0.048,0.006
0.048,0.003
0.047,0.003
0.046,0.001
0.046,0.002
0.046,0.000
0.045,0.002
0.044,0.000
0.044,0.003
0.043,0.003
0.046,0.005
0.046,-0.001
0.046,-0.001
0.045,-0.005
0.048,-0.004
0.048,-0.006
0.046,-0.005
0.043,-0.007
0.048,-0.004
0.044,-0.002
0.046,-0.004
0.046,-0.004
0.047,-0.005
0.047,-0.002
0.047,-0.005
0.044,-0.005
0.044,-0.002
0.041,-0.003
0.041,-0.004
0.042,-0.002
0.043,-0.004
0.047,-0.001
0.044,-0.004
0.046,-0.000
0.042,0.000
0.044,-0.002
0.042,-0.001
0.047,-0.000
0.044,0.004
0.046,0.001
0.042,0.008
0.043,0.006
0.042,0.007
0.042,0.005
0.043,0.006
0.043,0.004
0.045,0.007
0.043,0.006
0.046,0.008
0.045,0.008
0.044,0.010
0.044,0.007
0.046,0.010
0.045,0.006
0.047,0.008
0.045,0.009
0.049,0.010
0.045,0.011
0.047,0.010
0.044,0.015
0.041,0.010
0.043,0.013
0.042,0.013
0.044,0.015
0.042,0.013
0.041,0.016
0.040,0.019
0.040,0.017
0.041,0.022
0.041,0.021
0.042,0.024
0.042,0.026
0.042,0.028
0.042,0.030
0.043,0.030
0.041,0.029
0.042,0.030
0.041,0.029
0.040,0.031
0.041,0.031
0.039,0.034
0.039,0.031
0.044,0.034
0.039,0.033
0.045,0.035
0.042,0.034
0.043,0.033
0.043,0.034
0.042,0.035
0.043,0.036
0.045,0.034
0.043,0.037
0.044,0.037
0.042,0.040
0.042,0.037
0.042,0.038
0.041,0.039
0.042,0.042
0.043,0.039
0.045,0.042
0.041,0.042
0.047,0.040
0.042,0.041
0.046,0.037
0.044,0.041
0.046,0.036
0.043,0.040
0.042,0.039
0.042,0.041
0.043,0.038
0.039,0.040
0.044,0.043
0.041,0.044
0.042,0.041
0.044,0.046
0.045,0.041
0.044,0.041
0.043,0.041
0.047,0.041
0.044,0.041
0.046,0.040
0.044,0.042
0.046,0.039
0.044,0.040
0.047,0.037
0.046,0.039
0.047,0.035
0.046,0.036
0.044,0.036
0.044,0.033
0.044,0.034
0.045,0.033
0.043,0.029
0.047,0.030
0.050,0.025
0.049,0.026
0.050,0.026
0.049,0.025
0.046,0.027
0.048,0.025
0.044,0.029
0.046,0.025
0.043,0.025
0.045,0.023
0.042,0.025
0.044,0.023
0.047,0.023
0.048,0.023
0.048,0.022
0.049,0.020
0.045,0.021
0.050,0.014
0.048,0.016
0.050,0.010
0.049,0.011
0.046,0.009
0.044,0.013
0.045,0.009
0.047,0.011
0.045,0.008
0.045,0.010
0.046,0.008
0.045,0.009
0.049,0.007
0.045,0.007
0.048,0.002
0.045,0.005
0.043,0.002
0.043,0.000
0.044,0.001
0.046,0.003
0.044,0.002
0.045,0.001
0.046,-0.000
0.046,0.000
0.047,-0.001
0.044,0.001
0.048,-0.000
0.047,-0.003
0.048,-0.002
0.049,-0.006
0.043,-0.004
0.047,-0.006
0.044,-0.004
0.043,-0.003
0.048,-0.002
0.047,-0.003
0.048,-0.004
0.047,-0.005
0.047,-0.004
0.049,-0.002
0.050,-0.004
0.049,-0.002
0.049,-0.005
0.045,-0.002
0.047,-0.006
0.046,-0.003
0.047,-0.004
0.045,-0.003
0.041,-0.004
0.044,-0.004
0.040,-0.004
0.046,-0.002
0.043,-0.001
0.046,0.000
0.045,-0.001
0.047,-0.000
0.047,0.004
0.045,0.002
0.044,0.006
0.046,0.002
0.042,0.009
0.043,0.004
0.042,0.010
0.042,0.007
0.042,0.009
0.042,0.008
0.045,0.008
0.042,0.007
0.044,0.012
0.042,0.009
0.045,0.010
0.045,0.009
0.043,0.009
0.045,0.011
0.044,0.012
0.045,0.012
0.044,0.016
0.044,0.014
0.045,0.017
0.043,0.017
0.046,0.016
0.044,0.017
0.046,0.019
0.045,0.018
0.044,0.023
0.045,0.021
0.042,0.023
0.040,0.024
0.042,0.025
0.040,0.026
0.042,0.029
0.040,0.030
0.038,0.031
0.039,0.029
0.038,0.030
0.039,0.031
0.040,0.034
0.037,0.033
0.043,0.034
0.039,0.032
0.043,0.033
0.042,0.033
0.042,0.033
0.043,0.034
0.040,0.036
0.044,0.036
0.043,0.034
0.043,0.034
0.043,0.035
0.042,0.038
0.039,0.036
0.041,0.037
0.040,0.039
0.040,0.040
0.040,0.039
0.042,0.043
0.041,0.040
0.045,0.041
0.044,0.041
0.046,0.041
0.043,0.040
0.047,0.038
0.044,0.040
0.043,0.039
0.038,0.041
0.039,0.037
0.039,0.041
0.043,0.041
0.042,0.044
0.043,0.041
0.042,0.042
0.043,0.042
0.041,0.043
0.043,0.041
0.045,0.043
0.043,0.038
0.045,0.038
0.042,0.039
0.044,0.039
0.046,0.039
0.045,0.040
0.046,0.040
0.047,0.036
0.046,0.036
0.048,0.033
0.047,0.035
0.047,0.034
0.046,0.034
0.043,0.030
0.046,0.030
0.047,0.029
0.050,0.030
0.048,0.029
0.049,0.028
0.046,0.027
0.044,0.024
0.047,0.028
0.045,0.022
0.045,0.025
0.047,0.025
0.047,0.025
0.048,0.023
0.045,0.023
0.047,0.020
0.047,0.022
0.048,0.014
0.047,0.016
0.048,0.013
0.046,0.014
0.046,0.013
0.049,0.013
0.049,0.012
0.050,0.011
0.050,0.007
0.048,0.009
0.050,0.006
0.046,0.008
0.048,0.007
0.048,0.010
0.049,0.003
0.048,0.007
0.048,0.006
0.048,0.006
0.047,0.007
0.046,0.003
0.049,0.001
0.044,0.001
0.047,-0.003
0.050,0.001
0.049,-0.003
0.049,-0.002
0.047,-0.003
0.050,-0.001
0.045,0.000
0.050,-0.002
0.048,-0.003
0.049,-0.004
0.048,-0.004
0.047,-0.005
0.043,-0.005
0.046,-0.004
0.043,-0.004
0.044,-0.002
0.043,-0.005
0.045,-0.006
0.045,-0.003
0.049,-0.006
0.048,-0.005
0.050,-0.007
0.049,-0.005
0.049,-0.007
0.049,-0.007
0.049,-0.003
0.051,-0.004
0.046,-0.002
0.049,-0.003
0.045,0.000
0.050,0.000
0.047,0.001
0.046,-0.001
0.048,0.001
0.046,-0.003
0.047,-0.002
0.046,-0.004
0.047,-0.002
0.046,0.002
0.047,0.002
0.048,0.004
0.049,0.004
0.044,0.007
0.046,0.004
0.045,0.006
0.048,0.006
0.045,0.008
0.045,0.009
0.046,0.010
0.046,0.008
0.045,0.011
0.046,0.010
0.044,0.010
0.045,0.010
0.046,0.012
0.046,0.010
0.049,0.012
0.047,0.014
0.047,0.017
0.044,0.016
0.048,0.016
0.041,0.017
0.044,0.020
0.042,0.023
0.045,0.025
0.043,0.024
0.042,0.028
0.044,0.027
0.044,0.028
0.043,0.028
0.047,0.028
0.043,0.029
0.041,0.029
0.041,0.028
0.039,0.029
0.043,0.031
0.039,0.035
0.044,0.033
0.041,0.034
0.041,0.035
0.043,0.036
0.041,0.035
0.042,0.036
0.041,0.035
0.045,0.035
0.046,0.034
0.047,0.035
0.049,0.032
0.044,0.034
0.046,0.035
0.044,0.036
0.044,0.039
0.045,0.039
0.040,0.042
0.043,0.042
0.041,0.043
0.042,0.042
0.041,0.040
0.044,0.039
0.044,0.041
0.043,0.038
0.043,0.039
0.045,0.039
0.044,0.040
0.044,0.039
0.045,0.042
0.045,0.045
0.046,0.042
0.045,0.044
0.042,0.041
0.043,0.044
0.041,0.042
0.042,0.042
0.044,0.041
0.047,0.041
0.045,0.039
0.045,0.038
0.046,0.035
0.042,0.036
0.046,0.035
0.045,0.036
0.045,0.039
0.044,0.033
0.042,0.037
0.043,0.034
0.041,0.037
0.042,0.038
0.044,0.035
0.045,0.032
0.046,0.031
0.046,0.031
0.046,0.033
0.046,0.026
0.047,0.027
0.047,0.025
0.048,0.025
0.045,0.023
0.046,0.022
0.046,0.023
0.046,0.022
0.047,0.022
0.047,0.019
0.048,0.022
0.048,0.017
0.048,0.016
0.047,0.016
0.049,0.014
0.050,0.013
0.046,0.010
0.048,0.010
0.046,0.008
0.049,0.009
0.047,0.007
0.050,0.007
0.049,0.004
0.049,0.007
0.049,0.001
0.049,0.004
0.047,0.002
0.047,0.004
0.049,0.002
0.048,0.001
0.045,0.000
0.047,-0.002
0.044,0.001
0.044,-0.002
0.042,0.003
0.043,-0.001
0.042,0.002
0.043,0.000
0.044,0.002
0.045,-0.001
0.049,0.000
0.047,-0.003
0.050,-0.002
0.046,-0.006
0.048,-0.007
0.047,-0.008
0.045,-0.008
0.044,-0.007
0.044,-0.007
0.043,-0.003
0.046,-0.004
0.042,-0.002
0.041,-0.004
0.044,-0.004
0.042,-0.005
0.045,-0.003
0.047,-0.003
0.048,-0.004
0.045,-0.008
0.046,-0.005
0.045,-0.004
0.047,-0.005
0.042,-0.002
0.045,-0.004
0.042,0.001
0.044,-0.004
0.043,0.001
0.044,-0.001
0.042,0.001
0.042,0.001
0.043,0.002
0.043,0.002
0.046,0.002
0.043,0.005
0.044,0.004
0.047,0.004
0.046,0.007
0.044,0.004
0.045,0.006
0.043,0.002
0.047,0.005
0.043,0.005
0.044,0.007
0.042,0.010
0.044,0.009
0.041,0.010
0.041,0.007
0.043,0.010
0.041,0.009
0.043,0.012
0.042,0.013
0.042,0.013
0.039,0.012
0.042,0.017
0.042,0.015
0.042,0.019
0.039,0.018
0.042,0.022
0.041,0.018
0.043,0.022
0.043,0.023
0.041,0.023
0.044,0.022
0.043,0.025
0.044,0.024
0.042,0.027
0.045,0.024
0.042,0.026
0.044,0.028
0.041,0.030
0.042,0.026
0.042,0.032
0.042,0.029
0.042,0.034
0.043,0.035
0.041,0.035
0.044,0.034
0.039,0.037
0.041,0.033
0.040,0.037
0.041,0.035
0.041,0.035
0.041,0.033
0.044,0.034
0.041,0.036
0.046,0.039
0.042,0.039
0.045,0.041
0.042,0.039
0.042,0.044
0.039,0.046
0.041,0.043
0.039,0.045
0.044,0.041
0.042,0.041
0.045,0.041
0.042,0.043
0.043,0.043
0.043,0.043
0.038,0.043
0.044,0.041
0.042,0.038
0.046,0.043
0.045,0.042
0.044,0.042
0.044,0.041
0.045,0.043
0.044,0.042
0.045,0.041
0.043,0.042
0.043,0.042
0.042,0.040
0.046,0.038
0.044,0.039
0.044,0.036
0.047,0.039
0.044,0.035
0.049,0.036
0.044,0.034
0.048,0.035
0.044,0.034
0.045,0.033
0.044,0.035
0.047,0.036
0.043,0.036
0.046,0.030
0.044,0.033
0.048,0.031
0.045,0.032
0.047,0.025
0.049,0.028
0.047,0.025
0.049,0.025
0.047,0.022
0.047,0.022
0.045,0.022
0.048,0.023
0.046,0.021
0.047,0.026
0.045,0.019
0.047,0.021
0.047,0.019
0.051,0.019
0.045,0.015
0.047,0.015
0.045,0.013
0.046,0.013
0.045,0.011
0.047,0.009
0.047,0.010
0.049,0.011
0.050,0.008
0.050,0.009
0.050,0.008
0.049,0.007
0.048,0.003
0.050,0.005
0.047,0.005
0.047,0.004
0.046,0.006
0.046,0.002
0.047,0.005
0.044,0.001
0.045,0.005
0.045,0.002
0.047,0.001
0.047,0.000
0.052,0.000
0.052,-0.002
0.054,-0.003
0.052,-0.003
0.049,-0.003
0.050,-0.003
0.048,-0.005
0.051,-0.004
0.050,-0.001
0.049,0.000
0.049,-0.002
0.047,0.001
0.047,-0.003
0.047,-0.002
0.047,-0.001
0.048,-0.003
0.045,-0.003
0.050,-0.002
0.047,-0.001
0.049,-0.004
0.049,-0.004
0.049,-0.004
0.049,-0.006
0.047,-0.002
0.047,-0.001
0.044,-0.001
0.045,0.003
0.045,0.003
0.044,0.003
0.046,0.002
0.046,0.005
0.045,0.005
0.048,0.006
0.047,0.002
0.047,0.005
0.043,0.006
0.046,0.008
0.043,0.007
0.048,0.009
0.043,0.007
0.043,0.007
0.046,0.010
0.045,0.007
0.042,0.011
0.045,0.011
0.046,0.012
0.046,0.012
0.048,0.012
0.045,0.013
0.045,0.013
0.045,0.012
0.042,0.014
0.043,0.010
0.043,0.016
0.043,0.016
0.043,0.019
0.042,0.020
0.040,0.020
0.039,0.023
0.037,0.024
0.041,0.023
0.040,0.027
0.045,0.024
0.043,0.029
0.043,0.028
0.043,0.028
0.045,0.027
0.042,0.028
0.043,0.029
0.044,0.030
0.044,0.029
0.044,0.030
0.042,0.030
0.042,0.034
0.043,0.034
0.041,0.036
0.045,0.034
0.041,0.036
0.041,0.033
0.042,0.037
0.043,0.035
0.044,0.038
0.042,0.034
0.045,0.035
0.043,0.037
0.045,0.038
0.042,0.040
0.044,0.041
0.042,0.041
0.044,0.042
0.042,0.041
0.043,0.042
0.039,0.040
0.043,0.042
0.043,0.042
0.043,0.040
0.042,0.040
0.041,0.039
0.043,0.042
0.041,0.041
0.042,0.039
0.042,0.039
0.042,0.041
0.041,0.042
0.044,0.044
0.045,0.044
0.043,0.043
0.044,0.046
0.046,0.045
0.043,0.042
0.043,0.040
0.043,0.040
0.045,0.038
0.045,0.039
0.048,0.037
0.049,0.038
0.046,0.034
0.049,0.035
0.046,0.033
0.047,0.035
0.044,0.036
0.047,0.034
0.044,0.037
0.047,0.034
0.045,0.033
0.048,0.032
0.045,0.031
0.049,0.026
0.045,0.027
0.046,0.028
0.045,0.026
0.045,0.024
0.045,0.024
0.045,0.024
0.048,0.023
0.049,0.020
0.048,0.021
0.047,0.019
0.047,0.023
0.044,0.018
0.049,0.015
0.046,0.013
0.047,0.015
0.047,0.014
0.048,0.016
0.046,0.011
0.049,0.010
0.047,0.006
0.049,0.009
0.049,0.010
0.050,0.008
0.048,0.007
0.050,0.006
0.047,0.006
0.049,0.006
0.050,0.004
0.049,0.004
0.051,0.001
0.049,0.001
0.049,0.001
0.047,0.003
0.047,0.004
0.047,0.001
0.048,0.006
0.049,0.001
0.045,0.002
0.047,0.000
0.048,0.000
0.048,-0.002
0.052,-0.002
0.049,-0.003
0.049,-0.001
0.048,-0.003
0.047,-0.003
0.047,-0.003
0.046,-0.004
0.045,-0.004
0.047,-0.003
0.047,-0.002
0.047,-0.003
0.048,-0.001
0.048,-0.004
0.053,-0.002
0.046,-0.002
0.048,-0.006
0.049,-0.006
0.047,-0.004
0.050,-0.004
0.052,-0.004
0.053,-0.004
0.046,-0.003
0.048,0.001
0.044,0.000
0.045,0.002
0.044,0.000
0.046,0.002
0.046,0.003
0.047,0.003
0.041,0.002
0.045,0.006
0.044,0.006
0.045,0.006
0.046,0.006
0.044,0.007
0.045,0.006
0.044,0.004
0.047,0.009
0.045,0.010
0.048,0.011
0.046,0.011
0.046,0.013
0.046,0.012
0.045,0.015
0.045,0.014
0.045,0.014
0.046,0.014
0.047,0.017
0.045,0.016
0.047,0.018
0.046,0.018
0.045,0.017
0.045,0.017
0.041,0.020
0.044,0.023
0.045,0.025
0.045,0.024
0.045,0.028
0.048,0.026
0.047,0.028
0.047,0.025
0.044,0.026
0.045,0.029
0.046,0.028
0.047,0.031
0.043,0.035
0.043,0.030
0.041,0.035
0.044,0.035
0.043,0.037
0.044,0.037
0.042,0.040
0.043,0.038
0.044,0.040
0.043,0.038
0.046,0.039
0.044,0.041
0.044,0.041
0.043,0.034
0.049,0.040
0.043,0.038
0.048,0.040
0.047,0.042
0.046,0.041
0.042,0.043
0.045,0.043
0.044,0.047
0.046,0.046
0.047,0.049
0.047,0.044
0.047,0.045
0.049,0.046
0.046,0.043
0.045,0.043
0.044,0.046
0.042,0.043
0.044,0.045
0.042,0.044
0.045,0.043
0.043,0.045
0.045,0.043
0.044,0.048
0.045,0.047
0.045,0.048
0.045,0.043
0.045,0.046
0.045,0.043
0.046,0.045
0.046,0.044
0.048,0.044
0.048,0.040
0.049,0.042
0.049,0.037
0.053,0.041
0.049,0.039
0.051,0.036
0.049,0.037
0.045,0.035
0.047,0.039
0.046,0.037
0.048,0.039
0.046,0.035
0.047,0.038
0.047,0.034
0.046,0.035
0.046,0.032
0.049,0.032
0.046,0.028
0.049,0.027
0.047,0.025
0.048,0.025
0.045,0.024
0.048,0.023
0.046,0.026
0.050,0.025
0.049,0.021
0.049,0.023
0.050,0.018
0.050,0.017
0.050,0.015
0.049,0.015
0.048,0.014
0.048,0.014
0.046,0.011
0.046,0.012
0.048,0.011
0.048,0.013
0.046,0.008
0.049,0.013
0.046,0.006
0.050,0.008
0.048,0.006
0.052,0.005
0.049,0.004
0.050,0.005
0.049,0.004
0.048,0.001
0.046,0.000
0.047,-0.000
0.044,0.003
0.046,0.004
0.043,0.004
0.047,0.004
0.047,0.004
0.047,0.001
0.049,0.001
0.048,-0.005
0.048,-0.003
0.047,-0.005
0.050,-0.003
0.049,-0.001
0.049,-0.003
0.046,-0.002
0.050,-0.003
0.047,-0.001
0.048,-0.004
0.047,0.001
0.046,-0.002
0.046,-0.000
0.048,-0.000
0.048,-0.001
0.048,-0.003
0.052,-0.002
0.049,-0.002
0.049,0.000
0.047,-0.003
0.047,0.000
0.046,0.001
0.050,-0.002
0.045,0.004
0.045,0.002
0.044,0.006
0.044,0.004
0.044,0.003
0.044,0.006
0.041,0.006
0.044,0.007
0.042,0.007
0.043,0.007
0.045,0.008
0.046,0.008
0.046,0.007
0.045,0.005
0.045,0.010
0.041,0.011
0.044,0.012
0.042,0.013
0.044,0.011
0.043,0.014
0.045,0.013
0.042,0.014
0.044,0.016
0.045,0.016
0.044,0.015
0.045,0.016
0.044,0.017
0.042,0.016
0.045,0.017
0.042,0.019
0.043,0.017
0.039,0.021
0.043,0.020
0.042,0.026
0.039,0.023
0.042,0.028
0.042,0.025
0.042,0.029
0.044,0.029
0.044,0.030
0.043,0.028
0.041,0.031
0.044,0.030
0.039,0.031
0.041,0.028
0.041,0.029
0.039,0.028
0.042,0.028
0.042,0.029
0.042,0.034
0.038,0.036
0.037,0.038
0.037,0.036
0.037,0.037
0.039,0.036
0.041,0.037
0.040,0.036
0.041,0.036
0.041,0.035
0.042,0.036
0.043,0.036
0.041,0.037
0.038,0.040
0.041,0.038
0.045,0.042
0.044,0.039
0.043,0.041
0.043,0.038
0.043,0.041
0.044,0.041
0.040,0.039
0.041,0.041
0.039,0.039
0.040,0.041
0.039,0.041
0.039,0.039
0.042,0.041
0.043,0.043
0.042,0.043
0.044,0.042
0.044,0.040
0.042,0.039
0.044,0.039
0.046,0.040
0.045,0.040
0.042,0.042
0.043,0.041
0.041,0.043
0.042,0.038
0.042,0.037
0.039,0.039
0.045,0.037
0.043,0.038
0.045,0.037
0.044,0.036
0.044,0.037
0.043,0.032
0.045,0.032
0.043,0.034
0.043,0.030
0.042,0.034
0.045,0.030
0.046,0.032
0.048,0.025
0.045,0.027
0.045,0.024
0.046,0.025
0.043,0.026
0.044,0.025
0.044,0.023
0.044,0.024
0.046,0.023
0.044,0.022
0.047,0.021
0.045,0.021
0.049,0.019
0.047,0.018
0.049,0.015
0.047,0.013
0.049,0.012
0.045,0.013
0.043,0.010
0.043,0.009
0.043,0.011
0.044,0.011
0.046,0.009
0.044,0.010
0.044,0.008
0.045,0.006
0.044,0.004
0.048,0.006
0.043,0.002
0.049,0.004
0.045,0.001
0.048,0.003
0.046,-0.000
0.049,0.002
0.045,0.002
0.048,0.000
0.045,-0.001
0.045,0.001
0.044,0.002
0.050,-0.002
0.047,-0.000
0.047,-0.004
0.047,-0.002
0.044,-0.003
0.048,-0.001
0.046,-0.004
0.047,-0.003
0.046,-0.003
0.045,-0.004
0.043,-0.001
0.044,-0.002
0.043,-0.001
0.046,-0.002
0.044,-0.001
0.045,-0.004
0.046,-0.003
0.047,-0.001
0.045,-0.002
0.047,-0.003
0.050,0.000
0.047,-0.002
0.046,0.001
0.044,-0.000
0.045,0.000
0.043,0.003
0.041,0.000
0.041,0.004
0.045,0.004
0.043,0.003
0.044,0.004
0.043,0.004
0.043,0.007
0.043,0.005
0.045,0.007
0.044,0.008
0.045,0.008
0.045,0.008
0.045,0.009
0.044,0.010
0.045,0.006
0.045,0.010
0.043,0.007
0.044,0.009
0.044,0.013
0.045,0.012
0.043,0.015
0.047,0.011
0.044,0.016
0.044,0.015
0.043,0.017
0.044,0.017
0.044,0.021
0.043,0.020
0.041,0.019
0.044,0.019
0.043,0.021
0.043,0.021
0.039,0.023
0.041,0.023
0.040,0.026
0.043,0.025
0.041,0.027
0.042,0.025
0.043,0.030
0.041,0.030
0.042,0.029
0.041,0.031
0.043,0.029
0.042,0.031
0.042,0.032
0.040,0.032
0.042,0.033
0.046,0.033
0.045,0.035
0.044,0.035
0.045,0.038
0.044,0.035
0.044,0.039
0.043,0.039
0.044,0.039
0.042,0.039
0.042,0.040
0.042,0.038
0.040,0.039
0.043,0.038
0.041,0.039
0.040,0.040
0.042,0.042
0.040,0.043
0.043,0.044
0.044,0.044
0.044,0.041
0.041,0.044
0.043,0.044
0.043,0.043
0.044,0.044
0.041,0.041
0.041,0.043
0.039,0.045
0.039,0.042
0.042,0.046
0.039,0.043
0.041,0.046
0.039,0.044
0.041,0.041
0.041,0.042
0.043,0.041
0.047,0.039
0.046,0.039
0.046,0.040
0.046,0.041
0.044,0.041
0.044,0.038
0.045,0.038
0.048,0.039
0.047,0.040
0.047,0.037
0.044,0.036
0.042,0.032
0.044,0.035
0.046,0.033
0.044,0.034
0.044,0.033
0.044,0.032
0.046,0.035
0.045,0.032
0.045,0.035
0.044,0.031
0.047,0.030
0.045,0.028
0.045,0.025
0.045,0.027
0.047,0.025
0.045,0.024
0.048,0.026
0.047,0.021
0.049,0.022
0.049,0.021
0.051,0.019
0.050,0.018
0.049,0.017
0.052,0.016
0.050,0.014
0.050,0.013
0.051,0.013
0.051,0.010
0.049,0.012
0.049,0.011
0.048,0.010
0.047,0.010
0.048,0.009
0.045,0.009
0.050,0.008
0.047,0.006
0.051,0.009
0.050,0.004
0.053,0.006
0.050,0.002
0.051,0.005
0.050,0.003
0.050,0.003
0.047,0.005
0.049,0.005
0.045,0.006
0.048,0.004
0.048,0.007
0.049,0.004
0.050,0.003
0.050,0.002
0.051,0.002
0.052,0.000
0.051,0.002
0.050,-0.001
0.051,-0.001
0.049,-0.001
0.054,-0.002
0.050,-0.002
0.050,-0.001
0.049,-0.002
0.049,-0.002
0.049,0.004
0.049,0.002
0.047,0.002
0.049,0.000
0.049,0.000
0.048,0.000
0.049,0.001
0.046,-0.003
0.047,0.001
0.045,-0.000
0.049,0.001
0.045,0.004
0.049,0.003
0.049,0.004
0.045,0.003
0.050,0.005
0.050,0.004
0.049,0.007
0.048,0.007
0.049,0.010
0.047,0.009
0.044,0.011
0.046,0.010
0.047,0.010
0.048,0.010
0.049,0.013
0.044,0.011
0.046,0.015
0.047,0.011
0.048,0.014
0.048,0.013
0.051,0.012
0.046,0.013
0.049,0.013
0.048,0.016
0.046,0.013
0.046,0.018
0.047,0.016
0.049,0.018
0.046,0.019
0.046,0.018
0.046,0.017
0.046,0.022
0.046,0.022
0.047,0.027
0.046,0.023
0.045,0.024
0.044,0.026
0.046,0.026
0.044,0.028
0.046,0.029
0.046,0.033
0.043,0.030
0.046,0.032
0.042,0.028
0.048,0.033
0.042,0.035
0.049,0.034
0.046,0.034
0.046,0.034
0.045,0.035
0.045,0.036
0.046,0.036
0.044,0.037
0.042,0.039
0.045,0.035
0.042,0.039
0.045,0.038
0.043,0.039
0.043,0.038
0.044,0.039
0.042,0.038
0.045,0.039
0.043,0.038
0.046,0.042
0.045,0.043
0.046,0.043
0.046,0.044
0.045,0.043
0.044,0.042
0.047,0.041
0.044,0.043
0.046,0.042
0.045,0.043
0.044,0.040
0.041,0.044
0.040,0.044
0.044,0.043
0.041,0.044
0.046,0.044
0.046,0.044
0.047,0.041
0.049,0.040
0.050,0.041
0.048,0.041
0.048,0.039
0.047,0.039
0.049,0.041
0.045,0.043
0.050,0.038
0.045,0.040
0.047,0.037
0.049,0.037
0.046,0.036
0.047,0.038
0.044,0.035
0.047,0.034
0.044,0.034
0.047,0.033
0.047,0.031
0.049,0.030
0.047,0.036
0.050,0.032
0.046,0.033
0.047,0.031
0.047,0.033
0.047,0.033
0.046,0.030
0.046,0.027
0.049,0.025
0.047,0.025
0.048,0.025
0.046,0.022
0.049,0.025
0.050,0.022
0.050,0.023
0.049,0.020
0.050,0.020
0.051,0.016
0.049,0.013
0.048,0.013
0.049,0.015
0.048,0.013
0.047,0.013
0.047,0.010
0.048,0.015
0.047,0.012
0.049,0.011
0.046,0.007
0.049,0.008
0.050,0.007
0.051,0.004
0.050,0.005
0.053,0.003
0.049,0.001
0.048,0.001
0.050,0.003
0.049,0.002
0.050,0.001
0.047,0.001
0.047,0.006
0.047,0.003
0.047,0.003
0.049,0.000
0.051,0.002
0.048,-0.003
0.052,-0.002
0.051,-0.005
0.055,-0.003
0.053,-0.003
0.055,-0.004
0.047,-0.001
0.049,-0.005
0.046,-0.002
0.048,-0.004
0.046,-0.001
0.049,-0.006
0.047,-0.002
0.048,-0.005
0.049,-0.003
0.046,-0.003
0.049,-0.002
0.047,-0.003
0.048,-0.004
0.044,-0.003
0.047,0.000
0.049,-0.002
0.049,-0.001
0.047,-0.001
0.047,-0.001
0.045,0.001
0.046,0.001
0.045,0.005
0.044,0.001
0.045,0.006
0.044,0.004
0.046,0.007
0.044,0.006
0.045,0.009
0.043,0.008
0.044,0.010
0.044,0.009
0.044,0.010
0.044,0.008
0.045,0.013
0.044,0.009
0.044,0.012
0.044,0.011
0.045,0.012
0.043,0.015
0.046,0.013
0.044,0.017
0.045,0.014
0.042,0.020
0.043,0.018
0.043,0.019
0.043,0.014
0.044,0.017
0.042,0.018
0.040,0.022
0.042,0.021
0.042,0.025
0.042,0.024
0.044,0.028
0.046,0.025
0.046,0.028
0.045,0.029
0.044,0.028
0.042,0.029
0.043,0.029
0.045,0.030
0.041,0.030
0.044,0.032
0.042,0.033
0.046,0.032
0.041,0.035
0.044,0.035
0.042,0.040
0.044,0.037
0.042,0.037
0.042,0.038
0.041,0.037
0.042,0.037
0.041,0.038
0.041,0.038
0.038,0.036
0.040,0.037
0.041,0.039
0.041,0.041
0.041,0.043
0.041,0.040
0.044,0.043
0.045,0.042
0.044,0.043
0.045,0.041
0.047,0.041
0.044,0.044
0.043,0.040
0.040,0.044
0.044,0.043
0.043,0.047
0.043,0.045
0.044,0.045
0.043,0.042
0.047,0.045
0.044,0.045
0.046,0.044
0.047,0.042
0.047,0.043
0.046,0.043
0.043,0.039
0.045,0.042
0.047,0.042
0.045,0.041
0.046,0.041
0.043,0.041
0.044,0.037
0.043,0.038
0.043,0.037
0.046,0.040
0.045,0.038
0.047,0.038
0.047,0.034
0.046,0.036
0.049,0.033
0.047,0.035
0.046,0.032
0.046,0.031
0.044,0.030
0.049,0.030
0.045,0.030
0.045,0.030
0.043,0.032
0.045,0.030
0.043,0.030
0.044,0.029
0.046,0.028
0.044,0.025
0.047,0.026
0.047,0.024
0.051,0.022
0.048,0.021
0.049,0.021
0.049,0.017
0.048,0.016
0.049,0.012
0.048,0.013
0.046,0.011
0.045,0.012
0.044,0.011
0.046,0.013
0.048,0.011
0.049,0.011
0.048,0.009
0.048,0.010
0.047,0.009
0.047,0.008
0.047,0.004
0.047,0.005
0.047,0.002
0.051,0.005
0.047,0.004
0.050,0.001
0.047,0.004
0.047,0.003
0.047,0.007
0.049,0.003
0.048,0.004
0.049,0.002
0.049,0.001
0.050,0.000
0.049,0.001
0.049,-0.003
0.050,0.001
0.048,-0.005
0.050,-0.003
0.047,-0.007
0.048,-0.006
0.048,-0.006
0.049,-0.003
0.048,-0.001
0.049,-0.004
0.046,0.002
0.049,-0.002
0.046,0.000
0.048,-0.003
0.045,-0.001
0.044,-0.000
0.044,-0.002
0.042,-0.002
0.046,0.002
0.043,0.001
0.047,0.002
0.045,0.001
0.046,0.003
0.046,0.004
0.050,0.003
0.047,0.008
0.048,0.004
0.046,0.006
0.044,0.004
0.044,0.008
0.043,0.006
0.044,0.009
0.042,0.008
0.046,0.011
0.045,0.010
0.049,0.012
0.048,0.008
0.048,0.008
0.046,0.009
0.047,0.010
0.047,0.011
0.047,0.009
0.048,0.013
0.047,0.014
0.045,0.017
0.046,0.014
0.043,0.016
0.042,0.014
0.045,0.018
0.042,0.016
0.045,0.018
0.047,0.018
0.044,0.021
0.045,0.020
0.047,0.021
0.043,0.021
0.042,0.024
0.043,0.024
0.042,0.026
0.044,0.025
0.045,0.029
0.044,0.029
0.044,0.031
0.044,0.030
0.042,0.028
0.039,0.032
0.042,0.031
0.039,0.032
0.041,0.032
0.039,0.033
0.039,0.036
0.042,0.039
0.038,0.039
0.041,0.035
0.037,0.037
0.039,0.038
0.041,0.039
0.041,0.039
0.045,0.039
0.041,0.037
0.041,0.036
0.041,0.037
0.042,0.041
0.045,0.041
0.043,0.043
0.041,0.043
0.043,0.042
0.043,0.047
0.045,0.043
0.043,0.044
0.045,0.044
0.044,0.043
0.043,0.043
0.044,0.043
0.045,0.044
0.045,0.044
0.043,0.041
0.044,0.041
0.044,0.043
0.041,0.042
0.043,0.045
0.041,0.044
0.040,0.045
0.042,0.046
0.040,0.047
0.045,0.047
0.043,0.046
0.045,0.044
0.044,0.044
0.046,0.041
0.047,0.043
0.048,0.040
0.047,0.036
0.047,0.038
0.047,0.037
0.048,0.036
0.046,0.034
0.046,0.036
0.047,0.035
0.047,0.036
0.046,0.033
0.048,0.034
0.048,0.034
0.049,0.032
0.049,0.030
0.048,0.027
0.047,0.026
0.049,0.029
0.047,0.028
0.047,0.028
0.050,0.025
0.049,0.022
0.048,0.023
0.051,0.025
0.049,0.022
0.050,0.019
0.049,0.019
0.049,0.013
0.050,0.016
0.050,0.011
0.052,0.011
0.049,0.010
0.049,0.007
0.048,0.008
0.048,0.009
0.049,0.009
0.049,0.005
0.051,0.007
0.049,0.006
0.050,0.003
0.047,0.003
0.048,0.004
0.047,0.006
0.048,0.003
0.046,0.005
0.049,0.003
0.047,0.003
0.049,0.002
0.046,0.002
0.047,-0.002
0.048,-0.001
0.049,-0.002
0.047,0.002
0.047,-0.002
0.051,-0.001
0.048,-0.003
0.053,-0.004
0.049,-0.005
0.050,-0.009
0.047,-0.004
0.048,-0.005
0.045,-0.004
0.043,-0.005
0.043,-0.008
0.047,-0.006
0.045,-0.004
0.043,-0.001
0.046,-0.000
0.046,-0.004
0.047,-0.004
0.051,-0.008
0.049,-0.008
0.047,-0.004
0.042,-0.003
0.042,-0.001
0.045,-0.003
0.042,0.000
0.045,-0.002
0.043,-0.000
0.041,0.000
0.045,0.002
0.044,0.000
0.044,0.003
0.045,0.000
0.045,0.000
0.044,0.003
0.044,0.003
0.047,0.004
0.043,0.004
0.045,0.005
0.045,0.006
0.044,0.005
0.042,0.007
0.039,0.009
0.043,0.008
0.043,0.010
0.045,0.007
0.045,0.012
0.042,0.007
0.044,0.012
0.043,0.011
0.045,0.009
0.042,0.010
0.043,0.008
0.043,0.009
0.045,0.014
0.044,0.016
0.044,0.018
0.043,0.013
0.042,0.017
0.042,0.016
0.043,0.020
0.039,0.020
0.043,0.025
0.038,0.026
0.042,0.028
0.039,0.029
0.042,0.027
0.038,0.027
0.039,0.029
0.041,0.027
0.043,0.030
0.042,0.026
0.043,0.031
0.040,0.026
0.041,0.031
0.039,0.031
0.046,0.034
0.041,0.035
0.045,0.034
0.045,0.036
0.045,0.035
0.042,0.037
0.040,0.036
0.042,0.037
0.043,0.036
0.043,0.040
0.042,0.038
0.041,0.039
0.041,0.039
0.036,0.043
0.036,0.041
0.039,0.044
0.037,0.042
0.040,0.043
0.039,0.041
0.044,0.041
0.042,0.041
0.045,0.038
0.043,0.039
0.044,0.038
0.043,0.041
0.041,0.040
0.042,0.042
0.041,0.042
0.039,0.044
0.040,0.042
0.039,0.046
0.039,0.042
0.042,0.047
0.041,0.044
0.043,0.046
0.041,0.044
0.045,0.039
0.042,0.040
0.044,0.041
0.044,0.039
0.045,0.039
0.045,0.039
0.045,0.039
0.045,0.040
0.043,0.037
0.043,0.038
0.041,0.034
0.042,0.034
0.042,0.031
0.045,0.033
0.043,0.032
0.047,0.032
0.042,0.029
0.047,0.029
0.045,0.030
0.046,0.029
0.044,0.030
0.045,0.028
0.043,0.028
0.044,0.024
0.043,0.026
0.042,0.024
0.043,0.028
0.044,0.023
0.043,0.024
0.045,0.020
0.047,0.020
0.049,0.015
0.048,0.018
0.048,0.012
0.048,0.013
0.049,0.012
0.047,0.011
0.048,0.010
0.048,0.010
0.046,0.008
0.046,0.011
0.047,0.007
0.046,0.009
0.046,0.005
0.046,0.008
0.047,0.004
0.045,0.006
0.047,0.006
0.046,0.005
0.045,0.003
0.045,0.005
0.044,0.004
0.043,0.004
0.045,0.002
0.045,0.003
0.045,-0.001
0.044,0.001
0.047,-0.002
0.049,0.000
0.048,-0.000
0.049,-0.004
0.046,-0.002
0.049,-0.006
0.046,-0.004
0.049,-0.005
0.044,-0.002
0.046,-0.003
0.044,-0.001
0.042,-0.002
0.044,-0.003
0.041,-0.004
0.045,-0.003
0.047,-0.006
0.048,-0.003
0.048,-0.006
0.044,-0.005
0.042,-0.003
0.045,-0.003
0.041,-0.002
0.045,-0.003
0.041,0.000
0.042,-0.001
0.041,0.003
0.039,0.002
0.041,0.001
0.039,0.004
0.040,0.001
0.041,0.002
0.041,0.003
0.041,0.001
0.041,0.004
0.042,0.003
0.042,0.006
0.043,0.006
0.044,0.007
0.042,0.005
0.040,0.008
0.041,0.010
0.040,0.011
0.040,0.013
0.042,0.008
0.041,0.012
0.043,0.012
0.040,0.011
0.041,0.011
0.039,0.013
0.040,0.013
0.040,0.014
0.042,0.012
0.042,0.015
0.042,0.014
0.040,0.019
0.039,0.017
0.040,0.020
0.038,0.017
0.037,0.021
0.036,0.024
0.036,0.027
0.036,0.027
0.038,0.029
0.041,0.027
0.037,0.032
0.038,0.030
0.039,0.034
0.038,0.028
0.037,0.034
0.038,0.033
0.038,0.033
0.043,0.037
0.037,0.036
0.038,0.037
0.039,0.040
0.039,0.035
0.040,0.040
0.039,0.037
0.039,0.038
0.038,0.037
0.041,0.038
0.042,0.036
0.043,0.035
0.043,0.036
0.042,0.036
0.042,0.039
0.041,0.040
0.042,0.043
0.040,0.041
0.039,0.043
0.041,0.043
0.040,0.045
0.042,0.044
0.040,0.044
0.044,0.042
0.038,0.044
0.042,0.044
0.041,0.045
0.041,0.044
0.042,0.044
0.041,0.043
0.039,0.041
0.040,0.041
0.041,0.041
0.044,0.044
0.043,0.042
0.043,0.044
0.042,0.043
0.038,0.045
0.044,0.044
0.041,0.044
0.043,0.043
0.039,0.045
0.043,0.041
0.041,0.041
0.045,0.041
0.042,0.043
0.043,0.039
0.047,0.036
0.044,0.033
0.044,0.034
0.045,0.035
0.047,0.031
0.046,0.034
0.045,0.033
0.044,0.036
0.046,0.032
0.045,0.034
0.041,0.030
0.045,0.031
0.041,0.029
0.045,0.028
0.046,0.026
0.046,0.030
0.043,0.024
0.043,0.027
0.044,0.023
0.045,0.026
0.044,0.024
0.047,0.023
0.046,0.022
0.047,0.018
0.047,0.015
0.046,0.017
0.047,0.012
0.047,0.015
0.044,0.012
0.045,0.012
0.045,0.011
0.046,0.011
0.044,0.011
0.044,0.011
0.045,0.010
0.046,0.013
0.046,0.009
0.050,0.009
0.046,0.002
0.050,0.004
0.047,0.003
0.050,0.003
0.047,0.004
0.048,0.000
0.048,0.005
0.047,0.001
0.045,0.004
0.043,0.002
0.046,0.001
0.045,0.001
0.049,0.002
0.044,-0.001
0.047,-0.001
0.047,-0.003
0.048,-0.005
0.045,-0.005
0.046,-0.004
0.045,0.001
0.045,0.001
0.044,-0.002
0.045,-0.000
0.042,0.002
0.044,0.001
0.043,0.000
0.045,-0.002
0.045,0.000
0.044,-0.003
0.047,-0.002
0.042,-0.006
0.048,-0.003
0.046,-0.002
0.047,-0.001
0.044,0.001
0.043,0.001
0.043,0.002
0.044,0.006
0.040,0.006
0.045,0.006
0.040,0.006
0.043,0.002
0.041,0.008
0.038,0.007
0.039,0.007
0.036,0.008
0.038,0.008
0.038,0.009
0.041,0.009
0.038,0.009
0.042,0.014
0.040,0.010
0.042,0.012
0.043,0.012
0.043,0.011
0.040,0.013
0.044,0.011
0.039,0.015
0.042,0.016
0.039,0.020
0.041,0.017
0.040,0.019
0.042,0.017
0.039,0.020
0.042,0.019
0.043,0.022
0.042,0.021
0.041,0.021
0.041,0.023
0.041,0.028
0.040,0.025
0.041,0.031
0.042,0.029
0.041,0.031
0.041,0.031
0.041,0.033
0.041,0.032
0.042,0.034
0.044,0.033
0.042,0.035
0.040,0.036
0.041,0.036
0.040,0.036
0.041,0.039
0.043,0.039
0.039,0.040
0.041,0.039
0.041,0.039
0.040,0.038
0.041,0.038
0.040,0.039
0.039,0.038
0.044,0.037
0.041,0.039
0.039,0.038
0.041,0.040
0.040,0.039
0.043,0.041
0.040,0.038
0.040,0.044
0.040,0.043
0.041,0.044
0.042,0.046
0.041,0.046
0.040,0.047
0.043,0.044
0.041,0.045
0.045,0.044
0.041,0.042
0.041,0.044
0.041,0.042
0.041,0.045
0.042,0.046
0.043,0.044
0.043,0.048
0.043,0.045
0.041,0.049
0.040,0.045
0.042,0.046
0.043,0.044
0.046,0.044
0.045,0.040
0.045,0.041
0.040,0.044
0.040,0.042
0.039,0.041
0.042,0.039
0.040,0.040
0.042,0.039
0.042,0.038
0.043,0.035
0.042,0.035
0.045,0.033
0.041,0.034
0.045,0.032
0.043,0.034
0.045,0.033
0.043,0.032
0.043,0.034
0.044,0.031
0.040,0.034
0.042,0.031
0.038,0.030
0.039,0.027
0.038,0.027
0.041,0.022
0.041,0.025
0.043,0.023
0.040,0.022
0.043,0.021
0.041,0.020
0.041,0.021
0.041,0.021
0.045,0.018
0.044,0.015
0.045,0.014
0.042,0.015
0.044,0.011
0.040,0.012
0.043,0.008
0.037,0.010
0.040,0.009
0.041,0.011
0.041,0.011
0.042,0.009
0.042,0.008
0.040,0.008
0.041,0.005
0.042,0.006
0.042,0.004
0.044,0.004
0.042,0.002
0.044,0.005
0.042,0.002
0.045,0.003
0.045,0.001
0.046,0.002
0.046,0.003
0.048,0.000
0.049,0.001
0.046,-0.002
0.049,-0.001
0.047,-0.002
0.045,-0.003
0.044,-0.006
0.042,-0.001
0.042,-0.004
0.042,-0.001
0.041,-0.003
0.042,-0.002
0.045,-0.003
0.046,-0.001
0.045,-0.005
0.048,-0.001
0.048,-0.001
0.049,-0.004
0.046,-0.001
0.046,-0.003
0.042,-0.003
0.042,-0.003
0.041,-0.001
0.040,-0.002
0.042,0.000
0.039,-0.002
0.043,-0.000
0.042,0.001
0.044,0.001
0.043,0.002
0.042,0.001
0.042,0.002
0.043,0.006
0.040,0.006
0.042,0.006
0.039,0.008
0.042,0.007
0.041,0.010
0.040,0.010
0.042,0.012
0.042,0.009
0.044,0.011
0.043,0.008
0.043,0.009
0.043,0.008
0.045,0.012
0.043,0.010
0.043,0.013
0.042,0.015
0.043,0.015
0.039,0.013
0.043,0.013
0.041,0.013
0.042,0.016
0.040,0.017
0.043,0.020
0.040,0.022
0.041,0.023
0.038,0.023
0.037,0.026
0.036,0.027
0.036,0.029
0.038,0.028
0.034,0.030
0.037,0.027
0.038,0.030
0.038,0.030
0.038,0.032
0.039,0.032
0.039,0.034
0.040,0.034
0.038,0.035
0.042,0.036
0.039,0.037
0.041,0.036
0.040,0.038
0.037,0.035
0.041,0.037
0.039,0.037
0.040,0.036
0.039,0.036
0.042,0.038
0.042,0.035
0.042,0.037
0.040,0.039
0.045,0.038
0.039,0.041
0.041,0.041
0.037,0.046
0.037,0.043
0.038,0.046
0.040,0.047
0.042,0.047
0.039,0.043
0.046,0.043
0.041,0.041
0.044,0.041
0.043,0.040
0.040,0.040
0.039,0.043
0.041,0.041
0.041,0.046
0.041,0.046
0.040,0.047
0.043,0.044
0.039,0.046
0.042,0.041
0.040,0.043
0.043,0.042
0.041,0.041
0.042,0.040
0.040,0.041
0.040,0.039
0.046,0.041
0.044,0.036
0.047,0.037
0.046,0.037
0.046,0.035
0.041,0.035
0.044,0.036
0.040,0.036
0.043,0.035
0.044,0.034
0.042,0.034
0.042,0.034
0.047,0.032
0.047,0.032
0.046,0.028
0.044,0.027
0.043,0.024
0.045,0.027
0.041,0.024
0.046,0.026
0.043,0.029
0.044,0.026
0.043,0.028
0.044,0.027
0.043,0.023
0.044,0.023
0.045,0.021
0.045,0.021
0.047,0.014
0.046,0.014
0.042,0.012
0.044,0.013
0.045,0.011
0.047,0.011
0.043,0.009
0.046,0.008
0.045,0.006
0.045,0.006
0.044,0.005
0.047,0.007
0.044,0.005
0.046,0.003
0.046,0.004
0.043,0.004
0.043,0.006
0.043,0.004
0.044,0.003
0.044,0.003
0.046,0.004
0.045,0.004
0.044,0.003
0.041,0.002
0.044,0.003
0.043,0.001
0.043,0.004
0.044,-0.001
0.043,-0.003
0.045,-0.002
0.046,-0.005
0.045,-0.003
0.043,-0.006
0.043,-0.002
0.040,-0.002
0.041,-0.002
0.040,-0.002
0.038,-0.001
0.040,0.000
0.038,0.000
0.040,-0.001
0.043,-0.002
0.043,-0.005
0.046,-0.004
0.043,-0.003
0.045,-0.004
0.042,-0.001
0.043,-0.003
0.041,0.002
0.042,-0.003
0.043,0.002
0.042,0.001
0.043,0.001
0.043,0.003
0.043,0.007
0.040,0.005
0.042,0.004
0.040,0.005
0.038,0.005
0.039,0.004
0.039,0.006
0.039,0.007
0.039,0.006
0.041,0.007
0.040,0.007
0.041,0.010
0.045,0.010
0.038,0.011
0.039,0.010
0.038,0.014
0.041,0.011
0.040,0.015
0.038,0.012
0.040,0.015
0.038,0.017
0.039,0.015
0.039,0.016
0.037,0.018
0.039,0.017
0.038,0.020
0.038,0.018
0.037,0.023
0.040,0.022
0.039,0.023
0.039,0.025
0.037,0.027
0.040,0.027
0.036,0.029
0.039,0.028
0.037,0.029
0.041,0.026
0.040,0.030
0.043,0.029
0.041,0.031
0.042,0.030
0.042,0.033
0.041,0.031
0.041,0.034
0.041,0.034
0.040,0.036
0.038,0.033
0.038,0.037
0.039,0.036
0.039,0.037
0.039,0.038
0.039,0.036
0.039,0.036
0.039,0.037
0.040,0.036
0.043,0.041
0.040,0.039
0.043,0.041
0.038,0.041
0.041,0.043
0.039,0.041
0.042,0.039
0.041,0.044
0.041,0.043
0.038,0.045
0.039,0.042
0.039,0.043
0.039,0.044
0.039,0.042
0.042,0.040
0.042,0.041
0.040,0.039
0.045,0.041
0.041,0.038
0.044,0.041
0.042,0.038
0.045,0.040
0.043,0.039
0.045,0.041
0.044,0.040
0.047,0.040
0.045,0.041
0.046,0.038
0.042,0.041
0.044,0.037
0.042,0.037
0.045,0.036
0.043,0.040
0.043,0.035
0.044,0.036
0.042,0.035
0.047,0.035
0.044,0.033
0.045,0.033
0.047,0.032
0.044,0.030
0.047,0.031
0.045,0.032
0.043,0.032
0.049,0.029
0.041,0.029
0.045,0.026
0.042,0.027
0.043,0.024
0.043,0.028
0.041,0.025
0.045,0.026
0.041,0.024
0.046,0.024
0.044,0.020
0.047,0.022
0.046,0.020
0.047,0.021
0.047,0.016
0.047,0.016
0.049,0.013
0.047,0.014
0.048,0.010
0.049,0.011
0.045,0.010
0.048,0.009
0.048,0.010
0.047,0.010
0.044,0.007
0.046,0.008
0.045,0.005
0.045,0.004
0.044,0.001
0.042,0.003
0.046,-0.001
0.045,0.001
0.044,0.001
0.045,0.002
0.045,-0.001
0.045,0.000
0.045,0.003
0.044,-0.001
0.045,0.006
0.045,0.000
0.045,0.001
0.045,-0.004
0.045,-0.002
0.045,-0.002
0.045,-0.003
0.044,-0.003
0.047,-0.006
0.045,-0.006
0.046,-0.005
0.045,-0.004
0.043,-0.004
0.046,-0.003
0.044,-0.004
0.044,0.000
0.046,-0.003
0.043,-0.002
0.044,-0.005
0.047,-0.003
0.039,-0.004
0.044,-0.004
0.040,-0.006
0.044,-0.006
0.042,-0.003
0.042,-0.003
0.044,-0.003
0.044,-0.002
0.045,-0.000
0.043,0.000
0.042,0.000
0.043,0.002
0.039,0.005
0.042,0.004
0.041,0.008
0.043,0.006
0.043,0.008
0.041,0.006
0.045,0.007
0.041,0.008
0.046,0.011
0.040,0.011
0.041,0.009
0.042,0.009
0.044,0.009
0.044,0.008
0.047,0.010
0.046,0.011
0.043,0.010
0.043,0.012
0.044,0.012
0.042,0.015
0.042,0.013
0.044,0.018
0.042,0.014
0.044,0.020
0.044,0.019
0.041,0.016
0.038,0.018
0.040,0.021
0.039,0.026
0.039,0.026
0.041,0.024
0.040,0.026
0.042,0.027
0.043,0.029
0.043,0.031
0.044,0.027
0.043,0.030
0.041,0.028
0.042,0.028
0.042,0.030
0.042,0.030
0.039,0.033
0.038,0.031
0.043,0.037
0.040,0.034
0.043,0.038
0.042,0.035
0.045,0.039
0.044,0.038
0.041,0.042
0.043,0.040
0.039,0.040
0.040,0.039
0.038,0.040
0.038,0.038
0.040,0.045
0.039,0.041
0.045,0.044
0.042,0.043
0.047,0.045
0.043,0.044
0.044,0.042
0.039,0.041
0.041,0.041
0.043,0.041
0.041,0.040
0.041,0.043
0.041,0.042
0.040,0.043
0.038,0.044
0.037,0.046
0.037,0.043
0.037,0.046
0.040,0.040
0.041,0.044
0.037,0.042
0.042,0.042
0.040,0.043
0.045,0.043
0.040,0.040
0.045,0.038
0.043,0.039
0.046,0.038
0.044,0.039
0.043,0.035
0.042,0.038
0.042,0.035
0.042,0.038
0.042,0.034
0.044,0.036
0.043,0.035
0.046,0.036
0.045,0.034
0.049,0.035
0.045,0.031
0.050,0.030
0.047,0.027
0.049,0.027
0.047,0.028
0.050,0.024
0.047,0.027
0.046,0.026
0.046,0.027
0.046,0.023
0.045,0.023
0.045,0.024
0.044,0.024
0.047,0.024
0.045,0.023
0.047,0.020
0.048,0.024
0.046,0.017
0.048,0.019
0.047,0.013
0.049,0.016
0.047,0.013
0.047,0.011
0.046,0.012
0.048,0.014
0.046,0.011
0.046,0.013
0.051,0.011
0.047,0.008
0.050,0.007
0.046,0.008
0.050,0.005
0.043,0.006
0.046,0.003
0.046,0.003
0.046,0.002
0.047,0.003
0.045,0.001
0.047,-0.000
0.046,0.001
0.047,0.001
0.048,0.002
0.049,-0.000
0.049,0.002
0.048,0.003
0.047,0.001
0.048,-0.001
0.045,-0.002
0.047,-0.003
0.043,-0.003
0.047,-0.005
0.044,-0.004
0.046,-0.002
0.047,-0.002
0.044,-0.003
0.046,-0.002
0.045,-0.003
0.046,-0.005
0.046,-0.002
0.047,-0.003
0.045,-0.002
0.046,-0.004
0.046,-0.001
0.045,-0.001
0.046,0.001
0.045,-0.001
0.045,-0.000
0.044,0.002
0.045,0.003
0.045,0.001
0.044,0.005
0.044,0.002
0.044,0.003
0.046,0.002
0.048,0.002
0.048,0.004
0.048,0.005
0.047,0.008
0.042,0.007
0.044,0.008
0.042,0.008
0.039,0.008
0.039,0.009
0.039,0.009
0.043,0.009
0.041,0.011
0.042,0.009
0.044,0.014
0.041,0.010
0.042,0.014
0.041,0.012
0.043,0.015
0.041,0.015
0.045,0.017
0.041,0.019
0.044,0.018
0.043,0.017
0.042,0.018
0.040,0.018
0.039,0.023
0.040,0.020
0.038,0.026
0.036,0.024
0.039,0.029
0.035,0.028
0.038,0.032
0.037,0.032
0.039,0.031
0.041,0.031
0.041,0.034
0.041,0.030
0.041,0.035
0.039,0.033
0.039,0.036
0.039,0.036
0.036,0.035
0.034,0.039
0.028,0.038
0.025,0.037
0.029,0.039
0.039,0.037
0.049,0.039
0.054,0.036
0.054,0.035
0.050,0.039
0.049,0.037
0.047,0.041
0.044,0.040
0.043,0.046
0.041,0.045
0.042,0.045
0.041,0.045
0.041,0.044
0.041,0.041
0.042,0.041
0.042,0.041
0.045,0.042
0.046,0.039
0.047,0.040
0.042,0.041
0.042,0.042
0.042,0.043
0.040,0.041
0.042,0.046
0.043,0.043
0.043,0.046
0.041,0.044
0.042,0.043
0.042,0.044
0.041,0.043
0.041,0.040
0.043,0.042
0.044,0.042
0.043,0.042
0.043,0.040
0.045,0.040
0.043,0.037
0.043,0.038
0.046,0.041
0.043,0.036
0.045,0.039
0.044,0.035
0.043,0.038
0.041,0.035
0.042,0.035
0.043,0.033
0.043,0.033
0.046,0.033
0.044,0.033
0.046,0.029
0.045,0.031
0.044,0.028
0.043,0.024
0.045,0.025
0.045,0.024
0.045,0.025
0.047,0.020
0.046,0.023
0.045,0.020
0.047,0.022
0.045,0.020
0.049,0.018
0.046,0.017
0.045,0.013
0.048,0.011
0.047,0.011
0.047,0.008
0.044,0.008
0.048,0.008
0.044,0.009
0.047,0.009
0.044,0.008
0.046,0.013
0.045,0.009
0.045,0.009
0.045,0.009
0.046,0.005
0.045,0.007
0.046,0.002
0.044,0.008
0.046,0.002
0.044,0.002
0.044,0.002
0.044,0.004
0.042,0.003
0.043,0.002
0.043,0.003
0.044,0.004
0.045,0.003
0.047,0.004
0.042,0.001
0.046,0.001
0.043,-0.001
0.048,-0.002
0.044,-0.002
0.044,-0.003
0.045,-0.003
0.045,-0.003
0.044,0.000
0.043,-0.001
0.043,-0.002
0.043,-0.003
0.045,-0.003
0.043,-0.004
0.044,-0.003
0.043,-0.003
0.042,-0.000
0.041,-0.005
0.043,0.001
0.043,-0.005
0.045,-0.004
0.043,-0.003
0.046,0.001
0.043,0.002
0.045,0.001
0.040,0.003
0.042,0.002
0.043,0.004
0.043,0.005
0.045,0.006
0.043,0.003
0.046,0.005
0.043,0.004
0.043,0.006
0.040,0.003
0.042,0.007
0.040,0.006
0.042,0.006
0.041,0.010
0.044,0.008
0.041,0.014
0.043,0.009
0.041,0.012
0.040,0.010
0.041,0.014
0.042,0.012
0.041,0.012
0.041,0.013
0.043,0.016
0.042,0.018
0.044,0.019
0.041,0.018
0.042,0.019
0.039,0.018
0.044,0.021
0.041,0.020
0.043,0.023
0.040,0.026
0.038,0.027
0.038,0.028
0.037,0.031
0.041,0.028
0.037,0.034
0.040,0.031
0.038,0.033
0.042,0.033
0.040,0.034
0.042,0.032
0.039,0.035
0.041,0.037
0.039,0.036
0.039,0.036
0.038,0.037
0.039,0.036
0.036,0.037
0.039,0.037
0.042,0.040
0.038,0.039
0.043,0.040
0.040,0.038
0.039,0.038
0.040,0.037
0.040,0.040
0.040,0.042
0.042,0.043
0.040,0.043
0.042,0.041
0.038,0.045
0.040,0.042
0.040,0.048
0.041,0.043
0.042,0.043
0.041,0.043
0.046,0.041
0.043,0.042
0.045,0.043
0.042,0.041
0.041,0.044
0.041,0.045
0.040,0.045
0.040,0.043
0.043,0.046
0.043,0.047
0.041,0.045
0.041,0.046
0.044,0.043
0.042,0.046
0.031,0.044
0.000,0.045
-0.031,0.042
-0.057,0.041
-0.072,0.037
-0.065,0.041
-0.035,0.038
-0.002,0.040
0.024,0.037
0.052,0.037
0.061,0.035
0.075,0.036
0.084,0.036
0.093,0.037
0.096,0.033
0.101,0.033
0.100,0.034
0.101,0.034
0.084,0.033
0.062,0.028
0.030,0.031
-0.018,0.025
-0.051,0.029
-0.059,0.026
-0.042,0.026
-0.008,0.025
0.035,0.026
0.060,0.023
0.069,0.023
0.062,0.021
0.050,0.019
0.033,0.021
0.019,0.021
0.014,0.019
0.024,0.020
0.042,0.018
0.061,0.014
0.071,0.015
0.084,0.013
0.088,0.014
0.086,0.012
0.073,0.013
0.066,0.011
0.052,0.010
0.025,0.007
0.002,0.006
-0.006,0.008
-0.001,0.001
0.010,0.005
0.031,0.001
0.056,0.002
0.075,0.001
0.089,-0.000
0.099,0.002
0.104,-0.001
0.106,0.001
0.108,0.003
0.104,0.002
0.105,0.001
0.101,0.002
0.100,0.001
0.097,-0.001
0.095,-0.002
0.090,-0.002
0.088,-0.004
0.079,-0.004
0.074,-0.003
0.065,-0.005
0.061,-0.001
0.057,-0.003
0.053,0.001
0.051,-0.001
0.052,0.002
0.051,0.001
0.049,0.001
0.050,-0.002
0.048,-0.002
0.049,-0.006
0.047,-0.003
0.048,-0.003
0.049,-0.002
0.047,0.002
0.049,0.002
0.045,0.005
0.044,0.001
0.044,0.005
0.045,0.001
0.045,0.004
0.043,0.004
0.046,0.004
0.043,0.001
0.045,0.003
0.045,0.004
0.044,0.004
0.043,0.008
0.045,0.007
0.044,0.007
0.042,0.006
0.044,0.008
0.041,0.008
0.039,0.007
0.040,0.009
0.042,0.014
0.041,0.012
0.040,0.016
0.041,0.015
0.042,0.016
0.042,0.013
0.043,0.015
0.039,0.013
0.040,0.017
0.039,0.016
0.038,0.016
0.038,0.019
0.036,0.021
0.036,0.020
0.034,0.024
0.037,0.024
0.033,0.028
0.036,0.027
0.035,0.029
0.040,0.028
0.039,0.030
0.038,0.029
0.040,0.031
0.038,0.031
0.038,0.033
0.037,0.032
0.038,0.034
0.040,0.034
0.038,0.035
0.043,0.036
0.041,0.034
0.042,0.034
0.039,0.038
0.044,0.037
0.038,0.042
0.039,0.039
0.040,0.041
0.040,0.037
0.041,0.040
0.039,0.040
0.042,0.042
0.039,0.039
0.041,0.040
0.040,0.039
0.041,0.044
0.040,0.044
0.042,0.044
0.040,0.048
0.040,0.044
0.038,0.048
0.040,0.044
0.038,0.046
0.038,0.043
0.038,0.044
0.037,0.039
0.039,0.043
0.038,0.042
0.043,0.045
0.039,0.042
0.041,0.044
0.041,0.044
0.039,0.045
0.040,0.043
0.042,0.043
0.039,0.045
0.042,0.042
0.041,0.044
0.045,0.042
0.041,0.044
0.045,0.043
0.044,0.041
0.045,0.038
0.046,0.037
0.045,0.036
0.047,0.038
0.047,0.036
0.048,0.035
0.043,0.035
0.046,0.036
0.041,0.035
0.045,0.032
0.044,0.034
0.045,0.033
0.045,0.033
0.045,0.032
0.043,0.031
0.044,0.031
0.036,0.028
0.032,0.027
0.033,0.029
0.035,0.024
0.043,0.026
0.048,0.022
0.056,0.022
0.056,0.024
0.056,0.021
0.053,0.020
0.050,0.018
0.049,0.015
0.049,0.016
0.046,0.012
0.046,0.015
0.045,0.013
0.045,0.009
0.045,0.010
0.046,0.008
0.046,0.008
0.047,0.007
0.047,0.007
0.046,0.006
0.047,0.004
0.043,0.006
0.043,0.003
0.042,0.003
0.040,0.001
0.037,0.001
0.040,-0.001
0.041,0.002
0.050,-0.000
0.051,0.001
0.054,-0.002
0.057,-0.002
0.054,-0.002
0.051,-0.002
0.049,0.002
0.050,0.001
0.048,0.001
0.047,-0.002
0.047,-0.001
0.045,-0.003
0.047,-0.004
0.043,-0.003
0.046,-0.006
0.044,-0.009
0.046,-0.005
0.047,-0.004
0.046,-0.005
0.048,-0.003
0.049,-0.006
0.048,-0.005
0.050,-0.007
0.049,-0.005
0.046,-0.006
0.046,-0.001
0.046,-0.004
0.048,-0.004
0.043,-0.004
0.046,-0.004
0.045,-0.005
0.045,-0.003
0.045,-0.003
0.047,-0.002
0.045,-0.002
0.044,-0.001
0.045,-0.001
0.044,-0.003
0.044,0.005
0.042,0.000
0.043,0.007
0.042,0.003
0.041,0.008
0.042,0.006
0.045,0.009
0.041,0.008
0.044,0.009
0.039,0.007
0.044,0.009
0.043,0.010
0.044,0.011
0.045,0.012
0.046,0.010
0.045,0.013
0.043,0.013
0.044,0.013
0.046,0.014
0.046,0.014
0.045,0.013
0.044,0.017
0.043,0.019
0.044,0.018
0.046,0.019
0.044,0.022
0.044,0.021
0.043,0.024
0.045,0.024
0.044,0.024
0.045,0.026
0.046,0.026
0.045,0.030
0.045,0.026
0.045,0.030
0.043,0.030
0.046,0.030
0.043,0.029
0.051,0.031
0.046,0.030
0.046,0.032
0.044,0.035
0.044,0.034
0.044,0.035
0.044,0.036
0.043,0.038
0.046,0.037
0.042,0.042
0.046,0.037
0.043,0.039
0.043,0.036
0.041,0.037
0.041,0.040
0.044,0.040
0.040,0.040
0.043,0.044
0.041,0.041
0.045,0.041
0.044,0.040
0.046,0.040
0.047,0.041
0.047,0.040
0.046,0.041
0.046,0.037
0.044,0.040
0.048,0.037
0.043,0.041
0.044,0.041
0.046,0.043
0.046,0.039
0.045,0.043
0.044,0.040
0.049,0.045
0.046,0.043
0.050,0.041
0.048,0.042
0.048,0.042
0.048,0.043
0.049,0.043
0.049,0.040
0.049,0.038
0.050,0.040
0.052,0.039
0.050,0.039
0.049,0.039
0.046,0.038
0.048,0.036
0.044,0.034
0.046,0.035
0.048,0.036
0.047,0.034
0.048,0.034
0.048,0.032
0.047,0.034
0.050,0.030
0.049,0.028
0.049,0.028
0.049,0.027
0.045,0.029
0.047,0.026
0.043,0.027
0.047,0.025
0.045,0.025
0.049,0.022
0.047,0.022
0.048,0.022
0.046,0.019
0.048,0.020
0.048,0.017
0.050,0.016
0.050,0.014
0.051,0.012
0.049,0.010
0.052,0.008
0.048,0.007
0.050,0.006
0.047,0.007
0.048,0.005
0.046,0.007
0.045,0.004
0.050,0.006
0.050,0.003
0.050,0.004
0.050,0.001
0.052,-0.001
0.049,-0.003
0.049,-0.001
0.050,-0.002
0.050,-0.002
0.049,-0.002
0.050,-0.001
0.049,-0.001
0.049,-0.002
0.047,-0.001
0.050,-0.001
0.048,-0.000
0.050,-0.001
0.049,-0.001
0.049,-0.005
0.049,-0.005
0.048,-0.007
0.050,-0.005
0.045,-0.010
0.049,-0.007
0.049,-0.007
0.050,-0.009
0.051,-0.006
0.051,-0.007
0.052,-0.007
0.052,-0.005
0.049,-0.007
0.053,-0.004
0.049,-0.005
0.049,-0.005
0.049,-0.003
0.048,-0.003
0.046,-0.003
0.049,-0.004
0.048,-0.000
0.049,-0.002
0.046,0.000
0.044,0.001
0.046,0.000
0.045,0.004
0.048,0.001
0.043,0.006
0.046,0.004
0.044,0.004
0.047,0.006
0.044,0.005
0.047,0.006
0.049,0.006
0.047,0.004
0.047,0.008
0.049,0.006
0.047,0.009
0.047,0.007
0.046,0.008
0.046,0.006
0.049,0.008
0.048,0.010
0.047,0.008
0.046,0.012
0.048,0.011
0.047,0.013
0.049,0.015
0.050,0.015
0.048,0.014
0.046,0.018
0.047,0.017
0.044,0.016
0.044,0.017
0.041,0.022
0.044,0.021
0.045,0.022
0.045,0.023
0.045,0.024
0.047,0.026
0.048,0.027
0.046,0.027
0.046,0.022
0.047,0.027
0.044,0.026
0.046,0.030
0.043,0.029
0.045,0.030
0.044,0.032
0.043,0.031
0.044,0.033
0.044,0.033
0.046,0.036
0.043,0.035
0.044,0.037
0.045,0.036
0.043,0.034
0.044,0.033
0.039,0.034
0.041,0.034
0.040,0.038
0.044,0.036
0.044,0.039
0.042,0.038
0.045,0.038
0.046,0.040
0.047,0.040
0.048,0.040
0.036,0.039
0.021,0.042
-0.002,0.041
-0.042,0.040
-0.060,0.038
-0.065,0.040
-0.042,0.040
-0.010,0.039
0.026,0.040
0.054,0.039
0.079,0.041
0.090,0.041
0.102,0.042
0.107,0.043
0.109,0.041
0.114,0.043
0.110,0.042
0.103,0.039
0.092,0.040
0.083,0.036
0.072,0.037
0.067,0.036
0.062,0.039
0.056,0.036
0.055,0.038
0.052,0.035
0.052,0.036
0.052,0.034
0.049,0.034
0.046,0.037
0.033,0.034
0.023,0.032
-0.007,0.028
-0.034,0.030
-0.045,0.026
-0.051,0.030
-0.039,0.025
-0.019,0.026
0.013,0.025
0.044,0.024
0.068,0.023
0.090,0.022
0.101,0.020
0.107,0.020
0.104,0.021
0.086,0.023
0.057,0.021
0.026,0.022
0.001,0.021
-0.013,0.019
-0.004,0.014
0.013,0.014
0.040,0.011
0.059,0.010
0.080,0.009
0.087,0.009
0.097,0.007
0.100,0.008
0.106,0.006
0.107,0.007
0.114,0.004
0.107,0.004
0.103,0.005
0.092,0.005
0.086,-0.000
0.077,0.001
0.071,-0.002
0.067,-0.001
0.062,-0.001
0.059,-0.000
0.053,-0.001
0.053,0.001
0.045,0.002
0.028,-0.001
0.005,0.002
-0.013,-0.003
-0.032,0.000
-0.039,-0.004
-0.039,-0.004
-0.018,-0.005
0.005,-0.007
0.025,-0.006
0.045,-0.007
0.062,-0.009
0.071,-0.008
0.078,-0.008
0.082,-0.008
0.087,-0.005
0.087,-0.006
0.091,-0.005
0.090,-0.007
0.089,-0.007
0.089,-0.008
0.084,-0.007
0.080,-0.008
0.073,-0.008
0.067,-0.008
0.062,-0.006
0.059,-0.005
0.055,-0.003
0.054,-0.001
0.052,-0.003
0.051,-0.002
0.051,-0.003
0.049,-0.000
0.048,-0.001
0.049,0.003
0.046,0.001
0.046,0.003
0.046,0.003
0.047,0.001
0.047,0.002
0.049,0.003
0.047,0.006
0.048,0.005
0.049,0.006
0.047,0.006
0.050,0.008
0.047,0.005
0.048,0.010
0.045,0.008
0.047,0.011
0.047,0.008
0.050,0.013
0.046,0.009
0.047,0.011
0.044,0.011
0.043,0.011
0.043,0.012
0.042,0.016
0.043,0.017
0.040,0.019
0.040,0.017
0.038,0.020
0.040,0.021
0.038,0.022
0.041,0.023
0.038,0.024
0.040,0.027
0.039,0.025
0.040,0.029
0.038,0.025
0.042,0.028
0.040,0.027
0.042,0.031
0.041,0.031
0.041,0.030
0.040,0.035
0.040,0.030
0.040,0.035
0.038,0.034
0.037,0.038
0.039,0.038
0.040,0.038
0.042,0.036
0.042,0.038
0.041,0.034
0.040,0.037
0.038,0.039
0.033,0.039
0.026,0.039
0.028,0.038
0.027,0.036
0.038,0.036
0.041,0.038
0.047,0.040
0.050,0.039
0.048,0.038
0.049,0.041
0.046,0.041
0.044,0.042
0.044,0.040
0.041,0.043
0.042,0.042
0.039,0.044
0.038,0.038
0.040,0.041
0.038,0.040
0.041,0.039
0.039,0.040
0.040,0.038
0.039,0.039
0.041,0.039
0.040,0.038
0.041,0.037
0.043,0.040
0.043,0.040
0.042,0.039
0.042,0.039
0.042,0.040
0.042,0.039
0.042,0.039
0.042,0.036
0.045,0.037
0.044,0.032
0.047,0.034
0.043,0.030
0.045,0.031
0.046,0.032
0.047,0.030
0.044,0.033
0.048,0.030
0.044,0.030
0.046,0.026
0.045,0.030
0.044,0.028
0.046,0.024
0.044,0.023
0.044,0.022
0.044,0.021
0.045,0.021
0.042,0.019
0.044,0.019
0.042,0.018
0.044,0.020
0.043,0.017
0.046,0.013
0.045,0.011
0.045,0.011
0.044,0.009
0.042,0.010
0.043,0.006
0.040,0.007
0.045,0.006
0.041,0.006
0.046,0.005
0.045,0.007
0.047,0.005
0.042,0.003
0.045,0.003
0.046,0.002
0.045,0.001
0.047,-0.000
0.047,-0.001
0.044,-0.002
0.045,-0.004
0.048,-0.003
0.046,-0.003
0.049,-0.002
0.047,-0.001
0.046,-0.003
0.044,-0.000
0.044,-0.002
0.044,-0.001
0.048,-0.003
0.047,-0.003
0.047,-0.004
0.044,-0.005
0.045,-0.010
0.043,-0.005
0.042,-0.007
0.045,-0.005
0.045,-0.009
0.047,-0.007
0.045,-0.005
0.049,-0.008
0.047,-0.004
0.049,-0.008
0.049,-0.007
0.047,-0.008
0.047,-0.007
0.047,-0.007
0.043,-0.007
0.043,-0.006
0.045,-0.006
0.045,-0.006
0.044,-0.005
0.047,-0.006
0.047,-0.005
0.046,-0.004
0.047,-0.003
0.047,-0.002
0.046,-0.005
0.043,-0.001
0.046,-0.002
0.043,0.001
0.044,-0.001
0.038,0.003
0.038,0.001
0.033,0.004
0.035,0.005
0.036,0.005
0.041,0.004
0.049,0.006
0.048,0.005
0.051,0.008
0.049,0.006
0.048,0.008
0.047,0.010
0.046,0.009
0.044,0.012
0.045,0.009
0.043,0.011
0.046,0.012
0.046,0.015
0.045,0.014
0.044,0.017
0.044,0.016
0.045,0.016
0.046,0.019
0.042,0.021
0.048,0.021
0.043,0.021
0.045,0.023
0.043,0.021
0.043,0.022
0.043,0.023
0.043,0.027
0.041,0.026
0.045,0.024
0.042,0.024
0.042,0.026
0.041,0.026
0.043,0.032
0.044,0.030
0.042,0.032
0.045,0.028
0.042,0.032
0.043,0.031
0.042,0.032
0.041,0.035
0.043,0.033
0.040,0.037
0.044,0.036
0.041,0.034
0.043,0.033
0.041,0.037
0.043,0.036
0.044,0.037
0.046,0.040
0.043,0.039
0.046,0.037
0.055,0.041
0.060,0.039
0.043,0.038
0.028,0.037
0.023,0.036
0.018,0.039
0.019,0.037
0.016,0.038
0.018,0.037
0.018,0.039
0.020,0.041
0.023,0.041
0.041,0.041
0.056,0.042
0.070,0.039
0.077,0.043
0.077,0.039
0.074,0.041
0.065,0.039
0.062,0.038
0.055,0.037
0.053,0.039
0.051,0.038
0.052,0.037
0.056,0.036
0.062,0.035
0.060,0.038
0.049,0.035
0.032,0.037
0.029,0.033
0.024,0.033
0.024,0.032
0.027,0.031
0.025,0.027
0.030,0.030
0.029,0.029
0.035,0.026
0.036,0.025
0.042,0.026
0.047,0.024
0.058,0.021
0.065,0.024
0.072,0.023
0.073,0.024
0.071,0.022
0.065,0.022
0.063,0.019
0.059,0.022
0.060,0.017
0.056,0.021
0.054,0.016
0.053,0.018
0.049,0.014
0.049,0.013
0.048,0.009
0.044,0.010
0.046,0.008
0.048,0.010
0.050,0.008
0.049,0.009
0.049,0.007
0.045,0.008
0.047,0.007
0.048,0.006
0.047,0.005
0.047,0.004
0.048,-0.000
0.047,0.001
0.045,-0.001
0.046,0.001
0.046,-0.002
0.047,-0.001
0.045,0.000
0.046,-0.002
0.045,0.002
0.045,-0.003
0.043,0.001
0.040,-0.001
0.043,0.000
0.042,-0.003
0.046,-0.002
0.049,-0.002
0.047,-0.004
0.046,-0.004
0.047,-0.003
0.045,-0.004
0.046,-0.003
0.047,-0.003
0.047,-0.002
0.047,-0.002
0.047,-0.002
0.048,-0.003
0.046,-0.004
0.045,-0.000
0.044,-0.004
0.042,-0.000
0.041,-0.003
0.043,-0.002
0.042,-0.002
0.042,-0.001
0.038,0.000
0.044,0.000
0.037,0.000
0.044,0.001
0.047,-0.001
0.046,0.002
0.048,0.004
0.045,0.003
0.046,0.005
0.046,0.003
0.044,0.009
0.046,0.004
0.043,0.008
0.042,0.007
0.042,0.009
0.041,0.007
0.045,0.011
0.043,0.009
0.045,0.009
0.042,0.008
0.045,0.012
0.043,0.011
0.044,0.012
0.044,0.014
0.043,0.014
0.044,0.016
0.042,0.013
0.043,0.017
0.037,0.015
0.029,0.017
0.022,0.015
0.017,0.021
0.018,0.020
0.019,0.019
0.012,0.022
-0.001,0.023
-0.024,0.025
-0.055,0.023
-0.062,0.028
-0.062,0.026
-0.041,0.025
-0.027,0.028
-0.017,0.029
-0.013,0.028
-0.010,0.031
0.008,0.027
0.034,0.034
0.064,0.031
0.088,0.035
0.108,0.035
0.115,0.035
0.101,0.037
0.073,0.036
0.020,0.038
-0.017,0.035
-0.082,0.035
-0.130,0.033
-0.143,0.033
-0.126,0.033
-0.086,0.034
-0.045,0.034
-0.018,0.037
-0.020,0.036
-0.025,0.041
-0.012,0.039
0.021,0.043
0.070,0.039
0.117,0.043
0.156,0.040
0.177,0.043
0.174,0.039
0.155,0.042
0.123,0.037
0.095,0.041
0.069,0.040
0.064,0.040
0.057,0.039
0.062,0.041
0.068,0.047
0.080,0.043
0.097,0.046
0.105,0.045
0.112,0.047
0.114,0.043
0.114,0.045
0.114,0.042
0.112,0.046
0.106,0.041
0.106,0.042
0.101,0.039
0.099,0.039
0.092,0.036
0.087,0.034
0.080,0.038
0.074,0.036
0.061,0.038
0.045,0.036
0.036,0.038
0.026,0.035
0.024,0.032
0.025,0.033
0.027,0.031
0.032,0.026
0.042,0.030
0.043,0.026
0.051,0.031
0.049,0.026
0.053,0.026
0.049,0.025
0.049,0.023
0.049,0.026
0.052,0.019
0.053,0.024
0.056,0.020
0.060,0.020
0.067,0.016
0.076,0.017
0.080,0.013
0.085,0.012
0.088,0.011
0.090,0.011
0.090,0.006
0.087,0.010
0.085,0.007
0.082,0.009
0.074,0.008
0.071,0.008
0.066,0.004
0.064,0.007
0.063,0.007
0.059,0.010
0.061,0.007
0.055,0.005
0.058,0.001
0.053,-0.001
0.055,-0.003
0.056,-0.001
0.057,-0.004
0.055,-0.003
0.052,-0.004
0.053,-0.003
0.051,-0.001
0.052,-0.002
0.053,-0.000
0.052,-0.002
0.050,-0.000
0.049,-0.003
0.049,-0.003
0.050,-0.004
0.051,-0.004
0.050,-0.006
0.047,-0.005
0.047,-0.005
0.048,-0.003
0.047,-0.005
0.047,-0.004
0.047,-0.005
0.049,-0.006
0.048,-0.005
0.049,-0.007
0.052,-0.003
0.073,-0.004
0.084,0.000
0.087,-0.003
0.081,-0.001
0.073,-0.003
0.061,-0.003
0.050,-0.003
0.043,-0.004
0.036,-0.003
0.028,-0.004
0.023,-0.003
0.019,-0.001
0.023,0.002
0.025,0.001
0.031,0.002
0.033,-0.001
0.037,0.003
0.041,0.001
0.047,0.004
0.056,0.002
0.067,0.006
0.071,0.003
0.072,0.004
0.065,0.004
0.061,0.005
0.054,0.007
0.048,0.008
0.038,0.009
0.038,0.009
0.032,0.011
0.025,0.011
0.021,0.011
0.015,0.010
0.014,0.012
0.015,0.011
0.017,0.011
0.024,0.016
0.027,0.016
0.031,0.017
0.033,0.018
0.035,0.021
0.037,0.020
0.039,0.025
0.038,0.023
0.039,0.027
0.039,0.024
0.038,0.026
0.038,0.024
0.039,0.023
0.039,0.025
0.042,0.029
0.038,0.027
0.038,0.027
0.039,0.029
0.039,0.028
0.038,0.033
0.040,0.033
0.037,0.033
0.043,0.032
0.039,0.033
0.041,0.032
0.042,0.033
0.039,0.035
0.039,0.034
0.038,0.032
0.038,0.036
0.036,0.034
0.037,0.036
0.038,0.037
0.036,0.038
0.041,0.036
0.044,0.041
0.046,0.037
0.051,0.040
0.050,0.037
0.059,0.039
0.057,0.036
0.056,0.033
0.051,0.034
0.040,0.033
0.028,0.038
0.022,0.037
0.019,0.040
0.023,0.038
0.030,0.039
0.036,0.039
0.044,0.042
0.045,0.038
0.047,0.040
0.048,0.039
0.050,0.038
0.051,0.035
0.051,0.037
0.050,0.035
0.051,0.035
0.050,0.033
0.050,0.032
0.049,0.035
0.049,0.031
0.049,0.037
0.041,0.034
0.035,0.034
0.033,0.032
0.030,0.033
0.031,0.032
0.032,0.032
0.034,0.030
0.038,0.032
0.038,0.028
0.041,0.027
0.039,0.024
0.037,0.025
0.033,0.026
0.045,0.023
0.060,0.023
0.052,0.021
