File Version,253.000000
# of Channels,2.000000
Samples/Channel,10300.000000
Scan Rate (Hz),10000.000000
Timestamp,3807792971.046736
Operating Mode,1.000000
Trial #,2.000000
Session #,25.000000
Subject code 1,82.000000
Subject code 2,88.000000
Feedback Window,0.000000
Feedback Ch,0.000000
Ch B,0.000000
Pre-Stim Acq. time (ms),100.000000
Post-Stim Acq. time (ms),900.000000
EMG Hi Limit,50.000000
EMG Lo Limit,0.000250
Target Value (V),5.000000
Stimulus Value (V),0.629971
Stimulus duration (ms),1.000000
EMG conditions time limit (sec),0.200000
M-response Start (ms),2.000000
M-response Duration (ms),2.000000
H-response Duration (ms),2.000000
H-response Start (ms),5.000000
Proportioanl gain,0.003000
Channel to monitor,0.000000
SIU gain,20.000000
FB Monitor value,0.007752
Inter-Stim delay (sec),5.000000
M-Window Mean,0.005590
H-Window Mean,0.001620
Stimulus paradigm,2.000000
# of Pulses in cond train,1.000000
Cond duration (ms),1.000000
Cond Train pulse period (ms),30.000000
Cond Value (V),0.629971
Start Delay (ms),0.000000
# of Pulses in stim train,1.000000
Stim Train pulse period (ms),30.000000
EMG amp gain ch 1,500.000000
EMG amp gain ch 2,500.000000
EMG amp gain ch 3,1000.000000
EMG amp gain ch 4,1000.000000
EMG amp gain ch 5,1000.000000
EMG amp gain ch 6,1000.000000
Stim Type 1,2.000000
Stim/Cond 1,0.000000
Stim Type 2,3.000000
Stim/Cond 2,0.000000
Stim Type 3,3.000000
Stim/Cond 3,0.000000
Stim Type 4,3.000000
Stim/Cond 4,0.000000
Stim Value 1,0.629971
Stim Value 2,0.000000
Stim Value 3,0.000000
Stim Value 4,0.000000
1st PP Channel,-1.000000
Pressure (g),0.000000
Speed (mm/sec),0.000000
Dwell (ms),0.000000
Pressure limit (g),0.000000
Travel limit (mm),0.000000
Amp gain,0.000000
Wait Trig?,0.000000
Move Timeout (ms),0.000000
Time Taken (ms),0.000000
Actual Travel (mm),0.000000
Recorded Data (mV),
0.050,0.024
0.047,0.020
0.050,0.021
0.050,0.020
0.051,0.020
0.050,0.015
0.052,0.015
0.048,0.013
0.049,0.014
0.047,0.011
0.050,0.010
0.050,0.009
0.053,0.010
0.049,0.008
0.053,0.011
0.050,0.007
0.054,0.010
0.051,0.009
0.054,0.006
0.050,0.007
0.050,0.001
0.050,0.006
0.048,0.003
0.047,0.006
0.047,0.005
0.046,0.007
0.046,0.008
0.049,0.008
0.049,0.003
0.052,0.003
0.052,-0.001
0.054,-0.000
0.052,-0.004
0.050,-0.003
0.049,-0.004
0.049,-0.006
0.045,0.001
0.052,0.000
0.049,0.004
0.051,0.000
0.050,0.004
0.049,0.001
0.050,0.001
0.047,-0.001
0.049,-0.001
0.049,-0.003
0.051,-0.000
0.050,-0.003
0.050,-0.003
0.048,0.002
0.047,0.000
0.046,0.003
0.046,0.002
0.044,0.007
0.047,0.005
0.044,0.008
0.044,0.005
0.045,0.006
0.044,0.005
0.050,0.006
0.045,0.005
0.048,0.004
0.047,0.006
0.047,0.007
0.045,0.010
0.047,0.010
0.047,0.013
0.046,0.011
0.046,0.012
0.047,0.011
0.044,0.014
0.046,0.011
0.041,0.014
0.035,0.010
0.019,0.015
-0.016,0.014
-0.042,0.013
-0.053,0.016
-0.050,0.016
-0.031,0.014
-0.001,0.016
0.029,0.017
0.052,0.019
0.069,0.019
0.079,0.024
0.089,0.022
0.094,0.026
0.100,0.028
0.103,0.031
0.102,0.030
0.097,0.032
0.092,0.030
0.083,0.030
0.076,0.030
0.068,0.033
0.062,0.032
0.058,0.032
0.054,0.034
0.049,0.035
0.049,0.033
0.049,0.036
0.047,0.038
0.045,0.039
0.048,0.034
0.047,0.037
0.047,0.037
0.049,0.035
0.049,0.037
0.048,0.034
0.047,0.037
0.046,0.036
0.045,0.038
0.045,0.039
0.042,0.043
0.047,0.040
0.043,0.042
0.047,0.044
0.044,0.045
0.046,0.043
0.046,0.042
0.048,0.043
0.049,0.041
0.047,0.042
0.048,0.038
0.047,0.041
0.045,0.039
0.045,0.043
0.043,0.043
0.043,0.046
0.044,0.044
0.042,0.047
0.044,0.045
0.041,0.046
0.044,0.045
0.043,0.046
0.044,0.044
0.046,0.045
0.047,0.042
0.046,0.042
0.048,0.042
0.046,0.041
0.047,0.043
0.048,0.040
0.045,0.041
0.046,0.040
0.045,0.041
0.046,0.039
0.046,0.040
0.046,0.040
0.047,0.038
0.045,0.036
0.049,0.034
0.047,0.031
0.046,0.030
0.047,0.032
0.047,0.028
0.048,0.028
0.046,0.028
0.045,0.029
0.046,0.027
0.048,0.027
0.048,0.025
0.047,0.030
0.049,0.023
0.050,0.024
0.049,0.023
0.049,0.023
0.047,0.019
0.046,0.018
0.048,0.014
0.046,0.013
0.048,0.012
0.048,0.014
0.049,0.011
0.048,0.012
0.049,0.010
0.047,0.013
0.049,0.008
0.047,0.009
0.047,0.009
0.046,0.010
0.049,0.012
0.048,0.011
0.048,0.008
0.044,0.005
0.048,0.003
0.047,0.001
0.048,-0.003
0.049,0.001
0.047,-0.003
0.047,0.001
0.048,-0.002
0.049,0.000
0.046,0.000
0.050,0.000
0.047,0.001
0.051,-0.004
0.047,-0.002
0.051,-0.003
0.046,-0.005
0.046,-0.007
0.044,-0.006
0.043,-0.006
0.046,-0.004
0.048,-0.008
0.049,-0.007
0.050,-0.006
0.049,-0.007
0.050,-0.002
0.050,-0.002
0.049,-0.001
0.050,-0.001
0.049,-0.000
0.048,-0.001
0.047,-0.002
0.048,-0.005
0.045,-0.004
0.046,-0.005
0.046,-0.003
0.044,-0.004
0.047,-0.001
0.047,0.000
0.046,-0.002
0.047,0.003
0.045,0.000
0.046,0.005
0.044,0.004
0.045,0.004
0.046,0.002
0.042,0.003
0.047,0.002
0.042,0.008
0.044,0.007
0.042,0.009
0.045,0.007
0.046,0.008
0.045,0.008
0.045,0.010
0.046,0.010
0.047,0.012
0.048,0.015
0.047,0.012
0.045,0.016
0.045,0.012
0.043,0.016
0.042,0.016
0.045,0.016
0.042,0.014
0.046,0.019
0.045,0.019
0.045,0.019
0.044,0.022
0.045,0.022
0.045,0.024
0.042,0.025
0.045,0.025
0.040,0.028
0.044,0.029
0.043,0.029
0.044,0.030
0.044,0.028
0.045,0.031
0.042,0.031
0.043,0.034
0.041,0.031
0.044,0.031
0.041,0.033
0.043,0.033
0.046,0.033
0.044,0.034
0.045,0.037
0.047,0.036
0.046,0.040
0.044,0.036
0.044,0.038
0.045,0.036
0.044,0.039
0.045,0.038
0.042,0.042
0.042,0.038
0.046,0.044
0.042,0.042
0.044,0.043
0.043,0.042
0.047,0.043
0.042,0.042
0.044,0.041
0.042,0.042
0.044,0.039
0.042,0.043
0.043,0.041
0.042,0.044
0.043,0.046
0.043,0.045
0.042,0.046
0.045,0.046
0.041,0.044
0.045,0.047
0.044,0.043
0.048,0.044
0.045,0.042
0.047,0.044
0.046,0.041
0.047,0.041
0.047,0.039
0.048,0.040
0.043,0.042
0.048,0.036
0.044,0.040
0.049,0.039
0.048,0.039
0.046,0.037
0.047,0.036
0.047,0.036
0.048,0.036
0.048,0.035
0.051,0.034
0.050,0.034
0.049,0.034
0.049,0.034
0.050,0.032
0.048,0.032
0.049,0.028
0.046,0.029
0.049,0.028
0.047,0.028
0.048,0.025
0.046,0.025
0.049,0.025
0.044,0.025
0.044,0.023
0.047,0.023
0.045,0.022
0.045,0.022
0.046,0.018
0.049,0.017
0.048,0.016
0.045,0.015
0.049,0.014
0.048,0.013
0.047,0.012
0.048,0.015
0.047,0.010
0.049,0.010
0.049,0.008
0.049,0.010
0.047,0.007
0.048,0.006
0.049,0.005
0.048,0.009
0.048,0.003
0.049,0.002
0.050,0.002
0.051,0.001
0.051,0.002
0.051,0.003
0.050,0.003
0.049,-0.000
0.050,0.004
0.050,0.001
0.049,0.003
0.049,0.001
0.048,0.006
0.048,0.001
0.047,0.000
0.048,-0.002
0.051,-0.002
0.049,-0.003
0.049,-0.006
0.046,-0.004
0.047,-0.006
0.047,-0.004
0.047,-0.004
0.050,-0.002
0.048,-0.003
0.047,-0.002
0.047,-0.005
0.046,-0.002
0.044,-0.002
0.046,-0.000
0.044,-0.003
0.049,0.003
0.048,-0.002
0.049,0.001
0.047,-0.001
0.049,0.000
0.049,-0.000
0.048,-0.003
0.046,0.001
0.047,-0.001
0.047,0.004
0.046,0.000
0.046,0.007
0.049,0.003
0.043,0.007
0.044,0.005
0.044,0.008
0.042,0.003
0.047,0.010
0.043,0.006
0.049,0.008
0.046,0.010
0.047,0.009
0.046,0.012
0.045,0.010
0.044,0.013
0.045,0.013
0.045,0.016
0.045,0.015
0.043,0.014
0.045,0.014
0.043,0.015
0.042,0.015
0.040,0.019
0.042,0.017
0.041,0.022
0.041,0.020
0.040,0.025
0.041,0.024
0.041,0.026
0.041,0.023
0.043,0.029
0.043,0.026
0.045,0.028
0.044,0.027
0.046,0.030
0.045,0.030
0.042,0.026
0.044,0.031
0.045,0.031
0.046,0.032
0.045,0.034
0.045,0.035
0.046,0.036
0.045,0.036
0.042,0.038
0.044,0.035
0.043,0.038
0.045,0.039
0.042,0.040
0.044,0.040
0.041,0.040
0.045,0.037
0.044,0.040
0.042,0.036
0.043,0.040
0.041,0.038
0.043,0.041
0.042,0.044
0.042,0.039
0.044,0.043
0.045,0.043
0.041,0.045
0.045,0.043
0.042,0.047
0.043,0.044
0.042,0.044
0.045,0.044
0.045,0.042
0.042,0.042
0.045,0.042
0.043,0.043
0.046,0.044
0.047,0.042
0.045,0.043
0.047,0.046
0.044,0.045
0.046,0.046
0.045,0.045
0.044,0.047
0.046,0.045
0.043,0.047
0.045,0.041
0.047,0.042
0.046,0.039
0.048,0.041
0.047,0.039
0.045,0.035
0.047,0.036
0.048,0.036
0.047,0.038
0.045,0.035
0.047,0.036
0.046,0.035
0.042,0.035
0.046,0.033
0.045,0.034
0.045,0.032
0.047,0.033
0.048,0.029
0.049,0.032
0.051,0.031
0.049,0.030
0.050,0.028
0.050,0.027
0.051,0.024
0.050,0.023
0.050,0.022
0.051,0.022
0.052,0.020
0.052,0.020
0.052,0.017
0.050,0.015
0.052,0.011
0.050,0.012
0.048,0.010
0.051,0.009
0.051,0.010
0.052,0.009
0.052,0.011
0.051,0.010
0.048,0.010
0.051,0.008
0.049,0.004
0.051,0.006
0.049,0.000
0.049,0.001
0.048,0.001
0.048,0.000
0.048,0.002
0.048,0.000
0.047,0.003
0.047,0.000
0.045,0.000
0.046,0.001
0.050,0.002
0.044,0.001
0.052,0.002
0.049,0.000
0.051,0.003
0.049,-0.002
0.050,-0.003
0.050,-0.005
0.053,-0.006
0.048,-0.004
0.050,-0.005
0.045,-0.003
0.049,-0.005
0.049,-0.003
0.047,-0.007
0.050,-0.006
0.046,-0.006
0.054,-0.006
0.051,-0.005
0.052,-0.006
0.049,-0.004
0.049,-0.006
0.049,-0.005
0.049,-0.005
0.048,-0.002
0.046,-0.001
0.044,0.002
0.044,-0.001
0.045,-0.002
0.048,0.002
0.046,0.001
0.045,0.001
0.046,0.004
0.046,0.000
0.047,0.002
0.046,0.002
0.048,0.003
0.046,0.002
0.047,0.004
0.049,0.007
0.050,0.003
0.049,0.008
0.050,0.007
0.044,0.008
0.045,0.007
0.046,0.010
0.046,0.010
0.047,0.009
0.048,0.010
0.047,0.010
0.046,0.008
0.046,0.013
0.045,0.010
0.047,0.013
0.043,0.013
0.045,0.012
0.042,0.015
0.046,0.014
0.042,0.016
0.046,0.019
0.041,0.020
0.042,0.022
0.041,0.023
0.043,0.026
0.042,0.027
0.045,0.028
0.045,0.025
0.042,0.024
0.029,0.027
0.007,0.030
-0.024,0.030
-0.048,0.029
-0.054,0.031
-0.049,0.031
-0.026,0.029
0.004,0.031
0.036,0.031
0.061,0.033
0.076,0.033
0.090,0.031
0.096,0.033
0.101,0.036
0.104,0.036
0.105,0.035
0.103,0.036
0.095,0.032
0.089,0.037
0.081,0.036
0.071,0.039
0.068,0.038
0.060,0.040
0.057,0.040
0.054,0.042
0.053,0.037
0.052,0.039
0.053,0.039
0.052,0.039
0.053,0.039
0.048,0.039
0.050,0.042
0.047,0.040
0.045,0.041
0.045,0.042
0.045,0.041
0.047,0.042
0.045,0.041
0.047,0.040
0.049,0.041
0.047,0.040
0.049,0.043
0.051,0.041
0.050,0.041
0.049,0.040
0.049,0.041
0.049,0.039
0.050,0.038
0.048,0.042
0.050,0.035
0.049,0.038
0.048,0.038
0.047,0.039
0.046,0.034
0.050,0.036
0.047,0.034
0.050,0.031
0.047,0.030
0.050,0.030
0.048,0.026
0.050,0.028
0.051,0.027
0.047,0.025
0.049,0.029
0.048,0.026
0.045,0.026
0.048,0.024
0.045,0.025
0.048,0.024
0.048,0.026
0.047,0.020
0.047,0.023
0.047,0.021
0.049,0.020
0.049,0.017
0.050,0.014
0.049,0.011
0.049,0.011
0.050,0.010
0.048,0.013
0.050,0.007
0.046,0.011
0.050,0.006
0.047,0.008
0.051,0.007
0.050,0.009
0.048,0.006
0.050,0.006
0.048,0.006
0.046,0.004
0.048,0.002
0.045,0.000
0.047,-0.002
0.047,0.000
0.049,-0.002
0.051,0.001
0.051,-0.003
0.049,-0.002
0.047,-0.000
0.049,-0.002
0.045,0.001
0.049,-0.003
0.049,-0.001
0.050,0.000
0.049,-0.005
0.048,-0.005
0.051,-0.008
0.050,-0.009
0.047,-0.007
0.048,-0.007
0.049,-0.005
0.049,-0.006
0.050,-0.006
0.047,-0.007
0.051,-0.006
0.049,-0.005
0.052,-0.007
0.049,-0.003
0.049,-0.006
0.043,-0.003
0.045,-0.002
0.047,-0.007
0.046,-0.004
0.047,-0.006
0.049,-0.005
0.047,-0.004
0.047,-0.002
0.044,-0.002
0.046,0.000
0.047,-0.001
0.044,-0.001
0.046,-0.001
0.043,-0.000
0.045,0.000
0.043,0.003
0.044,0.003
0.045,0.004
0.044,0.002
0.047,0.004
0.047,0.006
0.047,0.003
0.046,0.005
0.046,0.006
0.046,0.010
0.044,0.008
0.046,0.010
0.045,0.009
0.045,0.012
0.043,0.011
0.042,0.014
0.046,0.015
0.044,0.013
0.045,0.014
0.044,0.019
0.047,0.014
0.045,0.019
0.046,0.017
0.044,0.022
0.046,0.020
0.044,0.022
0.045,0.023
0.046,0.024
0.048,0.024
0.047,0.026
0.045,0.024
0.045,0.027
0.043,0.024
0.043,0.028
0.042,0.028
0.044,0.027
0.043,0.031
0.045,0.031
0.044,0.031
0.045,0.036
0.041,0.036
0.043,0.037
0.042,0.036
0.043,0.039
0.044,0.036
0.042,0.040
0.042,0.037
0.044,0.037
0.044,0.036
0.046,0.036
0.043,0.036
0.046,0.036
0.043,0.040
0.044,0.039
0.043,0.041
0.041,0.038
0.043,0.041
0.044,0.041
0.044,0.043
0.045,0.041
0.045,0.045
0.046,0.040
0.049,0.044
0.046,0.041
0.047,0.041
0.043,0.039
0.044,0.044
0.043,0.041
0.046,0.041
0.042,0.041
0.043,0.043
0.041,0.039
0.042,0.043
0.045,0.039
0.045,0.041
0.046,0.041
0.048,0.039
0.046,0.041
0.049,0.040
0.047,0.042
0.046,0.036
0.043,0.038
0.045,0.035
0.046,0.034
0.045,0.034
0.047,0.034
0.045,0.033
0.045,0.032
0.046,0.030
0.046,0.032
0.047,0.034
0.046,0.033
0.047,0.035
0.048,0.032
0.047,0.033
0.047,0.028
0.046,0.031
0.048,0.026
0.049,0.030
0.048,0.026
0.051,0.026
0.048,0.023
0.048,0.024
0.048,0.023
0.049,0.022
0.050,0.020
0.050,0.021
0.051,0.019
0.049,0.018
0.049,0.014
0.047,0.017
0.047,0.010
0.045,0.012
0.046,0.011
0.045,0.011
0.047,0.012
0.047,0.010
0.049,0.007
0.049,0.009
0.048,0.004
0.051,0.007
0.046,0.004
0.052,0.007
0.049,0.001
0.054,0.003
0.050,0.001
0.051,-0.001
0.049,0.001
0.051,-0.001
0.048,0.002
0.052,0.000
0.049,0.001
0.052,0.002
0.050,0.001
0.051,0.002
0.050,-0.001
0.052,-0.001
0.049,-0.002
0.050,-0.005
0.051,-0.006
0.052,-0.007
0.049,-0.005
0.051,-0.003
0.052,-0.004
0.049,-0.001
0.050,-0.003
0.048,-0.000
0.049,-0.003
0.046,-0.003
0.050,-0.005
0.048,-0.003
0.047,-0.004
0.050,-0.004
0.045,-0.005
0.049,-0.003
0.049,-0.004
0.047,-0.002
0.049,-0.000
0.048,-0.002
0.048,-0.004
0.044,-0.000
0.044,0.003
0.045,0.002
0.043,0.005
0.045,0.003
0.047,0.004
0.048,0.002
0.048,0.004
0.046,0.004
0.048,0.005
0.049,0.007
0.046,0.006
0.046,0.005
0.046,0.007
0.048,0.006
0.046,0.008
0.047,0.009
0.046,0.010
0.045,0.009
0.046,0.011
0.044,0.014
0.047,0.014
0.045,0.019
0.047,0.015
0.042,0.017
0.043,0.015
0.039,0.016
0.040,0.017
0.040,0.021
0.043,0.017
0.041,0.018
0.044,0.022
0.045,0.022
0.044,0.024
0.043,0.024
0.045,0.024
0.045,0.027
0.046,0.027
0.046,0.027
0.045,0.026
0.047,0.028
0.043,0.029
0.044,0.033
0.042,0.030
0.042,0.035
0.042,0.035
0.044,0.036
0.041,0.035
0.042,0.040
0.046,0.036
0.045,0.039
0.045,0.039
0.047,0.038
0.044,0.036
0.045,0.038
0.044,0.040
0.044,0.039
0.042,0.039
0.044,0.040
0.044,0.040
0.043,0.040
0.045,0.044
0.043,0.043
0.046,0.046
0.045,0.044
0.043,0.047
0.044,0.045
0.048,0.045
0.047,0.043
0.047,0.044
0.044,0.039
0.044,0.043
0.039,0.039
0.043,0.043
0.042,0.041
0.044,0.041
0.044,0.045
0.045,0.045
0.043,0.047
0.043,0.045
0.041,0.049
0.044,0.045
0.042,0.046
0.042,0.041
0.043,0.043
0.041,0.041
0.043,0.043
0.045,0.039
0.045,0.039
0.046,0.036
0.049,0.038
0.045,0.037
0.047,0.038
0.047,0.036
0.050,0.035
0.046,0.037
0.047,0.032
0.045,0.036
0.046,0.034
0.043,0.034
0.044,0.031
0.045,0.032
0.045,0.029
0.048,0.029
0.045,0.027
0.048,0.028
0.045,0.027
0.049,0.026
0.046,0.026
0.049,0.024
0.047,0.021
0.049,0.022
0.048,0.019
0.050,0.020
0.009,0.001
0.008,0.003
0.007,0.003
0.012,0.006
0.012,0.008
0.018,0.009
0.014,0.008
0.019,0.012
0.019,0.010
0.021,0.011
0.062,0.025
0.070,0.025
0.072,0.020
0.081,0.017
0.082,0.013
0.086,0.010
0.081,0.009
0.079,0.008
0.074,0.008
0.066,0.008
0.052,0.007
0.045,0.002
0.039,0.002
0.043,0.001
0.049,0.005
0.049,0.003
0.053,0.002
0.054,0.000
0.055,0.002
0.052,0.000
0.056,0.000
0.052,0.001
0.053,-0.004
0.052,-0.001
0.050,-0.002
0.049,-0.001
0.048,-0.003
0.050,-0.002
0.050,-0.004
0.053,-0.001
0.049,-0.003
0.054,-0.003
0.052,-0.003
0.053,-0.003
0.051,-0.005
0.053,-0.003
0.052,-0.003
0.050,-0.002
0.047,-0.001
0.050,0.000
0.046,-0.002
0.048,-0.002
0.047,-0.000
0.047,0.000
0.047,-0.000
0.045,0.001
0.049,0.001
0.044,0.001
0.047,0.002
0.043,0.002
0.046,0.003
0.046,0.003
0.045,0.004
0.042,0.003
0.046,0.005
0.043,0.006
0.047,0.007
0.047,0.012
0.044,0.010
0.041,0.011
0.043,0.008
0.042,0.010
0.042,0.010
0.045,0.013
0.042,0.012
0.047,0.012
0.042,0.010
0.047,0.015
0.045,0.014
0.046,0.016
0.044,0.014
0.045,0.017
0.042,0.017
0.046,0.023
0.040,0.022
0.043,0.023
0.040,0.024
0.043,0.026
0.044,0.027
0.043,0.030
0.046,0.029
0.042,0.031
0.044,0.029
0.040,0.034
0.044,0.032
0.042,0.033
0.043,0.032
0.042,0.034
0.043,0.034
0.041,0.034
0.041,0.035
0.044,0.035
0.046,0.034
0.044,0.033
0.042,0.032
0.045,0.036
0.043,0.036
0.045,0.036
0.042,0.035
0.042,0.036
0.040,0.040
0.041,0.038
0.040,0.040
0.040,0.041
0.039,0.042
0.042,0.042
0.039,0.043
0.042,0.041
0.042,0.043
0.044,0.040
0.045,0.044
0.043,0.041
0.046,0.041
0.044,0.040
0.044,0.041
0.042,0.044
0.044,0.044
0.042,0.046
0.043,0.043
0.041,0.042
0.042,0.044
0.044,0.045
0.044,0.041
0.044,0.041
0.043,0.042
0.049,0.041
0.049,0.040
0.048,0.040
0.047,0.040
0.043,0.038
0.045,0.038
0.043,0.035
0.044,0.036
0.040,0.036
0.043,0.036
0.046,0.037
0.043,0.036
0.045,0.035
0.044,0.036
0.045,0.032
0.046,0.034
0.046,0.030
0.047,0.031
0.047,0.030
0.046,0.027
0.049,0.029
0.046,0.028
0.049,0.029
0.047,0.027
0.048,0.028
0.047,0.027
0.047,0.028
0.047,0.024
0.047,0.024
0.048,0.023
0.044,0.023
0.049,0.021
0.047,0.020
0.050,0.017
0.046,0.018
0.047,0.014
0.047,0.017
0.050,0.015
0.047,0.011
0.048,0.013
0.047,0.013
0.050,0.014
0.046,0.013
0.052,0.009
0.048,0.008
0.049,0.004
0.045,0.007
0.047,0.004
0.047,0.003
0.047,0.002
0.048,0.004
0.047,0.003
0.049,0.003
0.048,0.002
0.050,0.000
0.047,0.003
0.049,0.002
0.048,0.003
0.048,0.002
0.047,0.002
0.049,0.001
0.049,0.000
0.050,-0.002
0.047,-0.001
0.039,-0.005
0.023,-0.005
-0.001,-0.007
-0.032,-0.005
-0.048,-0.007
-0.050,-0.006
-0.032,-0.003
-0.002,-0.003
0.028,-0.003
0.056,-0.005
0.074,-0.000
0.088,-0.003
0.093,-0.002
0.101,0.000
0.103,0.001
0.106,-0.001
0.106,-0.002
0.101,-0.002
0.096,0.001
0.088,-0.001
0.075,0.000
0.068,0.002
0.061,0.000
0.056,0.002
0.060,0.001
0.050,0.003
0.051,0.003
0.047,0.007
0.047,0.005
0.044,0.007
0.046,0.008
0.048,0.009
0.047,0.007
0.049,0.008
0.046,0.008
0.048,0.008
0.047,0.007
0.046,0.008
0.047,0.011
0.046,0.011
0.047,0.014
0.047,0.013
0.046,0.014
0.049,0.014
0.044,0.015
0.049,0.015
0.045,0.017
0.044,0.018
0.043,0.019
0.047,0.020
0.044,0.020
0.047,0.022
0.041,0.023
0.043,0.021
0.043,0.024
0.045,0.022
0.044,0.026
0.045,0.025
0.045,0.024
0.042,0.023
0.046,0.025
0.044,0.023
0.046,0.026
0.045,0.027
0.044,0.032
0.045,0.030
0.044,0.038
0.043,0.034
0.041,0.036
0.040,0.034
0.043,0.036
0.043,0.038
0.045,0.037
0.042,0.038
0.045,0.039
0.044,0.038
0.045,0.036
0.045,0.037
0.045,0.037
0.044,0.035
0.042,0.036
0.042,0.041
0.041,0.041
0.041,0.044
0.042,0.043
0.040,0.044
0.043,0.043
0.043,0.045
0.042,0.041
0.043,0.040
0.044,0.041
0.044,0.042
0.039,0.041
0.042,0.041
0.041,0.040
0.043,0.040
0.042,0.041
0.042,0.041
0.043,0.043
0.044,0.041
0.042,0.044
0.044,0.042
0.041,0.045
0.041,0.041
0.044,0.042
0.041,0.038
0.046,0.038
0.043,0.035
0.045,0.038
0.045,0.036
0.047,0.035
0.046,0.035
0.042,0.034
0.044,0.035
0.042,0.034
0.043,0.037
0.045,0.034
0.044,0.033
0.042,0.032
0.045,0.031
0.043,0.030
0.049,0.027
0.048,0.027
0.050,0.027
0.046,0.024
0.049,0.026
0.049,0.025
0.049,0.023
0.047,0.023
0.051,0.020
0.049,0.024
0.051,0.020
0.047,0.019
0.046,0.016
0.049,0.017
0.047,0.013
0.048,0.015
0.047,0.010
0.045,0.010
0.050,0.011
0.047,0.010
0.045,0.005
0.044,0.007
0.044,0.003
0.043,0.009
0.043,0.007
0.047,0.006
0.046,0.006
0.047,0.006
0.049,0.003
0.046,0.001
0.049,0.000
0.044,-0.001
0.047,-0.001
0.046,-0.001
0.047,-0.001
0.047,-0.002
0.046,-0.003
0.048,-0.002
0.046,-0.004
0.048,-0.005
0.047,-0.003
0.049,-0.008
0.049,-0.004
0.049,-0.007
0.049,-0.005
0.048,-0.003
0.049,-0.004
0.046,-0.007
0.043,-0.007
0.047,-0.008
0.046,-0.003
0.048,-0.004
0.048,-0.005
0.048,-0.006
0.046,-0.009
0.049,-0.007
0.048,-0.010
0.049,-0.004
0.048,-0.006
0.047,-0.003
0.045,-0.004
0.047,-0.005
0.043,-0.004
0.044,-0.002
0.043,-0.003
0.046,-0.002
0.045,-0.002
0.045,0.002
0.044,-0.001
0.046,0.001
0.044,-0.002
0.045,0.000
0.045,0.002
0.044,0.002
0.045,0.003
0.044,0.004
0.042,0.009
0.043,0.006
0.044,0.007
0.044,0.006
0.043,0.008
0.044,0.006
0.044,0.008
0.043,0.008
0.044,0.008
0.043,0.009
0.049,0.010
0.045,0.008
0.042,0.008
0.043,0.009
0.042,0.012
0.042,0.011
0.043,0.014
0.042,0.014
0.043,0.018
0.041,0.017
0.039,0.019
0.042,0.020
0.040,0.021
0.041,0.019
0.041,0.025
0.040,0.024
0.042,0.029
0.039,0.029
0.044,0.030
0.041,0.026
0.043,0.028
0.042,0.029
0.044,0.029
0.044,0.027
0.044,0.033
0.043,0.030
0.045,0.032
0.045,0.034
0.045,0.035
0.042,0.037
0.046,0.036
0.041,0.036
0.045,0.037
0.042,0.040
0.046,0.036
0.043,0.041
0.043,0.036
0.041,0.039
0.042,0.040
0.040,0.043
0.039,0.040
0.041,0.042
0.040,0.044
0.044,0.042
0.042,0.041
0.044,0.042
0.044,0.044
0.046,0.045
0.043,0.042
0.045,0.042
0.044,0.045
0.043,0.043
0.040,0.049
0.041,0.047
0.040,0.048
0.042,0.047
0.043,0.049
0.042,0.045
0.047,0.049
0.047,0.046
0.062,0.047
0.054,0.045
0.035,0.047
0.029,0.042
0.023,0.044
0.020,0.044
0.022,0.043
0.020,0.045
0.025,0.039
0.029,0.044
0.033,0.040
0.041,0.042
0.054,0.040
0.069,0.041
0.072,0.037
0.076,0.038
0.069,0.037
0.069,0.035
0.062,0.035
0.058,0.031
0.054,0.035
0.053,0.034
0.049,0.034
0.050,0.031
0.047,0.032
0.049,0.030
0.046,0.032
0.046,0.029
0.043,0.030
0.044,0.026
0.045,0.027
0.046,0.024
0.046,0.023
0.048,0.022
0.049,0.020
0.048,0.017
0.048,0.018
0.049,0.015
0.048,0.016
0.048,0.015
0.047,0.014
0.048,0.012
0.048,0.013
0.046,0.010
0.047,0.010
0.046,0.009
0.046,0.007
0.047,0.009
0.047,0.007
0.049,0.007
0.051,0.007
0.050,0.003
0.048,0.002
0.049,0.004
0.049,0.004
0.050,0.003
0.049,0.002
0.044,0.004
0.048,0.000
0.049,0.007
0.048,0.003
0.048,0.004
0.049,0.000
0.049,-0.000
0.051,0.000
0.054,-0.002
0.052,-0.004
0.052,-0.007
0.050,-0.004
0.050,-0.003
0.050,-0.003
0.048,-0.002
0.050,-0.001
0.050,-0.001
0.050,-0.001
0.052,-0.001
0.051,0.003
0.051,-0.002
0.052,0.005
0.049,-0.001
0.050,-0.001
0.047,-0.003
0.049,-0.003
0.047,-0.003
0.048,-0.004
0.049,-0.002
0.048,0.000
0.049,0.003
0.046,0.002
0.049,0.005
0.049,0.003
0.045,0.004
0.045,0.005
0.049,0.008
0.047,0.008
0.047,0.010
0.047,0.007
0.050,0.010
0.045,0.007
0.047,0.009
0.045,0.008
0.050,0.010
0.047,0.016
0.049,0.011
0.047,0.015
0.046,0.014
0.046,0.015
0.045,0.016
0.047,0.016
0.044,0.016
0.048,0.017
0.046,0.021
0.045,0.017
0.045,0.019
0.045,0.019
0.047,0.023
0.043,0.024
0.045,0.023
0.043,0.027
0.045,0.024
0.046,0.028
0.046,0.029
0.045,0.031
0.046,0.030
0.046,0.031
0.045,0.029
0.044,0.032
0.046,0.030
0.046,0.031
0.049,0.032
0.047,0.033
0.048,0.033
0.046,0.036
0.046,0.036
0.045,0.039
0.045,0.039
0.045,0.037
0.044,0.041
0.043,0.040
0.045,0.038
0.046,0.039
0.047,0.038
0.045,0.039
0.047,0.038
0.047,0.039
0.043,0.039
0.044,0.040
0.043,0.041
0.044,0.044
0.042,0.046
0.046,0.045
0.045,0.045
0.048,0.044
0.044,0.046
0.045,0.044
0.045,0.045
0.045,0.043
0.047,0.044
0.045,0.042
0.046,0.042
0.045,0.043
0.045,0.043
0.045,0.047
0.048,0.044
0.049,0.047
0.047,0.045
0.049,0.049
0.048,0.046
0.046,0.047
0.045,0.046
0.044,0.046
0.045,0.046
0.047,0.043
0.046,0.042
0.049,0.041
0.047,0.040
0.048,0.041
0.047,0.041
0.046,0.039
0.047,0.040
0.048,0.038
0.047,0.041
0.049,0.035
0.047,0.037
0.046,0.035
0.050,0.035
0.047,0.031
0.052,0.031
0.047,0.031
0.050,0.031
0.050,0.030
0.052,0.029
0.049,0.028
0.050,0.029
0.048,0.030
0.049,0.026
0.050,0.028
0.048,0.025
0.050,0.026
0.051,0.023
0.051,0.026
0.052,0.019
0.054,0.020
0.053,0.015
0.050,0.018
0.046,0.011
0.049,0.015
0.049,0.012
0.047,0.014
0.049,0.013
0.048,0.011
0.049,0.013
0.047,0.013
0.049,0.010
0.046,0.010
0.048,0.007
0.039,0.008
0.024,0.004
0.003,0.006
-0.032,0.003
-0.049,0.005
-0.054,0.005
-0.034,0.002
-0.004,0.004
0.028,0.003
0.055,0.006
0.076,0.000
0.089,0.003
0.096,0.000
0.103,0.002
0.110,0.001
0.111,0.003
0.112,0.001
0.106,-0.000
0.097,-0.003
0.088,-0.001
0.077,-0.003
0.072,-0.001
0.064,-0.001
0.062,-0.004
0.059,-0.002
0.056,-0.004
0.053,-0.001
0.052,0.000
0.052,-0.001
0.049,-0.002
0.053,-0.002
0.050,-0.003
0.050,-0.000
0.051,0.000
0.049,-0.002
0.049,-0.002
0.049,-0.002
0.049,0.003
0.045,0.002
0.048,0.006
0.048,0.004
0.047,0.008
0.045,0.007
0.048,0.010
0.046,0.004
0.050,0.004
0.047,0.001
0.050,0.006
0.049,0.006
0.050,0.008
0.046,0.006
0.045,0.010
0.048,0.011
0.047,0.012
0.049,0.015
0.048,0.011
0.046,0.015
0.045,0.012
0.044,0.016
0.045,0.013
0.044,0.015
0.045,0.012
0.045,0.016
0.045,0.018
0.045,0.018
0.045,0.021
0.044,0.022
0.045,0.022
0.044,0.023
0.047,0.021
0.041,0.026
0.045,0.024
0.043,0.027
0.044,0.027
0.044,0.031
0.043,0.032
0.043,0.032
0.046,0.029
0.041,0.030
0.046,0.030
0.045,0.030
0.046,0.030
0.046,0.035
0.046,0.035
0.045,0.039
0.045,0.037
0.045,0.039
0.044,0.036
0.046,0.040
0.044,0.040
0.046,0.040
0.046,0.038
0.047,0.041
0.044,0.037
0.044,0.038
0.043,0.036
0.044,0.037
0.042,0.040
0.043,0.038
0.041,0.043
0.041,0.043
0.039,0.045
0.041,0.043
0.040,0.046
0.041,0.046
0.044,0.044
0.042,0.042
0.045,0.043
0.042,0.041
0.043,0.043
0.042,0.041
0.043,0.042
0.043,0.044
0.044,0.046
0.045,0.043
0.044,0.045
0.042,0.045
0.043,0.044
0.045,0.043
0.047,0.045
0.043,0.042
0.047,0.041
0.047,0.040
0.047,0.039
0.049,0.038
0.049,0.034
0.051,0.037
0.049,0.034
0.052,0.036
0.049,0.038
0.048,0.034
0.047,0.037
0.048,0.033
0.046,0.036
0.049,0.034
0.047,0.034
0.049,0.033
0.049,0.032
0.049,0.030
0.049,0.029
0.049,0.027
0.049,0.027
0.047,0.023
0.049,0.025
0.047,0.025
0.049,0.023
0.048,0.022
0.049,0.020
0.049,0.019
0.050,0.021
0.047,0.017
0.050,0.016
0.049,0.014
0.049,0.012
0.051,0.013
0.048,0.011
0.050,0.011
0.050,0.010
0.047,0.010
0.050,0.010
0.049,0.008
0.049,0.007
0.048,0.007
0.051,0.005
0.049,0.006
0.049,0.006
0.049,0.006
0.048,0.002
0.046,0.005
0.047,0.003
0.049,0.003
0.049,0.001
0.048,0.001
0.048,-0.000
0.050,-0.000
0.049,-0.003
0.049,0.000
0.047,-0.003
0.045,-0.003
0.047,-0.000
0.052,-0.003
0.050,-0.002
0.050,-0.003
0.049,0.001
0.050,-0.006
0.048,-0.002
0.047,-0.005
0.049,-0.002
0.047,-0.002
0.046,-0.001
0.047,-0.004
0.052,-0.004
0.051,-0.007
0.053,-0.003
0.051,-0.006
0.051,-0.005
0.049,-0.005
0.051,-0.007
0.049,-0.002
0.050,-0.003
0.047,-0.003
0.047,-0.006
0.047,-0.003
0.045,-0.004
0.049,0.001
0.047,-0.002
0.050,0.002
0.047,-0.001
0.047,-0.001
0.045,0.000
0.047,-0.000
0.045,0.000
0.048,-0.000
0.045,0.001
0.049,0.001
0.045,0.005
0.046,0.004
0.045,0.007
0.047,0.008
0.047,0.013
0.043,0.013
0.046,0.017
0.046,0.017
0.048,0.017
0.049,0.015
0.050,0.015
0.050,0.013
0.049,0.014
0.047,0.014
0.049,0.014
0.047,0.017
0.047,0.018
0.046,0.017
0.048,0.018
0.044,0.020
0.045,0.021
0.040,0.024
0.041,0.024
0.041,0.023
0.041,0.026
0.043,0.026
0.044,0.027
0.045,0.028
0.044,0.030
0.044,0.030
0.045,0.031
0.043,0.030
0.043,0.031
0.043,0.031
0.044,0.034
0.044,0.032
0.046,0.035
0.044,0.034
0.044,0.035
0.044,0.033
0.045,0.036
0.045,0.036
0.047,0.035
0.046,0.038
0.047,0.037
0.041,0.042
0.043,0.040
0.043,0.037
0.041,0.039
0.043,0.041
0.044,0.040
0.044,0.040
0.043,0.041
0.045,0.045
0.048,0.041
0.049,0.043
0.048,0.039
0.050,0.042
0.048,0.042
0.047,0.041
0.044,0.043
0.045,0.040
0.043,0.043
0.043,0.044
0.045,0.044
0.042,0.045
0.048,0.043
0.045,0.043
0.046,0.045
0.049,0.044
0.046,0.044
0.047,0.043
0.048,0.042
0.048,0.045
0.048,0.045
0.048,0.046
0.048,0.044
0.046,0.043
0.049,0.043
0.047,0.043
0.047,0.039
0.049,0.041
0.046,0.034
0.049,0.037
0.050,0.035
0.048,0.036
0.048,0.037
0.049,0.036
0.049,0.038
0.048,0.033
0.050,0.033
0.050,0.028
0.050,0.029
0.047,0.029
0.048,0.030
0.046,0.029
0.051,0.028
0.047,0.026
0.050,0.029
0.051,0.026
0.051,0.025
0.049,0.023
0.047,0.022
0.047,0.020
0.049,0.020
0.049,0.016
0.049,0.017
0.050,0.017
0.050,0.015
0.049,0.011
0.047,0.012
0.047,0.011
0.048,0.013
0.047,0.011
0.049,0.014
0.049,0.011
0.050,0.012
0.048,0.010
0.050,0.008
0.047,0.008
0.049,0.007
0.048,0.005
0.049,0.003
0.048,0.004
0.049,0.003
0.047,0.007
0.047,0.007
0.046,0.005
0.046,0.004
0.047,0.007
0.050,0.003
0.050,0.002
0.050,-0.003
0.053,-0.001
0.050,-0.003
0.052,-0.003
0.050,-0.005
0.051,-0.005
0.047,-0.002
0.048,-0.001
0.047,0.002
0.048,0.003
0.046,0.001
0.048,0.002
0.047,0.002
0.049,0.000
0.049,0.002
0.047,-0.003
0.049,0.000
0.045,-0.001
0.048,-0.001
0.046,-0.002
0.047,-0.003
0.045,0.000
0.049,-0.001
0.045,0.003
0.047,0.005
0.046,0.006
0.046,0.007
0.043,0.006
0.045,0.008
0.046,0.007
0.045,0.007
0.047,0.006
0.046,0.006
0.046,0.007
0.047,0.007
0.045,0.009
0.036,0.010
0.018,0.010
-0.014,0.011
-0.041,0.011
-0.053,0.012
-0.053,0.011
-0.035,0.015
-0.003,0.014
0.025,0.014
0.054,0.014
0.071,0.015
0.084,0.012
0.093,0.018
0.100,0.018
0.102,0.020
0.104,0.021
0.101,0.019
0.096,0.023
0.089,0.023
0.081,0.024
0.074,0.023
0.069,0.028
0.061,0.029
0.057,0.030
0.052,0.034
0.052,0.031
0.052,0.031
0.050,0.032
0.050,0.033
0.048,0.032
0.046,0.032
0.045,0.034
0.047,0.032
0.046,0.032
0.048,0.037
0.047,0.034
0.051,0.036
0.048,0.035
0.050,0.036
0.049,0.037
0.049,0.037
0.048,0.038
0.045,0.037
0.045,0.039
0.043,0.038
0.042,0.039
0.045,0.040
0.042,0.042
0.041,0.041
0.044,0.041
0.044,0.042
0.045,0.042
0.044,0.043
0.048,0.044
0.043,0.040
0.046,0.041
0.043,0.041
0.045,0.042
0.044,0.041
0.043,0.042
0.042,0.044
0.042,0.043
0.042,0.047
0.043,0.045
0.042,0.047
0.043,0.046
0.041,0.048
0.043,0.042
0.047,0.042
0.045,0.039
0.050,0.039
0.045,0.039
0.049,0.041
0.045,0.039
0.048,0.038
0.048,0.037
0.046,0.034
0.047,0.037
0.045,0.036
0.045,0.036
0.041,0.033
0.045,0.036
0.043,0.034
0.047,0.036
0.042,0.031
0.049,0.032
0.047,0.031
0.049,0.031
0.047,0.032
0.048,0.028
0.045,0.032
0.046,0.028
0.043,0.030
0.047,0.026
0.045,0.030
0.045,0.023
0.046,0.024
0.049,0.024
0.047,0.023
0.046,0.024
0.046,0.022
0.047,0.021
0.046,0.016
0.049,0.017
0.049,0.015
0.049,0.013
0.046,0.013
0.045,0.009
0.045,0.012
0.045,0.012
0.047,0.010
0.049,0.009
0.047,0.008
0.048,0.008
0.042,0.008
0.047,0.006
0.045,0.005
0.047,0.004
0.048,0.004
0.046,0.001
0.047,0.000
0.046,-0.000
0.047,0.000
0.046,0.003
0.046,-0.002
0.045,0.004
0.047,0.000
0.045,0.003
0.047,0.002
0.047,0.001
0.047,0.001
0.046,-0.002
0.045,-0.003
0.049,-0.004
0.044,-0.006
0.048,-0.007
0.048,-0.007
0.046,-0.007
0.049,-0.004
0.048,-0.004
0.048,-0.001
0.051,-0.002
0.049,-0.000
0.046,-0.005
0.047,-0.003
0.043,-0.005
0.044,-0.002
0.046,-0.003
0.049,-0.005
0.046,-0.007
0.048,-0.007
0.046,-0.007
0.047,-0.005
0.046,-0.005
0.044,-0.005
0.045,-0.003
0.042,-0.003
0.041,0.002
0.044,-0.000
0.041,0.002
0.044,0.001
0.045,0.004
0.041,0.002
0.045,0.006
0.044,0.003
0.045,0.004
0.046,0.002
0.048,0.002
0.045,0.006
0.045,0.005
0.045,0.008
0.043,0.006
0.042,0.011
0.042,0.010
0.042,0.011
0.043,0.010
0.043,0.011
0.043,0.011
0.043,0.010
0.042,0.010
0.041,0.015
0.042,0.014
0.041,0.018
0.041,0.016
0.041,0.020
0.039,0.020
0.039,0.025
0.040,0.023
0.043,0.026
0.045,0.028
0.044,0.028
0.047,0.029
0.044,0.030
0.044,0.029
0.044,0.030
0.045,0.028
0.043,0.031
0.043,0.029
0.040,0.030
0.042,0.030
0.038,0.032
0.040,0.033
0.038,0.035
0.039,0.034
0.039,0.037
0.039,0.036
0.043,0.036
0.040,0.037
0.045,0.034
0.041,0.034
0.045,0.038
0.040,0.035
0.044,0.036
0.041,0.036
0.044,0.035
0.042,0.036
0.045,0.038
0.041,0.041
0.046,0.040
0.045,0.041
0.045,0.039
0.043,0.042
0.043,0.038
0.044,0.039
0.044,0.037
0.046,0.038
0.042,0.037
0.045,0.038
0.043,0.036
0.043,0.038
0.041,0.040
0.044,0.040
0.043,0.045
0.043,0.041
0.042,0.042
0.043,0.040
0.044,0.039
0.045,0.039
0.045,0.036
0.042,0.036
0.045,0.034
0.046,0.034
0.044,0.035
0.045,0.034
0.044,0.036
0.044,0.030
0.046,0.033
0.044,0.034
0.045,0.033
0.045,0.034
0.047,0.033
0.041,0.032
0.047,0.032
0.045,0.032
0.045,0.030
0.050,0.028
0.047,0.023
0.049,0.024
0.049,0.022
0.047,0.021
0.048,0.023
0.049,0.023
0.048,0.023
0.049,0.023
0.047,0.023
0.049,0.018
0.049,0.017
0.050,0.017
0.050,0.017
0.052,0.013
0.052,0.014
0.051,0.009
0.050,0.009
0.051,0.007
0.049,0.007
0.050,0.008
0.048,0.004
0.051,0.005
0.049,0.004
0.053,0.005
0.050,0.006
0.051,0.006
0.049,0.007
0.050,0.002
0.049,0.004
0.050,-0.001
0.049,0.000
0.045,0.001
0.045,0.001
0.046,0.001
0.047,0.001
0.046,0.001
0.048,0.001
0.047,-0.002
0.052,0.001
0.052,-0.003
0.054,-0.003
0.053,-0.004
0.054,-0.005
0.051,-0.004
0.052,-0.008
0.047,-0.003
0.049,-0.005
0.048,-0.004
0.046,-0.006
0.050,-0.003
0.049,-0.006
0.050,-0.003
0.050,-0.002
0.050,-0.005
0.051,-0.005
0.049,-0.004
0.050,-0.002
0.049,-0.003
0.047,-0.002
0.048,-0.003
0.043,-0.002
0.044,-0.002
0.044,-0.001
0.046,-0.003
0.046,-0.002
0.046,-0.004
0.047,0.000
0.047,-0.001
0.047,-0.002
0.047,0.002
0.047,0.002
0.045,0.005
0.048,0.001
0.045,0.003
0.045,0.003
0.045,0.004
0.047,0.006
0.044,0.008
0.047,0.007
0.044,0.006
0.043,0.006
0.045,0.007
0.046,0.004
0.049,0.008
0.049,0.007
0.049,0.011
0.047,0.009
0.050,0.011
0.045,0.011
0.046,0.011
0.046,0.011
0.048,0.014
0.046,0.011
0.048,0.014
0.043,0.014
0.045,0.018
0.041,0.018
0.042,0.020
0.040,0.020
0.043,0.023
0.043,0.022
0.046,0.024
0.043,0.025
0.044,0.028
0.042,0.028
0.047,0.031
0.043,0.028
0.043,0.032
0.042,0.028
0.045,0.031
0.045,0.028
0.044,0.031
0.047,0.031
0.048,0.031
0.047,0.034
0.046,0.034
0.046,0.036
0.044,0.035
0.044,0.036
0.046,0.033
0.042,0.036
0.044,0.035
0.042,0.037
0.042,0.036
0.044,0.040
0.041,0.040
0.045,0.041
0.044,0.041
0.044,0.042
0.043,0.043
0.046,0.040
0.042,0.041
0.044,0.037
0.043,0.041
0.041,0.040
0.044,0.040
0.043,0.043
0.043,0.042
0.041,0.042
0.043,0.045
0.043,0.045
0.042,0.042
0.044,0.042
0.044,0.044
0.042,0.041
0.044,0.045
0.046,0.044
0.045,0.043
0.046,0.042
0.048,0.040
0.046,0.042
0.048,0.036
0.045,0.041
0.047,0.037
0.044,0.040
0.041,0.038
0.043,0.036
0.044,0.034
0.045,0.036
0.047,0.030
0.047,0.031
0.048,0.032
0.045,0.030
0.048,0.031
0.047,0.030
0.048,0.030
0.048,0.029
0.046,0.030
0.047,0.027
0.044,0.028
0.046,0.024
0.048,0.026
0.047,0.024
0.048,0.027
0.048,0.025
0.050,0.023
0.048,0.020
0.048,0.021
0.049,0.020
0.049,0.021
0.049,0.017
0.047,0.016
0.049,0.011
0.047,0.009
0.050,0.009
0.048,0.010
0.051,0.011
0.048,0.009
0.050,0.009
0.046,0.008
0.051,0.008
0.050,0.008
0.050,0.008
0.050,0.008
0.053,0.001
0.054,0.003
0.054,-0.001
0.054,0.001
0.049,-0.003
0.050,-0.001
0.047,-0.002
0.045,-0.003
0.046,0.001
0.048,0.001
0.049,0.001
0.050,0.004
0.047,0.001
0.050,0.000
0.047,0.001
0.049,-0.006
0.044,-0.006
0.030,-0.008
0.010,-0.004
-0.025,-0.006
-0.042,-0.007
-0.052,-0.007
-0.039,-0.008
-0.012,-0.007
0.021,-0.006
0.048,-0.006
0.069,-0.005
0.086,-0.004
0.097,-0.005
0.102,-0.006
0.105,-0.003
0.109,-0.003
0.106,-0.001
0.104,-0.002
0.097,-0.003
0.089,-0.002
0.085,-0.001
0.075,0.000
0.067,0.004
0.067,0.006
0.061,0.006
0.057,0.003
0.052,0.003
0.052,0.004
0.050,0.004
0.051,0.000
0.052,0.002
0.047,0.002
0.049,0.007
0.050,0.007
0.048,0.006
0.051,0.007
0.047,0.007
0.048,0.010
0.047,0.009
0.045,0.014
0.046,0.013
0.041,0.013
0.044,0.013
0.043,0.015
0.044,0.013
0.043,0.014
0.043,0.015
0.045,0.018
0.045,0.017
0.048,0.019
0.045,0.019
0.043,0.020
0.042,0.023
0.043,0.024
0.045,0.025
0.043,0.027
0.046,0.028
0.041,0.033
0.044,0.028
0.042,0.032
0.046,0.030
0.043,0.035
0.044,0.029
0.042,0.032
0.042,0.031
0.044,0.036
0.042,0.035
0.043,0.037
0.040,0.038
0.040,0.037
0.038,0.036
0.041,0.038
0.041,0.034
0.045,0.037
0.043,0.034
0.046,0.038
0.043,0.035
0.043,0.036
0.041,0.038
0.041,0.038
0.040,0.039
0.044,0.037
0.041,0.043
0.043,0.040
0.041,0.045
0.042,0.041
0.042,0.045
0.041,0.042
0.042,0.042
0.041,0.041
0.041,0.045
0.040,0.043
0.041,0.044
0.038,0.040
0.043,0.042
0.041,0.043
0.041,0.041
0.042,0.043
0.043,0.041
0.043,0.046
0.041,0.042
0.041,0.044
0.042,0.044
0.041,0.044
0.043,0.044
0.045,0.043
0.043,0.041
0.046,0.043
0.046,0.039
0.045,0.040
0.044,0.036
0.047,0.038
0.046,0.036
0.049,0.036
0.045,0.038
0.047,0.035
0.043,0.038
0.046,0.033
0.044,0.037
0.045,0.033
0.047,0.034
0.047,0.032
0.049,0.031
0.047,0.027
0.047,0.025
0.047,0.024
0.047,0.025
0.046,0.023
0.047,0.026
0.048,0.026
0.050,0.023
0.047,0.023
0.049,0.020
0.051,0.023
0.053,0.018
0.050,0.016
0.049,0.014
0.050,0.015
0.049,0.011
0.048,0.012
0.048,0.010
0.051,0.010
0.051,0.010
0.047,0.005
0.047,0.008
0.049,0.007
0.046,0.006
0.047,0.005
0.049,0.005
0.050,0.004
0.049,0.000
0.051,0.000
0.049,-0.001
0.049,0.000
0.047,0.000
0.045,-0.001
0.046,-0.000
0.046,0.000
0.047,0.001
0.049,0.002
0.049,-0.001
0.049,-0.002
0.052,-0.003
0.051,-0.002
0.052,-0.004
0.052,-0.005
0.053,-0.006
0.051,-0.007
0.048,-0.006
0.049,-0.006
0.046,-0.002
0.047,-0.005
0.047,-0.002
0.047,-0.004
0.050,-0.002
0.049,-0.004
0.052,-0.004
0.050,-0.003
0.055,-0.006
0.051,-0.006
0.049,-0.008
0.052,-0.005
0.048,-0.007
0.048,-0.003
0.049,-0.003
0.049,-0.001
0.048,-0.003
0.047,0.001
0.045,0.000
0.046,0.001
0.044,-0.001
0.048,0.000
0.046,-0.002
0.046,-0.003
0.047,0.000
0.047,0.001
0.046,0.004
0.047,0.006
0.049,0.005
0.049,0.006
0.049,0.009
0.046,0.004
0.047,0.008
0.047,0.006
0.046,0.008
0.045,0.007
0.046,0.010
0.044,0.010
0.049,0.010
0.047,0.009
0.050,0.011
0.049,0.010
0.050,0.013
0.045,0.013
0.047,0.014
0.044,0.014
0.046,0.018
0.044,0.019
0.049,0.022
0.044,0.022
0.044,0.024
0.044,0.026
0.042,0.026
0.043,0.026
0.043,0.028
0.044,0.030
0.044,0.032
0.045,0.029
0.046,0.031
0.044,0.032
0.046,0.033
0.044,0.033
0.044,0.032
0.049,0.035
0.047,0.036
0.047,0.034
0.045,0.036
0.042,0.034
0.046,0.036
0.043,0.035
0.041,0.038
0.042,0.039
0.044,0.040
0.042,0.041
0.046,0.037
0.040,0.043
0.043,0.041
0.039,0.044
0.043,0.042
0.042,0.045
0.043,0.043
0.043,0.042
0.045,0.042
0.047,0.043
0.046,0.042
0.045,0.043
0.044,0.040
0.045,0.040
0.047,0.041
0.045,0.041
0.043,0.042
0.044,0.042
0.043,0.045
0.043,0.048
0.041,0.046
0.043,0.044
0.044,0.044
0.045,0.044
0.046,0.046
0.045,0.043
0.051,0.042
0.048,0.044
0.048,0.044
0.047,0.046
0.046,0.038
0.046,0.042
0.044,0.041
0.048,0.040
0.046,0.040
0.049,0.040
0.045,0.039
0.046,0.039
0.046,0.037
0.050,0.039
0.048,0.036
0.048,0.036
0.050,0.034
0.048,0.033
0.050,0.035
0.049,0.031
0.048,0.035
0.048,0.028
0.045,0.031
0.046,0.027
0.044,0.031
0.045,0.029
0.047,0.029
0.047,0.025
0.046,0.025
0.044,0.026
0.046,0.023
0.048,0.023
0.045,0.020
0.050,0.020
0.047,0.017
0.049,0.015
0.047,0.017
0.049,0.013
0.049,0.014
0.050,0.011
0.045,0.011
0.046,0.013
0.045,0.011
0.050,0.012
0.047,0.013
0.050,0.009
0.047,0.009
0.050,0.010
0.049,0.008
0.049,0.006
0.051,0.008
0.048,0.003
0.052,0.003
0.050,0.003
0.049,0.004
0.048,0.007
0.047,0.005
0.046,0.008
0.049,0.002
0.046,0.004
0.049,0.004
0.051,0.000
0.049,0.001
0.053,-0.001
0.051,-0.003
0.053,-0.003
0.052,-0.003
0.051,-0.006
0.051,-0.003
0.050,-0.003
0.052,-0.002
0.048,-0.003
0.049,-0.003
0.050,-0.003
0.046,-0.002
0.049,-0.002
0.046,-0.002
0.050,-0.000
0.050,0.002
0.051,-0.002
0.051,0.002
0.050,0.000
0.048,-0.001
0.047,0.000
0.050,-0.001
0.050,0.003
0.048,0.001
0.049,0.006
0.047,0.005
0.044,0.007
0.046,0.005
0.047,0.007
0.045,0.006
0.047,0.006
0.045,0.007
0.048,0.008
0.045,0.009
0.047,0.010
0.047,0.008
0.046,0.006
0.046,0.012
0.044,0.012
0.047,0.015
0.045,0.013
0.045,0.016
0.043,0.016
0.044,0.016
0.045,0.015
0.046,0.016
0.046,0.018
0.046,0.019
0.048,0.017
0.046,0.022
0.049,0.020
0.048,0.024
0.046,0.019
0.046,0.023
0.047,0.023
0.045,0.027
0.045,0.028
0.044,0.029
0.045,0.030
0.044,0.031
0.045,0.030
0.043,0.030
0.050,0.031
0.047,0.033
0.049,0.033
0.049,0.036
0.048,0.034
0.042,0.037
0.044,0.036
0.045,0.039
0.043,0.041
0.042,0.040
0.044,0.039
0.044,0.040
0.044,0.039
0.045,0.039
0.047,0.034
0.046,0.038
0.045,0.038
0.045,0.038
0.044,0.040
0.046,0.039
0.043,0.042
0.042,0.042
0.041,0.044
0.046,0.044
0.043,0.047
0.046,0.047
0.044,0.045
0.046,0.045
0.046,0.045
0.047,0.041
0.047,0.043
0.049,0.041
0.047,0.041
0.046,0.044
0.046,0.043
0.047,0.045
0.050,0.044
0.044,0.045
0.046,0.044
0.046,0.046
0.049,0.045
0.047,0.043
0.051,0.042
0.049,0.044
0.051,0.039
0.053,0.038
0.052,0.038
0.053,0.037
0.050,0.039
0.050,0.037
0.050,0.039
0.046,0.038
0.049,0.038
0.047,0.039
0.048,0.038
0.048,0.038
0.046,0.037
0.046,0.034
0.051,0.037
0.049,0.032
0.051,0.033
0.050,0.029
0.050,0.030
0.049,0.031
0.048,0.031
0.048,0.033
0.047,0.029
0.049,0.031
0.049,0.026
0.049,0.027
0.050,0.027
0.049,0.027
0.051,0.025
0.050,0.025
0.053,0.021
0.049,0.023
0.052,0.018
0.048,0.018
0.053,0.012
0.049,0.015
0.049,0.013
0.051,0.016
0.051,0.011
0.049,0.015
0.050,0.010
0.047,0.011
0.049,0.010
0.046,0.011
0.050,0.008
0.048,0.010
0.051,0.007
0.047,0.008
0.049,0.004
0.048,0.008
0.048,0.004
0.052,0.005
0.049,0.005
0.049,0.005
0.049,0.004
0.050,0.005
0.051,0.003
0.052,0.002
0.049,0.004
0.054,0.002
0.049,-0.002
0.053,-0.002
0.052,-0.001
0.052,-0.004
0.054,-0.001
0.049,-0.003
0.048,-0.003
0.050,-0.003
0.050,-0.002
0.051,-0.002
0.053,-0.001
0.049,-0.000
0.052,-0.003
0.051,-0.001
0.051,-0.002
0.048,-0.003
0.050,-0.004
0.049,-0.000
0.048,-0.002
0.049,-0.002
0.049,-0.001
0.049,-0.001
0.049,-0.001
0.051,0.000
0.050,0.003
0.048,0.003
0.047,0.006
0.048,0.004
0.045,0.006
0.048,0.004
0.046,0.009
0.046,0.008
0.049,0.009
0.047,0.011
0.048,0.011
0.047,0.009
0.050,0.010
0.048,0.009
0.051,0.007
0.051,0.008
0.049,0.011
0.051,0.012
0.049,0.014
0.048,0.017
0.047,0.015
0.045,0.014
0.047,0.017
0.046,0.017
0.050,0.016
0.047,0.018
0.048,0.019
0.046,0.020
0.047,0.022
0.043,0.022
0.046,0.024
0.044,0.025
0.045,0.025
0.043,0.030
0.045,0.028
0.045,0.031
0.047,0.030
0.046,0.032
0.046,0.029
0.038,0.033
0.023,0.031
0.001,0.035
-0.033,0.033
-0.052,0.037
-0.059,0.034
-0.044,0.036
-0.016,0.037
0.015,0.038
0.044,0.036
0.066,0.039
0.081,0.038
0.090,0.040
0.098,0.041
0.103,0.041
0.104,0.036
0.108,0.041
0.103,0.038
0.099,0.037
0.087,0.039
0.078,0.040
0.070,0.043
0.067,0.042
0.064,0.045
0.060,0.045
0.058,0.046
0.055,0.042
0.053,0.045
0.050,0.043
0.049,0.043
0.047,0.043
0.050,0.044
0.047,0.042
0.049,0.044
0.049,0.044
0.049,0.041
0.050,0.048
0.047,0.044
0.048,0.048
0.050,0.045
0.049,0.049
0.049,0.046
0.047,0.046
0.046,0.043
0.049,0.044
0.047,0.041
0.050,0.042
0.049,0.042
0.054,0.041
0.051,0.039
0.052,0.037
0.051,0.038
0.053,0.036
0.050,0.037
0.052,0.035
0.050,0.037
0.048,0.034
0.049,0.035
0.049,0.035
0.052,0.036
0.048,0.032
0.052,0.031
0.051,0.029
0.053,0.032
0.053,0.030
0.052,0.031
0.049,0.027
0.049,0.027
0.046,0.023
0.048,0.026
0.047,0.025
0.051,0.024
0.050,0.022
0.051,0.020
0.051,0.019
0.052,0.016
0.051,0.015
0.049,0.015
0.050,0.011
0.049,0.013
0.051,0.012
0.052,0.014
0.049,0.014
0.048,0.012
0.049,0.012
0.049,0.010
0.051,0.011
0.050,0.007
0.051,0.011
0.050,0.005
0.051,0.008
0.052,0.003
0.049,0.006
0.047,0.005
0.048,0.000
0.049,0.002
0.049,0.002
0.049,0.002
0.049,0.002
0.051,0.001
0.049,0.002
0.051,0.001
0.050,0.000
0.049,0.002
0.048,-0.001
0.047,0.000
0.047,-0.003
0.044,-0.001
0.044,-0.002
0.045,-0.002
0.046,-0.004
0.049,-0.004
0.046,-0.003
0.050,-0.005
0.049,-0.003
0.049,-0.007
0.049,0.002
0.047,-0.000
0.047,0.001
0.045,-0.002
0.045,-0.001
0.046,-0.001
0.044,0.002
0.045,-0.002
0.049,0.001
0.047,-0.003
0.047,0.000
0.047,-0.003
0.049,0.002
0.049,0.003
0.047,0.003
0.048,0.006
0.048,0.004
0.044,0.006
0.045,0.004
0.041,0.009
0.044,0.011
0.041,0.010
0.043,0.009
0.043,0.010
0.040,0.010
0.041,0.012
0.040,0.010
0.044,0.012
0.042,0.010
0.046,0.013
0.044,0.013
0.048,0.014
0.042,0.017
0.044,0.015
0.043,0.017
0.044,0.015
0.043,0.021
0.044,0.017
0.045,0.022
0.043,0.019
0.047,0.020
0.044,0.020
0.044,0.026
0.043,0.026
0.041,0.028
0.044,0.027
0.043,0.030
0.045,0.029
0.049,0.029
0.046,0.032
0.045,0.028
0.045,0.033
0.043,0.030
0.044,0.034
0.043,0.033
0.045,0.036
0.046,0.034
0.049,0.035
0.045,0.036
0.045,0.036
0.043,0.038
0.045,0.037
0.041,0.039
0.042,0.037
0.039,0.037
0.040,0.038
0.040,0.038
0.040,0.039
0.040,0.037
0.041,0.039
0.041,0.039
0.041,0.041
0.041,0.039
0.043,0.042
0.042,0.045
0.042,0.047
0.044,0.045
0.038,0.046
0.043,0.042
0.041,0.043
0.042,0.040
0.043,0.041
0.041,0.041
0.042,0.045
0.042,0.043
0.044,0.044
0.043,0.041
0.049,0.040
0.046,0.038
0.045,0.042
0.045,0.044
0.043,0.044
0.044,0.044
0.042,0.042
0.045,0.046
0.047,0.043
0.042,0.045
0.049,0.041
0.045,0.042
0.048,0.039
0.045,0.040
0.047,0.037
0.045,0.039
0.047,0.036
0.046,0.036
0.045,0.032
0.045,0.033
0.048,0.033
0.046,0.033
0.045,0.035
0.047,0.031
0.045,0.032
0.048,0.030
0.046,0.031
0.048,0.028
0.049,0.030
0.048,0.026
0.052,0.027
0.049,0.025
0.051,0.024
0.049,0.023
0.051,0.021
0.050,0.018
0.053,0.020
0.051,0.019
0.052,0.018
0.052,0.016
0.053,0.018
0.051,0.012
0.052,0.012
0.049,0.012
0.049,0.011
0.046,0.008
0.049,0.008
0.050,0.008
0.052,0.010
0.053,0.006
0.050,0.009
0.051,0.004
0.051,0.006
0.052,0.001
0.052,0.003
0.050,0.001
0.049,0.000
0.047,0.001
0.049,0.002
0.047,0.004
0.049,0.001
0.046,0.003
0.049,0.003
0.049,0.004
0.049,0.000
0.050,0.001
0.049,-0.001
0.053,-0.002
0.051,-0.002
0.053,-0.006
0.053,-0.005
0.051,-0.007
0.050,-0.003
0.050,-0.006
0.047,-0.004
0.047,-0.005
0.047,-0.003
0.050,-0.004
0.047,-0.006
0.047,-0.006
0.049,-0.003
0.048,-0.005
0.052,-0.004
0.049,-0.006
0.051,-0.007
0.048,-0.004
0.050,-0.006
0.049,-0.001
0.046,-0.003
0.047,0.001
0.045,0.000
0.044,0.002
0.042,0.001
0.044,0.002
0.043,0.001
0.045,0.002
0.045,0.000
0.048,0.004
0.048,0.000
0.048,0.001
0.049,0.003
0.048,0.003
0.048,0.006
0.046,0.006
0.044,0.010
0.044,0.008
0.044,0.012
0.042,0.010
0.041,0.011
0.043,0.010
0.043,0.013
0.042,0.010
0.045,0.011
0.042,0.010
0.047,0.013
0.043,0.011
0.048,0.013
0.043,0.014
0.046,0.015
0.044,0.015
0.044,0.018
0.044,0.019
0.044,0.020
0.043,0.024
0.043,0.023
0.045,0.024
0.042,0.028
0.046,0.025
0.046,0.029
0.047,0.028
0.045,0.027
0.047,0.027
0.046,0.032
0.046,0.031
0.043,0.034
0.047,0.033
0.044,0.036
0.046,0.032
0.046,0.032
0.044,0.031
0.044,0.036
0.042,0.032
0.048,0.034
0.044,0.032
0.049,0.033
0.046,0.034
0.049,0.035
0.048,0.038
0.045,0.035
0.042,0.040
0.047,0.039
0.044,0.040
0.044,0.040
0.046,0.041
0.046,0.041
0.048,0.043
0.050,0.039
0.048,0.041
0.048,0.039
0.048,0.043
0.048,0.040
0.049,0.042
0.047,0.041
0.049,0.041
0.045,0.041
0.049,0.040
0.047,0.044
0.047,0.042
0.047,0.044
0.049,0.044
0.046,0.044
0.045,0.042
0.048,0.042
0.048,0.040
0.048,0.040
0.049,0.035
0.049,0.036
0.042,0.032
0.031,0.037
0.009,0.033
-0.027,0.033
-0.047,0.033
-0.055,0.034
-0.049,0.036
-0.020,0.032
0.011,0.034
0.041,0.033
0.063,0.032
0.078,0.031
0.090,0.032
0.098,0.031
0.106,0.030
0.105,0.030
0.109,0.030
0.107,0.026
0.099,0.025
0.092,0.024
0.083,0.023
0.076,0.026
0.076,0.024
0.077,0.023
0.063,0.022
0.042,0.023
0.039,0.019
0.031,0.017
0.030,0.012
0.030,0.015
0.034,0.011
0.034,0.012
0.039,0.008
0.043,0.005
0.056,0.006
0.067,0.007
0.078,0.004
0.079,0.008
0.081,0.007
0.073,0.006
0.071,0.005
0.063,0.008
0.058,0.003
0.057,0.004
0.054,-0.001
0.057,0.002
0.051,-0.002
0.053,0.001
0.051,-0.001
0.053,0.000
0.052,-0.002
0.054,-0.001
0.053,-0.002
0.056,-0.000
0.051,0.002
0.054,-0.002
0.050,-0.001
0.051,-0.003
0.050,-0.003
0.054,-0.006
0.051,-0.005
0.053,-0.007
0.053,-0.006
0.052,-0.009
0.051,-0.005
0.052,-0.006
0.050,-0.007
0.049,-0.005
0.052,-0.005
0.050,-0.004
0.053,-0.006
0.050,-0.003
0.051,-0.005
0.048,-0.003
0.049,-0.004
0.050,-0.003
0.045,-0.001
0.049,-0.002
0.045,-0.003
0.047,-0.003
0.046,-0.003
0.047,-0.001
0.047,0.001
0.046,-0.000
0.045,0.005
0.043,0.003
0.040,0.003
0.044,0.004
0.042,0.007
0.043,0.007
0.043,0.005
0.044,0.007
0.045,0.009
0.044,0.008
0.044,0.008
0.044,0.009
0.043,0.011
0.044,0.008
0.046,0.010
0.045,0.009
0.046,0.009
0.044,0.013
0.045,0.013
0.046,0.016
0.045,0.013
0.043,0.015
0.045,0.016
0.042,0.017
0.042,0.017
0.042,0.017
0.042,0.017
0.041,0.020
0.041,0.021
0.040,0.024
0.042,0.022
0.041,0.024
0.043,0.024
0.042,0.026
0.046,0.024
0.045,0.027
0.045,0.023
0.043,0.028
0.040,0.027
0.041,0.031
0.043,0.031
0.043,0.031
0.041,0.033
0.042,0.034
0.042,0.035
0.043,0.039
0.043,0.035
0.041,0.040
0.040,0.036
0.042,0.037
0.041,0.036
0.041,0.036
0.042,0.036
0.042,0.037
0.039,0.034
0.040,0.034
0.041,0.038
0.039,0.040
0.039,0.042
0.045,0.042
0.040,0.045
0.044,0.042
0.043,0.045
0.043,0.042
0.041,0.046
0.041,0.040
0.044,0.044
0.040,0.041
0.046,0.041
0.042,0.040
0.045,0.043
0.042,0.044
0.041,0.042
0.042,0.043
0.043,0.044
0.047,0.045
0.046,0.044
0.047,0.046
0.044,0.042
0.041,0.043
0.043,0.041
0.043,0.044
0.043,0.041
0.043,0.044
0.041,0.041
0.043,0.039
0.043,0.037
0.046,0.036
0.043,0.036
0.046,0.036
0.045,0.036
0.045,0.035
0.045,0.034
0.046,0.032
0.045,0.033
0.048,0.030
0.046,0.034
0.047,0.030
0.047,0.030
0.045,0.030
0.047,0.029
0.045,0.028
0.048,0.028
0.048,0.026
0.047,0.024
0.045,0.023
0.049,0.025
0.048,0.021
0.047,0.022
0.045,0.018
0.049,0.017
0.047,0.018
0.049,0.015
0.049,0.012
0.048,0.014
0.049,0.011
0.049,0.013
0.047,0.011
0.050,0.012
0.046,0.011
0.047,0.013
0.047,0.009
0.050,0.008
0.045,0.006
0.050,0.007
0.046,0.007
0.050,0.009
0.049,0.005
0.047,0.006
0.049,0.003
0.050,0.005
0.047,0.004
0.047,0.001
0.045,0.004
0.046,0.003
0.046,0.002
0.048,0.000
0.049,0.002
0.049,-0.002
0.052,-0.002
0.049,-0.002
0.049,-0.002
0.047,-0.003
0.046,-0.003
0.044,0.001
0.045,0.001
0.044,-0.002
0.045,-0.002
0.045,-0.001
0.046,-0.002
0.047,-0.001
0.045,-0.005
0.048,-0.002
0.048,-0.005
0.050,-0.004
0.045,-0.005
0.048,-0.003
0.044,-0.003
0.049,-0.001
0.046,0.001
0.047,0.003
0.045,0.003
0.043,0.004
0.043,0.004
0.047,0.004
0.047,0.004
0.048,0.002
0.045,0.002
0.046,0.002
0.047,0.005
0.044,0.003
0.046,0.008
0.045,0.004
0.049,0.006
0.045,0.008
0.046,0.008
0.045,0.010
0.048,0.010
0.044,0.011
0.043,0.010
0.041,0.010
0.043,0.012
0.043,0.014
0.045,0.014
0.045,0.013
0.045,0.011
0.046,0.012
0.044,0.011
0.044,0.016
0.040,0.016
0.044,0.016
0.042,0.017
0.045,0.021
0.041,0.022
0.046,0.024
0.041,0.024
0.047,0.028
0.039,0.025
0.049,0.030
0.043,0.030
0.047,0.031
0.044,0.030
0.046,0.028
0.042,0.030
0.044,0.031
0.044,0.030
0.043,0.030
0.044,0.030
0.044,0.034
0.041,0.033
0.043,0.035
0.045,0.036
0.047,0.038
0.045,0.035
0.049,0.034
0.049,0.038
0.045,0.034
0.045,0.037
0.043,0.035
0.043,0.037
0.042,0.036
0.041,0.038
0.042,0.040
0.041,0.040
0.042,0.044
0.043,0.044
0.044,0.042
0.044,0.044
0.046,0.045
0.045,0.044
0.046,0.045
0.047,0.039
0.047,0.043
0.043,0.041
0.044,0.046
0.045,0.043
0.044,0.044
0.043,0.045
0.046,0.043
0.048,0.042
0.047,0.046
0.048,0.042
0.046,0.043
0.045,0.041
0.046,0.042
0.048,0.041
0.047,0.041
0.048,0.041
0.048,0.041
0.045,0.043
0.048,0.042
0.046,0.044
0.046,0.040
0.047,0.040
0.046,0.039
0.047,0.036
0.043,0.037
0.044,0.036
0.045,0.034
0.043,0.033
0.046,0.036
0.045,0.033
0.047,0.036
0.048,0.034
0.046,0.035
0.047,0.029
0.045,0.031
0.046,0.026
0.048,0.028
0.045,0.025
0.048,0.026
0.046,0.023
0.048,0.024
0.048,0.023
0.051,0.021
0.050,0.021
0.051,0.018
0.051,0.017
0.049,0.015
0.048,0.013
0.051,0.013
0.051,0.011
0.049,0.010
0.050,0.010
0.048,0.009
0.051,0.008
0.045,0.011
0.049,0.008
0.049,0.008
0.047,0.004
0.049,0.006
0.050,0.004
0.049,0.006
0.048,0.002
0.052,0.002
0.049,-0.001
0.052,-0.001
0.048,-0.002
0.051,-0.003
0.047,-0.003
0.050,-0.002
0.049,-0.002
0.049,-0.001
0.048,0.000
0.050,-0.002
0.050,-0.003
0.052,-0.007
0.052,-0.007
0.050,-0.007
0.052,-0.006
0.048,-0.008
0.052,-0.008
0.050,-0.009
0.050,-0.006
0.051,-0.007
0.051,-0.008
0.047,-0.004
0.049,-0.007
0.049,-0.005
0.047,-0.007
0.049,-0.005
0.046,-0.008
0.049,-0.005
0.047,-0.006
0.049,-0.003
0.049,-0.005
0.048,-0.005
0.050,-0.001
0.048,-0.002
0.046,0.000
0.050,-0.001
0.046,0.002
0.046,-0.001
0.045,0.003
0.047,0.002
0.046,0.005
0.047,0.002
0.048,0.002
0.047,0.000
0.049,0.004
0.047,0.004
0.048,0.005
0.048,0.005
0.048,0.005
0.046,0.005
0.046,0.007
0.048,0.008
0.047,0.011
0.046,0.012
0.046,0.011
0.043,0.013
0.047,0.012
0.043,0.017
0.043,0.011
0.043,0.015
0.044,0.017
0.043,0.016
0.042,0.017
0.043,0.019
0.043,0.018
0.042,0.019
0.042,0.017
0.044,0.021
0.044,0.021
0.042,0.023
0.043,0.026
0.042,0.026
0.045,0.025
0.041,0.029
0.045,0.029
0.044,0.030
0.047,0.028
0.045,0.027
0.047,0.031
0.047,0.032
0.047,0.034
0.045,0.036
0.045,0.036
0.044,0.040
0.044,0.036
0.042,0.039
0.043,0.037
0.042,0.039
0.045,0.037
0.045,0.037
0.043,0.035
0.049,0.040
0.044,0.038
0.046,0.038
0.042,0.036
0.043,0.038
0.043,0.043
0.044,0.041
0.043,0.042
0.046,0.042
0.045,0.040
0.046,0.039
0.044,0.040
0.046,0.037
0.043,0.038
0.041,0.038
0.042,0.043
0.041,0.041
0.044,0.040
0.041,0.041
0.044,0.042
0.045,0.041
0.048,0.039
0.049,0.038
0.047,0.040
0.046,0.041
0.047,0.040
0.043,0.040
0.046,0.038
0.045,0.041
0.045,0.037
0.047,0.038
0.047,0.036
0.051,0.035
0.048,0.033
0.050,0.034
0.046,0.033
0.049,0.033
0.045,0.031
0.045,0.032
0.043,0.034
0.046,0.032
0.041,0.032
0.044,0.031
0.043,0.031
0.046,0.028
0.044,0.030
0.036,0.027
0.025,0.030
-0.005,0.025
-0.037,0.024
-0.054,0.024
-0.057,0.023
-0.042,0.020
-0.010,0.021
0.022,0.018
0.055,0.019
0.076,0.017
0.091,0.017
0.097,0.013
0.105,0.011
0.108,0.014
0.110,0.013
0.106,0.012
0.103,0.011
0.095,0.008
0.085,0.011
0.078,0.010
0.071,0.010
0.062,0.007
0.062,0.008
0.058,0.004
0.058,0.005
0.055,0.004
0.053,0.004
0.055,0.002
0.050,0.002
0.051,0.003
0.052,0.004
0.048,0.008
0.051,0.002
0.049,0.000
0.051,0.000
0.050,0.002
0.049,-0.001
0.053,-0.002
0.052,-0.001
0.055,-0.003
0.052,-0.004
0.050,-0.007
0.053,-0.004
0.049,-0.004
0.051,-0.005
0.049,-0.005
0.048,-0.004
0.048,-0.002
0.045,-0.001
0.045,-0.002
0.045,-0.002
0.047,-0.004
0.047,-0.003
0.047,-0.004
0.047,-0.003
0.044,-0.004
0.047,-0.002
0.047,-0.003
0.046,-0.001
0.047,-0.002
0.045,-0.001
0.045,0.003
0.045,0.002
0.040,0.003
0.044,0.005
0.044,0.004
0.044,0.005
0.044,0.005
0.045,0.003
0.047,0.003
0.045,0.002
0.045,0.002
0.045,0.008
0.043,0.005
0.044,0.007
0.043,0.004
0.042,0.008
0.042,0.010
0.041,0.010
0.043,0.013
0.042,0.011
0.043,0.011
0.044,0.012
0.043,0.011
0.045,0.011
0.042,0.013
0.044,0.013
0.039,0.012
0.039,0.014
0.041,0.014
0.040,0.019
0.040,0.014
0.038,0.018
0.038,0.019
0.039,0.023
0.036,0.024
0.038,0.023
0.037,0.025
0.038,0.027
0.038,0.026
0.036,0.029
0.040,0.029
0.037,0.031
0.038,0.032
0.038,0.035
0.041,0.030
0.041,0.031
0.040,0.032
0.042,0.033
0.042,0.034
0.040,0.034
0.041,0.035
0.040,0.035
0.043,0.032
0.042,0.035
0.043,0.033
0.043,0.035
0.042,0.036
0.044,0.035
0.043,0.039
0.041,0.036
0.038,0.040
0.039,0.038
0.039,0.039
0.037,0.042
0.037,0.044
0.040,0.045
0.041,0.041
0.044,0.043
0.042,0.043
0.044,0.042
0.043,0.043
0.043,0.041
0.042,0.041
0.043,0.040
0.042,0.039
0.042,0.043
0.039,0.042
0.038,0.046
0.041,0.044
0.041,0.046
0.041,0.045
0.043,0.045
0.046,0.046
0.046,0.045
0.046,0.043
0.046,0.043
0.045,0.040
0.044,0.041
0.046,0.038
0.045,0.039
0.046,0.040
0.046,0.039
0.047,0.043
0.047,0.038
0.044,0.038
0.043,0.037
0.044,0.036
0.040,0.038
0.046,0.036
0.046,0.033
0.045,0.034
0.048,0.033
0.045,0.033
0.050,0.034
0.049,0.031
0.047,0.034
0.050,0.030
0.047,0.028
0.048,0.027
0.047,0.029
0.048,0.029
0.048,0.030
0.049,0.028
0.048,0.025
0.046,0.023
0.048,0.021
0.049,0.020
0.046,0.021
0.051,0.014
0.050,0.016
0.053,0.013
0.047,0.014
0.049,0.012
0.047,0.011
0.050,0.010
0.047,0.011
0.049,0.008
0.045,0.008
0.049,0.005
0.045,0.005
0.048,0.002
0.044,0.005
0.047,0.004
0.048,0.004
0.047,0.005
0.051,0.003
0.045,-0.001
0.047,-0.000
0.048,-0.001
0.049,0.000
0.046,0.002
0.046,0.003
0.047,0.006
0.050,0.003
0.048,0.001
0.051,-0.000
0.050,-0.001
0.052,-0.005
0.049,-0.004
0.050,-0.007
0.050,-0.004
0.048,-0.004
0.049,-0.004
0.046,-0.003
0.048,-0.003
0.047,-0.001
0.049,-0.003
0.049,-0.001
0.048,-0.003
0.048,-0.001
0.049,-0.001
0.049,-0.003
0.047,-0.002
0.047,-0.003
0.046,-0.002
0.047,-0.003
0.046,-0.006
0.046,-0.003
0.048,-0.004
0.048,0.000
0.047,0.000
0.050,0.000
0.047,0.005
0.049,0.004
0.045,0.007
0.049,0.004
0.045,0.005
0.046,0.005
0.043,0.006
0.042,0.007
0.047,0.007
0.044,0.007
0.044,0.008
0.047,0.007
0.049,0.009
0.048,0.008
0.046,0.012
0.047,0.012
0.048,0.010
0.045,0.014
0.047,0.012
0.043,0.017
0.045,0.016
0.045,0.017
0.043,0.015
0.041,0.017
0.045,0.017
0.043,0.018
0.044,0.019
0.039,0.023
0.043,0.019
0.039,0.023
0.044,0.022
0.042,0.026
0.045,0.024
0.042,0.028
0.043,0.026
0.043,0.026
0.043,0.025
0.044,0.029
0.044,0.030
0.045,0.028
0.042,0.031
0.042,0.033
0.042,0.034
0.041,0.038
0.041,0.037
0.041,0.039
0.043,0.038
0.043,0.039
0.044,0.037
0.045,0.037
0.043,0.036
0.047,0.037
0.044,0.037
0.045,0.038
0.044,0.037
0.046,0.038
0.041,0.039
0.044,0.040
0.045,0.043
0.045,0.043
0.044,0.045
0.044,0.043
0.045,0.047
0.045,0.044
0.046,0.046
0.047,0.044
0.045,0.045
0.043,0.042
0.044,0.041
0.041,0.041
0.040,0.044
0.043,0.043
0.043,0.044
0.044,0.043
0.043,0.042
0.045,0.042
0.042,0.043
0.043,0.045
0.043,0.043
0.044,0.047
0.045,0.041
0.044,0.047
0.043,0.042
0.043,0.043
0.042,0.039
0.045,0.042
0.041,0.038
0.044,0.038
0.042,0.039
0.043,0.036
0.044,0.037
0.042,0.034
0.046,0.036
0.044,0.033
0.044,0.035
0.043,0.032
0.041,0.035
0.039,0.032
0.043,0.032
0.041,0.032
0.045,0.030
0.045,0.028
0.048,0.027
0.044,0.028
0.049,0.030
0.047,0.024
0.047,0.028
0.045,0.024
0.046,0.023
0.047,0.020
0.049,0.019
0.046,0.015
0.048,0.019
0.046,0.019
0.045,0.017
0.044,0.012
0.048,0.013
0.045,0.013
0.047,0.013
0.045,0.012
0.046,0.013
0.045,0.014
0.044,0.012
0.046,0.008
0.046,0.008
0.049,0.005
0.048,0.005
0.049,0.005
0.049,0.006
0.045,0.005
0.046,0.004
0.045,0.007
0.047,0.004
0.044,0.003
0.045,0.002
0.044,0.002
0.046,0.001
0.050,0.003
0.047,-0.000
0.048,-0.002
0.049,-0.005
0.049,-0.003
0.048,-0.003
0.049,-0.003
0.045,-0.001
0.046,-0.003
0.043,0.000
0.045,-0.002
0.045,-0.003
0.044,-0.002
0.046,-0.002
0.046,-0.002
0.049,-0.003
0.049,-0.004
0.049,-0.007
0.044,-0.003
0.045,-0.004
0.046,-0.004
0.046,-0.003
0.045,-0.000
0.046,-0.001
0.042,0.001
0.045,0.000
0.044,0.002
0.044,0.003
0.045,0.005
0.044,0.003
0.045,0.005
0.042,0.004
0.044,0.005
0.043,0.004
0.041,0.003
0.046,0.004
0.044,0.004
0.041,0.003
0.041,0.007
0.043,0.009
0.044,0.009
0.041,0.011
0.042,0.008
0.039,0.014
0.044,0.010
0.041,0.015
0.043,0.014
0.042,0.013
0.039,0.012
0.042,0.012
0.042,0.012
0.043,0.015
0.043,0.014
0.043,0.018
0.042,0.016
0.043,0.022
0.039,0.021
0.041,0.026
0.041,0.026
0.042,0.027
0.039,0.024
0.042,0.027
0.040,0.027
0.043,0.030
0.041,0.029
0.042,0.033
0.039,0.031
0.041,0.035
0.038,0.033
0.039,0.033
0.038,0.030
0.039,0.035
0.040,0.034
0.044,0.035
0.040,0.036
0.045,0.037
0.042,0.035
0.042,0.036
0.043,0.034
0.040,0.036
0.041,0.035
0.043,0.037
0.042,0.039
0.042,0.037
0.041,0.041
0.041,0.040
0.042,0.043
0.040,0.044
0.041,0.041
0.040,0.040
0.043,0.043
0.043,0.043
0.043,0.042
0.043,0.041
0.041,0.039
0.041,0.041
0.039,0.042
0.042,0.043
0.041,0.041
0.038,0.047
0.039,0.041
0.041,0.048
0.041,0.043
0.041,0.046
0.042,0.048
0.041,0.046
0.043,0.046
0.042,0.044
0.044,0.043
0.045,0.044
0.046,0.042
0.049,0.043
0.047,0.040
0.046,0.039
0.044,0.040
0.045,0.040
0.043,0.037
0.046,0.037
0.045,0.038
0.046,0.036
0.046,0.037
0.047,0.034
0.050,0.035
0.045,0.036
0.047,0.032
0.050,0.032
0.048,0.029
0.049,0.033
0.049,0.029
0.048,0.030
0.050,0.029
0.047,0.029
0.046,0.024
0.049,0.024
0.047,0.023
0.049,0.024
0.047,0.026
0.049,0.023
0.049,0.022
0.048,0.020
0.049,0.019
0.050,0.016
0.054,0.014
0.050,0.014
0.051,0.009
0.049,0.010
0.050,0.009
0.047,0.008
0.048,0.007
0.048,0.006
0.050,0.006
0.047,0.007
0.048,0.006
0.047,0.008
0.048,0.003
0.051,0.004
0.049,0.000
0.053,-0.003
0.049,0.000
0.045,-0.002
0.031,0.002
0.008,0.001
-0.028,0.001
-0.045,0.001
-0.054,0.001
-0.043,-0.001
-0.018,-0.000
0.015,-0.001
0.046,-0.001
0.071,-0.005
0.085,-0.004
0.095,-0.007
0.102,-0.007
0.106,-0.007
0.110,-0.005
0.109,-0.005
0.110,-0.005
0.100,-0.007
0.092,-0.005
0.081,-0.004
0.075,-0.006
0.067,-0.005
0.066,-0.007
0.062,-0.005
0.060,-0.005
0.055,-0.004
0.052,-0.005
0.054,-0.005
0.049,-0.009
0.054,-0.006
0.049,-0.006
0.049,-0.004
0.049,-0.004
0.049,0.001
0.047,0.002
0.049,0.003
0.048,0.000
0.048,0.003
0.047,0.004
0.047,0.001
0.047,0.005
0.050,0.003
0.050,0.006
0.045,0.003
0.048,0.006
0.044,0.006
0.049,0.006
0.049,0.008
0.047,0.008
0.050,0.010
0.047,0.010
0.044,0.011
0.045,0.012
0.041,0.014
0.043,0.012
0.040,0.016
0.042,0.015
0.041,0.017
0.039,0.016
0.045,0.016
0.043,0.017
0.040,0.021
0.041,0.021
0.040,0.024
0.041,0.023
0.039,0.028
0.039,0.028
0.040,0.032
0.040,0.026
0.040,0.031
0.043,0.031
0.043,0.033
0.041,0.031
0.043,0.032
0.042,0.032
0.042,0.032
0.043,0.031
0.042,0.033
0.041,0.033
0.042,0.035
0.044,0.034
0.040,0.035
0.041,0.037
0.043,0.037
0.044,0.036
0.046,0.037
0.043,0.035
0.046,0.037
0.047,0.034
0.045,0.035
0.042,0.035
0.044,0.035
0.041,0.041
0.042,0.041
0.038,0.044
0.041,0.042
0.039,0.045
0.041,0.045
0.040,0.044
0.045,0.044
0.042,0.043
0.045,0.043
0.044,0.040
0.045,0.039
0.045,0.040
0.042,0.041
0.043,0.043
0.043,0.041
0.044,0.043
0.046,0.044
0.047,0.042
0.045,0.045
0.048,0.044
0.044,0.045
0.045,0.043
0.045,0.043
0.046,0.043
0.045,0.042
0.049,0.040
0.049,0.041
0.049,0.035
0.051,0.037
0.051,0.036
0.051,0.036
0.048,0.038
0.047,0.036
0.044,0.036
0.046,0.036
0.043,0.036
0.046,0.034
0.046,0.034
0.047,0.031
0.050,0.032
0.047,0.031
0.049,0.032
0.049,0.028
0.049,0.030
0.051,0.028
0.048,0.028
0.049,0.027
0.047,0.027
0.045,0.026
0.047,0.025
0.043,0.028
0.049,0.023
0.049,0.022
0.049,0.020
0.050,0.017
0.052,0.014
0.053,0.013
0.053,0.013
0.049,0.012
0.049,0.009
0.051,0.009
0.052,0.010
0.051,0.010
0.047,0.009
0.048,0.006
0.049,0.005
0.049,0.010
0.051,0.007
0.049,0.008
0.050,0.005
0.049,0.006
0.049,0.003
0.050,0.003
0.048,0.003
0.048,0.002
0.047,0.005
0.050,0.001
0.047,0.000
0.049,0.001
0.049,0.001
0.047,0.002
0.051,0.000
0.051,-0.002
0.053,-0.002
0.051,-0.004
0.049,-0.000
0.050,-0.003
0.049,-0.002
0.049,-0.004
0.050,-0.002
0.047,-0.006
0.052,-0.003
0.051,-0.006
0.050,-0.003
0.051,-0.006
0.051,-0.004
0.051,-0.005
0.050,-0.005
0.049,-0.004
0.049,-0.003
0.048,-0.001
0.049,-0.003
0.044,0.000
0.044,-0.002
0.044,-0.003
0.043,-0.003
0.047,-0.002
0.044,-0.001
0.048,-0.001
0.045,-0.000
0.048,0.003
0.049,0.000
0.049,0.001
0.050,0.004
0.049,0.003
0.048,0.005
0.049,0.004
0.049,0.009
0.048,0.008
0.045,0.009
0.044,0.009
0.045,0.010
0.045,0.010
0.048,0.010
0.045,0.009
0.048,0.011
0.045,0.011
0.047,0.012
0.048,0.015
0.046,0.013
0.046,0.014
0.047,0.016
0.046,0.015
0.043,0.015
0.041,0.014
0.044,0.018
0.042,0.021
0.041,0.023
0.040,0.022
0.041,0.025
0.043,0.025
0.039,0.028
0.038,0.024
0.040,0.028
0.041,0.029
0.042,0.030
0.042,0.030
0.043,0.035
0.039,0.031
0.042,0.034
0.042,0.033
0.045,0.034
0.042,0.030
0.045,0.034
0.041,0.034
0.045,0.033
0.042,0.035
0.042,0.034
0.043,0.037
0.043,0.038
0.045,0.039
0.045,0.039
0.044,0.041
0.043,0.039
0.043,0.043
0.041,0.040
0.040,0.043
0.038,0.041
0.044,0.039
0.039,0.041
0.044,0.043
0.043,0.043
0.044,0.044
0.046,0.041
0.045,0.043
0.046,0.044
0.045,0.042
0.044,0.043
0.045,0.040
0.043,0.044
0.043,0.044
0.040,0.047
0.042,0.044
0.041,0.048
0.040,0.045
0.044,0.045
0.043,0.045
0.046,0.045
0.044,0.045
0.044,0.043
0.049,0.043
0.048,0.040
0.048,0.041
0.048,0.039
0.048,0.042
0.049,0.039
0.046,0.040
0.047,0.036
0.047,0.038
0.046,0.035
0.049,0.039
0.044,0.034
0.047,0.036
0.047,0.034
0.047,0.032
0.049,0.033
0.049,0.031
0.047,0.031
0.047,0.033
0.047,0.030
0.049,0.030
0.047,0.030
0.045,0.027
0.046,0.030
0.046,0.025
0.050,0.025
0.046,0.022
0.052,0.022
0.049,0.024
0.052,0.023
0.050,0.019
0.051,0.018
0.050,0.014
0.049,0.014
0.048,0.010
0.049,0.013
0.049,0.013
0.048,0.011
0.047,0.011
0.048,0.013
0.047,0.010
0.047,0.009
0.048,0.009
0.049,0.010
0.048,0.006
0.052,0.007
0.046,0.002
0.049,0.002
0.048,0.000
0.048,0.001
0.047,0.003
0.048,0.001
0.045,0.003
0.046,0.002
0.046,0.003
0.045,0.004
0.044,0.004
0.047,0.001
0.046,-0.002
0.047,-0.003
0.048,-0.002
0.046,-0.004
0.049,-0.006
0.045,-0.008
0.049,-0.005
0.046,-0.005
0.047,-0.003
0.046,-0.003
0.047,-0.004
0.045,-0.002
0.047,-0.003
0.046,-0.001
0.047,-0.002
0.046,-0.002
0.045,-0.003
0.045,-0.002
0.046,-0.001
0.044,-0.000
0.045,-0.004
0.045,-0.002
0.044,-0.003
0.047,-0.000
0.045,-0.001
0.047,-0.002
0.042,0.002
0.046,0.002
0.043,0.004
0.043,0.005
0.043,0.003
0.045,0.005
0.045,0.006
0.045,0.004
0.046,0.007
0.044,0.006
0.047,0.009
0.045,0.006
0.048,0.008
0.046,0.007
0.046,0.006
0.046,0.009
0.048,0.009
0.045,0.011
0.045,0.011
0.042,0.010
0.042,0.012
0.041,0.011
0.041,0.011
0.037,0.014
0.041,0.014
0.037,0.015
0.040,0.014
0.039,0.017
0.041,0.019
0.038,0.020
0.039,0.022
0.041,0.023
0.041,0.024
0.041,0.028
0.042,0.026
0.040,0.029
0.039,0.026
0.043,0.029
0.042,0.028
0.041,0.032
0.043,0.029
0.043,0.033
0.042,0.032
0.041,0.034
0.042,0.033
0.042,0.036
0.046,0.035
0.040,0.036
0.043,0.036
0.042,0.037
0.043,0.036
0.042,0.037
0.043,0.037
0.046,0.036
0.042,0.036
0.045,0.036
0.045,0.037
0.042,0.037
0.044,0.038
0.041,0.039
0.040,0.043
0.040,0.044
0.038,0.046
0.041,0.044
0.041,0.046
0.043,0.044
0.042,0.043
0.044,0.042
0.042,0.042
0.043,0.037
0.041,0.041
0.040,0.041
0.044,0.043
0.042,0.040
0.046,0.039
0.042,0.042
0.045,0.042
0.043,0.047
0.045,0.043
0.044,0.042
0.045,0.041
0.045,0.042
0.046,0.043
0.043,0.042
0.047,0.039
0.046,0.040
0.047,0.036
0.048,0.037
0.046,0.036
0.049,0.035
0.048,0.038
0.044,0.035
0.042,0.036
0.044,0.033
0.044,0.035
0.045,0.035
0.045,0.034
0.041,0.033
0.030,0.030
0.011,0.029
-0.024,0.028
-0.047,0.023
-0.055,0.025
-0.052,0.022
-0.026,0.026
0.003,0.025
0.034,0.021
0.057,0.023
0.080,0.021
0.089,0.022
0.097,0.019
0.102,0.022
0.105,0.019
0.105,0.017
0.107,0.015
0.102,0.012
0.097,0.011
0.085,0.010
0.078,0.009
0.069,0.009
0.064,0.011
0.059,0.008
0.058,0.007
0.054,0.011
0.053,0.007
0.054,0.011
0.050,0.007
0.052,0.008
0.048,0.005
0.048,0.007
0.050,0.001
0.048,0.003
0.050,0.001
0.049,0.000
0.046,-0.002
0.050,-0.000
0.045,-0.000
0.051,0.001
0.049,0.001
0.053,-0.001
0.053,-0.003
0.052,-0.002
0.051,-0.004
0.050,-0.004
0.050,-0.001
0.048,-0.005
0.046,-0.001
0.045,-0.004
0.048,-0.003
0.045,-0.005
0.048,-0.004
0.044,-0.005
0.045,-0.006
0.046,-0.003
0.047,-0.005
0.046,-0.004
0.047,-0.003
0.048,-0.002
0.048,-0.005
0.046,-0.000
0.046,-0.002
0.047,-0.002
0.043,-0.001
0.046,-0.001
0.043,-0.002
0.046,-0.002
0.048,-0.002
0.048,0.000
0.048,0.003
0.047,0.000
0.046,0.005
0.044,0.004
0.044,0.006
0.044,0.005
0.041,0.008
0.044,0.005
0.043,0.009
0.041,0.006
0.043,0.009
0.038,0.009
0.040,0.010
0.040,0.011
0.042,0.011
0.042,0.009
0.043,0.011
0.043,0.010
0.043,0.011
0.044,0.012
0.042,0.012
0.046,0.014
0.043,0.012
0.043,0.016
0.043,0.014
0.043,0.017
0.042,0.017
0.040,0.017
0.044,0.018
0.042,0.020
0.046,0.021
0.041,0.022
0.044,0.023
0.043,0.023
0.046,0.027
0.045,0.027
0.047,0.028
0.042,0.026
0.047,0.027
0.043,0.026
0.045,0.026
0.044,0.029
0.043,0.031
0.043,0.033
0.042,0.034
0.042,0.034
0.041,0.035
0.043,0.038
0.043,0.036
0.041,0.038
0.043,0.039
0.042,0.039
0.042,0.038
0.042,0.039
0.041,0.037
0.044,0.038
0.040,0.038
0.041,0.040
0.040,0.041
0.041,0.042
0.041,0.041
0.041,0.044
0.045,0.045
0.046,0.044
0.042,0.047
0.046,0.043
0.043,0.046
0.046,0.043
0.046,0.043
0.044,0.041
0.045,0.043
0.041,0.040
0.042,0.045
0.043,0.040
0.041,0.043
0.046,0.044
0.043,0.042
0.046,0.049
0.046,0.044
0.045,0.049
0.046,0.046
0.045,0.048
0.046,0.044
0.047,0.048
0.046,0.043
0.046,0.046
0.042,0.040
0.047,0.039
0.044,0.041
0.048,0.039
0.045,0.037
0.046,0.035
0.045,0.039
0.043,0.035
0.044,0.037
0.043,0.035
0.041,0.036
0.045,0.033
0.046,0.034
0.044,0.032
0.046,0.031
0.046,0.025
0.047,0.028
0.045,0.025
0.043,0.025
0.044,0.025
0.047,0.028
0.047,0.026
0.046,0.025
0.046,0.023
0.047,0.023
0.046,0.019
0.047,0.019
0.048,0.017
0.048,0.018
0.048,0.013
0.049,0.014
0.048,0.012
0.050,0.014
0.047,0.009
0.050,0.010
0.049,0.008
0.051,0.010
0.049,0.009
0.049,0.007
0.048,0.008
0.052,0.004
0.050,0.004
0.050,0.002
0.049,0.003
0.049,0.003
0.044,0.005
0.047,0.002
0.045,0.003
0.047,0.002
0.045,0.004
0.046,-0.001
0.048,0.000
0.045,-0.004
0.049,0.001
0.046,-0.001
0.047,-0.000
0.049,-0.003
0.049,-0.005
0.047,-0.004
0.047,-0.004
0.046,-0.002
0.045,-0.002
0.043,-0.002
0.047,-0.002
0.046,-0.001
0.047,-0.004
0.048,0.000
0.047,-0.005
0.049,-0.001
0.047,-0.003
0.049,-0.002
0.046,-0.002
0.049,-0.002
0.045,0.003
0.046,-0.002
0.043,0.003
0.046,0.002
0.043,0.000
0.046,-0.000
0.045,0.002
0.043,-0.000
0.046,0.002
0.043,0.002
0.046,0.006
0.042,0.004
0.046,0.003
0.045,0.007
0.044,0.005
0.044,0.007
0.044,0.008
0.041,0.011
0.045,0.010
0.043,0.010
0.043,0.009
0.042,0.010
0.040,0.010
0.043,0.012
0.045,0.011
0.045,0.014
0.042,0.012
0.046,0.014
0.042,0.014
0.045,0.013
0.043,0.013
0.045,0.015
0.044,0.015
0.048,0.016
0.045,0.014
0.045,0.020
0.043,0.019
0.044,0.026
0.042,0.024
0.045,0.026
0.041,0.029
0.045,0.028
0.043,0.029
0.046,0.030
0.043,0.031
0.042,0.033
0.044,0.032
0.043,0.033
0.041,0.033
0.040,0.035
0.042,0.036
0.043,0.037
0.041,0.037
0.043,0.038
0.043,0.038
0.043,0.036
0.044,0.034
0.044,0.037
0.043,0.036
0.045,0.039
0.045,0.041
0.045,0.042
0.041,0.043
0.042,0.041
0.040,0.043
0.043,0.040
0.042,0.043
0.044,0.042
0.045,0.043
0.045,0.044
0.049,0.044
0.048,0.045
0.049,0.043
0.049,0.041
0.046,0.040
0.048,0.044
0.046,0.042
0.046,0.044
0.046,0.044
0.042,0.045
0.044,0.043
0.045,0.043
0.044,0.044
0.045,0.047
0.044,0.046
0.047,0.044
0.046,0.046
0.046,0.045
0.049,0.045
0.046,0.040
0.046,0.044
0.049,0.042
0.043,0.043
0.048,0.042
0.045,0.044
0.046,0.041
0.047,0.041
0.049,0.036
0.049,0.038
0.047,0.034
0.049,0.032
0.049,0.033
0.049,0.036
0.048,0.035
0.048,0.032
0.048,0.034
0.046,0.034
0.047,0.033
0.046,0.032
0.046,0.031
0.048,0.030
0.047,0.028
0.046,0.025
0.049,0.028
0.051,0.028
0.050,0.028
0.047,0.025
0.047,0.023
0.051,0.022
0.051,0.019
0.049,0.019
0.050,0.015
0.050,0.013
0.050,0.015
0.049,0.013
0.048,0.010
0.047,0.009
0.049,0.010
0.047,0.010
0.048,0.011
0.045,0.009
0.051,0.009
0.050,0.005
0.052,0.009
0.050,0.003
0.053,0.005
0.052,0.001
0.054,0.002
0.050,0.004
0.052,-0.001
0.051,0.002
0.052,-0.001
0.050,0.004
0.050,0.000
0.052,0.004
0.051,0.002
0.051,0.002
0.049,-0.003
0.049,0.000
0.050,-0.005
0.052,-0.005
0.049,-0.008
0.052,-0.005
0.049,-0.006
0.048,-0.005
0.046,-0.003
0.051,-0.003
0.047,0.000
0.050,-0.003
0.047,-0.002
0.048,-0.005
0.052,0.000
0.047,-0.004
0.051,-0.002
0.048,-0.003
0.051,-0.001
0.051,-0.004
0.049,-0.002
0.049,-0.002
0.049,-0.003
0.047,0.002
0.049,0.002
0.045,0.001
0.047,0.001
0.045,0.003
0.048,0.001
0.046,0.003
0.049,0.003
0.047,0.005
0.047,0.004
0.050,0.003
0.047,0.003
0.051,0.004
0.048,0.007
0.051,0.005
0.049,0.008
0.047,0.007
0.042,0.009
0.044,0.009
0.041,0.010
0.045,0.010
0.043,0.011
0.046,0.011
0.045,0.010
0.045,0.011
0.045,0.013
0.043,0.012
0.046,0.017
0.042,0.013
0.045,0.014
0.039,0.015
0.041,0.016
0.041,0.019
0.042,0.020
0.042,0.021
0.040,0.025
0.041,0.024
0.043,0.027
0.044,0.025
0.045,0.026
0.045,0.027
0.045,0.027
0.045,0.028
0.045,0.030
0.047,0.028
0.044,0.030
0.045,0.031
0.045,0.032
0.045,0.033
0.043,0.033
0.044,0.033
0.042,0.035
0.043,0.032
0.042,0.032
0.046,0.031
0.046,0.036
0.044,0.035
0.046,0.035
0.045,0.037
0.043,0.033
0.043,0.037
0.042,0.037
0.040,0.036
0.042,0.040
0.042,0.042
0.041,0.043
0.040,0.044
0.041,0.042
0.045,0.042
0.044,0.042
0.044,0.042
0.045,0.038
0.042,0.038
0.044,0.036
0.045,0.035
0.043,0.039
0.043,0.038
0.041,0.041
0.042,0.040
0.039,0.043
0.041,0.042
0.040,0.041
0.043,0.041
0.043,0.042
0.046,0.040
0.047,0.039
0.047,0.036
0.045,0.036
0.047,0.037
0.046,0.036
0.046,0.035
0.046,0.034
0.045,0.036
0.047,0.036
0.045,0.039
0.046,0.036
0.044,0.036
0.045,0.033
0.044,0.032
0.045,0.030
0.048,0.029
0.044,0.028
0.047,0.028
0.045,0.026
0.045,0.026
0.044,0.028
0.044,0.029
0.043,0.028
0.047,0.027
0.045,0.027
0.045,0.021
0.046,0.024
0.046,0.022
0.049,0.023
0.046,0.022
0.047,0.021
0.050,0.019
0.048,0.017
0.051,0.016
0.050,0.014
0.052,0.012
0.049,0.014
0.047,0.009
0.048,0.009
0.048,0.008
0.049,0.009
0.048,0.009
0.047,0.007
0.047,0.007
0.048,0.007
0.046,0.004
0.048,0.007
0.045,0.003
0.049,0.003
0.047,0.001
0.049,0.004
0.042,0.002
0.049,0.003
0.048,0.001
0.050,0.000
0.049,0.001
0.049,-0.003
0.049,0.003
0.049,-0.002
0.051,0.000
0.049,-0.001
0.049,-0.003
0.050,-0.002
0.050,-0.004
0.051,-0.006
0.051,-0.004
0.048,-0.007
0.050,-0.004
0.045,-0.005
0.049,-0.005
0.045,-0.004
0.046,-0.005
0.045,-0.001
0.044,-0.006
0.043,-0.003
0.046,-0.004
0.046,-0.002
0.044,-0.004
0.041,-0.003
0.021,-0.005
0.003,-0.003
-0.035,-0.004
-0.051,-0.003
-0.055,-0.003
-0.041,-0.000
-0.011,-0.001
0.021,0.001
0.044,0.003
0.068,-0.002
0.079,0.004
0.089,0.001
0.094,0.005
0.100,0.004
0.106,0.006
0.102,0.005
0.111,0.007
0.104,0.006
0.083,0.010
0.061,0.008
0.047,0.008
0.038,0.006
0.033,0.009
0.030,0.010
0.030,0.011
0.032,0.012
0.038,0.012
0.041,0.017
0.053,0.010
0.065,0.016
0.072,0.011
0.073,0.016
0.070,0.013
0.065,0.016
0.059,0.015
0.055,0.021
0.053,0.019
0.050,0.023
0.049,0.022
0.049,0.024
0.045,0.023
0.047,0.027
0.048,0.028
0.047,0.028
0.047,0.026
0.045,0.025
0.045,0.028
0.043,0.029
0.044,0.030
0.042,0.032
0.043,0.033
0.040,0.036
0.045,0.033
0.043,0.036
0.045,0.036
0.043,0.033
0.044,0.036
0.046,0.036
0.046,0.038
0.044,0.036
0.046,0.036
0.046,0.039
0.047,0.035
0.046,0.036
0.043,0.036
0.044,0.036
0.040,0.037
0.045,0.039
0.043,0.043
0.044,0.043
0.043,0.042
0.043,0.043
0.042,0.044
0.042,0.043
0.041,0.044
0.044,0.041
0.043,0.044
0.042,0.040
0.042,0.043
0.040,0.043
0.046,0.044
0.042,0.041
0.047,0.044
0.046,0.044
0.045,0.045
0.047,0.046
0.047,0.045
0.045,0.045
0.048,0.044
0.043,0.042
0.045,0.042
0.042,0.043
0.044,0.039
0.046,0.039
0.043,0.039
0.047,0.041
0.045,0.039
0.047,0.037
0.045,0.039
0.046,0.037
0.043,0.039
0.046,0.036
0.041,0.035
0.045,0.035
0.043,0.034
0.045,0.032
0.044,0.037
0.043,0.029
0.046,0.033
0.047,0.029
0.049,0.030
0.047,0.031
0.050,0.029
0.048,0.029
0.047,0.026
0.049,0.023
0.047,0.024
0.046,0.023
0.051,0.021
0.049,0.021
0.050,0.018
0.050,0.017
0.051,0.016
0.049,0.014
0.047,0.013
0.045,0.010
0.044,0.013
0.046,0.010
0.046,0.010
0.048,0.010
0.049,0.010
0.049,0.010
0.049,0.008
0.049,0.008
0.049,0.005
0.050,0.008
0.048,0.006
0.049,0.006
0.046,0.006
0.045,0.008
0.048,0.006
0.045,0.007
0.046,0.004
0.046,0.005
0.049,0.003
0.049,0.003
0.047,0.001
0.050,0.003
0.050,0.001
0.048,-0.002
0.049,0.000
0.047,-0.002
0.048,-0.002
0.049,-0.003
0.045,-0.001
0.046,-0.001
0.044,-0.002
0.047,-0.002
0.045,-0.001
0.046,0.001
0.048,-0.000
0.050,-0.003
0.049,-0.001
0.048,-0.001
0.046,-0.004
0.048,-0.001
0.048,0.000
0.045,0.001
0.045,0.005
0.044,0.004
0.045,0.005
0.044,0.006
0.046,0.005
0.044,0.006
0.045,0.006
0.046,0.007
0.045,0.005
0.048,0.004
0.046,0.004
0.049,0.002
0.049,0.004
0.046,0.004
0.047,0.008
0.045,0.006
0.046,0.009
0.046,0.010
0.042,0.010
0.045,0.010
0.043,0.011
0.046,0.010
0.046,0.011
0.044,0.011
0.043,0.015
0.043,0.014
0.044,0.015
0.044,0.014
0.043,0.015
0.043,0.018
0.044,0.019
0.042,0.019
0.042,0.020
0.044,0.023
0.045,0.025
0.041,0.023
0.045,0.026
0.041,0.025
0.043,0.028
0.043,0.027
0.044,0.030
0.043,0.031
0.044,0.030
0.041,0.028
0.044,0.031
0.043,0.032
0.043,0.028
0.042,0.032
0.043,0.034
0.042,0.031
0.042,0.033
0.041,0.032
0.044,0.035
0.043,0.034
0.044,0.038
0.046,0.037
0.045,0.037
0.045,0.038
0.045,0.034
0.045,0.041
0.044,0.038
0.043,0.040
0.041,0.039
0.038,0.037
0.041,0.041
0.038,0.044
0.041,0.042
0.042,0.043
0.042,0.042
0.044,0.043
0.043,0.042
0.044,0.038
0.045,0.042
0.044,0.038
0.042,0.043
0.044,0.040
0.041,0.047
0.041,0.047
0.042,0.050
0.043,0.047
0.047,0.044
0.043,0.044
0.045,0.046
0.047,0.042
0.046,0.043
0.046,0.043
0.049,0.042
0.049,0.042
0.047,0.042
0.049,0.042
0.045,0.040
0.047,0.043
0.047,0.040
0.045,0.042
0.048,0.040
0.049,0.037
0.049,0.034
0.050,0.036
0.046,0.037
0.049,0.033
0.048,0.032
0.048,0.031
0.047,0.034
0.049,0.031
0.048,0.032
0.047,0.029
0.044,0.031
0.046,0.029
0.046,0.028
0.048,0.026
0.046,0.027
0.047,0.026
0.047,0.025
0.046,0.024
0.048,0.023
0.047,0.023
0.049,0.018
0.048,0.020
0.048,0.020
0.049,0.017
0.049,0.017
0.051,0.012
0.049,0.014
0.048,0.012
0.047,0.011
0.046,0.012
0.049,0.010
0.051,0.010
0.050,0.009
0.050,0.009
0.049,0.011
0.049,0.005
0.050,0.006
0.046,0.002
0.050,0.004
0.046,0.001
0.050,-0.000
0.047,0.001
0.047,0.001
0.047,0.003
0.049,0.002
0.044,0.006
0.047,0.005
0.046,0.003
0.045,0.004
0.046,0.002
0.047,-0.002
0.048,-0.004
0.049,-0.004
0.050,-0.002
0.049,-0.004
0.049,-0.003
0.047,-0.005
0.049,-0.004
0.049,-0.004
0.049,-0.005
0.046,-0.003
0.046,-0.004
0.045,-0.003
0.047,-0.004
0.046,-0.002
0.047,-0.004
0.049,-0.003
0.049,-0.004
0.050,-0.002
0.049,-0.002
0.048,-0.003
0.050,-0.003
0.048,-0.005
0.043,-0.002
0.048,-0.002
0.043,-0.003
0.047,-0.002
0.041,0.003
0.046,-0.000
0.045,0.002
0.045,0.003
0.046,0.001
0.046,0.004
0.047,0.004
0.047,0.004
0.047,0.006
0.045,0.006
0.044,0.005
0.045,0.007
0.044,0.005
0.046,0.010
0.043,0.011
0.042,0.013
0.044,0.012
0.040,0.014
0.046,0.012
0.046,0.014
0.047,0.014
0.046,0.013
0.045,0.015
0.047,0.014
0.047,0.016
0.045,0.018
0.048,0.019
0.042,0.020
0.043,0.020
0.042,0.024
0.046,0.023
0.044,0.025
0.045,0.025
0.044,0.030
0.045,0.028
0.045,0.030
0.043,0.028
0.042,0.033
0.045,0.031
0.043,0.032
0.043,0.030
0.043,0.032
0.043,0.030
0.045,0.036
0.044,0.035
0.044,0.035
0.043,0.037
0.042,0.036
0.044,0.035
0.042,0.036
0.043,0.034
0.042,0.037
0.046,0.036
0.044,0.039
0.043,0.036
0.044,0.036
0.044,0.038
0.041,0.036
0.045,0.040
0.045,0.038
0.046,0.042
0.044,0.044
0.046,0.043
0.043,0.042
0.044,0.043
0.044,0.042
0.043,0.042
0.045,0.038
0.044,0.039
0.048,0.039
0.045,0.038
0.044,0.041
0.043,0.040
0.043,0.043
0.042,0.043
0.042,0.045
0.041,0.041
0.045,0.041
0.045,0.041
0.040,0.040
0.043,0.044
0.044,0.043
0.044,0.039
0.044,0.039
0.045,0.034
0.048,0.036
0.047,0.035
0.047,0.033
0.047,0.034
0.047,0.033
0.048,0.036
0.045,0.033
0.046,0.034
0.045,0.033
0.047,0.032
0.047,0.032
0.047,0.030
0.044,0.031
0.047,0.029
0.046,0.025
0.045,0.025
0.046,0.024
0.049,0.025
0.049,0.025
0.048,0.022
0.046,0.025
0.048,0.021
0.047,0.024
0.048,0.023
0.050,0.023
0.047,0.019
0.048,0.017
0.047,0.016
0.050,0.013
0.050,0.013
0.047,0.008
0.050,0.010
0.050,0.009
0.048,0.009
0.047,0.007
0.050,0.008
0.050,0.009
0.049,0.007
0.050,0.005
0.049,0.004
0.050,0.005
0.051,0.001
0.048,0.002
0.049,0.001
0.048,0.003
0.049,0.002
0.047,0.003
0.045,0.001
0.048,-0.000
0.046,0.001
0.049,0.003
0.048,0.001
0.049,0.001
0.052,0.000
0.051,-0.001
0.050,-0.003
0.053,-0.006
0.049,-0.003
0.050,-0.007
0.049,-0.004
0.048,-0.006
0.048,-0.005
0.048,-0.006
0.048,-0.006
0.045,-0.005
0.048,-0.003
0.047,-0.006
0.049,-0.002
0.049,-0.005
0.049,-0.005
0.048,-0.003
0.049,-0.001
0.045,-0.001
0.048,-0.003
0.046,0.000
0.047,-0.003
0.046,0.001
0.045,0.001
0.045,-0.000
0.045,-0.000
0.048,-0.001
0.047,-0.001
0.048,0.002
0.045,0.000
0.049,0.000
0.045,-0.002
0.048,-0.001
0.045,0.003
0.047,0.000
0.046,0.007
0.045,0.007
0.045,0.008
0.042,0.008
0.045,0.010
0.043,0.007
0.046,0.010
0.045,0.008
0.046,0.011
0.043,0.010
0.046,0.011
0.046,0.009
0.043,0.011
0.044,0.013
0.048,0.012
0.045,0.014
0.048,0.012
0.045,0.015
0.047,0.014
0.046,0.016
0.047,0.019
0.045,0.021
0.047,0.022
0.044,0.024
0.045,0.028
0.044,0.026
0.046,0.029
0.043,0.029
0.046,0.031
0.047,0.030
0.046,0.030
0.044,0.030
0.044,0.034
0.044,0.029
0.043,0.034
0.041,0.032
0.044,0.033
0.039,0.035
0.043,0.036
0.043,0.039
0.045,0.037
0.045,0.039
0.049,0.037
0.044,0.039
0.046,0.036
0.047,0.037
0.046,0.034
0.045,0.038
0.044,0.039
0.044,0.039
0.043,0.041
0.047,0.040
0.043,0.039
0.046,0.043
0.045,0.038
0.049,0.041
0.047,0.039
0.049,0.041
0.047,0.041
0.048,0.038
0.046,0.043
0.047,0.039
0.042,0.045
0.045,0.043
0.043,0.046
0.041,0.043
0.042,0.044
0.041,0.042
0.045,0.042
0.043,0.039
0.049,0.041
0.045,0.041
0.047,0.040
0.046,0.040
0.046,0.040
0.045,0.042
0.049,0.041
0.046,0.041
0.049,0.037
0.046,0.038
0.045,0.036
0.046,0.036
0.047,0.032
0.047,0.033
0.045,0.030
0.047,0.032
0.047,0.030
0.049,0.034
0.047,0.032
0.049,0.028
0.051,0.030
0.049,0.027
0.047,0.030
0.049,0.028
0.043,0.029
0.046,0.028
0.047,0.030
0.046,0.025
0.049,0.026
0.047,0.023
0.048,0.023
0.044,0.021
0.046,0.020
0.047,0.019
0.048,0.018
0.048,0.015
0.049,0.013
0.049,0.010
0.051,0.012
0.048,0.010
0.049,0.011
0.047,0.009
0.049,0.009
0.048,0.005
0.049,0.008
0.046,0.006
0.049,0.005
0.049,0.006
0.050,0.003
0.049,0.001
0.050,0.000
0.050,-0.003
0.050,-0.002
0.051,-0.004
0.050,-0.003
0.049,-0.003
0.051,-0.002
0.050,0.000
0.052,-0.002
0.051,0.001
0.049,-0.000
0.050,0.002
0.049,0.001
0.052,-0.004
0.050,-0.007
0.051,-0.006
0.049,-0.005
0.050,-0.008
0.049,-0.009
0.050,-0.008
0.050,-0.007
0.048,-0.009
0.047,-0.005
0.048,-0.006
0.049,-0.005
0.049,-0.007
0.049,-0.005
0.050,-0.009
0.047,-0.007
0.047,-0.011
0.049,-0.006
0.048,-0.007
0.050,-0.006
0.047,-0.007
0.049,-0.005
0.049,-0.004
0.049,-0.005
0.046,-0.003
0.049,-0.004
0.047,0.000
0.048,-0.000
0.050,0.001
0.047,0.001
0.047,0.003
0.046,0.003
0.049,0.003
0.048,0.003
0.048,0.007
0.046,0.005
0.048,0.007
0.048,0.003
0.052,0.005
0.048,0.004
0.048,0.001
0.047,0.008
0.046,0.006
0.046,0.010
0.035,0.008
0.024,0.013
-0.004,0.012
-0.039,0.013
-0.054,0.013
-0.059,0.013
-0.043,0.015
-0.014,0.015
0.018,0.013
0.047,0.017
0.070,0.017
0.085,0.018
0.094,0.017
0.102,0.023
0.103,0.024
0.107,0.026
0.103,0.025
0.100,0.025
0.093,0.024
0.085,0.026
0.078,0.024
0.069,0.025
0.066,0.026
0.059,0.028
0.058,0.029
0.055,0.032
0.054,0.029
0.049,0.029
0.052,0.034
0.049,0.035
0.048,0.033
0.047,0.033
0.047,0.031
0.050,0.032
0.046,0.032
0.048,0.034
0.045,0.032
0.047,0.033
0.044,0.034
0.044,0.035
0.044,0.037
0.046,0.038
0.044,0.041
0.047,0.038
0.043,0.040
0.049,0.037
0.046,0.041
0.046,0.038
0.043,0.039
0.041,0.036
0.044,0.039
0.043,0.037
0.045,0.037
0.042,0.036
0.046,0.039
0.046,0.038
0.046,0.039
0.046,0.037
0.049,0.040
0.047,0.041
0.049,0.040
0.044,0.041
0.046,0.040
0.043,0.040
0.049,0.037
0.048,0.037
0.043,0.035
0.049,0.036
0.048,0.032
0.050,0.032
0.046,0.033
0.047,0.031
0.048,0.030
0.046,0.030
0.045,0.031
0.047,0.030
0.041,0.034
0.046,0.031
0.043,0.029
0.046,0.025
0.046,0.026
0.044,0.023
0.047,0.022
0.045,0.022
0.049,0.023
0.045,0.019
0.050,0.019
0.049,0.019
0.051,0.019
0.049,0.017
0.051,0.021
0.049,0.015
0.050,0.018
0.050,0.017
0.052,0.014
0.049,0.013
0.052,0.009
0.050,0.007
0.047,0.009
0.048,0.005
0.048,0.007
0.046,0.002
0.048,0.004
0.048,0.003
0.048,0.004
0.049,0.003
0.050,0.002
0.049,0.004
0.049,0.000
0.049,0.001
0.049,-0.001
0.051,0.002
0.049,-0.003
0.049,-0.000
0.056,-0.001
0.060,-0.000
0.044,0.001
0.028,0.000
0.019,-0.000
0.019,0.000
0.018,-0.004
0.023,-0.003
0.026,-0.005
0.033,-0.006
0.037,-0.006
0.045,-0.007
0.059,-0.006
0.067,-0.009
0.074,-0.006
0.075,-0.004
0.070,-0.009
0.067,-0.009
0.063,-0.009
0.059,-0.009
0.058,-0.008
0.054,-0.009
0.051,-0.006
0.052,-0.006
0.049,-0.008
0.049,-0.009
0.050,-0.009
0.049,-0.005
0.049,-0.006
0.045,-0.003
0.045,-0.004
0.045,-0.004
0.047,-0.003
0.047,0.001
0.045,-0.000
0.047,0.001
0.046,-0.003
0.046,-0.001
0.045,-0.002
0.043,-0.004
0.044,-0.001
0.046,0.001
0.046,0.002
0.045,0.004
0.046,0.006
0.045,0.002
0.043,0.008
0.045,0.002
0.045,0.008
0.043,0.006
0.045,0.010
0.043,0.008
0.047,0.009
0.043,0.010
0.048,0.010
0.045,0.012
0.046,0.010
0.044,0.012
0.044,0.012
0.043,0.011
0.045,0.014
0.043,0.010
0.042,0.017
0.040,0.017
0.041,0.017
0.043,0.021
0.043,0.024
0.042,0.022
0.039,0.027
0.043,0.027
0.040,0.026
0.042,0.028
0.041,0.029
0.043,0.026
0.041,0.031
0.040,0.030
0.043,0.032
0.040,0.030
0.045,0.032
0.044,0.032
0.043,0.035
0.044,0.032
0.046,0.034
0.044,0.033
0.045,0.036
0.043,0.034
0.047,0.033
0.043,0.035
0.047,0.035
0.041,0.040
0.044,0.037
0.042,0.039
0.040,0.038
0.044,0.041
0.040,0.039
0.042,0.041
0.042,0.039
0.046,0.040
0.045,0.038
0.046,0.039
0.046,0.036
0.045,0.036
0.045,0.037
0.045,0.036
0.039,0.039
0.042,0.037
0.042,0.039
0.041,0.039
0.042,0.044
0.042,0.040
0.043,0.041
0.044,0.041
0.045,0.041
0.044,0.039
0.046,0.040
0.045,0.039
0.048,0.038
0.044,0.038
0.048,0.038
0.044,0.039
0.047,0.037
0.044,0.041
0.044,0.039
0.045,0.039
0.045,0.034
0.049,0.031
0.046,0.030
0.050,0.032
0.046,0.032
0.049,0.031
0.049,0.030
0.049,0.026
0.048,0.029
0.049,0.025
0.046,0.024
0.051,0.026
0.047,0.026
0.049,0.021
0.045,0.022
0.045,0.022
0.048,0.022
0.045,0.022
0.047,0.022
0.047,0.020
0.047,0.021
0.047,0.017
0.049,0.016
0.050,0.013
0.050,0.014
0.049,0.010
0.047,0.010
0.049,0.008
0.047,0.006
0.047,0.009
0.046,0.004
0.047,0.004
0.047,0.003
0.048,0.005
0.048,0.004
0.051,0.000
0.048,0.000
0.049,-0.001
0.048,-0.001
0.049,-0.000
0.050,-0.003
0.050,-0.005
0.050,-0.006
0.048,-0.006
0.048,-0.007
0.049,-0.004
0.046,-0.004
0.045,-0.003
0.050,-0.004
0.047,-0.004
0.050,-0.003
0.046,-0.002
0.050,-0.005
0.049,-0.006
0.050,-0.011
0.051,-0.011
0.047,-0.011
0.047,-0.009
0.045,-0.006
0.047,-0.009
0.047,-0.006
0.046,-0.008
0.048,-0.005
0.048,-0.006
0.047,-0.007
0.047,-0.010
0.046,-0.011
0.045,-0.008
0.045,-0.006
0.047,-0.009
0.048,-0.008
0.046,-0.009
0.047,-0.005
0.046,-0.004
0.047,-0.004
0.047,-0.001
0.045,-0.003
0.046,-0.001
0.045,-0.001
0.045,-0.002
0.044,-0.001
0.043,-0.001
0.042,-0.000
0.045,0.003
0.045,0.002
0.046,0.002
0.047,0.003
0.046,0.005
0.046,0.006
0.045,0.004
0.044,0.009
0.043,0.004
0.043,0.009
0.043,0.008
0.044,0.009
0.045,0.007
0.042,0.008
0.042,0.010
0.041,0.010
0.040,0.011
0.041,0.010
0.042,0.012
0.039,0.013
0.040,0.013
0.040,0.013
0.043,0.014
0.043,0.016
0.043,0.019
0.042,0.020
0.043,0.017
0.041,0.020
0.045,0.020
0.044,0.024
0.045,0.021
0.043,0.024
0.044,0.023
0.042,0.025
0.040,0.024
0.042,0.029
0.044,0.028
0.042,0.032
0.042,0.029
0.039,0.034
0.042,0.031
0.041,0.032
0.042,0.036
0.044,0.035
0.040,0.031
0.043,0.034
0.044,0.034
0.044,0.035
0.042,0.034
0.044,0.034
0.044,0.034
0.043,0.037
0.042,0.041
0.042,0.039
0.041,0.043
0.042,0.041
0.042,0.042
0.045,0.038
0.043,0.040
0.044,0.038
0.046,0.038
0.045,0.036
0.047,0.037
0.042,0.036
0.047,0.037
0.044,0.037
0.046,0.041
0.043,0.041
0.045,0.041
0.045,0.043
0.044,0.041
0.042,0.042
0.043,0.041
0.042,0.040
0.043,0.040
0.045,0.038
0.045,0.036
0.047,0.036
0.044,0.035
0.050,0.036
0.045,0.037
0.046,0.036
0.045,0.037
0.048,0.034
0.046,0.037
0.045,0.035
0.048,0.035
0.049,0.034
0.048,0.032
0.046,0.030
0.048,0.032
0.048,0.029
0.050,0.029
0.049,0.028
0.051,0.026
0.050,0.024
0.052,0.025
0.047,0.023
0.050,0.023
0.047,0.023
0.052,0.019
0.048,0.024
0.049,0.020
0.052,0.021
0.050,0.018
0.050,0.020
0.051,0.014
0.052,0.014
0.051,0.011
0.054,0.013
0.054,0.010
0.054,0.011
0.054,0.009
0.053,0.010
0.051,0.007
0.050,0.009
0.047,0.006
0.050,0.008
0.050,0.006
0.052,0.005
0.051,0.002
0.048,0.004
0.050,0.001
0.049,0.002
0.049,0.001
0.048,0.000
0.047,0.000
0.049,0.000
0.051,-0.000
0.049,-0.003
0.050,-0.001
0.052,-0.005
0.050,-0.001
0.052,-0.003
0.050,-0.004
0.050,-0.005
0.050,-0.003
0.051,-0.007
0.049,-0.008
0.052,-0.010
0.050,-0.006
0.051,-0.008
0.052,-0.007
0.052,-0.007
0.052,-0.008
0.050,-0.003
0.049,-0.006
0.049,-0.003
0.047,-0.003
0.046,-0.002
0.047,-0.003
0.046,-0.004
0.046,-0.001
0.048,-0.003
0.047,-0.003
0.048,-0.003
0.046,-0.007
0.049,-0.001
0.049,-0.003
0.049,-0.001
0.050,0.002
0.048,-0.001
0.048,0.000
0.048,0.000
0.047,0.004
0.046,0.005
0.046,0.005
0.045,0.006
0.046,0.006
0.046,0.006
0.045,0.008
0.045,0.004
0.047,0.008
0.048,0.009
0.044,0.008
0.045,0.011
0.044,0.010
0.044,0.012
0.045,0.009
0.045,0.015
0.045,0.013
0.046,0.015
0.046,0.014
0.044,0.013
0.046,0.015
0.043,0.017
0.045,0.017
0.043,0.020
0.044,0.018
0.043,0.019
0.043,0.023
0.041,0.023
0.044,0.024
0.046,0.023
0.045,0.026
0.046,0.026
0.048,0.027
0.046,0.028
0.047,0.024
0.045,0.027
0.046,0.027
0.044,0.031
0.041,0.028
0.043,0.033
0.042,0.033
0.042,0.035
0.042,0.033
0.041,0.036
0.042,0.034
0.042,0.036
0.041,0.036
0.047,0.039
0.041,0.036
0.047,0.037
0.043,0.036
0.045,0.036
0.043,0.038
0.040,0.038
0.044,0.038
0.042,0.037
0.044,0.040
0.041,0.038
0.042,0.043
0.044,0.044
0.041,0.047
0.043,0.044
0.045,0.047
0.041,0.043
0.045,0.044
0.043,0.043
0.045,0.042
0.043,0.041
0.044,0.043
0.046,0.043
0.046,0.043
0.044,0.045
0.044,0.042
0.045,0.046
0.045,0.043
0.047,0.045
0.044,0.045
0.035,0.045
0.021,0.045
-0.012,0.043
-0.046,0.041
-0.054,0.041
-0.057,0.037
-0.036,0.040
-0.004,0.037
0.028,0.037
0.057,0.036
0.078,0.036
0.090,0.036
0.097,0.033
0.098,0.037
0.105,0.034
0.106,0.037
0.105,0.034
0.102,0.037
0.095,0.032
0.089,0.031
0.078,0.028
0.071,0.026
0.065,0.025
0.062,0.028
0.058,0.027
0.058,0.023
0.052,0.026
0.056,0.022
0.051,0.023
0.054,0.021
0.052,0.023
0.050,0.019
0.052,0.021
0.051,0.013
0.052,0.016
0.050,0.011
0.049,0.012
0.050,0.012
0.051,0.011
0.050,0.009
0.050,0.008
0.049,0.006
0.047,0.010
0.050,0.006
0.051,0.009
0.049,0.003
0.052,0.007
0.052,0.003
0.051,0.003
0.049,0.003
0.049,0.004
0.048,0.003
0.049,0.004
0.049,0.003
0.050,0.003
0.048,0.000
0.050,0.002
0.051,0.002
0.052,0.002
0.053,0.002
0.052,-0.003
0.052,-0.003
0.052,-0.003
0.051,-0.002
0.050,-0.003
0.048,-0.005
0.047,-0.006
0.048,-0.004
0.049,-0.003
0.049,-0.002
0.052,-0.006
0.053,-0.005
0.052,-0.003
0.051,-0.005
0.049,0.000
0.049,-0.003
0.047,0.001
0.047,-0.003
0.045,-0.003
0.043,-0.003
0.044,-0.003
0.044,-0.002
0.045,-0.002
0.045,-0.001
0.046,0.001
0.046,-0.001
0.048,0.000
0.049,-0.001
0.050,-0.000
0.047,0.002
0.049,0.003
0.046,0.008
0.046,0.002
0.047,0.007
0.043,0.007
0.048,0.008
0.047,0.006
0.047,0.007
0.044,0.009
0.046,0.007
0.043,0.008
0.048,0.010
0.045,0.009
0.047,0.011
0.050,0.013
0.049,0.010
0.047,0.012
0.045,0.014
0.046,0.018
0.045,0.017
0.045,0.016
0.042,0.015
0.044,0.016
0.043,0.017
0.042,0.018
0.046,0.020
0.044,0.019
0.047,0.023
0.042,0.023
0.046,0.025
0.041,0.027
0.044,0.029
0.042,0.027
0.045,0.031
0.042,0.028
0.045,0.032
0.042,0.027
0.046,0.031
0.043,0.029
0.047,0.033
0.043,0.030
0.045,0.033
0.043,0.036
0.044,0.036
0.044,0.039
0.044,0.039
0.045,0.038
0.043,0.037
0.043,0.038
0.043,0.035
0.041,0.038
0.042,0.035
0.044,0.038
0.039,0.035
0.044,0.039
0.040,0.040
0.044,0.041
0.041,0.042
0.044,0.041
0.044,0.043
0.041,0.041
0.044,0.045
0.042,0.042
0.043,0.045
0.042,0.043
0.041,0.045
0.041,0.041
0.039,0.045
0.040,0.041
0.041,0.047
0.041,0.046
0.044,0.044
0.042,0.042
0.045,0.042
0.045,0.046
0.048,0.042
0.048,0.043
0.044,0.041
0.045,0.042
0.047,0.041
0.045,0.044
0.047,0.043
0.046,0.041
0.047,0.038
0.046,0.040
0.046,0.036
0.048,0.038
0.046,0.034
0.050,0.035
0.045,0.032
0.047,0.034
0.045,0.029
0.047,0.027
0.044,0.032
0.045,0.027
0.047,0.033
0.046,0.032
0.045,0.031
0.047,0.031
0.046,0.030
0.049,0.026
0.051,0.025
0.048,0.023
0.047,0.026
0.046,0.023
0.047,0.025
0.044,0.023
0.048,0.020
0.047,0.019
0.049,0.015
0.049,0.013
0.047,0.015
0.048,0.011
0.046,0.013
0.048,0.010
0.046,0.011
0.047,0.012
0.047,0.010
0.047,0.010
0.047,0.008
0.047,0.009
0.049,0.008
0.048,0.006
0.049,0.004
0.048,0.003
0.050,0.002
0.050,0.000
0.049,0.002
0.050,0.001
0.051,0.002
0.050,0.001
0.053,0.002
0.047,0.002
0.049,0.002
0.048,0.001
0.048,-0.001
0.049,0.001
0.047,-0.001
0.050,-0.002
0.049,-0.003
0.049,-0.005
0.051,-0.006
0.050,-0.007
0.051,-0.003
0.049,-0.004
0.049,-0.004
0.048,-0.003
0.047,-0.004
0.047,-0.003
0.050,-0.003
0.050,-0.005
0.047,-0.004
0.047,-0.006
0.048,-0.005
0.045,-0.006
0.049,-0.006
0.047,-0.004
0.048,-0.004
0.046,-0.000
0.045,-0.002
0.046,0.003
0.044,0.002
0.043,0.003
0.042,0.004
0.043,0.005
0.043,0.003
0.043,0.004
0.044,0.003
0.046,0.002
0.044,0.001
0.047,0.005
0.047,0.004
0.044,0.007
0.046,0.008
0.046,0.010
0.045,0.010
0.049,0.009
0.048,0.011
0.045,0.010
0.045,0.014
0.046,0.011
0.046,0.013
0.044,0.013
0.045,0.013
0.044,0.011
0.047,0.013
0.047,0.013
0.046,0.016
0.045,0.013
0.045,0.017
0.044,0.016
0.044,0.020
0.043,0.021
0.045,0.024
0.042,0.024
0.039,0.025
0.040,0.023
0.039,0.024
0.041,0.025
0.039,0.026
0.041,0.027
0.039,0.027
0.041,0.029
0.040,0.034
0.039,0.031
0.041,0.033
0.040,0.031
0.044,0.033
0.043,0.035
0.045,0.034
0.043,0.031
0.046,0.034
0.047,0.032
0.045,0.034
0.042,0.034
0.047,0.036
0.043,0.037
0.042,0.036
0.044,0.037
0.046,0.036
0.044,0.038
0.043,0.034
0.043,0.040
0.039,0.039
0.041,0.042
0.040,0.042
0.043,0.044
0.043,0.043
0.045,0.043
0.046,0.038
0.047,0.039
0.046,0.037
0.048,0.039
0.045,0.038
0.045,0.042
0.045,0.043
0.045,0.043
0.043,0.048
0.045,0.045
0.043,0.049
0.043,0.044
0.042,0.046
0.042,0.041
0.046,0.043
0.046,0.039
0.047,0.039
0.045,0.037
0.048,0.033
0.045,0.037
0.046,0.036
0.045,0.037
0.047,0.039
0.045,0.037
0.048,0.035
0.046,0.037
0.049,0.034
0.047,0.034
0.049,0.031
0.049,0.035
0.047,0.028
0.049,0.028
0.050,0.026
0.052,0.027
0.049,0.028
0.051,0.029
0.049,0.031
0.051,0.028
0.047,0.029
0.049,0.026
0.047,0.025
0.047,0.025
0.047,0.023
0.049,0.023
0.045,0.023
0.049,0.020
0.047,0.021
0.052,0.018
0.050,0.019
0.050,0.015
0.050,0.015
0.049,0.011
0.050,0.013
0.048,0.012
0.048,0.011
0.049,0.008
0.049,0.010
0.049,0.006
0.050,0.010
0.049,0.007
0.048,0.006
0.049,0.001
0.046,0.004
0.047,0.004
0.048,0.002
0.047,0.001
0.050,0.002
0.051,0.000
0.049,-0.000
0.051,0.002
0.049,0.001
0.049,0.001
0.049,-0.001
0.048,0.001
0.049,-0.001
0.049,0.000
0.047,-0.006
0.048,-0.002
0.048,-0.005
0.049,-0.005
0.046,-0.007
0.049,-0.007
0.049,-0.008
0.051,-0.007
0.049,-0.007
0.050,-0.004
0.049,-0.003
0.048,-0.006
0.049,-0.003
0.049,-0.006
0.048,-0.003
0.049,-0.003
0.047,-0.001
0.046,-0.004
0.047,-0.004
0.047,-0.004
0.049,-0.003
0.049,-0.002
0.050,-0.002
0.048,-0.003
0.047,-0.003
0.047,0.001
0.046,0.001
0.046,0.005
0.049,0.002
0.047,0.004
0.048,0.004
0.047,0.006
0.046,0.006
0.043,0.008
0.045,0.007
0.045,0.009
0.043,0.007
0.046,0.007
0.041,0.006
0.046,0.007
0.045,0.009
0.048,0.011
0.045,0.015
0.046,0.013
0.044,0.014
0.045,0.017
0.045,0.020
0.045,0.017
0.045,0.020
0.046,0.018
0.046,0.020
0.047,0.018
0.045,0.023
0.045,0.021
0.044,0.024
0.043,0.024
0.044,0.028
0.044,0.026
0.046,0.024
0.044,0.028
0.043,0.029
0.032,0.025
0.013,0.027
-0.020,0.028
-0.052,0.028
-0.055,0.030
-0.056,0.030
-0.029,0.033
0.004,0.034
0.037,0.036
0.061,0.034
0.081,0.035
0.091,0.038
0.103,0.037
0.103,0.040
0.108,0.038
0.106,0.043
0.104,0.039
0.100,0.042
0.089,0.040
0.080,0.042
0.071,0.037
0.069,0.042
0.060,0.041
0.061,0.040
0.055,0.043
0.054,0.043
0.050,0.045
0.052,0.045
0.051,0.044
0.049,0.043
0.045,0.044
0.050,0.046
0.044,0.047
0.047,0.047
0.045,0.047
0.046,0.043
0.047,0.045
0.047,0.045
0.051,0.045
0.048,0.044
0.049,0.044
0.045,0.046
0.046,0.044
0.046,0.046
0.047,0.045
0.048,0.044
0.051,0.045
0.048,0.043
0.049,0.041
0.049,0.044
0.045,0.040
0.047,0.045
0.043,0.039
0.047,0.042
0.047,0.041
0.049,0.039
0.047,0.040
0.048,0.038
0.046,0.037
0.047,0.036
0.045,0.037
0.046,0.036
0.046,0.036
0.049,0.033
0.049,0.033
0.050,0.030
0.049,0.032
0.048,0.027
0.052,0.028
0.049,0.024
0.052,0.027
0.049,0.024
0.051,0.024
0.049,0.022
0.052,0.021
0.050,0.019
0.055,0.018
0.052,0.016
0.052,0.017
0.049,0.011
0.050,0.017
0.047,0.013
0.050,0.013
0.047,0.011
0.051,0.011
0.049,0.011
0.048,0.012
0.049,0.011
0.049,0.012
0.050,0.009
0.049,0.009
0.050,0.006
0.049,0.006
0.049,0.007
0.049,0.005
0.049,0.007
0.048,0.002
0.048,0.004
0.046,0.002
0.049,0.003
0.048,0.001
0.050,0.001
0.050,0.003
0.052,0.002
0.050,0.001
0.049,-0.001
0.052,0.000
0.052,0.001
0.049,0.003
0.049,-0.002
0.047,0.002
0.047,0.000
0.045,-0.001
0.044,-0.001
0.050,-0.003
0.047,-0.003
0.049,0.000
0.047,-0.002
0.053,-0.002
0.049,-0.000
0.049,-0.001
0.051,-0.001
0.047,-0.001
0.049,0.001
0.046,-0.001
0.044,-0.001
0.045,0.001
0.045,0.006
0.043,0.004
0.045,0.005
0.044,0.002
0.046,0.004
0.043,-0.000
0.050,0.006
0.048,0.004
0.049,0.004
0.048,0.007
0.048,0.007
0.047,0.010
0.045,0.009
0.047,0.011
0.043,0.008
0.045,0.013
0.045,0.011
0.045,0.011
0.044,0.011
0.047,0.014
0.043,0.012
0.048,0.013
0.046,0.011
0.049,0.014
0.045,0.013
0.049,0.016
0.045,0.014
0.048,0.017
0.045,0.014
0.043,0.016
0.045,0.018
0.046,0.020
0.044,0.022
0.042,0.024
0.044,0.023
0.045,0.027
0.045,0.027
0.047,0.030
0.045,0.027
0.047,0.029
0.045,0.029
0.047,0.033
0.045,0.034
0.045,0.032
0.043,0.034
0.044,0.033
0.044,0.033
0.046,0.036
0.045,0.034
0.047,0.037
0.047,0.034
0.047,0.037
0.044,0.038
0.049,0.040
0.046,0.040
0.046,0.037
0.042,0.040
0.047,0.040
0.045,0.042
0.045,0.040
0.045,0.041
0.046,0.042
0.045,0.042
0.045,0.040
0.045,0.045
0.043,0.043
0.044,0.045
0.044,0.045
0.046,0.045
0.044,0.046
0.046,0.043
0.041,0.044
0.045,0.042
0.041,0.044
0.044,0.045
0.041,0.047
0.043,0.044
0.044,0.046
0.042,0.046
0.045,0.045
0.044,0.046
0.045,0.047
0.046,0.047
0.045,0.044
0.046,0.044
0.047,0.041
0.047,0.044
0.047,0.041
0.047,0.042
0.048,0.043
0.043,0.041
0.047,0.042
0.045,0.039
0.046,0.038
0.049,0.038
0.047,0.037
0.048,0.035
0.049,0.036
0.048,0.036
0.050,0.037
0.050,0.035
0.047,0.034
0.047,0.034
0.045,0.034
0.049,0.032
0.046,0.032
0.048,0.026
0.049,0.030
0.048,0.028
0.050,0.029
0.047,0.026
0.049,0.026
0.048,0.023
0.049,0.020
0.048,0.019
0.050,0.020
0.050,0.015
0.052,0.018
0.052,0.015
0.053,0.016
0.050,0.011
0.051,0.014
0.049,0.009
0.051,0.009
0.049,0.009
0.052,0.010
0.047,0.009
0.051,0.010
0.047,0.007
0.050,0.010
0.049,0.007
0.050,0.009
0.048,0.004
0.052,0.006
0.048,0.004
0.049,0.002
0.048,0.003
0.047,0.000
0.046,0.004
0.045,0.002
0.047,0.006
0.046,0.002
0.047,0.004
0.049,0.001
0.050,0.003
0.049,0.000
0.052,0.000
0.049,-0.006
0.050,-0.007
0.048,-0.006
0.049,-0.006
0.049,-0.001
0.048,-0.005
0.046,-0.003
0.047,-0.001
0.047,-0.002
0.047,-0.003
0.050,-0.001
0.050,-0.004
0.049,-0.004
0.050,-0.003
0.050,-0.001
0.047,-0.003
0.051,-0.001
0.051,-0.002
0.051,-0.002
0.049,-0.001
0.050,-0.000
0.048,-0.000
0.047,-0.001
0.046,0.002
0.047,0.002
0.047,0.005
0.044,0.004
0.047,0.005
0.043,0.006
0.047,0.007
0.044,0.004
0.045,0.006
0.046,0.007
0.045,0.010
0.045,0.011
0.045,0.010
0.045,0.011
0.046,0.011
0.043,0.011
0.048,0.010
0.045,0.015
0.044,0.013
0.045,0.017
0.045,0.016
0.045,0.017
0.046,0.016
0.048,0.017
0.046,0.017
0.045,0.019
0.043,0.017
0.042,0.018
0.043,0.019
0.042,0.023
0.040,0.025
0.043,0.028
0.043,0.028
0.045,0.029
0.043,0.031
0.045,0.033
0.046,0.031
0.046,0.032
0.045,0.032
0.044,0.032
0.045,0.032
0.041,0.033
0.041,0.032
0.040,0.032
0.041,0.032
0.041,0.037
0.041,0.038
0.043,0.038
0.045,0.036
0.046,0.036
0.048,0.035
0.044,0.036
0.044,0.036
0.043,0.037
0.043,0.038
0.045,0.039
0.040,0.039
0.045,0.040
0.041,0.043
0.040,0.041
0.040,0.046
0.040,0.045
0.043,0.045
0.043,0.044
0.045,0.043
0.047,0.043
0.047,0.044
0.047,0.039
0.047,0.041
0.045,0.042
0.046,0.043
0.045,0.043
0.044,0.042
0.043,0.045
0.044,0.041
0.040,0.043
0.041,0.043
0.040,0.045
0.043,0.044
0.046,0.044
0.044,0.045
0.046,0.042
0.045,0.042
0.045,0.040
0.047,0.042
0.045,0.040
0.044,0.042
0.045,0.040
0.046,0.042
0.044,0.040
0.043,0.041
0.044,0.040
0.043,0.038
0.047,0.037
0.045,0.039
0.046,0.036
0.047,0.037
0.048,0.033
0.048,0.033
0.051,0.032
0.052,0.029
0.050,0.030
0.049,0.027
0.047,0.030
0.046,0.026
0.046,0.027
0.047,0.024
0.049,0.026
0.047,0.026
0.044,0.025
0.049,0.023
0.046,0.024
0.050,0.019
0.045,0.020
0.051,0.015
0.050,0.017
0.049,0.012
0.049,0.013
0.048,0.013
0.048,0.013
0.050,0.012
0.049,0.010
0.048,0.007
0.047,0.007
0.049,0.007
0.045,0.008
0.049,0.005
0.048,0.008
0.049,0.005
0.048,0.007
0.046,0.006
0.047,0.006
0.046,0.001
0.049,0.004
0.049,0.002
0.052,0.002
0.049,0.000
0.049,-0.001
0.047,0.003
0.050,-0.003
0.047,0.001
0.050,-0.002
0.049,-0.002
0.048,-0.003
0.049,-0.004
0.048,-0.005
0.049,-0.003
0.048,-0.005
0.049,-0.004
0.045,-0.005
0.048,-0.003
0.047,-0.002
0.048,-0.003
0.047,-0.000
0.050,-0.002
0.047,-0.002
0.045,-0.002
0.043,-0.003
0.044,-0.001
0.046,-0.001
0.046,-0.002
0.046,-0.001
0.048,-0.004
0.048,-0.000
0.046,-0.002
0.046,0.002
0.045,0.002
0.046,0.000
0.040,0.005
0.044,0.002
0.041,0.006
0.041,0.004
0.043,0.005
0.041,0.003
0.045,0.006
0.045,0.007
0.046,0.006
0.047,0.009
0.047,0.007
0.046,0.008
0.043,0.008
0.043,0.008
0.043,0.010
0.044,0.010
0.044,0.010
0.040,0.012
0.044,0.014
0.038,0.016
0.043,0.017
0.040,0.018
0.043,0.016
0.041,0.017
0.047,0.013
0.041,0.018
0.043,0.017
0.041,0.016
0.040,0.019
0.041,0.021
0.042,0.023
0.041,0.025
0.044,0.024
0.043,0.026
0.043,0.024
0.044,0.027
0.045,0.025
0.048,0.031
0.044,0.029
0.042,0.030
0.044,0.030
0.041,0.032
0.041,0.029
0.042,0.034
0.043,0.032
0.041,0.037
0.043,0.034
0.044,0.037
0.042,0.038
0.045,0.038
0.042,0.037
0.044,0.037
0.042,0.036
0.043,0.037
0.034,0.035
0.016,0.036
-0.012,0.037
-0.049,0.038
-0.059,0.040
-0.059,0.038
-0.038,0.042
-0.003,0.040
0.028,0.043
0.054,0.038
0.070,0.043
0.082,0.039
0.091,0.039
0.095,0.040
0.101,0.040
0.102,0.040
0.102,0.041
0.096,0.043
0.091,0.043
0.086,0.041
0.077,0.040
0.071,0.042
0.066,0.039
0.062,0.044
0.059,0.043
0.056,0.044
0.054,0.042
0.053,0.043
0.051,0.040
0.052,0.039
0.049,0.040
0.055,0.039
0.052,0.038
0.051,0.036
0.053,0.033
0.050,0.034
0.051,0.035
0.052,0.034
0.049,0.036
0.046,0.035
0.048,0.036
0.050,0.033
0.050,0.032
0.050,0.031
0.049,0.030
0.047,0.028
0.051,0.027
0.050,0.026
0.052,0.025
0.050,0.026
0.049,0.024
0.049,0.025
0.050,0.022
0.052,0.021
0.053,0.021
0.053,0.016
0.052,0.019
0.053,0.014
0.053,0.012
0.050,0.012
0.054,0.010
0.051,0.010
0.051,0.006
0.050,0.003
0.050,0.008
0.049,0.004
0.050,0.008
0.048,0.006
0.053,0.006
0.049,0.004
0.052,0.004
0.049,0.003
0.050,0.004
0.051,0.003
0.048,0.003
0.048,0.003
0.050,0.003
0.045,0.001
0.048,0.001
0.047,0.000
0.049,-0.002
0.047,-0.001
0.049,-0.002
0.051,-0.001
0.050,-0.004
0.054,-0.004
0.052,-0.006
0.053,-0.006
0.052,-0.004
0.052,-0.009
0.049,-0.007
0.051,-0.008
0.048,-0.007
0.047,-0.006
0.048,-0.004
0.051,-0.004
0.054,-0.006
0.051,-0.006
0.051,-0.007
0.050,-0.008
0.049,-0.008
0.050,-0.007
0.049,-0.009
0.048,-0.005
0.049,-0.007
0.048,-0.003
0.047,-0.003
0.046,-0.003
0.041,-0.005
0.043,-0.002
0.043,-0.002
0.045,0.001
0.046,0.000
0.046,-0.001
0.044,0.001
0.047,-0.002
0.047,0.001
0.043,-0.001
0.046,0.002
0.045,0.002
0.045,0.003
0.045,0.006
0.044,0.002
0.045,0.004
0.045,0.006
0.046,0.004
0.046,0.006
0.045,0.006
0.047,0.007
0.050,0.009
0.046,0.008
0.047,0.010
0.046,0.011
0.049,0.013
0.046,0.011
0.051,0.013
0.047,0.011
0.050,0.013
0.045,0.014
0.045,0.015
0.046,0.019
0.042,0.016
0.041,0.021
0.042,0.019
0.045,0.024
0.043,0.023
0.046,0.024
0.044,0.024
0.045,0.026
0.044,0.027
0.045,0.029
0.044,0.026
0.047,0.032
0.045,0.030
0.047,0.031
0.043,0.027
0.047,0.029
0.043,0.031
0.045,0.032
0.041,0.037
0.042,0.034
0.041,0.040
0.041,0.036
0.043,0.038
0.041,0.038
0.043,0.037
0.044,0.037
0.046,0.039
0.044,0.037
0.045,0.042
0.042,0.038
0.044,0.041
0.041,0.037
0.043,0.038
0.043,0.042
0.045,0.040
0.043,0.041
0.047,0.040
0.046,0.043
0.045,0.041
0.042,0.044
0.043,0.041
0.042,0.043
0.039,0.043
0.041,0.043
0.041,0.039
0.042,0.042
0.044,0.041
0.045,0.042
0.044,0.042
0.046,0.042
0.044,0.042
0.046,0.041
0.045,0.041
0.048,0.038
0.046,0.042
0.047,0.037
0.045,0.040
0.042,0.037
0.045,0.038
0.041,0.035
0.045,0.036
0.046,0.034
0.047,0.034
0.049,0.029
0.051,0.031
0.049,0.030
0.050,0.029
0.050,0.032
0.050,0.030
0.048,0.030
0.047,0.029
0.045,0.029
0.046,0.026
0.051,0.027
0.049,0.026
0.049,0.025
0.048,0.023
0.051,0.022
0.047,0.020
0.048,0.020
0.048,0.019
0.051,0.021
0.050,0.019
0.052,0.020
0.050,0.016
0.051,0.013
0.048,0.011
0.051,0.011
0.047,0.008
0.049,0.008
0.044,0.008
0.046,0.008
0.048,0.007
0.049,0.007
0.049,0.006
0.051,0.003
0.051,0.002
0.053,0.000
0.052,0.000
0.050,-0.000
0.048,0.003
0.045,0.001
0.048,0.005
0.048,0.002
0.048,0.000
0.050,0.000
0.046,-0.002
0.047,-0.002
0.048,-0.001
0.048,-0.003
0.049,-0.002
0.050,-0.002
0.052,-0.001
0.051,-0.002
0.050,-0.005
0.049,-0.003
0.049,-0.004
0.049,-0.004
0.049,-0.008
0.048,-0.003
0.045,-0.002
0.049,-0.003
0.049,-0.004
0.049,-0.002
0.047,-0.007
0.050,-0.004
0.049,-0.005
0.048,-0.007
0.049,-0.003
0.048,-0.006
0.049,-0.002
0.048,-0.005
0.048,-0.003
0.047,-0.005
0.050,-0.001
0.049,-0.001
0.050,-0.000
0.046,-0.002
0.049,-0.000
0.047,-0.000
0.045,0.000
0.049,0.000
0.044,0.001
0.047,0.004
0.044,0.004
0.045,0.008
0.047,0.007
0.043,0.011
0.041,0.008
0.044,0.008
0.042,0.010
0.045,0.010
0.042,0.009
0.046,0.013
0.045,0.010
0.048,0.011
0.048,0.009
0.045,0.010
0.047,0.012
0.048,0.015
0.047,0.016
0.047,0.015
0.047,0.016
0.046,0.015
0.045,0.017
0.043,0.017
0.043,0.019
0.044,0.019
0.046,0.021
0.041,0.025
0.041,0.023
0.044,0.028
0.044,0.024
0.046,0.027
0.041,0.029
0.043,0.032
0.042,0.029
0.045,0.032
0.043,0.032
0.046,0.038
0.044,0.034
0.044,0.036
0.043,0.035
0.044,0.036
0.043,0.038
0.044,0.034
0.040,0.038
0.044,0.034
0.043,0.040
0.041,0.038
0.042,0.038
0.042,0.037
0.043,0.036
0.045,0.036
0.047,0.040
0.044,0.038
0.044,0.041
0.042,0.041
0.047,0.041
0.045,0.043
0.046,0.040
0.047,0.041
0.047,0.041
0.046,0.042
0.045,0.040
0.043,0.041
0.044,0.041
0.043,0.045
0.044,0.045
0.044,0.047
0.043,0.043
0.044,0.046
0.042,0.043
0.044,0.045
0.045,0.043
0.045,0.043
0.043,0.040
0.044,0.039
0.043,0.042
0.044,0.038
0.046,0.041
0.046,0.041
0.044,0.043
0.044,0.039
0.048,0.039
0.046,0.036
0.049,0.038
0.045,0.036
0.048,0.039
0.045,0.036
0.045,0.035
0.045,0.032
0.047,0.032
0.047,0.034
0.046,0.033
0.046,0.036
0.046,0.029
0.048,0.032
0.046,0.029
0.048,0.029
0.044,0.025
0.048,0.027
0.047,0.024
0.048,0.027
0.046,0.023
0.050,0.025
0.047,0.023
0.050,0.023
0.049,0.019
0.052,0.018
0.049,0.017
0.050,0.016
0.051,0.013
0.051,0.014
0.047,0.010
0.048,0.011
0.047,0.010
0.049,0.010
0.048,0.012
0.049,0.010
0.048,0.009
0.050,0.008
0.049,0.005
0.050,0.006
0.049,0.003
0.050,0.005
0.048,0.003
0.046,0.002
0.046,0.002
0.048,0.002
0.044,0.004
0.046,0.000
0.042,0.003
0.044,0.001
0.044,0.002
0.045,0.003
0.046,0.001
0.047,-0.001
0.049,-0.002
0.050,-0.004
0.049,-0.006
0.048,-0.003
0.049,-0.005
0.046,-0.005
0.047,-0.005
0.045,-0.004
0.046,-0.005
0.043,-0.002
0.045,-0.003
0.047,-0.004
0.046,-0.004
0.049,-0.003
0.047,-0.005
0.048,-0.005
0.048,-0.004
0.048,-0.004
0.051,-0.003
0.046,-0.005
0.044,-0.004
0.045,-0.003
0.044,0.000
0.042,0.000
0.041,0.000
0.044,-0.000
0.043,-0.001
0.044,-0.001
0.044,-0.000
0.044,0.002
0.049,0.003
0.047,0.004
0.047,0.002
0.046,0.008
0.046,0.004
0.046,0.008
0.044,0.006
0.044,0.008
0.042,0.010
0.041,0.010
0.043,0.011
0.043,0.010
0.046,0.012
0.044,0.014
0.044,0.012
0.044,0.012
0.045,0.013
0.045,0.013
0.044,0.015
0.045,0.015
0.044,0.015
0.044,0.016
0.044,0.018
0.045,0.020
0.042,0.019
0.042,0.024
0.042,0.023
0.042,0.024
0.042,0.022
0.041,0.026
0.042,0.027
0.044,0.028
0.042,0.027
0.043,0.030
0.040,0.027
0.041,0.029
0.040,0.032
0.044,0.034
0.039,0.035
0.040,0.036
0.038,0.034
0.043,0.035
0.040,0.036
0.044,0.038
0.043,0.036
0.045,0.037
0.044,0.037
0.045,0.038
0.043,0.039
0.045,0.037
0.041,0.039
0.044,0.038
0.038,0.044
0.039,0.040
0.036,0.043
0.039,0.042
0.039,0.045
0.037,0.042
0.043,0.046
0.043,0.044
0.045,0.045
0.043,0.041
0.049,0.038
0.046,0.039
0.047,0.041
0.046,0.045
0.050,0.043
0.055,0.045
0.043,0.046
0.027,0.046
0.020,0.047
0.013,0.046
0.017,0.044
0.017,0.046
0.021,0.044
0.026,0.045
0.028,0.043
0.035,0.042
0.046,0.041
0.062,0.041
0.069,0.039
0.075,0.037
0.073,0.041
0.071,0.036
0.065,0.042
0.061,0.039
0.054,0.040
0.053,0.040
0.053,0.035
0.050,0.034
0.051,0.033
0.049,0.031
0.050,0.031
0.051,0.034
0.047,0.031
0.045,0.032
0.049,0.032
0.045,0.031
0.047,0.030
0.045,0.028
0.048,0.027
0.046,0.028
0.046,0.025
0.049,0.023
0.048,0.026
0.046,0.021
0.050,0.021
0.050,0.021
0.053,0.019
0.050,0.017
0.052,0.016
0.049,0.015
0.047,0.012
0.046,0.014
0.046,0.011
0.046,0.012
0.046,0.011
0.045,0.014
0.044,0.011
0.047,0.010
0.047,0.009
0.047,0.006
0.046,0.004
0.049,0.006
0.044,0.003
0.050,0.007
0.044,0.004
0.049,0.002
0.047,0.003
0.048,0.002
0.047,0.004
0.047,0.000
0.044,0.002
0.043,0.000
0.046,0.002
0.047,-0.000
0.051,-0.001
0.046,-0.004
0.053,-0.004
0.049,-0.005
0.050,-0.007
0.049,-0.007
0.050,-0.006
0.048,-0.004
0.048,-0.005
0.047,-0.004
0.047,-0.006
0.049,-0.005
0.049,-0.005
0.047,-0.003
0.049,-0.004
0.046,-0.005
0.047,-0.007
0.046,-0.004
0.047,-0.009
0.049,-0.006
0.047,-0.008
0.047,-0.006
0.045,-0.003
0.046,-0.002
0.044,0.001
0.044,0.000
0.046,0.002
0.045,0.003
0.043,0.000
0.043,0.003
0.041,0.002
0.040,0.002
0.041,0.004
0.046,0.002
0.047,0.003
0.046,0.002
0.048,0.004
0.046,0.002
0.048,0.006
0.048,0.006
0.047,0.007
0.044,0.010
0.047,0.008
0.043,0.012
0.044,0.011
0.043,0.013
0.044,0.012
0.043,0.012
0.044,0.012
0.045,0.013
0.044,0.014
0.045,0.013
0.043,0.013
0.040,0.012
0.039,0.015
0.028,0.017
0.014,0.015
-0.018,0.021
-0.052,0.024
-0.067,0.026
-0.070,0.025
-0.045,0.028
-0.015,0.027
0.021,0.028
0.050,0.030
0.070,0.030
0.085,0.029
0.093,0.032
0.096,0.030
0.099,0.035
0.102,0.030
0.100,0.036
0.095,0.037
0.088,0.034
0.080,0.033
0.074,0.034
0.066,0.033
0.062,0.033
0.057,0.032
0.055,0.032
0.052,0.034
0.051,0.033
0.051,0.037
0.047,0.037
0.045,0.039
0.045,0.042
0.044,0.043
0.045,0.039
0.046,0.040
0.046,0.038
0.050,0.043
0.047,0.038
0.050,0.041
0.046,0.040
0.049,0.037
0.046,0.041
0.043,0.038
0.043,0.042
0.044,0.039
0.042,0.045
0.044,0.045
0.043,0.047
0.042,0.046
0.045,0.046
0.042,0.041
0.045,0.043
0.044,0.039
0.047,0.043
0.047,0.039
0.048,0.042
0.044,0.043
0.048,0.039
0.045,0.041
0.047,0.037
0.049,0.040
0.046,0.037
0.045,0.039
0.045,0.037
0.046,0.037
0.045,0.037
0.048,0.035
0.047,0.032
0.051,0.035
0.047,0.029
0.050,0.031
0.051,0.031
0.051,0.029
0.050,0.031
0.049,0.030
0.045,0.030
0.049,0.028
0.045,0.030
0.046,0.025
0.040,0.027
0.045,0.023
0.045,0.026
0.047,0.022
0.046,0.023
0.046,0.021
0.045,0.020
0.046,0.020
0.047,0.019
0.048,0.015
0.048,0.018
0.048,0.014
0.050,0.013
0.050,0.011
0.049,0.013
0.049,0.008
0.049,0.011
0.047,0.007
0.047,0.008
0.050,0.007
0.049,0.006
0.050,0.008
0.047,0.006
0.050,0.003
0.045,0.001
0.047,-0.000
0.049,0.000
0.050,0.003
0.050,0.000
0.048,0.002
0.045,-0.001
0.045,0.006
0.050,0.002
0.047,0.004
0.046,0.001
0.049,0.001
0.047,-0.000
0.050,-0.000
0.047,-0.002
0.050,-0.003
0.047,-0.004
0.050,-0.004
0.049,-0.004
0.049,-0.005
0.048,-0.002
0.048,-0.004
0.047,-0.002
0.047,-0.003
0.048,-0.001
0.047,-0.003
0.045,-0.005
0.044,-0.005
0.047,-0.001
0.048,-0.004
0.050,-0.001
0.046,-0.004
0.050,-0.002
0.047,-0.002
0.047,-0.001
0.048,0.003
0.047,0.001
0.050,0.002
0.049,0.001
0.050,0.001
0.045,-0.000
0.046,0.005
0.045,0.005
0.046,0.007
0.047,0.006
0.047,0.010
0.044,0.006
0.048,0.007
0.044,0.008
0.045,0.008
0.044,0.010
0.043,0.008
0.046,0.010
0.042,0.009
0.047,0.011
0.044,0.008
0.042,0.012
0.045,0.012
0.045,0.016
0.043,0.014
0.044,0.016
0.043,0.015
0.042,0.018
0.041,0.015
0.041,0.018
0.041,0.020
0.041,0.022
0.043,0.024
0.042,0.025
0.042,0.024
0.041,0.024
0.045,0.026
0.043,0.027
0.044,0.026
0.044,0.026
0.047,0.029
0.043,0.027
0.042,0.028
0.041,0.030
0.042,0.029
0.044,0.033
0.044,0.034
0.044,0.037
0.042,0.036
0.042,0.037
0.043,0.037
0.040,0.037
0.042,0.035
0.042,0.038
0.042,0.036
0.043,0.038
0.041,0.036
0.042,0.038
0.040,0.038
0.045,0.038
0.038,0.037
0.043,0.037
0.041,0.039
0.042,0.040
0.042,0.045
0.041,0.041
0.039,0.041
0.042,0.040
0.042,0.042
0.041,0.043
0.039,0.045
0.041,0.043
0.042,0.044
0.044,0.041
0.043,0.044
0.042,0.044
0.046,0.044
0.043,0.043
0.047,0.044
0.043,0.045
0.045,0.041
0.040,0.043
0.043,0.042
0.041,0.039
0.043,0.039
0.044,0.038
0.045,0.038
0.045,0.037
0.045,0.036
0.045,0.039
0.042,0.035
0.046,0.035
0.043,0.035
0.046,0.034
0.043,0.034
0.042,0.036
0.042,0.037
0.045,0.035
0.045,0.031
0.046,0.031
0.045,0.030
0.047,0.028
0.047,0.028
0.045,0.026
0.048,0.030
0.048,0.026
0.047,0.026
0.046,0.025
0.049,0.022
0.046,0.021
0.048,0.020
0.050,0.020
0.052,0.019
0.052,0.018
0.052,0.017
0.050,0.014
0.050,0.013
0.049,0.011
0.051,0.013
0.049,0.009
0.050,0.013
0.045,0.010
0.048,0.013
0.048,0.012
0.049,0.011
0.045,0.010
0.049,0.010
0.046,0.008
0.047,0.006
0.047,0.009
0.048,0.004
0.047,0.008
0.047,0.006
0.047,0.007
0.047,0.005
0.048,0.005
0.044,0.002
0.047,0.004
0.047,-0.000
0.048,0.002
0.047,-0.000
0.050,0.000
0.048,0.000
0.052,-0.002
0.050,-0.001
0.052,-0.003
0.047,-0.001
0.048,-0.005
0.045,-0.002
0.046,-0.002
0.048,-0.002
0.043,-0.003
0.047,0.000
0.047,-0.002
0.050,0.000
0.051,-0.002
0.051,-0.001
0.048,-0.003
0.049,-0.001
0.046,-0.000
0.049,-0.000
0.044,0.000
0.045,0.001
0.042,0.004
0.043,0.001
0.045,0.004
0.045,0.001
0.046,0.006
0.047,0.002
0.049,0.002
0.049,0.003
0.048,0.002
0.048,0.006
0.045,0.006
0.046,0.011
0.046,0.009
0.046,0.012
0.044,0.010
0.043,0.012
0.047,0.012
0.044,0.012
0.046,0.009
0.045,0.010
0.045,0.010
0.047,0.012
0.045,0.011
0.048,0.015
0.047,0.015
0.049,0.012
0.046,0.015
0.046,0.015
0.044,0.016
0.046,0.017
0.045,0.017
0.044,0.021
0.042,0.020
0.043,0.020
0.042,0.021
0.045,0.024
0.042,0.023
0.045,0.028
0.041,0.028
0.044,0.028
0.042,0.030
0.044,0.031
0.041,0.030
0.041,0.030
0.042,0.029
0.040,0.032
0.041,0.029
0.041,0.035
0.039,0.035
0.041,0.039
0.041,0.037
0.044,0.036
0.041,0.037
0.043,0.038
0.043,0.042
0.042,0.039
0.043,0.043
0.041,0.040
0.043,0.041
0.040,0.039
0.040,0.038
0.042,0.042
0.042,0.041
0.041,0.042
0.042,0.044
0.043,0.043
0.044,0.044
0.045,0.044
0.045,0.045
0.045,0.043
0.045,0.042
0.044,0.046
0.042,0.043
0.042,0.046
0.042,0.042
0.041,0.044
0.042,0.045
0.043,0.046
0.043,0.046
0.046,0.047
0.045,0.046
0.043,0.047
0.045,0.048
0.042,0.049
0.046,0.046
0.045,0.045
0.047,0.048
0.044,0.045
0.042,0.046
0.042,0.045
0.044,0.045
0.043,0.042
0.042,0.042
0.042,0.039
0.047,0.040
0.047,0.037
0.049,0.037
0.046,0.035
0.048,0.035
0.044,0.036
0.046,0.033
0.047,0.037
0.044,0.035
0.044,0.034
0.045,0.031
0.047,0.030
0.045,0.030
0.046,0.032
0.046,0.026
0.048,0.028
0.043,0.023
0.048,0.025
0.049,0.024
0.050,0.025
0.052,0.022
0.052,0.023
0.052,0.021
0.051,0.021
0.050,0.017
0.049,0.016
0.050,0.013
0.049,0.015
0.048,0.012
0.049,0.012
0.049,0.014
0.049,0.012
0.048,0.010
0.050,0.010
0.048,0.009
0.051,0.007
0.047,0.007
0.049,0.003
0.049,0.003
0.047,0.003
0.049,0.004
0.049,0.004
0.048,0.003
0.049,0.000
0.046,0.000
0.049,0.001
0.046,-0.000
0.046,0.003
0.045,0.000
0.048,0.001
0.050,0.002
0.049,-0.000
0.050,-0.000
0.052,-0.005
0.053,-0.007
0.051,-0.003
0.050,-0.005
0.047,-0.004
0.047,-0.005
0.044,-0.005
0.040,-0.003
0.048,-0.003
0.046,-0.003
0.045,-0.000
0.043,-0.004
0.048,-0.001
0.047,-0.004
0.047,-0.003
0.047,-0.002
0.045,-0.001
0.045,-0.001
0.045,-0.003
0.044,0.000
0.042,-0.003
0.045,0.002
0.044,-0.001
0.046,0.002
0.042,0.003
0.045,0.005
0.044,0.004
0.048,0.004
0.047,0.001
0.046,0.001
0.046,0.001
0.046,0.003
0.046,0.008
0.046,0.008
0.046,0.009
0.043,0.010
0.042,0.012
0.044,0.010
0.042,0.014
0.043,0.011
0.046,0.011
0.043,0.013
0.046,0.013
0.046,0.012
0.046,0.014
0.042,0.013
0.045,0.015
0.045,0.014
0.046,0.018
0.042,0.021
0.046,0.019
0.042,0.019
0.045,0.022
0.039,0.020
0.043,0.024
0.043,0.023
0.040,0.026
0.041,0.026
0.040,0.031
0.038,0.028
0.041,0.032
0.039,0.030
0.045,0.030
0.042,0.028
0.043,0.030
0.042,0.028
0.044,0.032
0.042,0.033
0.041,0.036
0.040,0.036
0.042,0.036
0.040,0.034
0.042,0.035
0.043,0.032
0.045,0.034
0.043,0.036
0.045,0.035
0.044,0.040
0.043,0.036
0.039,0.037
0.043,0.037
0.039,0.038
0.039,0.037
0.038,0.041
0.038,0.041
0.040,0.044
0.040,0.043
0.041,0.043
0.039,0.041
0.044,0.043
0.044,0.040
0.044,0.043
0.042,0.040
0.043,0.041
0.043,0.043
0.040,0.042
0.040,0.044
0.042,0.045
0.040,0.045
0.040,0.044
0.043,0.046
0.042,0.043
0.043,0.045
0.041,0.043
0.045,0.044
0.044,0.042
0.045,0.040
0.044,0.040
0.046,0.041
0.044,0.040
0.047,0.039
0.044,0.040
0.046,0.037
0.043,0.037
0.046,0.037
0.045,0.036
0.046,0.034
0.048,0.034
0.048,0.030
0.046,0.032
0.046,0.030
0.045,0.031
0.048,0.031
0.045,0.028
0.043,0.030
0.045,0.026
0.041,0.028
0.045,0.025
0.044,0.025
0.046,0.024
0.044,0.023
0.047,0.023
0.047,0.024
0.047,0.024
0.050,0.022
0.049,0.020
0.051,0.021
0.049,0.015
0.047,0.017
0.046,0.013
0.045,0.017
0.046,0.014
0.046,0.013
0.047,0.009
0.044,0.010
0.047,0.009
0.048,0.008
0.049,0.007
0.052,0.006
0.049,0.004
0.049,0.004
0.049,-0.000
0.053,0.003
0.050,0.002
0.051,0.003
0.050,0.002
0.047,0.001
0.049,0.004
0.048,-0.000
0.049,0.000
0.046,-0.000
0.047,0.001
0.047,0.001
0.045,0.001
0.048,-0.000
0.049,0.001
0.049,-0.003
0.049,-0.002
0.047,-0.004
0.048,-0.003
0.047,-0.007
0.049,-0.005
0.047,-0.002
0.048,-0.006
0.045,-0.003
0.043,-0.006
0.043,0.001
0.047,-0.002
0.044,-0.003
0.046,-0.006
0.047,-0.005
0.044,-0.007
0.047,-0.007
0.044,-0.003
0.047,-0.003
0.045,-0.004
0.047,-0.001
0.044,-0.001
0.047,0.001
0.045,0.000
0.045,0.000
0.045,0.003
0.045,0.003
0.042,0.005
0.041,0.004
0.042,0.005
0.040,0.003
0.046,0.005
0.042,0.003
0.047,0.006
0.045,0.005
0.046,0.005
0.048,0.010
0.045,0.008
0.046,0.008
0.046,0.009
0.046,0.010
0.047,0.010
0.044,0.015
0.048,0.010
0.044,0.014
0.045,0.012
0.045,0.016
0.046,0.013
0.045,0.014
0.045,0.013
0.049,0.013
0.045,0.015
0.046,0.016
0.044,0.017
0.043,0.019
0.044,0.021
0.042,0.025
0.044,0.023
0.041,0.028
0.042,0.026
0.043,0.027
0.044,0.024
0.046,0.030
0.047,0.028
0.047,0.030
0.044,0.029
0.043,0.031
0.043,0.029
0.040,0.031
0.042,0.032
0.041,0.034
0.043,0.034
0.035,0.036
0.022,0.035
-0.000,0.036
-0.038,0.033
-0.057,0.034
-0.059,0.033
-0.046,0.037
-0.020,0.035
0.015,0.035
0.043,0.039
0.065,0.034
0.084,0.040
0.093,0.038
0.100,0.045
0.104,0.041
0.106,0.045
0.105,0.045
0.102,0.043
0.094,0.043
0.087,0.042
0.081,0.042
0.075,0.042
0.068,0.040
0.064,0.040
0.060,0.040
0.056,0.040
0.055,0.042
0.052,0.041
0.050,0.046
0.051,0.042
0.050,0.047
0.050,0.045
0.049,0.046
0.050,0.041
0.052,0.043
0.049,0.039
0.051,0.038
0.050,0.036
0.051,0.036
0.049,0.035
0.049,0.032
0.050,0.032
0.050,0.033
0.050,0.036
0.050,0.034
0.047,0.036
0.048,0.032
0.048,0.035
0.048,0.031
0.048,0.033
0.047,0.030
0.049,0.032
0.048,0.027
0.051,0.029
0.049,0.027
0.048,0.024
0.048,0.026
0.048,0.019
0.048,0.023
0.050,0.021
0.050,0.024
0.049,0.023
0.049,0.023
0.049,0.017
0.050,0.019
0.049,0.017
0.052,0.015
0.052,0.012
0.051,0.010
0.050,0.010
0.050,0.012
0.050,0.008
0.049,0.008
0.049,0.008
0.051,0.009
0.050,0.010
0.049,0.007
0.048,0.005
0.046,0.004
0.048,0.003
0.048,0.008
0.048,0.005
0.043,0.005
0.046,0.003
0.046,0.004
0.046,0.004
0.047,-0.001
0.047,0.000
0.045,-0.000
0.045,-0.003
0.046,0.001
0.048,-0.004
0.050,-0.002
0.050,-0.005
0.050,-0.005
0.049,-0.003
0.048,-0.007
0.046,-0.005
0.049,-0.007
0.047,-0.007
0.045,-0.008
0.047,-0.006
0.049,-0.007
0.050,-0.006
0.047,-0.005
0.049,-0.005
0.049,-0.006
0.048,-0.005
0.049,-0.006
0.046,-0.008
0.046,-0.003
0.045,-0.006
0.043,-0.001
0.044,-0.004
0.044,-0.003
0.042,-0.003
0.046,-0.006
0.045,-0.002
0.047,-0.002
0.047,0.000
0.046,-0.002
0.047,-0.002
0.045,-0.001
0.046,0.002
0.044,-0.001
0.042,0.005
0.046,0.002
0.044,0.007
0.045,0.002
0.047,0.004
0.045,0.002
0.045,0.005
0.044,0.005
0.044,0.007
0.044,0.007
0.046,0.010
0.045,0.009
0.044,0.008
0.046,0.009
0.047,0.009
0.049,0.011
0.049,0.010
0.047,0.013
0.047,0.013
0.048,0.015
0.045,0.015
0.047,0.015
0.047,0.017
0.048,0.019
0.045,0.018
0.048,0.020
0.048,0.023
0.046,0.023
0.045,0.025
0.046,0.025
0.045,0.026
0.044,0.026
0.045,0.031
0.043,0.030
0.045,0.032
0.041,0.030
0.043,0.031
0.040,0.030
0.043,0.033
0.041,0.033
0.043,0.035
0.042,0.034
0.045,0.036
0.044,0.036
0.043,0.036
0.043,0.037
0.045,0.039
0.044,0.040
0.045,0.037
0.043,0.036
0.045,0.035
0.046,0.035
0.043,0.036
0.045,0.039
0.043,0.037
0.042,0.038
0.044,0.038
0.046,0.038
0.047,0.039
0.048,0.039
0.048,0.039
0.048,0.037
0.045,0.041
0.047,0.037
0.043,0.041
0.046,0.037
0.044,0.039
0.044,0.038
0.044,0.039
0.043,0.038
0.046,0.040
0.043,0.040
0.048,0.039
0.046,0.041
0.049,0.040
0.046,0.043
0.049,0.037
0.045,0.042
0.043,0.039
0.043,0.038
0.045,0.036
0.045,0.034
0.049,0.034
0.047,0.037
0.049,0.035
0.047,0.034
0.050,0.033
0.049,0.034
0.048,0.028
0.052,0.029
0.050,0.031
0.050,0.029
0.049,0.030
0.050,0.027
0.047,0.030
0.051,0.025
0.045,0.025
0.050,0.024
0.047,0.022
0.049,0.021
0.050,0.023
0.050,0.022
0.049,0.023
0.049,0.020
0.047,0.020
0.046,0.019
0.050,0.018
0.047,0.017
0.049,0.015
0.049,0.014
0.050,0.013
0.048,0.010
0.051,0.010
0.050,0.008
0.049,0.009
0.048,0.008
0.050,0.011
0.049,0.009
0.053,0.008
0.048,0.004
0.052,0.005
0.051,0.004
0.052,0.002
0.049,0.002
0.050,0.001
0.052,0.002
0.050,-0.002
0.050,0.000
0.050,-0.003
0.050,0.001
0.048,-0.002
0.047,-0.001
0.046,-0.003
0.049,0.000
0.049,-0.003
0.052,-0.002
0.049,-0.004
0.052,-0.003
0.050,-0.006
0.052,-0.007
0.050,-0.008
0.052,-0.011
0.050,-0.006
0.048,-0.007
0.050,-0.006
0.049,-0.006
0.049,-0.005
0.049,-0.006
0.051,-0.004
0.050,-0.007
0.051,-0.004
0.048,-0.008
0.050,-0.007
0.049,-0.006
0.048,-0.007
0.047,-0.007
0.050,-0.006
0.047,-0.002
0.050,-0.003
0.049,-0.000
0.051,-0.001
0.047,0.001
0.046,-0.001
0.047,-0.001
0.046,-0.001
0.046,-0.001
0.044,-0.001
0.047,0.002
0.045,-0.003
0.048,0.004
0.049,-0.001
0.047,0.002
0.045,0.002
0.047,0.002
0.046,0.006
0.046,0.005
0.046,0.011
0.044,0.011
0.046,0.012
0.042,0.010
0.045,0.012
0.045,0.010
0.046,0.012
0.045,0.010
0.048,0.014
0.046,0.014
0.045,0.015
0.042,0.012
0.043,0.017
0.042,0.018
0.043,0.018
0.039,0.022
0.043,0.022
0.041,0.024
0.044,0.023
0.046,0.024
0.045,0.025
0.045,0.027
0.044,0.029
0.044,0.029
0.043,0.028
0.040,0.026
0.042,0.030
0.043,0.028
0.044,0.032
0.046,0.031
0.044,0.033
0.044,0.033
0.045,0.034
0.044,0.032
0.044,0.034
0.045,0.034
0.045,0.034
0.045,0.032
0.046,0.033
0.043,0.031
0.045,0.032
0.043,0.032
0.046,0.034
0.042,0.036
0.044,0.037
0.040,0.041
0.043,0.039
0.043,0.041
0.043,0.043
0.044,0.040
0.045,0.040
0.045,0.038
0.043,0.036
0.044,0.038
0.044,0.038
0.048,0.038
0.045,0.036
0.047,0.037
0.045,0.039
0.046,0.038
0.043,0.040
0.046,0.039
0.045,0.042
0.048,0.042
0.047,0.040
0.046,0.041
0.048,0.039
0.049,0.039
0.051,0.036
0.049,0.034
0.047,0.035
0.049,0.034
0.048,0.035
0.047,0.035
0.050,0.037
0.047,0.035
0.048,0.032
0.045,0.035
0.047,0.035
0.048,0.035
0.049,0.032
0.048,0.035
0.047,0.031
0.050,0.031
0.049,0.033
0.050,0.029
0.051,0.025
0.048,0.024
0.049,0.025
0.048,0.024
0.049,0.026
0.050,0.024
0.047,0.023
0.052,0.023
0.049,0.024
0.048,0.017
0.048,0.020
0.051,0.019
0.050,0.017
0.053,0.016
0.051,0.014
0.053,0.012
0.051,0.010
0.052,0.010
0.049,0.013
0.048,0.012
0.048,0.010
0.049,0.009
0.050,0.011
0.050,0.009
0.050,0.009
0.050,0.006
0.048,0.006
0.050,0.006
0.049,0.008
0.049,0.006
0.048,0.006
0.049,-0.000
0.051,0.003
0.050,0.001
0.052,0.002
0.050,0.001
0.052,-0.000
0.050,-0.001
0.052,-0.002
0.051,-0.002
0.052,-0.003
0.054,-0.001
0.051,-0.002
0.053,-0.001
0.050,-0.005
0.050,-0.003
0.049,-0.004
0.050,-0.002
0.048,-0.008
0.048,-0.004
0.047,-0.006
0.051,-0.006
0.049,-0.005
0.050,-0.004
0.048,-0.003
0.049,-0.004
0.049,-0.005
0.049,-0.004
0.048,-0.000
0.046,-0.002
0.047,-0.002
0.046,-0.003
0.047,-0.001
0.047,-0.003
0.045,-0.001
0.045,-0.003
0.045,-0.002
0.043,0.001
0.045,0.002
0.040,0.006
0.043,0.003
0.041,0.006
0.045,0.004
0.044,0.005
0.043,0.005
0.043,0.007
0.042,0.006
0.044,0.008
0.044,0.007
0.048,0.010
0.043,0.007
0.046,0.009
0.044,0.007
0.044,0.010
0.045,0.014
0.046,0.012
0.046,0.015
0.045,0.012
0.044,0.016
0.044,0.015
0.042,0.018
0.042,0.015
0.043,0.019
0.043,0.017
0.043,0.018
0.042,0.020
0.042,0.025
0.042,0.025
0.043,0.027
0.044,0.026
0.043,0.028
0.043,0.028
0.043,0.029
0.044,0.032
0.042,0.029
0.047,0.035
0.043,0.029
0.046,0.032
0.044,0.030
0.044,0.032
0.041,0.033
0.046,0.033
0.045,0.037
0.047,0.034
0.044,0.038
0.047,0.036
0.043,0.038
0.045,0.040
0.043,0.040
0.043,0.042
0.040,0.041
0.044,0.041
0.044,0.043
0.042,0.041
0.043,0.041
0.040,0.041
0.042,0.040
0.040,0.040
0.042,0.040
0.040,0.042
0.043,0.041
0.038,0.043
0.041,0.041
0.040,0.040
0.041,0.043
0.038,0.043
0.041,0.043
0.038,0.045
0.040,0.044
0.041,0.044
0.039,0.042
0.041,0.044
0.041,0.044
0.044,0.043
0.043,0.045
0.044,0.043
0.044,0.049
0.047,0.046
0.045,0.044
0.046,0.043
0.042,0.041
0.044,0.043
0.044,0.043
0.046,0.040
0.047,0.038
0.049,0.038
0.049,0.040
0.046,0.036
0.047,0.037
0.049,0.035
0.047,0.036
0.044,0.037
0.046,0.033
0.044,0.036
0.043,0.032
0.041,0.032
0.043,0.031
0.044,0.032
0.045,0.029
0.045,0.027
0.046,0.027
0.047,0.027
0.050,0.025
0.046,0.030
0.049,0.024
0.049,0.024
0.046,0.021
0.050,0.024
0.046,0.021
0.052,0.019
0.049,0.018
0.049,0.015
0.049,0.015
0.049,0.014
0.046,0.013
0.049,0.014
0.046,0.011
0.048,0.014
0.047,0.010
0.051,0.012
0.048,0.012
0.050,0.013
0.050,0.010
0.051,0.008
0.048,0.008
0.048,0.006
0.047,0.007
0.046,0.005
0.047,0.007
0.048,0.006
0.046,0.007
0.046,0.004
0.047,0.005
0.047,0.004
0.049,0.006
0.048,0.000
0.051,0.004
0.048,0.000
0.051,0.003
0.049,-0.000
0.052,-0.004
0.049,-0.002
0.051,-0.007
0.048,-0.004
0.047,-0.004
0.045,-0.002
0.046,-0.000
0.046,-0.002
0.047,0.000
