File Version,253.000000
# of Channels,2.000000
Samples/Channel,10300.000000
Scan Rate (Hz),10000.000000
Timestamp,3807792968.268885
Operating Mode,1.000000
Trial #,1.000000
Session #,25.000000
Subject code 1,82.000000
Subject code 2,88.000000
Feedback Window,0.000000
Feedback Ch,0.000000
Ch B,0.000000
Pre-Stim Acq. time (ms),100.000000
Post-Stim Acq. time (ms),900.000000
EMG Hi Limit,50.000000
EMG Lo Limit,0.000250
Target Value (V),5.000000
Stimulus Value (V),0.614977
Stimulus duration (ms),1.000000
EMG conditions time limit (sec),0.200000
M-response Start (ms),2.000000
M-response Duration (ms),2.000000
H-response Duration (ms),2.000000
H-response Start (ms),5.000000
Proportioanl gain,0.003000
Channel to monitor,0.000000
SIU gain,20.000000
FB Monitor value,0.876404
Inter-Stim delay (sec),5.000000
M-Window Mean,0.001804
H-Window Mean,0.002585
Stimulus paradigm,2.000000
# of Pulses in cond train,1.000000
Cond duration (ms),1.000000
Cond Train pulse period (ms),30.000000
Cond Value (V),0.614977
Start Delay (ms),0.000000
# of Pulses in stim train,1.000000
Stim Train pulse period (ms),30.000000
EMG amp gain ch 1,500.000000
EMG amp gain ch 2,500.000000
EMG amp gain ch 3,1000.000000
EMG amp gain ch 4,1000.000000
EMG amp gain ch 5,1000.000000
EMG amp gain ch 6,1000.000000
Stim Type 1,2.000000
Stim/Cond 1,0.000000
Stim Type 2,3.000000
Stim/Cond 2,0.000000
Stim Type 3,3.000000
Stim/Cond 3,0.000000
Stim Type 4,3.000000
Stim/Cond 4,0.000000
Stim Value 1,0.614977
Stim Value 2,0.000000
Stim Value 3,0.000000
Stim Value 4,0.000000
1st PP Channel,-1.000000
Pressure (g),0.000000
Speed (mm/sec),0.000000
Dwell (ms),0.000000
Pressure limit (g),0.000000
Travel limit (mm),0.000000
Amp gain,0.000000
Wait Trig?,0.000000
Move Timeout (ms),0.000000
Time Taken (ms),0.000000
Actual Travel (mm),0.000000
Recorded Data (mV),
0.096,0.013
0.098,0.014
0.105,0.014
0.101,0.015
0.100,0.012
0.090,0.017
0.084,0.014
0.075,0.016
0.067,0.015
0.063,0.015
0.059,0.016
0.054,0.018
0.053,0.018
0.050,0.022
0.045,0.023
0.045,0.026
0.044,0.024
0.043,0.028
0.042,0.028
0.042,0.031
0.044,0.029
0.046,0.030
0.043,0.031
0.045,0.033
0.045,0.032
0.043,0.033
0.042,0.034
0.044,0.036
0.043,0.032
0.045,0.036
0.045,0.036
0.046,0.036
0.043,0.034
0.049,0.036
0.046,0.033
0.046,0.034
0.047,0.034
0.045,0.034
0.048,0.034
0.046,0.032
0.049,0.036
0.045,0.037
0.043,0.041
0.044,0.039
0.043,0.042
0.042,0.042
0.042,0.044
0.040,0.041
0.040,0.043
0.035,0.045
0.036,0.040
0.033,0.040
0.037,0.041
0.037,0.038
0.044,0.040
0.047,0.040
0.046,0.043
0.048,0.044
0.046,0.040
0.047,0.044
0.043,0.041
0.042,0.045
0.044,0.046
0.046,0.046
0.044,0.041
0.045,0.045
0.042,0.041
0.049,0.042
0.043,0.037
0.045,0.038
0.045,0.035
0.048,0.035
0.045,0.038
0.044,0.035
0.045,0.037
0.044,0.036
0.041,0.037
0.043,0.037
0.043,0.036
0.045,0.032
0.045,0.033
0.043,0.029
0.048,0.031
0.046,0.029
0.046,0.028
0.046,0.028
0.045,0.028
0.042,0.031
0.041,0.029
0.042,0.030
0.042,0.028
0.041,0.029
0.042,0.024
0.041,0.028
0.042,0.023
0.044,0.026
0.044,0.021
0.047,0.023
0.045,0.017
0.045,0.016
0.046,0.013
0.046,0.012
0.048,0.014
0.044,0.013
0.045,0.011
0.044,0.011
0.047,0.009
0.047,0.009
0.048,0.007
0.046,0.009
0.048,0.006
0.044,0.006
0.045,0.006
0.041,0.006
0.043,0.002
0.041,0.003
0.041,0.004
0.040,0.005
0.041,0.001
0.040,0.003
0.041,0.002
0.044,0.003
0.043,-0.002
0.045,0.001
0.045,0.001
0.046,-0.000
0.047,-0.002
0.046,-0.003
0.046,-0.004
0.050,-0.005
0.046,-0.006
0.049,-0.006
0.047,-0.004
0.048,-0.006
0.045,-0.003
0.043,-0.004
0.046,-0.003
0.042,-0.004
0.047,-0.005
0.043,-0.004
0.048,-0.006
0.046,-0.005
0.043,-0.005
0.045,-0.003
0.043,-0.005
0.041,-0.004
0.041,-0.002
0.039,0.001
0.042,0.002
0.040,0.002
0.041,-0.001
0.041,0.000
0.043,-0.001
0.043,0.002
0.040,-0.000
0.042,0.003
0.039,0.001
0.044,0.004
0.042,0.004
0.043,0.008
0.044,0.007
0.044,0.004
0.043,0.009
0.041,0.009
0.041,0.010
0.045,0.010
0.042,0.008
0.044,0.011
0.042,0.014
0.045,0.012
0.049,0.014
0.044,0.010
0.047,0.013
0.044,0.012
0.046,0.014
0.042,0.014
0.046,0.015
0.042,0.015
0.045,0.018
0.043,0.016
0.042,0.018
0.039,0.018
0.043,0.022
0.041,0.019
0.041,0.021
0.043,0.026
0.041,0.025
0.041,0.029
0.039,0.033
0.042,0.036
0.039,0.036
0.042,0.036
0.038,0.035
0.039,0.035
0.040,0.035
0.039,0.034
0.043,0.035
0.042,0.034
0.043,0.034
0.043,0.035
0.042,0.035
0.044,0.035
0.042,0.036
0.040,0.036
0.040,0.035
0.038,0.038
0.037,0.036
0.034,0.037
0.039,0.036
0.040,0.039
0.046,0.038
0.046,0.041
0.047,0.044
0.044,0.042
0.046,0.041
0.044,0.044
0.046,0.041
0.044,0.041
0.044,0.041
0.042,0.042
0.042,0.040
0.043,0.041
0.047,0.044
0.058,0.041
0.045,0.044
0.030,0.044
0.023,0.045
0.017,0.045
0.010,0.045
0.009,0.044
0.015,0.042
0.021,0.043
0.026,0.042
0.039,0.040
0.051,0.038
0.062,0.039
0.068,0.041
0.071,0.039
0.071,0.039
0.065,0.040
0.062,0.037
0.055,0.036
0.054,0.036
0.049,0.037
0.049,0.035
0.045,0.036
0.045,0.033
0.045,0.031
0.047,0.033
0.047,0.032
0.045,0.030
0.047,0.034
0.049,0.029
0.050,0.029
0.049,0.026
0.047,0.023
0.049,0.028
0.047,0.024
0.045,0.028
0.047,0.026
0.046,0.024
0.049,0.023
0.050,0.022
0.050,0.019
0.040,0.020
0.030,0.013
0.010,0.015
-0.022,0.014
-0.038,0.013
-0.049,0.010
-0.039,0.009
-0.015,0.010
0.014,0.012
0.046,0.009
0.064,0.008
0.078,0.005
0.089,0.006
0.096,0.003
0.104,0.007
0.108,0.007
0.109,0.006
0.106,0.004
0.096,0.007
0.089,0.003
0.079,0.004
0.073,0.004
0.066,0.004
0.061,-0.000
0.061,0.002
0.056,0.002
0.055,0.001
0.054,0.002
0.053,-0.001
0.053,-0.001
0.051,-0.004
0.051,-0.002
0.052,-0.002
0.050,-0.001
0.052,-0.006
0.048,-0.001
0.049,-0.005
0.048,-0.003
0.050,-0.002
0.047,-0.001
0.047,-0.000
0.049,-0.001
0.051,-0.003
0.051,-0.002
0.050,-0.004
0.048,-0.001
0.048,-0.001
0.046,-0.002
0.046,-0.002
0.047,-0.000
0.043,0.002
0.045,-0.000
0.039,0.004
0.045,0.003
0.045,0.005
0.044,0.006
0.046,0.005
0.046,0.002
0.045,0.003
0.047,0.003
0.047,0.004
0.045,0.006
0.046,0.007
0.046,0.006
0.045,0.006
0.045,0.009
0.046,0.007
0.045,0.012
0.046,0.011
0.045,0.011
0.044,0.010
0.042,0.012
0.040,0.013
0.040,0.017
0.040,0.016
0.044,0.017
0.043,0.016
0.043,0.016
0.042,0.016
0.044,0.018
0.041,0.017
0.043,0.018
0.041,0.017
0.040,0.020
0.041,0.023
0.039,0.024
0.040,0.027
0.041,0.029
0.042,0.024
0.043,0.026
0.043,0.026
0.044,0.029
0.043,0.030
0.041,0.030
0.041,0.032
0.040,0.034
0.041,0.032
0.039,0.035
0.045,0.032
0.042,0.036
0.041,0.032
0.043,0.034
0.041,0.033
0.042,0.036
0.041,0.033
0.040,0.035
0.043,0.035
0.043,0.035
0.042,0.035
0.042,0.035
0.043,0.041
0.037,0.040
0.035,0.043
0.035,0.043
0.032,0.044
0.034,0.043
0.034,0.046
0.035,0.043
0.038,0.045
0.040,0.044
0.046,0.044
0.048,0.045
0.048,0.045
0.045,0.045
0.042,0.042
0.044,0.043
0.042,0.042
0.043,0.044
0.042,0.046
0.041,0.046
0.043,0.046
0.042,0.049
0.040,0.048
0.042,0.044
0.039,0.044
0.041,0.044
0.042,0.041
0.043,0.040
0.047,0.037
0.049,0.039
0.052,0.039
0.051,0.039
0.049,0.038
0.048,0.037
0.043,0.036
0.046,0.036
0.043,0.037
0.041,0.037
0.030,0.037
0.011,0.032
-0.015,0.032
-0.036,0.028
-0.047,0.030
-0.045,0.028
-0.026,0.026
0.003,0.027
0.024,0.027
0.044,0.026
0.057,0.027
0.069,0.028
0.079,0.023
0.087,0.025
0.101,0.024
0.105,0.023
0.106,0.019
0.102,0.021
0.099,0.016
0.090,0.017
0.083,0.016
0.075,0.013
0.071,0.013
0.064,0.013
0.062,0.010
0.057,0.013
0.056,0.010
0.052,0.012
0.050,0.010
0.052,0.011
0.049,0.009
0.050,0.008
0.050,0.004
0.050,0.006
0.052,0.004
0.052,0.004
0.051,-0.000
0.055,0.003
0.050,-0.003
0.053,-0.002
0.050,-0.003
0.051,-0.004
0.051,0.000
0.051,-0.001
0.052,0.001
0.052,-0.004
0.050,0.001
0.050,-0.003
0.052,-0.000
0.047,-0.002
0.050,-0.003
0.050,-0.006
0.054,-0.001
0.051,-0.004
0.053,-0.005
0.050,-0.006
0.052,-0.005
0.050,-0.004
0.051,-0.002
0.049,-0.002
0.048,-0.002
0.047,-0.000
0.049,-0.005
0.047,-0.002
0.049,-0.002
0.049,-0.001
0.045,-0.002
0.050,0.000
0.047,-0.002
0.051,-0.002
0.048,0.000
0.047,0.001
0.046,0.002
0.045,0.004
0.043,0.005
0.045,0.003
0.044,0.007
0.049,0.006
0.045,0.009
0.046,0.007
0.046,0.009
0.045,0.008
0.045,0.010
0.042,0.008
0.049,0.010
0.047,0.010
0.048,0.011
0.047,0.010
0.046,0.011
0.042,0.012
0.043,0.012
0.039,0.013
0.041,0.015
0.037,0.015
0.042,0.014
0.040,0.017
0.047,0.015
0.048,0.017
0.050,0.015
0.048,0.022
0.047,0.019
0.047,0.025
0.045,0.021
0.038,0.025
0.026,0.023
0.004,0.027
-0.025,0.024
-0.044,0.026
-0.052,0.026
-0.043,0.030
-0.018,0.030
0.015,0.030
0.042,0.029
0.065,0.027
0.079,0.032
0.088,0.029
0.096,0.034
0.096,0.036
0.093,0.036
0.089,0.040
0.088,0.039
0.084,0.039
0.078,0.038
0.064,0.039
0.055,0.040
0.046,0.040
0.042,0.041
0.041,0.042
0.042,0.037
0.050,0.038
0.063,0.038
0.069,0.040
0.073,0.040
0.075,0.043
0.071,0.043
0.068,0.043
0.062,0.044
0.062,0.044
0.055,0.044
0.055,0.042
0.053,0.043
0.051,0.041
0.049,0.041
0.047,0.041
0.049,0.042
0.047,0.041
0.049,0.042
0.047,0.040
0.047,0.041
0.048,0.045
0.045,0.041
0.044,0.044
0.042,0.043
0.044,0.045
0.044,0.043
0.044,0.042
0.047,0.039
0.046,0.041
0.048,0.040
0.049,0.035
0.050,0.034
0.048,0.037
0.050,0.035
0.049,0.032
0.051,0.033
0.050,0.033
0.049,0.034
0.047,0.032
0.048,0.035
0.045,0.031
0.044,0.031
0.044,0.033
0.046,0.031
0.047,0.028
0.047,0.028
0.047,0.026
0.048,0.026
0.047,0.022
0.048,0.024
0.047,0.024
0.049,0.022
0.047,0.022
0.048,0.020
0.044,0.019
0.047,0.017
0.047,0.018
0.047,0.016
0.050,0.011
0.050,0.013
0.056,0.010
0.068,0.009
0.049,0.008
0.038,0.010
0.024,0.009
0.019,0.010
0.010,0.004
0.016,0.007
0.021,0.002
0.027,0.004
0.031,-0.001
0.046,0.002
0.058,-0.003
0.071,-0.002
0.078,0.000
0.080,-0.002
0.076,-0.001
0.069,-0.002
0.062,0.000
0.055,-0.000
0.053,0.001
0.049,-0.002
0.049,-0.000
0.050,-0.005
0.052,-0.003
0.050,-0.005
0.051,-0.004
0.047,-0.005
0.051,-0.008
0.049,-0.009
0.050,-0.010
0.049,-0.006
0.048,-0.009
0.049,-0.003
0.047,-0.005
0.048,-0.002
0.045,-0.003
0.048,-0.004
0.043,-0.005
0.047,-0.003
0.045,-0.007
0.048,-0.004
0.045,-0.005
0.047,-0.004
0.045,-0.006
0.045,-0.003
0.039,-0.003
0.040,-0.003
0.035,0.000
0.037,-0.002
0.040,0.001
0.039,0.001
0.041,0.004
0.041,0.002
0.045,0.002
0.042,-0.001
0.043,0.002
0.043,0.001
0.043,0.003
0.041,0.006
0.041,0.006
0.037,0.008
0.041,0.007
0.040,0.011
0.040,0.008
0.039,0.008
0.036,0.011
0.038,0.012
0.037,0.012
0.041,0.012
0.039,0.012
0.039,0.015
0.039,0.011
0.042,0.015
0.039,0.013
0.042,0.016
0.037,0.014
0.038,0.016
0.036,0.019
0.040,0.018
0.034,0.023
0.034,0.023
0.032,0.026
0.034,0.026
0.038,0.029
0.035,0.028
0.040,0.027
0.037,0.032
0.039,0.030
0.036,0.032
0.038,0.030
0.036,0.033
0.037,0.029
0.037,0.032
0.037,0.031
0.037,0.033
0.037,0.034
0.037,0.036
0.040,0.034
0.039,0.034
0.040,0.031
0.041,0.034
0.041,0.032
0.043,0.034
0.042,0.034
0.042,0.034
0.037,0.036
0.037,0.036
0.037,0.040
0.039,0.043
0.037,0.041
0.040,0.041
0.036,0.043
0.038,0.043
0.036,0.043
0.039,0.040
0.040,0.043
0.039,0.040
0.040,0.041
0.038,0.038
0.041,0.041
0.037,0.042
0.039,0.042
0.039,0.045
0.039,0.044
0.039,0.046
0.039,0.046
0.037,0.046
0.042,0.043
0.040,0.045
0.041,0.044
0.039,0.043
0.041,0.041
0.039,0.041
0.039,0.039
0.039,0.041
0.036,0.038
0.038,0.040
0.037,0.039
0.036,0.037
0.035,0.038
0.038,0.036
0.039,0.036
0.042,0.036
0.045,0.036
0.047,0.036
0.046,0.034
0.046,0.035
0.043,0.034
0.045,0.030
0.046,0.031
0.047,0.026
0.048,0.027
0.046,0.028
0.046,0.024
0.045,0.024
0.047,0.023
0.045,0.022
0.044,0.021
0.045,0.022
0.045,0.020
0.044,0.021
0.046,0.018
0.045,0.018
0.047,0.012
0.046,0.016
0.047,0.012
0.046,0.013
0.045,0.010
0.045,0.008
0.047,0.007
0.046,0.005
0.045,0.006
0.047,0.005
0.046,0.004
0.047,0.007
0.046,0.004
0.046,0.007
0.044,0.002
0.046,0.005
0.043,0.002
0.045,0.002
0.043,-0.000
0.045,0.001
0.043,-0.001
0.043,-0.002
0.033,-0.003
0.021,0.001
0.006,-0.002
-0.029,0.001
-0.044,-0.000
-0.052,-0.001
-0.041,-0.003
-0.016,-0.006
0.012,-0.006
0.039,-0.006
0.060,-0.004
0.076,-0.004
0.083,-0.003
0.092,-0.005
0.098,-0.003
0.106,-0.001
0.106,-0.002
0.104,-0.005
0.098,-0.004
0.089,-0.009
0.082,-0.006
0.074,-0.005
0.067,-0.006
0.061,-0.003
0.058,-0.004
0.054,-0.000
0.052,-0.002
0.050,0.000
0.048,-0.001
0.049,-0.000
0.044,0.000
0.045,0.003
0.043,-0.001
0.044,0.000
0.044,0.002
0.047,0.004
0.046,0.004
0.043,0.005
0.044,0.004
0.045,0.007
0.043,0.009
0.043,0.006
0.042,0.012
0.042,0.010
0.044,0.008
0.040,0.011
0.045,0.012
0.041,0.011
0.045,0.011
0.044,0.012
0.047,0.012
0.045,0.012
0.043,0.014
0.044,0.013
0.043,0.017
0.043,0.015
0.041,0.017
0.041,0.019
0.043,0.020
0.042,0.021
0.041,0.020
0.042,0.022
0.042,0.025
0.044,0.023
0.042,0.029
0.041,0.028
0.039,0.032
0.037,0.031
0.041,0.031
0.039,0.029
0.039,0.032
0.039,0.031
0.038,0.032
0.038,0.031
0.037,0.034
0.038,0.032
0.038,0.037
0.039,0.036
0.042,0.038
0.038,0.037
0.042,0.039
0.038,0.037
0.040,0.036
0.039,0.038
0.043,0.036
0.039,0.041
0.040,0.037
0.038,0.041
0.039,0.041
0.037,0.047
0.038,0.044
0.040,0.045
0.041,0.043
0.040,0.044
0.039,0.041
0.041,0.042
0.038,0.041
0.043,0.040
0.041,0.040
0.043,0.039
0.043,0.038
0.039,0.042
0.040,0.041
0.039,0.042
0.037,0.043
0.039,0.044
0.038,0.044
0.037,0.045
0.040,0.047
0.040,0.043
0.040,0.044
0.036,0.042
0.039,0.042
0.033,0.042
0.039,0.041
0.035,0.039
0.036,0.038
0.036,0.041
0.033,0.039
0.019,0.043
-0.003,0.038
-0.024,0.038
-0.043,0.035
-0.054,0.035
-0.042,0.032
-0.019,0.034
0.006,0.035
0.031,0.034
0.048,0.032
0.063,0.033
0.073,0.027
0.083,0.030
0.090,0.027
0.099,0.027
0.098,0.026
0.099,0.023
0.092,0.027
0.084,0.024
0.076,0.026
0.070,0.024
0.065,0.026
0.063,0.022
0.060,0.023
0.057,0.018
0.055,0.019
0.052,0.015
0.051,0.015
0.050,0.011
0.049,0.013
0.047,0.010
0.049,0.012
0.047,0.012
0.049,0.010
0.047,0.010
0.049,0.009
0.048,0.008
0.046,0.008
0.050,0.008
0.047,0.010
0.046,0.007
0.045,0.007
0.049,0.008
0.045,0.006
0.049,0.000
0.047,0.001
0.047,0.002
0.046,-0.001
0.047,-0.000
0.049,0.000
0.049,0.001
0.048,-0.002
0.049,-0.001
0.047,-0.001
0.050,-0.001
0.050,-0.002
0.047,-0.003
0.050,-0.006
0.046,-0.005
0.048,-0.006
0.057,-0.003
0.058,-0.004
0.045,-0.002
0.032,-0.003
0.026,-0.003
0.021,-0.003
0.018,-0.002
0.021,-0.005
0.024,-0.003
0.029,-0.003
0.033,-0.001
0.041,0.000
0.055,-0.001
0.064,0.001
0.073,-0.001
0.072,0.002
0.069,0.001
0.066,-0.001
0.059,0.003
0.056,0.000
0.052,-0.000
0.051,0.001
0.050,0.004
0.047,0.004
0.047,0.005
0.044,0.005
0.046,0.008
0.047,0.007
0.044,0.007
0.044,0.009
0.042,0.010
0.046,0.010
0.044,0.012
0.043,0.010
0.044,0.013
0.004,-0.003
0.002,-0.000
0.003,0.000
0.006,0.005
0.012,0.008
0.012,0.010
0.016,0.012
0.018,0.014
0.017,0.018
0.018,0.020
0.058,0.037
0.065,0.041
0.062,0.023
0.065,-0.024
0.061,-0.055
0.064,0.018
0.058,0.099
0.060,0.161
0.056,0.195
0.055,0.178
0.049,0.134
0.047,0.054
0.045,-0.014
0.046,-0.041
0.044,-0.036
0.047,-0.017
0.048,-0.001
0.046,0.016
0.044,0.023
0.045,0.026
0.043,0.028
0.047,0.028
0.046,0.032
0.046,0.032
0.045,0.034
0.044,0.034
0.044,0.034
0.045,0.036
0.042,0.036
0.043,0.035
0.038,0.037
0.036,0.039
0.037,0.039
0.035,0.041
0.039,0.041
0.038,0.039
0.040,0.041
0.041,0.038
0.047,0.039
0.046,0.042
0.052,0.038
0.047,0.040
0.045,0.038
0.041,0.042
0.039,0.043
0.042,0.043
0.044,0.045
0.044,0.046
0.041,0.045
0.043,0.048
0.039,0.044
0.044,0.047
0.044,0.043
0.044,0.044
0.044,0.041
0.048,0.041
0.045,0.041
0.045,0.038
0.041,0.040
0.043,0.038
0.040,0.043
0.042,0.039
0.041,0.042
0.042,0.037
0.046,0.035
0.046,0.037
0.048,0.037
0.044,0.036
0.047,0.036
0.045,0.031
0.044,0.033
0.045,0.031
0.047,0.032
0.047,0.029
0.046,0.028
0.048,0.029
0.046,0.025
0.043,0.026
0.043,0.024
0.041,0.024
0.040,0.023
0.042,0.024
0.043,0.024
0.047,0.021
0.046,0.022
0.045,0.023
0.046,0.019
0.044,0.021
0.044,0.016
0.044,0.016
0.044,0.012
0.045,0.012
0.044,0.012
0.043,0.013
0.049,0.009
0.043,0.010
0.047,0.007
0.042,0.008
0.045,0.007
0.044,0.004
0.040,0.006
0.041,0.004
0.040,0.000
0.042,0.001
0.044,-0.003
0.049,0.000
0.051,-0.000
0.054,0.001
0.048,0.003
0.050,0.003
0.044,0.003
0.045,0.000
0.041,0.000
0.043,0.002
0.032,0.001
0.023,0.001
-0.003,-0.001
-0.031,-0.004
-0.044,-0.004
-0.052,-0.006
-0.038,-0.004
-0.012,-0.005
0.021,-0.003
0.042,-0.004
0.067,-0.004
0.079,-0.005
0.086,-0.003
0.092,-0.001
0.100,-0.003
0.102,-0.004
0.105,-0.005
0.099,-0.004
0.095,-0.003
0.088,-0.004
0.079,-0.004
0.071,-0.004
0.063,-0.004
0.059,-0.004
0.053,-0.001
0.053,0.000
0.049,0.002
0.050,0.002
0.047,0.002
0.046,0.002
0.045,0.002
0.045,0.001
0.049,0.004
0.047,0.004
0.048,0.004
0.047,0.006
0.045,0.006
0.046,0.007
0.044,0.006
0.045,0.009
0.043,0.007
0.045,0.008
0.045,0.010
0.043,0.011
0.045,0.011
0.043,0.013
0.041,0.014
0.036,0.015
0.039,0.015
0.036,0.018
0.036,0.017
0.037,0.016
0.040,0.017
0.041,0.019
0.043,0.017
0.044,0.019
0.047,0.016
0.044,0.020
0.047,0.021
0.043,0.024
0.045,0.025
0.043,0.030
0.044,0.025
0.045,0.031
0.047,0.028
0.049,0.029
0.047,0.028
0.045,0.032
0.042,0.031
0.040,0.035
0.043,0.034
0.043,0.038
0.045,0.036
0.043,0.040
0.041,0.036
0.042,0.037
0.039,0.036
0.043,0.037
0.043,0.037
0.045,0.036
0.042,0.036
0.042,0.036
0.041,0.039
0.040,0.036
0.042,0.042
0.039,0.042
0.038,0.044
0.041,0.043
0.040,0.049
0.040,0.046
0.041,0.047
0.040,0.042
0.043,0.045
0.043,0.041
0.046,0.042
0.042,0.040
0.044,0.041
0.042,0.040
0.039,0.041
0.042,0.045
0.042,0.044
0.045,0.045
0.042,0.044
0.043,0.046
0.043,0.046
0.039,0.046
0.041,0.043
0.040,0.047
0.041,0.043
0.043,0.041
0.040,0.039
0.046,0.039
0.043,0.039
0.048,0.039
0.046,0.039
0.045,0.038
0.045,0.040
0.040,0.036
0.039,0.037
0.035,0.038
0.034,0.037
0.035,0.034
0.041,0.034
0.045,0.031
0.052,0.034
0.053,0.028
0.055,0.029
0.050,0.027
0.051,0.026
0.044,0.029
0.044,0.025
0.041,0.027
0.044,0.023
0.047,0.025
0.049,0.020
0.054,0.022
0.054,0.021
0.054,0.021
0.053,0.018
0.051,0.016
0.049,0.014
0.049,0.014
0.048,0.008
0.048,0.012
0.048,0.009
0.049,0.007
0.045,0.007
0.047,0.006
0.048,0.007
0.043,0.004
0.046,0.004
0.045,0.004
0.047,0.002
0.044,0.004
0.049,0.004
0.045,0.006
0.048,0.001
0.044,-0.003
0.047,0.000
0.046,-0.000
0.046,-0.002
0.046,-0.001
0.047,-0.003
0.049,-0.002
0.048,-0.006
0.050,-0.004
0.048,-0.004
0.049,-0.006
0.046,-0.004
0.046,-0.009
0.043,-0.006
0.043,-0.007
0.039,-0.007
0.039,-0.009
0.038,-0.007
0.037,-0.008
0.040,-0.005
0.041,-0.006
0.044,-0.007
0.047,-0.008
0.051,-0.008
0.054,-0.009
0.050,-0.008
0.048,-0.005
0.046,-0.009
0.045,-0.006
0.047,-0.005
0.043,-0.003
0.045,-0.004
0.043,-0.005
0.043,-0.004
0.046,-0.003
0.046,-0.003
0.047,-0.001
0.051,-0.001
0.060,-0.001
0.053,0.002
0.032,-0.000
0.026,0.000
0.020,0.002
0.014,0.002
0.014,0.001
0.012,0.004
0.020,0.002
0.024,0.008
0.034,0.005
0.046,0.004
0.058,0.006
0.069,0.008
0.072,0.007
0.070,0.012
0.067,0.010
0.063,0.010
0.059,0.010
0.055,0.009
0.052,0.012
0.049,0.013
0.045,0.013
0.047,0.014
0.043,0.016
0.045,0.017
0.042,0.017
0.045,0.017
0.042,0.018
0.046,0.023
0.042,0.022
0.046,0.023
0.044,0.023
0.045,0.026
0.043,0.025
0.045,0.028
0.045,0.026
0.045,0.028
0.041,0.026
0.046,0.027
0.044,0.028
0.047,0.029
0.043,0.029
0.045,0.032
0.043,0.031
0.044,0.032
0.041,0.032
0.040,0.032
0.039,0.033
0.042,0.034
0.041,0.039
0.037,0.034
0.027,0.037
0.013,0.038
-0.019,0.039
-0.045,0.037
-0.057,0.037
-0.055,0.037
-0.036,0.038
-0.004,0.037
0.024,0.039
0.049,0.036
0.069,0.038
0.080,0.039
0.091,0.041
0.098,0.038
0.102,0.037
0.105,0.040
0.101,0.038
0.095,0.043
0.088,0.040
0.078,0.045
0.069,0.041
0.066,0.044
0.053,0.042
0.039,0.045
0.011,0.043
-0.019,0.043
-0.044,0.042
-0.054,0.041
-0.055,0.042
-0.040,0.039
-0.018,0.040
0.002,0.039
0.024,0.041
0.041,0.040
0.058,0.041
0.075,0.040
0.098,0.040
0.114,0.035
0.128,0.039
0.133,0.035
0.130,0.036
0.118,0.033
0.108,0.034
0.094,0.033
0.085,0.029
0.074,0.033
0.069,0.029
0.064,0.030
0.059,0.028
0.058,0.027
0.054,0.025
0.058,0.021
0.055,0.022
0.056,0.025
0.055,0.021
0.058,0.024
0.052,0.019
0.052,0.020
0.048,0.017
0.049,0.019
0.048,0.013
0.049,0.013
0.047,0.013
0.048,0.013
0.045,0.012
0.047,0.012
0.051,0.011
0.050,0.009
0.051,0.010
0.052,0.009
0.050,0.009
0.050,0.007
0.049,0.004
0.051,0.005
0.051,0.003
0.049,0.004
0.051,0.000
0.049,-0.001
0.049,-0.001
0.047,0.001
0.051,0.004
0.049,0.000
0.048,0.004
0.047,0.005
0.046,0.006
0.046,0.003
0.050,0.002
0.051,-0.003
0.056,-0.004
0.051,-0.004
0.051,-0.004
0.049,-0.003
0.047,-0.004
0.048,-0.003
0.048,-0.006
0.048,-0.001
0.046,-0.002
0.045,-0.001
0.044,-0.004
0.045,-0.002
0.044,-0.004
0.045,-0.003
0.044,-0.004
0.045,-0.003
0.046,-0.004
0.047,-0.002
0.048,-0.006
0.047,-0.004
0.045,-0.005
0.042,-0.006
0.044,-0.002
0.042,-0.004
0.041,0.002
0.042,0.000
0.042,0.005
0.043,0.004
0.046,0.006
0.042,0.004
0.045,0.006
0.045,0.003
0.047,0.004
0.045,0.002
0.047,0.002
0.046,0.003
0.046,0.005
0.045,0.009
0.044,0.007
0.044,0.011
0.042,0.010
0.041,0.014
0.040,0.014
0.040,0.016
0.039,0.014
0.041,0.016
0.040,0.014
0.040,0.015
0.043,0.015
0.041,0.016
0.039,0.014
0.038,0.018
0.039,0.020
0.037,0.021
0.037,0.021
0.036,0.023
0.040,0.023
0.036,0.026
0.040,0.025
0.039,0.029
0.042,0.029
0.039,0.029
0.041,0.030
0.041,0.033
0.038,0.031
0.035,0.032
0.036,0.031
0.037,0.031
0.039,0.033
0.038,0.036
0.040,0.036
0.036,0.039
0.040,0.040
0.038,0.039
0.040,0.040
0.038,0.041
0.040,0.036
0.043,0.038
0.041,0.035
0.042,0.037
0.039,0.034
0.044,0.036
0.039,0.038
0.038,0.041
0.038,0.040
0.040,0.042
0.037,0.044
0.041,0.043
0.041,0.044
0.041,0.042
0.036,0.044
0.039,0.043
0.038,0.043
0.039,0.042
0.039,0.044
0.036,0.043
0.036,0.045
0.036,0.044
0.041,0.042
0.040,0.041
0.041,0.044
0.041,0.039
0.040,0.041
0.039,0.044
0.041,0.045
0.037,0.046
0.042,0.041
0.040,0.042
0.043,0.039
0.040,0.042
0.040,0.039
0.040,0.038
0.037,0.035
0.040,0.039
0.036,0.035
0.040,0.034
0.036,0.037
0.039,0.035
0.040,0.037
0.045,0.034
0.047,0.034
0.047,0.032
0.047,0.031
0.049,0.032
0.048,0.032
0.044,0.032
0.047,0.029
0.048,0.025
0.047,0.027
0.048,0.026
0.046,0.026
0.045,0.026
0.046,0.028
0.042,0.024
0.043,0.021
0.040,0.021
0.042,0.017
0.045,0.017
0.053,0.019
0.052,0.015
0.054,0.014
0.053,0.013
0.055,0.009
0.051,0.009
0.050,0.008
0.045,0.007
0.045,0.008
0.042,0.006
0.043,0.004
0.045,0.005
0.044,0.005
0.046,0.004
0.047,0.003
0.050,0.005
0.045,0.001
0.044,0.005
0.045,0.002
0.044,0.005
0.044,0.001
0.044,0.004
0.043,0.000
0.045,0.004
0.043,0.005
0.048,0.003
0.045,-0.001
0.049,-0.001
0.045,-0.002
0.037,-0.003
0.025,-0.000
0.003,-0.007
-0.028,-0.003
-0.046,-0.006
-0.053,-0.005
-0.041,-0.006
-0.017,-0.006
0.011,-0.004
0.042,-0.001
0.061,-0.005
0.077,-0.003
0.087,-0.006
0.099,-0.007
0.099,-0.005
0.103,-0.006
0.101,-0.003
0.099,-0.003
0.094,0.002
0.087,0.000
0.084,-0.000
0.083,0.001
0.063,0.002
0.044,-0.000
0.039,0.002
0.028,0.001
0.023,0.001
0.018,-0.000
0.023,0.002
0.028,0.002
0.036,0.004
0.042,0.007
0.056,0.003
0.067,0.009
0.073,0.007
0.076,0.007
0.070,0.005
0.068,0.008
0.062,0.008
0.060,0.008
0.054,0.009
0.052,0.013
0.049,0.010
0.049,0.015
0.049,0.012
0.050,0.012
0.049,0.013
0.052,0.012
0.047,0.016
0.050,0.015
0.047,0.016
0.044,0.017
0.044,0.018
0.043,0.021
0.039,0.021
0.039,0.025
0.040,0.024
0.040,0.026
0.040,0.023
0.039,0.028
0.040,0.026
0.045,0.027
0.045,0.025
0.046,0.029
0.045,0.026
0.042,0.030
0.043,0.031
0.044,0.032
0.042,0.032
0.043,0.034
0.041,0.034
0.044,0.033
0.043,0.034
0.043,0.035
0.043,0.039
0.044,0.036
0.041,0.038
0.045,0.038
0.041,0.036
0.043,0.035
0.040,0.039
0.042,0.036
0.041,0.038
0.043,0.039
0.041,0.041
0.042,0.037
0.043,0.041
0.042,0.039
0.044,0.042
0.044,0.039
0.046,0.041
0.045,0.041
0.047,0.039
0.042,0.043
0.045,0.041
0.041,0.044
0.039,0.044
0.039,0.046
0.038,0.045
0.042,0.045
0.044,0.045
0.044,0.046
0.044,0.042
0.044,0.042
0.045,0.042
0.044,0.045
0.045,0.043
0.047,0.043
0.046,0.043
0.047,0.040
0.045,0.040
0.048,0.038
0.041,0.040
0.043,0.039
0.040,0.039
0.040,0.037
0.044,0.036
0.045,0.035
0.044,0.030
0.046,0.032
0.048,0.033
0.049,0.031
0.049,0.029
0.047,0.030
0.047,0.028
0.047,0.028
0.047,0.029
0.043,0.030
0.048,0.030
0.043,0.029
0.047,0.028
0.043,0.029
0.044,0.026
0.042,0.024
0.045,0.022
0.044,0.021
0.044,0.021
0.045,0.019
0.049,0.017
0.047,0.020
0.050,0.014
0.048,0.015
0.047,0.012
0.045,0.012
0.044,0.010
0.045,0.014
0.046,0.011
0.047,0.014
0.049,0.007
0.048,0.009
0.050,0.008
0.051,0.005
0.048,0.006
0.049,0.004
0.048,0.002
0.048,0.003
0.049,0.001
0.049,0.001
0.050,-0.001
0.050,-0.001
0.048,-0.000
0.047,-0.003
0.047,0.000
0.045,-0.002
0.047,-0.001
0.047,-0.004
0.047,-0.001
0.047,-0.003
0.049,-0.002
0.046,-0.004
0.049,-0.003
0.045,-0.005
0.049,-0.004
0.046,-0.005
0.049,-0.007
0.046,-0.005
0.045,-0.006
0.045,-0.003
0.046,-0.003
0.044,-0.001
0.046,-0.003
0.045,-0.002
0.047,0.000
0.046,-0.001
0.044,-0.002
0.048,-0.003
0.045,-0.004
0.047,-0.002
0.042,-0.001
0.046,0.002
0.041,0.003
0.043,0.001
0.043,0.003
0.039,0.002
0.040,0.002
0.038,0.002
0.040,0.005
0.039,0.006
0.038,0.010
0.039,0.009
0.040,0.010
0.043,0.007
0.045,0.010
0.045,0.007
0.048,0.009
0.038,0.010
0.031,0.009
0.006,0.011
-0.018,0.011
-0.039,0.010
-0.052,0.012
-0.048,0.014
-0.028,0.012
-0.003,0.015
0.025,0.013
0.044,0.016
0.060,0.015
0.068,0.017
0.077,0.016
0.086,0.018
0.094,0.019
0.098,0.020
0.100,0.023
0.096,0.021
0.090,0.026
0.082,0.026
0.073,0.027
0.069,0.028
0.063,0.030
0.058,0.029
0.057,0.031
0.050,0.029
0.051,0.031
0.046,0.029
0.051,0.030
0.049,0.030
0.050,0.032
0.050,0.034
0.050,0.035
0.048,0.036
0.047,0.036
0.045,0.038
0.045,0.038
0.042,0.038
0.045,0.037
0.041,0.038
0.043,0.036
0.043,0.039
0.043,0.039
0.046,0.042
0.045,0.040
0.045,0.043
0.043,0.045
0.046,0.041
0.045,0.041
0.048,0.040
0.048,0.043
0.048,0.044
0.045,0.045
0.046,0.042
0.044,0.043
0.044,0.043
0.043,0.044
0.046,0.042
0.043,0.044
0.045,0.041
0.047,0.044
0.047,0.042
0.047,0.043
0.047,0.043
0.048,0.043
0.047,0.043
0.049,0.040
0.044,0.042
0.049,0.042
0.048,0.044
0.048,0.041
0.044,0.040
0.044,0.040
0.043,0.037
0.046,0.039
0.045,0.038
0.047,0.035
0.037,0.037
0.026,0.033
0.005,0.035
-0.028,0.034
-0.041,0.033
-0.055,0.036
-0.040,0.031
-0.015,0.032
0.017,0.028
0.044,0.030
0.065,0.030
0.076,0.029
0.088,0.030
0.093,0.029
0.102,0.026
0.104,0.025
0.107,0.024
0.102,0.024
0.097,0.024
0.089,0.023
0.080,0.021
0.072,0.020
0.068,0.016
0.065,0.017
0.060,0.013
0.061,0.013
0.055,0.012
0.054,0.012
0.051,0.012
0.052,0.014
0.050,0.008
0.051,0.012
0.049,0.009
0.052,0.010
0.051,0.006
0.050,0.007
0.052,0.005
0.053,0.005
0.052,0.003
0.052,0.002
0.050,0.002
0.047,0.000
0.050,0.003
0.049,0.003
0.048,0.005
0.047,0.002
0.047,0.002
0.051,-0.001
0.051,0.003
0.052,-0.002
0.051,-0.001
0.050,-0.003
0.052,-0.003
0.051,-0.003
0.052,-0.006
0.051,-0.004
0.049,-0.005
0.047,-0.002
0.048,-0.003
0.045,0.002
0.044,-0.002
0.044,0.000
0.048,-0.002
0.045,-0.001
0.045,-0.003
0.046,0.001
0.045,-0.003
0.047,0.000
0.046,-0.002
0.048,0.002
0.046,-0.001
0.046,-0.003
0.044,0.002
0.045,0.000
0.043,0.007
0.044,0.006
0.044,0.007
0.042,0.007
0.045,0.005
0.045,0.007
0.046,0.006
0.047,0.004
0.049,0.007
0.045,0.006
0.049,0.008
0.045,0.006
0.049,0.008
0.047,0.009
0.047,0.007
0.046,0.012
0.046,0.010
0.044,0.016
0.045,0.011
0.043,0.014
0.044,0.011
0.042,0.014
0.043,0.015
0.044,0.017
0.045,0.014
0.043,0.019
0.045,0.017
0.041,0.021
0.042,0.019
0.042,0.022
0.040,0.020
0.041,0.022
0.041,0.024
0.038,0.025
0.040,0.027
0.039,0.028
0.040,0.031
0.038,0.034
0.042,0.032
0.039,0.034
0.042,0.031
0.040,0.037
0.044,0.034
0.050,0.036
0.057,0.038
0.041,0.039
0.029,0.036
0.022,0.041
0.018,0.038
0.010,0.042
0.014,0.038
0.015,0.041
0.021,0.036
0.029,0.040
0.036,0.035
0.053,0.036
0.060,0.039
0.065,0.037
0.062,0.038
0.059,0.040
0.055,0.043
0.049,0.043
0.048,0.045
0.048,0.044
0.046,0.047
0.049,0.046
0.045,0.045
0.047,0.045
0.045,0.044
0.044,0.041
0.045,0.044
0.043,0.038
0.045,0.040
0.043,0.041
0.042,0.044
0.042,0.046
0.044,0.047
0.042,0.047
0.043,0.045
0.040,0.049
0.043,0.046
0.041,0.047
0.045,0.042
0.041,0.043
0.046,0.041
0.043,0.043
0.043,0.040
0.043,0.042
0.044,0.039
0.048,0.040
0.047,0.038
0.048,0.036
0.047,0.036
0.048,0.034
0.046,0.039
0.046,0.035
0.044,0.034
0.045,0.032
0.043,0.031
0.044,0.030
0.042,0.029
0.043,0.031
0.044,0.029
0.044,0.024
0.047,0.025
0.046,0.023
0.048,0.023
0.044,0.025
0.047,0.024
0.047,0.021
0.047,0.021
0.049,0.019
0.048,0.016
0.048,0.017
0.049,0.015
0.046,0.016
0.049,0.015
0.045,0.013
0.046,0.010
0.046,0.010
0.050,0.007
0.047,0.008
0.048,0.005
0.049,0.007
0.045,0.005
0.045,0.003
0.046,0.003
0.046,0.000
0.045,0.000
0.047,0.005
0.044,0.002
0.044,0.002
0.046,0.001
0.044,0.002
0.044,-0.002
0.044,0.002
0.044,0.001
0.047,0.002
0.044,-0.003
0.048,-0.001
0.046,-0.003
0.046,-0.002
0.046,-0.002
0.048,-0.007
0.047,-0.002
0.045,-0.004
0.040,-0.004
0.035,-0.006
0.032,-0.003
0.032,-0.005
0.034,-0.003
0.035,-0.005
0.034,-0.003
0.031,-0.006
0.031,-0.004
0.028,-0.007
0.034,-0.007
0.036,-0.005
0.045,-0.004
0.055,-0.003
0.064,-0.005
0.068,-0.005
0.070,-0.005
0.067,-0.001
0.065,-0.003
0.057,-0.001
0.054,-0.000
0.055,0.001
0.048,0.001
0.049,0.001
0.049,0.001
0.048,0.002
0.045,0.000
0.047,0.003
0.047,0.003
0.047,0.005
0.044,0.006
0.047,0.005
0.044,0.010
0.044,0.008
0.041,0.012
0.042,0.010
0.044,0.010
0.042,0.009
0.046,0.008
0.044,0.010
0.045,0.011
0.038,0.010
0.030,0.012
0.007,0.010
-0.018,0.014
-0.042,0.011
-0.048,0.013
-0.048,0.013
-0.026,0.014
-0.001,0.016
0.026,0.019
0.050,0.018
0.070,0.022
0.081,0.024
0.092,0.026
0.099,0.027
0.103,0.030
0.105,0.030
0.100,0.030
0.094,0.029
0.085,0.030
0.078,0.032
0.070,0.030
0.064,0.030
0.056,0.030
0.055,0.030
0.050,0.033
0.048,0.029
0.047,0.032
0.046,0.033
0.047,0.035
0.045,0.033
0.047,0.036
0.044,0.037
0.044,0.035
0.040,0.040
0.043,0.038
0.041,0.040
0.039,0.040
0.037,0.041
0.041,0.041
0.039,0.040
0.040,0.041
0.043,0.044
0.041,0.041
0.046,0.045
0.044,0.041
0.045,0.041
0.045,0.044
0.048,0.042
0.044,0.042
0.045,0.040
0.043,0.043
0.042,0.042
0.040,0.047
0.041,0.043
0.042,0.042
0.042,0.040
0.043,0.045
0.041,0.043
0.047,0.043
0.043,0.040
0.044,0.040
0.042,0.042
0.043,0.039
0.044,0.041
0.045,0.038
0.046,0.036
0.045,0.038
0.044,0.037
0.046,0.037
0.044,0.035
0.044,0.036
0.045,0.035
0.045,0.034
0.044,0.036
0.045,0.030
0.044,0.032
0.044,0.030
0.046,0.030
0.046,0.032
0.045,0.026
0.043,0.029
0.044,0.026
0.042,0.029
0.042,0.026
0.043,0.027
0.043,0.027
0.043,0.024
0.042,0.024
0.043,0.023
0.046,0.024
0.046,0.022
0.048,0.019
0.048,0.018
0.047,0.016
0.048,0.015
0.049,0.011
0.046,0.010
0.049,0.009
0.045,0.008
0.043,0.004
0.043,0.009
0.045,0.008
0.045,0.009
0.046,0.007
0.049,0.005
0.046,0.002
0.048,0.002
0.047,0.000
0.048,-0.002
0.045,-0.002
0.047,-0.003
0.047,-0.003
0.044,-0.002
0.045,-0.001
0.045,-0.001
0.045,0.002
0.046,0.001
0.043,-0.000
0.046,-0.003
0.047,-0.001
0.046,-0.004
0.048,-0.003
0.047,-0.007
0.051,-0.004
0.048,-0.009
0.051,-0.005
0.046,-0.007
0.047,-0.007
0.046,-0.005
0.045,-0.006
0.048,-0.003
0.047,-0.006
0.046,-0.004
0.048,-0.006
0.045,-0.005
0.045,-0.004
0.046,-0.003
0.044,-0.006
0.046,-0.003
0.046,-0.005
0.047,-0.003
0.044,-0.006
0.047,-0.003
0.042,0.000
0.043,-0.001
0.041,0.002
0.043,0.000
0.041,0.004
0.040,0.002
0.042,0.006
0.040,0.004
0.044,0.003
0.042,0.002
0.044,0.007
0.047,0.002
0.044,0.004
0.044,0.003
0.045,0.007
0.045,0.009
0.043,0.008
0.041,0.013
0.041,0.011
0.035,0.014
0.036,0.011
0.039,0.012
0.036,0.011
0.043,0.013
0.040,0.012
0.043,0.016
0.041,0.015
0.047,0.015
0.045,0.013
0.043,0.017
0.040,0.015
0.042,0.019
0.042,0.019
0.043,0.025
0.044,0.026
0.044,0.028
0.045,0.026
0.044,0.027
0.046,0.029
0.041,0.028
0.045,0.029
0.041,0.032
0.044,0.030
0.044,0.032
0.042,0.030
0.042,0.031
0.043,0.034
0.040,0.037
0.042,0.037
0.041,0.037
0.041,0.035
0.043,0.035
0.042,0.035
0.041,0.037
0.045,0.034
0.045,0.035
0.044,0.033
0.046,0.034
0.044,0.036
0.048,0.035
0.045,0.037
0.046,0.037
0.043,0.039
0.045,0.037
0.045,0.041
0.046,0.041
0.044,0.041
0.046,0.040
0.046,0.044
0.048,0.042
0.046,0.040
0.047,0.037
0.049,0.039
0.046,0.035
0.049,0.041
0.047,0.039
0.049,0.041
0.045,0.041
0.046,0.041
0.042,0.045
0.047,0.040
0.044,0.042
0.044,0.040
0.045,0.040
0.043,0.042
0.044,0.039
0.045,0.040
0.049,0.040
0.046,0.038
0.047,0.037
0.048,0.037
0.046,0.038
0.046,0.036
0.048,0.037
0.047,0.036
0.046,0.033
0.044,0.037
0.046,0.033
0.047,0.036
0.049,0.033
0.047,0.033
0.051,0.027
0.059,0.028
0.065,0.028
0.050,0.026
0.036,0.025
0.031,0.023
0.022,0.026
0.018,0.023
0.020,0.023
0.014,0.022
0.001,0.020
-0.021,0.021
-0.031,0.020
-0.039,0.018
-0.028,0.017
-0.002,0.016
0.023,0.015
0.051,0.014
0.066,0.011
0.080,0.010
0.083,0.012
0.091,0.011
0.094,0.011
0.100,0.010
0.102,0.007
0.096,0.007
0.078,0.005
0.050,0.005
0.014,0.003
-0.005,0.003
-0.017,0.004
-0.004,0.002
0.019,0.006
0.042,-0.001
0.065,0.002
0.082,-0.000
0.091,0.004
0.099,0.002
0.109,0.001
0.113,-0.001
0.118,0.000
0.115,-0.003
0.111,-0.001
0.103,-0.002
0.095,-0.003
0.086,0.002
0.078,-0.003
0.070,-0.004
0.065,-0.005
0.057,-0.003
0.056,-0.005
0.056,-0.003
0.054,-0.004
0.058,-0.002
0.054,-0.005
0.057,-0.002
0.053,-0.002
0.056,-0.005
0.053,-0.004
0.054,-0.003
0.052,-0.003
0.053,-0.002
0.048,0.000
0.052,-0.005
0.049,-0.002
0.049,-0.002
0.052,-0.000
0.048,-0.001
0.050,0.000
0.048,-0.001
0.051,-0.000
0.049,0.000
0.053,-0.001
0.049,0.004
0.048,0.001
0.047,0.004
0.048,0.005
0.047,0.007
0.047,0.008
0.046,0.009
0.049,0.008
0.046,0.009
0.046,0.007
0.048,0.010
0.047,0.008
0.046,0.008
0.046,0.009
0.047,0.009
0.045,0.011
0.043,0.009
0.040,0.012
0.039,0.015
0.036,0.017
0.039,0.016
0.037,0.017
0.042,0.017
0.042,0.017
0.046,0.019
0.045,0.021
0.049,0.020
0.049,0.023
0.048,0.024
0.045,0.024
0.044,0.026
0.046,0.026
0.045,0.028
0.048,0.028
0.049,0.030
0.045,0.029
0.047,0.029
0.044,0.029
0.045,0.031
0.041,0.030
0.042,0.032
0.044,0.034
0.044,0.035
0.045,0.034
0.045,0.036
0.044,0.037
0.045,0.036
0.043,0.039
0.045,0.036
0.042,0.038
0.043,0.037
0.042,0.039
0.043,0.039
0.040,0.040
0.038,0.041
0.044,0.042
0.041,0.043
0.044,0.041
0.046,0.041
0.047,0.041
0.046,0.039
0.046,0.039
0.046,0.041
0.047,0.042
0.046,0.044
0.045,0.042
0.040,0.044
0.044,0.040
0.042,0.045
0.041,0.043
0.045,0.044
0.046,0.043
0.047,0.045
0.047,0.042
0.048,0.042
0.047,0.043
0.046,0.039
0.047,0.042
0.044,0.038
0.044,0.040
0.043,0.039
0.043,0.040
0.046,0.041
0.047,0.039
0.047,0.038
0.045,0.037
0.045,0.035
0.045,0.036
0.046,0.033
0.047,0.035
0.046,0.035
0.046,0.034
0.045,0.037
0.045,0.032
0.047,0.033
0.049,0.028
0.046,0.029
0.048,0.029
0.046,0.028
0.047,0.029
0.047,0.027
0.047,0.023
0.050,0.027
0.047,0.023
0.047,0.024
0.047,0.022
0.046,0.020
0.048,0.018
0.047,0.017
0.046,0.015
0.047,0.013
0.050,0.012
0.047,0.014
0.048,0.012
0.047,0.013
0.048,0.009
0.047,0.010
0.044,0.007
0.046,0.009
0.043,0.007
0.048,0.007
0.045,0.007
0.048,0.006
0.045,0.004
0.047,0.008
0.047,0.004
0.049,0.003
0.048,-0.003
0.051,-0.000
0.049,0.002
0.050,0.002
0.045,0.005
0.048,-0.001
0.049,0.003
0.048,0.001
0.049,0.003
0.047,0.001
0.049,-0.002
0.047,-0.002
0.049,-0.003
0.047,-0.003
0.048,-0.003
0.047,-0.005
0.048,-0.003
0.046,-0.001
0.047,-0.001
0.047,0.001
0.047,-0.003
0.048,0.001
0.052,-0.001
0.049,-0.000
0.048,-0.001
0.051,-0.001
0.046,-0.003
0.049,0.002
0.048,-0.000
0.050,-0.004
0.046,-0.001
0.050,-0.001
0.048,-0.001
0.048,0.000
0.046,0.000
0.049,0.001
0.044,0.006
0.046,0.006
0.043,0.008
0.045,0.007
0.046,0.009
0.043,0.007
0.047,0.007
0.045,0.005
0.046,0.008
0.042,0.006
0.043,0.008
0.041,0.008
0.037,0.007
0.036,0.011
0.039,0.013
0.038,0.015
0.040,0.016
0.043,0.016
0.048,0.014
0.049,0.015
0.050,0.014
0.047,0.018
0.048,0.015
0.046,0.019
0.045,0.016
0.044,0.018
0.043,0.018
0.043,0.020
0.041,0.019
0.041,0.024
0.042,0.027
0.040,0.030
0.043,0.030
0.042,0.032
0.043,0.031
0.042,0.035
0.043,0.030
0.045,0.035
0.042,0.030
0.046,0.032
0.042,0.032
0.043,0.034
0.045,0.033
0.044,0.036
0.046,0.034
0.044,0.038
0.044,0.036
0.043,0.039
0.043,0.037
0.046,0.036
0.045,0.036
0.050,0.037
0.049,0.036
0.048,0.034
0.049,0.037
0.048,0.037
0.045,0.036
0.044,0.038
0.040,0.042
0.043,0.042
0.041,0.043
0.045,0.044
0.041,0.045
0.045,0.044
0.046,0.045
0.056,0.042
0.059,0.045
0.041,0.043
0.034,0.043
0.024,0.039
0.017,0.043
0.012,0.042
0.014,0.044
0.017,0.048
0.025,0.044
0.030,0.047
0.039,0.045
0.051,0.045
0.062,0.043
0.069,0.046
0.066,0.041
0.059,0.042
0.038,0.043
0.007,0.039
-0.023,0.040
-0.037,0.040
-0.040,0.038
-0.026,0.039
0.000,0.036
0.029,0.038
0.056,0.036
0.075,0.036
0.086,0.038
0.094,0.033
0.098,0.038
0.102,0.033
0.106,0.037
0.105,0.031
0.103,0.034
0.094,0.028
0.088,0.032
0.076,0.030
0.072,0.026
0.067,0.031
0.060,0.026
0.059,0.026
0.056,0.024
0.055,0.025
0.054,0.024
0.054,0.022
0.057,0.020
0.056,0.023
0.056,0.019
0.055,0.017
0.055,0.013
0.054,0.016
0.053,0.014
0.053,0.012
0.049,0.010
0.052,0.011
0.050,0.013
0.051,0.011
0.051,0.009
0.050,0.009
0.050,0.005
0.050,0.008
0.051,0.003
0.048,0.009
0.050,0.003
0.048,0.007
0.047,0.006
0.047,0.006
0.047,0.003
0.050,0.003
0.050,0.001
0.052,0.003
0.049,0.002
0.050,0.001
0.050,0.001
0.050,0.000
0.049,-0.001
0.047,0.001
0.046,0.000
0.049,-0.003
0.047,-0.003
0.047,-0.003
0.047,-0.003
0.046,-0.006
0.049,-0.006
0.050,-0.003
0.049,-0.003
0.050,-0.003
0.048,-0.004
0.048,-0.000
0.045,-0.003
0.046,-0.003
0.045,-0.003
0.047,-0.002
0.046,-0.002
0.043,-0.002
0.042,-0.003
0.040,-0.003
0.042,-0.002
0.046,-0.001
0.045,-0.002
0.049,0.000
0.045,-0.002
0.046,-0.001
0.045,0.002
0.046,0.002
0.047,0.004
0.045,0.006
0.044,0.006
0.047,0.003
0.044,0.006
0.044,0.007
0.042,0.006
0.043,0.009
0.042,0.010
0.043,0.010
0.043,0.009
0.039,0.009
0.024,0.012
0.002,0.011
-0.026,0.011
-0.043,0.013
-0.058,0.013
-0.053,0.016
-0.033,0.011
-0.006,0.016
0.015,0.016
0.038,0.014
0.046,0.015
0.053,0.016
0.061,0.020
0.064,0.020
0.072,0.025
0.075,0.024
0.087,0.029
0.086,0.028
0.096,0.029
0.098,0.027
0.100,0.030
0.094,0.031
0.090,0.035
0.079,0.030
0.073,0.034
0.064,0.031
0.063,0.032
0.057,0.036
0.057,0.036
0.051,0.037
0.055,0.036
0.049,0.039
0.051,0.036
0.048,0.040
0.050,0.037
0.046,0.038
0.046,0.041
0.049,0.041
0.045,0.039
0.046,0.038
0.044,0.040
0.047,0.041
0.044,0.043
0.047,0.043
0.044,0.042
0.047,0.043
0.045,0.043
0.046,0.045
0.046,0.043
0.049,0.043
0.045,0.043
0.049,0.042
0.047,0.044
0.048,0.042
0.047,0.045
0.049,0.043
0.047,0.046
0.046,0.043
0.046,0.046
0.044,0.044
0.049,0.046
0.045,0.042
0.049,0.043
0.047,0.042
0.046,0.041
0.045,0.043
0.045,0.041
0.044,0.042
0.047,0.042
0.043,0.042
0.046,0.041
0.044,0.042
0.044,0.040
0.045,0.039
0.044,0.039
0.048,0.039
0.044,0.040
0.050,0.036
0.046,0.035
0.047,0.036
0.045,0.035
0.046,0.036
0.047,0.037
0.047,0.035
0.044,0.035
0.048,0.031
0.045,0.034
0.049,0.032
0.047,0.029
0.049,0.026
0.048,0.029
0.050,0.028
0.049,0.031
0.045,0.025
0.048,0.026
0.046,0.023
0.050,0.023
0.048,0.020
0.049,0.020
0.047,0.017
0.048,0.018
0.046,0.013
0.048,0.016
0.045,0.010
0.051,0.015
0.047,0.009
0.047,0.010
0.047,0.012
0.049,0.013
0.046,0.012
0.049,0.014
0.047,0.009
0.047,0.007
0.048,0.005
0.048,0.005
0.047,0.006
0.047,0.003
0.046,0.006
0.046,0.005
0.046,0.007
0.044,0.005
0.045,0.007
0.046,0.003
0.049,0.003
0.044,-0.001
0.049,-0.001
0.049,-0.000
0.050,-0.002
0.049,-0.002
0.048,-0.004
0.047,-0.002
0.036,-0.006
0.022,-0.003
-0.006,-0.003
-0.034,-0.002
-0.048,-0.002
-0.047,-0.001
-0.032,-0.003
-0.004,-0.001
0.023,-0.004
0.050,-0.001
0.065,-0.004
0.080,-0.001
0.085,-0.003
0.095,-0.001
0.097,0.003
0.103,0.001
0.101,0.004
0.097,0.001
0.088,0.004
0.082,0.004
0.075,0.007
0.068,0.007
0.065,0.007
0.060,0.003
0.056,0.006
0.054,0.002
0.050,0.009
0.048,0.006
0.049,0.007
0.048,0.010
0.050,0.007
0.044,0.010
0.047,0.009
0.044,0.011
0.043,0.011
0.045,0.014
0.043,0.013
0.044,0.016
0.042,0.015
0.046,0.016
0.045,0.016
0.049,0.017
0.043,0.017
0.049,0.020
0.046,0.020
0.048,0.021
0.043,0.019
0.042,0.022
0.040,0.022
0.038,0.025
0.038,0.027
0.041,0.032
0.038,0.030
0.039,0.030
0.039,0.032
0.040,0.032
0.043,0.034
0.042,0.035
0.047,0.032
0.042,0.035
0.042,0.033
0.040,0.037
0.039,0.036
0.038,0.037
0.041,0.036
0.038,0.038
0.039,0.035
0.041,0.038
0.040,0.038
0.044,0.039
0.042,0.036
0.042,0.037
0.041,0.037
0.043,0.037
0.043,0.040
0.044,0.038
0.038,0.042
0.040,0.040
0.041,0.043
0.041,0.043
0.042,0.042
0.042,0.043
0.041,0.043
0.043,0.042
0.041,0.044
0.042,0.043
0.042,0.041
0.041,0.042
0.041,0.041
0.039,0.041
0.042,0.042
0.037,0.045
0.041,0.041
0.039,0.045
0.041,0.043
0.036,0.046
0.041,0.046
0.039,0.044
0.038,0.044
0.041,0.046
0.038,0.043
0.041,0.047
0.041,0.043
0.041,0.042
0.044,0.040
0.044,0.041
0.044,0.039
0.043,0.040
0.041,0.041
0.044,0.038
0.039,0.039
0.041,0.038
0.040,0.038
0.041,0.036
0.044,0.036
0.042,0.034
0.045,0.032
0.045,0.032
0.044,0.031
0.041,0.032
0.042,0.028
0.042,0.030
0.041,0.028
0.044,0.029
0.042,0.028
0.042,0.027
0.041,0.025
0.043,0.024
0.042,0.024
0.042,0.025
0.046,0.025
0.045,0.023
0.045,0.020
0.045,0.018
0.047,0.015
0.043,0.017
0.044,0.012
0.043,0.013
0.046,0.011
0.043,0.010
0.046,0.010
0.043,0.010
0.044,0.007
0.045,0.010
0.045,0.007
0.043,0.007
0.042,0.007
0.044,0.008
0.046,0.006
0.045,0.004
0.047,0.002
0.049,0.003
0.046,-0.002
0.047,0.000
0.045,-0.002
0.044,0.000
0.042,0.001
0.046,-0.001
0.043,0.000
0.044,-0.003
0.043,0.001
0.044,-0.002
0.046,-0.002
0.043,-0.005
0.044,-0.004
0.042,-0.003
0.043,-0.003
0.039,-0.005
0.043,-0.004
0.041,-0.007
0.045,-0.005
0.044,-0.007
0.047,-0.007
0.045,-0.003
0.047,-0.006
0.044,-0.004
0.045,-0.006
0.042,-0.005
0.043,-0.005
0.042,-0.003
0.043,-0.005
0.044,-0.004
0.043,-0.003
0.045,-0.003
0.041,-0.003
0.044,-0.002
0.043,-0.003
0.049,0.000
0.057,0.002
0.053,0.003
0.031,0.003
0.025,0.003
0.013,0.004
0.012,0.004
0.010,0.004
0.014,0.006
0.020,0.007
0.024,0.005
0.034,0.007
0.043,0.006
0.061,0.009
0.067,0.010
0.072,0.007
0.070,0.009
0.067,0.012
0.061,0.012
0.059,0.010
0.050,0.013
0.050,0.013
0.047,0.014
0.047,0.013
0.043,0.017
0.046,0.013
0.044,0.016
0.042,0.017
0.043,0.020
0.042,0.021
0.043,0.021
0.041,0.023
0.042,0.026
0.040,0.025
0.041,0.028
0.043,0.025
0.041,0.028
0.042,0.029
0.039,0.028
0.041,0.030
0.041,0.028
0.038,0.032
0.041,0.031
0.042,0.034
0.037,0.031
0.039,0.033
0.040,0.036
0.041,0.035
0.037,0.038
0.038,0.036
0.038,0.039
0.039,0.040
0.037,0.040
0.042,0.038
0.038,0.037
0.041,0.035
0.039,0.039
0.039,0.037
0.042,0.038
0.038,0.040
0.041,0.043
0.038,0.041
0.039,0.041
0.038,0.044
0.043,0.042
0.041,0.045
0.041,0.041
0.039,0.044
0.041,0.040
0.036,0.041
0.038,0.039
0.039,0.039
0.040,0.038
0.038,0.040
0.041,0.041
0.040,0.045
0.039,0.041
0.039,0.043
0.039,0.042
0.039,0.042
0.040,0.043
0.041,0.042
0.039,0.042
0.040,0.040
0.039,0.044
0.041,0.040
0.036,0.040
0.039,0.042
0.037,0.041
0.037,0.038
0.041,0.038
0.043,0.037
0.044,0.035
0.046,0.034
0.045,0.033
0.044,0.034
0.042,0.032
0.043,0.032
0.044,0.032
0.042,0.032
0.044,0.030
0.041,0.030
0.041,0.027
0.041,0.026
0.033,0.027
0.015,0.026
-0.011,0.025
-0.037,0.025
-0.059,0.023
-0.062,0.024
-0.042,0.021
-0.017,0.021
0.010,0.019
0.036,0.019
0.055,0.018
0.068,0.018
0.076,0.011
0.082,0.013
0.088,0.010
0.092,0.011
0.087,0.011
0.071,0.010
0.036,0.011
0.006,0.010
-0.013,0.004
-0.019,0.004
-0.006,0.004
0.017,0.003
0.041,0.001
0.063,0.000
0.078,-0.003
0.088,-0.000
0.095,0.000
0.101,0.000
0.108,0.003
0.109,0.003
0.110,0.005
0.104,0.005
0.092,0.004
0.084,-0.000
0.077,0.001
0.068,-0.001
0.066,-0.003
0.062,-0.006
0.062,-0.008
0.057,-0.008
0.056,-0.007
0.052,-0.003
0.051,-0.007
0.050,-0.003
0.049,-0.005
0.049,-0.001
0.047,-0.005
0.046,-0.004
0.044,-0.001
0.045,-0.002
0.039,-0.003
0.043,-0.003
0.040,-0.005
0.039,-0.001
0.041,-0.003
0.043,-0.004
0.043,-0.001
0.043,-0.001
0.040,0.001
0.044,0.002
0.036,0.002
0.030,0.002
0.013,0.003
0.002,-0.000
-0.029,0.002
-0.053,0.002
-0.066,0.003
-0.072,0.004
-0.052,0.005
-0.028,0.002
0.009,0.003
0.043,0.003
0.075,0.007
0.092,0.002
0.107,0.006
0.108,0.004
0.114,0.008
0.111,0.010
0.109,0.010
0.101,0.014
0.099,0.012
0.092,0.017
0.086,0.012
0.080,0.015
0.073,0.015
0.065,0.015
0.058,0.017
0.054,0.019
0.052,0.019
0.049,0.021
0.046,0.022
0.046,0.025
0.043,0.024
0.042,0.027
0.042,0.025
0.043,0.030
0.042,0.028
0.044,0.032
0.044,0.028
0.043,0.030
0.044,0.029
0.044,0.034
0.044,0.031
0.042,0.031
0.042,0.032
0.043,0.036
0.042,0.037
0.042,0.037
0.041,0.038
0.039,0.036
0.041,0.036
0.044,0.036
0.043,0.035
0.044,0.036
0.042,0.034
0.044,0.036
0.044,0.038
0.044,0.035
0.042,0.039
0.040,0.039
0.040,0.044
0.040,0.041
0.039,0.042
0.042,0.042
0.039,0.045
0.042,0.044
0.041,0.046
0.039,0.043
0.043,0.045
0.041,0.040
0.042,0.042
0.041,0.040
0.041,0.043
0.043,0.042
0.043,0.043
0.043,0.045
0.040,0.044
0.039,0.047
0.038,0.045
0.037,0.045
0.039,0.043
0.039,0.043
0.042,0.041
0.043,0.043
0.041,0.040
0.042,0.039
0.044,0.038
0.043,0.036
0.041,0.038
0.042,0.036
0.041,0.041
0.043,0.038
0.041,0.039
0.042,0.036
0.042,0.036
0.040,0.035
0.041,0.035
0.043,0.036
0.044,0.035
0.044,0.030
0.043,0.027
0.044,0.028
0.043,0.031
0.045,0.033
0.042,0.028
0.043,0.030
0.044,0.023
0.045,0.027
0.043,0.025
0.047,0.025
0.044,0.021
0.044,0.022
0.045,0.020
0.047,0.020
0.048,0.015
0.047,0.018
0.047,0.013
0.044,0.014
0.048,0.010
0.044,0.015
0.044,0.011
0.042,0.008
0.046,0.008
0.044,0.008
0.047,0.008
0.042,0.009
0.046,0.008
0.045,0.010
0.044,0.007
0.043,0.010
0.045,0.007
0.044,0.004
0.042,0.005
0.043,0.004
0.041,0.002
0.047,0.002
0.047,-0.001
0.048,-0.000
0.047,-0.001
0.049,0.002
0.046,0.001
0.049,-0.002
0.046,-0.002
0.046,-0.003
0.046,-0.003
0.045,-0.003
0.042,-0.002
0.042,-0.004
0.044,-0.004
0.042,-0.003
0.046,-0.002
0.043,-0.001
0.046,-0.001
0.043,-0.001
0.045,-0.001
0.045,-0.001
0.045,-0.001
0.043,0.002
0.043,0.000
0.041,0.002
0.045,0.001
0.042,0.002
0.043,0.001
0.042,0.003
0.040,-0.001
0.043,-0.001
0.041,0.000
0.045,0.003
0.043,0.004
0.044,0.001
0.043,0.002
0.042,0.003
0.043,0.006
0.041,0.003
0.041,0.007
0.043,0.008
0.042,0.009
0.043,0.011
0.039,0.011
0.040,0.007
0.043,0.010
0.044,0.008
0.042,0.011
0.041,0.010
0.045,0.011
0.043,0.011
0.046,0.011
0.046,0.016
0.046,0.014
0.045,0.014
0.045,0.013
0.043,0.013
0.045,0.015
0.045,0.019
0.056,0.018
0.046,0.020
0.030,0.019
0.023,0.023
0.017,0.023
0.011,0.026
0.010,0.028
0.013,0.028
0.021,0.030
0.022,0.028
0.031,0.032
0.040,0.032
0.055,0.035
0.062,0.035
0.066,0.033
0.065,0.033
0.062,0.033
0.057,0.032
0.054,0.035
0.053,0.035
0.049,0.034
0.046,0.038
0.044,0.037
0.040,0.041
0.045,0.039
0.039,0.039
0.043,0.038
0.038,0.039
0.039,0.036
0.038,0.039
0.039,0.039
0.042,0.040
0.042,0.042
0.043,0.043
0.042,0.044
0.043,0.044
0.043,0.047
0.043,0.043
0.041,0.047
0.040,0.043
0.041,0.043
0.038,0.043
0.039,0.045
0.038,0.045
0.039,0.043
0.039,0.043
0.041,0.045
0.041,0.043
0.041,0.045
0.042,0.043
0.042,0.044
0.041,0.044
0.044,0.043
0.043,0.045
0.042,0.042
0.045,0.045
0.044,0.041
0.043,0.043
0.043,0.042
0.045,0.042
0.043,0.039
0.047,0.040
0.042,0.037
0.048,0.038
0.045,0.037
0.048,0.036
0.044,0.036
0.043,0.036
0.043,0.034
0.043,0.033
0.048,0.035
0.045,0.031
0.046,0.033
0.043,0.031
0.047,0.031
0.047,0.027
0.049,0.028
0.047,0.025
0.047,0.026
0.042,0.024
0.047,0.025
0.045,0.024
0.050,0.023
0.047,0.023
0.049,0.022
0.047,0.021
0.049,0.018
0.048,0.019
0.048,0.019
0.046,0.012
0.046,0.013
0.045,0.013
0.049,0.011
0.046,0.010
0.049,0.008
0.048,0.009
0.048,0.007
0.049,0.007
0.049,0.007
0.047,0.005
0.049,0.008
0.048,0.003
0.051,0.004
0.049,0.005
0.048,0.004
0.047,0.004
0.045,0.002
0.043,0.003
0.044,0.003
0.042,0.003
0.044,0.004
0.042,0.001
0.044,0.002
0.045,-0.000
0.044,-0.002
0.047,-0.003
0.048,-0.004
0.048,-0.004
0.046,-0.007
0.045,-0.007
0.043,-0.005
0.045,-0.003
0.041,-0.003
0.045,-0.003
0.039,-0.003
0.040,-0.003
0.040,-0.004
0.038,-0.008
0.039,-0.006
0.039,-0.007
0.041,-0.006
0.041,-0.006
0.043,-0.005
0.047,-0.007
0.050,-0.004
0.052,-0.003
0.050,-0.004
0.047,-0.001
0.046,-0.001
0.045,0.001
0.047,-0.001
0.046,0.003
0.045,0.001
0.047,0.002
0.045,0.002
0.046,0.004
0.045,0.004
0.045,0.003
0.045,0.006
0.044,0.003
0.045,0.009
0.042,0.006
0.041,0.012
0.041,0.008
0.042,0.010
0.043,0.011
0.042,0.010
0.042,0.011
0.041,0.015
0.043,0.013
0.044,0.013
0.044,0.012
0.042,0.015
0.044,0.014
0.043,0.014
0.044,0.013
0.043,0.018
0.040,0.016
0.038,0.016
0.038,0.022
0.037,0.021
0.040,0.023
0.039,0.027
0.041,0.026
0.040,0.029
0.045,0.027
0.038,0.028
0.040,0.029
0.041,0.031
0.040,0.032
0.042,0.032
0.041,0.032
0.041,0.035
0.041,0.034
0.037,0.037
0.036,0.035
0.037,0.037
0.037,0.035
0.043,0.037
0.040,0.034
0.046,0.035
0.041,0.034
0.046,0.036
0.039,0.037
0.023,0.034
-0.003,0.038
-0.031,0.037
-0.052,0.040
-0.059,0.038
-0.045,0.040
-0.020,0.039
0.007,0.041
0.031,0.043
0.049,0.044
0.059,0.041
0.072,0.045
0.078,0.042
0.089,0.044
0.093,0.042
0.100,0.042
0.098,0.042
0.095,0.043
0.087,0.045
0.079,0.044
0.070,0.049
0.065,0.046
0.061,0.049
0.057,0.045
0.056,0.046
0.052,0.045
0.054,0.046
0.049,0.044
0.052,0.043
0.049,0.042
0.049,0.043
0.047,0.040
0.048,0.041
0.049,0.041
0.047,0.040
0.042,0.039
0.046,0.041
0.041,0.042
0.043,0.038
0.044,0.041
0.045,0.037
0.048,0.037
0.045,0.035
0.048,0.035
0.044,0.031
0.050,0.031
0.046,0.030
0.049,0.028
0.046,0.029
0.046,0.029
0.047,0.031
0.049,0.028
0.047,0.028
0.048,0.027
0.045,0.028
0.050,0.023
0.048,0.023
0.051,0.021
0.048,0.022
0.050,0.017
0.048,0.017
0.049,0.011
0.050,0.014
0.049,0.010
0.047,0.013
0.048,0.012
0.047,0.011
0.036,0.010
0.022,0.010
0.002,0.006
-0.029,0.010
-0.042,0.005
-0.049,0.008
-0.035,0.005
-0.007,0.007
0.020,0.003
0.048,0.002
0.065,0.001
0.082,-0.001
0.088,-0.001
0.098,0.002
0.103,0.001
0.106,0.000
0.107,-0.002
0.102,-0.001
0.096,0.000
0.089,-0.003
0.080,0.001
0.072,-0.005
0.064,-0.004
0.061,-0.008
0.059,-0.004
0.055,-0.009
0.053,-0.006
0.048,-0.006
0.051,-0.006
0.048,-0.006
0.050,-0.007
0.051,-0.004
0.050,-0.004
0.050,-0.003
0.049,-0.004
0.046,-0.002
0.046,-0.005
0.041,-0.002
0.042,-0.003
0.044,-0.001
0.043,-0.002
0.044,0.000
0.042,-0.002
0.047,-0.000
0.044,-0.001
0.045,0.001
0.043,0.004
0.044,0.004
0.044,0.006
0.044,0.004
0.045,0.007
0.043,0.004
0.045,0.007
0.042,0.006
0.041,0.008
0.043,0.007
0.043,0.011
0.043,0.010
0.042,0.009
0.042,0.005
0.046,0.012
0.041,0.009
0.045,0.012
0.041,0.010
0.043,0.011
0.040,0.013
0.042,0.011
0.041,0.015
0.042,0.012
0.042,0.013
0.041,0.010
0.043,0.011
0.042,0.011
0.041,0.017
0.039,0.017
0.040,0.020
0.041,0.019
0.040,0.025
0.041,0.026
0.041,0.031
0.040,0.030
0.043,0.030
0.043,0.032
0.044,0.029
0.043,0.033
0.042,0.029
0.044,0.029
0.040,0.028
0.044,0.032
0.038,0.031
0.041,0.031
0.039,0.033
0.041,0.034
0.040,0.037
0.041,0.037
0.039,0.036
0.044,0.040
0.049,0.036
0.054,0.039
0.037,0.037
0.029,0.037
0.021,0.040
0.014,0.038
0.011,0.041
0.010,0.036
0.015,0.041
0.021,0.039
0.033,0.039
0.039,0.039
0.055,0.036
0.061,0.040
0.068,0.039
0.068,0.037
0.067,0.036
0.060,0.038
0.057,0.040
0.050,0.041
0.049,0.043
0.048,0.043
0.045,0.041
0.046,0.045
0.046,0.041
0.047,0.044
0.049,0.041
0.048,0.043
0.047,0.042
0.046,0.041
0.043,0.044
0.045,0.043
0.042,0.044
0.046,0.041
0.043,0.041
0.044,0.037
0.047,0.036
0.047,0.036
0.047,0.036
0.047,0.036
0.045,0.037
0.045,0.034
0.045,0.035
0.045,0.034
0.046,0.033
0.044,0.035
0.047,0.033
0.047,0.034
0.048,0.030
0.047,0.032
0.044,0.029
0.043,0.028
0.043,0.029
0.044,0.026
0.044,0.024
0.046,0.027
0.043,0.024
0.049,0.023
0.047,0.023
0.049,0.020
0.046,0.018
0.050,0.018
0.046,0.013
0.050,0.015
0.048,0.013
0.049,0.013
0.049,0.012
0.049,0.013
0.047,0.008
0.049,0.010
0.049,0.008
0.049,0.010
0.046,0.006
0.052,0.006
0.048,0.004
0.049,0.005
0.047,0.002
0.048,0.003
0.048,0.003
0.047,0.002
0.048,0.006
0.048,0.003
0.047,0.004
0.047,0.004
0.044,0.006
0.045,0.000
0.046,0.003
0.044,-0.000
0.047,0.003
0.044,0.001
0.047,-0.000
0.045,-0.003
0.047,-0.004
0.045,-0.006
0.044,-0.006
0.043,-0.003
0.042,-0.003
0.042,0.002
0.043,0.001
0.044,0.001
0.043,-0.001
0.043,-0.001
0.042,-0.003
0.045,-0.002
0.043,-0.005
0.050,0.000
0.045,-0.004
0.046,-0.004
0.047,-0.002
0.046,-0.003
0.042,-0.002
0.045,-0.002
0.043,0.002
0.046,-0.002
0.042,0.003
0.043,0.001
0.044,0.002
0.043,0.000
0.045,0.002
0.043,0.003
0.047,0.005
0.041,0.002
0.043,0.005
0.042,0.004
0.045,0.007
0.044,0.008
0.047,0.006
0.042,0.011
0.043,0.010
0.040,0.012
0.039,0.011
0.042,0.014
0.039,0.013
0.040,0.011
0.039,0.010
0.041,0.012
0.042,0.010
0.042,0.013
0.039,0.010
0.042,0.015
0.040,0.013
0.041,0.015
0.041,0.015
0.040,0.019
0.040,0.023
0.039,0.023
0.040,0.024
0.040,0.026
0.041,0.026
0.041,0.028
0.042,0.029
0.041,0.028
0.046,0.025
0.043,0.030
0.043,0.030
0.042,0.030
0.043,0.028
0.040,0.031
0.044,0.031
0.037,0.030
0.041,0.032
0.041,0.035
0.039,0.032
0.039,0.035
0.038,0.033
0.041,0.034
0.039,0.034
0.043,0.035
0.045,0.033
0.039,0.033
0.035,0.037
0.021,0.035
0.001,0.038
-0.029,0.038
-0.048,0.041
-0.052,0.041
-0.048,0.042
-0.021,0.042
0.007,0.043
0.034,0.044
0.053,0.044
0.072,0.045
0.081,0.040
0.089,0.041
0.096,0.044
0.099,0.043
0.102,0.043
0.100,0.040
0.096,0.043
0.087,0.041
0.082,0.043
0.073,0.046
0.066,0.044
0.058,0.045
0.058,0.045
0.054,0.045
0.050,0.045
0.053,0.042
0.049,0.041
0.050,0.039
0.049,0.038
0.048,0.040
0.051,0.039
0.050,0.040
0.049,0.038
0.050,0.040
0.050,0.040
0.047,0.036
0.046,0.038
0.047,0.036
0.046,0.036
0.049,0.033
0.047,0.034
0.047,0.034
0.049,0.034
0.045,0.031
0.049,0.031
0.048,0.031
0.049,0.028
0.050,0.030
0.049,0.027
0.051,0.028
0.049,0.026
0.048,0.030
0.048,0.026
0.049,0.026
0.049,0.023
0.046,0.023
0.046,0.018
0.046,0.017
0.047,0.015
0.047,0.014
0.047,0.012
0.047,0.013
0.047,0.011
0.046,0.010
0.047,0.011
0.047,0.011
0.048,0.009
0.046,0.009
0.050,0.001
0.048,0.006
0.047,0.005
0.045,0.006
0.045,0.005
0.044,0.004
0.041,0.003
0.046,0.004
0.044,0.003
0.047,0.001
0.046,0.001
0.047,0.002
0.045,0.000
0.045,0.004
0.045,0.002
0.046,-0.000
0.045,0.000
0.047,-0.002
0.047,0.003
0.045,-0.001
0.045,0.001
0.045,-0.002
0.043,-0.003
0.044,-0.005
0.045,-0.005
0.044,-0.004
0.047,-0.003
0.046,-0.004
0.048,-0.002
0.042,-0.003
0.046,-0.004
0.044,-0.002
0.044,-0.003
0.042,-0.001
0.040,-0.002
0.040,0.000
0.040,-0.001
0.042,-0.000
0.040,0.003
0.042,0.002
0.040,0.002
0.043,0.004
0.042,0.004
0.044,0.004
0.044,0.002
0.046,0.004
0.042,0.007
0.042,0.007
0.039,0.007
0.044,0.007
0.039,0.010
0.041,0.009
0.042,0.011
0.041,0.009
0.042,0.012
0.046,0.010
0.044,0.011
0.040,0.011
0.042,0.013
0.039,0.013
0.042,0.012
0.039,0.014
0.042,0.012
0.040,0.014
0.040,0.016
0.038,0.016
0.040,0.015
0.041,0.015
0.042,0.013
0.041,0.017
0.043,0.020
0.042,0.021
0.044,0.023
0.045,0.022
0.043,0.024
0.042,0.023
0.041,0.024
0.039,0.026
0.040,0.028
0.041,0.031
0.040,0.028
0.042,0.030
0.042,0.029
0.040,0.032
0.040,0.032
0.040,0.030
0.043,0.034
0.039,0.031
0.041,0.034
0.036,0.035
0.041,0.034
0.038,0.037
0.040,0.036
0.042,0.039
0.042,0.037
0.039,0.040
0.041,0.039
0.038,0.041
0.040,0.039
0.037,0.040
0.040,0.045
0.040,0.044
0.040,0.045
0.040,0.047
0.042,0.042
0.044,0.045
0.040,0.044
0.043,0.045
0.041,0.046
0.042,0.045
0.041,0.048
0.042,0.049
0.040,0.048
0.043,0.043
0.040,0.043
0.043,0.045
0.045,0.045
0.045,0.042
0.042,0.045
0.043,0.043
0.043,0.044
0.043,0.046
0.045,0.042
0.042,0.042
0.043,0.042
0.040,0.042
0.044,0.039
0.043,0.041
0.047,0.042
0.045,0.044
0.047,0.041
0.042,0.042
0.043,0.040
0.046,0.041
0.043,0.038
0.042,0.038
0.045,0.035
0.045,0.036
0.045,0.033
0.046,0.032
0.045,0.033
0.047,0.031
0.043,0.032
0.045,0.032
0.044,0.032
0.044,0.029
0.045,0.030
0.047,0.024
0.049,0.026
0.047,0.025
0.050,0.025
0.046,0.023
0.045,0.022
0.047,0.021
0.046,0.021
0.047,0.017
0.047,0.018
0.048,0.013
0.049,0.015
0.049,0.011
0.051,0.013
0.060,0.011
0.055,0.011
0.036,0.010
0.029,0.010
0.023,0.011
0.019,0.011
0.015,0.007
0.021,0.007
0.022,0.005
0.033,0.006
0.038,0.002
0.052,0.001
0.063,0.002
0.072,0.000
0.073,0.003
0.075,0.000
0.073,0.002
0.066,0.001
0.062,0.002
0.058,0.002
0.053,0.003
0.052,-0.000
0.051,0.000
0.049,-0.004
0.052,-0.001
0.049,-0.002
0.054,-0.003
0.050,-0.008
0.052,-0.007
0.049,-0.006
0.048,-0.007
0.048,-0.002
0.046,-0.003
0.045,0.000
0.046,-0.003
0.049,-0.003
0.047,-0.004
0.050,-0.003
0.046,-0.007
0.038,-0.004
0.017,-0.005
-0.004,-0.001
-0.030,-0.001
-0.045,-0.002
-0.054,-0.002
-0.040,0.001
-0.025,0.002
-0.010,0.001
-0.012,0.001
-0.022,0.000
-0.024,0.002
-0.016,0.002
0.010,0.006
0.044,0.004
0.079,0.007
0.109,0.008
0.126,0.008
0.133,0.008
0.133,0.009
0.130,0.008
0.129,0.010
0.124,0.010
0.118,0.009
0.110,0.010
0.099,0.008
0.090,0.012
0.080,0.013
0.073,0.011
0.065,0.011
0.062,0.013
0.062,0.014
0.052,0.015
0.054,0.014
0.052,0.019
0.049,0.017
0.047,0.021
0.049,0.018
0.047,0.021
0.045,0.025
0.047,0.025
0.047,0.024
0.049,0.027
0.049,0.025
0.047,0.029
0.050,0.026
0.048,0.030
0.048,0.028
0.048,0.032
0.048,0.029
0.047,0.030
0.047,0.032
0.045,0.034
0.045,0.032
0.044,0.036
0.049,0.035
0.044,0.038
0.042,0.036
0.039,0.040
0.039,0.038
0.043,0.040
0.041,0.038
0.043,0.039
0.044,0.037
0.044,0.038
0.045,0.035
0.045,0.039
0.043,0.040
0.046,0.042
0.042,0.044
0.042,0.043
0.040,0.047
0.042,0.043
0.040,0.046
0.044,0.045
0.041,0.046
0.041,0.041
0.043,0.043
0.040,0.040
0.043,0.042
0.041,0.040
0.044,0.040
0.042,0.042
0.046,0.042
0.044,0.042
0.045,0.043
0.043,0.042
0.043,0.044
0.043,0.046
0.041,0.043
0.042,0.044
0.045,0.041
0.041,0.043
0.041,0.042
0.041,0.041
0.041,0.039
0.044,0.039
0.041,0.036
0.044,0.035
0.040,0.034
0.043,0.035
0.044,0.036
0.044,0.034
0.045,0.036
0.047,0.036
0.044,0.034
0.042,0.033
0.043,0.030
0.044,0.032
0.044,0.031
0.047,0.026
0.047,0.026
0.048,0.021
0.047,0.023
0.047,0.023
0.048,0.025
0.043,0.022
0.044,0.024
0.043,0.020
0.048,0.018
0.047,0.018
0.049,0.019
0.049,0.015
0.050,0.013
0.047,0.011
0.048,0.010
0.045,0.005
0.046,0.009
0.045,0.006
0.047,0.008
0.046,0.006
0.047,0.008
0.044,0.010
0.047,0.009
0.044,0.007
0.047,0.003
0.046,0.004
0.046,0.004
0.048,0.004
0.045,0.004
0.047,0.005
0.048,0.002
0.049,0.003
0.048,0.001
0.047,0.004
0.046,0.002
0.050,0.004
0.047,0.001
0.050,0.001
0.049,0.000
0.053,-0.003
0.049,-0.004
0.048,-0.005
0.046,-0.004
0.045,-0.005
0.046,-0.003
0.045,-0.003
0.045,-0.001
0.047,-0.002
0.045,-0.003
0.045,-0.003
0.045,-0.002
0.044,-0.004
0.049,-0.002
0.046,-0.007
0.049,-0.003
0.046,-0.005
0.049,-0.003
0.045,-0.002
0.046,0.000
0.042,0.000
0.043,-0.001
0.044,0.003
0.044,0.002
0.043,0.003
0.043,0.001
0.049,0.004
0.045,0.002
0.046,0.006
0.044,0.004
0.048,0.006
0.046,0.003
0.047,0.004
0.046,0.006
0.046,0.005
0.042,0.009
0.044,0.007
0.043,0.011
0.042,0.008
0.043,0.011
0.042,0.011
0.043,0.013
0.042,0.012
0.045,0.013
0.043,0.012
0.045,0.013
0.043,0.015
0.044,0.016
0.045,0.014
0.047,0.017
0.044,0.016
0.045,0.017
0.042,0.015
0.043,0.018
0.041,0.017
0.042,0.022
0.040,0.025
0.040,0.026
0.042,0.027
0.040,0.030
0.041,0.030
0.039,0.029
0.043,0.026
0.038,0.030
0.043,0.031
0.043,0.034
0.044,0.033
0.043,0.033
0.044,0.035
0.041,0.034
0.041,0.036
0.044,0.036
0.044,0.036
0.046,0.039
0.044,0.034
0.045,0.036
0.043,0.034
0.046,0.036
0.044,0.037
0.045,0.036
0.046,0.038
0.043,0.039
0.042,0.039
0.043,0.042
0.041,0.043
0.044,0.044
0.040,0.045
0.043,0.044
0.043,0.046
0.042,0.041
0.045,0.045
0.044,0.043
0.047,0.040
0.045,0.042
0.046,0.040
0.048,0.040
0.049,0.039
0.043,0.042
0.046,0.042
0.044,0.044
0.047,0.046
0.043,0.042
0.044,0.043
0.043,0.045
0.046,0.044
0.045,0.044
0.044,0.039
0.046,0.038
0.048,0.038
0.048,0.039
0.047,0.037
0.049,0.037
0.048,0.038
0.049,0.035
0.045,0.036
0.046,0.033
0.040,0.036
0.045,0.036
0.043,0.033
0.045,0.034
0.044,0.032
0.045,0.031
0.045,0.033
0.046,0.029
0.046,0.030
0.047,0.025
0.046,0.024
0.047,0.026
0.046,0.026
0.046,0.027
0.052,0.028
0.045,0.026
0.049,0.025
0.048,0.025
0.052,0.023
0.049,0.021
0.050,0.020
0.049,0.020
0.051,0.016
0.048,0.017
0.049,0.013
0.045,0.013
0.049,0.010
0.047,0.011
0.049,0.009
0.045,0.010
0.046,0.007
0.045,0.011
0.045,0.006
0.048,0.008
0.047,0.008
0.046,0.005
0.040,0.006
0.028,0.005
0.015,0.003
-0.016,0.003
-0.038,-0.000
-0.047,0.000
-0.046,-0.003
-0.018,-0.003
0.007,-0.005
0.037,-0.004
0.057,-0.003
0.072,-0.003
0.083,-0.000
0.093,-0.001
0.099,-0.000
0.102,-0.002
0.107,-0.003
0.103,-0.006
0.099,-0.006
0.090,-0.007
0.086,-0.005
0.076,-0.007
0.072,-0.006
0.065,-0.006
0.060,-0.008
0.054,-0.004
0.051,-0.006
0.052,-0.004
0.051,-0.003
0.049,-0.003
0.049,-0.006
0.049,-0.003
0.049,-0.002
0.050,-0.003
0.047,-0.005
0.049,-0.004
0.050,-0.003
0.049,-0.004
0.047,-0.003
0.047,-0.001
0.046,-0.002
0.047,-0.001
0.047,0.004
0.047,0.002
0.047,0.005
0.046,0.001
0.047,0.005
0.048,0.003
0.045,0.006
0.046,0.005
0.047,0.006
0.045,0.007
0.049,0.008
0.046,0.007
0.047,0.009
0.046,0.008
0.046,0.010
0.051,0.011
0.062,0.010
0.042,0.014
0.032,0.012
0.023,0.014
0.018,0.014
0.014,0.016
0.013,0.016
0.017,0.018
0.024,0.018
0.029,0.018
0.036,0.018
0.050,0.022
0.060,0.021
0.066,0.024
0.070,0.024
0.068,0.026
0.063,0.028
0.060,0.024
0.055,0.025
0.052,0.023
0.050,0.027
0.049,0.028
0.049,0.029
0.047,0.030
0.049,0.030
0.045,0.032
0.047,0.029
0.045,0.035
0.045,0.033
0.045,0.035
0.044,0.034
0.040,0.037
0.043,0.036
0.040,0.038
0.041,0.036
0.040,0.039
0.040,0.036
0.040,0.040
0.039,0.039
0.043,0.039
0.039,0.040
0.041,0.039
0.041,0.040
0.041,0.041
0.043,0.044
0.043,0.043
0.040,0.044
0.043,0.043
0.040,0.044
0.044,0.041
0.041,0.043
0.042,0.041
0.043,0.043
0.042,0.041
0.045,0.043
0.041,0.043
0.044,0.041
0.042,0.041
0.046,0.043
0.048,0.045
0.047,0.043
0.047,0.044
0.045,0.042
0.046,0.043
0.048,0.043
0.043,0.043
0.044,0.043
0.043,0.042
0.046,0.039
0.046,0.041
0.044,0.038
0.047,0.039
0.045,0.038
0.049,0.039
0.046,0.037
0.049,0.036
0.046,0.038
0.047,0.035
0.044,0.034
0.045,0.032
0.042,0.033
0.044,0.032
0.043,0.034
0.045,0.033
0.043,0.032
0.043,0.029
0.046,0.028
0.045,0.023
0.045,0.023
0.046,0.022
0.045,0.023
0.047,0.023
0.049,0.022
0.046,0.020
0.048,0.020
0.047,0.020
0.049,0.016
0.048,0.010
0.049,0.016
0.047,0.010
0.048,0.013
0.046,0.011
0.047,0.012
0.046,0.010
0.048,0.009
0.045,0.010
0.048,0.008
0.046,0.009
0.049,0.005
0.049,0.006
0.047,0.003
0.047,0.004
0.048,0.002
0.043,0.005
0.044,0.004
0.043,0.004
0.042,0.003
0.043,0.003
0.043,0.001
0.045,0.002
0.046,-0.001
0.050,0.002
0.049,-0.003
0.050,-0.004
0.047,-0.003
0.049,-0.008
0.048,-0.005
0.049,-0.005
0.047,-0.001
0.044,-0.003
0.044,-0.001
0.046,-0.003
0.045,-0.002
0.045,-0.004
0.049,-0.000
0.045,-0.003
0.048,-0.001
0.047,-0.005
0.047,-0.002
0.047,-0.005
0.046,-0.002
0.044,-0.002
0.045,-0.003
0.041,0.000
0.045,-0.000
0.037,-0.001
0.023,-0.002
-0.000,0.003
-0.029,-0.001
-0.051,0.002
-0.066,0.001
-0.049,0.001
-0.026,0.001
0.006,0.003
0.030,0.002
0.050,0.006
0.062,0.005
0.074,0.008
0.083,0.010
0.090,0.010
0.095,0.009
0.100,0.010
0.099,0.010
0.096,0.009
0.087,0.012
0.082,0.011
0.071,0.012
0.066,0.011
0.065,0.013
0.059,0.014
0.059,0.014
0.054,0.011
0.054,0.013
0.051,0.013
0.051,0.016
0.047,0.016
0.047,0.019
0.044,0.016
0.045,0.023
0.042,0.023
0.045,0.024
0.043,0.026
0.047,0.027
0.044,0.028
0.042,0.028
0.045,0.027
0.043,0.029
0.042,0.030
0.042,0.031
0.040,0.029
0.042,0.030
0.040,0.030
0.042,0.031
0.043,0.033
0.042,0.034
0.044,0.034
0.044,0.035
0.046,0.033
0.044,0.034
0.045,0.034
0.044,0.037
0.036,0.037
0.025,0.037
0.006,0.041
-0.024,0.037
-0.045,0.037
-0.051,0.036
-0.047,0.040
-0.018,0.039
0.010,0.041
0.035,0.039
0.058,0.040
0.071,0.039
0.083,0.040
0.090,0.040
0.098,0.042
0.103,0.041
0.104,0.042
0.105,0.042
0.097,0.041
0.090,0.043
0.082,0.047
0.071,0.047
0.066,0.045
0.061,0.046
0.053,0.043
0.053,0.047
0.051,0.045
0.053,0.044
0.050,0.043
0.052,0.041
0.052,0.044
0.049,0.040
0.049,0.042
0.048,0.040
0.047,0.042
0.048,0.040
0.048,0.040
0.046,0.040
0.047,0.039
0.047,0.038
0.047,0.036
0.049,0.036
0.049,0.033
0.052,0.032
0.048,0.032
0.052,0.034
0.049,0.031
0.050,0.030
0.048,0.029
0.046,0.030
0.047,0.029
0.047,0.030
0.049,0.028
0.051,0.027
0.047,0.024
0.049,0.025
0.045,0.022
0.045,0.025
0.047,0.024
0.045,0.021
0.045,0.022
0.045,0.021
0.047,0.016
0.045,0.014
0.046,0.013
0.046,0.014
0.047,0.013
0.048,0.011
0.047,0.010
0.046,0.009
0.051,0.012
0.047,0.012
0.049,0.009
0.049,0.011
0.047,0.007
0.049,0.006
0.046,0.004
0.049,0.003
0.048,0.004
0.049,0.002
0.053,0.000
0.062,0.002
0.049,0.004
0.039,0.003
0.026,0.003
0.022,0.002
0.015,0.002
0.019,0.001
0.022,-0.001
0.026,-0.004
0.032,-0.003
0.042,-0.006
0.057,-0.006
0.063,-0.010
0.073,-0.006
0.072,-0.005
0.073,-0.006
0.068,-0.004
0.062,-0.003
0.057,-0.002
0.058,-0.001
0.052,-0.002
0.051,-0.002
0.047,-0.002
0.049,-0.002
0.046,-0.002
0.045,-0.006
0.046,-0.002
0.042,-0.004
0.047,-0.001
0.042,-0.001
0.046,-0.000
0.046,-0.002
0.046,0.000
0.045,0.002
0.046,0.003
0.044,0.004
0.045,0.004
0.042,0.003
0.042,0.004
0.044,0.006
0.045,0.002
0.046,0.006
0.044,0.004
0.044,0.007
0.042,0.004
0.044,0.007
0.041,0.008
0.043,0.009
0.041,0.010
0.043,0.009
0.042,0.014
0.042,0.010
0.041,0.016
0.043,0.014
0.043,0.014
0.044,0.015
0.042,0.015
0.045,0.016
0.042,0.020
0.045,0.018
0.039,0.020
0.043,0.019
0.037,0.023
0.038,0.023
0.041,0.028
0.041,0.025
0.040,0.028
0.041,0.026
0.044,0.026
0.044,0.025
0.044,0.026
0.044,0.024
0.044,0.027
0.043,0.026
0.042,0.031
0.040,0.028
0.042,0.032
0.040,0.033
0.041,0.036
0.042,0.036
0.041,0.038
0.042,0.037
0.039,0.037
0.041,0.038
0.037,0.036
0.039,0.036
0.042,0.037
0.041,0.036
0.042,0.038
0.042,0.037
0.043,0.039
0.042,0.039
0.042,0.039
0.043,0.040
0.039,0.043
0.040,0.043
0.041,0.041
0.039,0.041
0.038,0.040
0.038,0.040
0.040,0.041
0.040,0.041
0.042,0.040
0.040,0.040
0.040,0.040
0.042,0.038
0.043,0.040
0.041,0.040
0.042,0.043
0.041,0.042
0.043,0.045
0.043,0.042
0.042,0.046
0.043,0.042
0.044,0.043
0.041,0.041
0.043,0.039
0.042,0.040
0.044,0.040
0.043,0.037
0.043,0.038
0.044,0.036
0.042,0.036
0.043,0.037
0.041,0.034
0.041,0.036
0.043,0.033
0.042,0.036
0.042,0.032
0.042,0.034
0.041,0.031
0.044,0.032
0.043,0.030
0.045,0.030
0.043,0.029
0.046,0.028
0.043,0.026
0.044,0.027
0.045,0.025
0.046,0.025
0.048,0.020
0.046,0.019
0.044,0.021
0.047,0.020
0.047,0.019
0.047,0.018
0.049,0.019
0.047,0.013
0.047,0.012
0.045,0.012
0.048,0.009
0.048,0.011
0.047,0.007
0.048,0.009
0.045,0.005
0.047,0.006
0.042,0.003
0.046,0.006
0.046,0.002
0.047,0.004
0.047,0.004
0.049,0.004
0.045,0.002
0.048,0.001
0.045,0.004
0.045,0.000
0.044,0.001
0.046,0.000
0.046,0.002
0.044,-0.001
0.046,0.001
0.044,0.001
0.049,0.000
0.049,-0.002
0.051,-0.002
0.050,-0.005
0.049,-0.004
0.048,-0.007
0.049,-0.006
0.048,-0.006
0.047,-0.003
0.045,-0.002
0.045,-0.005
0.044,-0.003
0.043,-0.007
0.044,-0.005
0.043,-0.006
0.048,-0.002
0.045,-0.003
0.046,-0.004
0.044,-0.003
0.046,-0.003
0.044,-0.002
0.044,-0.003
0.043,0.001
0.045,-0.004
0.045,0.000
0.046,-0.000
0.042,-0.000
0.043,0.001
0.037,0.004
0.028,0.004
0.014,0.004
-0.016,0.000
-0.037,0.003
-0.050,0.000
-0.047,0.004
-0.028,0.001
0.004,0.004
0.028,0.004
0.053,0.006
0.067,0.007
0.080,0.008
0.088,0.009
0.095,0.012
0.099,0.013
0.103,0.013
0.097,0.014
0.098,0.012
0.088,0.013
0.082,0.013
0.075,0.015
0.067,0.012
0.064,0.015
0.056,0.016
0.053,0.018
0.048,0.019
0.048,0.020
0.044,0.020
0.045,0.022
0.044,0.023
0.043,0.025
0.045,0.028
0.044,0.029
0.044,0.028
0.047,0.030
0.046,0.029
0.045,0.032
0.045,0.031
0.043,0.032
0.045,0.031
0.044,0.033
0.045,0.034
0.043,0.036
0.045,0.034
0.043,0.038
0.044,0.036
0.043,0.036
0.042,0.036
0.045,0.037
0.045,0.036
0.046,0.034
0.047,0.039
0.046,0.036
0.047,0.036
0.046,0.037
0.042,0.040
0.044,0.040
0.040,0.044
0.043,0.044
0.040,0.044
0.042,0.045
0.040,0.043
0.044,0.046
0.044,0.045
0.043,0.042
0.045,0.041
0.044,0.038
0.047,0.041
0.049,0.038
0.045,0.041
0.043,0.039
0.045,0.041
0.041,0.045
0.044,0.044
0.039,0.045
0.045,0.044
0.041,0.046
0.044,0.044
0.043,0.043
0.045,0.044
0.043,0.043
0.043,0.041
0.045,0.041
0.047,0.039
0.044,0.039
0.048,0.037
0.046,0.038
0.045,0.036
0.047,0.036
0.044,0.036
0.046,0.035
0.050,0.035
0.059,0.033
0.046,0.033
0.032,0.035
0.028,0.033
0.020,0.033
0.017,0.031
0.019,0.031
0.024,0.028
0.028,0.028
0.033,0.026
0.039,0.026
0.055,0.025
0.063,0.027
0.073,0.022
0.075,0.028
0.072,0.023
0.068,0.024
0.065,0.021
0.061,0.021
0.059,0.017
0.055,0.019
0.053,0.015
0.052,0.014
0.052,0.010
0.050,0.010
0.052,0.012
0.050,0.012
0.050,0.010
0.048,0.010
0.047,0.009
0.047,0.008
0.049,0.005
0.047,0.006
0.047,0.004
0.047,0.006
0.047,0.001
0.046,0.002
0.045,0.000
0.047,0.001
0.048,-0.000
0.049,0.002
0.046,0.000
0.050,-0.001
0.049,0.000
0.049,-0.002
0.049,0.002
0.050,-0.001
0.049,0.003
0.047,-0.002
0.046,-0.002
0.045,-0.004
0.047,-0.005
0.047,-0.007
0.046,-0.005
0.044,-0.006
0.046,-0.006
0.046,-0.008
0.046,-0.007
0.045,-0.005
0.050,-0.006
0.048,-0.003
0.049,-0.002
0.048,-0.001
0.047,-0.004
0.046,0.002
0.044,-0.004
0.045,-0.002
0.044,-0.003
0.048,0.000
0.043,-0.002
0.046,0.002
0.045,0.002
0.048,0.003
0.045,0.002
0.047,0.001
0.045,0.002
0.046,0.001
0.042,0.004
0.043,0.001
0.046,0.004
0.044,0.006
0.044,0.009
0.044,0.007
0.045,0.008
0.042,0.007
0.043,0.008
0.043,0.007
0.046,0.011
0.043,0.007
0.046,0.011
0.041,0.010
0.043,0.013
0.045,0.011
0.043,0.011
0.042,0.011
0.034,0.012
0.019,0.016
-0.010,0.015
-0.035,0.014
-0.056,0.014
-0.059,0.017
-0.040,0.017
-0.011,0.017
0.016,0.023
0.041,0.022
0.058,0.023
0.068,0.022
0.076,0.026
0.084,0.028
0.094,0.032
0.098,0.029
0.103,0.032
0.099,0.030
0.094,0.032
0.082,0.031
0.077,0.036
0.068,0.032
0.067,0.035
0.056,0.035
0.057,0.036
0.052,0.033
0.051,0.036
0.049,0.039
0.049,0.036
0.047,0.041
0.046,0.039
0.047,0.041
0.047,0.040
0.049,0.037
0.046,0.037
0.050,0.040
0.047,0.037
0.047,0.042
0.045,0.038
0.047,0.043
0.047,0.041
0.049,0.042
0.049,0.044
0.048,0.041
0.047,0.044
0.045,0.042
0.046,0.046
0.045,0.043
0.046,0.045
0.045,0.044
0.046,0.045
0.044,0.044
0.046,0.045
0.047,0.043
0.049,0.045
0.045,0.043
0.049,0.043
0.044,0.044
0.045,0.041
0.044,0.044
0.043,0.041
0.045,0.045
0.044,0.040
0.044,0.041
0.041,0.039
0.043,0.041
0.044,0.039
0.047,0.039
0.044,0.038
0.046,0.039
0.045,0.036
0.047,0.036
0.046,0.033
0.047,0.036
0.044,0.034
0.048,0.037
0.045,0.036
0.047,0.033
0.043,0.032
0.046,0.030
0.044,0.030
0.042,0.027
0.048,0.028
0.045,0.028
0.049,0.029
0.046,0.025
0.047,0.027
0.046,0.022
0.050,0.023
0.051,0.019
0.055,0.022
0.051,0.017
0.052,0.015
0.051,0.014
0.051,0.012
0.048,0.013
0.048,0.011
0.047,0.012
0.049,0.014
0.048,0.009
0.047,0.010
0.049,0.010
0.047,0.010
0.046,0.006
0.046,0.006
0.046,0.004
0.048,0.003
0.047,0.006
0.047,0.003
0.046,0.006
0.042,0.002
0.044,0.004
0.044,0.004
0.047,0.003
0.046,0.004
0.048,0.006
0.048,0.005
0.046,0.002
0.046,0.000
0.047,0.000
0.047,-0.002
0.049,-0.002
0.048,-0.003
0.047,-0.004
0.047,-0.003
0.042,-0.004
0.027,-0.001
0.012,-0.005
-0.013,-0.002
-0.038,-0.004
-0.045,-0.002
-0.048,-0.005
-0.023,-0.005
0.002,-0.004
0.033,-0.003
0.052,-0.004
0.067,-0.006
0.079,-0.002
0.088,-0.001
0.096,0.002
0.100,-0.000
0.101,0.002
0.101,0.000
0.093,0.004
0.088,-0.001
0.080,0.005
0.073,0.003
0.067,0.003
0.061,0.006
0.059,0.006
0.055,0.008
0.055,0.008
0.052,0.007
0.051,0.007
0.051,0.009
0.049,0.008
0.049,0.013
0.049,0.011
0.049,0.015
0.048,0.012
0.043,0.014
0.045,0.012
0.046,0.012
0.046,0.015
0.047,0.014
0.045,0.012
0.046,0.014
0.044,0.014
0.043,0.018
0.044,0.014
0.046,0.019
0.045,0.018
0.045,0.019
0.044,0.019
0.041,0.021
0.040,0.025
0.039,0.026
0.042,0.024
0.041,0.030
0.043,0.027
0.041,0.031
0.043,0.028
0.042,0.032
0.038,0.030
0.039,0.032
0.040,0.029
0.042,0.031
0.044,0.034
0.041,0.037
0.041,0.035
0.038,0.035
0.038,0.035
0.038,0.034
0.038,0.036
0.039,0.034
0.039,0.034
0.039,0.032
0.039,0.035
0.041,0.036
0.041,0.039
0.041,0.038
0.039,0.041
0.039,0.038
0.037,0.042
0.039,0.041
0.036,0.045
0.037,0.043
0.039,0.046
0.040,0.042
0.042,0.043
0.039,0.044
0.041,0.043
0.039,0.040
0.043,0.040
0.042,0.038
0.044,0.039
0.044,0.041
0.044,0.042
0.044,0.043
0.041,0.044
0.041,0.047
0.041,0.047
0.040,0.048
0.039,0.046
0.038,0.047
0.038,0.045
0.040,0.044
0.037,0.040
0.041,0.043
0.042,0.039
0.043,0.038
0.043,0.039
0.043,0.038
0.043,0.041
0.041,0.040
0.044,0.040
0.041,0.037
0.043,0.039
0.040,0.034
0.039,0.035
0.040,0.036
0.042,0.036
0.041,0.033
0.047,0.035
0.045,0.028
0.048,0.029
0.046,0.027
0.049,0.025
0.047,0.027
0.045,0.026
0.043,0.028
0.043,0.025
0.045,0.026
0.045,0.023
0.046,0.024
0.045,0.021
0.046,0.023
0.047,0.017
0.046,0.018
0.047,0.015
0.046,0.014
0.049,0.010
0.047,0.012
0.046,0.010
0.047,0.010
0.047,0.008
0.047,0.009
0.050,0.009
0.047,0.010
0.045,0.008
0.045,0.010
0.046,0.009
0.044,0.007
0.048,0.002
0.045,0.003
0.047,0.002
0.042,0.004
0.044,0.000
0.046,0.003
0.045,0.000
0.051,0.002
0.046,0.003
0.045,0.001
0.045,-0.002
0.043,-0.002
0.045,-0.002
0.046,-0.003
0.042,-0.002
0.046,-0.003
0.042,-0.002
0.048,-0.004
0.045,-0.003
0.043,-0.006
0.045,-0.005
0.041,-0.006
0.046,-0.004
0.044,-0.005
0.045,-0.008
0.044,-0.007
0.046,-0.006
0.045,-0.004
0.046,-0.006
0.041,-0.005
0.045,-0.006
0.041,-0.004
0.044,-0.003
0.043,-0.002
0.045,-0.005
0.047,-0.002
0.041,-0.004
0.046,-0.001
0.041,-0.002
0.045,-0.003
0.042,-0.001
0.044,-0.001
0.041,0.002
0.045,0.000
0.041,0.001
0.041,0.001
0.039,0.006
0.042,0.004
0.040,0.010
0.039,0.007
0.043,0.010
0.040,0.007
0.044,0.010
0.040,0.007
0.046,0.010
0.041,0.010
0.042,0.009
0.041,0.010
0.042,0.012
0.041,0.010
0.044,0.012
0.044,0.014
0.043,0.013
0.041,0.013
0.042,0.014
0.038,0.015
0.042,0.013
0.038,0.015
0.039,0.016
0.041,0.021
0.039,0.020
0.039,0.022
0.038,0.026
0.039,0.025
0.041,0.025
0.041,0.029
0.041,0.028
0.039,0.028
0.039,0.029
0.039,0.025
0.041,0.029
0.039,0.028
0.039,0.033
0.038,0.032
0.042,0.032
0.040,0.031
0.043,0.031
0.042,0.033
0.046,0.033
0.043,0.033
0.042,0.031
0.040,0.034
0.043,0.033
0.039,0.035
0.043,0.032
0.039,0.035
0.039,0.036
0.040,0.037
0.037,0.035
0.042,0.038
0.038,0.037
0.043,0.037
0.041,0.037
0.044,0.036
0.043,0.037
0.044,0.036
0.043,0.041
0.045,0.037
0.044,0.039
0.043,0.040
0.041,0.040
0.043,0.039
0.040,0.041
0.041,0.039
0.041,0.042
0.041,0.038
0.046,0.041
0.042,0.040
0.044,0.038
0.045,0.037
0.047,0.034
0.044,0.035
0.043,0.036
0.042,0.037
0.043,0.035
0.042,0.034
0.045,0.035
0.043,0.034
0.045,0.034
0.046,0.034
0.045,0.032
0.047,0.034
0.043,0.032
0.045,0.030
0.045,0.030
0.045,0.028
0.045,0.030
0.046,0.028
0.048,0.031
0.050,0.027
0.044,0.026
0.048,0.023
0.044,0.026
0.045,0.023
0.044,0.026
0.045,0.023
0.047,0.020
0.044,0.018
0.047,0.021
0.044,0.018
0.048,0.018
0.045,0.016
0.048,0.016
0.046,0.010
0.046,0.012
0.045,0.010
0.046,0.010
0.046,0.008
0.048,0.009
0.043,0.007
0.044,0.007
0.045,0.008
0.042,0.007
0.047,0.005
0.044,0.004
0.044,0.003
0.045,0.002
0.046,0.003
0.047,0.000
0.044,-0.002
0.047,-0.004
0.045,-0.002
0.046,-0.003
0.048,-0.004
0.045,-0.005
0.045,-0.003
0.046,-0.004
0.047,-0.003
0.046,-0.006
0.047,-0.004
0.051,-0.005
0.046,-0.006
0.050,-0.007
0.047,-0.009
0.047,-0.011
0.049,-0.010
0.048,-0.011
0.048,-0.008
0.047,-0.011
0.045,-0.010
0.045,-0.010
0.044,-0.011
0.047,-0.009
0.045,-0.010
0.043,-0.006
0.047,-0.007
0.043,-0.006
0.046,-0.006
0.042,-0.004
0.045,-0.005
0.046,-0.005
0.045,-0.007
0.045,-0.007
0.044,-0.009
0.044,-0.006
0.044,-0.003
0.043,-0.001
0.045,-0.002
0.048,-0.002
0.046,0.000
0.049,-0.000
0.045,0.003
0.046,0.001
0.042,0.006
0.044,0.004
0.043,0.003
0.045,0.004
0.049,0.004
0.047,0.005
0.047,0.005
0.045,0.007
0.047,0.007
0.045,0.005
0.046,0.006
0.044,0.006
0.044,0.008
0.041,0.007
0.045,0.009
0.042,0.015
0.042,0.012
0.043,0.016
0.046,0.013
0.043,0.013
0.044,0.013
0.044,0.016
0.045,0.021
0.042,0.020
0.048,0.023
0.043,0.023
0.045,0.023
0.042,0.023
0.042,0.024
0.044,0.023
0.045,0.025
0.044,0.027
0.044,0.027
0.042,0.027
0.043,0.029
0.045,0.030
0.045,0.033
0.046,0.033
0.044,0.033
0.045,0.033
0.043,0.035
0.043,0.034
0.041,0.034
0.041,0.034
0.044,0.032
0.042,0.037
0.045,0.037
0.042,0.038
0.042,0.036
0.042,0.038
0.043,0.040
0.042,0.041
0.041,0.042
0.045,0.042
0.046,0.040
0.043,0.041
0.045,0.040
0.045,0.041
0.043,0.041
0.047,0.039
0.041,0.041
0.043,0.041
0.041,0.042
0.043,0.040
0.042,0.044
0.042,0.043
0.042,0.042
0.041,0.040
0.045,0.043
0.044,0.043
0.045,0.042
0.047,0.042
0.043,0.040
0.046,0.038
0.045,0.039
0.046,0.040
0.046,0.038
0.042,0.041
0.045,0.039
0.044,0.043
0.043,0.038
0.043,0.039
0.044,0.034
0.046,0.036
0.045,0.032
0.047,0.032
0.047,0.033
0.049,0.033
0.057,0.034
0.063,0.031
0.046,0.035
0.030,0.030
0.023,0.033
0.017,0.031
0.012,0.029
0.017,0.026
0.019,0.030
0.023,0.026
0.018,0.026
0.016,0.024
0.004,0.023
-0.013,0.022
-0.023,0.019
-0.019,0.017
-0.004,0.021
0.020,0.019
0.045,0.018
0.064,0.015
0.078,0.013
0.089,0.013
0.097,0.015
0.102,0.011
0.105,0.013
0.108,0.011
0.110,0.010
0.103,0.009
0.095,0.010
0.085,0.008
0.077,0.008
0.068,0.009
0.055,0.005
0.032,0.004
0.001,0.004
-0.025,0.001
-0.046,-0.001
-0.044,0.001
-0.024,0.000
0.003,-0.000
0.029,0.000
0.049,-0.000
0.059,-0.001
0.068,0.003
0.075,-0.000
0.082,0.001
0.090,0.000
0.101,-0.002
0.101,-0.003
0.104,-0.005
0.097,-0.007
0.089,-0.006
0.081,-0.007
0.071,-0.003
0.069,-0.003
0.063,-0.004
0.061,-0.001
0.059,-0.005
0.055,-0.002
0.054,-0.003
0.055,-0.003
0.049,-0.006
0.052,-0.004
0.050,-0.004
0.052,-0.006
0.050,-0.004
0.051,-0.004
0.049,-0.004
0.045,-0.004
0.046,-0.000
0.046,-0.001
0.046,0.003
0.045,0.001
0.042,0.001
0.045,0.001
0.043,0.003
0.044,0.005
0.046,0.003
0.042,0.002
0.045,0.001
0.042,0.002
0.043,0.002
0.042,0.005
0.040,0.006
0.041,0.010
0.040,0.007
0.041,0.010
0.041,0.010
0.042,0.011
0.043,0.010
0.040,0.012
0.041,0.010
0.043,0.014
0.043,0.014
0.045,0.014
0.041,0.015
0.039,0.015
0.039,0.015
0.038,0.016
0.039,0.019
0.037,0.022
0.038,0.023
0.036,0.025
0.039,0.026
0.037,0.026
0.041,0.027
0.041,0.029
0.042,0.028
0.039,0.027
0.042,0.027
0.042,0.031
0.042,0.028
0.040,0.032
0.041,0.028
0.040,0.030
0.041,0.029
0.043,0.033
0.043,0.032
0.041,0.035
0.041,0.035
0.041,0.036
0.040,0.032
0.041,0.036
0.041,0.035
0.046,0.037
0.040,0.036
0.045,0.036
0.039,0.038
0.040,0.035
0.041,0.040
0.038,0.036
0.036,0.042
0.036,0.040
0.038,0.042
0.039,0.041
0.038,0.042
0.040,0.044
0.040,0.047
0.040,0.041
0.040,0.044
0.040,0.039
0.042,0.040
0.039,0.040
0.040,0.042
0.040,0.043
0.042,0.043
0.042,0.046
0.040,0.044
0.039,0.045
0.042,0.044
0.039,0.047
0.042,0.044
0.040,0.046
0.038,0.042
0.039,0.044
0.041,0.042
0.043,0.041
0.042,0.041
0.045,0.039
0.041,0.038
0.045,0.036
0.045,0.037
0.041,0.036
0.045,0.036
0.043,0.035
0.044,0.037
0.045,0.036
0.041,0.036
0.042,0.035
0.044,0.034
0.045,0.030
0.043,0.032
0.044,0.028
0.048,0.030
0.046,0.027
0.047,0.026
0.046,0.026
0.046,0.026
0.045,0.025
0.045,0.023
0.046,0.023
0.049,0.023
0.050,0.019
0.049,0.017
0.050,0.016
0.051,0.014
0.051,0.010
0.050,0.011
0.048,0.008
0.048,0.010
0.047,0.009
0.048,0.009
0.048,0.008
0.050,0.009
0.047,0.008
0.050,0.007
0.046,0.006
0.048,0.005
0.048,0.005
0.049,0.003
0.047,0.001
0.050,0.001
0.045,0.004
0.049,0.004
0.046,0.006
0.046,0.004
0.046,0.005
0.047,0.003
0.048,0.005
0.047,0.001
0.050,0.004
0.049,0.002
0.050,0.002
0.047,-0.002
0.050,-0.003
0.049,-0.003
0.049,-0.003
0.045,-0.003
0.048,-0.003
0.043,-0.001
0.047,-0.003
0.046,0.003
0.047,-0.002
0.050,0.001
0.045,-0.002
0.052,0.000
0.048,-0.002
0.050,-0.002
0.049,-0.005
0.049,-0.003
0.049,-0.002
0.048,-0.005
0.042,0.001
0.043,-0.002
0.045,0.002
0.045,0.001
0.043,0.002
0.043,0.002
0.044,0.003
0.045,0.001
0.046,0.003
0.046,0.001
0.045,0.002
0.043,0.004
0.044,0.004
0.043,0.005
0.047,0.006
0.043,0.009
0.042,0.006
0.043,0.011
0.042,0.009
0.043,0.010
0.040,0.011
0.040,0.010
0.043,0.011
0.043,0.013
0.043,0.012
0.045,0.014
0.043,0.012
0.045,0.012
0.041,0.012
0.043,0.013
0.044,0.011
0.041,0.014
0.042,0.013
0.041,0.014
0.041,0.015
0.040,0.019
0.040,0.019
0.044,0.024
0.041,0.023
0.040,0.027
0.040,0.026
0.040,0.028
0.041,0.028
0.039,0.030
0.041,0.028
0.040,0.031
0.041,0.028
0.041,0.032
0.040,0.032
0.041,0.034
0.039,0.035
0.043,0.038
0.041,0.034
0.041,0.035
0.043,0.036
0.043,0.037
0.040,0.036
0.043,0.038
0.040,0.039
0.042,0.038
0.039,0.040
0.042,0.038
0.041,0.038
0.042,0.036
0.042,0.039
0.040,0.038
0.045,0.042
0.041,0.040
0.046,0.045
0.044,0.042
0.044,0.042
0.042,0.040
0.041,0.041
0.043,0.042
0.045,0.041
0.041,0.043
0.042,0.041
0.039,0.043
0.041,0.040
0.038,0.045
0.040,0.041
0.039,0.047
0.039,0.045
0.043,0.045
0.042,0.042
0.046,0.043
0.045,0.041
0.045,0.043
0.045,0.040
0.046,0.041
0.045,0.042
0.047,0.042
0.042,0.040
0.043,0.038
0.041,0.039
0.041,0.036
0.044,0.040
0.041,0.035
0.044,0.035
0.041,0.033
0.044,0.034
0.043,0.031
0.044,0.032
0.046,0.031
0.047,0.029
0.045,0.030
0.047,0.028
0.042,0.030
0.045,0.029
0.043,0.031
0.044,0.025
0.044,0.026
0.043,0.024
0.044,0.024
0.045,0.022
0.045,0.022
0.049,0.019
0.048,0.020
0.050,0.017
0.047,0.020
0.050,0.014
0.048,0.016
0.046,0.012
0.045,0.014
0.045,0.012
0.045,0.011
0.044,0.011
0.042,0.011
0.044,0.010
0.044,0.010
0.044,0.007
0.036,0.005
0.023,0.003
0.005,0.003
-0.027,-0.000
-0.042,0.000
-0.048,-0.003
-0.037,0.000
-0.013,-0.003
0.019,0.000
0.042,-0.001
0.067,-0.001
0.080,0.002
0.089,0.002
0.095,0.003
0.102,0.003
0.103,0.002
0.104,0.001
0.101,0.000
0.097,-0.005
0.089,-0.002
0.082,-0.007
0.075,-0.004
0.066,-0.006
0.063,-0.005
0.057,-0.002
0.056,-0.002
0.050,-0.000
0.051,-0.003
0.049,-0.001
0.049,-0.000
0.049,-0.003
0.050,-0.002
0.051,-0.003
0.051,-0.004
0.050,-0.002
0.052,-0.002
0.050,-0.002
0.049,-0.003
0.052,-0.001
0.050,-0.001
0.048,-0.001
0.043,0.001
0.046,0.001
0.043,0.004
0.045,0.002
0.046,0.006
0.048,0.006
0.043,0.007
0.047,0.007
0.045,0.007
0.048,0.006
0.047,0.003
0.046,0.003
0.047,0.008
0.045,0.007
0.048,0.007
0.045,0.011
0.044,0.007
0.046,0.011
0.048,0.010
0.046,0.012
0.047,0.014
0.044,0.015
0.046,0.013
0.043,0.018
0.046,0.016
0.048,0.019
0.060,0.016
0.048,0.019
0.032,0.017
0.024,0.021
0.017,0.020
0.012,0.026
0.011,0.024
0.018,0.028
0.021,0.025
0.028,0.029
0.037,0.027
0.050,0.029
0.060,0.027
0.071,0.026
0.071,0.029
0.069,0.030
0.065,0.031
0.059,0.032
0.055,0.035
0.051,0.037
0.049,0.038
0.043,0.038
0.045,0.038
0.047,0.037
0.047,0.035
0.048,0.037
0.046,0.033
0.046,0.036
0.047,0.033
0.045,0.036
0.044,0.036
0.046,0.037
0.042,0.040
0.044,0.039
0.040,0.043
0.043,0.043
0.040,0.045
0.041,0.044
0.041,0.043
0.042,0.044
0.043,0.043
0.042,0.044
0.042,0.043
0.044,0.041
0.045,0.041
0.043,0.040
0.042,0.039
0.044,0.041
0.042,0.044
0.045,0.041
0.043,0.042
0.040,0.046
0.044,0.047
0.040,0.049
0.041,0.047
0.044,0.046
0.044,0.042
0.045,0.041
0.046,0.040
0.047,0.040
0.045,0.038
0.049,0.037
0.047,0.033
0.045,0.036
0.046,0.036
0.048,0.037
0.044,0.037
0.046,0.035
0.043,0.036
0.045,0.037
0.043,0.035
0.044,0.035
0.043,0.035
0.044,0.031
0.045,0.033
0.046,0.031
0.049,0.032
0.048,0.029
0.048,0.028
0.046,0.029
0.046,0.026
0.047,0.028
0.045,0.025
0.048,0.028
0.047,0.024
0.046,0.021
0.048,0.023
0.048,0.019
0.050,0.017
0.048,0.017
0.050,0.011
0.047,0.012
0.048,0.010
0.046,0.013
0.047,0.011
0.047,0.011
0.046,0.011
0.048,0.010
0.047,0.010
0.045,0.009
0.048,0.009
0.047,0.009
0.047,0.003
0.047,0.009
0.047,0.002
0.045,0.006
0.045,0.006
0.046,0.006
0.046,0.004
0.047,0.002
0.045,-0.000
0.047,0.002
0.049,0.001
0.049,0.001
0.048,0.001
0.049,0.000
0.049,0.002
0.051,-0.003
0.046,-0.002
0.048,-0.003
0.049,-0.005
0.048,-0.004
0.046,-0.004
0.043,-0.003
0.047,-0.004
0.045,-0.006
0.044,-0.004
0.047,-0.002
0.048,-0.003
0.049,-0.002
0.049,-0.003
0.046,-0.003
0.046,-0.005
0.043,-0.001
0.043,-0.004
0.042,-0.003
0.043,-0.004
0.046,-0.003
0.043,-0.003
0.045,-0.001
0.043,-0.000
0.046,0.002
0.046,0.001
0.044,0.000
0.047,0.003
0.046,0.004
0.047,0.006
0.043,0.006
0.044,0.010
0.043,0.007
0.044,0.008
0.043,0.008
0.046,0.008
0.043,0.007
0.047,0.007
0.045,0.006
0.047,0.009
0.048,0.007
0.046,0.011
0.047,0.010
0.047,0.011
0.044,0.016
0.043,0.013
0.045,0.018
0.044,0.015
0.047,0.019
0.046,0.017
0.046,0.016
0.045,0.020
0.045,0.020
0.045,0.020
0.045,0.022
0.048,0.021
0.045,0.022
0.043,0.026
0.042,0.026
0.046,0.028
0.046,0.029
0.049,0.033
0.046,0.027
0.045,0.031
0.041,0.029
0.045,0.030
0.042,0.029
0.045,0.031
0.043,0.031
0.042,0.032
0.043,0.036
0.045,0.036
0.045,0.039
0.046,0.037
0.044,0.041
0.043,0.039
0.044,0.041
0.045,0.039
0.045,0.039
0.044,0.039
0.046,0.040
0.044,0.041
0.045,0.045
0.045,0.042
0.045,0.041
0.044,0.042
0.048,0.044
0.047,0.048
0.047,0.044
0.047,0.047
0.046,0.042
0.045,0.043
0.045,0.043
0.045,0.043
0.047,0.044
0.043,0.047
0.044,0.044
0.045,0.045
0.045,0.045
0.047,0.044
0.045,0.045
0.046,0.043
0.046,0.047
0.048,0.045
0.048,0.049
0.048,0.041
0.046,0.043
0.049,0.041
0.048,0.042
0.047,0.041
0.047,0.042
0.046,0.041
0.047,0.039
0.046,0.039
0.047,0.042
0.050,0.037
0.049,0.036
0.052,0.036
0.052,0.036
0.051,0.037
0.049,0.034
0.045,0.033
0.046,0.032
0.046,0.031
0.046,0.028
0.048,0.029
0.048,0.028
0.051,0.030
0.047,0.028
0.051,0.028
0.049,0.026
0.049,0.025
0.051,0.023
0.050,0.025
0.052,0.022
0.049,0.023
0.052,0.022
0.052,0.022
0.053,0.018
0.054,0.017
0.051,0.015
0.051,0.013
0.053,0.011
0.051,0.013
0.052,0.010
0.050,0.012
0.051,0.011
0.051,0.011
0.049,0.009
0.051,0.006
0.050,0.007
0.053,0.003
0.050,0.006
0.053,0.007
0.049,0.009
0.049,0.005
0.048,0.004
0.049,0.003
0.048,0.004
0.047,0.002
0.050,0.003
0.047,0.000
0.052,0.002
0.050,-0.001
0.054,0.000
0.051,-0.002
0.056,-0.001
0.048,0.001
0.034,0.002
0.017,-0.001
-0.013,-0.003
-0.039,-0.003
-0.044,-0.003
-0.044,-0.002
-0.022,-0.004
0.008,-0.003
0.035,-0.005
0.061,-0.003
0.075,-0.004
0.089,-0.002
0.095,-0.002
0.101,-0.002
0.106,-0.003
0.109,-0.001
0.106,0.002
0.100,-0.000
0.087,0.000
0.084,-0.003
0.074,-0.001
0.067,-0.003
0.062,0.002
0.039,0.000
0.015,0.000
-0.015,0.002
-0.037,0.004
-0.049,0.003
-0.037,0.003
-0.011,0.004
0.013,0.004
0.039,0.009
0.054,0.008
0.065,0.012
0.074,0.011
0.082,0.015
0.089,0.011
0.095,0.014
0.097,0.011
0.102,0.015
0.095,0.013
0.092,0.015
0.084,0.013
0.075,0.016
0.068,0.014
0.067,0.018
0.059,0.015
0.058,0.018
0.053,0.018
0.052,0.020
0.050,0.020
0.050,0.019
0.050,0.021
0.049,0.023
0.047,0.024
0.047,0.027
0.047,0.028
0.047,0.033
0.046,0.031
0.049,0.032
0.044,0.034
0.046,0.035
0.045,0.034
0.044,0.032
0.048,0.034
0.048,0.035
0.048,0.034
0.047,0.036
0.045,0.035
0.045,0.035
0.044,0.035
0.045,0.038
0.044,0.038
0.044,0.041
0.043,0.044
0.044,0.040
0.042,0.042
0.042,0.038
0.042,0.041
0.044,0.040
0.042,0.039
0.041,0.043
0.043,0.046
0.041,0.044
0.044,0.047
0.043,0.042
0.045,0.047
0.046,0.044
0.045,0.043
0.046,0.045
0.047,0.044
0.044,0.043
0.042,0.040
0.041,0.042
0.039,0.041
0.036,0.044
0.041,0.043
0.041,0.043
0.041,0.041
0.043,0.046
0.041,0.045
0.046,0.046
0.045,0.042
0.044,0.042
0.044,0.043
0.044,0.043
0.042,0.043
0.041,0.041
0.041,0.042
0.043,0.043
0.039,0.044
0.042,0.040
0.045,0.042
0.054,0.037
0.060,0.038
0.038,0.036
0.030,0.039
0.024,0.035
0.020,0.037
0.014,0.035
0.016,0.034
0.019,0.032
0.024,0.031
0.032,0.032
0.042,0.032
0.050,0.028
0.063,0.028
0.065,0.028
0.068,0.025
0.064,0.024
0.062,0.022
0.057,0.024
0.051,0.021
0.051,0.023
0.048,0.023
0.051,0.022
0.048,0.022
0.048,0.018
0.045,0.014
0.047,0.014
0.046,0.013
0.050,0.012
0.046,0.009
0.052,0.010
0.046,0.010
0.046,0.010
0.045,0.010
0.043,0.008
0.045,0.005
0.048,0.007
0.049,0.004
0.045,0.004
0.045,0.001
0.047,-0.001
0.045,-0.001
0.047,-0.004
0.044,-0.001
0.043,-0.002
0.043,0.000
0.044,0.000
0.044,-0.001
0.043,-0.001
0.042,-0.001
0.047,0.000
0.047,-0.001
0.045,-0.005
0.045,-0.005
0.047,-0.005
0.049,-0.005
0.047,-0.007
0.048,-0.006
0.044,-0.004
0.045,-0.005
0.045,-0.003
0.044,-0.007
0.045,-0.003
0.044,-0.004
0.043,-0.004
0.045,-0.005
0.047,-0.004
0.045,-0.008
0.045,-0.006
0.044,-0.008
0.041,-0.005
0.043,-0.002
0.042,-0.002
0.042,0.000
0.043,-0.001
0.041,0.001
0.041,-0.000
0.041,0.002
0.043,0.001
0.042,0.001
0.044,0.002
0.042,0.004
0.042,0.003
0.043,0.004
0.044,0.003
0.045,0.005
0.045,0.003
0.046,0.005
0.043,0.007
0.042,0.007
0.046,0.009
0.043,0.007
0.042,0.009
0.041,0.009
0.042,0.011
0.044,0.012
0.040,0.012
0.041,0.013
0.038,0.014
0.041,0.013
0.038,0.014
0.042,0.016
0.039,0.018
0.042,0.016
0.040,0.018
0.041,0.015
0.038,0.018
0.041,0.023
0.036,0.023
0.038,0.025
0.039,0.030
0.042,0.024
0.043,0.029
0.042,0.026
0.042,0.030
0.039,0.029
0.042,0.030
0.040,0.030
0.037,0.030
0.038,0.029
0.035,0.032
0.038,0.030
0.039,0.035
0.040,0.034
0.039,0.036
0.038,0.036
0.040,0.036
0.039,0.037
0.041,0.035
0.041,0.035
0.040,0.037
0.043,0.034
0.042,0.038
0.043,0.037
0.040,0.037
0.040,0.041
0.038,0.042
0.040,0.042
0.042,0.042
0.040,0.045
0.039,0.042
0.040,0.044
0.039,0.042
0.042,0.043
0.041,0.040
0.043,0.041
0.042,0.039
0.042,0.039
0.041,0.042
0.043,0.040
0.043,0.044
0.043,0.041
0.043,0.041
0.043,0.041
0.044,0.045
0.044,0.042
0.040,0.043
0.035,0.039
0.022,0.042
-0.002,0.040
-0.028,0.040
-0.047,0.037
-0.054,0.039
-0.040,0.036
-0.014,0.038
0.017,0.036
0.043,0.034
0.062,0.034
0.078,0.031
0.088,0.035
0.093,0.034
0.101,0.035
0.103,0.036
0.104,0.036
0.099,0.032
0.095,0.032
0.086,0.028
0.080,0.030
0.071,0.029
0.063,0.028
0.059,0.027
0.055,0.029
0.055,0.028
0.052,0.024
0.053,0.024
0.052,0.021
0.053,0.024
0.052,0.020
0.052,0.022
0.053,0.017
0.051,0.014
0.049,0.012
0.050,0.013
0.051,0.011
0.049,0.012
0.052,0.009
0.049,0.010
0.051,0.007
0.049,0.007
0.047,0.007
0.048,0.007
0.049,0.008
0.046,0.007
0.049,0.004
0.047,0.006
0.050,0.003
0.044,0.004
0.047,0.002
0.048,0.002
0.048,0.002
0.049,-0.000
0.046,-0.003
0.050,-0.001
0.048,-0.003
0.049,-0.001
0.048,-0.002
0.049,0.000
0.046,-0.002
0.049,-0.005
0.048,-0.003
0.051,-0.005
0.050,-0.004
0.049,-0.007
0.046,-0.002
0.044,-0.006
0.047,-0.005
0.045,-0.007
0.048,-0.003
0.046,-0.005
0.045,-0.006
0.047,-0.004
0.048,-0.004
0.044,-0.003
0.045,-0.004
0.044,-0.001
0.047,-0.003
0.043,-0.004
0.045,-0.004
0.042,-0.002
0.043,-0.006
0.045,-0.003
0.044,-0.005
0.045,-0.003
0.044,-0.003
0.045,-0.003
0.044,0.001
0.043,0.001
0.043,0.004
0.044,0.003
0.042,0.005
0.042,0.005
0.040,0.007
0.040,0.005
0.037,0.007
0.041,0.007
0.041,0.008
0.040,0.007
0.044,0.008
0.043,0.008
0.044,0.008
0.043,0.011
0.046,0.010
0.043,0.012
0.044,0.015
0.041,0.015
0.043,0.016
0.041,0.015
0.043,0.015
0.043,0.017
0.043,0.016
0.038,0.018
0.042,0.016
0.041,0.022
0.040,0.020
0.040,0.023
0.041,0.023
0.043,0.025
0.042,0.026
0.042,0.027
0.041,0.027
0.042,0.028
0.043,0.029
0.042,0.030
0.041,0.028
0.043,0.029
0.043,0.032
0.044,0.029
0.044,0.034
0.043,0.035
0.041,0.037
0.039,0.037
0.043,0.036
0.039,0.039
0.044,0.038
0.039,0.039
0.040,0.040
0.038,0.040
0.041,0.042
0.038,0.041
0.038,0.039
0.041,0.041
0.042,0.039
0.041,0.043
0.039,0.043
0.041,0.043
0.040,0.043
0.042,0.043
0.042,0.045
0.044,0.043
0.040,0.046
0.043,0.043
0.043,0.044
0.043,0.043
0.043,0.044
0.039,0.044
0.039,0.040
0.041,0.043
0.041,0.044
0.043,0.042
0.045,0.044
0.045,0.044
0.047,0.046
0.042,0.047
0.044,0.045
0.041,0.048
0.042,0.044
0.039,0.046
0.041,0.044
0.046,0.042
0.046,0.043
0.047,0.041
0.046,0.040
0.046,0.039
0.046,0.035
0.045,0.037
0.046,0.035
0.046,0.038
0.047,0.035
0.050,0.034
0.045,0.037
0.047,0.035
0.046,0.036
0.045,0.034
0.047,0.033
0.048,0.032
0.049,0.030
0.048,0.031
0.049,0.030
0.049,0.028
0.045,0.026
0.049,0.024
0.047,0.026
0.046,0.025
0.046,0.024
0.046,0.025
0.048,0.025
0.046,0.021
0.049,0.020
0.047,0.015
0.049,0.013
0.047,0.013
0.052,0.014
0.046,0.013
0.047,0.014
0.046,0.010
0.050,0.012
0.047,0.009
0.051,0.009
0.051,0.009
0.049,0.007
0.049,0.004
0.049,0.006
0.050,0.006
0.047,0.004
0.048,0.005
0.049,0.004
0.047,0.007
0.045,0.007
0.044,0.009
0.046,0.007
0.049,0.007
0.047,0.002
0.052,0.003
0.049,0.002
0.050,-0.001
0.049,0.001
0.051,-0.002
0.049,-0.001
0.049,-0.000
0.048,0.001
0.047,-0.002
0.048,0.002
0.046,-0.002
0.049,-0.000
0.048,-0.004
0.051,-0.002
0.049,-0.003
0.052,0.001
0.050,-0.004
0.049,-0.004
0.046,-0.003
0.047,-0.003
0.049,0.002
0.056,-0.000
0.060,0.002
0.044,0.000
0.034,0.003
0.026,0.002
0.019,0.003
0.015,0.003
0.021,0.006
0.019,0.004
0.024,0.007
0.029,0.006
0.045,0.007
0.054,0.005
0.069,0.004
0.073,0.006
0.075,0.006
0.068,0.011
0.066,0.007
0.061,0.010
0.055,0.010
0.052,0.012
0.050,0.012
0.049,0.014
0.046,0.010
0.048,0.014
0.046,0.011
0.049,0.013
0.048,0.012
0.049,0.012
0.045,0.017
0.046,0.016
0.046,0.021
0.047,0.016
0.047,0.020
0.047,0.018
0.045,0.019
0.045,0.022
0.044,0.020
0.045,0.023
0.043,0.023
0.044,0.025
0.044,0.026
0.044,0.027
0.045,0.029
0.046,0.030
0.045,0.032
0.045,0.029
0.045,0.031
0.042,0.030
0.044,0.028
0.045,0.033
0.043,0.033
0.044,0.034
0.041,0.038
0.043,0.039
0.040,0.042
0.042,0.039
0.041,0.042
0.044,0.040
0.041,0.039
0.045,0.041
0.044,0.039
0.043,0.037
0.043,0.042
0.043,0.037
0.043,0.042
0.044,0.040
0.045,0.041
0.046,0.040
0.045,0.043
0.044,0.043
0.044,0.040
0.044,0.045
0.039,0.041
0.022,0.043
0.007,0.042
-0.024,0.043
-0.046,0.041
-0.058,0.042
-0.045,0.042
-0.019,0.045
0.012,0.044
0.043,0.045
0.063,0.042
0.078,0.045
0.087,0.043
0.095,0.042
0.100,0.045
0.106,0.044
0.102,0.045
0.102,0.043
0.095,0.044
0.088,0.043
0.083,0.042
0.074,0.038
0.073,0.037
0.066,0.036
0.061,0.035
0.058,0.035
0.056,0.035
0.052,0.037
0.052,0.034
0.051,0.038
0.053,0.034
0.049,0.036
0.052,0.032
0.048,0.030
0.049,0.028
0.051,0.026
0.050,0.026
0.051,0.026
0.051,0.028
0.049,0.027
0.051,0.028
0.050,0.027
0.049,0.026
0.051,0.024
0.049,0.022
0.052,0.021
0.050,0.021
0.051,0.017
0.049,0.019
0.050,0.018
0.051,0.012
0.051,0.011
0.049,0.007
0.052,0.010
0.047,0.009
0.050,0.006
0.047,0.010
0.052,0.007
0.052,0.010
0.054,0.007
0.051,0.009
0.053,0.004
0.054,0.006
0.048,0.002
0.045,0.005
0.046,0.003
0.046,0.004
0.047,0.002
0.048,0.004
0.049,0.002
0.052,0.004
0.051,0.001
0.050,0.004
0.052,0.001
0.053,0.002
0.051,-0.000
0.053,-0.001
0.047,-0.001
0.048,-0.004
0.044,0.000
0.045,-0.001
0.041,0.002
0.041,-0.002
0.042,0.001
0.044,-0.003
0.047,-0.002
0.045,-0.004
0.050,-0.005
0.049,0.001
0.049,-0.005
0.046,-0.001
0.045,-0.003
0.044,-0.001
0.046,0.000
0.044,0.002
0.048,-0.000
0.044,0.002
0.043,0.000
0.042,0.001
0.042,0.001
0.043,0.001
0.043,0.002
0.046,0.002
0.044,0.002
0.047,0.003
0.043,0.007
0.045,0.005
0.043,0.008
0.040,0.007
0.042,0.012
0.044,0.010
0.041,0.011
0.040,0.011
0.039,0.010
0.043,0.011
0.044,0.012
0.044,0.010
0.044,0.011
0.040,0.011
0.042,0.012
0.043,0.013
0.044,0.015
0.042,0.014
0.045,0.012
0.042,0.014
0.044,0.014
0.044,0.014
0.045,0.018
0.041,0.017
0.043,0.017
0.036,0.021
0.040,0.023
0.038,0.023
0.041,0.024
0.041,0.026
0.040,0.025
0.040,0.027
0.037,0.028
0.021,0.025
-0.000,0.028
-0.029,0.028
-0.054,0.029
-0.064,0.032
-0.049,0.032
-0.025,0.033
0.004,0.032
0.027,0.034
0.043,0.034
0.059,0.031
0.069,0.034
0.076,0.036
0.085,0.037
0.092,0.038
0.098,0.040
0.097,0.038
0.096,0.037
0.086,0.041
0.079,0.038
0.067,0.041
0.064,0.040
0.056,0.042
0.054,0.043
0.052,0.044
0.051,0.044
0.050,0.043
0.049,0.043
0.047,0.044
0.049,0.046
0.049,0.045
0.046,0.046
0.047,0.043
0.043,0.043
0.045,0.042
0.041,0.045
0.043,0.045
0.043,0.045
0.042,0.046
0.043,0.045
0.045,0.045
0.045,0.045
0.045,0.041
0.043,0.045
0.043,0.043
0.045,0.043
0.043,0.043
0.044,0.044
0.040,0.043
0.042,0.044
0.040,0.042
0.042,0.037
0.045,0.039
0.046,0.036
0.046,0.035
0.047,0.036
0.046,0.036
0.045,0.036
0.046,0.035
0.045,0.037
0.044,0.034
0.046,0.036
0.045,0.032
0.044,0.033
0.043,0.031
0.042,0.030
0.040,0.027
0.041,0.028
0.043,0.026
0.044,0.028
0.041,0.025
0.042,0.025
0.043,0.023
0.047,0.024
0.048,0.022
0.050,0.020
0.050,0.017
0.049,0.016
0.049,0.013
0.047,0.013
0.046,0.011
0.046,0.012
0.045,0.009
0.046,0.009
0.045,0.005
0.051,0.009
0.047,0.008
0.048,0.008
0.045,0.007
0.046,0.009
0.047,0.005
0.049,0.008
0.044,0.003
0.047,0.005
0.045,0.002
0.047,0.000
0.048,0.001
0.047,0.002
0.042,0.005
0.044,-0.000
0.041,0.005
0.041,0.004
0.045,0.004
0.046,0.003
0.050,0.000
0.046,-0.004
0.049,-0.003
0.048,-0.002
0.050,-0.003
0.046,-0.003
0.046,-0.004
0.043,-0.000
0.044,-0.001
0.043,0.001
0.046,0.000
0.044,-0.000
0.047,-0.002
0.048,0.000
0.044,-0.003
0.047,-0.002
0.043,-0.001
0.047,-0.001
0.044,-0.004
0.046,-0.003
0.046,-0.002
0.048,-0.003
0.046,0.000
0.048,-0.002
0.043,0.002
0.046,0.001
0.042,0.004
0.043,0.000
0.041,0.004
0.043,0.004
0.042,0.006
0.042,0.004
0.044,0.004
0.040,0.002
0.032,0.006
0.015,0.007
-0.007,0.006
-0.040,0.005
-0.050,0.007
-0.046,0.009
-0.029,0.009
-0.007,0.010
0.025,0.013
0.045,0.015
0.063,0.015
0.074,0.015
0.082,0.018
0.087,0.017
0.098,0.020
0.099,0.020
0.102,0.017
0.096,0.021
0.090,0.019
0.085,0.021
0.075,0.021
0.067,0.023
0.059,0.023
0.053,0.024
0.052,0.024
0.050,0.029
0.049,0.030
0.046,0.030
0.046,0.026
0.044,0.031
0.044,0.028
0.045,0.030
0.042,0.030
0.043,0.034
0.043,0.032
0.043,0.032
0.046,0.035
0.041,0.038
0.043,0.036
0.040,0.037
0.041,0.038
0.045,0.037
0.045,0.036
0.046,0.036
0.044,0.036
0.043,0.038
0.044,0.039
0.044,0.038
0.043,0.039
0.040,0.039
0.045,0.043
0.042,0.039
0.044,0.040
0.043,0.041
0.041,0.042
0.042,0.041
0.042,0.041
0.041,0.039
0.042,0.041
0.045,0.040
0.044,0.044
0.045,0.046
0.043,0.045
0.040,0.047
0.043,0.046
0.042,0.048
0.040,0.044
0.040,0.048
0.038,0.047
0.040,0.048
0.040,0.047
0.041,0.048
0.041,0.048
0.043,0.046
0.043,0.041
0.043,0.043
0.043,0.042
0.046,0.041
0.045,0.040
0.046,0.037
0.044,0.040
0.043,0.034
0.045,0.040
0.042,0.036
0.040,0.038
0.042,0.038
0.044,0.036
0.045,0.034
0.045,0.032
0.047,0.030
0.045,0.031
0.047,0.029
0.047,0.028
0.044,0.026
0.044,0.029
0.046,0.028
0.045,0.024
0.045,0.025
0.046,0.024
0.046,0.025
0.046,0.021
0.049,0.023
0.046,0.020
0.047,0.018
0.048,0.016
0.046,0.013
0.048,0.013
0.047,0.014
0.049,0.009
0.047,0.007
0.049,0.008
0.048,0.010
0.049,0.008
0.048,0.009
0.050,0.010
0.048,0.007
0.049,0.005
0.050,0.006
0.049,0.002
0.047,0.008
0.048,0.002
0.047,0.002
0.044,0.002
0.045,0.004
0.048,0.003
0.046,0.001
0.046,0.001
0.045,0.001
0.043,-0.002
0.046,0.002
0.042,-0.000
0.049,0.000
0.047,-0.002
0.047,-0.003
0.048,-0.005
0.045,-0.005
0.046,-0.003
0.044,-0.003
0.043,-0.003
0.042,-0.005
0.044,-0.005
0.041,-0.008
0.047,-0.005
0.046,-0.009
0.047,-0.007
0.048,-0.010
0.048,-0.005
0.046,-0.006
0.048,-0.009
0.046,-0.007
0.049,-0.008
0.044,-0.002
0.046,-0.004
0.044,-0.001
0.042,-0.001
0.043,0.002
0.042,0.000
0.042,0.002
0.042,0.002
0.049,0.001
0.046,0.003
0.047,0.004
0.044,-0.001
0.046,0.004
0.043,0.003
0.046,0.002
0.043,0.006
0.044,0.006
0.042,0.012
0.042,0.010
0.041,0.011
0.042,0.010
0.043,0.011
0.041,0.009
0.042,0.010
0.040,0.010
0.044,0.012
0.042,0.015
0.045,0.015
0.042,0.012
0.046,0.015
0.044,0.013
0.047,0.015
0.045,0.015
0.047,0.014
0.046,0.016
0.045,0.018
0.043,0.020
0.044,0.021
0.043,0.022
0.045,0.024
0.042,0.025
0.043,0.028
0.045,0.027
0.045,0.032
0.046,0.028
0.047,0.029
0.043,0.028
0.044,0.028
0.042,0.030
0.044,0.031
0.044,0.033
0.045,0.034
0.040,0.033
0.043,0.032
0.044,0.030
0.044,0.032
0.043,0.033
0.046,0.033
0.041,0.035
0.043,0.035
0.040,0.040
0.043,0.036
0.039,0.036
0.044,0.036
0.050,0.034
0.056,0.037
0.039,0.038
0.030,0.039
0.024,0.043
0.016,0.039
0.015,0.040
0.014,0.036
0.020,0.039
0.027,0.042
0.035,0.039
0.041,0.043
0.054,0.039
0.060,0.042
0.070,0.041
0.065,0.044
0.064,0.041
0.062,0.041
0.056,0.044
0.056,0.044
0.051,0.042
0.049,0.043
0.049,0.043
0.049,0.043
0.048,0.043
0.047,0.042
0.045,0.044
0.049,0.042
0.046,0.042
0.046,0.043
0.044,0.042
0.045,0.039
0.044,0.038
0.046,0.038
0.047,0.038
0.046,0.036
0.050,0.035
0.049,0.035
0.047,0.035
0.049,0.032
0.044,0.031
0.045,0.031
0.047,0.032
0.046,0.032
0.045,0.030
0.043,0.031
0.047,0.028
0.047,0.026
0.042,0.028
0.046,0.026
0.045,0.025
0.044,0.024
0.047,0.023
0.048,0.022
0.049,0.021
0.048,0.019
0.049,0.014
0.051,0.016
0.047,0.014
0.046,0.014
0.049,0.011
0.047,0.012
0.043,0.007
0.047,0.009
0.044,0.007
0.045,0.008
0.044,0.008
0.050,0.007
0.046,0.006
0.050,0.006
0.045,0.005
0.047,0.002
0.045,0.003
0.050,0.003
0.046,-0.000
0.047,0.003
0.048,0.003
0.048,-0.000
0.045,0.002
0.046,-0.001
0.044,0.002
0.046,-0.002
0.047,-0.002
0.047,-0.003
0.047,-0.003
0.044,-0.003
0.049,-0.005
0.045,-0.008
0.049,-0.003
0.046,-0.006
0.046,-0.005
0.044,-0.006
0.046,-0.005
0.044,-0.004
0.045,-0.006
0.043,-0.003
0.046,-0.004
0.045,-0.003
0.045,-0.007
0.046,-0.005
0.045,-0.008
0.047,-0.007
0.047,-0.008
0.050,-0.005
0.046,-0.009
0.048,-0.004
0.045,-0.005
0.046,-0.002
0.045,-0.002
0.046,-0.000
0.044,-0.001
0.043,0.002
0.042,-0.000
0.043,0.000
0.043,0.003
0.047,0.001
0.047,0.004
0.045,0.002
0.048,0.003
0.045,-0.001
0.047,0.002
0.045,0.003
0.047,0.004
0.044,0.004
0.044,0.008
0.044,0.008
0.043,0.009
0.043,0.011
0.045,0.010
0.041,0.013
0.044,0.009
0.044,0.010
0.044,0.009
0.043,0.015
0.041,0.012
0.042,0.015
0.041,0.016
0.041,0.016
0.041,0.016
0.044,0.020
0.041,0.020
0.044,0.025
0.046,0.023
0.044,0.026
0.047,0.024
0.044,0.030
0.046,0.026
0.043,0.030
0.043,0.024
0.044,0.027
0.043,0.026
0.044,0.032
0.044,0.032
0.046,0.034
0.044,0.034
0.043,0.032
0.040,0.033
0.038,0.034
0.041,0.034
0.040,0.034
0.043,0.034
0.046,0.036
0.044,0.034
0.046,0.034
0.043,0.036
0.045,0.036
0.046,0.038
0.044,0.038
0.045,0.041
0.044,0.038
0.045,0.040
0.045,0.042
0.034,0.043
0.021,0.042
0.003,0.043
-0.028,0.043
-0.045,0.043
-0.052,0.041
-0.038,0.041
-0.013,0.038
0.019,0.039
0.042,0.037
0.065,0.039
0.078,0.040
0.086,0.040
0.094,0.042
0.100,0.042
0.100,0.043
0.102,0.042
0.102,0.045
0.094,0.043
0.089,0.043
0.079,0.042
0.071,0.040
0.063,0.041
0.063,0.039
0.057,0.039
0.053,0.039
0.052,0.038
0.049,0.037
0.049,0.037
0.049,0.035
0.049,0.035
0.048,0.034
0.047,0.036
0.049,0.033
0.051,0.035
0.047,0.034
0.053,0.034
0.048,0.030
0.052,0.028
0.050,0.028
0.054,0.027
0.050,0.029
0.050,0.028
0.049,0.028
0.050,0.026
0.051,0.028
0.050,0.025
0.049,0.030
0.049,0.022
0.049,0.024
0.052,0.020
0.052,0.022
0.050,0.015
0.047,0.014
0.048,0.010
0.048,0.009
0.049,0.009
0.047,0.007
0.048,0.010
0.047,0.008
0.049,0.009
0.049,0.009
0.051,0.006
0.049,0.003
0.050,0.003
0.047,0.006
0.047,0.006
0.046,0.004
0.046,0.003
0.044,0.004
0.048,0.001
0.046,0.003
0.047,-0.000
0.046,0.002
0.045,0.001
0.048,0.002
0.045,-0.002
0.048,-0.000
0.048,-0.002
0.048,-0.004
0.048,-0.003
0.047,-0.005
0.045,-0.003
0.045,-0.003
0.043,-0.001
0.048,-0.002
0.044,-0.003
0.044,-0.004
0.044,-0.001
0.045,-0.005
0.043,-0.004
0.045,-0.004
0.045,-0.005
0.045,-0.003
0.046,-0.003
0.044,-0.001
0.045,-0.004
0.045,-0.003
0.044,-0.003
0.044,-0.001
0.044,0.000
0.040,0.001
0.042,-0.001
0.041,0.003
0.041,0.001
0.047,0.004
0.045,0.002
0.048,0.001
0.046,0.004
0.048,0.006
0.045,0.006
0.043,0.006
0.043,0.008
0.044,0.006
0.041,0.008
0.045,0.009
0.039,0.009
0.042,0.008
0.041,0.010
0.040,0.011
0.041,0.013
0.041,0.011
0.043,0.013
0.041,0.010
0.044,0.013
0.041,0.009
0.044,0.011
0.041,0.013
0.043,0.013
0.042,0.014
0.041,0.019
0.042,0.015
0.043,0.020
0.041,0.017
0.045,0.022
0.041,0.021
0.043,0.024
0.040,0.025
0.041,0.028
0.041,0.026
0.042,0.027
0.045,0.027
0.044,0.030
0.044,0.032
0.044,0.032
0.045,0.033
0.041,0.031
0.040,0.033
0.040,0.032
0.039,0.036
0.041,0.037
0.040,0.036
0.042,0.038
0.041,0.037
0.040,0.038
0.039,0.038
0.041,0.039
0.039,0.039
0.041,0.036
0.039,0.036
0.041,0.038
0.037,0.039
0.039,0.040
0.036,0.040
0.037,0.039
0.038,0.043
0.039,0.041
0.040,0.045
0.041,0.043
0.041,0.043
0.040,0.043
0.041,0.042
0.043,0.045
0.043,0.043
0.041,0.044
0.043,0.045
0.040,0.047
0.042,0.045
0.038,0.048
0.043,0.047
0.040,0.047
0.041,0.048
0.044,0.046
0.043,0.044
0.045,0.042
0.045,0.043
0.044,0.041
0.043,0.042
0.043,0.041
0.043,0.039
0.043,0.038
0.043,0.043
0.043,0.040
0.042,0.042
0.042,0.040
0.041,0.040
0.044,0.038
0.044,0.036
0.045,0.035
0.046,0.037
0.048,0.034
0.046,0.032
0.046,0.032
0.047,0.034
0.048,0.035
0.047,0.030
0.045,0.030
0.045,0.027
0.046,0.030
0.046,0.026
0.045,0.029
0.046,0.024
0.045,0.024
0.044,0.021
0.042,0.022
0.045,0.022
0.045,0.022
0.048,0.019
0.045,0.017
0.049,0.013
0.044,0.014
0.046,0.012
0.042,0.013
0.044,0.011
0.044,0.012
0.045,0.010
0.044,0.012
0.045,0.008
0.044,0.012
0.045,0.008
0.044,0.009
0.047,0.007
0.047,0.005
0.048,0.004
0.061,0.007
0.048,0.003
0.036,0.003
0.028,-0.003
0.024,0.001
0.016,-0.000
0.019,-0.000
0.020,0.002
0.027,0.001
0.030,0.003
0.040,0.001
0.049,0.003
0.063,-0.002
0.068,-0.001
0.073,-0.003
0.070,-0.003
0.065,-0.004
0.053,-0.004
0.032,-0.003
0.015,-0.003
-0.024,-0.006
-0.041,-0.005
-0.051,-0.007
-0.039,-0.004
-0.016,-0.007
0.016,-0.006
0.042,-0.004
0.064,-0.005
0.073,-0.002
0.086,-0.005
0.092,-0.001
0.097,-0.001
0.101,0.000
0.097,0.000
0.096,0.000
0.090,-0.001
0.086,0.000
0.076,-0.003
0.070,-0.001
0.066,0.001
0.062,-0.000
0.056,0.001
0.055,0.003
0.050,0.008
0.052,0.006
0.047,0.007
0.049,0.006
0.046,0.006
0.049,0.005
0.050,0.010
0.049,0.006
0.049,0.011
0.049,0.009
0.050,0.011
0.046,0.010
0.049,0.010
0.047,0.011
0.047,0.011
0.046,0.014
0.046,0.015
0.045,0.016
0.047,0.017
0.046,0.016
0.042,0.018
0.043,0.018
0.045,0.018
0.042,0.021
0.043,0.020
0.042,0.022
0.043,0.023
0.041,0.025
0.044,0.029
0.046,0.030
0.041,0.033
0.045,0.031
0.043,0.033
0.044,0.031
0.043,0.032
0.043,0.033
0.043,0.032
0.043,0.035
0.043,0.033
0.043,0.034
0.040,0.036
0.040,0.038
0.039,0.040
0.039,0.042
0.041,0.039
0.040,0.043
0.042,0.039
0.039,0.042
0.041,0.040
0.038,0.042
0.039,0.040
0.038,0.042
0.038,0.040
0.038,0.043
0.039,0.043
0.039,0.044
0.038,0.043
0.037,0.043
0.040,0.042
0.041,0.044
0.038,0.046
0.039,0.047
0.039,0.048
0.040,0.046
0.036,0.047
0.037,0.047
0.035,0.047
0.038,0.044
0.037,0.048
0.039,0.045
0.040,0.047
0.040,0.047
0.043,0.047
0.041,0.047
0.044,0.045
0.042,0.045
0.043,0.044
0.042,0.047
0.041,0.044
0.041,0.047
0.041,0.044
0.043,0.045
0.041,0.044
0.040,0.041
0.043,0.041
0.041,0.042
0.041,0.040
0.043,0.039
0.043,0.038
0.045,0.037
0.044,0.036
0.043,0.034
0.044,0.037
0.044,0.032
0.041,0.032
0.041,0.032
0.042,0.034
0.043,0.031
0.041,0.033
0.043,0.030
0.041,0.029
0.043,0.028
0.042,0.029
0.043,0.028
0.044,0.028
0.045,0.023
0.045,0.026
0.045,0.025
0.047,0.023
0.044,0.019
0.048,0.017
0.047,0.017
0.048,0.017
0.045,0.016
0.043,0.015
0.045,0.012
0.043,0.013
0.045,0.009
0.046,0.010
0.045,0.008
0.048,0.010
0.046,0.008
0.051,0.007
0.049,0.004
0.050,0.005
0.046,0.003
0.048,0.003
0.046,0.002
0.047,0.002
0.043,0.005
0.044,0.003
0.043,0.006
0.046,0.003
0.043,0.004
0.047,0.002
0.045,0.002
0.045,0.003
0.047,-0.000
0.045,-0.003
0.051,-0.005
0.047,-0.005
0.049,-0.004
0.046,-0.004
0.047,-0.003
0.047,-0.003
0.048,-0.003
0.046,-0.002
0.049,-0.003
0.047,-0.003
0.051,-0.004
0.046,-0.003
0.046,-0.003
0.045,-0.004
0.044,-0.004
0.045,-0.002
0.043,-0.005
0.048,-0.003
0.044,-0.002
0.046,-0.001
0.044,0.002
0.046,0.002
0.043,0.003
0.049,0.003
0.042,0.005
0.044,0.004
0.045,0.005
0.045,0.002
0.044,0.004
0.043,0.003
0.042,0.007
0.040,0.006
0.047,0.006
0.043,0.004
0.048,0.008
0.044,0.006
0.047,0.009
0.046,0.009
0.046,0.010
0.042,0.012
0.046,0.011
0.041,0.014
0.046,0.013
0.043,0.013
0.043,0.012
0.041,0.018
0.046,0.012
0.043,0.016
0.043,0.015
0.044,0.018
0.042,0.019
0.042,0.022
0.044,0.022
0.045,0.025
0.044,0.025
0.042,0.027
0.042,0.023
0.041,0.028
0.041,0.027
0.042,0.031
0.044,0.025
0.045,0.029
0.045,0.029
0.042,0.029
0.041,0.030
0.044,0.031
0.042,0.032
0.042,0.036
0.043,0.036
0.040,0.037
0.043,0.034
0.041,0.038
0.040,0.037
0.039,0.039
0.042,0.039
0.044,0.037
0.045,0.037
0.046,0.037
0.044,0.038
0.045,0.039
0.046,0.037
0.045,0.041
0.044,0.040
0.045,0.043
0.044,0.044
0.046,0.042
0.044,0.046
0.045,0.043
0.043,0.044
0.043,0.041
0.044,0.042
0.045,0.043
0.046,0.044
0.043,0.042
0.046,0.042
0.046,0.042
0.048,0.042
0.044,0.043
0.046,0.043
0.046,0.045
0.044,0.044
0.045,0.047
0.044,0.043
0.044,0.045
0.043,0.044
0.043,0.045
0.041,0.043
0.047,0.043
0.046,0.041
0.048,0.042
0.046,0.041
0.048,0.036
0.049,0.036
0.045,0.035
0.045,0.036
0.045,0.036
0.042,0.037
0.045,0.034
0.045,0.036
0.044,0.034
0.045,0.034
0.047,0.032
0.050,0.031
0.046,0.028
0.051,0.027
0.050,0.026
0.049,0.024
0.049,0.024
0.046,0.025
0.050,0.024
0.046,0.023
0.047,0.024
0.049,0.022
0.048,0.021
0.052,0.019
0.048,0.019
0.048,0.017
0.048,0.017
0.047,0.014
0.047,0.010
0.048,0.010
0.045,0.008
0.047,0.011
0.045,0.008
0.049,0.012
0.047,0.008
0.049,0.010
0.044,0.007
0.049,0.008
0.045,0.002
0.048,0.002
0.048,0.001
0.049,0.002
0.049,0.006
0.050,0.001
0.047,0.002
0.048,0.002
0.045,0.001
0.049,0.000
0.047,0.001
0.035,-0.002
0.022,-0.002
-0.007,-0.005
-0.028,-0.004
-0.045,-0.006
-0.043,-0.007
-0.029,-0.005
0.001,-0.005
0.024,-0.004
0.050,-0.003
0.068,-0.004
0.079,-0.005
0.087,-0.003
0.096,-0.003
0.100,-0.003
0.103,-0.005
0.106,-0.005
0.099,-0.008
0.096,-0.004
0.086,-0.008
0.079,-0.007
0.070,-0.003
0.067,-0.003
0.057,-0.001
0.056,-0.004
0.043,-0.001
0.022,0.000
-0.003,0.003
-0.030,0.002
-0.051,0.002
-0.054,0.000
-0.037,0.001
-0.008,0.002
0.023,-0.001
0.045,0.003
0.061,0.001
0.070,0.003
0.080,0.004
0.089,0.002
0.095,0.006
0.100,0.009
0.105,0.005
0.102,0.006
0.101,0.007
0.091,0.011
0.083,0.011
0.073,0.011
0.066,0.011
0.065,0.012
0.059,0.012
0.054,0.012
0.056,0.012
0.052,0.015
0.052,0.013
0.052,0.016
0.049,0.015
0.049,0.017
0.044,0.018
0.046,0.022
0.042,0.022
0.044,0.026
0.043,0.024
0.043,0.027
0.042,0.026
0.046,0.029
0.045,0.028
0.048,0.030
0.045,0.029
0.047,0.028
0.043,0.030
0.046,0.030
0.044,0.030
0.044,0.033
0.043,0.034
0.043,0.035
0.044,0.034
0.043,0.035
0.043,0.038
0.045,0.037
0.043,0.036
0.045,0.036
0.043,0.041
0.042,0.038
0.044,0.042
0.040,0.038
0.040,0.040
0.040,0.041
0.039,0.041
0.037,0.042
0.040,0.042
0.038,0.043
0.041,0.046
0.042,0.043
0.045,0.045
0.044,0.043
0.043,0.039
0.043,0.043
0.044,0.041
0.052,0.047
0.057,0.045
0.039,0.045
0.026,0.045
0.019,0.046
0.011,0.046
0.011,0.045
0.012,0.046
0.018,0.046
0.025,0.043
0.031,0.043
0.040,0.043
0.054,0.043
0.063,0.041
0.067,0.039
0.069,0.039
0.069,0.039
0.064,0.041
0.061,0.041
0.054,0.039
0.051,0.037
0.049,0.039
0.047,0.036
0.049,0.036
0.049,0.033
0.050,0.032
0.047,0.031
0.049,0.030
0.045,0.031
0.046,0.029
0.045,0.031
0.044,0.028
0.045,0.030
0.044,0.027
0.044,0.027
0.044,0.028
0.046,0.027
0.043,0.025
0.045,0.027
0.043,0.022
0.045,0.024
0.043,0.021
0.045,0.022
0.043,0.019
0.045,0.019
0.047,0.014
0.046,0.014
0.048,0.013
0.045,0.011
0.047,0.009
0.042,0.012
0.048,0.007
0.044,0.008
0.045,0.010
0.043,0.011
0.044,0.007
0.046,0.007
0.047,0.006
0.048,0.002
0.046,0.001
0.047,0.001
0.046,0.000
0.043,-0.001
0.046,-0.001
0.046,-0.001
0.043,0.000
0.042,-0.001
0.041,0.003
0.043,0.001
0.040,0.005
0.045,0.001
0.043,0.004
0.045,0.000
0.045,-0.002
0.044,-0.003
0.046,-0.005
0.045,-0.008
0.046,-0.007
0.046,-0.007
0.045,-0.007
0.046,-0.004
0.047,-0.004
0.044,-0.003
0.043,-0.005
0.043,-0.003
0.045,-0.005
0.041,-0.003
0.043,-0.005
0.042,-0.002
0.041,-0.005
0.045,-0.001
0.045,-0.002
0.047,-0.002
0.044,-0.003
0.046,-0.004
0.046,0.001
0.042,-0.002
0.041,-0.001
0.041,-0.000
0.037,-0.001
0.041,0.001
0.041,-0.000
0.042,0.001
0.041,0.005
0.043,0.003
0.041,0.006
0.043,0.004
0.042,0.007
0.041,0.005
0.042,0.007
0.042,0.008
0.043,0.007
0.041,0.011
0.043,0.009
0.042,0.011
0.041,0.012
0.040,0.016
0.041,0.014
0.040,0.015
0.040,0.014
0.042,0.016
0.042,0.015
0.043,0.017
0.042,0.018
0.041,0.018
0.042,0.018
0.039,0.022
0.043,0.020
0.038,0.024
0.039,0.025
0.039,0.028
0.044,0.029
0.038,0.026
0.040,0.028
0.039,0.031
0.042,0.029
0.041,0.030
0.041,0.026
0.040,0.033
0.038,0.032
0.041,0.035
0.041,0.032
0.039,0.034
0.038,0.033
0.038,0.037
0.040,0.036
0.039,0.037
0.041,0.037
0.043,0.039
0.039,0.035
0.044,0.036
0.042,0.036
0.044,0.036
0.041,0.039
0.042,0.038
0.038,0.042
0.041,0.041
0.036,0.046
0.038,0.043
0.038,0.045
0.038,0.042
0.040,0.045
0.038,0.041
0.042,0.044
0.037,0.043
0.043,0.041
0.042,0.040
0.043,0.043
0.042,0.041
0.045,0.043
0.043,0.043
0.044,0.045
0.040,0.048
0.042,0.044
0.039,0.046
0.041,0.042
0.040,0.044
0.040,0.044
0.042,0.045
0.039,0.042
0.044,0.042
0.041,0.039
0.043,0.040
0.045,0.038
0.043,0.039
0.043,0.040
0.043,0.038
0.042,0.039
0.045,0.037
0.042,0.043
0.047,0.040
0.041,0.041
0.042,0.038
0.044,0.037
0.045,0.035
0.048,0.033
0.049,0.030
0.051,0.032
0.046,0.029
0.046,0.028
0.043,0.031
0.045,0.028
0.047,0.030
0.046,0.027
0.048,0.030
0.049,0.029
0.045,0.026
0.049,0.025
0.045,0.024
0.049,0.020
0.047,0.021
0.047,0.018
0.047,0.019
0.046,0.015
0.046,0.017
0.045,0.015
0.047,0.014
0.045,0.011
0.045,0.013
0.043,0.011
0.046,0.013
0.046,0.010
0.040,0.011
0.028,0.009
0.013,0.009
-0.022,0.006
-0.041,0.007
-0.049,0.007
-0.041,0.004
-0.017,0.004
0.007,0.003
0.038,0.002
0.059,0.003
0.075,0.002
0.085,0.003
0.094,0.002
0.099,0.002
0.104,0.003
0.109,0.001
0.104,0.000
0.100,-0.001
0.091,-0.003
0.082,-0.004
0.075,-0.004
0.067,-0.005
0.066,-0.001
0.058,-0.005
0.059,-0.003
0.056,-0.002
0.058,-0.005
0.052,-0.001
0.051,-0.004
0.049,0.001
0.048,-0.003
0.047,-0.001
0.045,-0.003
0.049,-0.001
0.045,0.000
0.051,0.001
0.048,-0.001
0.047,0.000
0.046,0.002
0.047,0.001
0.049,0.002
0.050,0.000
0.049,0.003
0.050,0.002
0.045,0.008
0.049,0.003
0.046,0.008
0.045,0.006
0.043,0.008
0.045,0.005
0.044,0.007
0.042,0.006
0.043,0.007
0.041,0.007
0.043,0.010
0.042,0.009
0.044,0.013
0.042,0.011
0.044,0.010
0.042,0.016
0.045,0.015
0.043,0.019
0.043,0.014
0.045,0.017
0.045,0.016
0.044,0.020
0.042,0.018
0.044,0.020
0.044,0.018
0.042,0.021
0.039,0.020
0.041,0.023
0.042,0.024
0.043,0.026
0.043,0.024
0.043,0.026
0.047,0.026
0.046,0.028
0.045,0.027
0.044,0.028
0.046,0.028
0.045,0.028
0.042,0.032
0.044,0.032
0.045,0.036
0.042,0.035
0.047,0.036
0.042,0.038
0.044,0.039
0.042,0.041
0.041,0.040
0.040,0.040
0.042,0.040
0.038,0.039
0.043,0.039
0.038,0.041
0.042,0.042
0.040,0.044
0.042,0.040
0.043,0.042
0.042,0.042
0.044,0.043
0.040,0.044
0.046,0.047
0.040,0.046
0.042,0.044
0.042,0.047
0.044,0.043
0.041,0.044
0.043,0.041
0.040,0.043
0.040,0.046
0.039,0.046
0.040,0.046
0.042,0.044
0.043,0.045
0.045,0.045
0.045,0.044
0.045,0.046
0.046,0.046
0.043,0.047
0.044,0.044
0.043,0.043
0.045,0.044
0.043,0.040
0.043,0.043
0.049,0.040
0.046,0.040
0.048,0.040
0.043,0.039
0.042,0.037
0.041,0.036
0.042,0.037
0.045,0.037
0.045,0.034
0.047,0.034
0.047,0.036
0.045,0.032
0.046,0.033
0.046,0.032
0.045,0.030
0.046,0.030
0.042,0.030
0.041,0.030
0.043,0.030
0.045,0.028
0.042,0.028
0.045,0.026
0.047,0.026
0.048,0.023
0.047,0.026
0.047,0.023
0.047,0.023
0.048,0.019
0.047,0.019
0.047,0.015
0.046,0.013
0.047,0.011
0.047,0.012
0.045,0.010
0.045,0.013
0.043,0.010
0.046,0.012
0.041,0.011
0.046,0.010
0.044,0.010
0.046,0.009
0.046,0.008
0.049,0.011
0.046,0.004
0.049,0.007
0.047,0.003
0.050,0.003
0.049,0.001
0.049,-0.000
0.049,0.003
0.047,0.000
0.043,0.003
0.046,0.001
0.045,0.003
0.046,0.001
0.047,0.002
0.049,-0.003
0.051,-0.004
0.050,-0.005
0.052,-0.003
0.049,-0.005
0.051,-0.004
0.047,-0.006
0.047,-0.005
0.047,-0.003
0.049,-0.004
0.044,-0.003
0.048,-0.004
0.044,-0.001
0.048,-0.003
0.049,0.000
0.048,-0.003
0.046,0.000
0.045,-0.003
0.048,-0.003
0.045,-0.005
0.047,-0.000
0.044,-0.001
0.047,-0.001
0.045,-0.002
0.047,-0.003
0.044,0.001
0.044,0.002
0.045,0.005
0.046,0.000
0.043,0.003
0.045,0.003
0.045,0.004
0.045,0.004
0.047,0.004
0.042,0.003
0.047,0.008
0.046,0.006
0.048,0.004
0.049,0.006
0.048,0.009
0.047,0.010
0.048,0.013
0.045,0.013
0.047,0.014
0.042,0.013
0.045,0.012
0.042,0.014
0.042,0.015
0.045,0.015
0.044,0.016
0.047,0.018
0.044,0.016
0.044,0.018
0.043,0.020
0.045,0.021
0.042,0.023
0.039,0.023
0.042,0.024
0.042,0.030
0.041,0.028
0.040,0.032
0.042,0.030
0.042,0.033
0.044,0.031
0.045,0.033
0.042,0.032
0.044,0.035
0.044,0.035
0.041,0.034
0.042,0.034
0.039,0.036
0.041,0.036
0.039,0.039
0.039,0.039
0.041,0.041
0.043,0.039
0.044,0.040
0.046,0.037
0.046,0.040
0.045,0.039
0.045,0.039
0.045,0.038
0.042,0.038
0.040,0.039
0.039,0.039
0.038,0.044
0.041,0.044
0.039,0.044
0.042,0.044
0.043,0.047
0.043,0.045
0.042,0.043
0.041,0.040
0.044,0.045
0.043,0.041
0.045,0.042
0.041,0.043
0.041,0.041
0.042,0.043
0.043,0.042
0.043,0.045
0.042,0.043
0.043,0.050
0.042,0.049
0.041,0.048
0.044,0.046
0.045,0.043
0.046,0.041
0.044,0.040
0.044,0.040
0.048,0.040
0.047,0.038
0.044,0.038
0.045,0.036
0.043,0.036
0.044,0.039
0.044,0.037
0.045,0.041
0.047,0.036
0.044,0.039
0.045,0.034
0.045,0.036
0.045,0.033
0.049,0.034
0.049,0.032
0.049,0.030
0.046,0.030
0.046,0.028
0.049,0.029
0.046,0.026
0.046,0.029
0.047,0.028
0.045,0.027
0.046,0.025
0.045,0.028
0.048,0.023
0.046,0.024
0.049,0.017
0.050,0.021
0.050,0.014
0.051,0.015
0.051,0.012
0.051,0.013
0.049,0.010
0.049,0.010
0.049,0.009
0.046,0.010
0.049,0.010
0.049,0.007
0.051,0.007
0.052,0.005
0.054,0.002
0.051,0.004
0.051,0.002
0.048,0.006
0.051,0.002
0.046,0.002
0.049,0.002
0.048,0.002
0.049,-0.000
0.048,0.002
0.047,0.000
0.047,0.002
0.048,0.001
0.051,0.002
0.047,0.002
0.049,-0.001
0.051,-0.002
0.050,-0.001
0.050,-0.001
0.051,-0.001
0.049,-0.003
0.050,-0.005
0.045,-0.002
0.046,-0.005
0.045,-0.000
0.044,-0.003
0.035,-0.001
0.022,-0.004
-0.005,-0.003
-0.030,-0.004
-0.045,-0.004
-0.041,-0.003
-0.013,-0.004
-0.001,-0.002
0.014,-0.002
0.031,0.003
0.046,-0.002
0.054,0.002
0.064,0.001
0.075,0.001
0.086,0.004
0.095,0.001
0.103,0.003
0.113,0.002
0.116,0.002
0.109,0.002
0.102,0.003
0.090,0.005
0.082,0.004
0.072,0.005
0.063,0.008
0.059,0.008
0.053,0.007
0.052,0.008
0.050,0.011
0.050,0.010
0.051,0.013
0.052,0.010
0.052,0.010
0.050,0.008
0.049,0.010
0.048,0.014
0.050,0.013
0.049,0.017
0.047,0.013
0.047,0.015
0.046,0.013
0.050,0.015
0.047,0.018
0.050,0.019
0.046,0.021
0.046,0.021
0.048,0.023
0.042,0.026
0.047,0.028
0.045,0.026
0.047,0.030
0.047,0.028
0.049,0.031
0.045,0.028
0.046,0.033
0.042,0.031
0.045,0.033
0.038,0.032
0.045,0.032
0.040,0.032
0.041,0.032
0.044,0.036
0.041,0.036
0.045,0.037
0.040,0.036
0.041,0.038
0.041,0.035
0.041,0.038
0.041,0.036
0.041,0.037
0.042,0.039
0.040,0.041
0.038,0.038
0.040,0.043
0.040,0.042
0.043,0.041
0.040,0.040
0.043,0.038
0.042,0.039
0.045,0.043
0.047,0.042
0.046,0.042
0.047,0.043
0.047,0.042
0.047,0.043
0.046,0.043
0.046,0.044
0.043,0.044
0.043,0.044
0.041,0.042
0.042,0.043
0.041,0.042
0.044,0.043
0.042,0.043
0.044,0.041
0.043,0.044
0.044,0.042
0.046,0.044
0.046,0.042
0.046,0.042
0.045,0.041
0.043,0.041
0.045,0.037
0.045,0.040
0.045,0.037
0.047,0.039
0.045,0.037
0.049,0.037
0.044,0.035
0.047,0.032
0.047,0.033
0.047,0.032
0.047,0.033
0.049,0.029
0.049,0.032
0.049,0.030
0.047,0.032
0.049,0.028
0.048,0.028
0.049,0.027
0.052,0.025
0.048,0.022
0.051,0.024
0.047,0.021
0.048,0.023
0.046,0.019
0.049,0.020
0.049,0.019
0.047,0.019
0.049,0.019
0.050,0.017
0.051,0.013
0.050,0.014
0.047,0.011
0.050,0.013
0.047,0.011
0.049,0.012
0.049,0.013
0.050,0.010
0.051,0.010
0.052,0.007
0.051,0.004
0.052,0.005
0.051,0.001
0.051,0.002
0.051,0.001
0.051,0.003
0.050,0.001
0.051,0.001
0.047,-0.001
0.049,-0.001
0.046,0.003
0.048,-0.001
0.047,0.001
0.047,0.001
0.050,0.000
0.052,-0.002
0.053,-0.003
0.053,-0.006
0.053,-0.007
0.049,-0.008
0.048,-0.011
0.047,-0.007
0.048,-0.008
0.047,-0.007
0.046,-0.007
0.048,-0.006
0.047,-0.006
0.049,-0.004
0.048,-0.006
0.050,-0.006
0.047,-0.008
0.047,-0.007
0.049,-0.006
0.047,-0.009
0.046,-0.006
0.046,-0.003
0.045,-0.001
0.045,-0.005
0.043,-0.002
0.044,-0.006
0.048,-0.003
0.045,-0.004
0.049,-0.002
0.045,-0.003
0.047,-0.001
0.047,0.001
0.047,0.001
0.049,-0.000
0.052,0.001
0.049,0.002
0.049,0.003
0.048,0.004
0.046,0.004
0.042,0.008
0.044,0.008
0.043,0.008
0.044,0.005
0.044,0.006
0.043,0.006
0.046,0.010
0.044,0.009
0.046,0.007
0.045,0.009
0.047,0.009
0.044,0.013
0.046,0.013
0.043,0.012
0.041,0.014
0.042,0.014
0.040,0.016
0.040,0.015
0.040,0.019
0.039,0.022
0.041,0.025
0.043,0.024
0.041,0.025
0.044,0.026
0.043,0.028
0.044,0.027
0.043,0.027
0.047,0.026
0.044,0.028
0.043,0.028
0.044,0.031
0.044,0.030
0.043,0.032
0.043,0.030
0.047,0.032
0.044,0.031
0.049,0.033
0.045,0.035
0.049,0.035
0.047,0.035
0.046,0.034
0.045,0.035
0.047,0.036
0.043,0.034
0.047,0.036
0.045,0.037
0.044,0.038
0.040,0.038
0.043,0.037
0.043,0.037
0.044,0.036
0.045,0.037
0.045,0.034
0.047,0.038
0.045,0.038
0.046,0.038
0.044,0.039
0.045,0.039
0.042,0.039
0.045,0.037
0.041,0.040
0.043,0.040
0.043,0.040
0.041,0.041
0.043,0.044
0.045,0.042
0.044,0.041
0.047,0.037
0.048,0.039
0.047,0.036
0.046,0.038
0.047,0.036
0.047,0.036
0.045,0.038
0.046,0.035
0.044,0.037
0.045,0.033
0.046,0.034
0.048,0.034
0.049,0.034
0.046,0.033
0.044,0.032
0.043,0.031
0.044,0.030
0.047,0.029
0.046,0.030
0.049,0.026
0.047,0.028
0.050,0.030
0.048,0.030
0.046,0.028
0.047,0.027
0.046,0.025
0.045,0.024
0.046,0.025
0.049,0.021
0.049,0.020
0.047,0.018
0.049,0.022
0.049,0.020
0.049,0.020
0.050,0.018
0.048,0.016
0.051,0.014
0.050,0.012
0.052,0.009
0.049,0.011
0.047,0.007
0.046,0.008
0.046,0.008
0.047,0.009
0.049,0.007
0.050,0.008
0.052,0.006
0.050,0.005
0.050,0.002
0.052,0.002
0.048,-0.001
0.052,0.003
0.039,-0.002
0.028,0.000
0.003,-0.002
-0.027,-0.005
-0.040,0.001
-0.051,-0.002
-0.034,-0.001
-0.007,-0.005
0.022,-0.003
0.047,-0.005
0.069,-0.006
0.081,-0.007
0.090,-0.006
0.098,-0.005
0.100,-0.004
0.106,-0.005
0.108,-0.006
0.103,-0.007
0.098,-0.005
0.088,-0.007
0.081,-0.008
0.072,-0.007
0.068,-0.009
0.062,-0.004
0.061,-0.008
0.055,-0.006
0.050,-0.008
0.052,-0.005
0.049,-0.005
0.053,-0.005
0.050,-0.004
0.052,-0.005
0.050,-0.009
0.051,-0.004
0.048,-0.005
0.049,-0.004
0.046,-0.003
0.049,-0.002
0.047,0.003
0.047,0.001
0.044,0.005
0.044,0.002
0.044,0.005
0.046,0.004
0.045,0.006
0.042,0.008
0.047,0.008
0.044,0.007
0.048,0.010
0.046,0.007
0.048,0.009
0.046,0.005
0.047,0.009
0.047,0.007
0.050,0.010
0.045,0.013
0.049,0.010
0.048,0.014
0.047,0.012
0.046,0.015
0.046,0.013
0.046,0.015
0.044,0.016
0.045,0.017
0.040,0.017
0.043,0.019
0.043,0.021
0.044,0.023
0.043,0.020
0.044,0.022
0.046,0.023
0.044,0.022
0.047,0.026
0.046,0.026
0.046,0.029
0.043,0.027
0.044,0.031
0.041,0.030
0.044,0.031
0.042,0.031
0.045,0.033
0.042,0.032
0.046,0.034
0.042,0.032
0.043,0.035
0.042,0.037
0.043,0.036
0.041,0.040
0.044,0.039
0.042,0.039
0.042,0.036
0.041,0.041
0.041,0.036
0.044,0.039
0.040,0.037
0.047,0.041
0.042,0.040
0.044,0.041
0.044,0.039
0.044,0.041
0.043,0.041
0.045,0.042
0.043,0.043
0.044,0.040
0.042,0.042
0.046,0.041
0.042,0.041
0.044,0.041
0.040,0.044
0.041,0.039
0.044,0.044
0.041,0.040
0.043,0.045
0.045,0.044
0.047,0.043
0.046,0.044
0.047,0.043
0.044,0.046
0.045,0.045
0.045,0.047
0.044,0.043
0.043,0.045
0.045,0.041
0.046,0.039
0.045,0.039
0.045,0.039
0.046,0.037
0.049,0.036
0.047,0.036
0.049,0.035
0.053,0.034
0.049,0.032
0.051,0.031
0.051,0.032
0.050,0.032
0.053,0.032
0.047,0.031
0.049,0.029
0.049,0.029
0.049,0.029
0.052,0.028
0.050,0.026
0.052,0.023
0.049,0.024
0.049,0.023
0.049,0.023
0.049,0.023
0.048,0.019
0.051,0.018
0.051,0.014
0.052,0.015
0.050,0.013
0.051,0.013
0.049,0.012
0.049,0.012
0.048,0.011
0.049,0.008
0.047,0.009
0.046,0.008
0.048,0.005
0.050,0.007
0.049,0.006
0.052,0.007
0.048,0.004
0.054,0.002
0.051,0.003
0.054,0.003
0.051,0.002
0.049,0.002
0.049,0.004
0.048,0.002
0.047,0.002
0.048,0.004
0.050,0.004
0.050,0.001
0.053,0.003
0.053,0.000
0.057,0.002
0.054,-0.003
0.054,-0.002
0.049,-0.005
0.052,-0.006
0.052,-0.003
0.052,-0.007
0.050,-0.000
0.049,-0.005
0.046,-0.000
0.049,-0.002
0.048,0.001
0.046,-0.003
0.049,0.000
0.047,-0.003
0.048,-0.002
0.047,-0.002
0.047,-0.001
0.048,-0.001
0.049,-0.001
0.047,-0.001
0.050,0.000
0.048,0.002
0.050,-0.002
0.048,0.003
0.049,0.000
0.047,0.003
0.045,0.004
0.048,0.006
0.044,0.004
0.046,0.005
0.044,0.004
0.049,0.005
0.047,0.006
0.047,0.006
0.046,0.004
0.049,0.005
0.046,0.007
0.046,0.007
0.042,0.012
0.050,0.011
0.045,0.014
0.046,0.012
0.044,0.016
0.042,0.015
0.042,0.017
0.043,0.016
0.044,0.017
0.044,0.017
0.045,0.018
0.045,0.017
0.045,0.020
0.044,0.019
0.039,0.019
0.039,0.020
0.035,0.028
0.019,0.026
-0.003,0.028
-0.031,0.026
-0.055,0.031
-0.063,0.029
-0.048,0.028
-0.018,0.028
0.011,0.028
0.036,0.028
0.053,0.030
0.068,0.030
0.071,0.035
0.081,0.032
0.084,0.037
0.092,0.034
