File Version,253.000000
# of Channels,2.000000
Samples/Channel,10300.000000
Scan Rate (Hz),10000.000000
Timestamp,3807793111.035925
Operating Mode,1.000000
Trial #,30.000000
Session #,25.000000
Subject code 1,82.000000
Subject code 2,88.000000
Feedback Window,0.000000
Feedback Ch,0.000000
Ch B,0.000000
Pre-Stim Acq. time (ms),100.000000
Post-Stim Acq. time (ms),900.000000
EMG Hi Limit,50.000000
EMG Lo Limit,0.000250
Target Value (V),5.000000
Stimulus Value (V),1.026574
Stimulus duration (ms),1.000000
EMG conditions time limit (sec),0.200000
M-response Start (ms),2.000000
M-response Duration (ms),2.000000
H-response Duration (ms),2.000000
H-response Start (ms),5.000000
Proportioanl gain,0.003000
Channel to monitor,0.000000
SIU gain,20.000000
FB Monitor value,0.880399
Inter-Stim delay (sec),5.000000
M-Window Mean,0.909278
H-Window Mean,0.011327
Stimulus paradigm,2.000000
# of Pulses in cond train,1.000000
Cond duration (ms),1.000000
Cond Train pulse period (ms),30.000000
Cond Value (V),1.026574
Start Delay (ms),0.000000
# of Pulses in stim train,1.000000
Stim Train pulse period (ms),30.000000
EMG amp gain ch 1,500.000000
EMG amp gain ch 2,500.000000
EMG amp gain ch 3,1000.000000
EMG amp gain ch 4,1000.000000
EMG amp gain ch 5,1000.000000
EMG amp gain ch 6,1000.000000
Stim Type 1,2.000000
Stim/Cond 1,0.000000
Stim Type 2,3.000000
Stim/Cond 2,0.000000
Stim Type 3,3.000000
Stim/Cond 3,0.000000
Stim Type 4,3.000000
Stim/Cond 4,0.000000
Stim Value 1,1.026574
Stim Value 2,0.000000
Stim Value 3,0.000000
Stim Value 4,0.000000
1st PP Channel,-1.000000
Pressure (g),0.000000
Speed (mm/sec),0.000000
Dwell (ms),0.000000
Pressure limit (g),0.000000
Travel limit (mm),0.000000
Amp gain,0.000000
Wait Trig?,0.000000
Move Timeout (ms),0.000000
Time Taken (ms),0.000000
Actual Travel (mm),0.000000
Recorded Data (mV),
0.045,0.014
0.040,0.017
0.042,0.014
0.043,0.016
0.041,0.014
0.042,0.016
0.040,0.015
0.044,0.017
0.042,0.013
0.042,0.012
0.043,0.012
0.045,0.010
0.046,0.011
0.046,0.010
0.046,0.012
0.048,0.011
0.049,0.014
0.046,0.012
0.046,0.015
0.046,0.012
0.044,0.012
0.045,0.011
0.048,0.013
0.043,0.012
0.046,0.014
0.044,0.010
0.047,0.009
0.047,0.008
0.047,0.008
0.048,0.010
0.049,0.010
0.046,0.013
0.047,0.011
0.047,0.014
0.047,0.012
0.043,0.012
0.041,0.011
0.047,0.011
0.042,0.010
0.048,0.012
0.046,0.010
0.048,0.011
0.047,0.012
0.050,0.013
0.045,0.013
0.049,0.014
0.049,0.013
0.050,0.014
0.050,0.013
0.049,0.014
0.049,0.013
0.050,0.015
0.049,0.015
0.046,0.015
0.046,0.016
0.046,0.015
0.045,0.019
0.047,0.019
0.047,0.020
0.050,0.021
0.049,0.020
0.047,0.022
0.049,0.022
0.049,0.019
0.051,0.019
0.049,0.017
0.048,0.017
0.047,0.021
0.051,0.019
0.049,0.022
0.050,0.019
0.050,0.023
0.051,0.020
0.053,0.021
0.050,0.019
0.052,0.021
0.051,0.024
0.053,0.023
0.049,0.028
0.050,0.024
0.049,0.026
0.046,0.024
0.050,0.024
0.047,0.023
0.052,0.023
0.050,0.022
0.050,0.023
0.047,0.025
0.047,0.026
0.047,0.029
0.045,0.026
0.049,0.028
0.042,0.027
0.048,0.027
0.045,0.026
0.050,0.026
0.045,0.027
0.047,0.028
0.044,0.030
0.046,0.031
0.045,0.032
0.044,0.031
0.044,0.031
0.046,0.031
0.050,0.030
0.049,0.027
0.050,0.030
0.047,0.028
0.047,0.028
0.046,0.028
0.047,0.027
0.044,0.028
0.047,0.029
0.041,0.030
0.043,0.028
0.042,0.029
0.041,0.028
0.045,0.031
0.044,0.029
0.044,0.029
0.044,0.028
0.045,0.025
0.047,0.027
0.046,0.025
0.047,0.027
0.047,0.024
0.048,0.025
0.047,0.024
0.048,0.023
0.046,0.025
0.045,0.023
0.045,0.025
0.043,0.023
0.045,0.024
0.043,0.022
0.048,0.024
0.046,0.023
0.047,0.023
0.046,0.022
0.049,0.023
0.045,0.023
0.046,0.023
0.046,0.023
0.048,0.024
0.043,0.019
0.045,0.023
0.044,0.021
0.048,0.020
0.045,0.019
0.044,0.019
0.045,0.021
0.047,0.021
0.043,0.020
0.046,0.020
0.042,0.021
0.044,0.017
0.041,0.021
0.042,0.016
0.045,0.020
0.044,0.018
0.045,0.019
0.044,0.018
0.046,0.019
0.043,0.020
0.045,0.018
0.045,0.020
0.045,0.017
0.044,0.019
0.044,0.017
0.043,0.018
0.042,0.019
0.041,0.019
0.040,0.018
0.038,0.017
0.042,0.013
0.046,0.016
0.043,0.011
0.046,0.013
0.045,0.011
0.046,0.014
0.046,0.013
0.047,0.012
0.045,0.012
0.046,0.012
0.047,0.014
0.047,0.014
0.046,0.016
0.047,0.015
0.047,0.015
0.044,0.016
0.045,0.016
0.045,0.013
0.049,0.014
0.046,0.011
0.048,0.010
0.049,0.016
0.048,0.012
0.047,0.016
0.046,0.015
0.049,0.016
0.046,0.015
0.051,0.015
0.049,0.013
0.052,0.013
0.049,0.012
0.049,0.014
0.046,0.015
0.047,0.011
0.046,0.016
0.047,0.013
0.049,0.016
0.049,0.013
0.050,0.015
0.048,0.016
0.050,0.016
0.049,0.015
0.050,0.018
0.049,0.015
0.047,0.017
0.047,0.013
0.049,0.017
0.047,0.014
0.047,0.019
0.049,0.019
0.047,0.018
0.048,0.018
0.048,0.019
0.049,0.021
0.050,0.019
0.050,0.017
0.049,0.018
0.048,0.020
0.047,0.020
0.047,0.023
0.048,0.023
0.047,0.024
0.048,0.022
0.049,0.023
0.049,0.020
0.051,0.025
0.050,0.021
0.052,0.023
0.049,0.024
0.052,0.025
0.048,0.025
0.050,0.027
0.049,0.025
0.049,0.021
0.049,0.022
0.050,0.021
0.049,0.023
0.047,0.027
0.046,0.027
0.049,0.030
0.050,0.030
0.048,0.028
0.045,0.028
0.046,0.029
0.044,0.026
0.045,0.028
0.046,0.025
0.045,0.028
0.043,0.028
0.044,0.026
0.043,0.027
0.043,0.027
0.045,0.029
0.042,0.028
0.046,0.028
0.039,0.026
0.046,0.026
0.043,0.025
0.044,0.024
0.043,0.029
0.042,0.029
0.042,0.031
0.043,0.031
0.042,0.031
0.042,0.028
0.046,0.027
0.041,0.026
0.044,0.026
0.043,0.023
0.046,0.023
0.044,0.028
0.044,0.025
0.045,0.025
0.044,0.023
0.043,0.027
0.044,0.023
0.045,0.025
0.044,0.024
0.041,0.024
0.043,0.023
0.040,0.025
0.042,0.023
0.039,0.025
0.043,0.023
0.043,0.027
0.042,0.020
0.043,0.023
0.042,0.023
0.043,0.024
0.041,0.022
0.045,0.020
0.045,0.023
0.043,0.020
0.043,0.021
0.042,0.021
0.041,0.020
0.041,0.020
0.042,0.019
0.040,0.020
0.040,0.019
0.039,0.023
0.040,0.020
0.043,0.021
0.041,0.021
0.042,0.021
0.039,0.022
0.043,0.018
0.039,0.017
0.043,0.017
0.039,0.015
0.041,0.016
0.041,0.014
0.041,0.013
0.043,0.012
0.040,0.013
0.042,0.015
0.043,0.013
0.041,0.017
0.041,0.015
0.040,0.016
0.043,0.013
0.041,0.015
0.042,0.012
0.038,0.015
0.039,0.011
0.043,0.013
0.042,0.009
0.043,0.011
0.042,0.010
0.046,0.010
0.042,0.007
0.046,0.006
0.045,0.009
0.044,0.009
0.045,0.012
0.043,0.010
0.045,0.012
0.042,0.013
0.043,0.012
0.044,0.011
0.044,0.012
0.047,0.010
0.047,0.011
0.045,0.008
0.048,0.013
0.045,0.010
0.046,0.012
0.046,0.013
0.047,0.013
0.042,0.015
0.047,0.014
0.043,0.015
0.044,0.011
0.044,0.014
0.045,0.009
0.048,0.010
0.045,0.010
0.047,0.011
0.046,0.013
0.046,0.012
0.043,0.013
0.047,0.012
0.048,0.015
0.049,0.010
0.047,0.013
0.048,0.013
0.049,0.015
0.049,0.011
0.049,0.013
0.047,0.010
0.048,0.012
0.046,0.011
0.047,0.013
0.047,0.013
0.045,0.015
0.047,0.012
0.045,0.015
0.045,0.015
0.048,0.017
0.044,0.014
0.049,0.015
0.049,0.013
0.052,0.015
0.049,0.015
0.049,0.013
0.044,0.018
0.047,0.018
0.044,0.020
0.047,0.023
0.046,0.023
0.047,0.022
0.049,0.021
0.047,0.020
0.048,0.019
0.050,0.021
0.048,0.021
0.050,0.021
0.046,0.021
0.044,0.022
0.044,0.020
0.048,0.025
0.046,0.023
0.045,0.023
0.046,0.026
0.047,0.025
0.045,0.026
0.043,0.025
0.047,0.026
0.045,0.026
0.050,0.027
0.044,0.026
0.046,0.026
0.045,0.026
0.044,0.024
0.043,0.030
0.044,0.027
0.043,0.029
0.045,0.027
0.044,0.026
0.045,0.025
0.045,0.025
0.045,0.023
0.043,0.029
0.043,0.028
0.046,0.028
0.043,0.028
0.045,0.026
0.043,0.030
0.048,0.028
0.043,0.030
0.044,0.028
0.043,0.029
0.045,0.028
0.046,0.030
0.045,0.026
0.045,0.026
0.046,0.024
0.042,0.026
0.045,0.027
0.045,0.026
0.043,0.027
0.044,0.027
0.041,0.028
0.044,0.027
0.044,0.029
0.045,0.027
0.042,0.029
0.042,0.028
0.041,0.027
0.041,0.025
0.041,0.028
0.040,0.026
0.038,0.026
0.044,0.027
0.041,0.025
0.044,0.021
0.041,0.023
0.045,0.021
0.043,0.023
0.045,0.021
0.043,0.025
0.044,0.023
0.041,0.023
0.041,0.023
0.039,0.025
0.040,0.023
0.039,0.022
0.042,0.019
0.040,0.019
0.043,0.020
0.041,0.022
0.043,0.020
0.043,0.021
0.041,0.017
0.042,0.017
0.042,0.015
0.042,0.017
0.040,0.015
0.042,0.015
0.040,0.016
0.041,0.015
0.039,0.017
0.042,0.015
0.040,0.020
0.043,0.017
0.039,0.019
0.041,0.016
0.039,0.017
0.041,0.014
0.040,0.012
0.039,0.013
0.040,0.010
0.040,0.010
0.043,0.011
0.042,0.009
0.044,0.010
0.045,0.012
0.041,0.011
0.044,0.013
0.041,0.011
0.044,0.012
0.044,0.012
0.045,0.011
0.044,0.012
0.044,0.013
0.045,0.013
0.044,0.012
0.046,0.011
0.045,0.011
0.046,0.009
0.049,0.011
0.048,0.013
0.045,0.008
0.046,0.015
0.043,0.011
0.046,0.015
0.042,0.012
0.046,0.014
0.047,0.012
0.047,0.010
0.047,0.010
0.047,0.010
0.048,0.011
0.044,0.012
0.048,0.012
0.046,0.013
0.045,0.013
0.046,0.013
0.045,0.017
0.046,0.015
0.046,0.015
0.049,0.013
0.046,0.015
0.047,0.013
0.044,0.015
0.048,0.011
0.048,0.017
0.045,0.015
0.045,0.018
0.047,0.015
0.047,0.014
0.045,0.015
0.047,0.016
0.048,0.018
0.045,0.018
0.050,0.015
0.049,0.018
0.050,0.016
0.051,0.017
0.050,0.018
0.047,0.018
0.047,0.021
0.046,0.017
0.043,0.021
0.044,0.016
0.047,0.020
0.046,0.017
0.050,0.017
0.047,0.016
0.049,0.020
0.047,0.022
0.048,0.021
0.046,0.027
0.049,0.024
0.046,0.023
0.046,0.022
0.045,0.022
0.045,0.023
0.047,0.023
0.043,0.027
0.046,0.025
0.043,0.029
0.046,0.030
0.043,0.028
0.045,0.030
0.048,0.030
0.045,0.026
0.046,0.033
0.048,0.030
0.045,0.028
0.044,0.032
0.045,0.030
0.043,0.034
0.045,0.028
0.045,0.032
0.046,0.027
0.048,0.028
0.045,0.026
0.047,0.029
0.046,0.029
0.045,0.026
0.044,0.032
0.043,0.028
0.043,0.030
0.043,0.028
0.042,0.032
0.041,0.031
0.045,0.033
0.044,0.028
0.049,0.029
0.045,0.027
0.049,0.029
0.047,0.028
0.047,0.028
0.044,0.029
0.047,0.028
0.046,0.029
0.048,0.028
0.045,0.028
0.046,0.028
0.043,0.028
0.044,0.026
0.042,0.028
0.043,0.025
0.041,0.029
0.043,0.024
0.040,0.026
0.041,0.024
0.043,0.026
0.040,0.025
0.043,0.027
0.042,0.024
0.046,0.026
0.044,0.025
0.046,0.027
0.046,0.024
0.047,0.025
0.043,0.022
0.045,0.026
0.044,0.023
0.043,0.025
0.044,0.022
0.042,0.026
0.041,0.021
0.041,0.024
0.042,0.023
0.042,0.022
0.039,0.022
0.043,0.021
0.041,0.020
0.043,0.019
0.039,0.018
0.042,0.019
0.041,0.017
0.039,0.016
0.043,0.016
0.041,0.015
0.044,0.018
0.042,0.014
0.044,0.017
0.042,0.017
0.042,0.017
0.042,0.015
0.042,0.016
0.042,0.014
0.042,0.015
0.041,0.011
0.043,0.012
0.042,0.008
0.046,0.011
0.045,0.013
0.045,0.011
0.044,0.011
0.045,0.010
0.045,0.014
0.044,0.013
0.045,0.013
0.045,0.015
0.044,0.015
0.043,0.013
0.045,0.015
0.045,0.013
0.044,0.012
0.045,0.010
0.048,0.010
0.048,0.011
0.049,0.013
0.046,0.009
0.047,0.011
0.048,0.012
0.049,0.011
0.045,0.011
0.047,0.010
0.042,0.013
0.047,0.013
0.045,0.017
0.044,0.011
0.046,0.015
0.045,0.012
0.049,0.014
0.044,0.012
0.047,0.012
0.044,0.015
0.045,0.011
0.044,0.017
0.047,0.016
0.046,0.018
0.048,0.017
0.046,0.016
0.047,0.016
0.045,0.017
0.048,0.016
0.045,0.019
0.048,0.016
0.046,0.019
0.047,0.019
0.047,0.020
0.044,0.018
0.045,0.019
0.046,0.016
0.050,0.017
0.046,0.015
0.050,0.015
0.049,0.017
0.049,0.018
0.047,0.020
0.050,0.018
0.045,0.021
0.046,0.018
0.047,0.021
0.046,0.020
0.048,0.020
0.046,0.019
0.048,0.019
0.050,0.024
0.050,0.022
0.047,0.026
0.048,0.026
0.048,0.025
0.045,0.024
0.049,0.025
0.047,0.025
0.048,0.021
0.045,0.024
0.043,0.021
0.045,0.025
0.043,0.026
0.042,0.027
0.040,0.025
0.045,0.028
0.044,0.026
0.047,0.027
0.046,0.025
0.047,0.027
0.045,0.028
0.047,0.028
0.043,0.032
0.046,0.031
0.043,0.031
0.044,0.030
0.043,0.031
0.046,0.031
0.044,0.031
0.045,0.029
0.046,0.028
0.041,0.028
0.043,0.030
0.039,0.031
0.044,0.028
0.039,0.028
0.043,0.029
0.042,0.031
0.043,0.028
0.045,0.031
0.042,0.026
0.045,0.027
0.044,0.027
0.044,0.026
0.043,0.028
0.044,0.023
0.044,0.028
0.044,0.025
0.042,0.028
0.044,0.026
0.042,0.026
0.041,0.027
0.043,0.024
0.040,0.025
0.040,0.027
0.042,0.026
0.040,0.025
0.042,0.023
0.039,0.024
0.039,0.022
0.037,0.023
0.040,0.021
0.040,0.021
0.041,0.021
0.039,0.021
0.042,0.021
0.039,0.024
0.043,0.022
0.041,0.024
0.041,0.021
0.039,0.022
0.041,0.017
0.038,0.020
0.038,0.019
0.038,0.025
0.037,0.020
0.037,0.022
0.037,0.021
0.039,0.021
0.037,0.020
0.042,0.019
0.039,0.018
0.043,0.015
0.042,0.013
0.042,0.012
0.042,0.014
0.039,0.015
0.037,0.015
0.040,0.015
0.038,0.017
0.039,0.016
0.039,0.017
0.040,0.012
0.038,0.017
0.041,0.014
0.041,0.015
0.042,0.012
0.042,0.009
0.039,0.011
0.044,0.008
0.040,0.009
0.041,0.009
0.043,0.011
0.042,0.008
0.042,0.010
0.040,0.008
0.039,0.010
0.044,0.007
0.043,0.009
0.045,0.009
0.043,0.010
0.043,0.006
0.047,0.011
0.040,0.005
0.043,0.009
0.042,0.006
0.043,0.008
0.042,0.007
0.045,0.007
0.041,0.007
0.043,0.009
0.042,0.010
0.042,0.010
0.042,0.008
0.042,0.010
0.043,0.010
0.043,0.009
0.045,0.006
0.045,0.008
0.045,0.008
0.042,0.008
0.042,0.007
0.045,0.009
0.043,0.009
0.043,0.013
0.045,0.011
0.043,0.009
0.044,0.008
0.041,0.009
0.043,0.011
0.042,0.013
0.044,0.012
0.045,0.013
0.046,0.011
0.048,0.010
0.046,0.012
0.048,0.012
0.047,0.013
0.048,0.013
0.047,0.011
0.048,0.011
0.048,0.011
0.048,0.011
0.046,0.012
0.049,0.015
0.049,0.012
0.050,0.012
0.050,0.013
0.051,0.014
0.045,0.017
0.047,0.014
0.046,0.017
0.050,0.017
0.047,0.017
0.047,0.016
0.047,0.017
0.047,0.016
0.048,0.017
0.046,0.020
0.045,0.018
0.042,0.023
0.044,0.020
0.046,0.022
0.047,0.019
0.049,0.022
0.046,0.021
0.049,0.022
0.046,0.023
0.047,0.022
0.044,0.028
0.047,0.025
0.046,0.026
0.045,0.023
0.048,0.026
0.048,0.023
0.049,0.027
0.044,0.026
0.048,0.026
0.043,0.026
0.044,0.028
0.042,0.028
0.044,0.028
0.042,0.025
0.043,0.026
0.045,0.023
0.044,0.024
0.048,0.024
0.048,0.028
0.045,0.024
0.044,0.027
0.043,0.025
0.045,0.027
0.043,0.029
0.045,0.031
0.043,0.025
0.044,0.026
0.043,0.026
0.045,0.027
0.044,0.028
0.044,0.025
0.048,0.025
0.045,0.024
0.044,0.028
0.042,0.026
0.041,0.027
0.041,0.026
0.040,0.028
0.039,0.026
0.041,0.030
0.041,0.026
0.039,0.029
0.041,0.025
0.041,0.028
0.038,0.026
0.038,0.027
0.035,0.026
0.037,0.028
0.037,0.028
0.036,0.028
0.040,0.028
0.039,0.025
0.043,0.026
0.039,0.026
0.042,0.025
0.039,0.025
0.041,0.022
0.041,0.023
0.040,0.022
0.042,0.023
0.041,0.023
0.037,0.023
0.040,0.023
0.039,0.023
0.040,0.023
0.038,0.022
0.042,0.020
0.043,0.020
0.040,0.018
0.042,0.020
0.044,0.015
0.043,0.017
0.040,0.018
0.044,0.019
0.040,0.019
0.042,0.016
0.039,0.015
0.040,0.015
0.041,0.017
0.043,0.013
0.043,0.016
0.045,0.012
0.044,0.017
0.041,0.013
-0.023,-0.014
-0.026,-0.013
-0.032,-0.008
-0.022,-0.004
-0.019,-0.002
-0.012,0.000
-0.005,0.001
-0.003,0.005
0.049,0.005
0.255,0.004
0.931,0.003
2.144,-0.150
3.569,-0.578
4.301,-1.141
3.831,-1.365
2.229,-0.520
0.281,1.330
-1.134,3.261
-2.227,4.364
-2.939,4.957
-3.166,4.455
-2.935,2.222
-2.437,-0.598
-1.859,-2.924
-1.253,-4.269
-0.671,-4.464
-0.163,-3.418
0.231,-1.988
0.484,-0.945
0.593,-0.381
0.537,-0.121
0.405,-0.017
0.255,0.031
0.145,0.046
0.087,0.041
0.056,0.030
0.047,0.020
0.040,0.007
0.038,0.003
0.036,0.000
0.034,-0.001
0.034,-0.001
0.033,0.002
0.036,0.003
0.033,0.001
0.034,-0.003
0.034,-0.004
0.037,-0.009
0.036,-0.009
0.036,-0.013
0.037,-0.013
0.035,-0.012
0.040,-0.013
0.043,-0.016
0.045,-0.016
0.050,-0.014
0.056,-0.017
0.057,-0.019
0.054,-0.015
0.049,-0.015
0.037,-0.014
0.028,-0.013
0.019,-0.009
0.011,-0.008
0.012,-0.002
0.024,-0.002
0.040,0.000
0.047,-0.001
0.052,-0.000
0.048,-0.005
0.045,-0.004
0.040,-0.007
0.041,-0.007
0.042,-0.005
0.044,-0.002
0.041,-0.001
0.042,-0.001
0.042,0.003
0.044,0.005
0.041,0.007
0.041,0.006
0.042,0.006
0.039,0.004
0.044,0.006
0.041,0.004
0.046,0.006
0.043,0.008
0.045,0.008
0.040,0.010
0.043,0.011
0.042,0.010
0.043,0.011
0.043,0.010
0.042,0.013
0.042,0.012
0.044,0.010
0.042,0.010
0.044,0.011
0.043,0.012
0.042,0.015
0.043,0.011
0.039,0.013
0.043,0.012
0.042,0.015
0.043,0.013
0.043,0.015
0.042,0.015
0.040,0.012
0.041,0.013
0.041,0.014
0.039,0.018
0.040,0.015
0.040,0.019
0.039,0.018
0.042,0.017
0.039,0.015
0.043,0.017
0.040,0.017
0.045,0.014
0.043,0.017
0.042,0.016
0.042,0.019
0.041,0.017
0.041,0.019
0.042,0.016
0.042,0.017
0.042,0.016
0.040,0.015
0.038,0.017
0.036,0.018
0.038,0.017
0.037,0.016
0.038,0.017
0.038,0.017
0.039,0.018
0.039,0.018
0.040,0.018
0.039,0.020
0.042,0.019
0.041,0.020
0.039,0.019
0.039,0.015
0.040,0.017
0.039,0.015
0.040,0.019
0.037,0.016
0.039,0.016
0.037,0.017
0.039,0.015
0.038,0.019
0.040,0.016
0.036,0.017
0.038,0.018
0.039,0.019
0.039,0.017
0.038,0.017
0.040,0.017
0.037,0.015
0.040,0.014
0.037,0.016
0.040,0.015
0.042,0.014
0.039,0.011
0.042,0.014
0.042,0.010
0.043,0.014
0.042,0.012
0.041,0.012
0.040,0.015
0.042,0.012
0.038,0.013
0.040,0.013
0.036,0.015
0.038,0.010
0.037,0.012
0.039,0.011
0.040,0.013
0.040,0.012
0.042,0.012
0.043,0.011
0.045,0.011
0.044,0.010
0.043,0.010
0.047,0.011
0.044,0.008
0.044,0.012
0.042,0.011
0.042,0.011
0.043,0.013
0.043,0.014
0.043,0.012
0.045,0.014
0.044,0.010
0.047,0.012
0.045,0.011
0.046,0.012
0.046,0.013
0.046,0.012
0.047,0.013
0.046,0.011
0.045,0.011
0.046,0.010
0.049,0.012
0.045,0.010
0.049,0.012
0.046,0.011
0.048,0.012
0.046,0.013
0.048,0.014
0.046,0.012
0.050,0.016
0.051,0.015
0.054,0.016
0.054,0.016
0.053,0.016
0.054,0.011
0.055,0.015
0.053,0.015
0.052,0.013
0.052,0.016
0.054,0.015
0.051,0.018
0.053,0.016
0.051,0.018
0.049,0.016
0.051,0.020
0.050,0.019
0.050,0.017
0.050,0.019
0.055,0.018
0.050,0.020
0.053,0.017
0.050,0.021
0.051,0.017
0.051,0.023
0.049,0.020
0.050,0.020
0.046,0.021
0.053,0.021
0.049,0.023
0.055,0.024
0.051,0.025
0.052,0.024
0.053,0.027
0.053,0.025
0.050,0.023
0.052,0.022
0.051,0.024
0.050,0.024
0.050,0.025
0.052,0.026
0.051,0.026
0.051,0.029
0.053,0.028
0.051,0.031
0.052,0.027
0.049,0.028
0.053,0.026
0.055,0.028
0.053,0.025
0.052,0.025
0.051,0.027
0.050,0.026
0.049,0.031
0.048,0.029
0.049,0.030
0.047,0.031
0.049,0.031
0.049,0.028
0.053,0.029
0.051,0.030
0.053,0.026
0.051,0.029
0.052,0.027
0.050,0.031
0.049,0.026
0.048,0.026
0.048,0.026
0.047,0.029
0.044,0.026
0.045,0.026
0.044,0.026
0.048,0.027
0.047,0.022
0.049,0.024
0.047,0.025
0.049,0.021
0.046,0.026
0.046,0.022
0.047,0.025
0.048,0.021
0.047,0.024
0.047,0.023
0.045,0.024
0.045,0.023
0.044,0.025
0.044,0.023
0.043,0.022
0.044,0.023
0.045,0.021
0.044,0.024
0.046,0.022
0.046,0.023
0.046,0.020
0.047,0.023
0.046,0.020
0.048,0.020
0.047,0.020
0.047,0.017
0.045,0.018
0.048,0.016
0.046,0.018
0.047,0.016
0.045,0.019
0.043,0.015
0.044,0.018
0.043,0.017
0.044,0.015
0.044,0.017
0.045,0.017
0.043,0.016
0.044,0.017
0.043,0.015
0.042,0.013
0.044,0.012
0.044,0.013
0.043,0.011
0.045,0.010
0.047,0.010
0.046,0.010
0.045,0.013
0.048,0.011
0.045,0.013
0.047,0.011
0.044,0.011
0.042,0.008
0.044,0.010
0.041,0.009
0.043,0.006
0.040,0.006
0.042,0.006
0.044,0.004
0.045,0.006
0.044,0.006
0.043,0.007
0.045,0.008
0.043,0.008
0.046,0.010
0.044,0.008
0.046,0.009
0.047,0.007
0.045,0.011
0.046,0.010
0.045,0.011
0.044,0.008
0.047,0.010
0.045,0.010
0.049,0.009
0.044,0.008
0.046,0.005
0.045,0.009
0.045,0.007
0.046,0.010
0.043,0.009
0.047,0.008
0.047,0.009
0.047,0.012
0.046,0.011
0.047,0.013
0.044,0.010
0.049,0.011
0.048,0.009
0.049,0.008
0.045,0.007
0.047,0.008
0.048,0.011
0.047,0.008
0.049,0.011
0.049,0.009
0.049,0.014
0.049,0.011
0.050,0.012
0.050,0.011
0.049,0.012
0.048,0.013
0.048,0.017
0.047,0.013
0.048,0.017
0.049,0.014
0.046,0.016
0.048,0.014
0.047,0.016
0.044,0.018
0.049,0.016
0.045,0.014
0.047,0.014
0.049,0.016
0.048,0.015
0.048,0.021
0.046,0.021
0.045,0.023
0.044,0.018
0.045,0.019
0.045,0.019
0.047,0.020
0.048,0.020
0.050,0.024
0.048,0.021
0.049,0.020
0.046,0.023
0.049,0.024
0.046,0.024
0.046,0.023
0.046,0.024
0.047,0.024
0.045,0.025
0.048,0.023
0.047,0.026
0.047,0.023
0.049,0.025
0.048,0.028
0.047,0.028
0.042,0.029
0.045,0.029
0.043,0.028
0.043,0.027
0.045,0.028
0.044,0.024
0.047,0.026
0.044,0.027
0.045,0.026
0.044,0.031
0.043,0.028
0.042,0.030
0.041,0.029
0.045,0.028
0.041,0.026
0.047,0.026
0.043,0.023
0.048,0.026
0.045,0.028
0.045,0.025
0.045,0.030
0.043,0.024
0.044,0.026
0.043,0.026
0.043,0.029
0.040,0.028
0.044,0.029
0.042,0.029
0.044,0.029
0.044,0.025
0.046,0.028
0.044,0.024
0.045,0.027
0.045,0.025
0.045,0.028
0.046,0.025
0.046,0.024
0.043,0.023
0.045,0.022
0.043,0.023
0.042,0.022
0.043,0.023
0.043,0.025
0.043,0.024
0.045,0.024
0.044,0.023
0.046,0.023
0.041,0.023
0.043,0.022
0.041,0.021
0.040,0.023
0.039,0.024
0.041,0.026
0.041,0.024
0.040,0.023
0.043,0.023
0.041,0.023
0.042,0.023
0.042,0.023
0.045,0.024
0.043,0.023
0.041,0.024
0.041,0.023
0.039,0.022
0.043,0.022
0.041,0.023
0.042,0.019
0.038,0.023
0.042,0.021
0.040,0.019
0.040,0.016
0.041,0.017
0.039,0.015
0.043,0.017
0.043,0.018
0.046,0.015
0.046,0.015
0.044,0.014
0.046,0.015
0.045,0.013
0.044,0.014
0.042,0.012
0.042,0.011
0.044,0.010
0.040,0.013
0.040,0.011
0.040,0.011
0.041,0.010
0.045,0.012
0.044,0.010
0.047,0.010
0.044,0.008
0.045,0.008
0.044,0.010
0.047,0.009
0.048,0.010
0.046,0.008
0.048,0.010
0.044,0.011
0.045,0.012
0.043,0.009
0.045,0.011
0.045,0.009
0.046,0.010
0.045,0.006
0.043,0.008
0.044,0.010
0.041,0.009
0.044,0.013
0.044,0.010
0.044,0.014
0.045,0.012
0.043,0.012
0.046,0.010
0.047,0.012
0.044,0.010
0.049,0.011
0.045,0.010
0.046,0.013
0.045,0.011
0.050,0.010
0.046,0.009
0.052,0.012
0.048,0.013
0.049,0.013
0.050,0.012
0.050,0.013
0.049,0.010
0.049,0.011
0.050,0.011
0.047,0.015
0.047,0.013
0.048,0.014
0.045,0.017
0.044,0.015
0.047,0.018
0.047,0.013
0.047,0.018
0.047,0.017
0.047,0.020
0.044,0.019
0.045,0.019
0.045,0.020
0.044,0.018
0.049,0.019
0.044,0.019
0.048,0.020
0.044,0.020
0.043,0.024
0.046,0.024
0.046,0.024
0.047,0.021
0.048,0.024
0.046,0.022
0.050,0.024
0.046,0.023
0.047,0.022
0.041,0.026
0.045,0.021
0.043,0.023
0.041,0.022
0.045,0.025
0.043,0.023
0.049,0.025
0.046,0.026
0.047,0.027
0.044,0.031
0.045,0.028
0.040,0.031
0.041,0.030
0.044,0.031
0.042,0.030
0.045,0.032
0.043,0.031
0.043,0.028
0.044,0.032
0.045,0.031
0.042,0.033
0.042,0.029
0.044,0.029
0.041,0.030
0.045,0.029
0.041,0.029
0.045,0.027
0.044,0.028
0.043,0.026
0.045,0.029
0.042,0.030
0.043,0.032
0.040,0.028
0.040,0.030
0.040,0.029
0.039,0.027
0.038,0.027
0.039,0.028
0.041,0.026
0.039,0.028
0.041,0.026
0.042,0.028
0.042,0.029
0.042,0.028
0.042,0.028
0.045,0.028
0.040,0.027
0.041,0.029
0.040,0.027
0.043,0.027
0.039,0.026
0.042,0.027
0.039,0.024
0.042,0.028
0.037,0.025
0.044,0.029
0.040,0.027
0.040,0.027
0.041,0.027
0.043,0.029
0.040,0.029
0.041,0.026
0.040,0.024
0.039,0.027
0.040,0.026
0.041,0.026
0.040,0.025
0.043,0.023
0.043,0.023
0.042,0.021
0.043,0.024
0.041,0.024
0.041,0.026
0.037,0.023
0.037,0.023
0.039,0.023
0.039,0.023
0.040,0.024
0.039,0.022
0.038,0.020
0.040,0.019
0.041,0.020
0.043,0.019
0.042,0.014
0.043,0.015
0.042,0.014
0.044,0.013
0.042,0.016
0.043,0.014
0.042,0.017
0.042,0.014
0.041,0.016
0.040,0.014
0.040,0.016
0.040,0.013
0.043,0.015
0.042,0.015
0.047,0.014
0.044,0.013
0.049,0.012
0.045,0.010
0.047,0.012
0.046,0.011
0.045,0.011
0.047,0.012
0.046,0.010
0.045,0.014
0.044,0.013
0.041,0.014
0.045,0.012
0.044,0.013
0.043,0.010
0.044,0.011
0.043,0.009
0.047,0.012
0.043,0.009
0.046,0.010
0.044,0.010
0.047,0.010
0.046,0.016
0.046,0.013
0.045,0.013
0.046,0.014
0.046,0.014
0.043,0.014
0.045,0.016
0.043,0.017
0.047,0.015
0.044,0.013
0.046,0.015
0.048,0.018
0.049,0.017
0.047,0.014
0.052,0.015
0.048,0.013
0.052,0.016
0.050,0.017
0.050,0.018
0.046,0.016
0.046,0.016
0.047,0.021
0.046,0.019
0.046,0.020
0.047,0.021
0.047,0.022
0.047,0.022
0.047,0.022
0.045,0.022
0.043,0.021
0.045,0.020
0.047,0.021
0.046,0.020
0.049,0.023
0.047,0.021
0.047,0.024
0.047,0.025
0.047,0.024
0.045,0.026
0.048,0.026
0.049,0.027
0.047,0.024
0.049,0.026
0.046,0.024
0.049,0.026
0.049,0.030
0.049,0.026
0.046,0.032
0.049,0.026
0.046,0.031
0.045,0.029
0.048,0.029
0.049,0.027
0.048,0.025
0.051,0.027
0.047,0.028
0.047,0.035
0.047,0.032
0.045,0.033
0.044,0.031
0.047,0.031
0.044,0.029
0.047,0.031
0.045,0.032
0.048,0.031
0.045,0.031
0.045,0.031
0.043,0.034
0.045,0.035
0.044,0.037
0.043,0.035
0.046,0.033
0.041,0.033
0.042,0.032
0.039,0.029
0.043,0.034
0.045,0.029
0.046,0.034
0.043,0.032
0.049,0.033
0.042,0.035
0.046,0.032
0.039,0.036
0.040,0.033
0.042,0.034
0.041,0.030
0.043,0.035
0.043,0.032
0.045,0.034
0.041,0.032
0.046,0.032
0.044,0.031
0.045,0.032
0.043,0.031
0.042,0.032
0.040,0.027
0.044,0.029
0.041,0.026
0.042,0.030
0.040,0.029
0.044,0.031
0.041,0.029
0.045,0.029
0.043,0.027
0.044,0.028
0.043,0.025
0.046,0.026
0.045,0.026
0.044,0.024
0.043,0.027
0.044,0.023
0.043,0.022
0.041,0.025
0.043,0.023
0.044,0.024
0.046,0.024
0.043,0.024
0.044,0.029
0.044,0.025
0.041,0.026
0.044,0.021
0.043,0.023
0.044,0.023
0.044,0.023
0.041,0.022
0.040,0.020
0.041,0.020
0.038,0.021
0.038,0.019
0.039,0.017
0.040,0.018
0.040,0.017
0.043,0.015
0.042,0.015
0.043,0.019
0.042,0.017
0.042,0.021
0.040,0.017
0.040,0.015
0.040,0.017
0.039,0.015
0.037,0.015
0.042,0.014
0.040,0.015
0.041,0.013
0.040,0.011
0.043,0.013
0.042,0.010
0.041,0.012
0.044,0.013
0.044,0.012
0.046,0.015
0.046,0.011
0.045,0.013
0.045,0.012
0.045,0.015
0.044,0.013
0.045,0.017
0.045,0.012
0.050,0.013
0.049,0.012
0.049,0.013
0.046,0.015
0.049,0.014
0.046,0.017
0.046,0.014
0.044,0.015
0.045,0.013
0.049,0.013
0.044,0.010
0.047,0.013
0.046,0.013
0.048,0.012
0.045,0.014
0.047,0.016
0.045,0.015
0.049,0.016
0.048,0.016
0.049,0.018
0.049,0.016
0.049,0.018
0.050,0.017
0.051,0.013
0.049,0.017
0.051,0.017
0.048,0.022
0.049,0.019
0.047,0.022
0.048,0.017
0.045,0.018
0.045,0.018
0.048,0.019
0.048,0.019
0.050,0.020
0.050,0.019
0.054,0.019
0.050,0.019
0.052,0.019
0.051,0.020
0.049,0.022
0.050,0.022
0.049,0.023
0.048,0.021
0.049,0.022
0.047,0.023
0.049,0.021
0.052,0.024
0.051,0.023
0.051,0.023
0.049,0.024
0.050,0.024
0.047,0.029
0.047,0.027
0.046,0.027
0.045,0.026
0.047,0.026
0.045,0.027
0.049,0.029
0.048,0.025
0.046,0.027
0.050,0.027
0.049,0.028
0.048,0.032
0.048,0.030
0.046,0.031
0.047,0.031
0.049,0.028
0.050,0.027
0.049,0.028
0.050,0.028
0.049,0.028
0.047,0.033
0.047,0.032
0.047,0.031
0.044,0.030
0.047,0.032
0.044,0.030
0.046,0.032
0.043,0.027
0.048,0.030
0.044,0.032
0.047,0.032
0.044,0.034
0.049,0.033
0.045,0.035
0.048,0.031
0.046,0.032
0.043,0.027
0.045,0.029
0.043,0.026
0.044,0.029
0.044,0.026
0.044,0.028
0.045,0.029
0.045,0.030
0.044,0.030
0.045,0.032
0.043,0.032
0.047,0.029
0.044,0.033
0.045,0.026
0.043,0.031
0.044,0.027
0.044,0.034
0.042,0.029
0.045,0.029
0.043,0.024
0.043,0.026
0.042,0.024
0.043,0.027
0.043,0.024
0.045,0.026
0.044,0.027
0.045,0.028
0.045,0.024
0.046,0.022
0.045,0.023
0.043,0.021
0.042,0.020
0.043,0.023
0.042,0.021
0.042,0.023
0.041,0.023
0.043,0.022
0.043,0.021
0.043,0.023
0.042,0.019
0.041,0.020
0.043,0.020
0.043,0.021
0.044,0.020
0.042,0.020
0.044,0.018
0.045,0.017
0.044,0.018
0.044,0.015
0.046,0.019
0.048,0.018
0.044,0.019
0.045,0.017
0.042,0.018
0.040,0.014
0.043,0.018
0.040,0.018
0.040,0.018
0.038,0.018
0.040,0.016
0.040,0.016
0.041,0.017
0.042,0.013
0.043,0.014
0.047,0.014
0.044,0.012
0.045,0.017
0.043,0.016
0.044,0.017
0.045,0.016
0.044,0.019
0.045,0.015
0.044,0.019
0.044,0.015
0.044,0.013
0.044,0.013
0.044,0.017
0.044,0.014
0.045,0.014
0.046,0.014
0.047,0.013
0.046,0.017
0.045,0.012
0.044,0.015
0.047,0.013
0.044,0.016
0.043,0.012
0.046,0.016
0.044,0.013
0.046,0.013
0.045,0.013
0.049,0.017
0.047,0.012
0.048,0.014
0.046,0.011
0.049,0.014
0.048,0.015
0.049,0.016
0.048,0.017
0.050,0.017
0.049,0.017
0.050,0.015
0.047,0.018
0.049,0.015
0.046,0.019
0.047,0.015
0.049,0.019
0.047,0.016
0.046,0.019
0.045,0.017
0.047,0.022
0.044,0.020
0.050,0.022
0.045,0.020
0.049,0.023
0.048,0.018
0.050,0.021
0.048,0.019
0.045,0.023
0.044,0.024
0.045,0.025
0.042,0.026
0.047,0.024
0.045,0.025
0.045,0.022
0.047,0.024
0.046,0.024
0.048,0.024
0.049,0.025
0.052,0.025
0.048,0.028
0.049,0.029
0.048,0.032
0.047,0.029
0.047,0.030
0.051,0.028
0.051,0.029
0.049,0.031
0.047,0.029
0.047,0.034
0.048,0.030
0.047,0.031
0.045,0.031
0.048,0.030
0.044,0.032
0.047,0.032
0.045,0.030
0.044,0.031
0.045,0.032
0.044,0.032
0.043,0.035
0.045,0.034
0.043,0.036
0.043,0.036
0.044,0.036
0.043,0.035
0.047,0.034
0.042,0.030
0.043,0.032
0.042,0.035
0.044,0.032
0.044,0.035
0.046,0.033
0.043,0.037
0.043,0.034
0.042,0.036
0.041,0.036
0.044,0.035
0.041,0.031
0.046,0.032
0.044,0.030
0.046,0.034
0.046,0.034
0.048,0.032
0.042,0.034
0.046,0.032
0.044,0.036
0.045,0.032
0.043,0.035
0.043,0.032
0.045,0.031
0.042,0.033
0.041,0.035
0.042,0.032
0.038,0.033
0.042,0.031
0.037,0.032
0.042,0.027
0.043,0.031
0.042,0.028
0.044,0.030
0.043,0.027
0.045,0.030
0.043,0.029
0.044,0.031
0.044,0.026
0.042,0.027
0.041,0.026
0.040,0.028
0.043,0.026
0.040,0.029
0.039,0.026
0.039,0.027
0.041,0.025
0.039,0.024
0.038,0.023
0.043,0.023
0.042,0.023
0.044,0.021
0.040,0.020
0.044,0.019
0.043,0.019
0.042,0.020
0.044,0.020
0.043,0.017
0.043,0.020
0.040,0.017
0.041,0.022
0.043,0.019
0.041,0.023
0.043,0.021
0.044,0.022
0.043,0.020
0.042,0.019
0.040,0.017
0.045,0.017
0.042,0.017
0.045,0.014
0.041,0.013
0.044,0.014
0.042,0.016
0.041,0.016
0.046,0.018
0.043,0.015
0.043,0.017
0.044,0.015
0.044,0.013
0.046,0.013
0.046,0.016
0.044,0.012
0.044,0.015
0.044,0.010
0.048,0.011
0.046,0.013
0.047,0.011
0.042,0.012
0.044,0.014
0.045,0.018
0.042,0.013
0.045,0.016
0.045,0.016
0.044,0.016
0.043,0.016
0.047,0.015
0.043,0.015
0.048,0.016
0.047,0.013
0.048,0.014
0.048,0.014
0.047,0.016
0.048,0.018
0.048,0.015
0.045,0.016
0.045,0.018
0.045,0.020
0.048,0.018
0.046,0.019
0.051,0.014
0.047,0.019
0.049,0.016
0.049,0.019
0.049,0.017
0.049,0.020
0.049,0.019
0.049,0.017
0.048,0.016
0.050,0.016
0.049,0.015
0.050,0.018
0.050,0.017
0.049,0.019
0.051,0.019
0.052,0.018
0.048,0.021
0.049,0.022
0.044,0.025
0.047,0.022
0.045,0.026
0.046,0.021
0.048,0.023
0.046,0.021
0.049,0.022
0.048,0.023
0.046,0.026
0.046,0.030
0.049,0.029
0.046,0.031
0.049,0.029
0.048,0.028
0.047,0.029
0.047,0.027
0.048,0.026
0.047,0.026
0.049,0.032
0.046,0.030
0.046,0.034
0.044,0.032
0.046,0.029
0.048,0.031
0.049,0.031
0.051,0.031
0.049,0.032
0.049,0.033
0.047,0.032
0.045,0.035
0.044,0.033
0.045,0.032
0.043,0.028
0.045,0.032
0.045,0.029
0.048,0.032
0.046,0.028
0.046,0.030
0.046,0.031
0.045,0.031
0.042,0.031
0.041,0.030
0.041,0.030
0.041,0.029
0.044,0.030
0.041,0.028
0.046,0.028
0.044,0.028
0.049,0.030
0.046,0.031
0.045,0.030
0.044,0.032
0.044,0.030
0.042,0.029
0.046,0.031
0.043,0.030
0.046,0.030
0.041,0.030
0.044,0.029
0.043,0.031
0.043,0.028
0.042,0.029
0.042,0.026
0.041,0.030
0.041,0.025
0.039,0.029
0.039,0.028
0.041,0.025
0.038,0.026
0.042,0.028
0.042,0.028
0.041,0.031
0.043,0.028
0.041,0.028
0.041,0.026
0.041,0.028
0.039,0.023
0.039,0.025
0.040,0.024
0.041,0.023
0.039,0.024
0.040,0.026
0.040,0.025
0.040,0.025
0.041,0.020
0.040,0.021
0.042,0.020
0.041,0.022
0.039,0.022
0.043,0.021
0.043,0.021
0.041,0.019
0.043,0.023
0.041,0.020
0.040,0.021
0.042,0.022
0.039,0.023
0.040,0.019
0.039,0.022
0.042,0.021
0.038,0.022
0.039,0.019
0.039,0.019
0.040,0.017
0.041,0.016
0.043,0.018
0.044,0.015
0.044,0.017
0.042,0.013
0.044,0.016
0.044,0.013
0.042,0.015
0.043,0.013
0.041,0.015
0.042,0.012
0.042,0.014
0.041,0.016
0.039,0.015
0.042,0.016
0.043,0.014
0.041,0.012
0.043,0.014
0.043,0.013
0.043,0.013
0.045,0.013
0.045,0.014
0.045,0.017
0.040,0.012
0.041,0.016
0.041,0.015
0.040,0.017
0.039,0.014
0.042,0.015
0.043,0.013
0.045,0.013
0.044,0.012
0.045,0.014
0.045,0.014
0.044,0.013
0.048,0.014
0.046,0.013
0.047,0.016
0.044,0.015
0.041,0.017
0.045,0.014
0.044,0.019
0.045,0.018
0.046,0.019
0.047,0.016
0.048,0.018
0.048,0.017
0.046,0.017
0.048,0.017
0.047,0.017
0.045,0.015
0.046,0.017
0.044,0.017
0.044,0.017
0.045,0.017
0.048,0.017
0.047,0.016
0.049,0.016
0.049,0.018
0.049,0.022
0.050,0.023
0.049,0.021
0.046,0.026
0.047,0.020
0.046,0.020
0.046,0.021
0.048,0.022
0.046,0.021
0.048,0.021
0.047,0.020
0.047,0.022
0.047,0.023
0.049,0.024
0.045,0.027
0.047,0.025
0.048,0.028
0.045,0.026
0.050,0.028
0.048,0.027
0.047,0.025
0.048,0.025
0.047,0.025
0.046,0.030
0.045,0.027
0.045,0.027
0.046,0.027
0.047,0.032
0.048,0.029
0.047,0.030
0.047,0.028
0.046,0.032
0.046,0.036
0.046,0.035
0.042,0.037
0.043,0.035
0.044,0.032
0.045,0.031
0.046,0.035
0.048,0.030
0.048,0.030
0.045,0.035
0.047,0.031
0.044,0.037
0.046,0.032
0.045,0.034
0.043,0.032
0.046,0.032
0.042,0.029
0.045,0.031
0.042,0.030
0.043,0.031
0.042,0.030
0.043,0.030
0.044,0.029
0.040,0.029
0.042,0.032
0.040,0.030
0.037,0.031
0.038,0.031
0.039,0.033
0.038,0.028
0.040,0.030
0.039,0.029
0.040,0.031
0.041,0.030
0.041,0.030
0.038,0.028
0.036,0.028
0.036,0.029
0.036,0.032
0.034,0.030
0.036,0.030
0.038,0.029
0.035,0.030
0.038,0.027
0.038,0.025
0.041,0.027
0.037,0.026
0.042,0.025
0.040,0.026
0.040,0.022
0.039,0.027
0.041,0.028
0.041,0.025
0.041,0.024
0.037,0.025
0.039,0.024
0.040,0.025
0.040,0.025
0.041,0.025
0.043,0.021
0.043,0.023
0.042,0.019
0.043,0.021
0.040,0.019
0.042,0.019
0.037,0.019
0.039,0.017
0.037,0.019
0.039,0.019
0.039,0.019
0.039,0.018
0.040,0.018
0.040,0.018
0.038,0.018
0.041,0.016
0.041,0.016
0.040,0.017
0.043,0.015
0.039,0.012
0.041,0.013
0.042,0.011
0.043,0.010
0.040,0.012
0.040,0.011
0.041,0.014
0.041,0.013
0.041,0.016
0.042,0.013
0.042,0.013
0.044,0.010
0.043,0.012
0.042,0.011
0.046,0.011
0.043,0.013
0.045,0.011
0.041,0.011
0.044,0.009
0.045,0.009
0.043,0.010
0.042,0.010
0.045,0.012
0.042,0.011
0.042,0.013
0.041,0.014
0.043,0.014
0.045,0.014
0.045,0.013
0.047,0.014
0.044,0.014
0.044,0.011
0.044,0.013
0.045,0.011
0.045,0.017
0.045,0.015
0.044,0.017
0.044,0.016
0.046,0.017
0.046,0.017
0.045,0.016
0.046,0.016
0.046,0.014
0.046,0.014
0.043,0.015
0.046,0.018
0.046,0.019
0.045,0.016
0.048,0.015
0.045,0.016
0.048,0.015
0.047,0.017
0.048,0.017
0.045,0.016
0.049,0.017
0.046,0.017
0.048,0.019
0.049,0.021
0.047,0.019
0.049,0.021
0.049,0.022
0.046,0.024
0.044,0.020
0.043,0.021
0.042,0.021
0.047,0.019
0.049,0.022
0.046,0.024
0.046,0.025
0.043,0.023
0.046,0.025
0.046,0.023
0.048,0.026
0.047,0.024
0.049,0.026
0.047,0.025
0.049,0.025
0.045,0.026
0.047,0.026
0.043,0.031
0.046,0.030
0.045,0.030
0.042,0.028
0.045,0.031
0.045,0.032
0.048,0.029
0.044,0.032
0.047,0.033
0.046,0.032
0.045,0.031
0.045,0.032
0.044,0.033
0.045,0.031
0.046,0.028
0.043,0.030
0.041,0.031
0.042,0.031
0.044,0.032
0.041,0.032
0.043,0.034
0.046,0.032
0.041,0.032
0.042,0.028
0.041,0.031
0.044,0.029
0.043,0.030
0.041,0.028
0.044,0.031
0.044,0.029
0.046,0.026
0.045,0.031
0.044,0.027
0.043,0.030
0.041,0.028
0.043,0.026
0.042,0.026
0.043,0.025
0.040,0.026
0.044,0.027
0.043,0.026
0.043,0.025
0.040,0.025
0.043,0.026
0.044,0.025
0.044,0.027
0.041,0.026
0.041,0.026
0.042,0.025
0.041,0.023
0.042,0.020
0.042,0.022
0.044,0.020
0.041,0.024
0.042,0.023
0.041,0.023
0.039,0.023
0.041,0.024
0.038,0.025
0.040,0.023
0.039,0.023
0.037,0.022
0.034,0.023
0.041,0.019
0.038,0.018
0.043,0.019
0.042,0.017
0.043,0.020
0.043,0.016
0.042,0.019
0.041,0.018
0.041,0.017
0.038,0.018
0.040,0.015
0.037,0.016
0.038,0.015
0.034,0.019
0.039,0.016
0.038,0.016
0.037,0.015
0.040,0.016
0.040,0.014
0.043,0.012
0.042,0.013
0.043,0.013
0.043,0.011
0.042,0.013
0.041,0.008
0.040,0.009
0.041,0.009
0.043,0.008
0.039,0.010
0.041,0.008
0.040,0.010
0.042,0.008
0.040,0.012
0.042,0.011
0.041,0.011
0.039,0.012
0.042,0.009
0.039,0.011
0.044,0.012
0.042,0.010
0.046,0.009
0.045,0.005
0.045,0.010
0.045,0.007
0.046,0.008
0.045,0.008
0.046,0.009
0.041,0.010
0.044,0.010
0.044,0.010
0.045,0.009
0.045,0.011
0.043,0.010
0.045,0.011
0.044,0.009
0.044,0.011
0.044,0.012
0.046,0.010
0.042,0.012
0.043,0.011
0.040,0.013
0.044,0.012
0.040,0.013
0.044,0.013
0.043,0.017
0.047,0.015
0.045,0.018
0.044,0.014
0.043,0.015
0.044,0.016
0.045,0.015
0.045,0.014
0.047,0.016
0.049,0.015
0.049,0.017
0.048,0.015
0.049,0.017
0.047,0.015
0.052,0.015
0.048,0.018
0.049,0.017
0.051,0.018
0.050,0.017
0.048,0.018
0.051,0.018
0.045,0.021
0.046,0.021
0.047,0.019
0.045,0.019
0.048,0.023
0.049,0.020
0.047,0.020
0.049,0.021
0.048,0.022
0.048,0.024
0.047,0.022
0.047,0.023
0.043,0.023
0.045,0.022
0.044,0.022
0.045,0.025
0.045,0.025
0.043,0.024
0.046,0.026
0.044,0.025
0.047,0.027
0.046,0.027
0.046,0.029
0.046,0.025
0.049,0.030
0.049,0.029
0.049,0.028
0.047,0.029
0.046,0.029
0.042,0.028
0.045,0.031
0.043,0.033
0.043,0.030
0.046,0.031
0.043,0.030
0.046,0.029
0.045,0.031
0.044,0.029
0.040,0.033
0.043,0.032
0.043,0.032
0.041,0.033
0.039,0.032
0.043,0.030
0.043,0.031
0.045,0.028
0.045,0.029
0.045,0.028
0.044,0.028
0.044,0.026
0.043,0.028
0.042,0.030
0.040,0.029
0.039,0.030
0.042,0.032
0.038,0.030
0.040,0.029
0.040,0.028
0.039,0.027
0.042,0.030
0.037,0.029
0.040,0.030
0.039,0.029
0.040,0.029
0.039,0.026
0.037,0.025
0.036,0.024
0.035,0.025
0.037,0.025
0.037,0.024
0.040,0.024
0.040,0.028
0.037,0.023
0.039,0.024
0.038,0.022
0.039,0.023
0.036,0.023
0.036,0.024
0.034,0.023
0.036,0.024
0.037,0.023
0.039,0.024
0.036,0.018
0.039,0.021
0.039,0.019
0.042,0.019
0.041,0.019
0.041,0.017
0.043,0.021
0.041,0.017
0.040,0.017
0.040,0.017
0.036,0.019
0.037,0.015
0.039,0.015
0.037,0.014
0.037,0.015
0.037,0.018
0.039,0.016
0.039,0.015
0.041,0.016
0.038,0.012
0.043,0.013
0.042,0.012
0.044,0.012
0.041,0.010
0.043,0.011
0.038,0.010
0.041,0.008
0.036,0.013
0.036,0.010
0.036,0.014
0.036,0.010
0.039,0.012
0.038,0.011
0.039,0.012
0.037,0.012
0.040,0.011
0.040,0.011
0.043,0.011
0.042,0.009
0.043,0.011
0.040,0.011
0.044,0.009
0.043,0.010
0.043,0.010
0.041,0.012
0.041,0.010
0.036,0.011
0.040,0.011
0.042,0.010
0.040,0.009
0.042,0.011
0.043,0.006
0.047,0.008
0.044,0.009
0.044,0.006
0.042,0.011
0.045,0.009
0.044,0.011
0.046,0.011
0.045,0.011
0.043,0.012
0.043,0.012
0.043,0.010
0.044,0.010
0.047,0.009
0.047,0.012
0.048,0.013
0.047,0.016
0.046,0.011
0.045,0.010
0.045,0.009
0.049,0.014
0.043,0.011
0.049,0.012
0.043,0.010
0.047,0.011
0.046,0.013
0.047,0.014
0.044,0.016
0.045,0.015
0.045,0.018
0.047,0.015
0.045,0.018
0.044,0.018
0.044,0.018
0.047,0.018
0.045,0.017
0.047,0.017
0.047,0.020
0.047,0.016
0.047,0.018
0.045,0.019
0.047,0.020
0.042,0.021
0.043,0.023
0.043,0.023
0.047,0.023
0.048,0.023
0.049,0.023
0.049,0.025
0.047,0.025
0.047,0.025
0.047,0.025
0.046,0.025
0.044,0.027
0.045,0.026
0.047,0.028
0.044,0.023
0.046,0.027
0.044,0.024
0.048,0.026
0.043,0.030
0.047,0.027
0.042,0.029
0.043,0.027
0.043,0.028
0.044,0.026
0.046,0.029
0.043,0.026
0.044,0.025
0.042,0.025
0.044,0.025
0.043,0.031
0.043,0.030
0.041,0.030
0.041,0.030
0.041,0.032
0.041,0.031
0.042,0.029
0.043,0.026
0.043,0.027
0.045,0.025
0.041,0.026
0.041,0.029
0.043,0.026
0.041,0.029
0.045,0.028
0.043,0.029
0.044,0.027
0.041,0.030
0.041,0.030
0.042,0.030
0.040,0.028
0.042,0.028
0.041,0.025
0.043,0.026
0.041,0.025
0.041,0.027
0.043,0.024
0.041,0.026
0.039,0.026
0.041,0.025
0.037,0.025
0.041,0.023
0.038,0.025
0.041,0.026
0.042,0.023
0.041,0.026
0.041,0.024
0.040,0.025
0.040,0.023
0.039,0.026
0.039,0.024
0.041,0.024
0.038,0.024
0.041,0.023
0.041,0.022
0.041,0.020
0.042,0.018
0.045,0.022
0.046,0.019
0.043,0.020
0.044,0.021
0.043,0.019
0.045,0.019
0.044,0.018
0.041,0.018
0.043,0.014
0.042,0.013
0.041,0.015
0.043,0.013
0.040,0.015
0.042,0.014
0.042,0.014
0.039,0.015
0.038,0.011
0.041,0.013
0.041,0.014
0.040,0.013
0.041,0.012
0.043,0.014
0.043,0.013
0.044,0.011
0.040,0.016
0.040,0.014
0.040,0.016
0.041,0.013
0.041,0.012
0.037,0.013
0.040,0.012
0.039,0.010
0.042,0.010
0.039,0.010
0.044,0.009
0.041,0.008
0.041,0.010
0.043,0.013
0.042,0.008
0.041,0.010
0.042,0.009
0.042,0.010
0.044,0.009
0.042,0.010
0.043,0.010
0.043,0.012
0.042,0.011
0.046,0.013
0.044,0.010
0.047,0.010
0.045,0.010
0.048,0.008
0.048,0.014
0.046,0.010
0.045,0.014
0.046,0.012
0.044,0.013
0.045,0.013
0.046,0.012
0.045,0.010
0.049,0.013
0.047,0.012
0.049,0.013
0.048,0.012
0.050,0.014
0.048,0.010
0.050,0.012
0.047,0.009
0.050,0.011
0.046,0.010
0.049,0.012
0.046,0.013
0.048,0.016
0.046,0.016
0.047,0.015
0.046,0.017
0.047,0.017
0.049,0.017
0.047,0.015
0.047,0.018
0.047,0.015
0.047,0.021
0.049,0.018
0.049,0.020
0.046,0.018
0.049,0.020
0.044,0.018
0.049,0.020
0.046,0.018
0.051,0.022
0.050,0.024
0.048,0.023
0.047,0.026
0.048,0.025
0.046,0.025
0.045,0.025
0.049,0.026
0.049,0.025
0.050,0.026
0.046,0.024
0.046,0.026
0.045,0.028
0.046,0.028
0.042,0.025
0.045,0.026
0.048,0.028
0.048,0.025
0.048,0.027
0.049,0.025
0.047,0.027
0.046,0.030
0.045,0.032
0.044,0.032
0.045,0.031
0.043,0.030
0.042,0.030
0.044,0.031
0.044,0.031
0.046,0.030
0.047,0.031
0.044,0.027
0.046,0.031
0.045,0.029
0.045,0.031
0.047,0.030
0.047,0.032
0.048,0.028
0.049,0.030
0.047,0.029
0.051,0.027
0.047,0.029
0.049,0.028
0.045,0.030
0.046,0.030
0.046,0.033
0.042,0.031
0.044,0.032
0.045,0.031
0.044,0.032
0.046,0.031
0.042,0.032
0.043,0.028
0.042,0.031
0.042,0.028
0.043,0.028
0.041,0.028
0.041,0.031
0.039,0.027
0.040,0.029
0.038,0.027
0.041,0.029
0.039,0.028
0.041,0.032
0.045,0.029
0.040,0.027
0.045,0.027
0.040,0.031
0.044,0.026
0.043,0.027
0.044,0.026
0.040,0.027
0.040,0.026
0.041,0.025
0.041,0.024
0.041,0.028
0.041,0.023
0.041,0.024
0.043,0.021
0.047,0.023
0.046,0.020
0.048,0.021
0.044,0.023
0.048,0.021
0.046,0.023
0.044,0.021
0.042,0.022
0.043,0.022
0.043,0.021
0.041,0.020
0.039,0.020
0.042,0.021
0.041,0.020
0.045,0.018
0.046,0.020
0.044,0.018
0.043,0.020
0.043,0.017
0.045,0.017
0.041,0.016
0.046,0.015
0.041,0.016
0.042,0.014
0.040,0.016
0.041,0.014
0.041,0.015
0.041,0.016
0.040,0.015
0.044,0.016
0.043,0.014
0.044,0.011
0.041,0.012
0.042,0.011
0.043,0.011
0.043,0.010
0.046,0.012
0.047,0.012
0.045,0.013
0.042,0.016
0.044,0.013
0.043,0.015
0.045,0.014
0.043,0.017
0.046,0.015
0.041,0.015
0.045,0.014
0.047,0.014
0.043,0.013
0.048,0.013
0.047,0.013
0.047,0.013
0.047,0.016
0.048,0.013
0.044,0.014
0.042,0.014
0.044,0.015
0.045,0.016
0.045,0.016
0.046,0.015
0.046,0.017
0.046,0.016
0.047,0.017
0.047,0.015
0.048,0.017
0.049,0.015
0.049,0.017
0.046,0.015
0.048,0.014
0.048,0.014
0.045,0.015
0.045,0.014
0.045,0.016
0.045,0.015
0.044,0.016
0.046,0.018
0.046,0.019
0.048,0.020
0.046,0.019
0.046,0.020
0.047,0.019
0.043,0.021
0.045,0.018
0.044,0.019
0.044,0.018
0.045,0.019
0.046,0.020
0.045,0.020
0.045,0.023
0.045,0.022
0.046,0.026
0.046,0.024
0.047,0.026
0.046,0.023
0.050,0.026
0.049,0.025
0.051,0.025
0.049,0.027
0.049,0.027
0.046,0.029
0.044,0.028
0.042,0.029
0.043,0.030
0.048,0.028
0.044,0.028
0.048,0.029
0.043,0.028
0.046,0.028
0.042,0.028
0.045,0.028
0.040,0.031
0.044,0.030
0.043,0.030
0.045,0.029
0.048,0.031
0.047,0.028
0.045,0.027
0.045,0.030
0.044,0.030
0.044,0.030
0.044,0.029
0.043,0.031
0.041,0.032
0.043,0.034
0.043,0.029
0.045,0.030
0.043,0.028
0.045,0.029
0.046,0.028
0.045,0.027
0.044,0.028
0.043,0.027
0.043,0.032
0.041,0.029
0.041,0.032
0.040,0.028
0.043,0.029
0.043,0.027
0.046,0.030
0.043,0.027
0.045,0.032
0.044,0.028
0.046,0.028
0.043,0.025
0.049,0.024
0.044,0.023
0.045,0.024
0.042,0.022
0.042,0.022
0.043,0.023
0.042,0.024
0.042,0.024
0.042,0.025
0.041,0.025
0.041,0.024
0.042,0.023
0.042,0.022
0.042,0.023
0.041,0.022
0.042,0.022
0.040,0.021
0.041,0.021
0.041,0.022
0.042,0.018
0.041,0.021
0.044,0.019
0.045,0.022
0.045,0.017
0.044,0.023
0.043,0.020
0.044,0.021
0.038,0.022
0.040,0.020
0.039,0.018
0.040,0.019
0.039,0.018
0.038,0.017
0.039,0.018
0.039,0.016
0.037,0.017
0.038,0.016
0.039,0.017
0.042,0.013
0.043,0.015
0.042,0.013
0.043,0.013
0.041,0.016
0.044,0.014
0.042,0.016
0.041,0.014
0.037,0.014
0.041,0.012
0.043,0.012
0.041,0.011
0.042,0.010
0.042,0.010
0.043,0.007
0.042,0.008
0.043,0.006
0.044,0.008
0.044,0.010
0.044,0.008
0.041,0.009
0.043,0.012
0.043,0.010
0.042,0.013
0.044,0.010
0.040,0.010
0.043,0.009
0.040,0.010
0.041,0.009
0.042,0.012
0.044,0.011
0.043,0.013
0.042,0.009
0.042,0.009
0.043,0.013
0.043,0.011
0.043,0.017
0.042,0.013
0.041,0.013
0.041,0.013
0.040,0.011
0.040,0.012
0.043,0.011
0.042,0.012
0.044,0.013
0.044,0.012
0.044,0.016
0.045,0.016
0.047,0.016
0.044,0.014
0.049,0.013
0.047,0.014
0.049,0.013
0.047,0.015
0.048,0.014
0.050,0.015
0.047,0.013
0.046,0.013
0.045,0.013
0.045,0.019
0.045,0.017
0.046,0.019
0.046,0.019
0.045,0.019
0.047,0.016
0.044,0.019
0.043,0.016
0.047,0.018
0.044,0.018
0.043,0.016
0.045,0.020
0.043,0.018
0.045,0.023
0.042,0.019
0.046,0.023
0.043,0.023
0.047,0.026
0.044,0.022
0.050,0.021
0.045,0.020
0.049,0.022
0.045,0.024
0.043,0.023
0.044,0.028
0.042,0.024
0.043,0.028
0.043,0.026
0.048,0.027
0.044,0.025
0.048,0.027
0.046,0.028
0.047,0.026
0.045,0.029
0.046,0.029
0.042,0.028
0.045,0.028
0.045,0.024
0.044,0.024
0.046,0.025
0.047,0.026
0.047,0.027
0.044,0.027
0.042,0.027
0.043,0.030
0.044,0.028
0.044,0.030
0.045,0.029
0.045,0.030
0.047,0.026
0.048,0.029
0.045,0.026
0.044,0.027
0.044,0.029
0.042,0.024
0.043,0.029
0.042,0.023
0.041,0.025
0.039,0.027
0.041,0.026
0.039,0.024
0.043,0.024
0.041,0.024
0.045,0.024
0.042,0.026
0.045,0.023
0.042,0.023
0.042,0.024
0.041,0.021
0.042,0.023
0.041,0.022
0.041,0.024
0.042,0.025
0.039,0.026
0.041,0.022
0.042,0.023
0.042,0.024
0.040,0.023
0.039,0.025
0.041,0.022
0.038,0.023
0.041,0.022
0.041,0.022
0.039,0.022
0.038,0.020
0.039,0.023
0.040,0.021
0.040,0.024
0.039,0.021
0.043,0.021
0.039,0.017
0.043,0.017
0.041,0.019
0.044,0.018
0.041,0.021
0.041,0.019
0.038,0.020
0.042,0.019
0.042,0.020
0.043,0.018
0.040,0.019
0.041,0.015
0.040,0.017
0.037,0.015
0.040,0.019
0.038,0.016
0.039,0.017
0.041,0.015
0.043,0.013
0.043,0.014
0.045,0.011
0.041,0.014
0.045,0.012
0.040,0.016
0.042,0.015
0.039,0.013
0.040,0.013
0.039,0.013
0.039,0.014
0.039,0.011
0.040,0.010
0.043,0.011
0.043,0.009
0.044,0.010
0.044,0.006
0.043,0.009
0.043,0.009
0.044,0.007
0.043,0.011
0.044,0.010
0.042,0.014
0.042,0.012
0.042,0.011
0.042,0.009
0.044,0.009
0.046,0.010
0.046,0.011
0.049,0.010
0.046,0.010
0.046,0.009
0.044,0.011
0.044,0.013
0.046,0.013
0.046,0.014
0.047,0.015
0.047,0.015
0.047,0.012
0.045,0.012
0.046,0.009
0.046,0.010
0.043,0.010
0.044,0.012
0.043,0.011
0.046,0.010
0.046,0.011
0.047,0.013
0.046,0.012
0.046,0.014
0.048,0.012
0.047,0.014
0.047,0.012
0.045,0.014
0.044,0.015
0.045,0.015
0.044,0.015
0.046,0.015
0.044,0.020
0.046,0.016
0.043,0.020
0.044,0.018
0.046,0.019
0.045,0.021
0.048,0.017
0.047,0.018
0.049,0.017
0.050,0.020
0.048,0.018
0.048,0.021
0.045,0.018
0.046,0.019
0.046,0.019
0.045,0.021
0.045,0.020
0.047,0.021
0.047,0.020
0.047,0.023
0.049,0.023
0.047,0.022
0.046,0.024
0.045,0.023
0.046,0.028
0.046,0.024
0.042,0.028
0.041,0.024
0.043,0.025
0.040,0.024
0.044,0.024
0.044,0.025
0.045,0.026
0.045,0.028
0.046,0.026
0.043,0.029
0.042,0.025
0.044,0.027
0.042,0.026
0.044,0.027
0.042,0.026
0.044,0.027
0.041,0.030
0.043,0.028
0.038,0.029
0.040,0.028
0.041,0.030
0.043,0.027
0.043,0.027
0.042,0.029
0.041,0.028
0.045,0.033
0.042,0.030
0.042,0.031
0.043,0.029
0.043,0.030
0.044,0.029
0.040,0.029
0.041,0.028
0.040,0.028
0.041,0.026
0.043,0.030
0.044,0.028
0.045,0.026
0.042,0.027
0.044,0.028
0.043,0.031
0.043,0.026
0.046,0.028
0.044,0.024
0.042,0.026
0.040,0.025
0.041,0.024
0.040,0.024
0.041,0.023
0.042,0.025
0.036,0.025
0.037,0.025
0.036,0.025
0.041,0.026
0.039,0.023
0.041,0.025
0.038,0.024
0.041,0.025
0.039,0.024
0.041,0.024
0.037,0.021
0.037,0.024
0.037,0.021
0.040,0.023
0.039,0.020
0.040,0.022
0.039,0.022
0.042,0.020
0.038,0.022
0.038,0.017
0.039,0.022
0.038,0.021
0.038,0.023
0.037,0.019
0.038,0.024
0.038,0.019
0.037,0.020
0.038,0.018
0.038,0.018
0.038,0.015
0.042,0.019
0.043,0.016
0.045,0.015
0.041,0.014
0.044,0.013
0.044,0.011
0.043,0.012
0.038,0.014
0.040,0.011
0.037,0.016
0.039,0.014
0.035,0.015
0.038,0.013
0.039,0.015
0.039,0.010
0.039,0.014
0.040,0.012
0.043,0.013
0.040,0.014
0.046,0.013
0.043,0.012
0.045,0.010
0.042,0.010
0.047,0.014
0.043,0.013
0.043,0.010
0.041,0.012
0.040,0.011
0.042,0.011
0.042,0.011
0.041,0.011
0.043,0.010
0.045,0.010
0.043,0.007
0.043,0.010
0.043,0.009
0.045,0.010
0.044,0.012
0.044,0.011
0.041,0.013
0.045,0.010
0.041,0.011
0.045,0.010
0.043,0.012
0.043,0.012
0.043,0.012
0.041,0.013
0.042,0.016
0.042,0.014
0.044,0.011
0.045,0.010
0.045,0.011
0.043,0.010
0.046,0.014
0.046,0.011
0.045,0.012
0.044,0.011
0.047,0.010
0.043,0.010
0.045,0.010
0.044,0.011
0.045,0.011
0.042,0.014
0.044,0.014
0.046,0.014
0.047,0.017
0.043,0.018
0.046,0.018
0.046,0.018
0.046,0.017
0.048,0.017
0.043,0.018
0.043,0.017
0.044,0.017
0.041,0.017
0.043,0.020
0.045,0.021
0.046,0.021
0.048,0.022
0.046,0.023
0.047,0.023
0.049,0.023
0.049,0.023
0.046,0.022
0.046,0.022
0.045,0.023
0.045,0.026
0.045,0.025
0.046,0.024
0.043,0.025
0.047,0.029
0.047,0.026
0.046,0.026
0.045,0.027
0.047,0.028
0.044,0.028
0.045,0.027
0.047,0.028
0.045,0.027
0.048,0.026
0.043,0.028
0.045,0.026
0.041,0.027
0.045,0.027
0.041,0.030
0.044,0.028
0.041,0.026
0.042,0.030
0.042,0.028
0.043,0.027
0.047,0.030
0.046,0.026
0.043,0.028
0.044,0.027
0.043,0.028
0.044,0.028
0.044,0.026
0.040,0.029
0.043,0.024
0.037,0.029
0.041,0.028
0.038,0.028
0.041,0.028
0.043,0.030
0.040,0.027
0.043,0.029
0.042,0.028
0.042,0.025
0.042,0.026
0.041,0.024
0.038,0.023
0.041,0.023
0.042,0.023
0.037,0.024
0.039,0.021
0.040,0.024
0.039,0.024
0.042,0.024
0.040,0.024
0.042,0.023
0.040,0.022
0.042,0.024
0.039,0.022
0.044,0.023
0.042,0.019
0.043,0.024
0.041,0.022
0.043,0.025
0.040,0.022
0.043,0.022
0.040,0.020
0.043,0.021
0.040,0.023
0.040,0.023
0.037,0.022
0.041,0.019
0.038,0.021
0.040,0.018
0.040,0.018
0.039,0.019
0.041,0.020
0.040,0.018
0.043,0.016
0.038,0.016
0.043,0.019
0.042,0.016
0.041,0.015
0.040,0.014
0.038,0.015
0.038,0.015
0.039,0.015
0.039,0.016
0.040,0.013
0.036,0.017
0.041,0.015
0.035,0.016
0.037,0.009
0.038,0.012
0.037,0.011
0.040,0.012
0.037,0.009
0.042,0.010
0.039,0.010
0.044,0.010
0.040,0.013
0.044,0.013
0.041,0.010
0.042,0.011
0.040,0.012
0.042,0.012
0.041,0.011
0.041,0.008
0.040,0.011
0.043,0.010
0.039,0.012
0.042,0.009
0.042,0.014
0.043,0.010
0.047,0.015
0.044,0.013
0.047,0.011
0.045,0.010
0.047,0.011
0.043,0.012
0.044,0.011
0.045,0.012
0.046,0.010
0.047,0.012
0.049,0.011
0.050,0.012
0.048,0.011
0.048,0.010
0.048,0.012
0.045,0.011
0.048,0.013
0.044,0.015
0.047,0.013
0.049,0.013
0.049,0.012
0.050,0.013
0.048,0.013
0.046,0.013
0.045,0.015
0.046,0.013
0.047,0.015
0.048,0.015
0.044,0.017
0.047,0.015
0.045,0.017
0.048,0.018
0.046,0.017
0.047,0.016
0.048,0.019
0.049,0.018
0.047,0.018
0.049,0.018
0.046,0.020
0.048,0.023
0.046,0.021
0.045,0.021
0.044,0.023
0.044,0.023
0.044,0.022
0.047,0.023
0.044,0.021
0.047,0.022
0.048,0.020
0.047,0.022
0.050,0.023
0.048,0.024
0.047,0.027
0.046,0.026
0.045,0.026
0.043,0.025
0.046,0.028
0.044,0.025
0.046,0.026
0.046,0.026
0.048,0.026
0.046,0.030
0.050,0.028
0.047,0.032
0.047,0.028
0.044,0.030
0.043,0.027
0.043,0.030
0.043,0.028
0.045,0.027
0.039,0.028
0.042,0.030
0.040,0.030
0.043,0.030
0.043,0.031
0.042,0.028
0.042,0.027
0.045,0.028
0.046,0.027
0.046,0.028
0.043,0.024
0.045,0.030
0.044,0.026
0.045,0.028
0.043,0.029
0.044,0.031
0.042,0.030
0.045,0.031
0.042,0.027
0.041,0.027
0.042,0.026
0.043,0.024
0.045,0.026
0.042,0.023
0.045,0.025
0.046,0.024
0.046,0.029
0.044,0.026
0.043,0.029
0.043,0.026
0.043,0.029
0.042,0.025
0.042,0.026
0.042,0.023
0.043,0.024
0.041,0.023
0.039,0.022
0.040,0.024
0.039,0.023
0.043,0.022
0.040,0.023
0.045,0.023
0.042,0.020
0.041,0.022
0.043,0.021
0.044,0.024
0.042,0.023
0.042,0.025
0.041,0.023
0.043,0.021
0.040,0.020
0.042,0.020
0.039,0.022
0.042,0.020
0.039,0.020
0.041,0.018
0.040,0.019
0.039,0.014
0.043,0.019
0.040,0.017
0.041,0.019
0.038,0.015
0.042,0.013
0.037,0.014
0.042,0.017
0.041,0.017
0.042,0.014
0.043,0.014
0.042,0.010
0.044,0.012
0.044,0.013
0.042,0.012
0.046,0.012
0.043,0.014
0.044,0.012
0.043,0.013
0.042,0.011
0.042,0.011
0.039,0.010
0.041,0.011
0.043,0.010
0.045,0.010
0.045,0.010
0.047,0.010
0.047,0.009
0.047,0.006
0.047,0.011
0.045,0.011
0.043,0.012
0.044,0.013
0.042,0.011
0.042,0.011
0.042,0.013
0.043,0.010
0.043,0.013
0.044,0.010
0.045,0.012
0.042,0.011
0.044,0.011
0.043,0.014
0.048,0.013
0.046,0.015
0.047,0.013
0.042,0.013
0.042,0.009
0.044,0.015
0.045,0.012
0.047,0.010
0.045,0.008
0.046,0.009
0.045,0.011
0.045,0.012
0.047,0.015
0.047,0.014
0.049,0.013
0.046,0.013
0.049,0.016
0.050,0.014
0.050,0.017
0.051,0.013
0.049,0.016
0.050,0.012
0.049,0.015
0.050,0.017
0.049,0.018
0.052,0.016
0.047,0.017
0.049,0.018
0.047,0.017
0.047,0.016
0.048,0.018
0.046,0.017
0.051,0.020
0.047,0.016
0.050,0.019
0.047,0.021
0.049,0.020
0.045,0.024
0.047,0.020
0.043,0.022
0.045,0.020
0.047,0.021
0.048,0.018
0.049,0.021
0.049,0.023
0.049,0.023
0.048,0.024
0.049,0.021
0.048,0.026
0.047,0.024
0.049,0.026
0.048,0.027
0.050,0.030
0.046,0.026
0.049,0.024
0.047,0.026
0.047,0.024
0.047,0.028
0.046,0.027
0.046,0.030
0.045,0.028
0.047,0.032
0.044,0.030
0.047,0.033
0.044,0.031
0.048,0.027
0.046,0.031
0.046,0.031
0.042,0.033
0.045,0.031
0.043,0.030
0.041,0.028
0.045,0.031
0.042,0.029
0.046,0.026
0.042,0.029
0.045,0.029
0.040,0.032
0.046,0.030
0.043,0.031
0.045,0.031
0.045,0.030
0.042,0.029
0.045,0.030
0.041,0.028
0.043,0.028
0.044,0.028
0.042,0.029
0.044,0.028
0.042,0.029
0.045,0.030
0.043,0.029
0.044,0.029
0.046,0.026
0.043,0.026
0.043,0.027
0.041,0.030
0.044,0.026
0.041,0.030
0.043,0.026
0.042,0.026
0.044,0.024
0.043,0.025
0.044,0.024
0.042,0.024
0.046,0.025
0.043,0.027
0.045,0.025
0.042,0.024
0.043,0.022
0.041,0.025
0.043,0.023
0.041,0.021
0.042,0.023
0.044,0.023
0.043,0.021
0.041,0.022
0.041,0.022
0.043,0.023
0.042,0.020
0.040,0.024
0.041,0.022
0.042,0.024
0.040,0.021
0.045,0.022
0.043,0.021
0.047,0.020
0.044,0.019
0.043,0.017
0.042,0.019
0.040,0.017
0.041,0.021
0.042,0.019
0.041,0.020
0.042,0.018
0.045,0.022
0.042,0.019
0.043,0.017
0.040,0.017
0.043,0.015
0.040,0.014
0.044,0.015
0.039,0.012
0.043,0.016
0.041,0.013
0.043,0.013
0.042,0.011
0.045,0.012
0.040,0.012
0.043,0.011
0.043,0.012
0.043,0.009
0.042,0.010
0.045,0.011
0.041,0.013
0.043,0.012
0.041,0.012
0.041,0.009
0.048,0.013
0.043,0.010
0.049,0.009
0.045,0.009
0.046,0.009
0.046,0.011
0.042,0.010
0.043,0.013
0.043,0.014
0.041,0.011
0.045,0.015
0.043,0.012
0.044,0.013
0.046,0.013
0.046,0.012
0.043,0.014
0.046,0.011
0.046,0.012
0.045,0.014
0.047,0.014
0.043,0.015
0.048,0.012
0.043,0.017
0.048,0.014
0.046,0.016
0.051,0.014
0.047,0.015
0.047,0.015
0.045,0.019
0.045,0.018
0.045,0.019
0.046,0.019
0.047,0.017
0.049,0.018
0.046,0.014
0.047,0.015
0.048,0.016
0.049,0.015
0.050,0.020
0.049,0.015
0.050,0.016
0.045,0.015
0.048,0.014
0.044,0.020
0.048,0.019
0.043,0.019
0.046,0.019
0.048,0.019
0.046,0.019
0.049,0.018
0.049,0.021
0.049,0.019
0.049,0.023
0.046,0.021
0.046,0.023
0.046,0.023
0.046,0.024
0.047,0.024
0.048,0.027
0.047,0.024
0.048,0.023
0.048,0.024
0.046,0.022
0.045,0.028
0.044,0.028
0.046,0.028
0.045,0.029
0.048,0.028
0.044,0.027
0.047,0.027
0.047,0.028
0.048,0.030
0.044,0.028
0.044,0.029
0.043,0.032
0.046,0.033
0.044,0.032
0.043,0.032
0.043,0.031
0.045,0.029
0.045,0.030
0.043,0.027
0.043,0.028
0.044,0.029
0.047,0.028
0.041,0.030
0.045,0.029
0.043,0.031
0.043,0.030
0.043,0.031
0.045,0.029
0.046,0.030
0.042,0.028
0.045,0.027
0.043,0.028
0.043,0.026
0.044,0.030
0.042,0.027
0.042,0.029
0.042,0.028
0.040,0.027
0.041,0.030
0.042,0.028
0.043,0.030
0.037,0.028
0.038,0.027
0.039,0.028
0.039,0.027
0.037,0.030
0.038,0.028
0.038,0.028
0.038,0.028
0.038,0.030
0.040,0.029
0.036,0.027
0.038,0.026
0.036,0.026
0.039,0.028
0.039,0.027
0.040,0.024
0.035,0.026
0.039,0.023
0.035,0.026
0.039,0.024
0.036,0.025
0.039,0.023
0.040,0.024
0.036,0.024
0.040,0.025
0.039,0.023
0.043,0.023
0.039,0.022
0.043,0.020
0.041,0.023
0.043,0.020
0.038,0.021
0.040,0.020
0.038,0.021
0.038,0.021
0.038,0.020
0.042,0.018
0.039,0.019
0.039,0.016
0.039,0.018
0.042,0.016
0.041,0.019
0.042,0.016
0.042,0.016
0.042,0.013
0.044,0.014
0.041,0.013
0.042,0.012
0.038,0.014
0.043,0.012
0.039,0.013
0.039,0.012
0.037,0.014
0.040,0.015
0.038,0.016
0.039,0.013
0.039,0.015
0.040,0.017
0.040,0.015
0.040,0.014
0.044,0.015
0.042,0.012
0.042,0.014
0.042,0.012
0.043,0.013
0.045,0.012
0.041,0.013
0.040,0.016
0.042,0.012
0.042,0.015
0.042,0.013
0.047,0.013
0.043,0.012
0.044,0.011
0.044,0.010
0.046,0.009
0.047,0.013
0.048,0.011
0.046,0.014
0.045,0.014
0.045,0.014
0.045,0.014
0.045,0.015
0.044,0.015
0.045,0.015
0.045,0.014
0.043,0.017
0.046,0.017
0.046,0.019
0.045,0.018
0.048,0.018
0.050,0.017
0.051,0.017
0.047,0.015
0.048,0.017
0.048,0.017
0.051,0.017
0.049,0.017
0.046,0.019
0.048,0.020
0.047,0.019
0.047,0.020
0.048,0.020
0.046,0.020
0.047,0.023
0.047,0.025
0.046,0.024
0.046,0.025
0.047,0.022
0.045,0.023
0.048,0.023
0.046,0.022
0.047,0.026
0.046,0.025
0.045,0.027
0.046,0.027
0.047,0.028
0.047,0.026
0.049,0.028
0.047,0.024
0.051,0.025
0.048,0.025
0.049,0.024
0.046,0.030
0.047,0.028
0.045,0.029
0.045,0.027
0.050,0.028
0.047,0.027
0.050,0.029
0.048,0.028
0.047,0.026
0.045,0.031
0.047,0.030
0.044,0.029
0.043,0.028
0.045,0.028
0.045,0.027
0.045,0.029
0.043,0.027
0.044,0.030
0.043,0.031
0.045,0.031
0.042,0.033
0.043,0.032
0.041,0.032
0.044,0.030
0.043,0.030
0.042,0.030
0.044,0.029
0.042,0.030
0.044,0.027
0.042,0.029
0.043,0.027
0.041,0.032
0.042,0.030
0.041,0.033
0.043,0.029
0.043,0.031
0.042,0.031
0.047,0.029
0.043,0.029
0.043,0.027
0.043,0.026
0.046,0.026
0.045,0.025
0.042,0.024
0.044,0.024
0.043,0.026
0.043,0.025
0.043,0.026
0.044,0.023
0.045,0.023
0.042,0.022
0.043,0.024
0.044,0.024
0.045,0.023
0.044,0.026
0.045,0.025
0.043,0.024
0.044,0.023
0.042,0.025
0.043,0.026
0.045,0.022
0.043,0.024
0.042,0.022
0.045,0.023
0.042,0.021
0.046,0.023
0.044,0.022
0.046,0.023
0.043,0.020
0.045,0.020
0.041,0.019
0.046,0.017
0.042,0.021
0.043,0.017
0.039,0.021
0.041,0.020
0.037,0.021
0.037,0.019
0.039,0.018
0.037,0.019
0.037,0.019
0.038,0.020
0.041,0.017
0.045,0.015
0.044,0.015
0.045,0.012
0.044,0.013
0.043,0.016
0.046,0.014
0.043,0.017
0.043,0.014
0.039,0.014
0.041,0.015
0.039,0.018
0.043,0.013
0.040,0.014
0.042,0.015
0.043,0.015
0.041,0.016
0.047,0.016
0.043,0.013
0.046,0.015
0.046,0.012
0.047,0.011
0.047,0.013
0.045,0.013
0.047,0.015
0.044,0.013
0.043,0.014
0.044,0.015
0.046,0.012
0.045,0.016
0.046,0.015
0.045,0.016
0.048,0.016
0.048,0.016
0.047,0.013
0.048,0.016
0.043,0.016
0.044,0.018
0.043,0.017
0.041,0.019
0.044,0.018
0.048,0.017
0.045,0.014
0.050,0.016
0.047,0.014
0.050,0.014
0.049,0.018
0.050,0.016
0.049,0.018
0.050,0.016
0.049,0.015
0.051,0.017
0.050,0.017
0.047,0.019
0.048,0.020
0.049,0.020
0.049,0.020
0.048,0.017
0.047,0.019
0.048,0.019
0.047,0.020
0.045,0.021
0.047,0.024
0.044,0.020
0.046,0.023
0.046,0.022
0.046,0.023
0.049,0.021
0.049,0.023
0.048,0.021
0.047,0.023
0.048,0.025
0.048,0.024
0.045,0.027
0.048,0.029
0.047,0.027
0.047,0.026
0.051,0.030
0.050,0.026
0.051,0.028
0.049,0.024
0.049,0.026
0.049,0.028
0.049,0.026
0.045,0.028
0.045,0.026
0.049,0.029
0.050,0.026
0.049,0.029
0.049,0.030
0.049,0.032
0.049,0.034
0.049,0.036
0.045,0.036
0.048,0.033
0.046,0.035
0.049,0.030
0.048,0.031
0.047,0.032
0.047,0.030
0.047,0.036
0.047,0.034
0.047,0.035
0.047,0.033
0.048,0.033
0.047,0.034
0.049,0.035
0.045,0.034
0.047,0.032
0.047,0.033
0.049,0.032
0.049,0.035
0.049,0.033
0.046,0.037
0.047,0.033
0.049,0.034
0.045,0.035
0.048,0.033
0.044,0.032
0.048,0.033
0.045,0.031
0.047,0.032
0.046,0.029
0.050,0.031
0.047,0.031
0.047,0.032
0.045,0.034
0.048,0.031
0.043,0.034
0.045,0.031
0.043,0.034
0.044,0.029
0.045,0.032
0.041,0.028
0.045,0.030
0.043,0.029
0.042,0.028
0.043,0.028
0.044,0.029
0.046,0.031
0.044,0.028
0.046,0.029
0.046,0.029
0.047,0.026
0.044,0.026
0.045,0.025
0.046,0.024
0.045,0.023
0.045,0.021
0.045,0.022
0.042,0.024
0.043,0.022
0.045,0.023
0.046,0.022
0.042,0.027
0.045,0.025
0.040,0.026
0.042,0.024
0.040,0.023
0.044,0.023
0.044,0.023
0.043,0.022
0.044,0.020
0.044,0.017
0.044,0.017
0.047,0.018
0.046,0.017
0.049,0.022
0.048,0.018
0.046,0.020
0.046,0.018
0.045,0.020
0.043,0.018
0.041,0.019
0.044,0.018
0.041,0.018
0.044,0.015
0.043,0.017
0.043,0.012
0.045,0.015
0.045,0.013
0.048,0.013
0.047,0.015
0.046,0.015
0.046,0.019
0.046,0.015
0.043,0.017
0.044,0.017
0.045,0.016
0.042,0.015
0.045,0.016
0.043,0.016
0.045,0.016
0.043,0.015
0.044,0.013
0.047,0.012
0.044,0.014
0.049,0.014
0.045,0.010
0.047,0.014
0.046,0.013
0.046,0.017
0.047,0.013
0.048,0.016
0.046,0.013
0.048,0.017
0.046,0.013
0.049,0.016
0.047,0.011
0.050,0.013
0.049,0.012
0.052,0.013
0.051,0.013
0.054,0.012
0.052,0.014
0.051,0.013
0.050,0.015
0.049,0.014
0.051,0.017
0.049,0.014
0.049,0.015
0.051,0.015
0.051,0.018
0.050,0.016
0.047,0.018
0.047,0.017
0.045,0.021
0.045,0.016
0.046,0.020
0.047,0.018
0.048,0.020
0.047,0.019
0.051,0.019
0.046,0.019
0.050,0.018
0.049,0.022
0.046,0.020
0.044,0.022
0.045,0.021
0.046,0.021
0.043,0.022
0.048,0.023
0.047,0.027
0.049,0.024
0.047,0.025
0.048,0.025
0.048,0.026
0.048,0.027
0.048,0.026
0.048,0.025
0.048,0.024
0.048,0.027
0.048,0.027
0.048,0.030
0.048,0.029
0.044,0.031
0.045,0.029
0.044,0.030
0.045,0.029
0.045,0.032
0.046,0.031
0.047,0.032
0.047,0.031
0.049,0.030
0.046,0.035
0.045,0.033
0.044,0.036
0.042,0.032
0.045,0.034
0.044,0.032
0.047,0.031
0.046,0.030
0.047,0.031
0.045,0.030
0.044,0.032
0.045,0.031
0.043,0.030
0.044,0.029
0.043,0.029
0.041,0.034
0.043,0.031
0.042,0.034
0.042,0.031
0.046,0.032
0.043,0.028
0.049,0.031
0.045,0.029
0.049,0.029
0.046,0.031
0.046,0.028
0.045,0.031
0.045,0.027
0.042,0.031
0.041,0.030
0.041,0.029
0.043,0.028
0.041,0.028
0.042,0.026
0.041,0.030
0.044,0.026
0.043,0.029
0.045,0.026
0.044,0.031
0.044,0.026
0.043,0.028
0.040,0.024
0.046,0.027
0.044,0.025
0.043,0.027
0.043,0.027
0.042,0.026
0.042,0.023
0.041,0.025
0.043,0.023
0.042,0.026
0.042,0.025
0.040,0.027
0.041,0.026
0.039,0.026
0.041,0.027
0.042,0.023
0.042,0.023
0.042,0.024
0.042,0.020
0.043,0.021
0.041,0.019
0.044,0.019
0.042,0.017
0.041,0.017
0.041,0.016
0.043,0.015
0.042,0.015
0.041,0.016
0.042,0.018
0.044,0.018
0.041,0.018
0.044,0.016
0.043,0.016
0.044,0.016
0.045,0.013
0.043,0.012
0.044,0.012
0.042,0.010
0.045,0.010
0.041,0.011
0.044,0.012
0.044,0.010
0.047,0.010
0.047,0.010
0.047,0.010
0.046,0.013
0.046,0.010
0.042,0.013
0.045,0.011
0.042,0.013
0.045,0.009
0.042,0.013
0.046,0.013
0.045,0.013
0.045,0.011
0.049,0.014
0.046,0.013
0.047,0.011
0.045,0.011
0.046,0.010
0.046,0.011
0.043,0.011
0.044,0.012
0.045,0.014
0.043,0.014
0.045,0.013
0.047,0.012
0.046,0.010
0.048,0.013
0.046,0.011
0.046,0.009
0.044,0.013
0.048,0.010
0.043,0.014
0.044,0.012
0.045,0.015
0.045,0.013
0.047,0.017
0.047,0.013
0.046,0.014
0.049,0.014
0.049,0.015
0.053,0.011
0.049,0.018
0.052,0.014
0.050,0.018
0.051,0.019
0.047,0.017
0.049,0.018
0.047,0.016
0.045,0.017
0.049,0.016
0.047,0.017
0.048,0.017
0.050,0.017
0.050,0.020
0.047,0.018
0.047,0.021
0.048,0.022
0.048,0.020
0.046,0.020
0.049,0.021
0.044,0.022
0.047,0.021
0.049,0.021
0.050,0.021
0.049,0.021
0.050,0.026
0.050,0.024
0.049,0.026
0.048,0.024
0.049,0.024
0.050,0.023
0.051,0.026
0.048,0.026
0.047,0.026
0.046,0.028
0.046,0.029
0.047,0.032
0.044,0.030
0.047,0.028
0.042,0.029
0.047,0.030
0.044,0.027
0.047,0.028
0.044,0.028
0.046,0.029
0.044,0.032
0.045,0.032
0.043,0.033
0.045,0.032
0.045,0.032
0.045,0.031
0.045,0.030
0.047,0.025
0.045,0.028
0.043,0.026
0.043,0.028
0.044,0.030
0.044,0.026
0.042,0.030
0.044,0.031
0.042,0.032
0.044,0.031
0.043,0.029
0.044,0.026
0.046,0.025
0.046,0.023
0.042,0.023
0.043,0.028
0.045,0.026
0.046,0.028
0.044,0.026
0.043,0.027
0.042,0.027
0.043,0.031
0.043,0.028
0.041,0.030
0.041,0.028
0.040,0.027
0.042,0.024
0.039,0.028
0.039,0.024
0.040,0.026
0.042,0.021
0.040,0.024
0.043,0.022
0.040,0.024
0.041,0.021
0.040,0.023
0.040,0.021
0.042,0.021
0.041,0.020
0.039,0.019
0.039,0.019
0.036,0.019
0.041,0.020
0.039,0.023
0.040,0.017
0.041,0.022
0.039,0.019
0.039,0.022
0.039,0.019
0.039,0.021
0.042,0.018
0.041,0.020
0.042,0.015
0.042,0.018
0.041,0.015
0.045,0.017
0.041,0.017
0.045,0.018
0.037,0.016
0.041,0.016
0.039,0.017
0.041,0.015
0.041,0.018
0.042,0.016
0.043,0.016
0.043,0.015
0.044,0.015
0.044,0.013
0.043,0.015
0.041,0.013
0.042,0.013
0.043,0.011
0.044,0.013
0.043,0.010
0.046,0.011
0.043,0.008
0.047,0.010
0.045,0.009
0.047,0.010
0.046,0.013
0.049,0.012
0.044,0.012
0.047,0.010
0.043,0.013
0.043,0.010
0.042,0.010
0.040,0.010
0.042,0.010
0.043,0.009
0.047,0.010
0.046,0.008
0.046,0.007
0.044,0.011
0.043,0.012
0.045,0.012
0.045,0.011
0.043,0.012
0.046,0.010
0.044,0.013
0.044,0.009
0.045,0.013
0.045,0.011
0.045,0.015
0.043,0.014
0.047,0.012
0.045,0.010
0.046,0.009
0.046,0.009
0.049,0.011
0.047,0.014
0.050,0.013
0.050,0.016
0.051,0.013
0.046,0.015
0.051,0.014
0.050,0.017
0.050,0.013
0.049,0.018
0.048,0.016
0.046,0.018
0.047,0.017
0.047,0.018
0.044,0.016
0.046,0.015
0.045,0.016
0.049,0.017
0.045,0.016
0.051,0.015
0.049,0.015
0.050,0.013
0.048,0.015
0.048,0.019
0.048,0.023
0.049,0.023
0.046,0.022
0.045,0.019
0.047,0.020
0.050,0.020
0.049,0.020
0.049,0.018
0.050,0.019
0.051,0.022
0.052,0.023
0.049,0.025
0.052,0.023
0.049,0.023
0.049,0.023
0.050,0.023
0.049,0.023
0.049,0.025
0.049,0.026
0.048,0.026
0.050,0.030
0.050,0.028
0.049,0.028
0.049,0.024
0.052,0.027
0.048,0.027
0.052,0.024
0.046,0.030
0.048,0.026
0.044,0.031
0.044,0.029
0.047,0.031
0.044,0.029
0.049,0.029
0.048,0.028
0.048,0.026
0.048,0.026
0.047,0.029
0.045,0.030
0.045,0.028
0.044,0.031
0.045,0.028
0.043,0.030
0.047,0.029
0.043,0.029
0.045,0.029
0.044,0.030
0.046,0.026
0.046,0.028
0.046,0.024
0.049,0.026
0.047,0.027
0.047,0.028
0.045,0.029
0.049,0.029
0.045,0.030
0.045,0.026
0.045,0.029
0.047,0.029
0.044,0.025
0.044,0.026
0.042,0.028
0.043,0.026
0.041,0.027
0.046,0.024
0.042,0.026
0.042,0.022
0.043,0.026
0.047,0.023
0.045,0.025
0.049,0.023
0.044,0.024
0.047,0.020
0.043,0.025
0.046,0.021
0.046,0.024
0.045,0.022
0.045,0.024
0.045,0.020
0.045,0.023
0.043,0.023
0.044,0.022
0.044,0.021
0.046,0.022
0.045,0.017
0.046,0.020
0.044,0.018
0.046,0.020
0.046,0.017
0.046,0.019
0.042,0.021
0.043,0.018
0.042,0.017
0.044,0.016
0.044,0.016
0.042,0.014
0.044,0.014
0.044,0.015
0.044,0.017
0.044,0.013
0.044,0.011
0.045,0.014
0.044,0.016
0.041,0.012
0.045,0.014
0.043,0.010
0.044,0.011
0.045,0.010
0.046,0.011
0.047,0.011
0.048,0.010
0.047,0.010
0.046,0.008
0.045,0.010
0.046,0.008
0.044,0.011
0.044,0.010
0.044,0.012
0.045,0.011
0.047,0.011
0.044,0.010
0.050,0.010
0.046,0.007
0.049,0.008
0.049,0.009
0.049,0.008
0.044,0.009
0.047,0.010
0.043,0.011
0.044,0.010
0.044,0.010
0.048,0.011
0.047,0.011
0.050,0.010
0.050,0.012
0.048,0.007
0.049,0.010
0.045,0.011
0.049,0.011
0.048,0.013
0.049,0.013
0.046,0.015
0.049,0.012
0.046,0.016
0.049,0.014
0.046,0.014
0.050,0.014
0.047,0.016
0.047,0.015
0.045,0.015
0.048,0.012
0.047,0.016
0.046,0.012
0.049,0.016
0.048,0.018
0.048,0.019
0.047,0.017
0.051,0.019
0.048,0.016
0.051,0.019
0.050,0.016
0.052,0.018
0.049,0.019
0.052,0.018
0.047,0.022
0.051,0.020
0.046,0.022
0.048,0.021
0.048,0.021
0.047,0.019
0.047,0.024
0.047,0.019
0.049,0.022
0.049,0.025
0.053,0.024
0.049,0.027
0.050,0.024
0.047,0.024
0.049,0.024
0.049,0.025
0.050,0.024
0.049,0.025
0.047,0.027
0.046,0.025
0.046,0.028
0.049,0.024
0.052,0.025
0.048,0.026
0.051,0.028
0.050,0.026
0.048,0.026
0.048,0.024
0.047,0.024
0.049,0.025
0.047,0.025
0.045,0.029
0.047,0.024
0.048,0.028
0.047,0.027
0.048,0.027
0.045,0.026
0.045,0.024
0.046,0.028
0.045,0.026
0.047,0.028
0.044,0.028
0.045,0.032
0.046,0.027
0.046,0.029
0.047,0.028
0.045,0.028
0.045,0.029
0.046,0.029
0.045,0.024
0.047,0.025
0.046,0.022
0.048,0.025
0.044,0.028
0.047,0.026
0.044,0.031
0.045,0.031
0.045,0.031
0.045,0.028
0.045,0.030
0.046,0.028
0.046,0.027
0.044,0.026
0.044,0.028
0.046,0.024
0.045,0.028
0.045,0.023
0.046,0.026
0.045,0.024
0.046,0.028
0.048,0.023
0.049,0.024
0.048,0.026
0.048,0.025
0.049,0.025
0.041,0.026
0.043,0.022
0.041,0.024
0.044,0.022
0.044,0.025
0.044,0.023
0.042,0.025
0.044,0.025
0.044,0.025
0.043,0.024
0.044,0.023
0.046,0.021
0.046,0.020
0.046,0.016
0.043,0.017
0.047,0.015
0.045,0.019
0.044,0.018
0.043,0.017
0.041,0.019
0.045,0.018
0.043,0.020
0.046,0.018
0.044,0.020
0.046,0.018
0.045,0.018
0.045,0.016
0.047,0.016
0.047,0.015
0.047,0.016
0.045,0.013
0.047,0.014
0.045,0.015
0.042,0.013
0.047,0.017
0.046,0.016
0.045,0.016
0.044,0.015
0.044,0.014
0.044,0.015
0.043,0.013
0.044,0.011
0.043,0.015
0.045,0.013
0.043,0.015
0.047,0.014
0.046,0.013
0.045,0.011
0.049,0.014
0.046,0.012
0.048,0.010
0.048,0.014
0.047,0.011
0.047,0.013
0.048,0.015
0.047,0.013
0.048,0.015
0.046,0.013
0.048,0.011
0.049,0.012
0.049,0.010
0.050,0.012
0.047,0.010
0.050,0.013
0.048,0.016
0.048,0.013
0.045,0.017
0.049,0.014
0.047,0.017
0.047,0.014
0.050,0.017
0.047,0.014
0.049,0.016
0.050,0.016
0.050,0.018
0.050,0.017
0.050,0.018
0.049,0.018
0.047,0.017
0.047,0.019
0.047,0.020
0.050,0.018
0.051,0.020
0.051,0.020
0.052,0.021
0.049,0.018
0.051,0.016
0.049,0.022
0.047,0.021
0.048,0.025
0.048,0.022
0.046,0.026
0.047,0.023
0.045,0.023
0.048,0.025
0.047,0.025
0.048,0.025
0.045,0.023
0.049,0.025
0.049,0.024
0.047,0.024
0.049,0.025
0.050,0.025
0.049,0.025
0.051,0.024
0.050,0.024
0.050,0.029
0.050,0.028
0.052,0.027
0.049,0.029
0.049,0.029
0.050,0.029
0.049,0.029
0.051,0.032
0.052,0.027
0.052,0.030
0.053,0.028
0.051,0.029
0.051,0.033
0.050,0.031
0.047,0.031
0.048,0.031
0.047,0.031
0.047,0.032
0.049,0.031
0.048,0.029
0.049,0.029
0.047,0.030
0.049,0.030
0.048,0.032
0.046,0.031
0.046,0.033
0.043,0.030
0.043,0.030
0.043,0.029
0.047,0.031
0.045,0.028
0.047,0.029
0.045,0.026
0.045,0.029
0.047,0.029
0.046,0.030
0.045,0.031
0.045,0.031
0.041,0.031
0.042,0.027
0.045,0.031
0.042,0.029
0.046,0.032
0.044,0.029
0.048,0.031
0.043,0.029
0.046,0.029
0.043,0.029
0.043,0.031
0.042,0.029
0.041,0.028
0.041,0.028
0.041,0.028
0.044,0.029
0.042,0.025
0.044,0.026
0.044,0.028
0.046,0.026
0.044,0.028
0.045,0.030
0.043,0.028
0.045,0.029
0.044,0.026
0.043,0.026
0.044,0.025
0.043,0.021
0.044,0.023
0.045,0.024
0.046,0.027
0.045,0.023
0.049,0.022
0.044,0.020
0.047,0.020
0.046,0.021
0.047,0.021
0.046,0.022
0.046,0.017
0.043,0.020
0.045,0.019
0.042,0.019
0.044,0.017
0.042,0.019
0.043,0.017
0.042,0.019
0.044,0.016
0.046,0.019
0.045,0.013
0.047,0.016
0.042,0.014
0.048,0.015
0.044,0.017
0.047,0.015
0.044,0.016
0.042,0.012
0.040,0.019
0.044,0.013
0.041,0.018
0.044,0.018
0.040,0.014
0.041,0.014
0.043,0.014
0.047,0.013
0.046,0.015
0.046,0.013
0.046,0.011
0.047,0.009
0.047,0.010
0.047,0.010
0.048,0.011
0.044,0.012
0.045,0.011
0.042,0.013
0.043,0.013
0.043,0.014
0.046,0.014
0.047,0.014
0.048,0.012
0.045,0.014
0.045,0.010
0.044,0.011
0.045,0.010
0.045,0.010
0.046,0.014
0.047,0.014
0.044,0.014
0.050,0.010
0.043,0.016
0.047,0.015
0.045,0.019
0.045,0.018
0.042,0.017
0.046,0.015
0.047,0.016
0.047,0.015
0.048,0.013
0.050,0.017
0.051,0.014
0.049,0.013
0.051,0.016
0.049,0.013
0.049,0.015
0.049,0.016
0.049,0.018
0.049,0.017
0.049,0.019
0.051,0.019
0.052,0.016
0.049,0.020
0.053,0.019
0.050,0.022
0.052,0.021
0.047,0.020
0.048,0.021
0.046,0.022
0.048,0.020
0.049,0.020
0.052,0.025
0.049,0.025
0.047,0.026
0.045,0.025
0.046,0.024
0.049,0.028
0.049,0.028
0.050,0.026
0.049,0.027
0.049,0.026
0.046,0.028
0.045,0.030
0.046,0.027
0.044,0.029
0.044,0.027
0.046,0.029
0.046,0.026
0.047,0.028
0.046,0.027
0.049,0.032
0.046,0.036
0.048,0.032
0.042,0.035
0.044,0.032
0.043,0.032
0.041,0.029
0.046,0.030
0.043,0.029
0.049,0.032
0.046,0.032
0.046,0.031
0.044,0.034
0.045,0.033
0.042,0.033
0.043,0.034
0.042,0.031
0.045,0.032
0.044,0.033
0.045,0.028
0.046,0.031
0.046,0.029
0.045,0.030
0.046,0.029
0.047,0.027
0.042,0.031
0.045,0.029
0.040,0.032
0.040,0.028
0.041,0.029
0.039,0.028
0.043,0.029
0.043,0.030
0.045,0.030
0.045,0.032
0.043,0.030
0.044,0.029
0.045,0.029
0.043,0.027
0.042,0.028
0.044,0.026
0.043,0.029
0.039,0.025
0.041,0.028
0.038,0.028
0.042,0.027
0.039,0.029
0.044,0.029
0.041,0.026
0.043,0.027
0.041,0.028
0.045,0.026
0.042,0.022
0.044,0.025
0.041,0.023
0.045,0.026
0.039,0.022
0.043,0.027
0.041,0.025
0.045,0.025
0.043,0.024
0.045,0.023
0.047,0.025
0.048,0.024
0.046,0.026
0.045,0.021
0.045,0.021
0.043,0.020
0.042,0.021
0.041,0.020
0.042,0.021
0.040,0.018
0.040,0.017
0.041,0.017
0.042,0.019
0.041,0.016
0.043,0.015
0.039,0.012
0.046,0.014
0.044,0.013
0.044,0.014
0.044,0.016
0.043,0.013
0.041,0.016
0.042,0.014
0.038,0.014
0.042,0.016
0.040,0.016
0.039,0.011
0.042,0.012
0.039,0.012
0.040,0.013
0.041,0.012
0.044,0.014
0.043,0.011
0.049,0.014
0.044,0.010
0.048,0.011
0.045,0.011
0.045,0.012
0.041,0.015
0.044,0.010
0.041,0.013
0.044,0.011
0.045,0.012
0.044,0.009
0.050,0.010
0.047,0.009
0.047,0.010
0.046,0.010
0.047,0.010
0.045,0.015
0.047,0.011
0.047,0.016
0.046,0.015
0.047,0.014
0.049,0.013
0.049,0.014
0.050,0.013
0.048,0.014
0.046,0.010
0.048,0.010
0.049,0.012
0.048,0.013
0.046,0.015
0.050,0.014
0.047,0.015
0.051,0.015
0.047,0.018
0.049,0.017
0.051,0.019
0.051,0.017
0.050,0.019
0.050,0.019
0.046,0.018
0.048,0.017
0.045,0.020
0.050,0.018
0.049,0.021
0.051,0.017
0.049,0.020
0.048,0.016
0.050,0.022
0.049,0.017
0.051,0.019
0.050,0.019
0.050,0.018
0.048,0.021
0.048,0.018
0.045,0.023
0.047,0.021
0.049,0.023
0.050,0.021
0.052,0.023
0.050,0.024
0.052,0.022
0.053,0.024
0.053,0.021
0.053,0.027
0.052,0.025
0.051,0.028
0.050,0.025
0.051,0.025
0.049,0.026
0.049,0.026
0.049,0.029
0.047,0.027
0.048,0.030
0.046,0.031
0.047,0.029
0.046,0.029
0.049,0.031
0.047,0.028
0.047,0.029
0.046,0.031
0.046,0.030
0.045,0.034
0.047,0.031
0.045,0.032
0.046,0.030
0.045,0.031
0.043,0.030
0.046,0.033
0.047,0.031
0.048,0.028
0.049,0.030
0.044,0.028
0.045,0.030
0.045,0.029
0.041,0.031
0.045,0.029
0.045,0.032
0.045,0.030
0.046,0.032
0.045,0.030
0.049,0.028
0.047,0.029
0.048,0.027
0.044,0.030
0.042,0.028
0.044,0.028
0.043,0.025
0.045,0.027
0.045,0.026
0.045,0.031
0.046,0.029
0.044,0.027
0.045,0.025
0.042,0.030
0.044,0.028
0.041,0.028
0.043,0.025
0.041,0.030
0.044,0.026
0.043,0.027
0.043,0.024
0.042,0.025
0.044,0.024
0.042,0.026
0.044,0.024
0.042,0.025
0.044,0.025
0.041,0.026
0.044,0.022
0.040,0.025
0.041,0.023
0.039,0.027
0.043,0.023
0.040,0.025
0.043,0.023
0.044,0.024
0.042,0.022
0.043,0.024
0.041,0.018
0.044,0.019
0.040,0.019
0.043,0.018
0.041,0.018
0.042,0.016
0.038,0.015
0.041,0.014
0.041,0.016
0.043,0.016
0.041,0.019
0.042,0.017
0.039,0.017
0.043,0.015
0.040,0.017
0.042,0.017
0.043,0.017
0.040,0.012
0.043,0.015
0.041,0.012
0.042,0.012
0.042,0.013
0.044,0.011
0.045,0.011
0.045,0.012
0.043,0.015
0.045,0.012
0.042,0.011
0.045,0.010
0.040,0.013
0.044,0.013
0.040,0.013
0.044,0.011
0.045,0.013
0.043,0.010
0.045,0.011
0.046,0.011
0.048,0.012
0.046,0.011
0.046,0.012
0.045,0.015
0.044,0.015
0.043,0.016
0.043,0.015
0.043,0.017
0.046,0.017
0.045,0.015
0.045,0.013
0.047,0.013
0.048,0.013
0.049,0.014
0.048,0.017
0.048,0.014
0.048,0.019
0.048,0.017
0.047,0.021
0.047,0.017
0.048,0.019
0.049,0.019
0.049,0.018
0.050,0.020
0.048,0.020
0.053,0.019
0.050,0.019
0.051,0.020
0.048,0.021
0.050,0.020
0.049,0.021
0.050,0.019
0.050,0.021
0.048,0.019
0.051,0.023
0.050,0.020
0.049,0.019
0.052,0.021
0.049,0.022
0.049,0.026
0.045,0.024
0.047,0.026
0.045,0.027
0.048,0.027
0.045,0.026
0.049,0.025
0.050,0.024
0.048,0.026
0.048,0.027
0.046,0.025
0.046,0.028
0.046,0.028
0.049,0.032
0.046,0.028
0.050,0.030
0.046,0.028
0.048,0.030
0.046,0.029
0.045,0.030
0.043,0.027
0.046,0.030
0.045,0.032
0.045,0.032
0.044,0.032
0.048,0.032
0.047,0.033
0.046,0.031
0.048,0.033
0.047,0.029
0.047,0.031
0.044,0.035
0.048,0.033
0.042,0.035
0.044,0.034
0.043,0.036
0.043,0.034
0.045,0.034
0.047,0.034
0.048,0.034
0.047,0.033
0.043,0.032
0.044,0.032
0.043,0.032
0.044,0.034
0.043,0.036
0.039,0.035
0.043,0.036
0.042,0.035
0.042,0.032
0.045,0.033
0.043,0.031
0.042,0.030
0.044,0.035
0.042,0.031
0.043,0.034
0.043,0.031
0.040,0.036
0.042,0.031
0.041,0.032
0.042,0.032
0.042,0.032
0.040,0.031
0.041,0.032
0.043,0.031
0.040,0.031
0.043,0.032
0.038,0.032
0.040,0.030
0.039,0.031
0.039,0.030
0.040,0.033
0.041,0.030
0.041,0.032
0.042,0.030
0.042,0.030
0.045,0.030
0.042,0.028
0.044,0.028
0.043,0.029
0.041,0.025
0.040,0.030
0.041,0.027
0.038,0.027
0.041,0.025
0.039,0.024
0.040,0.025
0.044,0.027
0.040,0.022
0.043,0.023
0.040,0.021
0.042,0.021
0.039,0.018
0.042,0.020
0.042,0.022
0.037,0.019
0.037,0.019
0.039,0.017
0.039,0.019
0.039,0.019
0.040,0.019
0.042,0.020
0.039,0.020
0.043,0.018
0.041,0.019
0.042,0.017
0.042,0.017
0.041,0.014
0.042,0.013
0.041,0.010
0.042,0.014
0.042,0.013
0.042,0.013
0.041,0.014
0.042,0.012
0.039,0.017
0.042,0.013
0.040,0.014
0.041,0.017
0.043,0.013
0.043,0.014
0.043,0.016
0.044,0.012
0.045,0.014
0.045,0.011
0.044,0.015
0.043,0.011
0.047,0.012
0.045,0.014
0.045,0.013
0.045,0.016
0.050,0.015
0.045,0.016
0.047,0.015
0.043,0.013
0.041,0.014
0.043,0.013
0.043,0.013
0.045,0.014
0.048,0.014
0.044,0.015
0.047,0.017
0.045,0.015
0.045,0.017
0.045,0.018
0.042,0.017
0.044,0.016
0.041,0.018
0.044,0.017
0.045,0.019
0.048,0.020
0.042,0.019
0.047,0.016
0.046,0.017
0.046,0.020
0.043,0.020
0.042,0.020
0.042,0.018
0.045,0.018
0.045,0.018
0.048,0.016
0.047,0.019
0.048,0.020
0.050,0.022
0.045,0.021
0.046,0.020
0.047,0.023
0.049,0.021
0.046,0.023
0.046,0.022
0.044,0.021
0.044,0.018
0.044,0.020
0.042,0.021
0.043,0.021
0.044,0.023
0.046,0.023
0.048,0.023
0.046,0.026
0.045,0.028
0.044,0.025
0.048,0.026
0.047,0.027
0.045,0.028
0.045,0.028
0.045,0.026
0.049,0.028
0.047,0.029
0.046,0.029
0.045,0.028
0.047,0.029
0.045,0.028
0.049,0.030
0.046,0.027
0.049,0.029
0.047,0.031
0.047,0.032
0.045,0.032
0.046,0.031
0.043,0.034
0.044,0.030
0.045,0.030
0.043,0.028
0.045,0.032
0.044,0.028
0.047,0.029
0.047,0.031
0.046,0.028
0.045,0.033
0.045,0.031
0.043,0.032
0.042,0.033
0.047,0.032
0.047,0.029
0.047,0.030
0.046,0.028
0.043,0.029
0.043,0.027
0.044,0.030
0.041,0.029
0.042,0.028
0.041,0.029
0.039,0.027
0.038,0.029
0.040,0.028
0.041,0.031
0.041,0.026
0.042,0.031
0.042,0.031
0.043,0.030
0.041,0.029
0.041,0.030
0.040,0.028
0.040,0.030
0.039,0.030
0.039,0.030
0.039,0.030
0.035,0.030
0.039,0.027
0.039,0.028
0.043,0.027
0.037,0.028
0.041,0.026
0.041,0.028
0.038,0.026
0.040,0.029
0.038,0.028
0.041,0.028
0.039,0.024
0.043,0.025
0.042,0.022
0.045,0.023
0.044,0.020
0.046,0.025
0.044,0.021
0.045,0.021
0.045,0.019
0.047,0.020
0.043,0.022
0.044,0.021
0.044,0.023
0.042,0.021
0.042,0.021
0.039,0.021
0.040,0.021
0.040,0.019
0.043,0.017
0.042,0.014
0.046,0.017
0.045,0.014
0.046,0.018
0.044,0.013
0.045,0.014
0.043,0.012
0.045,0.013
0.042,0.012
0.042,0.012
0.041,0.015
0.041,0.013
0.042,0.017
0.041,0.013
0.039,0.016
0.041,0.013
0.043,0.013
0.044,0.013
0.046,0.011
0.044,0.010
0.045,0.011
0.044,0.011
0.046,0.010
0.044,0.014
0.045,0.009
0.044,0.011
0.044,0.012
0.043,0.014
0.046,0.017
0.041,0.015
0.046,0.015
0.043,0.015
0.041,0.013
0.044,0.015
0.049,0.012
0.048,0.013
0.045,0.012
0.046,0.012
0.045,0.014
0.048,0.013
0.044,0.013
0.046,0.014
0.046,0.016
0.045,0.014
0.047,0.013
0.045,0.013
0.044,0.013
0.045,0.016
0.045,0.016
0.047,0.015
0.047,0.015
0.049,0.013
0.046,0.016
0.047,0.015
0.051,0.017
0.045,0.013
0.049,0.015
0.047,0.015
0.050,0.016
0.046,0.013
0.049,0.016
0.049,0.015
0.050,0.016
0.049,0.016
0.049,0.016
0.046,0.020
0.049,0.020
0.046,0.021
0.047,0.019
0.047,0.019
0.045,0.016
0.048,0.018
0.048,0.017
0.049,0.017
0.045,0.020
0.048,0.020
0.041,0.024
0.045,0.023
0.046,0.024
0.047,0.025
0.049,0.025
0.047,0.023
0.049,0.023
0.047,0.024
0.048,0.022
0.047,0.026
0.044,0.025
0.044,0.026
0.040,0.024
0.045,0.024
0.043,0.023
0.049,0.025
0.048,0.026
0.046,0.028
0.047,0.030
0.045,0.029
0.044,0.030
0.045,0.030
0.044,0.031
0.043,0.030
0.045,0.031
0.041,0.028
0.045,0.030
0.042,0.029
0.044,0.028
0.043,0.029
0.044,0.030
0.042,0.030
0.045,0.029
0.043,0.027
0.043,0.028
0.045,0.029
0.045,0.029
0.045,0.031
0.046,0.028
0.044,0.027
0.043,0.025
0.044,0.028
0.041,0.027
0.041,0.027
0.038,0.029
0.040,0.028
0.039,0.027
0.042,0.025
0.041,0.026
0.040,0.028
0.042,0.027
0.043,0.027
0.046,0.025
0.043,0.025
0.043,0.025
0.042,0.025
0.039,0.027
0.040,0.024
0.038,0.024
0.040,0.023
0.038,0.024
0.039,0.023
0.040,0.024
0.040,0.024
0.040,0.027
0.039,0.023
0.039,0.024
0.040,0.024
0.039,0.025
0.040,0.023
0.040,0.023
0.041,0.021
0.039,0.022
0.043,0.020
0.040,0.020
0.040,0.020
0.044,0.019
0.042,0.019
0.043,0.019
0.044,0.019
0.043,0.019
0.042,0.019
0.044,0.015
0.044,0.016
0.041,0.015
0.041,0.019
0.039,0.014
0.037,0.018
0.040,0.015
0.040,0.014
0.040,0.016
0.040,0.015
0.040,0.012
0.045,0.013
0.044,0.011
0.046,0.011
0.043,0.010
0.047,0.011
0.044,0.009
0.044,0.008
0.044,0.010
0.040,0.009
0.042,0.012
0.042,0.010
0.041,0.010
0.039,0.010
0.040,0.012
0.039,0.010
0.039,0.010
0.039,0.008
0.042,0.010
0.043,0.007
0.046,0.010
0.045,0.007
0.045,0.009
0.043,0.006
0.046,0.008
0.044,0.009
0.044,0.008
0.043,0.013
0.044,0.009
0.043,0.010
0.043,0.008
0.046,0.010
0.043,0.011
0.047,0.011
0.045,0.007
0.047,0.011
0.048,0.007
0.047,0.008
0.047,0.009
0.045,0.011
0.045,0.011
0.047,0.011
0.043,0.013
0.045,0.010
0.043,0.011
0.043,0.010
0.047,0.012
0.045,0.010
0.049,0.014
0.045,0.012
0.045,0.013
0.047,0.014
0.045,0.016
0.048,0.014
0.049,0.016
0.043,0.017
0.046,0.018
0.044,0.014
0.046,0.016
0.045,0.016
0.049,0.017
0.046,0.015
0.049,0.015
0.048,0.016
0.046,0.019
0.045,0.018
0.045,0.020
0.044,0.023
0.046,0.021
0.046,0.021
0.046,0.019
0.047,0.022
0.046,0.020
0.048,0.022
0.046,0.023
0.047,0.022
0.046,0.025
0.048,0.024
0.048,0.027
0.049,0.025
0.046,0.026
0.044,0.024
0.046,0.023
0.045,0.022
0.044,0.025
0.043,0.028
0.044,0.028
0.044,0.030
0.042,0.029
0.044,0.029
0.044,0.029
0.044,0.030
0.047,0.031
0.045,0.030
0.043,0.033
0.043,0.033
0.044,0.032
0.044,0.032
0.042,0.034
0.042,0.031
0.045,0.033
0.044,0.030
0.045,0.030
0.043,0.032
0.044,0.032
0.044,0.034
0.045,0.031
0.044,0.034
0.044,0.029
0.045,0.033
0.044,0.030
0.048,0.030
0.044,0.030
0.047,0.029
0.043,0.029
0.042,0.028
0.042,0.032
0.043,0.031
0.043,0.032
0.042,0.030
0.042,0.031
0.042,0.028
0.045,0.030
0.042,0.027
0.044,0.029
0.040,0.026
0.042,0.030
0.039,0.028
0.041,0.030
0.040,0.027
0.043,0.028
0.040,0.026
0.044,0.031
0.038,0.026
0.042,0.028
0.039,0.026
0.040,0.028
0.040,0.027
0.039,0.028
0.042,0.026
0.039,0.028
0.042,0.026
0.038,0.028
0.041,0.026
0.040,0.027
0.041,0.027
0.039,0.026
0.038,0.027
0.038,0.024
0.041,0.023
0.043,0.022
0.042,0.019
0.040,0.020
0.044,0.022
0.042,0.021
0.044,0.020
0.045,0.022
0.044,0.019
0.044,0.019
0.044,0.021
0.045,0.018
0.040,0.022
0.043,0.020
0.042,0.021
0.043,0.018
0.041,0.017
0.043,0.016
0.048,0.019
0.043,0.016
0.048,0.018
0.044,0.016
0.044,0.015
0.045,0.011
0.043,0.010
0.043,0.010
0.044,0.013
0.042,0.014
0.045,0.012
0.042,0.015
0.044,0.013
0.041,0.015
0.044,0.014
0.043,0.015
0.044,0.012
0.047,0.013
0.046,0.011
0.049,0.012
0.046,0.010
0.047,0.009
0.050,0.011
0.048,0.010
0.048,0.014
0.045,0.010
0.046,0.012
0.046,0.014
0.047,0.012
0.049,0.012
0.050,0.010
0.050,0.010
0.050,0.008
0.050,0.010
0.052,0.009
0.051,0.010
0.049,0.010
0.049,0.014
0.049,0.013
0.048,0.012
0.048,0.010
0.047,0.012
0.045,0.010
0.051,0.015
0.048,0.010
0.051,0.012
0.048,0.011
0.052,0.014
0.049,0.011
0.052,0.013
0.048,0.014
0.049,0.013
0.048,0.015
0.049,0.017
0.048,0.013
0.051,0.017
0.049,0.013
0.050,0.014
0.049,0.012
0.051,0.014
0.050,0.015
0.050,0.014
0.051,0.020
0.052,0.015
0.052,0.020
0.050,0.017
0.052,0.019
0.050,0.016
0.051,0.016
0.054,0.018
0.052,0.018
0.050,0.021
0.048,0.021
0.049,0.022
0.049,0.023
0.052,0.023
0.051,0.019
0.054,0.023
0.055,0.022
0.055,0.023
0.051,0.022
0.048,0.023
0.044,0.022
0.048,0.023
0.046,0.024
0.047,0.022
0.047,0.025
0.048,0.025
0.046,0.023
0.045,0.028
0.048,0.026
0.047,0.029
0.047,0.030
0.047,0.031
0.047,0.031
0.049,0.028
0.048,0.029
0.049,0.027
0.047,0.027
0.047,0.028
0.047,0.029
0.045,0.029
0.047,0.033
0.044,0.033
0.045,0.034
0.044,0.032
0.046,0.032
0.047,0.029
0.046,0.031
0.046,0.028
0.049,0.029
0.049,0.028
0.047,0.026
0.046,0.030
0.047,0.027
0.044,0.031
0.044,0.028
0.048,0.029
0.044,0.028
0.049,0.028
0.047,0.026
0.050,0.027
0.048,0.028
0.049,0.027
0.044,0.029
0.050,0.026
0.045,0.029
0.047,0.025
0.042,0.024
0.043,0.022
0.042,0.024
0.043,0.024
0.042,0.023
0.042,0.024
0.043,0.025
0.043,0.025
0.043,0.024
0.043,0.029
0.044,0.025
0.045,0.026
0.045,0.023
0.045,0.023
0.045,0.024
0.046,0.023
0.043,0.023
0.044,0.025
0.045,0.021
0.044,0.021
0.044,0.019
0.045,0.021
0.041,0.023
0.044,0.023
0.040,0.023
0.044,0.021
0.042,0.023
0.046,0.019
0.044,0.018
0.043,0.018
0.042,0.021
0.046,0.019
0.043,0.020
0.043,0.014
0.044,0.016
0.044,0.013
0.043,0.017
0.044,0.014
0.044,0.015
0.041,0.015
0.047,0.016
0.043,0.014
0.046,0.014
0.045,0.015
0.046,0.013
0.043,0.017
0.043,0.012
0.041,0.016
0.042,0.014
0.043,0.013
0.041,0.011
0.040,0.009
0.045,0.009
0.042,0.009
0.047,0.006
0.046,0.010
0.047,0.009
0.045,0.009
0.045,0.013
0.043,0.009
0.043,0.013
0.045,0.010
0.043,0.012
0.046,0.010
0.045,0.010
0.046,0.008
0.046,0.010
0.047,0.009
0.048,0.010
0.049,0.012
0.047,0.010
0.048,0.011
0.049,0.012
0.048,0.012
0.050,0.010
0.048,0.010
0.048,0.011
0.047,0.011
0.050,0.010
0.051,0.011
0.049,0.008
0.048,0.010
0.050,0.009
0.051,0.012
0.052,0.013
0.050,0.012
0.052,0.012
0.055,0.011
0.053,0.014
0.052,0.011
0.049,0.015
0.049,0.013
0.050,0.016
0.047,0.014
0.048,0.016
0.047,0.015
0.045,0.015
0.047,0.018
0.046,0.018
0.047,0.020
0.045,0.017
0.047,0.016
0.047,0.018
0.049,0.016
0.049,0.018
0.049,0.020
0.048,0.017
0.047,0.024
0.048,0.020
0.047,0.022
0.045,0.023
0.050,0.024
0.046,0.022
0.051,0.021
0.048,0.021
0.051,0.021
0.051,0.022
0.050,0.019
0.050,0.024
0.048,0.021
0.048,0.022
0.048,0.021
0.048,0.023
0.048,0.021
0.050,0.022
0.051,0.024
0.050,0.025
0.049,0.028
0.050,0.026
0.047,0.027
0.047,0.026
0.050,0.024
0.048,0.026
0.049,0.026
0.049,0.025
0.047,0.024
0.049,0.025
0.046,0.026
0.043,0.026
0.045,0.027
0.043,0.029
0.047,0.026
0.046,0.028
0.046,0.027
0.045,0.028
0.045,0.027
0.046,0.025
0.047,0.027
0.042,0.024
0.046,0.027
0.042,0.025
0.043,0.030
0.040,0.030
0.043,0.028
0.042,0.027
0.042,0.027
0.042,0.024
0.044,0.026
0.044,0.026
0.042,0.024
0.044,0.026
0.043,0.023
0.042,0.024
0.046,0.023
0.046,0.025
0.045,0.022
0.043,0.026
0.043,0.022
0.042,0.024
0.042,0.023
0.044,0.025
0.042,0.023
0.043,0.023
0.044,0.021
0.044,0.023
0.043,0.021
0.043,0.022
0.045,0.022
0.042,0.021
0.044,0.020
0.043,0.018
0.046,0.019
0.043,0.021
0.042,0.020
0.044,0.021
0.041,0.019
0.040,0.021
0.043,0.021
0.039,0.022
0.041,0.019
0.041,0.022
0.042,0.018
0.043,0.019
0.042,0.016
0.046,0.018
0.043,0.016
0.047,0.017
0.043,0.015
0.045,0.018
0.042,0.016
0.041,0.016
0.040,0.014
0.043,0.011
0.042,0.012
0.043,0.015
0.043,0.015
0.044,0.011
0.041,0.013
0.044,0.013
0.041,0.013
0.042,0.012
0.043,0.012
0.041,0.010
0.043,0.011
0.041,0.008
0.045,0.010
0.043,0.009
0.046,0.009
0.044,0.010
0.046,0.009
0.045,0.010
0.046,0.010
0.045,0.011
0.046,0.012
0.042,0.013
0.045,0.012
0.044,0.012
0.043,0.009
0.044,0.008
0.041,0.008
0.045,0.009
0.045,0.011
0.046,0.010
0.048,0.011
0.044,0.008
0.046,0.011
0.044,0.011
0.045,0.010
0.043,0.011
0.047,0.012
0.046,0.011
0.048,0.011
0.044,0.010
0.046,0.011
0.048,0.011
0.045,0.010
0.048,0.014
0.049,0.013
0.045,0.013
0.046,0.011
0.047,0.011
0.049,0.010
0.048,0.013
0.050,0.009
0.049,0.012
0.050,0.011
0.050,0.014
0.047,0.010
0.048,0.012
0.048,0.013
0.049,0.014
0.047,0.016
0.043,0.016
0.046,0.016
0.043,0.017
0.047,0.015
0.046,0.018
0.048,0.014
0.049,0.017
0.048,0.016
0.050,0.015
0.047,0.015
0.047,0.013
0.044,0.020
0.044,0.018
0.047,0.018
0.045,0.018
0.048,0.019
0.047,0.018
0.050,0.020
0.046,0.021
0.046,0.018
0.047,0.023
0.049,0.022
0.046,0.025
0.047,0.022
0.047,0.022
0.045,0.021
0.050,0.021
0.049,0.021
0.048,0.021
0.047,0.024
0.049,0.022
0.047,0.023
0.049,0.025
0.048,0.022
0.049,0.024
0.050,0.026
0.049,0.022
0.049,0.024
0.049,0.024
0.050,0.027
0.047,0.029
0.047,0.028
0.045,0.028
0.047,0.026
0.044,0.028
0.043,0.027
0.046,0.028
0.044,0.024
0.049,0.028
0.045,0.027
0.045,0.025
0.047,0.028
0.042,0.025
0.043,0.027
0.042,0.026
0.043,0.026
0.043,0.023
0.044,0.027
0.045,0.026
0.047,0.026
0.045,0.026
0.047,0.027
0.044,0.024
0.046,0.026
0.047,0.028
0.047,0.025
0.045,0.030
0.045,0.025
0.043,0.028
0.044,0.025
0.043,0.027
0.045,0.026
0.044,0.029
0.044,0.027
0.042,0.027
0.045,0.023
0.042,0.027
0.044,0.023
0.044,0.027
0.045,0.024
0.043,0.026
0.044,0.023
0.044,0.022
0.046,0.022
0.046,0.023
0.047,0.023
0.044,0.022
0.044,0.021
0.043,0.023
0.047,0.022
0.044,0.022
0.043,0.019
0.043,0.023
0.041,0.019
0.042,0.023
0.043,0.023
0.042,0.023
0.043,0.020
0.041,0.022
0.043,0.023
0.047,0.022
0.042,0.019
0.046,0.020
0.041,0.017
0.043,0.015
0.042,0.018
0.041,0.016
0.042,0.020
0.043,0.017
0.042,0.022
0.042,0.018
0.044,0.017
0.043,0.015
0.044,0.016
0.046,0.012
0.044,0.015
0.044,0.013
0.044,0.014
0.038,0.011
0.043,0.013
0.041,0.009
0.046,0.010
0.043,0.011
0.046,0.010
0.044,0.013
0.042,0.010
0.043,0.013
0.043,0.012
0.042,0.013
0.043,0.013
0.043,0.014
0.042,0.013
0.040,0.013
0.044,0.010
0.044,0.014
0.042,0.009
0.045,0.013
0.043,0.010
0.047,0.012
0.047,0.010
0.047,0.010
0.045,0.013
0.046,0.012
0.043,0.014
0.046,0.014
0.046,0.013
0.044,0.011
0.047,0.013
0.043,0.011
0.047,0.013
0.045,0.011
0.047,0.012
0.046,0.012
0.047,0.013
0.045,0.014
0.048,0.012
0.045,0.014
0.047,0.014
0.051,0.015
0.051,0.014
0.048,0.015
0.049,0.014
0.049,0.017
0.049,0.013
0.049,0.015
0.050,0.014
0.048,0.015
0.048,0.015
0.048,0.018
0.045,0.016
0.048,0.018
0.047,0.014
0.049,0.019
0.048,0.016
0.049,0.017
0.046,0.019
0.047,0.018
0.044,0.021
0.046,0.019
0.043,0.020
0.046,0.022
0.045,0.020
0.045,0.020
0.045,0.021
0.045,0.019
0.045,0.021
0.044,0.022
0.047,0.024
0.045,0.028
0.048,0.026
0.044,0.024
0.047,0.026
0.049,0.026
0.047,0.027
0.051,0.026
0.047,0.025
0.047,0.025
0.048,0.030
0.049,0.029
0.047,0.029
0.048,0.028
0.049,0.027
0.049,0.025
0.051,0.026
0.048,0.028
0.050,0.026
0.048,0.030
0.043,0.028
0.043,0.029
0.039,0.028
0.041,0.031
0.042,0.031
0.041,0.032
0.041,0.029
0.043,0.030
0.041,0.027
0.044,0.028
0.043,0.030
0.045,0.030
0.044,0.031
0.045,0.030
0.039,0.032
0.041,0.028
0.040,0.030
0.039,0.030
0.041,0.028
0.039,0.026
0.042,0.028
0.041,0.028
0.043,0.027
0.042,0.028
0.043,0.027
0.041,0.030
0.043,0.027
0.042,0.029
0.040,0.030
0.038,0.028
0.040,0.028
0.039,0.029
0.041,0.028
0.039,0.028
0.041,0.025
0.035,0.030
0.038,0.026
0.037,0.027
0.040,0.026
0.040,0.027
0.039,0.027
0.041,0.028
0.042,0.026
0.043,0.026
0.043,0.023
0.041,0.025
0.041,0.022
0.041,0.027
0.041,0.024
0.041,0.024
0.038,0.024
0.038,0.025
0.039,0.024
0.038,0.025
0.039,0.023
0.039,0.023
0.040,0.024
0.038,0.023
0.039,0.022
0.041,0.020
0.041,0.019
0.040,0.020
0.040,0.020
0.041,0.019
0.041,0.023
0.041,0.020
0.041,0.024
0.041,0.018
0.039,0.022
0.042,0.018
0.042,0.019
0.040,0.018
0.042,0.017
0.042,0.017
0.043,0.014
0.040,0.013
0.039,0.014
0.042,0.012
0.040,0.015
0.043,0.013
0.043,0.012
0.044,0.011
0.042,0.014
0.043,0.015
0.045,0.011
0.043,0.016
0.045,0.013
0.043,0.014
0.044,0.012
0.042,0.011
0.040,0.013
0.046,0.013
0.042,0.010
0.046,0.013
0.044,0.012
0.045,0.011
0.044,0.012
0.044,0.013
0.045,0.016
0.043,0.015
0.042,0.016
0.042,0.012
0.044,0.014
0.045,0.013
0.047,0.016
0.046,0.011
0.048,0.014
0.047,0.014
0.047,0.013
0.046,0.015
0.046,0.017
0.046,0.020
0.045,0.013
0.042,0.017
0.047,0.013
0.046,0.016
0.046,0.014
0.048,0.015
0.047,0.015
0.049,0.017
0.048,0.015
0.048,0.016
0.048,0.015
0.048,0.020
0.049,0.018
0.049,0.017
0.047,0.018
0.052,0.019
0.048,0.018
0.052,0.018
0.048,0.018
0.050,0.018
0.050,0.017
0.047,0.018
0.050,0.022
0.047,0.021
0.048,0.024
0.049,0.022
0.049,0.022
0.048,0.020
0.050,0.022
0.049,0.018
0.050,0.019
0.046,0.025
0.049,0.023
0.046,0.028
0.048,0.026
0.048,0.029
0.047,0.025
0.050,0.027
0.049,0.026
0.050,0.025
0.048,0.026
0.049,0.025
0.047,0.031
0.046,0.030
0.044,0.030
0.045,0.029
0.050,0.028
0.051,0.030
0.049,0.030
0.047,0.029
0.045,0.029
0.047,0.030
0.047,0.031
0.048,0.031
0.046,0.034
0.045,0.033
0.045,0.034
0.044,0.032
0.043,0.029
0.045,0.032
0.045,0.030
0.045,0.030
0.045,0.031
0.047,0.031
0.046,0.035
0.044,0.030
0.046,0.030
0.042,0.030
0.046,0.031
0.043,0.030
0.048,0.030
0.045,0.028
0.045,0.029
0.049,0.031
0.048,0.029
0.045,0.033
0.045,0.033
0.045,0.034
0.045,0.033
0.047,0.032
0.045,0.029
0.047,0.031
0.046,0.026
0.049,0.029
0.048,0.027
0.047,0.026
0.043,0.026
0.044,0.027
0.042,0.025
0.046,0.026
0.041,0.027
0.042,0.027
0.042,0.028
0.043,0.028
0.044,0.026
0.042,0.028
0.041,0.027
0.043,0.026
0.044,0.027
0.044,0.028
0.045,0.024
0.047,0.024
0.045,0.023
0.045,0.023
0.044,0.021
0.044,0.022
0.044,0.020
0.043,0.020
0.045,0.021
0.044,0.021
0.044,0.022
0.043,0.020
0.041,0.023
0.046,0.023
0.041,0.022
0.043,0.020
0.042,0.022
0.042,0.019
0.039,0.019
0.040,0.018
0.041,0.018
0.042,0.018
0.043,0.018
0.044,0.018
0.044,0.017
0.043,0.016
0.044,0.014
0.046,0.016
0.046,0.013
0.047,0.016
0.044,0.014
0.043,0.018
0.043,0.014
0.042,0.011
0.044,0.011
0.042,0.010
0.043,0.009
0.044,0.011
0.046,0.010
0.046,0.012
0.048,0.012
0.046,0.011
0.046,0.011
0.045,0.011
0.044,0.011
0.044,0.008
0.045,0.012
0.045,0.010
0.046,0.010
0.044,0.010
0.042,0.011
0.044,0.010
0.043,0.009
0.044,0.011
0.044,0.012
0.046,0.010
0.046,0.009
0.046,0.010
0.047,0.011
0.044,0.015
0.045,0.010
0.044,0.014
0.043,0.012
0.045,0.012
0.045,0.010
0.048,0.012
0.045,0.011
0.047,0.012
0.043,0.012
0.046,0.012
0.045,0.011
0.046,0.014
0.045,0.013
0.048,0.012
0.047,0.011
0.050,0.013
0.047,0.011
0.049,0.014
0.046,0.013
0.047,0.012
0.044,0.015
0.044,0.014
0.044,0.016
0.045,0.015
0.045,0.019
0.044,0.017
0.045,0.020
0.044,0.020
0.047,0.021
0.045,0.019
0.049,0.020
0.047,0.016
0.047,0.016
0.046,0.017
0.044,0.020
0.044,0.020
0.044,0.020
0.043,0.021
0.044,0.019
0.045,0.019
0.046,0.018
0.047,0.020
0.048,0.019
0.051,0.020
0.047,0.023
0.047,0.020
0.043,0.024
0.046,0.023
0.044,0.027
0.045,0.025
0.052,0.023
0.048,0.024
0.047,0.024
0.044,0.024
0.046,0.025
0.041,0.027
0.043,0.029
0.042,0.028
0.042,0.026
0.044,0.028
0.046,0.027
0.042,0.029
0.043,0.030
0.042,0.030
0.042,0.030
0.041,0.030
0.039,0.031
0.041,0.030
0.042,0.029
0.041,0.030
0.045,0.030
0.045,0.026
0.045,0.027
0.044,0.024
0.043,0.028
0.045,0.032
0.045,0.028
0.044,0.029
0.042,0.027
0.042,0.030
0.041,0.028
0.043,0.030
0.040,0.028
0.043,0.027
0.042,0.027
0.043,0.027
0.043,0.026
0.042,0.026
0.042,0.027
0.043,0.028
0.046,0.027
0.044,0.025
0.042,0.027
0.043,0.028
0.040,0.026
0.043,0.024
0.042,0.025
0.042,0.022
0.043,0.026
0.040,0.024
0.043,0.023
0.040,0.023
0.043,0.021
0.043,0.022
0.042,0.022
0.043,0.023
0.043,0.020
0.047,0.022
0.042,0.022
0.044,0.023
0.043,0.023
0.045,0.021
0.043,0.020
0.043,0.018
0.043,0.020
0.043,0.019
0.042,0.022
0.043,0.020
0.041,0.023
0.043,0.022
0.042,0.023
0.045,0.021
0.043,0.022
0.042,0.017
0.044,0.019
0.042,0.015
0.042,0.017
0.042,0.016
0.044,0.014
0.042,0.015
0.044,0.013
0.046,0.016
0.046,0.016
0.041,0.017
0.042,0.017
0.040,0.014
0.042,0.016
0.041,0.013
0.039,0.012
0.044,0.015
0.043,0.014
0.045,0.010
0.041,0.010
0.044,0.011
0.043,0.012
0.046,0.011
0.043,0.013
0.045,0.014
0.044,0.017
0.044,0.011
0.043,0.014
0.044,0.012
0.042,0.014
0.043,0.011
0.042,0.009
0.044,0.010
0.043,0.010
0.044,0.009
0.047,0.009
0.046,0.010
0.046,0.011
0.047,0.010
0.047,0.013
0.045,0.012
0.049,0.011
0.045,0.014
0.047,0.011
0.047,0.015
0.048,0.013
0.050,0.011
0.046,0.011
0.047,0.011
0.048,0.015
0.048,0.013
0.050,0.018
0.048,0.015
0.045,0.016
0.047,0.015
0.045,0.017
0.049,0.014
0.045,0.016
0.049,0.015
0.049,0.019
0.050,0.016
0.047,0.018
0.048,0.016
0.047,0.015
0.047,0.017
0.045,0.020
0.049,0.018
0.048,0.020
0.049,0.019
0.048,0.023
0.050,0.018
0.051,0.023
0.049,0.019
0.049,0.018
0.047,0.021
0.051,0.019
0.046,0.023
0.052,0.023
0.049,0.024
0.049,0.021
0.049,0.022
0.049,0.019
0.049,0.022
0.049,0.024
0.049,0.022
0.049,0.026
0.049,0.026
0.047,0.026
0.047,0.024
0.047,0.024
0.045,0.024
0.047,0.025
0.046,0.024
0.047,0.023
0.049,0.025
0.047,0.026
0.048,0.030
0.047,0.030
0.049,0.032
0.049,0.028
0.049,0.030
0.047,0.029
0.051,0.026
0.046,0.029
0.046,0.029
0.044,0.033
0.046,0.029
0.045,0.032
0.044,0.031
0.046,0.030
0.043,0.029
0.048,0.030
0.048,0.029
0.049,0.028
0.046,0.029
0.048,0.029
0.043,0.032
0.047,0.029
0.046,0.031
0.043,0.033
0.044,0.033
0.043,0.029
0.044,0.028
0.043,0.029
0.045,0.028
0.045,0.028
0.044,0.028
0.043,0.027
0.043,0.029
0.042,0.029
0.041,0.030
0.042,0.031
0.044,0.026
0.043,0.029
0.047,0.026
0.043,0.029
0.041,0.028
0.041,0.027
0.040,0.028
0.039,0.028
0.043,0.027
0.039,0.027
0.042,0.023
0.040,0.027
0.043,0.024
0.043,0.027
0.042,0.026
0.043,0.027
0.040,0.023
0.040,0.026
0.041,0.024
0.042,0.026
0.041,0.023
0.040,0.025
0.041,0.021
0.041,0.025
0.040,0.021
0.039,0.024
0.038,0.022
0.040,0.022
0.037,0.022
0.042,0.022
0.040,0.021
0.045,0.020
0.042,0.020
0.041,0.018
0.042,0.017
0.042,0.017
0.043,0.018
0.042,0.017
0.040,0.018
0.037,0.017
0.036,0.019
0.039,0.016
0.040,0.020
0.042,0.016
0.042,0.018
0.040,0.016
0.039,0.017
0.040,0.018
0.042,0.016
0.041,0.014
0.042,0.012
0.043,0.011
0.043,0.015
0.043,0.012
0.042,0.012
0.039,0.015
0.042,0.011
0.041,0.015
0.041,0.011
0.043,0.014
0.044,0.012
0.045,0.013
0.043,0.013
0.046,0.011
0.045,0.012
0.044,0.011
0.045,0.013
0.044,0.013
0.043,0.013
0.043,0.012
0.041,0.017
0.042,0.016
0.045,0.015
0.042,0.014
0.046,0.015
0.047,0.013
0.044,0.015
0.046,0.013
0.049,0.013
0.043,0.011
0.045,0.012
0.043,0.014
0.042,0.014
0.040,0.017
0.042,0.014
0.043,0.016
0.040,0.016
0.045,0.019
0.042,0.019
0.046,0.017
0.044,0.017
0.043,0.016
0.045,0.017
0.046,0.021
0.044,0.017
0.047,0.020
0.046,0.016
0.048,0.017
0.045,0.017
0.048,0.019
0.046,0.017
0.045,0.018
0.046,0.017
0.046,0.018
0.049,0.019
0.047,0.020
0.046,0.023
0.045,0.019
0.041,0.022
0.042,0.021
0.040,0.023
0.043,0.023
0.044,0.027
0.044,0.024
0.044,0.024
0.043,0.024
0.045,0.022
0.043,0.028
0.047,0.026
0.045,0.031
0.045,0.029
0.047,0.026
0.045,0.024
0.047,0.027
0.043,0.024
0.042,0.025
0.041,0.030
0.042,0.027
0.038,0.030
0.039,0.028
0.041,0.032
0.042,0.030
0.042,0.028
0.045,0.029
0.045,0.028
0.045,0.031
0.045,0.030
0.044,0.033
0.046,0.032
0.045,0.031
0.045,0.031
0.045,0.034
0.044,0.030
0.045,0.030
0.047,0.029
0.048,0.029
0.045,0.032
0.044,0.031
0.039,0.032
0.042,0.031
0.042,0.030
0.040,0.030
0.044,0.030
0.042,0.033
0.044,0.030
0.045,0.031
0.044,0.032
0.045,0.033
0.043,0.028
0.042,0.031
0.044,0.031
0.041,0.030
0.041,0.030
0.043,0.032
0.043,0.028
0.044,0.031
0.044,0.026
0.044,0.029
0.044,0.028
0.045,0.028
0.043,0.031
0.042,0.030
0.041,0.031
0.044,0.030
0.040,0.030
0.042,0.029
0.041,0.025
0.041,0.028
0.042,0.024
0.044,0.026
0.043,0.025
0.045,0.026
0.044,0.025
0.045,0.026
0.045,0.024
0.045,0.025
0.042,0.024
0.041,0.028
0.041,0.021
0.044,0.025
0.040,0.023
0.044,0.022
0.042,0.022
0.042,0.022
0.041,0.022
0.043,0.022
0.042,0.023
0.041,0.022
0.041,0.022
0.045,0.022
0.039,0.021
0.041,0.020
0.039,0.020
0.041,0.017
0.043,0.019
0.041,0.015
0.040,0.015
0.040,0.014
0.043,0.017
0.042,0.015
0.045,0.016
0.043,0.016
0.044,0.016
0.042,0.016
0.042,0.014
0.040,0.016
0.041,0.014
0.039,0.016
0.042,0.013
0.041,0.011
0.043,0.012
0.044,0.011
0.045,0.012
0.046,0.012
0.044,0.010
0.045,0.013
0.047,0.013
0.045,0.013
0.047,0.011
0.046,0.012
0.041,0.016
0.045,0.013
0.041,0.016
0.043,0.014
0.042,0.013
0.044,0.014
0.044,0.014
0.043,0.014
0.043,0.014
0.045,0.014
0.045,0.014
0.045,0.017
0.045,0.016
0.045,0.018
0.045,0.017
0.046,0.015
0.047,0.014
0.045,0.016
0.047,0.014
0.048,0.014
0.047,0.012
0.047,0.014
0.047,0.015
0.045,0.017
0.044,0.014
0.049,0.016
0.047,0.013
0.049,0.014
0.047,0.016
0.048,0.015
0.050,0.014
0.051,0.011
0.052,0.015
0.050,0.013
0.051,0.015
0.048,0.014
0.049,0.016
0.048,0.015
0.047,0.017
0.050,0.019
0.050,0.023
0.052,0.019
0.050,0.021
0.050,0.019
0.049,0.017
0.048,0.017
0.050,0.019
0.049,0.022
0.048,0.019
0.047,0.024
0.047,0.020
0.048,0.022
0.044,0.022
0.048,0.022
0.046,0.024
0.047,0.021
0.047,0.021
0.048,0.023
0.049,0.024
0.049,0.025
0.047,0.028
0.046,0.028
0.046,0.031
0.046,0.029
0.049,0.029
0.046,0.025
0.049,0.028
0.046,0.028
0.047,0.027
0.044,0.029
0.047,0.032
0.045,0.035
0.047,0.031
0.048,0.030
0.045,0.027
0.047,0.030
0.044,0.029
0.045,0.029
0.042,0.032
0.043,0.031
0.042,0.033
0.045,0.033
0.044,0.034
0.040,0.032
0.043,0.032
0.041,0.030
0.045,0.031
0.042,0.029
0.043,0.031
0.045,0.030
0.043,0.029
0.044,0.030
0.044,0.032
0.043,0.030
0.042,0.030
0.041,0.031
0.040,0.028
0.039,0.031
0.041,0.030
0.044,0.031
0.041,0.029
0.044,0.028
0.043,0.030
0.044,0.028
0.044,0.029
0.042,0.027
0.045,0.029
0.044,0.027
0.043,0.025
0.043,0.026
0.046,0.029
0.042,0.025
0.043,0.024
0.041,0.023
0.040,0.025
0.042,0.026
0.042,0.028
0.046,0.025
0.042,0.025
0.043,0.026
0.043,0.025
0.044,0.024
0.043,0.025
0.039,0.025
0.042,0.025
0.040,0.025
0.042,0.026
0.041,0.025
0.040,0.025
0.040,0.025
0.034,0.025
0.039,0.023
0.039,0.024
0.041,0.022
0.043,0.023
0.041,0.022
0.041,0.021
0.040,0.022
0.041,0.022
0.040,0.017
0.042,0.017
0.039,0.016
0.041,0.017
0.037,0.020
0.042,0.016
0.040,0.021
0.039,0.019
0.040,0.019
0.040,0.017
0.041,0.016
0.038,0.017
0.041,0.014
0.040,0.013
0.042,0.013
0.041,0.010
0.045,0.013
0.045,0.011
0.044,0.011
0.042,0.010
0.045,0.012
0.044,0.010
0.042,0.010
0.043,0.011
0.045,0.011
0.042,0.015
0.046,0.012
0.041,0.011
0.043,0.011
0.046,0.013
0.048,0.010
0.047,0.013
0.046,0.009
0.048,0.010
0.047,0.010
0.048,0.011
0.043,0.012
0.044,0.010
0.044,0.013
0.045,0.013
0.043,0.014
0.045,0.014
0.044,0.013
0.043,0.017
0.045,0.015
0.043,0.012
0.042,0.013
0.043,0.011
0.045,0.013
0.043,0.014
0.044,0.014
0.043,0.016
0.047,0.015
0.045,0.013
0.046,0.014
0.046,0.016
0.046,0.014
0.044,0.016
0.047,0.013
0.046,0.015
0.049,0.015
0.045,0.015
0.047,0.016
0.046,0.018
0.051,0.019
0.046,0.018
0.048,0.018
0.046,0.018
0.049,0.016
0.049,0.017
0.048,0.015
0.048,0.015
0.048,0.017
0.047,0.017
0.049,0.018
0.048,0.016
0.045,0.019
0.047,0.020
0.044,0.021
0.043,0.020
0.046,0.020
0.046,0.019
0.047,0.022
0.045,0.024
0.048,0.024
0.048,0.026
0.048,0.026
0.047,0.027
0.046,0.024
0.046,0.027
0.044,0.024
0.047,0.026
0.043,0.027
0.044,0.027
0.044,0.031
0.044,0.028
0.043,0.032
0.043,0.028
0.046,0.030
0.044,0.032
0.049,0.031
0.045,0.030
0.044,0.029
0.044,0.030
0.046,0.031
0.042,0.034
0.044,0.032
0.042,0.032
0.042,0.033
0.043,0.031
0.043,0.030
0.044,0.031
0.044,0.031
0.043,0.033
0.045,0.031
0.043,0.032
0.042,0.033
0.044,0.033
0.042,0.034
0.043,0.035
0.041,0.035
0.042,0.031
0.043,0.033
0.041,0.029
0.045,0.030
0.042,0.031
0.044,0.031
0.043,0.031
0.042,0.027
0.044,0.032
0.045,0.030
0.044,0.030
0.041,0.029
0.040,0.029
0.041,0.030
0.042,0.030
0.042,0.027
0.041,0.029
0.041,0.025
0.036,0.030
0.041,0.026
0.037,0.028
0.040,0.023
0.039,0.024
0.042,0.024
0.042,0.022
0.042,0.023
0.042,0.023
0.045,0.024
0.042,0.024
0.044,0.023
0.044,0.025
0.044,0.020
0.041,0.023
0.044,0.022
0.042,0.024
0.042,0.019
0.041,0.022
0.038,0.017
0.039,0.021
0.040,0.018
0.040,0.020
0.037,0.018
0.042,0.019
0.040,0.017
0.041,0.018
0.039,0.018
0.041,0.015
0.037,0.012
0.038,0.013
0.039,0.015
0.040,0.018
0.037,0.016
0.041,0.015
0.037,0.017
0.042,0.015
0.039,0.017
0.041,0.013
0.042,0.014
0.042,0.011
0.042,0.012
0.038,0.011
0.043,0.013
0.039,0.011
0.042,0.011
0.041,0.010
0.043,0.010
0.043,0.010
0.045,0.010
0.045,0.012
0.047,0.012
0.042,0.012
0.046,0.010
0.043,0.010
0.045,0.010
0.041,0.010
0.045,0.010
0.044,0.013
0.044,0.008
0.049,0.009
0.045,0.009
0.049,0.009
0.045,0.011
0.047,0.012
0.045,0.013
0.048,0.011
0.043,0.013
0.046,0.011
0.047,0.015
0.045,0.015
0.046,0.010
0.045,0.011
0.046,0.008
0.045,0.011
0.046,0.011
0.048,0.013
0.044,0.014
0.046,0.014
0.046,0.013
0.046,0.014
0.047,0.013
0.046,0.013
0.047,0.014
0.047,0.016
0.049,0.014
0.047,0.019
0.046,0.020
0.044,0.020
0.046,0.017
0.044,0.018
0.047,0.020
0.047,0.021
0.049,0.020
0.050,0.021
0.050,0.020
0.048,0.021
0.047,0.018
0.048,0.019
0.046,0.018
0.049,0.020
0.048,0.019
0.048,0.019
0.047,0.025
0.046,0.020
0.043,0.025
0.045,0.024
0.045,0.024
0.045,0.022
0.047,0.023
0.046,0.024
0.044,0.023
0.047,0.026
0.044,0.022
0.044,0.026
0.046,0.026
0.046,0.027
0.044,0.024
0.047,0.026
0.045,0.024
0.047,0.024
0.045,0.026
0.043,0.026
0.042,0.029
0.042,0.029
0.045,0.029
0.043,0.031
0.045,0.031
0.043,0.027
0.047,0.031
0.045,0.032
0.045,0.031
0.044,0.030
0.044,0.030
0.043,0.032
0.041,0.030
0.040,0.033
0.040,0.029
0.044,0.030
0.040,0.029
0.042,0.029
0.040,0.031
0.044,0.028
0.040,0.032
0.044,0.031
0.041,0.032
0.041,0.032
0.040,0.033
0.045,0.034
0.043,0.033
0.043,0.032
0.043,0.032
0.042,0.030
0.041,0.034
0.042,0.031
0.041,0.031
0.043,0.029
0.043,0.028
0.040,0.032
0.042,0.030
0.038,0.032
0.040,0.029
0.041,0.032
0.042,0.030
0.041,0.031
0.043,0.026
0.041,0.028
0.041,0.025
0.040,0.027
0.042,0.025
0.041,0.027
0.044,0.024
0.041,0.025
0.044,0.028
0.041,0.029
0.043,0.027
0.041,0.028
0.042,0.025
0.041,0.028
0.042,0.024
0.043,0.025
0.042,0.020
0.042,0.025
0.041,0.022
0.040,0.026
0.042,0.023
0.041,0.026
0.040,0.022
0.043,0.023
0.041,0.021
0.042,0.022
0.040,0.022
0.041,0.022
0.038,0.020
0.041,0.022
0.040,0.017
0.041,0.019
0.041,0.016
0.042,0.018
0.042,0.019
0.044,0.021
0.042,0.020
0.044,0.019
0.045,0.021
0.044,0.017
0.040,0.019
0.040,0.015
0.040,0.017
0.039,0.013
0.044,0.014
0.041,0.012
0.044,0.015
0.043,0.015
0.043,0.015
0.043,0.012
0.044,0.013
0.040,0.015
0.041,0.014
0.039,0.015
0.042,0.015
0.041,0.013
0.040,0.012
0.041,0.015
0.042,0.013
0.041,0.015
0.045,0.013
0.043,0.014
0.040,0.016
0.043,0.013
0.040,0.018
0.043,0.015
0.039,0.017
0.043,0.015
0.039,0.016
0.041,0.015
0.042,0.019
0.044,0.015
0.046,0.016
0.045,0.013
0.046,0.013
0.048,0.017
0.046,0.014
0.046,0.014
0.045,0.017
0.044,0.017
0.044,0.015
0.042,0.018
0.045,0.016
0.043,0.016
0.046,0.015
0.045,0.017
0.047,0.017
0.044,0.017
0.046,0.017
0.043,0.019
0.046,0.018
0.042,0.018
0.045,0.018
0.043,0.017
0.044,0.019
0.042,0.019
0.043,0.018
0.043,0.022
0.044,0.019
0.048,0.022
0.045,0.023
0.050,0.021
0.045,0.022
0.049,0.021
0.046,0.024
0.044,0.022
0.044,0.023
0.044,0.021
0.048,0.023
0.045,0.022
0.046,0.024
0.045,0.026
0.047,0.028
0.048,0.029
0.046,0.028
0.045,0.031
0.046,0.031
0.049,0.030
0.047,0.030
0.048,0.026
0.047,0.028
0.046,0.024
0.044,0.029
0.044,0.028
0.044,0.030
0.043,0.030
0.047,0.031
0.046,0.032
0.046,0.035
0.044,0.030
0.047,0.030
0.047,0.032
0.046,0.031
0.041,0.035
0.043,0.033
0.040,0.032
0.041,0.030
0.044,0.033
0.041,0.032
0.044,0.032
0.041,0.031
0.044,0.030
0.043,0.030
0.045,0.032
0.044,0.032
0.043,0.031
0.042,0.032
0.043,0.030
0.041,0.031
0.041,0.030
0.043,0.032
0.040,0.030
0.042,0.032
0.040,0.030
0.042,0.031
0.040,0.029
0.044,0.028
0.041,0.032
0.042,0.030
0.039,0.032
0.041,0.028
0.039,0.030
0.040,0.029
0.040,0.031
0.039,0.030
0.037,0.028
0.042,0.028
0.037,0.027
0.039,0.027
0.036,0.028
0.039,0.028
0.038,0.029
0.041,0.027
0.039,0.029
0.041,0.026
0.042,0.029
0.042,0.026
0.041,0.028
0.042,0.025
0.041,0.023
0.042,0.025
0.041,0.024
0.040,0.020
0.041,0.023
0.044,0.023
0.043,0.023
0.043,0.022
0.041,0.024
0.041,0.023
0.039,0.023
0.041,0.021
0.041,0.022
0.041,0.021
0.042,0.023
0.043,0.019
0.044,0.019
0.041,0.018
0.045,0.017
0.044,0.018
0.041,0.019
0.045,0.023
0.040,0.018
0.040,0.020
0.040,0.019
0.041,0.022
0.041,0.021
0.040,0.019
0.040,0.017
0.040,0.017
0.040,0.018
0.040,0.016
0.037,0.013
0.041,0.015
0.043,0.013
0.041,0.015
0.044,0.013
0.039,0.012
0.041,0.015
0.042,0.014
0.042,0.016
0.042,0.014
0.043,0.019
0.041,0.013
0.042,0.016
0.043,0.013
0.045,0.013
0.045,0.012
0.048,0.013
0.047,0.013
0.045,0.011
0.046,0.016
0.045,0.013
0.047,0.014
0.044,0.013
0.042,0.015
0.044,0.014
0.045,0.013
0.047,0.014
0.049,0.015
0.046,0.010
0.049,0.012
0.044,0.012
0.045,0.010
0.044,0.013
0.044,0.011
0.043,0.014
0.044,0.009
0.042,0.013
0.042,0.013
0.043,0.017
0.045,0.017
0.047,0.021
0.044,0.017
0.044,0.020
0.046,0.015
0.045,0.018
0.046,0.018
0.044,0.017
0.045,0.016
0.046,0.018
0.045,0.018
0.045,0.016
0.045,0.018
0.046,0.018
0.048,0.017
0.048,0.019
0.049,0.017
0.049,0.019
0.048,0.019
0.048,0.020
0.047,0.021
0.047,0.019
0.046,0.022
0.047,0.021
0.048,0.024
0.043,0.019
0.048,0.022
0.044,0.022
0.047,0.021
0.045,0.024
0.049,0.022
0.050,0.025
0.047,0.023
0.046,0.025
0.044,0.023
0.050,0.024
0.044,0.022
0.047,0.022
0.044,0.026
0.046,0.026
0.044,0.027
0.044,0.025
0.042,0.026
0.043,0.026
0.047,0.026
0.049,0.026
0.046,0.029
0.047,0.028
0.045,0.027
0.044,0.032
0.043,0.031
0.042,0.028
0.044,0.030
0.042,0.029
0.044,0.028
0.044,0.029
0.045,0.028
0.043,0.030
0.044,0.030
0.046,0.028
0.046,0.032
0.045,0.028
0.043,0.030
0.043,0.030
0.042,0.032
0.043,0.030
0.044,0.028
0.041,0.029
0.043,0.028
0.041,0.027
0.043,0.029
0.043,0.027
0.041,0.028
0.045,0.032
0.044,0.032
0.043,0.033
0.043,0.029
0.042,0.031
0.040,0.029
0.041,0.032
0.042,0.029
0.041,0.029
0.039,0.028
0.041,0.029
0.041,0.024
0.040,0.026
0.039,0.026
0.039,0.026
0.039,0.028
0.037,0.030
0.039,0.027
0.040,0.029
0.043,0.027
0.041,0.025
0.042,0.023
0.041,0.026
0.043,0.025
0.041,0.025
0.044,0.024
0.042,0.024
0.043,0.023
0.039,0.024
0.043,0.024
0.041,0.023
0.042,0.023
0.043,0.024
0.043,0.021
0.044,0.017
0.044,0.019
0.045,0.017
0.045,0.021
0.041,0.019
0.044,0.019
0.041,0.017
0.039,0.018
0.040,0.014
0.036,0.017
0.038,0.013
0.037,0.017
0.040,0.016
0.039,0.015
0.041,0.013
0.043,0.013
0.040,0.012
0.041,0.011
0.040,0.010
0.041,0.009
0.041,0.011
0.041,0.011
0.039,0.011
0.040,0.012
0.041,0.012
0.040,0.011
0.039,0.012
0.042,0.011
0.041,0.013
0.043,0.010
0.042,0.013
0.043,0.011
0.044,0.012
0.045,0.009
0.048,0.008
0.048,0.009
0.046,0.009
0.046,0.007
0.045,0.007
0.047,0.011
0.047,0.010
0.047,0.011
0.044,0.012
0.045,0.008
0.047,0.009
0.041,0.008
0.045,0.007
0.044,0.011
0.045,0.011
0.048,0.010
0.046,0.012
0.045,0.007
0.043,0.012
0.044,0.010
0.045,0.010
0.043,0.013
0.045,0.013
0.045,0.015
0.045,0.014
0.045,0.013
0.046,0.010
0.046,0.010
0.049,0.012
0.049,0.010
0.049,0.016
0.049,0.014
0.050,0.013
0.047,0.014
0.047,0.012
0.049,0.015
0.048,0.012
0.049,0.012
0.051,0.012
0.050,0.014
0.049,0.014
0.050,0.015
0.049,0.015
0.045,0.018
0.050,0.017
0.046,0.018
0.049,0.019
0.049,0.020
0.050,0.019
0.049,0.020
0.048,0.021
0.050,0.018
0.048,0.023
0.049,0.021
0.048,0.021
0.047,0.021
0.049,0.023
0.048,0.022
0.048,0.023
0.049,0.021
0.050,0.023
0.051,0.026
0.050,0.025
0.048,0.028
0.048,0.024
0.046,0.029
0.043,0.025
0.049,0.027
0.048,0.026
0.051,0.026
0.050,0.028
0.051,0.026
0.045,0.030
0.045,0.028
0.045,0.030
0.045,0.028
0.047,0.030
0.045,0.030
0.048,0.032
0.045,0.031
0.045,0.027
0.045,0.029
0.047,0.030
0.045,0.031
0.046,0.031
0.047,0.030
0.047,0.029
0.049,0.027
0.047,0.024
0.044,0.025
0.046,0.023
0.043,0.025
0.044,0.028
0.043,0.029
0.042,0.030
0.046,0.027
0.043,0.028
0.048,0.027
0.045,0.027
0.045,0.025
0.048,0.026
0.048,0.023
0.048,0.023
0.047,0.026
0.045,0.022
0.047,0.025
0.046,0.023
0.047,0.022
0.047,0.023
0.045,0.023
0.043,0.025
0.041,0.022
0.044,0.024
0.045,0.023
0.047,0.025
0.042,0.023
0.044,0.024
0.042,0.023
0.041,0.023
0.042,0.020
0.044,0.022
0.042,0.021
0.043,0.024
0.038,0.023
0.041,0.023
0.040,0.020
0.043,0.021
0.038,0.020
0.045,0.020
0.041,0.021
0.043,0.020
0.043,0.022
0.041,0.020
0.043,0.020
0.042,0.019
0.043,0.022
0.042,0.019
0.042,0.021
0.041,0.021
0.039,0.020
0.039,0.015
0.041,0.017
0.040,0.014
0.044,0.016
0.042,0.015
0.045,0.011
0.045,0.012
0.045,0.011
0.042,0.011
0.045,0.011
0.044,0.011
0.042,0.011
0.043,0.010
0.043,0.011
0.045,0.012
0.044,0.010
0.043,0.012
0.044,0.011
0.041,0.011
0.040,0.008
0.041,0.009
0.044,0.007
0.045,0.008
0.044,0.008
0.046,0.010
0.045,0.010
0.046,0.012
0.045,0.014
0.045,0.010
0.042,0.011
0.046,0.009
0.042,0.012
0.047,0.010
0.046,0.012
0.043,0.008
0.047,0.010
0.047,0.010
0.047,0.011
0.045,0.012
0.046,0.013
0.044,0.013
0.045,0.011
0.044,0.011
0.047,0.012
0.047,0.011
0.048,0.011
0.046,0.014
0.048,0.013
0.047,0.014
0.048,0.013
0.050,0.017
0.047,0.011
0.051,0.014
0.046,0.012
0.049,0.014
0.048,0.014
0.050,0.015
0.048,0.012
0.049,0.017
0.047,0.013
0.048,0.015
0.047,0.015
0.050,0.017
0.047,0.015
0.049,0.014
0.050,0.017
0.048,0.016
0.049,0.020
0.045,0.016
0.045,0.021
0.047,0.021
0.048,0.023
0.049,0.021
0.051,0.021
0.049,0.021
0.046,0.021
0.048,0.022
0.048,0.023
0.047,0.023
0.050,0.021
0.047,0.023
0.050,0.023
0.049,0.023
0.050,0.022
0.052,0.023
0.050,0.021
0.046,0.024
0.047,0.025
0.050,0.027
0.045,0.030
0.048,0.027
0.045,0.026
0.049,0.025
0.049,0.027
0.048,0.027
0.049,0.026
0.047,0.029
0.046,0.027
0.044,0.033
0.046,0.030
0.044,0.032
0.044,0.030
0.046,0.031
0.042,0.032
0.045,0.028
0.045,0.031
0.043,0.029
0.041,0.031
0.044,0.031
0.042,0.030
0.040,0.030
0.044,0.031
0.045,0.028
0.048,0.028
0.047,0.028
0.046,0.028
0.048,0.027
0.047,0.030
0.047,0.031
0.046,0.029
0.043,0.032
0.046,0.031
0.043,0.031
0.044,0.029
0.045,0.031
0.042,0.030
0.043,0.029
0.043,0.026
0.044,0.028
0.042,0.028
0.047,0.025
0.046,0.027
0.046,0.025
0.044,0.026
0.043,0.024
0.042,0.024
0.042,0.022
0.043,0.023
0.043,0.023
0.040,0.024
0.043,0.023
0.041,0.024
0.042,0.026
0.041,0.024
0.040,0.024
0.043,0.025
0.042,0.025
0.043,0.021
0.041,0.023
0.041,0.020
0.043,0.024
0.042,0.022
0.043,0.024
0.041,0.021
0.043,0.020
0.041,0.023
0.041,0.021
0.043,0.020
0.041,0.020
0.040,0.018
0.040,0.018
0.043,0.018
0.044,0.018
0.040,0.021
0.039,0.017
0.042,0.019
0.041,0.017
0.041,0.019
0.039,0.015
0.040,0.017
0.041,0.015
0.041,0.016
0.042,0.016
0.043,0.014
0.043,0.015
0.044,0.014
0.043,0.016
0.043,0.015
0.045,0.015
0.044,0.015
0.042,0.015
0.041,0.013
0.042,0.011
0.043,0.010
0.042,0.010
0.042,0.008
0.045,0.011
0.045,0.008
0.044,0.010
0.045,0.009
0.045,0.009
0.045,0.011
0.045,0.009
0.044,0.010
0.045,0.008
0.044,0.012
0.043,0.007
0.043,0.009
0.043,0.009
0.046,0.008
0.044,0.009
0.048,0.010
0.044,0.008
0.046,0.009
0.045,0.008
0.048,0.007
0.046,0.011
0.045,0.010
0.048,0.012
0.046,0.011
0.048,0.009
0.045,0.009
0.049,0.013
0.049,0.007
0.051,0.009
0.049,0.009
0.052,0.009
0.047,0.008
0.050,0.009
0.050,0.010
0.050,0.009
0.051,0.012
0.049,0.009
0.051,0.009
0.050,0.009
0.051,0.009
0.047,0.011
0.047,0.011
0.047,0.008
0.049,0.011
0.047,0.011
0.048,0.014
0.051,0.012
0.049,0.014
0.049,0.011
0.049,0.014
0.050,0.014
0.054,0.014
0.051,0.013
0.054,0.015
0.050,0.017
0.049,0.014
0.050,0.016
0.048,0.015
0.048,0.018
0.049,0.016
0.051,0.018
0.048,0.018
0.050,0.021
0.050,0.021
0.052,0.019
0.050,0.020
0.051,0.020
0.051,0.021
0.049,0.022
0.050,0.020
0.048,0.022
0.051,0.021
0.050,0.021
0.050,0.018
0.051,0.020
0.050,0.022
0.050,0.023
0.050,0.025
0.049,0.026
0.050,0.025
0.050,0.026
0.050,0.025
0.050,0.026
0.049,0.027
0.049,0.028
0.051,0.027
0.049,0.024
0.048,0.028
0.047,0.028
0.047,0.029
0.046,0.025
0.049,0.028
0.047,0.028
0.049,0.026
0.047,0.028
0.048,0.026
0.047,0.028
0.045,0.026
0.044,0.029
0.044,0.027
0.045,0.030
0.044,0.029
0.049,0.029
0.045,0.028
0.049,0.026
0.047,0.026
0.049,0.026
0.048,0.025
0.048,0.023
0.050,0.024
0.050,0.024
0.046,0.026
0.048,0.025
0.046,0.024
0.049,0.023
0.046,0.026
0.046,0.025
0.046,0.025
0.047,0.023
0.046,0.024
0.046,0.023
0.045,0.023
0.045,0.021
0.044,0.023
0.046,0.023
0.045,0.024
0.048,0.022
0.048,0.025
0.046,0.025
0.046,0.022
0.044,0.023
0.045,0.021
0.046,0.020
0.045,0.020
0.046,0.019
0.045,0.017
0.045,0.017
0.044,0.022
0.043,0.021
0.045,0.021
0.045,0.019
0.044,0.021
0.046,0.020
0.048,0.019
0.045,0.017
0.046,0.015
0.045,0.016
0.044,0.016
0.044,0.016
0.047,0.018
0.046,0.017
0.044,0.016
0.045,0.017
0.047,0.014
0.047,0.018
0.049,0.014
0.045,0.015
0.047,0.014
0.044,0.016
0.043,0.012
0.044,0.013
0.044,0.010
0.049,0.012
0.046,0.009
0.047,0.007
0.045,0.009
0.047,0.008
0.045,0.009
0.049,0.010
0.050,0.010
0.048,0.011
0.046,0.013
0.047,0.014
0.049,0.013
0.047,0.013
0.049,0.013
0.048,0.012
0.049,0.013
0.048,0.010
0.048,0.011
0.046,0.010
0.049,0.012
0.047,0.013
0.048,0.013
0.046,0.018
0.046,0.015
0.045,0.015
0.047,0.015
0.049,0.014
0.047,0.012
0.050,0.012
0.048,0.013
0.052,0.013
0.049,0.011
0.051,0.013
0.050,0.012
0.050,0.012
0.048,0.013
0.049,0.013
0.048,0.013
0.053,0.012
0.051,0.015
0.052,0.013
0.052,0.017
0.052,0.014
0.050,0.019
0.051,0.015
0.053,0.019
0.052,0.017
0.049,0.019
0.047,0.018
0.046,0.017
0.048,0.018
0.053,0.018
0.052,0.019
0.055,0.020
0.050,0.019
0.052,0.022
0.052,0.022
0.050,0.019
0.047,0.022
0.050,0.024
0.044,0.024
0.047,0.024
0.050,0.026
0.048,0.023
0.053,0.024
0.050,0.024
0.051,0.026
0.049,0.028
0.052,0.028
0.051,0.030
0.050,0.030
0.050,0.029
0.050,0.028
0.052,0.026
0.049,0.025
0.052,0.027
0.053,0.027
0.052,0.027
0.052,0.031
0.049,0.029
0.049,0.032
0.050,0.029
0.054,0.028
0.051,0.028
0.051,0.028
0.048,0.031
0.047,0.031
0.048,0.031
0.048,0.035
0.048,0.033
0.048,0.034
0.050,0.036
0.045,0.032
0.049,0.034
0.046,0.031
0.048,0.032
0.046,0.032
0.048,0.033
0.043,0.032
0.048,0.032
0.043,0.032
0.045,0.027
0.043,0.031
0.046,0.028
0.046,0.029
0.043,0.030
0.044,0.032
0.044,0.034
0.047,0.033
0.045,0.033
0.045,0.033
0.044,0.034
0.045,0.032
0.043,0.031
0.045,0.032
0.042,0.032
0.043,0.031
0.041,0.033
0.041,0.033
0.042,0.032
0.039,0.031
0.042,0.029
0.041,0.028
0.042,0.030
0.041,0.029
0.041,0.029
0.042,0.030
0.043,0.030
0.042,0.027
0.042,0.029
0.041,0.028
0.041,0.029
0.041,0.028
0.040,0.028
0.040,0.027
0.042,0.028
0.041,0.025
0.043,0.024
0.041,0.026
0.044,0.025
0.043,0.023
0.045,0.024
0.045,0.020
0.043,0.023
0.043,0.021
0.043,0.023
0.043,0.023
0.043,0.022
0.043,0.022
0.043,0.020
0.044,0.021
0.041,0.019
0.040,0.021
0.041,0.021
0.041,0.020
0.040,0.022
0.040,0.019
0.040,0.018
0.043,0.018
0.043,0.016
0.047,0.016
0.046,0.014
0.047,0.016
0.047,0.014
0.045,0.012
0.045,0.013
0.042,0.014
0.043,0.015
0.044,0.014
0.045,0.014
0.042,0.015
0.043,0.014
0.043,0.015
0.046,0.013
0.044,0.013
0.046,0.011
0.045,0.010
0.045,0.010
0.046,0.011
0.044,0.011
0.046,0.011
0.046,0.011
0.044,0.014
0.046,0.013
0.044,0.015
0.045,0.013
0.045,0.015
0.044,0.015
0.046,0.015
0.044,0.010
0.049,0.012
0.046,0.010
0.052,0.012
0.049,0.012
0.050,0.014
0.049,0.017
0.048,0.012
0.047,0.014
0.048,0.014
0.049,0.016
0.048,0.015
0.048,0.017
0.049,0.017
0.050,0.016
0.052,0.015
0.052,0.016
0.051,0.014
0.053,0.014
0.049,0.014
0.053,0.012
0.051,0.015
0.051,0.013
0.053,0.013
0.051,0.018
0.050,0.014
0.050,0.016
0.051,0.015
0.050,0.015
0.051,0.018
0.051,0.016
0.049,0.019
0.051,0.019
0.051,0.022
0.051,0.020
0.050,0.021
0.047,0.021
0.050,0.023
0.048,0.022
0.051,0.021
0.049,0.021
0.053,0.022
0.049,0.025
0.051,0.024
0.049,0.027
0.049,0.024
0.050,0.026
0.047,0.026
0.051,0.027
0.050,0.025
0.052,0.026
0.050,0.027
0.052,0.027
0.047,0.029
0.049,0.028
0.051,0.030
0.049,0.028
0.050,0.028
0.052,0.026
0.050,0.026
0.052,0.030
0.049,0.029
0.044,0.030
0.047,0.029
0.047,0.030
0.047,0.025
0.049,0.028
0.048,0.026
0.048,0.030
0.047,0.029
0.048,0.030
0.049,0.034
0.049,0.031
0.049,0.036
0.048,0.031
0.047,0.032
0.047,0.033
0.044,0.031
0.044,0.031
0.043,0.030
0.044,0.029
0.046,0.027
0.046,0.028
0.045,0.027
0.045,0.027
0.045,0.024
0.046,0.027
0.047,0.026
0.045,0.029
0.045,0.028
0.046,0.030
0.044,0.028
0.045,0.027
0.043,0.025
0.047,0.028
0.043,0.024
0.045,0.026
0.040,0.024
0.043,0.025
0.041,0.025
0.043,0.026
0.042,0.025
0.038,0.027
0.040,0.023
0.037,0.026
0.041,0.023
0.040,0.023
0.043,0.026
0.042,0.023
0.045,0.023
0.043,0.025
0.043,0.023
0.042,0.026
0.042,0.022
0.039,0.026
0.040,0.022
0.042,0.022
0.039,0.022
0.043,0.020
0.042,0.021
0.042,0.020
0.042,0.019
0.044,0.021
0.043,0.017
0.043,0.017
0.044,0.017
0.043,0.018
0.043,0.017
0.042,0.017
0.040,0.017
0.042,0.013
0.041,0.014
0.044,0.012
0.044,0.013
0.045,0.012
0.045,0.013
0.045,0.009
0.045,0.012
0.047,0.009
0.046,0.011
0.045,0.007
0.050,0.009
0.046,0.008
0.047,0.009
0.042,0.007
0.044,0.007
0.042,0.010
0.043,0.009
0.041,0.010
0.043,0.009
0.042,0.009
0.045,0.009
0.043,0.011
0.043,0.012
0.047,0.009
0.045,0.009
0.047,0.008
0.046,0.007
0.048,0.009
0.047,0.008
0.044,0.007
0.047,0.009
0.048,0.008
0.047,0.011
0.049,0.010
0.046,0.010
0.049,0.010
0.046,0.010
0.046,0.007
0.047,0.009
0.047,0.007
0.048,0.009
0.047,0.011
0.049,0.009
0.050,0.013
0.047,0.008
0.048,0.010
0.046,0.009
0.048,0.010
0.047,0.011
0.047,0.011
0.048,0.011
0.049,0.011
0.049,0.012
0.047,0.014
0.048,0.012
0.049,0.013
0.050,0.014
0.050,0.015
0.049,0.014
0.049,0.013
0.046,0.014
0.049,0.015
0.051,0.013
0.051,0.013
0.051,0.012
0.049,0.015
0.051,0.015
0.047,0.015
0.051,0.017
0.050,0.019
0.050,0.018
0.051,0.019
0.048,0.019
0.049,0.017
0.049,0.018
0.048,0.019
0.049,0.021
0.047,0.019
0.047,0.018
0.050,0.023
0.049,0.021
0.050,0.024
0.050,0.020
0.053,0.021
0.050,0.021
0.055,0.023
0.051,0.022
0.054,0.024
0.050,0.026
0.050,0.024
0.047,0.028
0.047,0.026
0.047,0.027
0.049,0.026
0.051,0.026
0.050,0.025
0.052,0.026
0.048,0.027
0.049,0.026
0.045,0.031
0.045,0.028
0.044,0.030
0.046,0.030
0.047,0.029
0.046,0.029
0.048,0.031
0.046,0.029
0.045,0.029
0.045,0.029
0.046,0.032
0.044,0.032
0.044,0.030
0.043,0.031
0.046,0.029
0.043,0.029
0.045,0.031
0.045,0.029
0.045,0.028
0.047,0.029
0.046,0.028
0.044,0.028
0.042,0.032
0.043,0.028
0.042,0.028
0.043,0.029
0.043,0.029
0.044,0.028
0.041,0.027
0.042,0.028
0.045,0.027
0.043,0.025
0.045,0.029
0.043,0.025
0.043,0.028
0.042,0.026
0.045,0.028
0.043,0.028
0.044,0.027
0.041,0.028
0.041,0.027
0.039,0.024
0.040,0.028
0.041,0.025
0.039,0.028
0.041,0.025
0.043,0.026
0.042,0.025
0.043,0.028
0.043,0.025
0.040,0.027
0.040,0.025
0.040,0.027
0.041,0.023
0.042,0.023
0.042,0.019
0.043,0.021
0.041,0.017
0.045,0.019
0.044,0.017
0.044,0.019
0.044,0.021
0.043,0.018
0.042,0.020
0.044,0.018
0.041,0.022
0.043,0.019
0.040,0.021
0.039,0.016
0.041,0.020
0.041,0.018
0.045,0.016
0.042,0.017
0.046,0.018
0.047,0.014
0.049,0.016
0.048,0.013
0.048,0.013
0.045,0.015
0.047,0.014
0.043,0.014
0.045,0.013
0.044,0.014
0.047,0.012
0.044,0.014
0.044,0.010
0.044,0.010
0.043,0.011
0.046,0.010
0.044,0.010
0.049,0.010
0.045,0.008
0.049,0.012
0.047,0.011
0.047,0.011
0.047,0.011
0.049,0.008
0.044,0.008
0.049,0.012
0.044,0.011
0.044,0.010
0.043,0.010
0.045,0.009
0.043,0.013
0.047,0.008
0.048,0.010
0.046,0.010
0.049,0.010
0.048,0.013
0.049,0.010
0.045,0.012
0.050,0.010
0.047,0.013
0.050,0.013
0.051,0.014
0.050,0.015
0.049,0.014
0.049,0.013
0.051,0.015
0.050,0.018
0.052,0.016
0.050,0.017
0.052,0.016
0.052,0.013
0.051,0.018
0.052,0.012
0.051,0.017
0.049,0.015
0.049,0.015
0.047,0.015
0.049,0.017
0.045,0.017
0.045,0.018
0.048,0.021
0.049,0.021
0.047,0.021
0.049,0.019
0.046,0.020
0.049,0.020
0.047,0.021
0.048,0.018
0.050,0.023
0.050,0.019
0.049,0.020
0.049,0.023
0.052,0.023
0.049,0.025
0.051,0.024
0.049,0.023
0.048,0.022
0.050,0.024
0.051,0.023
0.050,0.024
0.051,0.027
0.051,0.028
0.048,0.030
0.046,0.026
0.049,0.029
0.047,0.025
0.053,0.028
0.046,0.026
0.050,0.027
0.045,0.030
0.050,0.028
0.047,0.031
0.047,0.032
0.046,0.035
0.044,0.032
0.049,0.035
0.045,0.034
0.048,0.033
0.046,0.032
0.044,0.031
0.045,0.033
0.045,0.032
0.047,0.033
0.047,0.032
0.045,0.034
0.045,0.033
0.047,0.035
0.048,0.031
0.050,0.032
0.047,0.031
0.050,0.029
0.048,0.029
0.046,0.030
0.046,0.031
0.045,0.032
0.043,0.031
0.047,0.029
0.042,0.032
0.046,0.031
0.044,0.030
0.044,0.027
0.045,0.029
0.044,0.026
0.046,0.027
0.046,0.026
0.046,0.026
0.042,0.026
0.044,0.026
0.043,0.025
0.044,0.025
0.042,0.025
0.043,0.026
0.042,0.023
0.044,0.027
0.042,0.025
0.043,0.028
0.043,0.025
0.045,0.025
0.041,0.025
0.043,0.026
0.041,0.026
0.042,0.022
0.039,0.021
0.039,0.020
0.041,0.021
0.043,0.023
0.042,0.022
0.044,0.023
0.043,0.020
0.042,0.020
0.042,0.020
0.041,0.019
0.041,0.021
0.042,0.018
0.042,0.020
0.042,0.020
0.043,0.020
0.041,0.018
0.041,0.016
0.041,0.015
0.041,0.015
0.039,0.013
0.042,0.017
0.042,0.015
0.040,0.014
0.040,0.016
0.041,0.012
0.042,0.017
0.041,0.012
0.041,0.017
0.042,0.013
0.040,0.014
0.041,0.013
