File Version,253.000000
# of Channels,2.000000
Samples/Channel,10300.000000
Scan Rate (Hz),10000.000000
Timestamp,3807793338.744446
Operating Mode,1.000000
Trial #,31.000000
Session #,26.000000
Subject code 1,82.000000
Subject code 2,88.000000
Feedback Window,0.000000
Feedback Ch,0.000000
Ch B,0.000000
Pre-Stim Acq. time (ms),100.000000
Post-Stim Acq. time (ms),900.000000
EMG Hi Limit,50.000000
EMG Lo Limit,0.000250
Target Value (V),5.000000
Stimulus Value (V),1.034425
Stimulus duration (ms),1.000000
EMG conditions time limit (sec),0.200000
M-response Start (ms),2.000000
M-response Duration (ms),2.000000
H-response Duration (ms),2.000000
H-response Start (ms),5.000000
Proportioanl gain,0.003000
Channel to monitor,0.000000
SIU gain,20.000000
FB Monitor value,0.898481
Inter-Stim delay (sec),5.000000
M-Window Mean,0.648528
H-Window Mean,0.018312
Stimulus paradigm,2.000000
# of Pulses in cond train,1.000000
Cond duration (ms),1.000000
Cond Train pulse period (ms),30.000000
Cond Value (V),1.034425
Start Delay (ms),0.000000
# of Pulses in stim train,1.000000
Stim Train pulse period (ms),30.000000
EMG amp gain ch 1,500.000000
EMG amp gain ch 2,500.000000
EMG amp gain ch 3,1000.000000
EMG amp gain ch 4,1000.000000
EMG amp gain ch 5,1000.000000
EMG amp gain ch 6,1000.000000
Stim Type 1,2.000000
Stim/Cond 1,0.000000
Stim Type 2,3.000000
Stim/Cond 2,0.000000
Stim Type 3,3.000000
Stim/Cond 3,0.000000
Stim Type 4,3.000000
Stim/Cond 4,0.000000
Stim Value 1,1.034425
Stim Value 2,0.000000
Stim Value 3,0.000000
Stim Value 4,0.000000
1st PP Channel,-1.000000
Pressure (g),0.000000
Speed (mm/sec),0.000000
Dwell (ms),0.000000
Pressure limit (g),0.000000
Travel limit (mm),0.000000
Amp gain,0.000000
Wait Trig?,0.000000
Move Timeout (ms),0.000000
Time Taken (ms),0.000000
Actual Travel (mm),0.000000
Recorded Data (mV),
0.049,0.033
0.049,0.032
0.051,0.035
0.049,0.034
0.051,0.033
0.050,0.031
0.049,0.029
0.049,0.029
0.051,0.026
0.050,0.027
0.049,0.025
0.048,0.028
0.049,0.028
0.048,0.027
0.047,0.026
0.047,0.028
0.047,0.022
0.049,0.021
0.049,0.021
0.051,0.020
0.052,0.016
0.050,0.016
0.048,0.012
0.052,0.012
0.048,0.012
0.050,0.011
0.046,0.010
0.050,0.010
0.047,0.009
0.049,0.008
0.048,0.008
0.050,0.008
0.050,0.006
0.050,0.006
0.048,0.008
0.048,0.004
0.047,0.004
0.049,0.004
0.048,0.005
0.048,0.003
0.050,0.006
0.048,0.003
0.052,0.003
0.050,0.002
0.052,0.003
0.050,0.004
0.052,0.003
0.049,0.002
0.052,-0.003
0.049,-0.002
0.050,-0.003
0.051,-0.002
0.046,-0.006
0.048,-0.002
0.043,-0.002
0.049,-0.003
0.047,0.000
0.050,-0.004
0.047,-0.000
0.048,-0.005
0.051,-0.004
0.049,-0.003
0.051,-0.004
0.049,-0.003
0.049,-0.006
0.049,-0.003
0.046,-0.001
0.046,-0.002
0.046,0.000
0.047,0.002
0.046,0.001
0.045,0.001
0.050,0.005
0.047,0.004
0.048,0.006
0.045,0.005
0.044,0.007
0.045,0.006
0.044,0.007
0.045,0.004
0.048,0.009
0.045,0.006
0.047,0.010
0.045,0.011
0.047,0.009
0.043,0.013
0.044,0.014
0.044,0.014
0.045,0.011
0.049,0.013
0.047,0.011
0.050,0.013
0.047,0.012
0.050,0.014
0.049,0.019
0.048,0.016
0.047,0.020
0.048,0.019
0.046,0.019
0.047,0.019
0.047,0.021
0.047,0.023
0.045,0.025
0.046,0.025
0.047,0.027
0.049,0.027
0.045,0.034
0.048,0.030
0.047,0.034
0.047,0.030
0.045,0.035
0.047,0.034
0.046,0.035
0.046,0.034
0.043,0.035
0.041,0.034
0.045,0.034
0.043,0.034
0.044,0.034
0.045,0.031
0.048,0.036
0.045,0.039
0.045,0.040
0.041,0.039
0.045,0.038
0.045,0.041
0.045,0.037
0.046,0.039
0.045,0.036
0.050,0.039
0.045,0.037
0.047,0.041
0.042,0.045
0.046,0.044
0.043,0.047
0.047,0.046
0.045,0.048
0.045,0.046
0.048,0.044
0.047,0.043
0.048,0.042
0.049,0.042
0.048,0.042
0.049,0.045
0.046,0.043
0.047,0.046
0.046,0.047
0.048,0.046
0.047,0.046
0.047,0.046
0.048,0.046
0.046,0.044
0.049,0.050
0.050,0.046
0.049,0.046
0.047,0.043
0.046,0.042
0.046,0.042
0.049,0.044
0.051,0.041
0.051,0.042
0.049,0.038
0.050,0.036
0.048,0.038
0.048,0.036
0.047,0.039
0.048,0.036
0.045,0.034
0.045,0.033
0.049,0.035
0.046,0.030
0.049,0.031
0.049,0.033
0.049,0.031
0.048,0.032
0.049,0.031
0.049,0.031
0.050,0.029
0.052,0.029
0.051,0.024
0.050,0.025
0.053,0.023
0.055,0.024
0.054,0.021
0.054,0.022
0.051,0.021
0.055,0.018
0.052,0.019
0.055,0.015
0.052,0.016
0.053,0.015
0.052,0.017
0.053,0.015
0.053,0.015
0.051,0.012
0.050,0.010
0.051,0.011
0.049,0.011
0.051,0.008
0.049,0.009
0.048,0.003
0.050,0.005
0.051,0.005
0.049,0.004
0.050,0.006
0.051,0.003
0.049,0.004
0.049,0.002
0.047,0.002
0.049,0.004
0.051,0.004
0.052,0.003
0.053,-0.000
0.053,-0.000
0.054,-0.001
0.054,0.001
0.053,0.001
0.050,0.001
0.051,-0.001
0.052,-0.002
0.052,-0.002
0.052,-0.001
0.053,-0.004
0.052,-0.002
0.054,0.000
0.051,-0.002
0.051,0.000
0.050,-0.002
0.053,-0.001
0.049,-0.004
0.056,-0.002
0.051,-0.005
0.053,-0.003
0.050,-0.002
0.050,-0.002
0.045,0.002
0.046,0.000
0.046,0.002
0.044,0.001
0.049,0.005
0.048,0.004
0.050,0.009
0.049,0.007
0.051,0.005
0.046,0.009
0.047,0.010
0.045,0.011
0.046,0.011
0.046,0.010
0.047,0.008
0.049,0.008
0.048,0.006
0.048,0.009
0.049,0.012
0.047,0.013
0.044,0.018
0.048,0.018
0.046,0.019
0.046,0.018
0.046,0.019
0.046,0.017
0.048,0.017
0.048,0.015
0.049,0.015
0.049,0.016
0.049,0.016
0.049,0.019
0.051,0.020
0.049,0.021
0.046,0.025
0.048,0.024
0.049,0.031
0.046,0.026
0.049,0.031
0.049,0.028
0.046,0.030
0.046,0.030
0.049,0.031
0.045,0.032
0.050,0.032
0.049,0.034
0.047,0.035
0.048,0.039
0.047,0.037
0.045,0.036
0.045,0.038
0.043,0.038
0.044,0.041
0.045,0.039
0.047,0.038
0.045,0.039
0.046,0.041
0.046,0.041
0.046,0.042
0.046,0.043
0.046,0.042
0.045,0.043
0.045,0.045
0.044,0.043
0.045,0.046
0.044,0.045
0.046,0.046
0.045,0.050
0.045,0.044
0.046,0.049
0.046,0.046
0.047,0.049
0.047,0.047
0.050,0.049
0.044,0.043
0.048,0.043
0.048,0.047
0.048,0.045
0.044,0.050
0.047,0.048
0.045,0.051
0.046,0.049
0.047,0.052
0.045,0.050
0.046,0.050
0.048,0.045
0.049,0.046
0.045,0.046
0.048,0.043
0.043,0.046
0.047,0.045
0.047,0.046
0.049,0.042
0.049,0.040
0.049,0.040
0.049,0.038
0.049,0.041
0.047,0.040
0.045,0.042
0.045,0.039
0.044,0.041
0.046,0.038
0.047,0.037
0.043,0.034
0.051,0.033
0.048,0.033
0.047,0.030
0.046,0.034
0.045,0.031
0.045,0.030
0.045,0.030
0.047,0.030
0.046,0.028
0.047,0.030
0.046,0.028
0.045,0.028
0.045,0.025
0.049,0.023
0.046,0.020
0.052,0.019
0.048,0.016
0.053,0.017
0.049,0.016
0.049,0.014
0.047,0.014
0.049,0.013
0.048,0.013
0.049,0.011
0.051,0.014
0.052,0.010
0.051,0.011
0.050,0.008
0.048,0.010
0.050,0.007
0.051,0.007
0.050,0.004
0.049,0.006
0.049,0.005
0.051,0.003
0.048,0.004
0.049,0.004
0.047,0.008
0.047,0.005
0.049,0.008
0.049,0.002
0.052,0.002
0.048,-0.000
0.051,-0.001
0.048,0.001
0.049,-0.002
0.045,0.000
0.046,-0.003
0.046,0.002
0.047,0.001
0.047,-0.001
0.049,-0.002
0.049,0.001
0.049,-0.002
0.049,-0.000
0.046,-0.002
0.047,-0.001
0.046,0.002
0.049,0.001
0.047,0.002
0.048,-0.003
0.050,-0.005
0.049,-0.002
0.050,-0.003
0.049,0.002
0.047,0.001
0.047,0.007
0.049,0.005
0.051,0.005
0.046,0.006
0.049,0.005
0.047,0.002
0.045,0.006
0.049,0.006
0.049,0.007
0.050,0.011
0.049,0.010
0.048,0.012
0.047,0.009
0.045,0.011
0.045,0.009
0.045,0.011
0.043,0.010
0.048,0.013
0.043,0.012
0.046,0.014
0.044,0.019
0.046,0.015
0.045,0.018
0.047,0.019
0.045,0.023
0.045,0.020
0.046,0.021
0.043,0.021
0.045,0.025
0.042,0.024
0.042,0.023
0.042,0.026
0.042,0.026
0.043,0.026
0.046,0.029
0.043,0.029
0.048,0.031
0.044,0.034
0.050,0.033
0.045,0.032
0.045,0.033
0.043,0.034
0.041,0.034
0.044,0.034
0.043,0.035
0.045,0.035
0.043,0.037
0.045,0.038
0.044,0.038
0.045,0.043
0.046,0.039
0.045,0.043
0.045,0.039
0.047,0.042
0.046,0.040
0.049,0.040
0.045,0.040
0.045,0.040
0.042,0.043
0.044,0.042
0.042,0.044
0.042,0.044
0.045,0.045
0.043,0.045
0.045,0.049
0.043,0.046
0.049,0.046
0.045,0.045
0.049,0.044
0.044,0.047
0.045,0.044
0.044,0.047
0.043,0.045
0.045,0.046
0.045,0.047
0.046,0.046
0.046,0.045
0.045,0.043
0.046,0.044
0.045,0.044
0.043,0.044
0.047,0.046
0.046,0.046
0.048,0.044
0.047,0.043
0.047,0.042
0.049,0.041
0.047,0.043
0.049,0.045
0.045,0.043
0.047,0.041
0.049,0.044
0.047,0.040
0.051,0.039
0.049,0.038
0.052,0.036
0.049,0.040
0.048,0.036
0.047,0.036
0.048,0.035
0.049,0.035
0.048,0.034
0.049,0.032
0.047,0.028
0.049,0.029
0.047,0.027
0.047,0.028
0.048,0.028
0.049,0.027
0.047,0.029
0.050,0.026
0.047,0.024
0.050,0.022
0.050,0.025
0.049,0.020
0.049,0.023
0.050,0.018
0.050,0.017
0.049,0.013
0.049,0.012
0.048,0.012
0.050,0.011
0.047,0.013
0.049,0.014
0.047,0.011
0.051,0.011
0.048,0.007
0.054,0.009
0.050,0.005
0.052,0.004
0.048,0.006
0.048,0.002
0.045,0.005
0.048,0.002
0.049,0.004
0.046,0.003
0.052,0.005
0.049,0.000
0.049,0.004
0.052,0.003
0.049,0.005
0.049,0.004
0.049,0.002
0.047,0.001
0.047,-0.003
0.049,-0.003
0.050,-0.006
0.049,-0.004
0.048,-0.005
0.047,-0.003
0.049,-0.004
0.048,-0.002
0.046,0.001
0.047,-0.000
0.046,-0.001
0.048,-0.002
0.049,-0.001
0.048,-0.006
0.047,-0.002
0.047,0.000
0.047,0.001
0.048,0.002
0.048,-0.000
0.049,0.002
0.046,-0.001
0.049,0.000
0.046,-0.001
0.051,0.002
0.049,0.004
0.048,-0.000
0.045,0.007
0.046,0.004
0.044,0.007
0.045,0.009
0.049,0.008
0.043,0.008
0.049,0.008
0.044,0.007
0.047,0.009
0.046,0.010
0.045,0.010
0.044,0.011
0.044,0.013
0.042,0.013
0.042,0.012
0.043,0.012
0.045,0.012
0.045,0.014
0.045,0.015
0.045,0.016
0.046,0.016
0.045,0.017
0.045,0.018
0.045,0.019
0.045,0.019
0.045,0.020
0.041,0.022
0.043,0.021
0.039,0.026
0.042,0.026
0.042,0.029
0.041,0.027
0.042,0.029
0.044,0.028
0.040,0.032
0.044,0.030
0.041,0.034
0.044,0.032
0.041,0.036
0.044,0.033
0.042,0.036
0.042,0.035
0.046,0.038
0.042,0.033
0.047,0.037
0.044,0.038
0.045,0.036
0.046,0.040
0.045,0.038
0.043,0.041
0.046,0.042
0.042,0.040
0.042,0.039
0.045,0.038
0.045,0.038
0.046,0.038
0.044,0.039
0.046,0.043
0.044,0.043
0.044,0.044
0.042,0.045
0.045,0.045
0.045,0.044
0.047,0.044
0.046,0.043
0.046,0.043
0.043,0.043
0.044,0.043
0.041,0.044
0.041,0.047
0.042,0.044
0.039,0.048
0.041,0.047
0.043,0.048
0.042,0.045
0.046,0.046
0.044,0.047
0.044,0.046
0.041,0.049
0.044,0.044
0.042,0.047
0.044,0.045
0.042,0.045
0.041,0.043
0.047,0.043
0.046,0.042
0.045,0.042
0.044,0.044
0.042,0.043
0.045,0.042
0.046,0.041
0.043,0.041
0.046,0.038
0.046,0.038
0.045,0.033
0.047,0.033
0.048,0.035
0.047,0.033
0.047,0.031
0.044,0.030
0.046,0.031
0.045,0.028
0.048,0.026
0.046,0.026
0.048,0.027
0.049,0.025
0.046,0.026
0.047,0.025
0.048,0.023
0.050,0.023
0.050,0.022
0.051,0.020
0.051,0.018
0.050,0.017
0.048,0.014
0.048,0.016
0.046,0.013
0.046,0.017
0.045,0.013
0.046,0.015
0.047,0.013
0.045,0.015
0.044,0.014
0.044,0.010
0.044,0.009
0.045,0.008
0.046,0.006
0.045,0.006
0.049,0.005
0.045,0.005
0.045,0.007
0.045,0.005
0.047,0.005
0.045,0.004
0.043,0.005
0.046,0.002
0.050,0.003
0.049,-0.003
0.051,0.002
0.049,0.002
0.052,0.001
0.049,0.002
0.049,-0.002
0.047,-0.000
0.046,-0.003
0.049,0.002
0.048,-0.004
0.049,-0.001
0.047,0.001
0.049,-0.000
0.046,0.002
0.047,-0.002
0.045,-0.000
0.047,-0.002
0.050,-0.001
0.049,-0.002
0.050,-0.003
0.052,0.001
0.049,0.000
0.045,0.003
0.045,0.002
0.044,0.002
0.042,0.002
0.047,0.003
0.045,0.004
0.047,0.007
0.046,0.005
0.046,0.006
0.047,0.007
0.046,0.006
0.045,0.009
0.043,0.006
0.043,0.010
0.043,0.006
0.043,0.009
0.042,0.010
0.046,0.012
0.044,0.011
0.048,0.010
0.042,0.013
0.046,0.011
0.043,0.016
0.046,0.014
0.043,0.016
0.043,0.013
0.046,0.015
0.045,0.012
0.049,0.015
0.046,0.014
0.051,0.018
0.044,0.017
0.050,0.017
0.045,0.017
0.049,0.020
0.045,0.017
0.047,0.021
0.046,0.022
0.046,0.025
0.045,0.026
0.046,0.028
0.046,0.030
0.048,0.027
0.045,0.032
0.044,0.028
0.045,0.032
0.045,0.029
0.045,0.032
0.043,0.034
0.044,0.036
0.042,0.036
0.042,0.037
0.043,0.039
0.047,0.038
0.045,0.035
0.047,0.037
0.046,0.038
0.049,0.039
0.046,0.042
0.047,0.041
0.044,0.041
0.044,0.038
0.044,0.043
0.044,0.041
0.045,0.043
0.044,0.043
0.048,0.045
0.044,0.046
0.048,0.044
0.044,0.049
0.043,0.046
0.044,0.049
0.045,0.049
0.048,0.048
0.046,0.046
0.048,0.045
0.048,0.045
0.047,0.045
0.047,0.049
0.045,0.048
0.045,0.050
0.045,0.049
0.046,0.048
0.044,0.044
0.049,0.045
0.048,0.043
0.048,0.043
0.049,0.046
0.048,0.043
0.047,0.045
0.045,0.041
0.047,0.043
0.044,0.040
0.049,0.037
0.045,0.037
0.049,0.038
0.051,0.036
0.049,0.037
0.049,0.039
0.049,0.037
0.045,0.039
0.049,0.035
0.047,0.035
0.047,0.031
0.050,0.033
0.049,0.031
0.050,0.028
0.048,0.033
0.049,0.030
0.047,0.032
0.048,0.030
0.047,0.030
0.050,0.028
0.050,0.027
0.049,0.025
0.052,0.025
0.052,0.023
0.050,0.023
0.052,0.018
0.050,0.021
0.049,0.015
0.052,0.017
0.049,0.013
0.050,0.015
0.047,0.010
0.052,0.012
0.051,0.010
0.053,0.008
0.051,0.009
0.052,0.007
0.052,0.010
0.053,0.008
0.051,0.008
0.053,0.006
0.048,0.008
0.048,0.006
0.049,0.003
0.048,0.002
0.049,0.001
0.049,0.001
0.049,0.002
0.047,0.001
0.049,0.000
0.044,0.003
0.046,0.000
0.049,-0.001
0.047,-0.001
0.051,-0.000
0.051,-0.002
0.049,-0.002
0.048,-0.002
0.047,-0.004
0.046,-0.003
0.046,-0.005
0.049,-0.004
0.047,-0.004
0.053,-0.003
0.048,-0.003
0.050,-0.004
0.048,-0.001
0.048,-0.002
0.046,-0.001
0.046,-0.003
0.045,0.000
0.046,-0.003
0.049,-0.000
0.047,-0.001
0.049,-0.003
0.045,-0.002
0.049,-0.002
0.047,0.003
0.048,0.003
0.047,0.003
0.046,0.005
0.046,0.006
0.045,0.007
0.048,0.004
0.047,0.006
0.047,0.006
0.049,0.008
0.047,0.008
0.048,0.009
0.045,0.010
0.046,0.010
0.047,0.009
0.049,0.009
0.049,0.011
0.046,0.012
0.047,0.013
0.048,0.014
0.047,0.015
0.047,0.013
0.045,0.015
0.042,0.012
0.045,0.014
0.044,0.016
0.046,0.019
0.041,0.017
0.044,0.019
0.044,0.019
0.044,0.019
0.044,0.021
0.045,0.023
0.045,0.022
0.044,0.023
0.045,0.025
0.045,0.029
0.042,0.031
0.046,0.032
0.044,0.030
0.045,0.030
0.044,0.028
0.044,0.028
0.043,0.030
0.045,0.030
0.043,0.035
0.043,0.036
0.043,0.039
0.040,0.036
0.042,0.040
0.040,0.038
0.041,0.039
0.043,0.037
0.045,0.037
0.047,0.036
0.046,0.034
0.045,0.037
0.045,0.038
0.044,0.041
0.045,0.040
0.044,0.043
0.041,0.040
0.047,0.044
0.042,0.041
0.045,0.040
0.045,0.041
0.048,0.042
0.044,0.044
0.046,0.043
0.047,0.044
0.046,0.044
0.048,0.041
0.043,0.040
0.047,0.041
0.042,0.044
0.045,0.044
0.042,0.043
0.043,0.045
0.042,0.048
0.041,0.048
0.040,0.047
0.042,0.043
0.045,0.044
0.047,0.043
0.045,0.044
0.047,0.045
0.046,0.045
0.044,0.046
0.043,0.042
0.043,0.040
0.043,0.040
0.045,0.039
0.045,0.038
0.044,0.037
0.046,0.035
0.047,0.034
0.045,0.037
-0.018,0.013
-0.024,0.012
-0.026,0.014
-0.017,0.022
-0.011,0.020
-0.005,0.020
-0.000,0.020
0.004,0.022
0.042,0.024
0.196,0.020
0.663,0.036
1.571,-0.066
2.565,-0.401
3.124,-0.939
2.848,-1.326
1.737,-0.940
0.179,0.554
-1.186,2.595
-2.251,4.011
-2.826,4.763
-2.753,4.940
-1.974,3.282
-0.858,0.676
0.120,-1.861
0.634,-3.598
0.748,-4.444
0.739,-4.059
0.547,-2.762
0.247,-1.434
0.036,-0.563
-0.095,-0.124
-0.152,0.051
-0.183,0.095
-0.175,0.085
-0.150,0.057
-0.116,0.028
-0.100,0.011
-0.101,0.002
-0.110,0.001
-0.121,0.007
-0.134,0.015
-0.132,0.024
-0.091,0.025
-0.022,0.021
0.035,0.017
0.065,0.012
0.062,-0.005
0.053,-0.045
0.041,-0.076
0.031,-0.075
0.027,-0.059
0.031,-0.045
0.027,-0.038
0.028,-0.042
0.028,-0.040
0.027,-0.041
0.026,-0.042
0.025,-0.037
0.026,-0.038
0.025,-0.036
0.028,-0.037
0.035,-0.032
0.036,-0.031
0.037,-0.027
0.031,-0.024
0.030,-0.027
0.025,-0.025
0.025,-0.027
0.024,-0.026
0.029,-0.029
0.038,-0.028
0.038,-0.029
0.042,-0.029
0.037,-0.028
0.039,-0.025
0.032,-0.024
0.030,-0.022
0.026,-0.018
0.028,-0.019
0.028,-0.016
0.030,-0.016
0.033,-0.017
0.031,-0.014
0.039,-0.013
0.036,-0.013
0.036,-0.012
0.037,-0.011
0.037,-0.011
0.037,-0.009
0.037,-0.005
0.035,-0.004
0.036,-0.004
0.036,-0.002
0.036,0.001
0.038,0.002
0.038,0.001
0.039,0.003
0.036,0.004
0.039,0.004
0.037,0.006
0.035,0.006
0.036,0.008
0.034,0.009
0.035,0.010
0.037,0.014
0.036,0.015
0.039,0.017
0.036,0.017
0.041,0.019
0.039,0.020
0.042,0.020
0.038,0.022
0.039,0.021
0.037,0.022
0.039,0.023
0.038,0.027
0.037,0.027
0.037,0.031
0.036,0.030
0.035,0.029
0.037,0.029
0.037,0.030
0.039,0.031
0.038,0.030
0.039,0.031
0.042,0.032
0.040,0.033
0.040,0.032
0.038,0.034
0.039,0.035
0.036,0.038
0.037,0.037
0.036,0.039
0.037,0.040
0.039,0.042
0.038,0.041
0.042,0.040
0.042,0.041
0.041,0.037
0.042,0.042
0.043,0.037
0.041,0.044
0.042,0.042
0.043,0.041
0.037,0.041
0.042,0.042
0.041,0.040
0.041,0.041
0.042,0.045
0.042,0.039
0.043,0.043
0.042,0.042
0.041,0.042
0.043,0.041
0.046,0.043
0.047,0.040
0.049,0.039
0.047,0.041
0.048,0.041
0.046,0.044
0.047,0.042
0.042,0.042
0.045,0.041
0.044,0.041
0.046,0.040
0.045,0.040
0.048,0.037
0.047,0.039
0.045,0.035
0.046,0.036
0.046,0.037
0.048,0.033
0.045,0.035
0.046,0.032
0.047,0.033
0.048,0.032
0.048,0.030
0.046,0.032
0.046,0.028
0.049,0.030
0.048,0.028
0.049,0.029
0.049,0.024
0.052,0.026
0.051,0.024
0.050,0.024
0.051,0.020
0.051,0.020
0.054,0.019
0.050,0.019
0.053,0.019
0.047,0.020
0.050,0.018
0.052,0.017
0.050,0.015
0.052,0.015
0.052,0.012
0.050,0.011
0.052,0.010
0.052,0.011
0.054,0.011
0.051,0.009
0.053,0.012
0.052,0.010
0.053,0.011
0.052,0.010
0.054,0.009
0.051,0.007
0.055,0.007
0.054,0.010
0.056,0.009
0.054,0.010
0.057,0.008
0.057,0.008
0.053,0.005
0.058,0.005
0.053,0.001
0.057,0.000
0.053,-0.001
0.056,-0.001
0.053,0.001
0.051,0.000
0.052,0.001
0.050,0.003
0.050,0.001
0.053,0.002
0.054,0.002
0.057,0.004
0.054,0.002
0.052,0.000
0.052,-0.001
0.052,-0.000
0.054,0.001
0.053,0.003
0.055,0.001
0.054,0.003
0.056,0.004
0.053,0.003
0.053,0.008
0.054,0.007
0.052,0.010
0.053,0.006
0.056,0.008
0.053,0.006
0.058,0.007
0.057,0.006
0.058,0.006
0.054,0.008
0.058,0.008
0.056,0.011
0.054,0.010
0.054,0.013
0.053,0.013
0.052,0.014
0.049,0.016
0.050,0.017
0.052,0.014
0.055,0.015
0.055,0.014
0.055,0.017
0.054,0.020
0.053,0.017
0.055,0.021
0.055,0.018
0.054,0.020
0.055,0.021
0.051,0.025
0.052,0.024
0.047,0.028
0.052,0.026
0.051,0.030
0.050,0.028
0.052,0.033
0.051,0.028
0.052,0.034
0.052,0.034
0.051,0.036
0.050,0.036
0.052,0.036
0.051,0.033
0.051,0.036
0.050,0.033
0.054,0.037
0.051,0.035
0.056,0.035
0.053,0.037
0.055,0.037
0.054,0.041
0.053,0.039
0.053,0.042
0.052,0.041
0.055,0.041
0.053,0.039
0.054,0.043
0.053,0.041
0.054,0.040
0.054,0.042
0.056,0.043
0.052,0.043
0.053,0.044
0.054,0.045
0.053,0.046
0.054,0.045
0.055,0.044
0.055,0.044
0.059,0.046
0.056,0.042
0.058,0.045
0.054,0.045
0.051,0.044
0.049,0.047
0.050,0.047
0.050,0.047
0.052,0.046
0.051,0.045
0.050,0.046
0.054,0.047
0.052,0.045
0.053,0.047
0.053,0.046
0.052,0.047
0.049,0.044
0.051,0.045
0.051,0.041
0.055,0.041
0.052,0.042
0.054,0.040
0.051,0.044
0.055,0.042
0.051,0.044
0.052,0.038
0.053,0.037
0.052,0.034
0.056,0.036
0.052,0.035
0.056,0.034
0.054,0.038
0.055,0.036
0.053,0.036
0.055,0.035
0.056,0.031
0.055,0.030
0.059,0.031
0.056,0.026
0.059,0.024
0.059,0.022
0.059,0.022
0.060,0.023
0.057,0.022
0.058,0.023
0.062,0.019
0.060,0.023
0.060,0.020
0.056,0.019
0.058,0.015
0.053,0.016
0.057,0.015
0.053,0.015
0.056,0.013
0.053,0.012
0.054,0.010
0.056,0.010
0.055,0.009
0.056,0.008
0.056,0.005
0.056,0.007
0.054,0.006
0.054,0.007
0.052,0.006
0.054,0.005
0.049,0.007
0.054,0.002
0.053,0.003
0.052,-0.000
0.051,0.003
0.052,0.003
0.054,0.004
0.053,0.002
0.054,-0.000
0.055,0.002
0.055,-0.002
0.055,0.001
0.053,-0.003
0.056,-0.003
0.054,-0.005
0.057,-0.005
0.053,-0.005
0.056,-0.007
0.053,-0.003
0.052,-0.005
0.051,-0.003
0.053,-0.004
0.056,-0.003
0.052,-0.002
0.055,-0.003
0.054,-0.005
0.055,-0.006
0.051,-0.002
0.050,-0.004
0.050,-0.002
0.047,-0.003
0.045,-0.001
0.048,-0.000
0.049,-0.001
0.050,-0.001
0.049,0.002
0.049,0.001
0.047,0.003
0.049,0.004
0.050,0.003
0.047,0.005
0.047,0.005
0.048,0.008
0.048,0.008
0.049,0.007
0.049,0.008
0.050,0.007
0.050,0.010
0.050,0.008
0.048,0.013
0.045,0.009
0.045,0.014
0.044,0.013
0.045,0.015
0.046,0.015
0.049,0.015
0.048,0.014
0.049,0.017
0.047,0.015
0.047,0.017
0.051,0.018
0.049,0.017
0.047,0.017
0.047,0.017
0.049,0.019
0.047,0.020
0.047,0.023
0.049,0.023
0.048,0.025
0.049,0.027
0.048,0.030
0.049,0.027
0.049,0.030
0.049,0.027
0.049,0.032
0.045,0.032
0.046,0.032
0.046,0.035
0.044,0.034
0.045,0.036
0.045,0.037
0.047,0.035
0.047,0.036
0.049,0.036
0.049,0.037
0.046,0.039
0.047,0.036
0.047,0.042
0.048,0.039
0.048,0.043
0.048,0.042
0.051,0.040
0.048,0.041
0.049,0.041
0.050,0.043
0.048,0.044
0.049,0.045
0.045,0.045
0.049,0.049
0.050,0.045
0.047,0.048
0.048,0.047
0.049,0.046
0.049,0.043
0.053,0.045
0.049,0.043
0.049,0.045
0.047,0.046
0.048,0.045
0.047,0.045
0.047,0.045
0.047,0.046
0.046,0.044
0.048,0.046
0.049,0.044
0.050,0.044
0.046,0.047
0.049,0.044
0.047,0.045
0.050,0.042
0.051,0.043
0.050,0.041
0.053,0.041
0.049,0.041
0.052,0.041
0.055,0.039
0.050,0.037
0.049,0.039
0.051,0.038
0.049,0.041
0.051,0.038
0.052,0.037
0.049,0.035
0.052,0.036
0.050,0.033
0.051,0.031
0.048,0.033
0.048,0.031
0.050,0.034
0.047,0.031
0.049,0.030
0.048,0.026
0.051,0.029
0.048,0.028
0.051,0.031
0.049,0.025
0.052,0.025
0.052,0.023
0.053,0.021
0.052,0.020
0.052,0.017
0.050,0.019
0.052,0.014
0.050,0.016
0.048,0.014
0.051,0.015
0.050,0.014
0.050,0.017
0.049,0.015
0.048,0.015
0.049,0.013
0.050,0.013
0.049,0.010
0.051,0.008
0.049,0.004
0.054,0.005
0.053,0.004
0.053,0.004
0.051,0.007
0.050,0.004
0.049,0.005
0.051,0.004
0.050,0.004
0.048,0.005
0.052,0.006
0.051,0.004
0.055,0.004
0.054,0.002
0.052,-0.001
0.051,-0.002
0.049,-0.002
0.047,-0.000
0.049,-0.001
0.047,-0.000
0.049,-0.001
0.047,0.000
0.048,-0.002
0.049,-0.001
0.049,-0.002
0.049,-0.001
0.047,0.001
0.050,-0.002
0.048,-0.001
0.049,-0.003
0.049,-0.002
0.050,-0.002
0.049,-0.003
0.047,-0.001
0.045,0.001
0.045,0.005
0.045,0.004
0.044,0.007
0.045,0.007
0.046,0.007
0.046,0.005
0.049,0.009
0.048,0.006
0.048,0.005
0.047,0.008
0.048,0.008
0.047,0.009
0.045,0.008
0.047,0.013
0.044,0.010
0.048,0.010
0.046,0.011
0.047,0.012
0.049,0.015
0.049,0.012
0.047,0.015
0.048,0.016
0.046,0.021
0.046,0.018
0.048,0.019
0.047,0.017
0.047,0.019
0.047,0.019
0.047,0.020
0.044,0.016
0.046,0.022
0.043,0.019
0.045,0.021
0.042,0.025
0.045,0.026
0.042,0.027
0.046,0.030
0.043,0.030
0.045,0.033
0.042,0.032
0.042,0.036
0.044,0.033
0.045,0.036
0.043,0.033
0.045,0.034
0.045,0.032
0.045,0.033
0.043,0.038
0.042,0.037
0.042,0.044
0.044,0.040
0.041,0.043
0.041,0.042
0.048,0.044
0.043,0.040
0.049,0.042
0.045,0.041
0.047,0.042
0.042,0.043
0.045,0.044
0.042,0.045
0.041,0.045
0.042,0.044
0.042,0.045
0.043,0.046
0.043,0.047
0.042,0.047
0.044,0.047
0.044,0.047
0.043,0.050
0.045,0.049
0.043,0.047
0.045,0.049
0.045,0.047
0.043,0.047
0.045,0.048
0.044,0.048
0.044,0.050
0.042,0.052
0.043,0.050
0.042,0.052
0.044,0.051
0.045,0.052
0.045,0.050
0.046,0.047
0.044,0.047
0.048,0.048
0.045,0.048
0.045,0.045
0.044,0.052
0.045,0.049
0.044,0.052
0.042,0.050
0.049,0.046
0.045,0.041
0.047,0.039
0.047,0.040
0.047,0.038
0.045,0.039
0.046,0.040
0.043,0.041
0.048,0.040
0.045,0.039
0.049,0.037
0.048,0.038
0.048,0.036
0.049,0.038
0.051,0.036
0.049,0.033
0.047,0.031
0.050,0.030
0.048,0.033
0.050,0.031
0.048,0.032
0.051,0.029
0.049,0.028
0.053,0.024
0.050,0.023
0.053,0.022
0.049,0.021
0.050,0.018
0.050,0.018
0.049,0.016
0.048,0.018
0.048,0.014
0.049,0.015
0.045,0.011
0.050,0.014
0.049,0.010
0.050,0.010
0.050,0.010
0.052,0.006
0.052,0.011
0.051,0.012
0.049,0.010
0.048,0.009
0.050,0.010
0.048,0.008
0.049,0.006
0.052,0.006
0.050,0.003
0.050,0.009
0.050,0.004
0.048,0.007
0.049,0.006
0.048,0.004
0.048,0.002
0.050,0.003
0.051,0.002
0.049,0.001
0.049,0.001
0.049,0.002
0.048,0.002
0.049,0.000
0.048,0.003
0.049,0.003
0.051,0.000
0.051,-0.000
0.052,-0.000
0.048,-0.001
0.050,-0.002
0.047,0.002
0.049,0.003
0.045,0.004
0.047,0.001
0.045,0.003
0.049,0.002
0.050,0.003
0.049,0.001
0.052,0.004
0.050,0.006
0.049,0.004
0.047,0.008
0.049,0.010
0.046,0.011
0.049,0.011
0.049,0.010
0.050,0.010
0.049,0.007
0.048,0.007
0.049,0.011
0.048,0.012
0.049,0.011
0.045,0.012
0.045,0.012
0.045,0.014
0.045,0.011
0.048,0.015
0.045,0.012
0.048,0.014
0.044,0.017
0.047,0.016
0.046,0.020
0.045,0.019
0.049,0.024
0.048,0.018
0.046,0.020
0.049,0.020
0.050,0.021
0.047,0.022
0.045,0.025
0.043,0.025
0.041,0.031
0.044,0.030
0.044,0.036
0.046,0.030
0.043,0.033
0.046,0.032
0.046,0.034
0.045,0.032
0.045,0.032
0.044,0.034
0.047,0.037
0.045,0.038
0.046,0.038
0.047,0.037
0.048,0.036
0.048,0.036
0.046,0.037
0.048,0.040
0.046,0.042
0.047,0.045
0.046,0.043
0.046,0.043
0.045,0.042
0.047,0.044
0.047,0.039
0.047,0.043
0.047,0.043
0.048,0.045
0.045,0.046
0.049,0.048
0.046,0.050
0.047,0.047
0.045,0.047
0.048,0.047
0.047,0.048
0.045,0.045
0.046,0.044
0.045,0.046
0.045,0.043
0.043,0.048
0.045,0.046
0.044,0.048
0.045,0.049
0.044,0.048
0.045,0.046
0.046,0.042
0.049,0.048
0.047,0.046
0.048,0.050
0.048,0.044
0.047,0.045
0.046,0.046
0.049,0.045
0.049,0.043
0.050,0.041
0.048,0.043
0.047,0.039
0.050,0.040
0.047,0.038
0.047,0.040
0.047,0.039
0.049,0.039
0.047,0.037
0.051,0.041
0.049,0.037
0.051,0.036
0.048,0.032
0.052,0.032
0.049,0.033
0.051,0.030
0.047,0.032
0.048,0.030
0.050,0.029
0.051,0.028
0.049,0.030
0.049,0.025
0.050,0.025
0.048,0.025
0.049,0.023
0.048,0.023
0.051,0.022
0.049,0.023
0.049,0.018
0.052,0.019
0.051,0.016
0.049,0.014
0.050,0.013
0.049,0.014
0.050,0.012
0.044,0.014
0.050,0.012
0.048,0.012
0.049,0.009
0.049,0.014
0.049,0.011
0.049,0.010
0.048,0.008
0.051,0.007
0.051,0.008
0.052,0.007
0.050,0.006
0.053,0.003
0.049,0.003
0.050,0.005
0.053,0.005
0.050,0.003
0.053,0.001
0.055,0.002
0.052,-0.001
0.053,0.003
0.050,-0.002
0.051,-0.002
0.050,-0.002
0.050,-0.003
0.047,-0.004
0.051,-0.004
0.049,-0.003
0.051,-0.003
0.055,-0.002
0.052,-0.004
0.051,-0.000
0.051,-0.002
0.049,-0.000
0.047,-0.001
0.050,-0.001
0.046,-0.001
0.047,-0.002
0.046,-0.004
0.050,0.000
0.047,0.001
0.049,-0.002
0.046,0.001
0.045,0.001
0.047,0.003
0.046,0.001
0.049,0.002
0.046,0.000
0.049,0.004
0.049,0.003
0.049,0.004
0.046,0.009
0.047,0.010
0.045,0.010
0.045,0.011
0.045,0.011
0.049,0.010
0.049,0.010
0.050,0.010
0.049,0.011
0.047,0.009
0.045,0.011
0.046,0.013
0.045,0.012
0.043,0.014
0.043,0.012
0.043,0.015
0.045,0.015
0.045,0.017
0.047,0.017
0.047,0.019
0.047,0.018
0.049,0.021
0.045,0.019
0.044,0.022
0.044,0.023
0.046,0.025
0.042,0.026
0.044,0.028
0.042,0.029
0.042,0.032
0.044,0.034
0.046,0.032
0.046,0.030
0.043,0.032
0.045,0.031
0.040,0.033
0.043,0.031
0.043,0.034
0.043,0.036
0.040,0.036
0.043,0.041
0.043,0.038
0.041,0.042
0.044,0.042
0.043,0.044
0.044,0.040
0.045,0.040
0.045,0.043
0.045,0.041
0.045,0.045
0.046,0.042
0.042,0.045
0.045,0.043
0.044,0.047
0.040,0.046
0.045,0.049
0.044,0.047
0.048,0.046
0.045,0.047
0.046,0.045
0.045,0.050
0.047,0.048
0.047,0.050
0.045,0.049
0.047,0.049
0.045,0.046
0.049,0.048
0.047,0.045
0.050,0.048
0.049,0.049
0.045,0.046
0.048,0.049
0.050,0.049
0.046,0.049
0.048,0.046
0.047,0.049
0.045,0.045
0.050,0.047
0.049,0.044
0.050,0.043
0.048,0.044
0.050,0.042
0.047,0.044
0.046,0.041
0.046,0.042
0.047,0.040
0.050,0.041
0.049,0.039
0.049,0.040
0.051,0.039
0.048,0.039
0.049,0.040
0.050,0.040
0.046,0.038
0.049,0.036
0.049,0.036
0.051,0.030
0.051,0.031
0.051,0.030
0.050,0.031
0.049,0.030
0.050,0.029
0.047,0.028
0.050,0.024
0.050,0.027
0.050,0.023
0.053,0.023
0.053,0.020
0.053,0.021
0.051,0.019
0.054,0.016
0.051,0.016
0.049,0.015
0.050,0.015
0.047,0.012
0.047,0.015
0.046,0.013
0.049,0.013
0.049,0.012
0.050,0.009
0.053,0.009
0.052,0.008
0.051,0.007
0.051,0.006
0.048,0.006
0.047,0.007
0.047,0.006
0.049,0.008
0.046,0.005
0.049,0.006
0.045,0.006
0.049,0.004
0.050,0.008
0.051,0.006
0.050,0.006
0.049,0.004
0.048,0.004
0.048,0.003
0.051,0.006
0.047,0.003
0.051,0.000
0.047,0.000
0.050,-0.000
0.048,0.002
0.049,0.002
0.050,0.003
0.052,0.003
0.052,0.002
0.051,-0.002
0.053,-0.001
0.052,-0.001
0.050,-0.002
0.050,0.000
0.049,0.001
0.048,0.002
0.048,0.002
0.047,0.004
0.048,0.001
0.048,0.004
0.048,0.001
0.049,0.004
0.049,0.004
0.049,0.006
0.050,0.009
0.049,0.009
0.049,0.009
0.047,0.007
0.049,0.010
0.048,0.006
0.051,0.010
0.049,0.010
0.048,0.010
0.047,0.014
0.048,0.009
0.045,0.015
0.045,0.011
0.044,0.012
0.042,0.013
0.048,0.016
0.045,0.014
0.049,0.013
0.047,0.017
0.049,0.015
0.046,0.020
0.048,0.017
0.047,0.019
0.047,0.017
0.045,0.020
0.044,0.022
0.043,0.023
0.046,0.023
0.042,0.026
0.046,0.026
0.044,0.030
0.046,0.028
0.043,0.033
0.044,0.033
0.046,0.035
0.045,0.033
0.048,0.033
0.047,0.034
0.046,0.033
0.045,0.035
0.047,0.034
0.047,0.034
0.050,0.036
0.048,0.034
0.049,0.037
0.048,0.039
0.047,0.039
0.048,0.043
0.048,0.039
0.044,0.041
0.045,0.040
0.044,0.043
0.044,0.039
0.046,0.040
0.046,0.039
0.047,0.041
0.047,0.044
0.048,0.047
0.045,0.048
0.047,0.048
0.045,0.046
0.047,0.046
0.049,0.046
0.048,0.043
0.050,0.043
0.046,0.043
0.044,0.041
0.045,0.044
0.045,0.045
0.045,0.045
0.044,0.046
0.043,0.047
0.045,0.047
0.044,0.046
0.046,0.045
0.048,0.047
0.049,0.048
0.046,0.045
0.045,0.047
0.048,0.045
0.045,0.048
0.046,0.045
0.048,0.046
0.047,0.043
0.050,0.046
0.050,0.041
0.050,0.042
0.050,0.041
0.051,0.039
0.049,0.040
0.051,0.039
0.049,0.039
0.052,0.037
0.051,0.036
0.050,0.035
0.050,0.034
0.049,0.035
0.052,0.033
0.049,0.034
0.051,0.032
0.050,0.032
0.051,0.030
0.053,0.028
0.051,0.028
0.053,0.029
0.052,0.027
0.052,0.025
0.053,0.025
0.054,0.021
0.055,0.024
0.051,0.021
0.054,0.023
0.052,0.019
0.052,0.019
0.052,0.018
0.050,0.019
0.049,0.016
0.049,0.015
0.050,0.015
0.048,0.014
0.053,0.013
0.049,0.013
0.053,0.013
0.048,0.012
0.051,0.010
0.051,0.012
0.051,0.008
0.054,0.008
0.053,0.009
0.053,0.006
0.053,0.010
0.052,0.007
0.050,0.008
0.050,0.007
0.050,0.006
0.049,0.006
0.053,0.004
0.050,0.004
0.053,0.003
0.051,0.006
0.052,0.003
0.052,0.004
0.050,0.001
0.052,-0.001
0.049,0.001
0.053,0.000
0.052,-0.003
0.052,-0.003
0.049,0.001
0.051,0.001
0.047,0.002
0.051,0.000
0.048,0.000
0.051,-0.002
0.052,-0.003
0.049,-0.005
0.048,-0.003
0.053,-0.003
0.049,-0.004
0.050,-0.002
0.049,0.001
0.047,0.000
0.047,0.000
0.045,0.002
0.046,0.001
0.047,0.002
0.046,0.003
0.049,0.003
0.047,0.006
0.047,0.004
0.047,0.010
0.047,0.006
0.049,0.011
0.047,0.008
0.048,0.009
0.047,0.007
0.050,0.009
0.047,0.008
0.049,0.007
0.049,0.013
0.048,0.012
0.047,0.016
0.045,0.016
0.046,0.016
0.048,0.015
0.052,0.015
0.051,0.016
0.053,0.015
0.051,0.015
0.052,0.015
0.051,0.016
0.052,0.017
0.051,0.018
0.050,0.018
0.049,0.021
0.049,0.021
0.048,0.024
0.048,0.024
0.051,0.030
0.048,0.028
0.049,0.028
0.049,0.031
0.050,0.033
0.051,0.034
0.049,0.033
0.049,0.031
0.046,0.035
0.046,0.034
0.042,0.039
0.044,0.035
0.043,0.039
0.043,0.038
0.046,0.039
0.045,0.037
0.049,0.036
0.045,0.037
0.050,0.037
0.049,0.041
0.047,0.037
0.046,0.043
0.045,0.040
0.046,0.044
0.047,0.044
0.049,0.045
0.044,0.042
0.047,0.043
0.045,0.046
0.047,0.044
0.046,0.047
0.048,0.045
0.045,0.046
0.047,0.044
0.044,0.047
0.047,0.049
0.047,0.048
0.047,0.047
0.047,0.044
0.047,0.045
0.045,0.046
0.044,0.046
0.045,0.048
0.043,0.047
0.047,0.047
0.049,0.048
0.049,0.042
0.050,0.045
0.052,0.045
0.051,0.046
0.049,0.048
0.050,0.044
0.047,0.048
0.048,0.044
0.048,0.043
0.046,0.042
0.050,0.043
0.049,0.041
0.052,0.042
0.050,0.040
0.051,0.037
0.049,0.042
0.048,0.036
0.047,0.038
0.046,0.036
0.050,0.036
0.047,0.034
0.051,0.032
0.050,0.031
0.049,0.029
0.049,0.032
0.049,0.030
0.048,0.033
0.047,0.033
0.046,0.032
0.047,0.029
0.048,0.028
0.050,0.026
0.048,0.025
0.049,0.022
0.051,0.022
0.050,0.020
0.052,0.020
0.050,0.016
0.052,0.017
0.050,0.012
0.054,0.013
0.050,0.012
0.054,0.015
0.054,0.013
0.053,0.012
0.051,0.010
0.055,0.010
0.049,0.011
0.054,0.008
0.049,0.011
0.053,0.005
0.050,0.008
0.051,0.005
0.051,0.006
0.049,0.003
0.051,0.006
0.050,0.005
0.050,0.001
0.046,0.006
0.051,0.006
0.047,0.005
0.050,0.002
0.052,0.004
0.052,-0.002
0.052,-0.001
0.052,0.001
0.050,-0.003
0.049,0.000
0.047,-0.004
0.048,0.000
0.048,-0.002
0.051,0.000
0.047,-0.001
0.051,0.001
0.051,0.002
0.050,-0.002
0.050,0.003
0.050,0.001
0.048,0.004
0.045,0.000
0.049,0.004
0.047,0.001
0.051,0.002
0.049,0.001
0.050,0.001
0.047,0.003
0.046,0.003
0.043,0.003
0.046,0.006
0.044,0.005
0.048,0.003
0.046,0.007
0.047,0.006
0.048,0.007
0.048,0.008
0.047,0.006
0.047,0.008
0.048,0.006
0.044,0.010
0.045,0.010
0.044,0.010
0.043,0.009
0.048,0.012
0.047,0.010
0.049,0.013
0.047,0.015
0.047,0.015
0.047,0.019
0.044,0.017
0.042,0.022
0.044,0.018
0.047,0.019
0.044,0.020
0.047,0.019
0.045,0.022
0.046,0.024
0.045,0.024
0.042,0.025
0.042,0.025
0.039,0.027
0.039,0.029
0.040,0.034
0.043,0.031
0.041,0.034
0.042,0.033
0.046,0.034
0.041,0.033
0.042,0.035
0.043,0.033
0.043,0.035
0.043,0.036
0.044,0.039
0.043,0.035
0.043,0.036
0.045,0.040
0.044,0.039
0.043,0.044
0.043,0.041
0.045,0.041
0.044,0.039
0.045,0.041
0.047,0.040
0.045,0.039
0.047,0.041
0.045,0.040
0.045,0.044
0.043,0.044
0.041,0.047
0.041,0.047
0.042,0.049
0.043,0.046
0.046,0.047
0.045,0.044
0.047,0.046
0.048,0.047
0.047,0.045
0.048,0.046
0.050,0.046
0.047,0.048
0.048,0.046
0.046,0.050
0.046,0.045
0.049,0.046
0.047,0.046
0.049,0.045
0.048,0.049
0.050,0.049
0.047,0.050
0.047,0.049
0.049,0.048
0.049,0.047
0.052,0.043
0.053,0.040
0.052,0.042
0.053,0.043
0.053,0.043
0.052,0.041
0.049,0.041
0.050,0.041
0.050,0.042
0.050,0.040
0.051,0.035
0.050,0.037
0.053,0.036
0.051,0.036
0.051,0.037
0.048,0.034
0.049,0.036
0.049,0.033
0.049,0.033
0.049,0.033
0.052,0.033
0.051,0.029
0.050,0.031
0.052,0.028
0.053,0.025
0.052,0.025
0.052,0.023
0.050,0.026
0.053,0.022
0.049,0.025
0.056,0.021
0.051,0.022
0.054,0.019
0.054,0.020
0.050,0.016
0.051,0.019
0.050,0.013
0.051,0.013
0.052,0.014
0.055,0.011
0.050,0.010
0.054,0.011
0.053,0.008
0.056,0.008
0.054,0.003
0.055,0.005
0.053,0.001
0.053,0.000
0.051,0.004
0.053,0.002
0.050,0.004
0.050,0.002
0.052,0.002
0.052,0.000
0.054,0.002
0.052,-0.001
0.054,0.002
0.052,0.002
0.054,0.000
0.052,-0.000
0.053,-0.002
0.052,-0.000
0.050,-0.006
0.052,-0.006
0.052,-0.006
0.052,-0.004
0.052,-0.002
0.053,-0.003
0.049,0.000
0.049,0.000
0.048,0.001
0.045,0.001
0.046,-0.002
0.046,-0.003
0.047,-0.002
0.051,0.001
0.049,-0.002
0.048,-0.001
0.051,0.000
0.051,-0.000
0.051,0.002
0.053,0.004
0.050,0.004
0.052,0.004
0.051,0.004
0.049,0.004
0.045,0.007
0.045,0.008
0.042,0.008
0.043,0.006
0.045,0.009
0.044,0.008
0.046,0.010
0.044,0.008
0.047,0.009
0.045,0.010
0.047,0.008
0.043,0.014
0.045,0.011
0.039,0.014
0.042,0.011
0.046,0.013
0.046,0.014
0.047,0.015
0.047,0.017
0.049,0.016
0.047,0.020
0.046,0.015
0.043,0.021
0.042,0.018
0.045,0.020
0.041,0.021
0.041,0.026
0.042,0.026
0.042,0.027
0.043,0.028
0.039,0.030
0.045,0.030
0.043,0.035
0.045,0.032
0.044,0.037
0.044,0.035
0.045,0.037
0.042,0.034
0.044,0.039
0.045,0.034
0.042,0.037
0.045,0.036
0.044,0.036
0.043,0.038
0.044,0.040
0.045,0.038
0.046,0.039
0.044,0.040
0.043,0.039
0.042,0.041
0.045,0.041
0.042,0.045
0.042,0.042
0.044,0.041
0.044,0.040
0.045,0.043
0.043,0.044
0.046,0.045
0.048,0.046
0.048,0.045
0.049,0.049
0.048,0.046
0.048,0.046
0.044,0.045
0.049,0.045
0.045,0.045
0.047,0.046
0.045,0.045
0.043,0.042
0.044,0.046
0.041,0.047
0.046,0.049
0.045,0.050
0.047,0.052
0.047,0.050
0.049,0.051
0.048,0.048
0.048,0.044
0.049,0.045
0.048,0.045
0.047,0.045
0.048,0.044
0.047,0.045
0.048,0.043
0.047,0.045
0.049,0.042
0.048,0.040
0.049,0.038
0.048,0.037
0.045,0.041
0.045,0.039
0.041,0.038
0.044,0.039
0.044,0.037
0.046,0.035
0.045,0.033
0.045,0.031
0.049,0.033
0.044,0.034
0.048,0.032
0.047,0.034
0.047,0.032
0.047,0.033
0.047,0.030
0.052,0.028
0.050,0.025
0.053,0.023
0.050,0.022
0.054,0.020
0.052,0.019
0.056,0.018
0.059,0.014
0.058,0.015
0.059,0.014
0.056,0.013
0.054,0.012
0.052,0.009
0.050,0.009
0.049,0.008
0.049,0.012
0.050,0.009
0.051,0.014
0.048,0.007
0.048,0.008
0.046,0.008
0.043,0.007
0.042,0.006
0.041,0.005
0.043,0.005
0.045,0.003
0.050,0.001
0.052,0.002
0.051,0.005
0.052,0.003
0.050,0.006
0.051,0.002
0.053,0.006
0.052,0.003
0.056,0.006
0.051,-0.004
0.055,-0.002
0.054,-0.005
0.056,-0.008
0.050,-0.004
0.052,-0.006
0.049,-0.002
0.045,-0.003
0.049,0.001
0.044,-0.002
0.050,-0.000
0.050,-0.000
0.055,-0.001
0.055,0.000
0.056,-0.002
0.052,-0.001
0.050,-0.001
0.047,-0.001
0.044,-0.000
0.043,-0.002
0.046,-0.001
0.046,-0.001
0.048,0.005
0.046,0.001
0.045,0.005
0.043,0.003
0.041,0.004
0.042,0.004
0.042,0.006
0.041,0.002
0.045,0.007
0.049,0.004
0.047,0.006
0.049,0.009
0.050,0.008
0.049,0.012
0.048,0.009
0.049,0.009
0.050,0.007
0.054,0.009
0.052,0.007
0.055,0.008
0.050,0.013
0.050,0.013
0.045,0.018
0.047,0.017
0.045,0.021
0.045,0.018
0.044,0.021
0.044,0.021
0.042,0.019
0.040,0.018
0.040,0.020
0.040,0.023
0.040,0.025
0.038,0.024
0.045,0.029
0.043,0.027
0.047,0.029
0.041,0.029
0.049,0.030
0.044,0.028
0.049,0.028
0.047,0.028
0.050,0.028
0.051,0.029
0.052,0.027
0.051,0.031
0.049,0.034
0.050,0.035
0.045,0.035
0.042,0.039
0.039,0.037
0.040,0.042
0.042,0.041
0.041,0.036
0.041,0.039
0.045,0.039
0.045,0.036
0.044,0.040
0.042,0.038
0.044,0.040
0.042,0.041
0.043,0.041
0.039,0.045
0.043,0.041
0.043,0.045
0.041,0.044
0.046,0.046
0.044,0.045
0.050,0.044
0.043,0.044
0.038,0.044
0.036,0.046
0.031,0.043
0.030,0.044
0.028,0.044
0.028,0.045
0.034,0.047
0.048,0.048
0.053,0.048
0.054,0.046
0.056,0.050
0.050,0.049
0.048,0.051
0.047,0.049
0.045,0.049
0.045,0.044
0.048,0.044
0.045,0.041
0.050,0.042
0.047,0.042
0.048,0.043
0.048,0.046
0.047,0.044
0.046,0.045
0.046,0.044
0.047,0.041
0.046,0.041
0.049,0.042
0.046,0.038
0.050,0.038
0.047,0.037
0.050,0.038
0.052,0.037
0.053,0.037
0.050,0.033
0.052,0.031
0.054,0.031
0.057,0.028
0.061,0.029
0.063,0.028
0.060,0.029
0.054,0.029
0.052,0.029
0.045,0.029
0.043,0.027
0.037,0.027
0.036,0.023
0.040,0.022
0.055,0.016
0.062,0.018
0.065,0.015
0.058,0.016
0.052,0.017
0.047,0.014
0.048,0.012
0.044,0.013
0.048,0.011
0.045,0.013
0.049,0.010
0.048,0.011
0.047,0.007
0.047,0.006
0.049,0.001
0.050,0.001
0.048,0.001
0.048,0.001
0.048,0.005
0.048,0.007
0.046,0.011
0.048,0.014
0.048,0.016
0.046,0.010
0.048,0.011
0.047,0.010
0.047,0.002
0.048,0.005
0.048,0.001
0.047,0.004
0.048,0.003
0.050,0.000
0.051,-0.003
0.055,-0.006
0.056,-0.008
0.057,-0.008
0.056,-0.003
0.054,-0.008
0.053,-0.003
0.046,-0.002
0.047,0.001
0.044,0.002
0.047,0.009
0.047,0.009
0.051,0.007
0.053,0.009
0.053,0.007
0.047,0.010
0.045,0.007
0.040,0.007
0.042,0.009
0.047,0.010
0.052,0.008
0.054,0.010
0.057,0.008
0.055,0.011
0.052,0.014
0.047,0.017
0.041,0.017
0.039,0.014
0.038,0.012
0.045,0.012
0.050,0.015
0.058,0.013
0.058,0.014
0.059,0.013
0.057,0.021
0.054,0.037
0.050,0.046
0.045,0.064
0.041,0.067
0.037,0.058
0.036,0.036
0.037,0.010
0.033,-0.011
0.038,-0.015
0.045,-0.010
0.048,-0.001
0.047,0.010
0.050,0.015
0.049,0.024
0.044,0.029
0.044,0.033
0.046,0.035
0.046,0.038
0.046,0.038
0.045,0.044
0.044,0.052
0.044,0.057
0.047,0.057
0.046,0.059
0.045,0.049
0.046,0.045
0.045,0.027
0.043,0.018
0.044,0.006
0.044,0.007
0.044,0.011
0.046,0.018
0.046,0.026
0.048,0.030
0.049,0.035
0.051,0.038
0.047,0.040
0.046,0.038
0.048,0.041
0.045,0.039
0.046,0.042
0.044,0.040
0.041,0.041
0.040,0.038
0.042,0.040
0.039,0.036
0.041,0.037
0.039,0.034
0.044,0.039
0.045,0.046
0.047,0.050
0.046,0.055
0.047,0.055
0.046,0.057
0.045,0.053
0.046,0.055
0.046,0.052
0.048,0.052
0.047,0.051
0.048,0.050
0.041,0.053
0.038,0.051
0.033,0.054
0.034,0.057
0.032,0.054
0.034,0.054
0.044,0.055
0.052,0.053
0.059,0.054
0.059,0.057
0.060,0.052
0.061,0.056
0.066,0.053
0.068,0.049
0.068,0.045
0.070,0.042
0.060,0.039
0.056,0.034
0.049,0.034
0.044,0.030
0.036,0.030
0.026,0.031
0.027,0.033
0.030,0.032
0.042,0.034
0.046,0.036
0.056,0.036
0.059,0.044
0.067,0.042
0.069,0.040
0.072,0.039
0.067,0.037
0.060,0.036
0.050,0.039
0.039,0.042
0.024,0.050
0.015,0.057
0.015,0.045
0.030,0.020
0.052,0.007
0.054,-0.005
0.053,-0.006
0.044,-0.007
0.044,0.000
0.043,0.003
0.047,0.012
0.050,0.016
0.051,0.010
0.050,0.007
0.051,0.001
0.053,0.005
0.055,0.010
0.054,0.013
0.055,0.015
0.056,0.022
0.057,0.027
0.060,0.044
0.061,0.055
0.060,0.058
0.056,0.040
0.051,0.028
0.047,0.032
0.045,0.040
0.040,0.041
0.040,0.027
0.041,0.006
0.046,-0.021
0.044,-0.037
0.045,-0.040
0.041,-0.039
0.036,-0.035
0.032,-0.031
0.029,-0.023
0.034,-0.015
0.040,-0.009
0.053,-0.007
0.069,-0.004
0.073,-0.006
0.066,-0.003
0.056,-0.001
0.052,-0.002
0.044,0.000
0.044,-0.001
0.042,0.002
0.041,-0.000
0.044,0.004
0.045,-0.000
0.049,0.001
0.044,0.001
0.047,-0.002
0.043,-0.003
0.045,0.001
0.042,0.000
0.047,0.001
0.046,0.003
0.049,0.007
0.053,0.009
0.057,0.008
0.056,0.008
0.057,0.007
0.054,0.009
0.048,0.009
0.042,0.010
0.037,0.011
0.041,0.012
0.045,0.011
0.050,0.011
0.050,0.014
0.052,0.016
0.052,0.014
0.054,0.014
0.050,0.012
0.044,0.012
0.039,0.012
0.029,0.015
0.018,0.018
0.012,0.023
0.025,0.024
0.044,0.030
0.062,0.027
0.065,0.028
0.059,0.027
0.054,0.030
0.049,0.028
0.048,0.032
0.043,0.030
0.045,0.032
0.044,0.034
0.049,0.034
0.051,0.035
0.052,0.038
0.057,0.040
0.050,0.041
0.042,0.037
0.034,0.038
0.028,0.041
0.025,0.052
0.025,0.065
0.030,0.069
0.042,0.067
0.049,0.046
0.052,0.026
0.047,0.003
0.043,0.006
0.036,0.017
0.039,0.035
0.037,0.045
0.045,0.050
0.045,0.051
0.042,0.056
0.042,0.049
0.040,0.010
0.041,-0.035
0.041,-0.005
0.033,0.091
0.031,0.171
0.043,0.230
0.057,0.227
0.066,0.175
0.064,0.109
0.060,0.036
0.049,-0.016
0.049,-0.043
0.037,-0.042
0.035,-0.042
0.029,-0.026
0.022,-0.007
0.016,0.012
0.018,0.024
0.037,0.036
0.049,0.048
0.053,0.049
0.047,0.054
0.049,0.048
0.052,0.043
0.057,0.038
0.058,0.034
0.057,0.032
0.057,0.032
0.052,0.032
0.050,0.030
0.049,0.034
0.044,0.039
0.041,0.046
0.043,0.052
0.040,0.052
0.037,0.046
0.029,0.047
0.021,0.046
0.012,0.050
0.020,0.052
0.031,0.041
0.051,0.036
0.064,0.027
0.074,0.023
0.074,0.019
0.065,0.013
0.052,0.011
0.044,0.014
0.039,0.013
0.041,0.016
0.045,0.013
0.058,0.014
0.057,0.014
0.060,0.015
0.056,0.019
0.050,0.014
0.043,0.022
0.038,0.031
0.032,0.056
0.028,0.070
0.038,0.079
0.045,0.067
0.051,0.051
0.054,0.013
0.050,-0.044
0.051,-0.106
0.049,-0.079
0.049,0.007
0.053,0.082
0.049,0.135
0.054,0.141
0.047,0.106
0.047,0.043
0.041,-0.031
0.039,-0.077
0.034,-0.080
0.032,-0.067
0.035,-0.044
0.043,-0.027
0.056,-0.014
0.061,-0.007
0.061,-0.003
0.050,-0.003
0.046,-0.005
0.045,-0.003
0.054,-0.006
0.060,-0.005
0.068,-0.006
0.068,-0.006
0.071,-0.007
0.066,-0.001
0.060,-0.002
0.054,0.005
0.048,0.005
0.046,0.010
0.044,0.008
0.049,0.004
0.054,0.007
0.062,0.007
0.063,0.012
0.059,0.014
0.052,-0.004
0.041,-0.023
0.028,-0.036
0.017,-0.033
0.013,-0.029
0.020,-0.016
0.039,-0.010
0.053,-0.002
0.054,0.001
0.053,0.007
0.045,0.013
0.043,0.020
0.037,0.028
0.034,0.024
0.028,0.033
0.033,0.036
0.048,0.044
0.065,0.049
0.072,0.041
0.064,0.021
0.058,-0.004
0.052,-0.023
0.051,-0.026
0.053,-0.019
0.053,-0.007
0.049,0.002
0.049,0.007
0.043,0.010
0.040,0.013
0.034,0.015
0.036,0.018
0.041,0.019
0.046,0.016
0.047,0.017
0.045,0.016
0.048,0.023
0.040,0.023
0.047,0.026
0.039,0.024
0.047,0.028
0.044,0.028
0.046,0.029
0.044,0.030
0.046,0.032
0.043,0.032
0.045,0.035
0.042,0.031
0.038,0.032
0.041,0.029
0.041,0.029
0.037,0.033
0.038,0.032
0.034,0.038
0.037,0.035
0.039,0.039
0.041,0.038
0.050,0.039
0.051,0.035
0.061,0.037
0.059,0.036
0.060,0.034
0.057,0.037
0.052,0.036
0.049,0.037
0.047,0.044
0.043,0.047
0.040,0.046
0.040,0.050
0.037,0.050
0.037,0.052
0.041,0.052
0.044,0.052
0.048,0.052
0.049,0.047
0.048,0.046
0.051,0.056
0.049,0.067
0.047,0.078
0.046,0.083
0.037,0.071
0.035,0.050
0.037,0.024
0.040,0.011
0.041,0.014
0.045,0.017
0.045,0.023
0.046,0.026
0.051,0.031
0.049,0.030
0.051,0.035
0.047,0.037
0.046,0.042
0.043,0.045
0.041,0.043
0.041,0.042
0.048,0.039
0.048,0.038
0.050,0.032
0.052,0.034
0.052,0.030
0.053,0.035
0.050,0.035
0.048,0.035
0.041,0.035
0.041,0.035
0.041,0.034
0.042,0.032
0.045,0.030
0.047,0.028
0.050,0.027
0.050,0.025
0.053,0.022
0.051,0.025
0.052,0.022
0.052,0.025
0.049,0.023
0.051,0.026
0.048,0.023
0.046,0.023
0.044,0.020
0.047,0.017
0.046,0.017
0.045,0.014
0.047,0.012
0.050,0.011
0.049,0.009
0.050,0.009
0.049,0.009
0.046,0.008
0.049,0.009
0.049,0.010
0.048,0.004
0.049,0.008
0.047,0.007
0.047,0.003
0.047,0.006
0.045,0.000
0.046,0.003
0.048,0.001
0.049,0.002
0.046,0.000
0.049,-0.002
0.047,-0.003
0.047,-0.006
0.048,-0.004
0.047,-0.004
0.046,0.002
0.047,0.003
0.048,0.006
0.049,0.006
0.050,0.006
0.049,0.006
0.052,0.005
0.053,0.006
0.054,0.007
0.055,0.011
0.055,0.020
0.050,0.017
0.049,-0.004
0.048,-0.020
0.048,-0.029
0.041,-0.024
0.039,-0.022
0.038,-0.015
0.041,-0.006
0.041,-0.004
0.044,-0.002
0.046,-0.002
0.047,-0.002
0.048,-0.003
0.049,-0.001
0.050,-0.005
0.049,-0.002
0.052,-0.002
0.053,-0.002
0.056,0.001
0.056,0.004
0.052,0.006
0.047,0.004
0.042,0.007
0.040,0.005
0.041,0.008
0.036,0.007
0.039,0.008
0.040,0.006
0.044,0.006
0.040,0.008
0.044,0.008
0.042,0.011
0.043,0.010
0.042,0.014
0.041,0.011
0.043,0.014
0.039,0.013
0.043,0.013
0.040,0.014
0.042,0.013
0.041,0.017
0.041,0.016
0.041,0.018
0.041,0.019
0.041,0.022
0.042,0.022
0.037,0.023
0.042,0.025
0.041,0.030
0.044,0.027
0.041,0.031
0.043,0.028
0.041,0.032
0.044,0.029
0.044,0.031
0.043,0.030
0.043,0.032
0.041,0.030
0.041,0.034
0.042,0.032
0.045,0.033
0.044,0.035
0.046,0.036
0.045,0.034
0.047,0.038
0.046,0.039
0.045,0.040
0.043,0.040
0.044,0.038
0.042,0.042
0.044,0.038
0.044,0.042
0.044,0.038
0.045,0.040
0.042,0.037
0.043,0.041
0.041,0.041
0.043,0.043
0.039,0.045
0.043,0.044
0.041,0.046
0.041,0.043
0.040,0.044
0.043,0.042
0.043,0.039
0.045,0.041
0.045,0.040
0.043,0.044
0.043,0.042
0.043,0.046
0.041,0.045
0.042,0.046
0.041,0.048
0.042,0.047
0.042,0.045
0.047,0.046
0.044,0.044
0.048,0.043
0.044,0.046
0.043,0.043
0.045,0.046
0.045,0.043
0.045,0.042
0.043,0.044
0.052,0.041
0.047,0.039
0.049,0.041
0.049,0.040
0.048,0.039
0.047,0.038
0.049,0.038
0.046,0.038
0.049,0.036
0.047,0.035
0.047,0.033
0.048,0.034
0.050,0.032
0.049,0.034
0.047,0.033
0.048,0.034
0.049,0.031
0.052,0.030
0.049,0.030
0.046,0.030
0.048,0.028
0.047,0.024
0.047,0.023
0.047,0.023
0.049,0.022
0.048,0.022
0.051,0.018
0.052,0.018
0.050,0.016
0.052,0.013
0.051,0.014
0.053,0.013
0.051,0.013
0.052,0.011
0.051,0.010
0.050,0.010
0.051,0.010
0.050,0.012
0.051,0.008
0.049,0.009
0.051,0.008
0.048,0.006
0.049,0.004
0.050,0.003
0.049,0.003
0.051,0.003
0.051,0.002
0.049,0.001
0.051,0.005
0.047,0.003
0.046,0.006
0.044,0.005
0.049,0.001
0.049,0.003
0.053,0.001
0.053,-0.001
0.054,-0.003
0.055,-0.002
0.049,-0.002
0.050,0.002
0.049,0.000
0.052,0.003
0.049,-0.003
0.051,0.001
0.048,-0.003
0.054,0.001
0.051,-0.001
0.052,0.000
0.052,0.002
0.054,-0.001
0.049,0.004
0.052,0.002
0.049,0.003
0.050,-0.001
0.051,0.003
0.048,0.000
0.046,0.002
0.044,0.004
0.049,0.002
0.044,0.003
0.049,0.002
0.044,0.005
0.047,0.004
0.047,0.005
0.047,0.004
0.049,0.005
0.047,0.006
0.046,0.004
0.047,0.010
0.046,0.009
0.044,0.012
0.043,0.010
0.048,0.011
0.045,0.011
0.049,0.013
0.046,0.014
0.044,0.012
0.046,0.018
0.044,0.015
0.043,0.020
0.045,0.015
0.042,0.020
0.045,0.019
0.042,0.022
0.045,0.020
0.044,0.024
0.045,0.021
0.043,0.025
0.044,0.026
0.045,0.028
0.045,0.027
0.045,0.030
0.044,0.033
0.045,0.032
0.042,0.032
0.046,0.031
0.047,0.029
0.044,0.031
0.047,0.033
0.045,0.033
0.045,0.031
0.047,0.035
0.045,0.034
0.049,0.034
0.047,0.038
0.049,0.036
0.045,0.039
0.046,0.038
0.048,0.041
0.045,0.039
0.045,0.040
0.045,0.041
0.044,0.040
0.043,0.041
0.047,0.042
0.047,0.039
0.045,0.040
0.045,0.042
0.044,0.042
0.043,0.050
0.044,0.046
0.043,0.048
0.043,0.045
0.046,0.049
0.044,0.042
0.049,0.045
0.043,0.045
0.044,0.045
0.045,0.048
0.043,0.044
0.042,0.049
0.044,0.046
0.047,0.047
0.044,0.048
0.049,0.048
0.046,0.047
0.046,0.049
0.048,0.046
0.047,0.050
0.048,0.049
0.048,0.046
0.047,0.045
0.048,0.045
0.050,0.044
0.050,0.043
0.050,0.042
0.049,0.042
0.051,0.045
0.049,0.046
0.049,0.043
0.049,0.044
0.051,0.040
0.051,0.039
0.052,0.037
0.051,0.039
0.052,0.035
0.051,0.036
0.050,0.035
0.052,0.033
0.051,0.035
0.050,0.033
0.049,0.033
0.049,0.031
0.051,0.032
0.048,0.027
0.051,0.029
0.050,0.027
0.053,0.027
0.051,0.026
0.050,0.024
0.052,0.025
0.052,0.020
0.051,0.023
0.052,0.019
0.053,0.019
0.054,0.015
0.052,0.016
0.049,0.018
0.049,0.019
0.050,0.015
0.049,0.016
0.049,0.012
0.047,0.015
0.047,0.012
0.052,0.012
0.051,0.012
0.054,0.010
0.051,0.008
0.054,0.006
0.051,0.006
0.053,0.003
0.051,0.009
0.051,0.005
0.049,0.005
0.047,0.001
0.052,0.005
0.050,0.002
0.053,0.001
0.052,0.002
0.052,0.002
0.051,0.004
0.050,0.000
0.051,0.001
0.051,-0.001
0.052,-0.003
0.052,-0.003
0.052,-0.003
0.053,-0.002
0.051,-0.001
0.053,0.000
0.051,0.000
0.049,0.000
0.049,0.001
0.049,0.003
0.050,0.002
0.050,0.000
0.048,-0.001
0.049,0.000
0.049,-0.001
0.048,0.001
0.048,0.003
0.048,0.000
0.047,0.006
0.048,0.004
0.049,0.008
0.048,0.004
0.050,0.007
0.048,0.006
0.049,0.005
0.047,0.009
0.049,0.005
0.045,0.008
0.044,0.009
0.046,0.012
0.048,0.009
0.049,0.012
0.047,0.010
0.049,0.011
0.047,0.012
0.048,0.007
0.045,0.014
0.048,0.011
0.043,0.015
0.044,0.014
0.047,0.013
0.047,0.013
0.048,0.014
0.049,0.012
0.049,0.014
0.052,0.015
0.049,0.016
0.050,0.017
0.046,0.016
0.044,0.019
0.047,0.020
0.044,0.021
0.046,0.021
0.044,0.028
0.048,0.030
0.048,0.030
0.048,0.031
0.047,0.031
0.048,0.032
0.044,0.033
0.046,0.034
0.045,0.035
0.047,0.035
0.043,0.036
0.045,0.031
0.042,0.033
0.043,0.032
0.043,0.036
0.041,0.036
0.047,0.037
0.045,0.036
0.047,0.040
0.047,0.040
0.047,0.040
0.048,0.040
0.048,0.043
0.045,0.044
0.046,0.041
0.048,0.040
0.046,0.040
0.046,0.041
0.047,0.041
0.046,0.044
0.048,0.044
0.047,0.046
0.045,0.047
0.045,0.046
0.045,0.047
0.047,0.046
0.046,0.049
0.046,0.046
0.047,0.045
0.049,0.043
0.047,0.045
0.051,0.045
0.048,0.043
0.046,0.045
0.047,0.045
0.044,0.048
0.046,0.047
0.051,0.049
0.050,0.044
0.051,0.045
0.050,0.044
0.051,0.044
0.047,0.044
0.049,0.041
0.045,0.044
0.048,0.041
0.047,0.043
0.046,0.040
0.052,0.042
0.049,0.038
0.049,0.039
0.047,0.035
0.048,0.035
0.048,0.038
0.048,0.036
0.047,0.038
0.050,0.036
0.048,0.034
0.049,0.033
0.051,0.035
0.052,0.031
0.051,0.031
0.052,0.030
0.053,0.028
0.048,0.030
0.051,0.028
0.049,0.030
0.049,0.027
0.049,0.027
0.048,0.025
0.049,0.024
0.049,0.022
0.052,0.018
0.053,0.017
0.054,0.017
0.055,0.015
0.053,0.015
0.054,0.011
0.052,0.016
0.050,0.012
0.051,0.011
0.051,0.012
0.055,0.012
0.053,0.010
0.054,0.010
0.052,0.010
0.055,0.007
0.052,0.009
0.053,0.007
0.051,0.006
0.051,0.004
0.053,0.002
0.050,0.002
0.051,0.002
0.052,0.003
0.048,0.004
0.047,0.006
0.049,0.004
0.047,0.004
0.047,0.003
0.049,0.000
0.051,0.000
0.050,-0.002
0.049,-0.001
0.049,-0.002
0.049,-0.001
0.045,-0.004
0.045,-0.001
0.045,0.000
0.046,-0.002
0.045,-0.002
0.047,0.001
0.047,-0.001
0.049,-0.000
0.048,-0.002
0.048,-0.003
0.046,-0.001
0.046,-0.000
0.044,-0.002
0.044,-0.002
0.043,-0.002
0.047,0.001
0.046,0.003
0.046,0.000
0.046,0.002
0.046,0.005
0.045,0.006
0.044,0.005
0.047,0.009
0.044,0.008
0.047,0.007
0.048,0.008
0.046,0.008
0.047,0.009
0.046,0.011
0.044,0.009
0.047,0.014
0.046,0.010
0.045,0.013
0.046,0.010
0.047,0.014
0.045,0.012
0.049,0.014
0.046,0.013
0.049,0.013
0.045,0.015
0.045,0.016
0.043,0.020
0.044,0.018
0.043,0.021
0.045,0.018
0.042,0.022
0.042,0.020
0.042,0.023
0.041,0.023
0.041,0.024
0.039,0.025
0.041,0.028
0.040,0.029
0.041,0.029
0.043,0.031
0.040,0.030
0.041,0.030
0.041,0.033
0.042,0.031
0.042,0.034
0.040,0.031
0.043,0.031
0.040,0.033
0.046,0.035
0.044,0.034
0.046,0.034
0.041,0.038
0.044,0.038
0.042,0.042
0.043,0.041
0.043,0.043
0.042,0.038
0.045,0.040
0.043,0.038
0.046,0.039
0.045,0.039
0.047,0.040
0.041,0.043
0.044,0.042
0.043,0.046
0.045,0.043
0.043,0.045
0.044,0.043
0.045,0.045
0.045,0.042
0.046,0.043
0.044,0.043
0.046,0.043
0.045,0.046
0.046,0.044
0.044,0.046
0.043,0.041
0.041,0.045
0.043,0.044
0.047,0.048
0.047,0.045
0.048,0.046
0.048,0.047
0.048,0.045
0.048,0.049
0.048,0.046
0.048,0.048
0.047,0.043
0.047,0.045
0.049,0.042
0.049,0.045
0.048,0.044
0.051,0.043
0.046,0.044
0.048,0.041
0.047,0.042
0.046,0.039
0.048,0.038
0.044,0.036
0.049,0.036
0.046,0.035
0.049,0.036
0.046,0.037
0.047,0.035
0.046,0.038
0.047,0.036
0.046,0.034
0.047,0.032
0.050,0.030
0.050,0.029
0.048,0.028
0.049,0.026
0.048,0.027
0.051,0.026
0.049,0.025
0.049,0.023
0.049,0.023
0.051,0.023
0.052,0.021
0.052,0.022
0.051,0.019
0.050,0.019
0.051,0.015
0.049,0.016
0.050,0.012
0.051,0.015
0.049,0.014
0.048,0.014
0.046,0.013
0.044,0.012
0.047,0.011
0.049,0.012
0.049,0.008
0.052,0.011
0.051,0.006
0.049,0.007
0.047,0.007
0.048,0.005
0.046,0.006
0.047,0.004
0.047,0.004
0.047,0.004
0.049,0.004
0.049,0.005
0.049,0.003
0.049,0.005
0.048,0.003
0.049,0.006
0.049,0.005
0.047,0.002
0.047,-0.002
0.048,-0.000
0.046,-0.001
0.046,0.000
0.049,0.000
0.047,-0.002
0.046,0.001
0.049,-0.001
0.048,0.002
0.045,0.000
0.049,0.001
0.047,-0.000
0.050,-0.000
0.048,-0.001
0.049,-0.000
0.049,0.000
0.049,0.000
0.045,0.002
0.046,0.003
0.048,0.003
0.049,0.004
0.050,0.004
0.052,0.003
0.050,0.004
0.049,0.006
0.051,0.008
0.048,0.006
0.048,0.007
0.046,0.008
0.050,0.008
0.046,0.011
0.048,0.010
0.046,0.010
0.047,0.009
0.049,0.011
0.048,0.012
0.045,0.011
0.042,0.015
0.043,0.014
0.042,0.016
0.043,0.017
0.044,0.017
0.046,0.018
0.044,0.017
0.045,0.016
0.046,0.017
0.047,0.017
0.048,0.020
0.047,0.017
0.046,0.021
0.044,0.019
0.046,0.023
0.045,0.026
0.046,0.028
0.043,0.029
0.042,0.026
0.045,0.029
0.042,0.033
0.047,0.031
0.041,0.033
0.042,0.031
0.044,0.031
0.043,0.033
0.044,0.030
0.041,0.034
0.044,0.035
0.041,0.037
0.043,0.036
0.043,0.039
0.042,0.037
0.046,0.039
0.045,0.036
0.043,0.037
0.048,0.042
0.046,0.041
0.046,0.043
0.043,0.043
0.045,0.042
0.044,0.043
0.044,0.043
0.043,0.042
0.043,0.042
0.043,0.045
0.044,0.049
0.044,0.049
0.045,0.046
0.043,0.048
0.043,0.046
0.044,0.047
0.043,0.041
0.045,0.049
0.041,0.044
0.046,0.046
0.041,0.048
0.045,0.047
0.041,0.051
0.041,0.046
0.041,0.050
0.041,0.048
0.044,0.050
0.042,0.047
0.046,0.049
0.046,0.045
0.045,0.047
0.045,0.046
0.046,0.044
0.043,0.043
0.045,0.039
0.043,0.041
0.045,0.039
0.045,0.041
0.048,0.040
0.049,0.039
0.048,0.040
0.048,0.037
0.049,0.038
0.047,0.036
0.044,0.038
0.047,0.035
0.049,0.034
0.048,0.032
0.052,0.031
0.050,0.031
0.049,0.027
0.047,0.032
0.047,0.026
0.049,0.031
0.045,0.027
0.049,0.028
0.046,0.025
0.049,0.025
0.048,0.023
0.052,0.023
0.052,0.019
0.051,0.021
0.050,0.017
0.051,0.017
0.047,0.015
0.051,0.015
0.049,0.012
0.050,0.011
0.047,0.012
0.049,0.012
0.047,0.012
0.048,0.010
0.047,0.009
0.044,0.010
0.047,0.010
0.048,0.011
0.048,0.011
0.048,0.009
0.050,0.006
0.049,0.006
0.050,0.004
0.047,0.003
0.050,0.005
0.049,0.004
0.049,0.003
0.047,0.007
0.048,0.002
0.046,0.002
0.049,-0.001
0.050,-0.000
0.050,-0.001
0.052,-0.002
0.054,-0.005
0.051,-0.005
0.051,-0.002
0.050,-0.004
0.047,-0.002
0.049,-0.003
0.048,-0.001
0.049,-0.003
0.050,-0.001
0.049,-0.005
0.049,-0.001
0.049,-0.001
0.046,-0.002
0.047,0.000
0.047,-0.002
0.044,0.001
0.045,0.000
0.046,0.002
0.047,0.000
0.050,0.004
0.048,0.002
0.049,0.003
0.047,0.006
0.050,0.007
0.045,0.006
0.046,0.004
0.043,0.006
0.045,0.006
0.044,0.006
0.045,0.004
0.047,0.008
0.045,0.006
0.046,0.010
0.045,0.012
0.047,0.010
0.042,0.013
0.045,0.012
0.044,0.013
0.045,0.010
0.048,0.015
0.047,0.014
0.047,0.014
0.044,0.017
0.045,0.014
0.046,0.020
0.045,0.017
0.045,0.021
0.043,0.017
0.045,0.018
0.047,0.019
0.045,0.022
0.044,0.021
0.043,0.024
0.045,0.027
0.040,0.029
0.043,0.028
0.040,0.031
0.042,0.029
0.044,0.032
0.046,0.033
0.043,0.031
0.046,0.032
0.045,0.030
0.044,0.030
0.047,0.033
0.045,0.032
0.047,0.034
0.047,0.031
0.047,0.032
0.047,0.035
0.045,0.034
0.047,0.037
0.044,0.037
0.047,0.037
0.044,0.039
0.046,0.039
0.048,0.038
0.049,0.038
0.046,0.036
0.045,0.037
0.048,0.036
0.045,0.037
0.043,0.044
0.043,0.043
0.042,0.045
0.043,0.044
0.047,0.046
0.045,0.042
0.047,0.044
0.047,0.042
0.046,0.041
0.044,0.044
0.047,0.041
0.044,0.044
0.045,0.041
0.041,0.044
0.039,0.043
0.044,0.045
0.042,0.045
0.046,0.044
0.044,0.045
0.045,0.046
0.044,0.047
0.044,0.048
0.044,0.047
0.046,0.044
0.048,0.044
0.049,0.041
0.048,0.038
0.050,0.039
0.046,0.037
0.047,0.038
0.048,0.040
0.046,0.038
0.046,0.036
0.045,0.037
0.045,0.037
0.047,0.038
0.047,0.036
0.046,0.037
0.047,0.037
0.050,0.034
0.048,0.035
0.049,0.034
0.046,0.032
0.047,0.026
0.049,0.027
0.050,0.026
0.052,0.026
0.051,0.023
0.050,0.023
0.050,0.021
0.051,0.023
0.050,0.024
0.052,0.019
0.049,0.023
0.052,0.017
0.051,0.019
0.052,0.015
0.048,0.017
0.049,0.011
0.049,0.013
0.049,0.009
0.049,0.013
0.049,0.012
0.049,0.014
0.048,0.012
0.049,0.013
0.050,0.008
0.052,0.010
0.050,0.010
0.053,0.012
0.051,0.008
0.053,0.007
0.050,0.006
0.050,0.003
0.048,0.007
0.049,0.002
0.049,0.006
0.050,0.004
0.051,0.005
0.050,0.003
0.055,0.002
0.053,0.002
0.053,0.002
0.052,0.001
0.051,-0.001
0.050,-0.001
0.049,-0.003
0.051,-0.003
0.049,-0.003
0.049,-0.000
0.049,-0.001
0.049,-0.001
0.048,0.000
0.049,-0.003
0.051,-0.001
0.048,-0.003
0.049,0.000
0.049,-0.001
0.053,-0.001
0.051,-0.002
0.050,-0.002
0.049,0.001
0.047,0.000
0.045,0.002
0.045,0.002
0.046,0.005
0.047,0.003
0.051,0.004
0.048,0.003
0.045,0.001
0.044,0.005
0.046,0.003
0.045,0.007
0.047,0.005
0.046,0.011
0.043,0.008
0.044,0.010
0.042,0.010
0.047,0.011
0.047,0.010
0.048,0.011
0.047,0.013
0.046,0.012
0.045,0.014
0.046,0.015
0.045,0.017
0.044,0.016
0.046,0.016
0.044,0.016
0.048,0.014
0.045,0.016
0.046,0.015
0.046,0.018
0.045,0.017
0.047,0.017
0.043,0.020
0.047,0.018
0.044,0.022
0.043,0.024
0.045,0.028
0.043,0.028
0.045,0.027
0.046,0.029
0.046,0.030
0.044,0.036
0.049,0.030
0.047,0.031
0.049,0.032
0.044,0.035
0.047,0.033
0.045,0.036
0.048,0.037
0.043,0.040
0.046,0.038
0.043,0.039
0.043,0.039
0.046,0.039
0.046,0.037
0.044,0.037
0.045,0.040
0.050,0.038
0.043,0.040
0.045,0.039
0.043,0.039
0.043,0.038
0.044,0.038
0.042,0.041
0.045,0.041
0.044,0.043
0.041,0.042
0.042,0.047
0.042,0.044
0.042,0.045
0.041,0.046
0.043,0.043
0.043,0.040
0.046,0.042
0.045,0.041
0.044,0.039
0.045,0.045
0.043,0.043
0.044,0.044
0.043,0.045
0.043,0.046
0.041,0.045
0.047,0.045
0.044,0.045
0.046,0.046
0.048,0.043
0.047,0.044
0.046,0.045
0.049,0.044
0.044,0.044
0.048,0.039
0.045,0.041
0.047,0.040
0.047,0.040
0.048,0.038
0.049,0.040
0.047,0.039
0.048,0.037
0.046,0.038
0.049,0.036
0.049,0.035
0.049,0.034
0.050,0.032
0.050,0.030
0.051,0.028
0.051,0.032
0.053,0.028
0.049,0.032
0.049,0.028
0.050,0.028
0.049,0.024
0.050,0.024
0.047,0.023
0.053,0.025
0.050,0.021
0.051,0.023
0.049,0.018
0.054,0.019
0.051,0.015
0.052,0.014
0.051,0.013
0.054,0.009
0.053,0.010
0.055,0.009
0.052,0.010
0.049,0.007
0.051,0.011
0.049,0.008
0.050,0.010
0.049,0.008
0.049,0.007
0.050,0.005
0.048,0.007
0.050,0.005
0.052,0.003
0.049,0.002
0.054,0.003
0.049,0.000
0.054,0.000
0.050,0.001
0.050,0.000
0.050,0.006
0.050,0.002
0.051,0.003
0.049,0.002
0.052,0.003
0.051,-0.000
0.055,0.000
0.051,0.001
0.051,-0.001
0.050,0.000
0.049,-0.003
0.051,-0.002
0.049,-0.003
0.051,-0.000
0.051,-0.002
0.054,-0.003
0.054,-0.001
0.054,-0.004
0.052,-0.001
0.050,-0.004
0.050,-0.001
0.047,-0.004
0.050,-0.002
0.048,-0.002
0.050,-0.003
0.051,-0.000
0.050,-0.001
0.050,0.001
0.048,-0.001
0.049,0.003
0.049,0.002
0.047,0.004
0.048,0.002
0.050,0.005
0.049,0.001
0.050,0.001
0.048,0.005
0.052,0.004
0.046,0.009
0.048,0.007
0.049,0.011
0.048,0.010
0.050,0.010
0.047,0.009
0.049,0.009
0.047,0.009
0.047,0.010
0.046,0.013
0.048,0.015
0.046,0.015
0.048,0.013
0.049,0.014
0.049,0.013
0.050,0.014
0.049,0.013
0.050,0.016
0.049,0.015
0.049,0.016
0.050,0.018
0.048,0.023
0.046,0.020
0.047,0.023
0.044,0.023
0.046,0.027
0.047,0.028
0.049,0.030
0.044,0.027
0.048,0.031
0.047,0.030
0.049,0.031
0.047,0.031
0.051,0.033
0.048,0.032
0.049,0.033
0.046,0.034
0.048,0.033
0.045,0.039
0.047,0.037
0.043,0.038
0.044,0.040
0.048,0.040
0.046,0.039
0.050,0.042
0.044,0.038
0.046,0.038
0.046,0.039
0.047,0.041
0.045,0.041
0.045,0.042
0.043,0.046
0.042,0.043
0.043,0.046
0.044,0.044
0.047,0.045
0.047,0.046
0.046,0.044
0.047,0.047
0.046,0.047
0.047,0.045
0.045,0.043
0.045,0.042
0.045,0.043
0.047,0.043
0.047,0.044
0.048,0.047
0.047,0.044
0.049,0.045
0.046,0.048
0.047,0.048
0.050,0.049
0.048,0.046
0.048,0.048
0.046,0.045
0.049,0.046
0.049,0.041
0.047,0.046
0.046,0.047
0.049,0.043
0.045,0.043
0.046,0.040
0.047,0.041
0.049,0.037
0.049,0.039
0.051,0.035
0.053,0.036
0.051,0.036
0.053,0.034
0.050,0.037
0.051,0.035
0.049,0.036
0.051,0.034
0.051,0.031
0.051,0.030
0.052,0.030
0.050,0.031
0.055,0.027
0.051,0.029
0.050,0.028
0.054,0.029
0.049,0.026
0.049,0.028
0.049,0.025
0.049,0.026
0.050,0.025
0.050,0.022
0.052,0.021
0.051,0.020
0.052,0.017
0.050,0.019
0.049,0.013
0.048,0.014
0.051,0.013
0.050,0.013
0.051,0.011
0.051,0.015
0.053,0.010
0.054,0.012
0.052,0.008
0.052,0.008
0.050,0.007
0.051,0.003
0.050,0.007
0.050,0.004
0.050,0.009
0.048,0.004
0.050,0.006
0.049,0.004
0.050,0.005
0.052,0.004
0.053,-0.000
0.053,0.004
0.052,0.002
0.051,0.004
0.051,0.002
0.051,0.002
0.049,-0.002
0.051,-0.002
0.051,-0.006
0.050,-0.002
0.050,-0.003
0.051,-0.001
0.050,0.000
0.053,-0.003
0.049,0.000
0.051,-0.003
0.054,0.000
0.052,-0.004
0.055,-0.003
0.051,-0.003
0.054,-0.002
0.051,0.000
0.050,-0.000
0.048,0.002
0.050,0.000
0.045,0.003
0.047,0.001
0.047,0.003
0.047,0.004
0.048,0.003
0.047,0.008
0.047,0.006
0.047,0.009
0.045,0.008
0.046,0.010
0.046,0.009
0.048,0.007
0.048,0.009
0.050,0.011
0.050,0.011
0.050,0.012
0.047,0.012
0.046,0.013
0.046,0.013
0.045,0.010
0.043,0.016
0.045,0.015
0.047,0.016
0.044,0.015
0.048,0.017
0.045,0.016
0.048,0.018
0.046,0.015
0.049,0.018
0.046,0.015
0.045,0.018
0.045,0.019
0.046,0.024
0.046,0.025
0.044,0.027
0.045,0.026
0.044,0.028
0.046,0.027
0.045,0.028
0.047,0.029
0.046,0.031
0.046,0.034
0.044,0.034
0.045,0.036
0.042,0.034
0.045,0.039
0.044,0.039
0.045,0.040
0.046,0.038
0.045,0.039
0.045,0.040
0.045,0.041
0.046,0.039
0.044,0.042
0.047,0.039
0.046,0.041
0.048,0.042
0.045,0.041
0.043,0.042
0.042,0.040
0.042,0.041
0.042,0.040
0.045,0.046
0.045,0.042
0.046,0.046
0.045,0.046
0.046,0.044
0.045,0.049
0.048,0.047
0.043,0.049
0.045,0.045
0.045,0.046
0.044,0.042
0.046,0.046
0.044,0.041
0.043,0.046
0.044,0.048
0.046,0.047
0.044,0.050
0.044,0.050
0.044,0.048
0.045,0.049
0.046,0.047
0.047,0.047
0.049,0.045
0.051,0.045
0.049,0.043
0.051,0.045
0.052,0.042
0.049,0.045
0.049,0.045
0.046,0.041
0.048,0.040
0.049,0.042
0.050,0.038
0.049,0.039
0.052,0.040
0.048,0.037
0.048,0.040
0.048,0.036
0.048,0.038
0.049,0.036
0.047,0.036
0.047,0.034
0.052,0.035
0.048,0.032
0.050,0.031
0.049,0.030
0.048,0.028
0.047,0.030
0.047,0.030
0.047,0.030
0.047,0.028
0.048,0.027
0.050,0.028
0.050,0.027
0.051,0.022
0.050,0.022
0.050,0.018
0.053,0.020
0.049,0.017
0.050,0.018
0.048,0.016
0.051,0.016
0.048,0.014
0.053,0.013
0.051,0.012
0.051,0.012
0.051,0.010
0.052,0.010
0.051,0.007
0.049,0.005
0.051,0.010
0.049,0.009
0.051,0.009
0.050,0.008
0.050,0.007
0.048,0.004
0.051,0.007
0.051,0.003
0.054,0.005
0.052,0.008
0.057,0.005
0.051,0.007
0.052,0.004
0.050,0.006
0.050,0.000
0.054,0.002
0.053,-0.003
0.056,-0.000
0.052,0.000
0.052,-0.002
0.050,0.002
0.050,-0.000
0.049,0.001
0.047,0.001
0.048,0.000
0.049,0.000
0.051,0.000
0.051,-0.003
0.048,-0.005
0.050,-0.000
0.049,-0.000
0.049,0.003
0.047,0.002
0.048,0.004
0.046,0.004
0.049,0.003
0.050,0.002
0.047,0.003
0.049,0.002
0.050,0.002
0.050,0.007
0.047,0.005
0.049,0.008
0.049,0.008
0.048,0.008
0.048,0.007
0.051,0.009
0.048,0.008
0.048,0.009
0.043,0.010
0.046,0.011
0.044,0.014
0.044,0.013
0.046,0.015
0.044,0.012
0.049,0.015
0.044,0.012
0.047,0.015
0.046,0.018
0.046,0.017
0.044,0.020
0.044,0.019
0.044,0.018
0.047,0.019
0.041,0.018
0.045,0.020
0.039,0.024
0.042,0.023
0.041,0.029
0.041,0.027
0.044,0.030
0.041,0.031
0.040,0.033
0.040,0.033
0.041,0.035
0.042,0.036
0.042,0.037
0.041,0.035
0.041,0.037
0.039,0.034
0.042,0.037
0.038,0.038
0.043,0.038
0.041,0.036
0.042,0.040
0.040,0.038
0.042,0.039
0.043,0.042
0.043,0.038
0.045,0.043
0.044,0.042
0.046,0.046
0.046,0.043
0.044,0.043
0.042,0.041
0.043,0.043
0.042,0.040
0.043,0.046
0.043,0.044
0.044,0.046
0.042,0.047
0.045,0.049
0.044,0.049
0.046,0.046
0.045,0.048
0.043,0.044
0.046,0.047
0.043,0.046
0.046,0.042
0.044,0.044
0.045,0.044
0.044,0.049
0.044,0.048
0.044,0.050
0.043,0.051
0.047,0.052
0.047,0.049
0.046,0.048
0.048,0.045
0.046,0.047
0.049,0.044
0.046,0.044
0.045,0.044
0.046,0.045
0.047,0.045
0.047,0.043
0.049,0.043
0.049,0.039
0.047,0.038
0.048,0.038
0.049,0.037
0.045,0.041
0.047,0.037
0.048,0.040
0.045,0.036
0.050,0.035
0.049,0.033
0.052,0.033
0.050,0.035
0.050,0.030
0.047,0.034
0.049,0.030
0.048,0.032
0.048,0.030
0.050,0.030
0.049,0.027
0.052,0.027
0.051,0.025
0.055,0.023
0.050,0.022
0.051,0.022
0.049,0.019
0.051,0.022
0.050,0.015
0.052,0.016
0.050,0.012
0.050,0.014
0.051,0.015
0.049,0.011
0.049,0.015
0.047,0.011
0.046,0.013
0.049,0.008
0.047,0.010
0.049,0.007
0.050,0.006
0.048,0.006
0.049,0.007
0.047,0.004
0.051,0.005
0.051,0.001
0.049,0.003
0.049,0.001
0.049,0.003
0.046,0.004
0.047,0.004
0.047,0.002
0.048,0.002
0.049,0.002
0.052,-0.002
0.051,0.001
0.052,-0.004
0.053,-0.005
0.052,-0.003
0.051,-0.005
0.047,-0.002
0.049,-0.003
0.045,0.001
0.047,-0.001
0.047,-0.001
0.048,-0.002
0.050,-0.000
0.050,0.002
0.051,0.000
0.049,0.002
0.049,-0.001
0.048,0.002
0.047,-0.000
0.050,-0.000
0.045,-0.002
0.051,-0.002
0.047,0.000
0.047,0.000
0.045,0.004
0.046,0.001
0.046,0.007
0.043,0.007
0.045,0.008
0.044,0.007
0.046,0.008
0.046,0.008
0.048,0.007
0.048,0.009
0.048,0.009
0.045,0.009
0.047,0.012
0.043,0.013
0.044,0.014
0.043,0.016
0.043,0.015
0.042,0.015
0.043,0.016
0.043,0.013
0.041,0.013
0.043,0.015
0.040,0.016
0.044,0.018
0.037,0.019
0.040,0.020
0.040,0.021
0.043,0.017
0.041,0.022
0.043,0.022
0.040,0.023
0.043,0.022
0.040,0.027
0.040,0.027
0.041,0.028
0.044,0.030
0.041,0.026
0.043,0.032
0.043,0.031
0.046,0.031
0.044,0.031
0.047,0.031
0.047,0.032
0.047,0.031
0.048,0.036
0.045,0.034
0.047,0.038
0.046,0.039
0.046,0.037
0.043,0.042
0.044,0.039
0.045,0.043
0.044,0.041
0.045,0.041
0.042,0.039
0.047,0.040
0.046,0.041
0.046,0.038
0.044,0.040
0.045,0.039
0.041,0.047
0.041,0.045
0.043,0.045
0.041,0.047
0.046,0.047
0.043,0.046
0.045,0.046
0.046,0.048
0.047,0.047
0.047,0.049
0.044,0.047
0.045,0.050
0.044,0.047
0.043,0.047
0.043,0.049
0.049,0.048
0.044,0.046
0.045,0.049
0.047,0.050
0.045,0.052
0.041,0.052
0.044,0.050
0.044,0.049
0.047,0.048
0.048,0.045
0.049,0.041
0.050,0.044
0.048,0.043
0.049,0.039
0.049,0.043
0.051,0.038
0.049,0.041
0.049,0.038
0.049,0.040
0.048,0.038
0.050,0.039
0.049,0.037
0.050,0.036
0.049,0.036
0.050,0.036
0.050,0.036
0.050,0.035
0.049,0.034
0.047,0.034
0.049,0.032
0.048,0.030
0.049,0.029
0.050,0.025
0.050,0.025
0.049,0.024
0.045,0.024
0.050,0.024
0.048,0.023
0.050,0.023
0.050,0.023
0.051,0.023
0.051,0.018
0.053,0.020
0.050,0.018
0.050,0.018
0.051,0.014
0.049,0.013
0.050,0.011
0.048,0.011
0.046,0.011
0.046,0.011
0.050,0.010
0.048,0.010
0.049,0.009
0.049,0.009
0.052,0.005
0.050,0.004
0.052,0.008
0.051,0.002
0.049,0.005
0.051,0.003
0.052,0.005
0.050,0.001
0.052,0.004
0.049,-0.001
0.052,-0.001
0.051,0.001
0.052,-0.001
0.052,-0.001
0.052,-0.003
0.053,-0.001
0.049,-0.002
0.053,-0.003
0.050,-0.005
0.047,-0.006
0.047,-0.001
0.048,-0.001
0.046,0.000
0.047,0.000
0.048,-0.001
0.049,-0.002
0.049,-0.002
0.050,-0.003
0.051,-0.002
0.049,-0.001
0.048,-0.004
0.048,0.003
0.045,0.001
0.046,0.000
0.044,0.002
0.045,-0.001
0.046,0.001
0.045,-0.002
0.047,0.002
0.046,0.003
0.047,0.003
0.045,0.004
0.044,0.008
0.043,0.007
0.045,0.007
0.043,0.005
0.046,0.010
0.045,0.007
0.046,0.010
0.046,0.008
0.045,0.010
0.046,0.011
0.046,0.011
0.044,0.011
0.047,0.011
0.043,0.015
0.046,0.011
0.045,0.015
0.046,0.012
0.045,0.014
0.047,0.015
0.045,0.017
0.044,0.020
0.045,0.018
0.045,0.019
0.047,0.016
0.043,0.019
0.047,0.019
0.043,0.024
0.043,0.022
0.042,0.027
0.045,0.030
0.043,0.030
0.042,0.028
0.044,0.030
0.045,0.031
0.044,0.031
0.046,0.029
0.041,0.032
0.045,0.030
0.044,0.034
0.044,0.033
0.043,0.038
0.041,0.035
0.046,0.037
0.044,0.033
0.049,0.034
0.046,0.036
0.047,0.035
0.045,0.041
0.046,0.042
0.040,0.041
0.045,0.042
0.044,0.039
0.045,0.039
0.047,0.039
0.048,0.036
0.046,0.039
0.048,0.039
0.049,0.041
0.048,0.043
0.049,0.044
0.045,0.043
0.047,0.041
0.046,0.043
0.049,0.042
0.049,0.042
0.048,0.042
0.048,0.040
0.048,0.043
0.049,0.041
0.048,0.044
0.049,0.042
0.045,0.046
0.048,0.044
0.051,0.048
0.050,0.044
0.053,0.044
0.050,0.044
0.049,0.042
0.048,0.045
0.048,0.041
0.046,0.041
0.045,0.042
0.049,0.043
0.045,0.039
0.049,0.042
0.049,0.039
0.051,0.041
0.050,0.040
0.049,0.042
0.048,0.042
0.049,0.038
0.045,0.038
0.048,0.037
0.047,0.037
0.049,0.033
0.051,0.036
0.050,0.032
0.051,0.033
0.047,0.033
0.050,0.029
0.048,0.028
0.051,0.025
0.051,0.027
0.048,0.025
0.051,0.024
0.049,0.025
0.054,0.023
0.054,0.021
0.054,0.020
0.054,0.016
0.053,0.015
0.054,0.013
0.054,0.012
0.055,0.011
0.054,0.010
0.055,0.007
0.054,0.010
0.055,0.008
0.055,0.006
0.052,0.010
0.053,0.008
0.050,0.009
0.053,0.007
0.049,0.010
0.051,0.008
0.051,0.009
0.051,0.006
0.052,0.006
0.052,0.005
0.052,0.001
0.051,0.004
0.052,-0.000
0.049,0.004
0.050,0.004
0.052,0.003
0.054,0.003
0.054,0.001
0.054,0.001
0.054,0.001
0.055,-0.003
0.054,-0.001
0.055,-0.003
0.052,-0.003
0.051,0.002
0.049,-0.005
0.051,-0.002
0.048,-0.005
0.052,-0.002
0.050,-0.003
0.051,-0.006
0.049,-0.003
0.050,-0.004
0.050,0.000
0.050,-0.004
0.050,-0.002
0.048,-0.004
0.051,-0.000
0.049,-0.002
0.051,0.000
0.049,-0.000
0.048,-0.000
0.047,0.002
0.046,0.002
0.043,0.003
0.046,0.002
0.046,0.005
0.049,0.001
0.047,0.004
0.048,0.006
0.047,0.005
0.047,0.007
0.047,0.010
0.045,0.012
0.045,0.011
0.046,0.010
0.048,0.011
0.048,0.011
0.049,0.009
0.048,0.013
0.050,0.011
0.050,0.011
0.049,0.015
0.049,0.012
0.047,0.019
0.048,0.018
0.047,0.018
0.043,0.018
0.048,0.018
0.044,0.017
0.048,0.017
0.046,0.017
0.048,0.018
0.049,0.020
0.043,0.023
0.047,0.024
0.045,0.024
0.046,0.026
0.045,0.031
0.045,0.031
0.043,0.030
0.044,0.031
0.045,0.033
0.046,0.032
0.048,0.032
0.048,0.035
0.046,0.032
0.047,0.035
0.048,0.036
0.049,0.038
0.046,0.038
0.046,0.040
0.045,0.040
0.046,0.040
0.045,0.039
0.046,0.040
0.046,0.038
0.047,0.038
0.046,0.038
0.046,0.036
0.046,0.040
0.045,0.041
0.042,0.043
0.042,0.041
0.041,0.043
0.043,0.041
0.047,0.046
0.044,0.043
0.048,0.046
0.046,0.044
0.047,0.043
0.045,0.047
0.046,0.043
0.046,0.048
0.043,0.045
0.045,0.045
0.044,0.044
0.048,0.047
0.045,0.044
0.047,0.047
0.045,0.049
0.046,0.047
0.042,0.050
0.041,0.049
0.043,0.047
0.046,0.048
0.045,0.045
0.047,0.043
0.049,0.040
0.049,0.044
0.049,0.041
0.046,0.043
0.047,0.040
0.045,0.040
0.047,0.040
0.050,0.039
0.048,0.037
0.052,0.038
0.050,0.036
0.048,0.034
0.047,0.037
0.048,0.033
0.046,0.037
0.048,0.035
0.050,0.034
0.050,0.033
0.051,0.033
0.050,0.030
0.052,0.029
0.052,0.030
0.054,0.029
0.051,0.030
0.050,0.030
0.048,0.030
0.052,0.026
0.046,0.028
0.050,0.023
0.051,0.026
0.050,0.023
0.051,0.022
0.051,0.021
0.050,0.020
0.049,0.016
0.050,0.013
0.049,0.013
0.049,0.016
0.046,0.014
0.051,0.013
0.049,0.011
0.053,0.013
0.051,0.008
0.054,0.007
0.052,0.009
0.053,0.004
0.051,0.008
0.054,0.007
0.051,0.009
0.050,0.007
0.053,0.009
0.049,0.003
0.053,0.005
0.049,0.004
0.053,0.003
0.051,0.005
0.053,0.004
0.050,0.005
0.053,0.002
0.052,0.002
0.054,0.000
0.057,-0.002
0.053,-0.003
0.054,-0.004
0.050,-0.001
0.052,-0.002
0.050,0.000
0.047,-0.002
0.048,0.000
0.046,-0.001
0.049,-0.002
0.051,-0.001
0.048,-0.002
0.050,-0.002
0.050,-0.001
0.050,0.001
0.049,0.002
0.049,0.001
0.049,0.001
0.050,0.004
0.048,0.001
0.049,0.002
0.046,0.003
0.050,0.004
0.050,0.006
0.049,0.008
0.046,0.010
0.047,0.008
0.046,0.011
0.049,0.008
0.051,0.010
0.050,0.008
0.050,0.008
0.050,0.010
0.050,0.010
0.047,0.011
0.049,0.011
0.046,0.015
0.048,0.011
0.047,0.011
0.047,0.013
0.051,0.017
0.050,0.018
0.049,0.016
0.050,0.016
0.047,0.016
0.048,0.017
0.049,0.016
0.049,0.017
0.050,0.016
0.048,0.020
0.049,0.022
0.043,0.025
0.046,0.023
0.041,0.028
0.043,0.028
0.042,0.030
0.045,0.031
0.041,0.034
0.043,0.031
0.044,0.033
0.048,0.036
0.043,0.035
0.047,0.034
0.041,0.036
0.042,0.034
0.045,0.038
0.043,0.034
0.045,0.033
0.044,0.035
0.049,0.036
0.045,0.039
0.047,0.038
0.046,0.040
0.047,0.040
0.047,0.041
0.045,0.040
0.047,0.038
0.048,0.038
0.050,0.040
0.049,0.039
0.047,0.038
0.049,0.043
0.046,0.043
0.047,0.045
0.046,0.042
0.047,0.043
0.046,0.043
0.050,0.044
0.051,0.042
0.050,0.041
0.053,0.042
0.052,0.041
0.047,0.043
0.046,0.040
0.044,0.044
0.044,0.041
0.043,0.046
0.045,0.044
0.048,0.045
0.046,0.042
0.048,0.040
0.044,0.043
0.048,0.043
0.045,0.045
0.049,0.041
0.045,0.043
0.046,0.041
0.048,0.041
0.044,0.040
0.048,0.041
0.046,0.040
0.049,0.036
0.048,0.041
0.045,0.040
0.045,0.040
0.045,0.038
0.046,0.038
0.045,0.036
0.047,0.035
0.047,0.035
0.049,0.034
0.049,0.036
0.046,0.032
0.047,0.032
0.046,0.031
0.049,0.030
0.045,0.029
0.048,0.030
0.047,0.027
0.049,0.027
0.049,0.026
0.048,0.024
0.050,0.023
0.050,0.021
0.051,0.019
0.051,0.015
0.052,0.015
0.053,0.015
0.051,0.014
0.050,0.010
0.050,0.012
0.050,0.011
0.051,0.013
0.049,0.012
0.048,0.014
0.047,0.011
0.049,0.010
0.047,0.010
0.047,0.008
0.047,0.008
0.050,0.005
0.049,0.003
0.048,0.003
0.047,0.002
0.046,0.003
0.044,0.005
0.041,0.004
0.045,0.002
0.045,0.002
0.050,0.002
0.048,-0.001
0.049,0.003
0.048,0.003
0.047,0.002
0.047,0.004
0.048,-0.003
0.048,-0.005
0.049,-0.004
0.046,-0.004
0.045,-0.007
0.046,-0.003
0.047,-0.005
0.048,-0.004
0.049,-0.003
0.050,-0.002
0.044,-0.000
0.047,-0.002
0.045,0.000
0.045,-0.000
0.048,0.000
0.047,-0.002
0.048,-0.000
0.047,-0.002
0.048,-0.002
0.047,0.003
0.045,-0.001
0.045,0.004
0.045,0.000
0.046,0.001
0.046,0.001
0.049,0.002
0.049,0.004
0.050,0.003
0.048,0.003
0.047,0.005
0.044,0.008
0.046,0.004
0.045,0.007
0.044,0.008
0.047,0.008
0.045,0.007
0.049,0.010
0.047,0.007
0.050,0.010
0.045,0.010
0.047,0.014
0.045,0.015
0.046,0.016
0.044,0.017
0.044,0.016
0.045,0.015
0.046,0.017
0.044,0.019
0.048,0.017
0.046,0.019
0.047,0.019
0.046,0.021
0.046,0.022
0.046,0.023
0.043,0.020
0.045,0.025
0.041,0.026
0.048,0.029
0.045,0.029
0.046,0.030
0.043,0.028
0.046,0.030
0.044,0.029
0.044,0.030
0.043,0.032
0.045,0.032
0.043,0.033
0.042,0.034
0.041,0.038
0.043,0.039
0.043,0.038
0.045,0.041
0.044,0.040
0.046,0.036
0.046,0.039
0.045,0.035
0.046,0.039
0.048,0.040
0.047,0.040
0.045,0.042
0.043,0.040
0.045,0.041
0.043,0.042
0.043,0.044
0.045,0.042
0.046,0.043
0.047,0.044
0.045,0.042
0.045,0.043
0.045,0.043
0.045,0.045
0.045,0.041
0.042,0.046
0.045,0.043
0.044,0.045
0.041,0.042
0.046,0.043
0.045,0.044
0.048,0.044
0.044,0.046
0.047,0.046
0.042,0.048
0.043,0.045
0.043,0.048
0.043,0.046
0.047,0.044
0.045,0.041
0.049,0.041
0.046,0.041
0.048,0.040
0.046,0.043
0.048,0.038
0.047,0.040
0.049,0.040
0.051,0.039
0.049,0.038
0.050,0.035
0.049,0.036
0.047,0.033
0.045,0.039
0.046,0.038
0.047,0.035
0.045,0.036
0.049,0.034
0.047,0.031
0.048,0.032
0.048,0.034
0.048,0.029
0.050,0.029
0.046,0.028
0.048,0.030
0.047,0.030
0.048,0.029
0.047,0.029
0.049,0.026
0.049,0.024
0.049,0.023
0.049,0.021
0.048,0.019
0.049,0.017
0.048,0.014
0.049,0.013
0.049,0.014
0.049,0.010
0.051,0.013
0.050,0.009
0.051,0.009
0.050,0.009
0.056,0.007
0.052,0.005
0.053,0.003
0.050,0.005
0.050,0.002
0.047,0.006
0.047,0.003
0.046,0.007
0.047,0.004
0.051,0.006
0.050,0.003
0.050,0.004
0.048,0.002
0.049,0.003
0.049,0.003
0.050,0.004
0.050,0.002
0.052,-0.000
0.053,0.000
0.049,-0.002
0.051,-0.003
0.050,-0.002
0.049,-0.001
0.050,-0.004
0.049,-0.003
0.047,-0.002
0.047,-0.000
0.043,-0.001
0.047,0.000
0.048,0.002
0.047,0.001
0.048,0.000
0.048,-0.000
0.046,-0.000
0.046,0.001
0.046,0.000
0.045,0.003
0.044,0.002
0.045,0.005
0.044,0.003
0.047,0.003
0.045,-0.001
0.044,0.004
0.046,0.003
0.046,0.003
0.043,0.006
0.047,0.006
0.043,0.008
0.045,0.006
0.043,0.010
0.043,0.012
0.049,0.013
0.047,0.012
0.047,0.013
0.046,0.016
0.047,0.016
0.046,0.018
0.046,0.022
0.045,0.021
0.045,0.023
0.047,0.019
0.045,0.014
0.046,0.008
0.047,0.005
0.046,0.010
0.045,0.012
0.045,0.013
0.043,0.014
0.044,0.016
0.042,0.018
0.044,0.017
0.039,0.021
0.041,0.022
0.041,0.023
0.043,0.023
0.045,0.029
0.044,0.030
0.045,0.030
0.044,0.030
0.044,0.031
0.043,0.029
0.041,0.031
0.044,0.032
0.040,0.032
0.044,0.032
0.038,0.035
0.040,0.036
0.042,0.039
0.041,0.035
0.043,0.036
0.042,0.039
0.044,0.038
0.042,0.041
0.046,0.038
0.042,0.040
0.044,0.038
0.041,0.041
0.041,0.039
0.044,0.037
0.041,0.037
0.043,0.039
0.043,0.040
0.038,0.041
0.041,0.045
0.042,0.043
0.041,0.045
0.043,0.045
0.040,0.043
0.040,0.044
0.044,0.044
0.045,0.044
0.044,0.042
0.046,0.045
0.041,0.043
0.041,0.047
0.041,0.046
0.039,0.046
0.042,0.045
0.041,0.046
0.041,0.043
0.044,0.047
0.043,0.045
0.045,0.047
0.044,0.044
0.045,0.046
0.041,0.044
0.045,0.045
0.041,0.042
0.044,0.040
0.045,0.043
0.045,0.038
0.045,0.041
0.044,0.040
0.045,0.036
0.045,0.040
0.045,0.040
0.042,0.039
0.043,0.037
0.045,0.036
0.045,0.036
0.045,0.039
0.047,0.034
0.047,0.032
0.046,0.035
0.047,0.032
0.043,0.036
0.044,0.032
0.045,0.032
0.046,0.028
0.049,0.031
0.045,0.026
0.049,0.027
0.045,0.026
0.048,0.023
0.047,0.022
0.048,0.022
0.051,0.020
0.052,0.021
0.050,0.017
0.049,0.019
0.049,0.017
0.049,0.014
0.048,0.015
0.049,0.010
0.050,0.010
0.049,0.011
0.051,0.013
0.050,0.010
0.051,0.011
0.054,0.009
0.050,0.007
0.054,0.006
0.052,0.006
0.052,0.004
0.052,0.003
0.052,0.004
0.050,0.003
0.050,0.007
0.048,0.003
0.048,0.006
0.046,0.004
0.047,0.004
0.048,0.001
0.051,0.005
0.050,-0.001
0.052,0.001
0.051,-0.002
0.053,-0.001
0.047,-0.000
0.049,-0.003
0.046,-0.001
0.046,0.001
0.046,-0.001
0.047,-0.002
0.051,0.000
0.049,0.001
0.051,0.002
0.049,0.004
0.050,0.001
0.049,0.004
0.048,0.002
0.048,0.002
0.047,0.000
0.049,-0.002
0.048,-0.001
0.049,0.000
0.047,0.002
0.045,0.004
0.046,0.007
0.045,0.008
0.048,0.006
0.046,0.007
0.049,0.008
0.048,0.005
0.049,0.006
0.050,0.006
0.049,0.004
0.051,0.009
0.049,0.008
0.050,0.013
0.049,0.008
0.049,0.011
0.045,0.011
0.049,0.012
0.048,0.012
0.049,0.014
0.048,0.011
0.048,0.011
0.045,0.016
0.047,0.014
0.045,0.020
0.047,0.017
0.045,0.022
0.045,0.019
0.045,0.021
0.044,0.017
0.044,0.022
0.041,0.022
0.042,0.023
0.041,0.023
0.043,0.028
0.044,0.027
0.046,0.031
0.042,0.031
0.043,0.033
0.042,0.032
0.045,0.033
0.042,0.033
0.047,0.033
0.045,0.035
0.047,0.034
0.045,0.033
0.046,0.037
0.044,0.033
0.044,0.033
0.046,0.038
0.043,0.034
0.046,0.041
0.043,0.039
0.045,0.039
0.043,0.038
0.046,0.039
0.045,0.037
0.047,0.039
0.046,0.035
0.046,0.040
0.045,0.038
0.043,0.044
0.041,0.045
0.041,0.047
0.041,0.049
0.044,0.050
0.043,0.046
0.042,0.045
0.046,0.046
0.047,0.045
0.046,0.047
0.047,0.047
0.045,0.045
0.043,0.048
0.044,0.048
0.040,0.050
0.042,0.046
0.045,0.049
0.046,0.045
0.050,0.046
0.047,0.047
0.046,0.045
0.046,0.047
0.046,0.045
0.043,0.048
0.044,0.046
0.047,0.047
0.045,0.043
0.050,0.042
0.046,0.040
0.048,0.038
0.048,0.042
0.049,0.041
0.045,0.042
0.045,0.038
0.045,0.039
0.040,0.036
0.046,0.037
0.044,0.035
0.048,0.032
0.047,0.035
0.049,0.032
0.048,0.034
0.049,0.033
0.045,0.033
0.046,0.029
0.047,0.029
0.047,0.029
0.049,0.027
0.048,0.026
0.050,0.027
0.049,0.023
0.047,0.025
0.047,0.027
0.046,0.024
0.049,0.021
0.049,0.022
0.049,0.022
0.052,0.016
0.049,0.018
0.049,0.014
0.050,0.016
0.049,0.011
0.047,0.012
0.048,0.010
0.045,0.012
0.047,0.013
0.046,0.013
0.051,0.011
0.050,0.009
0.051,0.008
0.049,0.007
0.050,0.004
0.051,0.004
0.052,0.004
0.050,0.005
0.045,0.004
0.047,0.004
0.045,0.004
0.047,0.002
0.047,0.002
0.048,0.002
0.049,0.002
0.049,0.002
0.049,0.000
0.048,0.003
0.048,0.000
0.047,-0.000
0.046,0.000
0.047,-0.002
0.046,-0.003
0.049,-0.002
0.048,-0.004
0.050,-0.002
0.047,0.000
0.050,-0.001
0.045,0.003
0.050,0.002
0.048,0.002
0.047,-0.002
0.048,-0.003
0.046,-0.003
0.048,-0.005
0.046,-0.000
0.049,-0.002
0.043,0.002
0.046,0.000
0.046,0.004
0.045,0.001
0.046,0.000
0.047,0.000
0.046,0.002
0.047,0.007
0.045,0.007
0.047,0.010
0.045,0.006
0.047,0.008
0.045,0.008
0.046,0.008
0.049,0.006
0.048,0.009
0.047,0.010
0.046,0.009
0.049,0.011
0.047,0.011
0.046,0.013
0.045,0.013
0.045,0.014
0.044,0.014
0.047,0.016
0.046,0.015
0.049,0.017
0.048,0.015
0.046,0.016
0.046,0.013
0.047,0.019
0.046,0.019
0.045,0.018
0.042,0.021
0.046,0.019
0.041,0.024
0.042,0.022
0.042,0.026
0.044,0.025
0.043,0.031
0.044,0.032
0.046,0.033
0.043,0.031
0.044,0.033
0.043,0.032
0.042,0.033
0.043,0.034
0.041,0.035
0.040,0.035
0.041,0.039
0.042,0.038
0.044,0.039
0.043,0.036
0.045,0.038
0.042,0.038
0.046,0.036
0.043,0.041
0.043,0.038
0.042,0.039
0.043,0.040
0.044,0.042
0.041,0.040
0.045,0.039
0.045,0.041
0.046,0.043
0.043,0.044
0.046,0.046
0.042,0.049
0.044,0.048
0.044,0.048
0.044,0.049
0.046,0.045
0.047,0.042
0.049,0.042
0.046,0.043
0.045,0.042
0.047,0.045
0.045,0.046
0.041,0.049
0.043,0.048
0.042,0.047
0.043,0.047
0.045,0.048
0.045,0.044
0.047,0.046
0.047,0.045
0.044,0.044
0.049,0.047
0.048,0.042
0.045,0.044
0.048,0.043
0.047,0.045
0.046,0.039
0.049,0.040
0.044,0.038
0.046,0.037
0.044,0.040
0.047,0.037
0.043,0.041
0.045,0.035
0.044,0.037
0.045,0.034
0.049,0.036
0.046,0.032
0.052,0.030
0.048,0.032
0.048,0.029
0.044,0.032
0.048,0.030
0.043,0.032
0.048,0.029
0.046,0.028
0.046,0.025
0.046,0.026
0.044,0.025
0.048,0.024
0.049,0.023
0.048,0.022
0.049,0.020
0.050,0.018
0.050,0.014
0.050,0.015
0.050,0.013
0.050,0.015
0.049,0.012
0.050,0.011
0.048,0.010
0.050,0.011
0.048,0.013
0.051,0.010
0.049,0.012
0.048,0.008
0.048,0.009
0.051,0.007
0.051,0.005
0.049,0.003
0.049,0.003
0.051,0.003
0.047,0.002
0.046,0.004
0.047,0.003
0.046,0.002
0.047,0.003
0.049,0.000
0.048,0.001
0.049,-0.003
0.050,-0.003
0.047,-0.005
0.049,-0.003
0.050,-0.003
0.049,-0.000
0.049,-0.004
0.046,-0.002
0.046,-0.006
0.049,-0.003
0.048,-0.006
0.049,-0.003
0.048,-0.005
0.048,-0.004
0.045,-0.003
0.049,-0.005
0.045,-0.004
0.047,-0.005
0.047,-0.004
0.047,-0.008
0.049,-0.005
0.047,-0.006
0.050,-0.003
0.047,-0.003
0.047,-0.004
0.044,-0.002
0.047,-0.001
0.047,0.001
0.047,-0.000
0.046,0.002
0.045,0.000
0.047,-0.000
0.048,0.002
0.045,0.003
0.045,0.004
0.043,0.003
0.044,0.005
0.046,0.006
0.046,0.005
0.045,0.006
0.046,0.007
0.048,0.008
0.046,0.011
0.046,0.010
0.044,0.013
0.046,0.013
0.046,0.011
0.047,0.015
0.047,0.015
0.049,0.015
0.046,0.013
0.046,0.017
0.043,0.016
0.047,0.018
0.043,0.017
0.044,0.019
0.040,0.020
0.043,0.023
0.042,0.026
0.044,0.024
0.043,0.028
0.044,0.028
0.042,0.029
0.042,0.028
0.046,0.028
0.044,0.029
0.045,0.029
0.041,0.029
0.044,0.033
0.042,0.035
0.039,0.038
0.041,0.036
0.040,0.040
0.039,0.037
0.043,0.040
0.043,0.036
0.046,0.040
0.045,0.037
0.046,0.038
0.043,0.039
0.045,0.037
0.043,0.041
0.041,0.039
0.042,0.041
0.039,0.042
0.040,0.043
0.037,0.043
0.041,0.044
0.042,0.041
0.043,0.042
0.046,0.045
0.047,0.045
0.043,0.047
0.046,0.045
0.047,0.043
0.045,0.043
0.046,0.042
0.044,0.042
0.043,0.042
0.048,0.042
0.044,0.043
0.044,0.046
0.044,0.042
0.047,0.047
0.044,0.042
0.047,0.045
0.046,0.042
0.046,0.044
0.048,0.043
0.045,0.044
0.050,0.044
0.047,0.042
0.046,0.044
0.045,0.039
0.044,0.043
0.045,0.041
0.046,0.043
0.043,0.038
0.049,0.040
0.046,0.039
0.047,0.035
0.047,0.039
0.047,0.036
0.043,0.036
0.045,0.034
0.046,0.033
0.047,0.028
0.051,0.030
0.048,0.028
0.050,0.029
0.048,0.030
0.050,0.028
0.046,0.026
0.047,0.027
0.044,0.027
0.046,0.026
0.046,0.027
0.046,0.025
0.042,0.022
0.044,0.024
0.046,0.021
0.044,0.017
0.043,0.015
0.044,0.015
0.045,0.016
0.046,0.015
0.046,0.016
0.045,0.013
0.049,0.011
0.046,0.009
0.048,0.009
0.045,0.010
0.049,0.008
0.049,0.006
0.050,0.005
0.049,0.008
0.049,0.006
0.046,0.008
0.047,0.004
0.046,0.004
0.047,0.002
0.044,0.002
0.045,0.001
0.046,-0.000
0.050,0.003
0.047,0.002
0.047,0.001
0.048,0.001
0.046,0.002
0.046,-0.003
0.046,-0.005
0.047,-0.005
0.047,-0.005
0.046,-0.004
0.045,-0.005
0.044,-0.002
0.044,-0.002
0.044,-0.002
0.043,-0.004
0.045,0.000
0.045,-0.003
0.047,-0.003
0.045,-0.005
0.047,-0.001
0.045,0.000
0.046,-0.001
0.041,0.000
0.043,-0.001
0.041,-0.001
0.042,-0.000
0.044,-0.001
0.045,-0.002
0.045,0.001
0.049,0.000
0.045,0.001
0.044,0.003
0.044,0.003
0.042,0.003
0.045,0.001
0.043,0.002
0.043,0.004
0.044,0.004
0.044,0.003
0.041,0.004
0.041,0.007
0.042,0.006
0.040,0.010
0.041,0.012
0.040,0.014
0.039,0.013
0.043,0.015
0.039,0.011
0.043,0.011
0.042,0.012
0.043,0.012
0.042,0.015
0.042,0.011
0.041,0.014
0.042,0.010
0.044,0.015
0.042,0.012
0.042,0.018
0.042,0.017
0.040,0.021
0.039,0.021
0.041,0.026
0.043,0.025
0.041,0.028
0.043,0.028
0.041,0.031
0.043,0.028
0.041,0.031
0.042,0.032
0.040,0.034
0.040,0.031
0.040,0.036
0.040,0.034
0.041,0.036
0.039,0.035
0.042,0.036
0.041,0.034
0.045,0.033
0.043,0.038
0.044,0.037
0.044,0.041
0.043,0.039
0.043,0.041
0.041,0.039
0.044,0.039
0.038,0.039
0.043,0.039
0.042,0.040
0.041,0.042
0.040,0.044
0.042,0.042
0.040,0.045
0.042,0.044
0.040,0.045
0.042,0.044
0.041,0.045
0.041,0.043
0.042,0.043
0.042,0.043
0.045,0.044
0.043,0.043
0.043,0.045
0.039,0.047
0.042,0.047
0.040,0.046
0.041,0.044
0.042,0.044
0.042,0.043
0.045,0.046
0.044,0.044
0.044,0.041
0.045,0.044
0.045,0.043
0.042,0.046
0.041,0.042
0.041,0.044
0.045,0.041
0.047,0.042
0.046,0.041
0.048,0.040
0.044,0.042
0.046,0.038
0.042,0.039
0.045,0.036
0.043,0.037
0.046,0.035
0.048,0.036
0.046,0.031
0.047,0.032
0.046,0.033
0.046,0.029
0.041,0.033
0.045,0.029
0.044,0.028
0.043,0.027
0.048,0.025
0.044,0.023
0.047,0.024
0.046,0.025
0.046,0.024
0.047,0.022
0.045,0.023
0.046,0.020
0.046,0.019
0.046,0.016
0.045,0.017
0.046,0.013
0.049,0.015
0.045,0.012
0.046,0.011
0.044,0.015
0.047,0.008
0.043,0.012
0.048,0.008
0.043,0.012
0.045,0.009
0.046,0.008
0.047,0.007
0.048,0.008
0.045,0.005
0.049,0.005
0.047,0.002
0.046,0.002
0.047,0.004
0.044,0.001
0.045,0.007
0.044,0.005
0.044,0.006
0.046,0.004
0.048,0.002
0.049,-0.000
0.050,-0.002
0.050,-0.003
0.050,-0.002
0.048,-0.001
0.048,-0.003
0.046,-0.003
0.047,-0.002
0.049,-0.000
0.048,-0.004
0.048,-0.001
0.048,-0.001
0.049,-0.001
0.049,0.000
0.049,-0.003
0.045,-0.001
0.049,-0.002
0.046,-0.000
0.048,-0.006
0.047,-0.001
0.043,-0.002
0.048,-0.002
0.044,-0.002
0.046,-0.003
0.044,0.004
0.046,0.004
0.042,0.004
0.044,0.003
0.044,0.003
0.044,0.001
0.045,0.002
0.045,0.004
0.043,0.004
0.045,0.005
0.042,0.006
0.043,0.009
0.042,0.009
0.042,0.010
0.041,0.009
0.045,0.011
0.042,0.010
0.042,0.010
0.042,0.013
0.044,0.009
0.043,0.015
0.042,0.012
0.041,0.017
0.041,0.017
0.044,0.019
0.043,0.015
0.046,0.017
0.043,0.016
0.047,0.020
0.041,0.017
0.044,0.021
0.040,0.018
0.044,0.024
0.040,0.023
0.044,0.027
0.039,0.027
0.042,0.030
0.039,0.028
0.041,0.031
0.040,0.030
0.042,0.033
0.043,0.029
0.044,0.032
0.044,0.032
0.043,0.033
0.044,0.035
0.045,0.036
0.042,0.039
0.043,0.039
0.042,0.040
0.042,0.039
0.046,0.039
0.046,0.037
0.046,0.040
0.044,0.036
0.046,0.039
0.043,0.040
0.044,0.038
0.039,0.042
0.040,0.042
0.039,0.045
0.041,0.043
0.042,0.045
0.040,0.045
0.042,0.045
0.039,0.044
0.041,0.044
0.040,0.045
0.043,0.045
0.039,0.048
0.040,0.044
0.042,0.047
0.043,0.044
0.045,0.043
0.043,0.042
0.043,0.045
0.042,0.047
0.041,0.046
0.040,0.051
0.043,0.050
0.040,0.049
0.042,0.049
0.043,0.047
0.043,0.043
0.046,0.046
0.046,0.044
0.046,0.044
0.044,0.045
0.044,0.044
0.045,0.042
0.044,0.041
0.046,0.042
0.044,0.038
0.045,0.041
0.043,0.038
0.045,0.037
0.043,0.040
0.045,0.038
0.043,0.040
0.045,0.036
0.043,0.040
0.043,0.037
0.046,0.036
0.045,0.031
0.049,0.033
0.047,0.032
0.049,0.030
0.044,0.034
0.048,0.031
0.044,0.032
0.046,0.029
0.047,0.029
0.048,0.026
0.046,0.027
0.049,0.025
0.045,0.022
0.045,0.020
0.047,0.019
0.048,0.017
0.046,0.017
0.048,0.014
0.045,0.016
0.046,0.015
0.048,0.016
0.045,0.011
0.049,0.014
0.047,0.010
0.050,0.010
0.049,0.009
0.050,0.007
0.049,0.010
0.049,0.008
0.047,0.005
0.048,0.007
0.047,0.005
0.047,0.004
0.048,0.003
0.048,0.001
0.048,0.002
0.049,0.005
0.049,0.003
0.047,0.003
0.047,0.003
0.049,0.004
0.048,0.003
0.049,0.002
0.049,-0.000
0.050,-0.003
0.049,0.000
0.047,-0.002
0.045,0.001
0.042,-0.003
0.046,-0.000
0.043,-0.003
0.050,-0.001
0.049,-0.003
0.050,-0.006
0.050,-0.003
0.047,-0.002
0.048,0.000
0.049,-0.001
0.044,-0.001
0.046,-0.001
0.043,-0.000
0.046,-0.002
0.048,0.002
0.048,-0.003
0.048,0.000
0.048,0.001
0.046,0.004
0.044,0.005
0.044,0.003
0.042,0.006
0.045,0.003
0.041,0.004
0.043,0.005
0.044,0.005
0.043,0.004
0.045,0.003
0.043,0.008
0.044,0.004
0.043,0.008
0.041,0.008
0.044,0.008
0.041,0.009
0.047,0.011
0.044,0.012
0.047,0.014
0.045,0.016
0.046,0.015
0.044,0.015
0.044,0.015
0.042,0.019
0.042,0.015
0.044,0.020
0.043,0.021
0.042,0.021
0.041,0.021
0.039,0.026
0.042,0.026
0.039,0.028
0.041,0.029
0.040,0.032
0.041,0.030
0.043,0.033
0.043,0.031
0.042,0.034
0.041,0.034
0.043,0.036
0.042,0.030
0.042,0.035
0.039,0.034
0.045,0.036
0.040,0.036
0.045,0.036
0.044,0.036
0.044,0.035
0.044,0.037
0.043,0.034
0.045,0.042
0.043,0.041
0.045,0.042
0.043,0.041
0.044,0.043
0.042,0.040
0.047,0.042
0.043,0.043
0.042,0.042
0.042,0.047
0.043,0.047
0.041,0.047
0.045,0.048
0.044,0.051
0.046,0.049
0.044,0.046
0.043,0.046
0.045,0.047
0.048,0.043
0.048,0.044
0.048,0.045
0.047,0.045
0.043,0.048
0.046,0.045
0.047,0.049
0.047,0.047
0.047,0.047
0.044,0.049
0.043,0.046
0.043,0.050
0.043,0.045
0.045,0.049
0.045,0.044
0.042,0.046
0.042,0.044
0.046,0.045
0.045,0.043
0.049,0.041
0.046,0.042
0.045,0.039
0.045,0.042
0.044,0.041
0.045,0.040
0.046,0.040
0.049,0.040
0.045,0.036
0.049,0.035
0.049,0.037
0.049,0.034
0.046,0.035
0.049,0.034
0.045,0.033
0.048,0.034
0.046,0.033
0.047,0.031
0.045,0.031
0.045,0.030
0.048,0.032
0.046,0.029
0.046,0.030
0.048,0.026
0.049,0.023
0.049,0.021
0.053,0.021
0.047,0.021
0.050,0.020
0.048,0.018
0.048,0.015
0.048,0.016
0.047,0.015
0.047,0.017
0.048,0.016
0.047,0.016
0.048,0.014
0.045,0.014
0.045,0.010
0.041,0.013
0.045,0.008
0.044,0.007
0.047,0.003
0.048,0.004
0.045,0.005
0.048,0.002
0.045,0.007
0.044,0.004
0.041,0.008
0.044,0.006
0.043,0.006
0.045,0.004
0.047,0.004
0.047,0.004
0.049,0.002
0.049,0.002
0.047,-0.001
0.047,0.003
0.046,-0.000
0.047,-0.001
0.044,-0.003
0.049,-0.003
0.047,-0.003
0.047,-0.002
0.045,0.000
0.047,0.000
0.047,0.003
0.046,-0.001
0.044,0.002
0.045,-0.001
0.046,0.000
0.044,-0.002
0.051,-0.000
0.044,-0.002
0.048,-0.001
0.045,0.000
0.045,0.000
0.044,0.003
0.044,0.000
0.044,0.002
0.044,0.003
0.044,0.003
0.043,0.001
0.046,0.002
0.045,0.006
0.043,0.004
0.048,0.008
0.047,0.009
0.046,0.010
0.043,0.011
0.043,0.007
0.043,0.008
0.046,0.009
0.042,0.009
0.042,0.010
0.045,0.010
0.045,0.011
0.047,0.015
0.045,0.017
0.043,0.018
0.041,0.015
0.043,0.016
0.042,0.016
0.041,0.018
0.042,0.017
0.045,0.023
0.044,0.018
0.042,0.021
0.040,0.020
0.043,0.026
0.040,0.025
0.044,0.029
0.038,0.026
0.043,0.030
0.041,0.031
0.044,0.033
0.039,0.034
0.042,0.034
0.041,0.031
0.041,0.031
0.043,0.035
0.043,0.035
0.043,0.039
0.042,0.036
0.042,0.042
0.041,0.041
0.042,0.043
0.042,0.041
0.046,0.043
0.045,0.039
0.046,0.039
0.044,0.039
0.047,0.039
0.039,0.041
0.042,0.040
0.040,0.041
0.043,0.043
0.038,0.046
0.038,0.042
0.041,0.046
0.042,0.044
0.043,0.046
0.043,0.045
0.045,0.046
0.041,0.048
0.043,0.048
0.043,0.046
0.043,0.043
0.042,0.044
0.045,0.040
0.043,0.043
0.041,0.045
0.044,0.045
0.043,0.049
0.044,0.048
0.044,0.050
0.046,0.047
0.044,0.050
0.045,0.049
0.046,0.050
0.047,0.046
0.049,0.045
0.047,0.044
0.049,0.045
0.047,0.047
0.050,0.044
0.047,0.045
0.048,0.039
0.049,0.042
0.048,0.040
0.053,0.040
0.048,0.037
0.049,0.038
0.045,0.040
0.046,0.037
0.045,0.038
0.047,0.038
0.047,0.036
0.049,0.033
0.053,0.033
0.052,0.034
0.052,0.029
0.051,0.032
0.048,0.030
0.047,0.031
0.048,0.029
0.047,0.025
0.046,0.026
0.046,0.026
0.046,0.026
0.049,0.024
0.050,0.022
0.051,0.020
0.049,0.019
0.048,0.021
0.048,0.016
0.048,0.014
0.052,0.013
0.049,0.013
0.049,0.013
0.048,0.012
0.048,0.012
0.049,0.010
0.048,0.013
0.047,0.010
0.050,0.012
0.049,0.009
0.048,0.008
0.048,0.006
0.051,0.005
0.045,0.002
0.050,0.003
0.050,0.005
0.049,0.002
0.049,0.004
0.043,0.004
0.042,0.008
0.036,0.008
0.033,0.006
0.033,0.004
0.041,0.002
0.046,0.002
0.056,0.000
0.061,-0.001
0.064,-0.000
0.062,0.002
0.060,-0.004
0.052,-0.002
0.052,-0.003
0.052,-0.002
0.048,-0.003
0.052,0.001
0.049,-0.001
0.050,-0.002
0.048,0.002
0.050,0.000
0.046,0.000
0.050,0.001
0.048,0.001
0.047,0.000
0.050,0.001
0.047,-0.000
0.047,-0.000
0.046,0.002
0.045,-0.001
0.045,0.006
0.044,0.003
0.043,0.006
0.040,0.005
0.042,0.005
0.042,0.005
0.046,0.008
0.045,0.007
0.047,0.008
0.045,0.010
0.047,0.008
0.043,0.013
0.045,0.009
0.043,0.013
0.044,0.012
0.044,0.015
0.041,0.012
0.046,0.013
0.044,0.011
0.047,0.012
0.046,0.014
0.045,0.015
0.044,0.019
0.048,0.017
0.044,0.019
0.043,0.018
0.039,0.016
0.041,0.016
0.041,0.018
0.043,0.023
0.041,0.023
0.043,0.022
0.042,0.026
0.045,0.027
0.042,0.029
0.043,0.029
0.044,0.031
0.045,0.029
0.045,0.032
0.043,0.029
0.047,0.030
0.043,0.029
0.047,0.029
0.043,0.030
0.047,0.031
0.047,0.031
0.049,0.033
0.047,0.035
0.047,0.038
0.045,0.041
0.046,0.038
0.044,0.042
0.044,0.041
0.044,0.041
0.046,0.039
0.046,0.038
0.044,0.036
0.044,0.038
0.045,0.039
0.044,0.041
0.044,0.041
0.044,0.043
0.042,0.043
0.044,0.042
0.045,0.045
0.045,0.042
0.047,0.045
0.045,0.041
0.046,0.044
0.046,0.041
0.043,0.040
0.045,0.044
0.045,0.041
0.044,0.045
0.042,0.041
0.046,0.043
0.044,0.044
0.049,0.046
0.046,0.043
0.046,0.045
0.046,0.049
0.045,0.045
0.046,0.046
0.045,0.043
0.048,0.043
0.045,0.042
0.050,0.043
0.047,0.042
0.049,0.038
0.049,0.041
0.046,0.039
0.046,0.040
0.045,0.039
0.042,0.041
0.044,0.039
0.047,0.037
0.043,0.037
0.043,0.038
0.045,0.036
0.047,0.036
0.046,0.034
0.046,0.034
0.046,0.031
0.049,0.028
0.050,0.029
0.050,0.025
0.050,0.027
0.050,0.027
0.049,0.027
0.049,0.026
0.047,0.025
0.049,0.025
0.049,0.022
0.049,0.026
0.049,0.020
0.049,0.022
0.049,0.017
0.049,0.018
0.049,0.013
0.047,0.014
0.046,0.013
0.044,0.012
0.046,0.013
0.043,0.013
0.048,0.011
0.047,0.013
0.048,0.010
0.047,0.011
0.048,0.008
0.048,0.007
0.048,0.004
0.048,0.005
0.050,0.004
0.050,0.006
0.047,0.007
0.047,0.005
0.048,0.005
0.049,0.003
0.050,0.004
0.048,0.004
0.052,0.004
0.049,0.004
0.051,0.003
0.047,0.004
0.051,0.002
0.046,0.003
0.047,0.001
0.050,0.001
0.049,-0.002
0.052,-0.002
0.052,0.000
0.051,-0.001
0.048,0.003
0.048,0.002
0.049,0.003
0.049,0.004
0.050,0.002
0.048,-0.000
0.050,-0.003
0.052,-0.003
0.050,0.000
0.050,0.000
0.050,0.002
0.046,0.005
0.048,0.002
0.048,0.003
0.047,0.003
0.049,0.004
0.051,0.004
0.051,0.003
0.049,0.006
0.046,0.009
0.046,0.011
0.050,0.008
0.046,0.010
0.046,0.009
0.043,0.010
0.045,0.009
0.049,0.010
0.046,0.011
0.048,0.008
0.045,0.010
0.048,0.012
0.044,0.014
0.045,0.015
0.041,0.017
0.044,0.014
0.045,0.016
0.044,0.016
0.046,0.016
0.043,0.016
0.045,0.016
0.041,0.018
0.045,0.019
0.042,0.022
0.046,0.018
0.045,0.022
0.042,0.021
0.041,0.022
0.043,0.023
0.039,0.028
0.044,0.027
0.042,0.033
0.043,0.029
0.041,0.033
0.043,0.031
0.043,0.031
0.043,0.030
0.042,0.033
0.042,0.032
0.043,0.034
0.043,0.035
0.043,0.038
0.044,0.036
0.046,0.037
0.044,0.037
0.047,0.041
0.046,0.040
0.047,0.040
0.044,0.041
0.047,0.039
0.046,0.043
0.046,0.044
0.044,0.041
0.044,0.043
0.043,0.044
0.044,0.042
0.043,0.043
0.044,0.043
0.043,0.045
0.043,0.046
0.044,0.046
0.045,0.048
0.043,0.049
0.043,0.046
0.043,0.046
0.046,0.047
0.046,0.043
0.046,0.045
0.045,0.043
0.044,0.045
0.044,0.048
0.042,0.046
0.041,0.050
0.042,0.047
0.043,0.052
0.042,0.047
0.045,0.049
0.046,0.047
0.047,0.047
0.046,0.046
0.048,0.043
0.045,0.048
0.046,0.043
0.046,0.044
0.045,0.041
0.049,0.041
0.045,0.041
0.048,0.041
0.046,0.042
0.048,0.039
0.046,0.041
0.047,0.040
0.046,0.038
0.046,0.036
0.048,0.035
0.049,0.032
0.050,0.031
0.053,0.032
0.050,0.031
0.050,0.031
0.049,0.032
0.047,0.031
0.050,0.031
0.048,0.031
0.048,0.028
0.048,0.028
0.049,0.026
0.046,0.024
0.049,0.021
0.051,0.021
0.049,0.021
0.050,0.020
0.051,0.016
0.049,0.017
0.047,0.013
0.049,0.010
0.049,0.008
0.050,0.010
0.053,0.007
0.051,0.008
0.048,0.010
0.049,0.011
0.044,0.010
0.045,0.010
0.037,0.010
0.036,0.007
0.036,0.010
0.044,0.006
0.049,0.007
0.054,0.004
0.061,0.004
0.060,0.003
0.060,0.001
0.056,0.003
0.054,-0.002
0.051,0.003
0.050,0.003
0.049,0.002
0.049,0.002
0.052,0.001
0.049,-0.001
0.050,-0.001
0.051,0.000
0.048,-0.002
0.049,0.001
0.049,-0.000
0.048,-0.001
0.047,-0.001
0.049,-0.000
0.047,-0.002
0.050,0.000
0.049,-0.001
0.051,-0.002
0.051,-0.001
0.049,-0.000
0.049,-0.002
0.048,-0.001
0.049,0.001
0.051,-0.004
0.047,-0.001
0.049,-0.002
0.048,0.002
0.046,0.002
0.050,0.002
0.048,0.004
0.049,0.004
0.046,0.005
0.047,0.006
0.048,0.007
0.046,0.008
0.048,0.007
0.046,0.008
0.046,0.007
0.044,0.011
0.045,0.009
0.044,0.011
0.044,0.010
0.043,0.012
0.042,0.011
0.046,0.010
0.042,0.011
0.046,0.009
0.045,0.011
0.047,0.010
0.044,0.014
0.044,0.013
0.044,0.018
0.044,0.014
0.044,0.020
0.043,0.019
0.043,0.020
0.044,0.021
0.042,0.022
0.042,0.023
0.041,0.025
0.043,0.026
0.042,0.027
0.045,0.025
0.046,0.029
0.045,0.027
0.047,0.029
0.044,0.031
0.044,0.031
0.043,0.030
0.045,0.034
0.044,0.032
0.045,0.034
0.046,0.033
0.046,0.037
0.045,0.035
0.046,0.036
0.046,0.039
0.048,0.036
0.045,0.042
0.045,0.037
0.045,0.038
0.043,0.040
0.044,0.040
0.043,0.038
0.045,0.040
0.045,0.041
0.043,0.043
0.043,0.044
0.042,0.044
0.041,0.045
0.041,0.046
0.041,0.047
0.042,0.047
0.044,0.049
0.044,0.045
0.047,0.045
0.046,0.044
0.046,0.043
0.044,0.044
0.046,0.045
0.042,0.044
0.043,0.046
0.043,0.047
0.043,0.044
0.042,0.049
0.043,0.045
0.043,0.046
0.043,0.049
0.046,0.045
0.045,0.046
0.046,0.042
0.047,0.042
0.051,0.040
0.049,0.039
0.049,0.038
0.050,0.039
0.047,0.039
0.047,0.037
0.045,0.040
0.044,0.039
0.047,0.037
0.044,0.036
0.049,0.036
0.049,0.033
0.048,0.035
0.048,0.034
0.044,0.031
0.048,0.034
0.048,0.030
0.046,0.033
0.047,0.029
0.048,0.031
0.047,0.027
0.051,0.031
0.048,0.026
0.052,0.028
0.051,0.024
0.050,0.023
0.046,0.024
0.050,0.024
0.050,0.023
0.052,0.020
0.049,0.018
0.050,0.015
0.051,0.018
0.052,0.011
0.047,0.011
0.049,0.008
0.043,0.012
0.040,0.009
0.037,0.012
0.032,0.012
0.039,0.013
0.045,0.010
0.052,0.008
0.057,0.006
0.062,0.007
0.058,0.002
0.059,0.003
0.055,0.002
0.054,0.002
0.050,0.005
0.050,0.003
0.045,0.004
0.046,-0.001
0.047,0.002
0.047,0.002
0.050,0.004
0.048,0.000
0.048,0.003
0.049,0.004
0.049,-0.002
0.048,-0.001
0.049,-0.001
0.047,-0.002
0.045,-0.005
0.049,-0.004
0.047,-0.005
0.046,-0.004
0.049,-0.001
0.045,-0.003
0.049,-0.001
0.050,-0.002
0.050,-0.003
0.048,-0.002
0.048,-0.002
0.045,-0.002
0.044,-0.002
0.040,-0.002
0.036,-0.001
0.036,0.004
0.035,0.001
0.035,0.004
0.042,0.003
0.048,0.002
0.052,0.002
0.055,0.005
0.053,0.004
0.055,0.006
0.054,0.004
0.050,0.005
0.047,0.007
0.046,0.006
0.041,0.006
0.041,0.006
0.039,0.007
0.034,0.002
0.035,0.009
0.038,0.007
0.046,0.008
0.049,0.011
0.056,0.009
0.055,0.013
0.057,0.010
0.051,0.015
0.049,0.013
0.048,0.014
0.045,0.013
0.049,0.015
0.046,0.015
0.046,0.018
0.047,0.015
0.047,0.017
0.044,0.017
0.045,0.020
0.044,0.021
0.042,0.023
0.041,0.023
0.041,0.024
0.036,0.024
0.037,0.027
0.036,0.027
0.037,0.026
0.037,0.030
0.040,0.027
0.041,0.029
0.043,0.030
0.044,0.031
0.047,0.033
0.044,0.036
0.044,0.035
0.043,0.035
0.044,0.036
0.042,0.039
0.041,0.036
0.046,0.038
0.042,0.035
0.044,0.036
0.042,0.036
0.045,0.036
0.041,0.040
0.041,0.038
0.040,0.040
0.040,0.038
0.042,0.040
0.042,0.041
0.041,0.041
0.045,0.044
0.045,0.041
0.043,0.043
0.046,0.043
0.043,0.041
0.046,0.044
0.044,0.043
0.045,0.043
0.046,0.041
0.045,0.039
0.043,0.043
0.043,0.045
0.044,0.043
0.041,0.048
0.044,0.047
0.043,0.047
0.042,0.045
0.046,0.046
0.045,0.041
0.049,0.043
0.046,0.041
0.046,0.042
0.044,0.040
0.045,0.041
0.042,0.043
0.043,0.040
0.040,0.037
0.041,0.036
0.045,0.039
0.047,0.036
0.047,0.036
0.046,0.037
0.046,0.035
0.044,0.036
0.044,0.035
0.042,0.035
0.045,0.035
0.048,0.034
0.051,0.031
0.051,0.029
0.051,0.028
0.049,0.026
0.048,0.032
0.045,0.027
0.046,0.030
0.046,0.026
0.047,0.026
0.045,0.026
0.046,0.027
0.048,0.027
0.048,0.025
0.047,0.023
0.046,0.023
0.049,0.019
0.047,0.018
0.049,0.016
0.047,0.015
0.048,0.016
0.049,0.013
0.049,0.011
0.049,0.010
0.048,0.010
0.048,0.010
0.048,0.010
0.049,0.009
0.049,0.008
0.045,0.007
0.049,0.009
0.049,0.008
0.047,0.006
0.046,0.005
0.049,0.004
0.049,0.005
0.054,0.003
0.053,0.005
0.050,0.003
0.047,0.005
0.045,0.002
0.046,0.005
0.045,0.002
0.050,0.002
0.049,0.000
0.051,0.001
0.051,-0.003
0.050,-0.003
0.047,-0.004
0.048,-0.002
0.045,0.003
0.047,0.001
0.045,0.003
0.048,0.001
0.048,0.000
0.049,-0.001
0.051,0.001
0.052,-0.001
0.050,0.000
0.047,0.002
0.046,0.001
0.042,0.003
0.043,0.000
0.043,0.002
0.045,0.001
0.049,0.001
0.050,0.002
0.054,0.003
0.057,0.006
0.056,0.005
0.054,0.010
0.043,0.006
0.023,0.008
0.000,0.006
-0.058,0.009
-0.116,0.006
-0.154,0.006
-0.163,0.009
-0.144,0.011
-0.097,0.012
-0.039,0.011
0.020,0.012
0.069,0.012
0.105,0.017
0.127,0.016
0.135,0.019
0.139,0.017
0.147,0.019
0.149,0.018
0.158,0.021
0.160,0.016
0.156,0.016
0.141,0.018
0.122,0.021
0.096,0.023
0.070,0.021
0.046,0.024
0.021,0.023
-0.016,0.026
-0.042,0.024
-0.046,0.030
-0.048,0.028
-0.035,0.032
-0.013,0.028
0.004,0.035
0.012,0.034
0.018,0.036
0.034,0.034
0.055,0.032
0.060,0.033
0.065,0.036
0.066,0.035
0.078,0.037
0.084,0.036
0.096,0.037
0.093,0.039
0.090,0.039
0.080,0.042
0.060,0.042
0.055,0.042
0.060,0.042
0.075,0.044
0.091,0.040
0.108,0.042
0.124,0.040
0.130,0.043
0.127,0.045
0.120,0.045
0.108,0.048
0.098,0.049
0.086,0.048
0.075,0.044
0.058,0.045
0.046,0.043
0.036,0.046
0.034,0.046
0.035,0.047
0.036,0.047
0.041,0.049
0.042,0.049
0.054,0.046
0.072,0.050
0.080,0.046
0.078,0.047
0.073,0.048
0.065,0.046
0.051,0.049
0.044,0.045
0.032,0.049
0.020,0.045
0.006,0.048
-0.009,0.047
-0.011,0.048
-0.011,0.045
0.001,0.044
0.004,0.043
0.016,0.041
0.019,0.041
0.024,0.040
0.030,0.043
0.036,0.040
0.054,0.042
0.071,0.037
0.089,0.040
0.094,0.037
0.093,0.035
0.086,0.039
0.076,0.037
0.061,0.034
0.049,0.034
0.034,0.033
0.023,0.030
0.028,0.033
0.018,0.030
-0.019,0.032
-0.045,0.032
-0.049,0.027
-0.035,0.030
-0.016,0.026
-0.002,0.024
0.014,0.023
0.026,0.021
0.044,0.022
0.058,0.021
0.068,0.018
0.074,0.019
0.072,0.014
0.069,0.016
0.068,0.013
0.068,0.014
0.073,0.011
0.071,0.014
0.074,0.010
0.076,0.011
0.078,0.008
0.068,0.010
0.042,0.004
0.023,0.007
0.012,0.004
0.015,0.003
0.022,0.005
0.029,0.005
0.031,0.003
0.034,0.002
0.039,0.004
0.042,0.001
0.053,0.001
0.059,0.001
0.069,-0.002
0.073,-0.003
0.071,-0.003
0.072,-0.003
0.068,-0.003
0.064,-0.003
0.060,-0.004
0.059,-0.005
0.054,-0.006
0.054,-0.006
0.051,-0.006
0.049,-0.007
0.040,-0.004
0.017,-0.002
-0.019,-0.002
-0.094,-0.002
-0.130,-0.001
-0.134,-0.003
-0.102,-0.002
-0.049,-0.004
0.010,-0.004
0.054,-0.005
0.085,-0.003
0.098,-0.000
0.103,-0.002
0.109,0.004
0.115,0.002
0.121,0.005
0.117,0.001
0.117,0.004
0.105,0.000
0.100,-0.000
0.082,0.005
0.063,0.005
0.043,0.007
0.024,0.007
-0.003,0.007
-0.046,0.007
-0.079,0.008
-0.089,0.008
-0.085,0.010
-0.085,0.014
-0.063,0.011
-0.030,0.014
0.003,0.012
0.034,0.016
0.056,0.016
0.074,0.016
0.084,0.015
0.093,0.014
0.107,0.017
0.122,0.016
0.137,0.015
0.131,0.017
0.113,0.017
0.087,0.022
0.064,0.021
0.043,0.025
0.017,0.025
-0.021,0.029
-0.064,0.029
-0.111,0.033
-0.162,0.032
-0.199,0.030
-0.201,0.032
-0.163,0.030
-0.087,0.030
-0.002,0.030
0.065,0.029
0.116,0.036
0.150,0.032
0.169,0.034
0.170,0.037
0.172,0.039
0.163,0.041
0.158,0.042
0.149,0.043
0.148,0.041
0.150,0.041
0.140,0.043
0.132,0.038
0.114,0.040
0.089,0.039
0.058,0.043
0.025,0.040
-0.009,0.043
-0.028,0.040
-0.033,0.042
-0.037,0.040
-0.024,0.041
-0.011,0.043
0.014,0.042
0.036,0.045
0.066,0.043
0.085,0.045
0.106,0.041
0.118,0.041
0.115,0.040
0.115,0.043
0.108,0.044
0.106,0.048
0.097,0.050
0.090,0.048
0.078,0.049
0.066,0.048
0.048,0.047
0.036,0.048
0.028,0.046
0.020,0.044
0.014,0.042
0.009,0.040
0.012,0.038
0.018,0.036
0.024,0.039
0.035,0.039
0.043,0.040
0.051,0.041
0.064,0.038
0.078,0.039
0.088,0.036
0.089,0.036
0.088,0.039
0.087,0.036
0.083,0.036
0.081,0.034
0.079,0.036
0.076,0.034
0.077,0.037
0.074,0.032
0.076,0.031
0.069,0.034
0.066,0.030
0.058,0.031
0.055,0.028
0.051,0.028
0.049,0.026
0.047,0.026
0.044,0.025
0.045,0.022
0.041,0.019
0.041,0.019
0.038,0.015
0.041,0.017
0.041,0.012
0.045,0.014
0.044,0.012
0.043,0.017
0.030,0.011
0.019,0.013
0.003,0.010
-0.021,0.009
-0.035,0.009
-0.036,0.008
-0.027,0.010
-0.013,0.005
0.008,0.010
0.029,0.008
0.049,0.009
0.063,0.006
0.074,0.007
0.083,0.006
0.089,0.006
0.087,0.005
0.086,0.006
0.079,0.005
0.077,0.003
0.068,0.005
0.058,0.003
0.036,0.005
0.026,-0.002
-0.015,-0.001
-0.081,-0.005
-0.117,-0.003
-0.122,-0.004
-0.096,-0.004
-0.055,-0.003
-0.013,-0.004
0.021,-0.002
0.039,-0.003
0.042,-0.001
0.059,-0.001
0.079,0.000
0.108,-0.000
0.125,0.002
0.119,0.001
0.103,-0.002
0.082,0.002
0.063,0.000
0.053,0.002
0.057,0.000
0.060,0.001
0.050,-0.002
0.027,-0.000
-0.017,-0.001
-0.081,0.002
-0.132,0.005
-0.137,0.005
-0.117,0.006
-0.072,0.006
-0.017,0.007
0.036,0.007
0.076,0.010
0.104,0.009
0.119,0.012
0.121,0.009
0.125,0.011
0.126,0.010
0.124,0.012
0.120,0.017
0.115,0.015
0.106,0.017
0.104,0.015
0.098,0.016
0.084,0.013
0.066,0.017
0.048,0.014
0.023,0.014
0.003,0.017
-0.007,0.015
-0.013,0.018
-0.002,0.015
0.012,0.020
0.032,0.016
0.046,0.021
0.064,0.021
0.075,0.025
0.084,0.026
0.089,0.029
0.091,0.029
0.089,0.033
0.094,0.030
0.091,0.030
0.093,0.032
0.091,0.034
0.092,0.032
0.087,0.032
0.079,0.033
0.068,0.035
0.062,0.033
0.061,0.038
0.062,0.036
0.062,0.037
0.061,0.036
0.059,0.037
0.055,0.040
0.053,0.039
0.047,0.040
0.044,0.037
0.045,0.036
0.042,0.036
0.044,0.036
0.043,0.038
0.042,0.038
0.040,0.041
0.040,0.041
0.040,0.047
0.040,0.043
0.040,0.044
0.038,0.045
0.040,0.046
0.039,0.043
0.042,0.044
0.039,0.044
0.040,0.046
0.040,0.048
0.038,0.042
0.037,0.047
0.036,0.044
0.040,0.044
0.036,0.044
0.042,0.045
0.037,0.046
0.035,0.044
0.035,0.049
0.034,0.049
0.032,0.047
0.038,0.046
0.044,0.044
0.065,0.043
0.082,0.043
0.088,0.038
0.082,0.042
0.069,0.038
0.056,0.037
0.041,0.037
0.032,0.036
0.020,0.035
0.017,0.034
0.017,0.036
0.019,0.032
0.026,0.034
0.030,0.033
0.027,0.033
0.028,0.036
0.040,0.032
0.052,0.036
0.032,0.032
0.004,0.030
-0.014,0.029
-0.016,0.030
-0.010,0.026
0.006,0.027
0.021,0.023
0.046,0.023
0.071,0.022
0.102,0.022
0.124,0.021
0.134,0.018
0.131,0.015
0.110,0.016
0.083,0.014
0.053,0.015
0.038,0.011
0.023,0.012
0.018,0.011
0.024,0.009
0.040,0.012
0.061,0.009
0.067,0.014
0.055,0.010
0.042,0.009
0.034,0.007
0.030,0.008
0.024,0.004
0.025,0.006
0.024,0.004
0.028,0.003
0.035,0.008
0.047,0.004
0.065,0.007
0.076,0.006
0.087,0.008
0.089,0.005
0.081,0.006
0.065,0.001
0.049,0.004
0.039,-0.003
0.034,-0.000
0.025,-0.000
0.023,-0.002
0.021,0.000
0.024,-0.003
0.024,0.001
0.026,-0.001
0.033,0.002
0.034,-0.001
0.038,-0.001
0.041,0.001
0.041,-0.001
0.041,-0.001
0.046,0.000
0.040,0.002
0.042,0.002
0.043,0.003
0.045,-0.001
0.049,0.001
0.052,0.001
0.052,0.004
0.053,0.006
0.049,0.003
0.035,0.007
0.007,0.004
-0.025,0.007
-0.042,0.006
-0.048,0.007
-0.078,0.003
-0.061,0.005
-0.042,0.006
-0.025,0.004
-0.011,0.009
-0.026,0.007
-0.025,0.010
-0.012,0.009
-0.010,0.012
0.010,0.013
0.041,0.015
0.062,0.011
0.086,0.014
0.097,0.011
0.109,0.014
0.129,0.015
0.167,0.016
0.211,0.015
0.240,0.017
0.242,0.018
0.216,0.021
0.158,0.021
0.070,0.018
-0.025,0.018
-0.114,0.020
-0.182,0.021
-0.211,0.020
-0.198,0.025
-0.156,0.023
-0.109,0.026
-0.096,0.030
-0.093,0.031
-0.063,0.032
-0.012,0.034
0.049,0.033
0.116,0.035
0.159,0.037
0.191,0.037
0.225,0.037
0.251,0.038
0.257,0.039
0.243,0.040
0.196,0.038
0.129,0.038
0.071,0.041
0.037,0.040
0.011,0.040
-0.009,0.040
-0.027,0.039
-0.039,0.037
-0.045,0.039
-0.044,0.039
-0.051,0.040
-0.058,0.043
-0.057,0.042
-0.052,0.047
-0.039,0.047
-0.028,0.045
-0.010,0.045
0.005,0.045
0.021,0.048
0.043,0.046
0.060,0.045
0.059,0.046
0.044,0.046
0.034,0.045
0.035,0.048
0.030,0.050
0.032,0.051
0.033,0.048
0.032,0.049
0.035,0.050
0.052,0.051
0.072,0.049
0.091,0.049
0.105,0.047
0.110,0.044
0.102,0.046
0.089,0.043
0.034,0.044
-0.033,0.043
-0.062,0.041
-0.047,0.038
-0.007,0.039
0.044,0.037
0.087,0.037
0.115,0.042
0.133,0.041
0.136,0.041
0.134,0.042
0.119,0.038
0.093,0.037
0.063,0.036
0.040,0.035
0.025,0.031
0.023,0.031
0.029,0.030
0.039,0.030
0.055,0.026
0.061,0.026
0.053,0.024
0.039,0.028
0.019,0.026
0.004,0.026
0.001,0.025
-0.017,0.023
-0.042,0.023
-0.052,0.020
-0.047,0.020
-0.024,0.015
0.015,0.017
0.055,0.013
0.085,0.014
0.102,0.010
0.107,0.011
0.102,0.010
0.095,0.011
0.086,0.011
0.082,0.013
0.070,0.011
0.057,0.014
0.041,0.012
0.004,0.012
-0.011,0.010
-0.021,0.009
-0.004,0.004
0.017,0.006
0.037,0.006
0.054,0.002
0.071,0.008
0.088,0.007
0.107,0.009
0.128,0.007
0.152,0.011
0.167,0.004
0.175,0.004
0.168,0.000
0.153,-0.002
0.133,-0.002
0.119,-0.001
0.099,0.001
0.093,-0.005
0.092,-0.004
0.098,-0.007
0.102,-0.004
0.098,-0.003
0.095,-0.004
0.073,0.001
0.053,0.001
0.017,0.005
-0.011,0.001
-0.027,0.001
-0.031,-0.001
-0.028,0.000
-0.018,0.001
-0.005,-0.002
0.028,0.002
0.063,-0.001
0.109,0.004
0.146,0.002
0.167,0.000
0.171,-0.001
0.159,0.001
0.143,-0.001
0.149,0.002
0.169,0.004
0.206,0.003
0.219,0.009
0.187,0.009
0.110,0.009
0.029,0.006
-0.046,0.006
-0.107,0.005
-0.133,0.008
-0.117,0.010
-0.076,0.015
-0.025,0.016
0.022,0.013
0.050,0.016
0.072,0.017
0.079,0.016
0.083,0.015
0.080,0.015
0.074,0.011
0.060,0.013
0.049,0.011
0.046,0.013
0.055,0.012
0.075,0.018
0.091,0.019
0.111,0.018
0.113,0.025
0.098,0.024
0.074,0.026
0.047,0.025
0.022,0.028
0.008,0.026
0.004,0.024
0.006,0.023
0.012,0.023
0.011,0.023
0.011,0.031
0.016,0.034
0.020,0.038
0.029,0.036
0.034,0.037
0.041,0.037
0.042,0.040
0.041,0.037
0.037,0.040
0.033,0.037
0.031,0.040
0.023,0.039
0.017,0.041
0.006,0.040
0.004,0.040
-0.009,0.040
-0.012,0.041
0.004,0.042
0.030,0.040
0.049,0.043
0.064,0.042
0.066,0.045
0.055,0.044
0.040,0.042
0.028,0.043
0.020,0.044
0.017,0.046
0.020,0.044
0.028,0.050
0.041,0.045
0.058,0.047
0.075,0.044
0.094,0.045
0.110,0.042
0.117,0.043
0.118,0.045
0.099,0.045
0.066,0.049
0.029,0.048
-0.017,0.048
-0.051,0.045
-0.079,0.047
-0.112,0.044
-0.110,0.043
-0.090,0.043
-0.056,0.044
-0.021,0.044
0.011,0.043
0.030,0.044
0.050,0.045
0.072,0.046
0.089,0.043
0.067,0.046
0.049,0.040
0.047,0.042
0.047,0.038
0.058,0.040
0.064,0.039
0.081,0.035
0.088,0.039
0.099,0.038
0.097,0.037
0.092,0.037
0.068,0.036
0.034,0.033
-0.001,0.034
-0.035,0.034
-0.047,0.032
-0.037,0.034
0.010,0.030
0.039,0.030
0.061,0.025
0.065,0.023
0.072,0.020
0.087,0.023
0.088,0.018
0.088,0.020
0.082,0.018
0.088,0.017
0.107,0.015
0.137,0.013
0.166,0.012
0.183,0.011
0.179,0.010
0.153,0.011
0.115,0.011
0.083,0.011
0.055,0.012
0.045,0.010
0.047,0.013
0.046,0.008
0.031,0.011
0.013,0.006
-0.001,0.006
-0.034,0.006
-0.062,0.006
-0.077,0.005
-0.069,0.002
-0.060,0.004
-0.041,0.002
-0.016,0.004
-0.002,0.000
-0.009,0.001
-0.005,-0.002
0.013,-0.001
0.040,-0.002
0.064,-0.004
0.063,-0.003
0.061,-0.002
0.052,-0.002
0.033,-0.002
0.010,-0.000
-0.004,0.000
0.003,-0.002
0.029,-0.001
0.062,-0.003
0.109,-0.003
0.153,-0.003
0.179,-0.004
0.181,-0.003
0.157,-0.001
0.120,-0.002
0.113,0.002
0.101,0.004
0.091,0.005
0.101,0.003
0.127,0.006
0.139,0.005
0.129,0.006
0.100,0.008
0.069,0.007
0.032,0.010
-0.004,0.004
-0.041,0.008
-0.062,0.006
-0.058,0.007
-0.038,0.005
0.018,0.006
0.094,0.004
0.171,0.002
0.192,0.006
0.180,0.004
0.148,0.009
0.104,0.009
0.056,0.014
-0.005,0.012
-0.047,0.016
-0.063,0.012
-0.062,0.016
-0.051,0.015
-0.026,0.014
-0.005,0.015
0.016,0.013
0.026,0.017
0.033,0.016
0.036,0.020
0.039,0.022
0.034,0.024
0.030,0.023
0.024,0.024
0.023,0.026
0.020,0.029
0.022,0.028
0.020,0.029
0.023,0.028
0.027,0.030
0.036,0.026
0.047,0.032
0.060,0.028
0.076,0.032
0.089,0.033
0.101,0.037
0.097,0.036
0.083,0.037
0.055,0.035
0.027,0.042
-0.002,0.041
-0.016,0.041
-0.017,0.041
-0.008,0.045
-0.000,0.043
0.010,0.042
0.013,0.040
0.020,0.038
0.024,0.039
0.026,0.036
0.028,0.039
0.030,0.039
0.032,0.044
0.033,0.045
0.037,0.043
0.036,0.048
0.037,0.046
0.036,0.047
0.035,0.044
0.036,0.044
0.036,0.041
0.039,0.046
0.039,0.045
0.035,0.045
0.030,0.051
0.024,0.050
0.024,0.052
0.029,0.048
0.035,0.050
0.037,0.046
0.041,0.043
0.038,0.042
0.038,0.041
0.034,0.042
0.030,0.041
0.026,0.044
0.023,0.044
0.025,0.047
0.025,0.042
0.029,0.042
0.033,0.040
0.044,0.043
0.049,0.041
0.059,0.038
0.037,0.036
0.030,0.036
0.028,0.039
0.026,0.036
0.014,0.037
0.015,0.035
-0.006,0.036
-0.018,0.033
-0.043,0.036
-0.062,0.030
-0.044,0.030
-0.017,0.031
0.024,0.031
0.063,0.033
0.099,0.030
0.124,0.032
0.158,0.030
0.183,0.029
0.194,0.029
0.191,0.027
0.156,0.023
0.121,0.020
0.102,0.014
0.084,0.013
0.057,0.007
0.014,0.010
-0.048,0.007
-0.121,0.007
-0.183,0.007
-0.238,0.005
-0.279,0.005
-0.274,0.003
-0.246,0.003
-0.192,0.004
-0.104,0.004
-0.009,0.007
0.074,0.009
0.143,0.006
0.192,0.010
0.226,0.005
0.241,0.004
0.249,0.002
0.258,0.004
0.286,0.004
0.337,0.007
0.380,0.003
0.397,0.002
0.353,0.005
0.280,0.003
0.197,0.002
0.127,-0.002
0.057,-0.003
-0.013,-0.003
-0.057,-0.005
-0.079,-0.005
-0.076,-0.011
-0.050,-0.009
-0.025,-0.012
0.004,-0.010
0.017,-0.007
0.027,-0.007
0.030,-0.004
0.031,-0.005
0.030,-0.002
0.028,-0.002
0.028,-0.002
0.027,-0.002
0.033,-0.002
0.034,-0.004
0.040,-0.003
0.044,-0.003
0.044,-0.003
0.041,-0.002
0.044,-0.003
0.034,-0.001
0.027,-0.002
0.020,0.004
0.004,-0.004
-0.016,-0.002
-0.032,-0.004
-0.026,0.003
-0.014,0.001
0.001,0.001
0.017,0.003
0.034,0.004
0.047,0.010
0.062,0.007
0.069,0.009
0.075,0.010
0.084,0.009
0.100,0.007
0.103,0.012
0.097,0.010
0.086,0.014
0.063,0.017
0.046,0.019
0.045,0.021
0.054,0.018
0.059,0.020
0.069,0.020
0.069,0.019
0.060,0.020
0.042,0.020
0.024,0.019
0.012,0.020
0.020,0.019
0.041,0.024
0.059,0.024
0.085,0.024
0.097,0.027
0.095,0.027
0.070,0.027
0.042,0.029
0.009,0.030
-0.011,0.029
-0.010,0.027
-0.003,0.029
0.006,0.031
0.012,0.029
0.015,0.031
0.020,0.030
0.020,0.033
0.026,0.035
0.026,0.035
0.034,0.035
0.036,0.037
0.037,0.033
0.040,0.035
0.039,0.036
0.041,0.035
0.052,0.038
0.062,0.036
0.073,0.041
0.080,0.040
0.098,0.042
0.122,0.041
0.144,0.044
0.146,0.041
0.132,0.044
0.092,0.044
0.049,0.040
0.010,0.044
-0.027,0.042
-0.045,0.043
-0.040,0.043
-0.028,0.042
-0.012,0.041
-0.001,0.043
-0.011,0.041
-0.024,0.042
-0.034,0.043
-0.028,0.042
-0.026,0.045
-0.024,0.045
-0.012,0.045
0.018,0.048
0.059,0.047
0.104,0.045
0.140,0.046
0.145,0.041
0.127,0.043
0.106,0.043
0.086,0.041
0.068,0.043
0.044,0.041
0.022,0.041
0.010,0.038
0.006,0.043
0.008,0.039
0.012,0.038
0.023,0.034
0.034,0.031
0.047,0.032
0.075,0.027
0.109,0.030
0.134,0.028
0.143,0.028
0.135,0.027
0.093,0.027
0.026,0.026
-0.027,0.025
-0.063,0.026
-0.071,0.025
-0.053,0.025
-0.030,0.025
0.002,0.023
0.031,0.019
0.058,0.019
0.087,0.014
0.114,0.016
0.132,0.015
0.130,0.017
0.112,0.014
0.082,0.013
0.052,0.007
0.032,0.012
0.017,0.009
0.011,0.010
0.011,0.009
0.018,0.008
0.024,0.004
0.030,0.005
0.031,0.007
0.030,0.003
0.034,0.002
0.032,0.003
0.033,0.004
0.032,0.002
0.033,0.004
0.036,0.002
0.039,0.001
0.041,-0.000
0.048,-0.000
0.049,0.000
0.061,-0.003
0.073,-0.004
0.090,-0.004
0.106,-0.003
0.121,-0.005
0.123,-0.004
0.118,-0.007
0.090,-0.005
0.057,-0.009
0.022,-0.007
-0.007,-0.007
-0.014,-0.005
-0.010,-0.003
0.004,-0.003
0.011,0.000
0.022,-0.005
0.030,-0.002
0.037,-0.007
0.043,-0.004
0.043,-0.005
0.045,-0.006
0.050,-0.006
0.062,-0.008
0.074,-0.004
0.095,-0.007
0.092,-0.001
0.082,-0.002
0.079,-0.003
0.097,-0.002
0.132,-0.002
0.140,-0.001
0.126,-0.002
0.101,0.002
0.063,0.001
0.032,0.004
0.007,0.002
0.006,0.002
0.020,0.005
0.043,0.006
0.052,0.004
0.048,0.006
0.020,0.006
0.001,0.006
-0.022,0.008
-0.035,0.009
-0.033,0.013
-0.014,0.010
-0.002,0.012
0.025,0.011
0.044,0.011
0.056,0.010
0.057,0.011
0.061,0.008
0.058,0.013
0.049,0.011
0.037,0.017
0.020,0.016
0.005,0.017
-0.011,0.019
-0.014,0.021
-0.019,0.021
-0.013,0.023
-0.005,0.021
0.006,0.024
0.013,0.023
0.019,0.028
0.020,0.023
0.033,0.030
0.038,0.030
0.051,0.033
0.055,0.033
0.063,0.033
0.056,0.033
0.046,0.032
0.036,0.038
0.019,0.036
-0.010,0.037
-0.029,0.036
-0.019,0.037
0.004,0.032
0.032,0.036
0.053,0.033
0.067,0.036
0.072,0.036
0.075,0.037
0.077,0.039
0.080,0.038
0.078,0.042
0.078,0.042
0.074,0.044
0.083,0.042
0.095,0.044
0.121,0.043
0.144,0.043
0.163,0.044
0.160,0.044
0.133,0.041
0.085,0.038
0.036,0.041
-0.010,0.041
-0.039,0.045
-0.045,0.044
-0.037,0.043
-0.023,0.045
-0.007,0.043
0.003,0.045
0.013,0.042
0.023,0.044
0.025,0.042
0.031,0.043
0.032,0.042
0.041,0.042
0.041,0.041
0.048,0.038
0.060,0.041
0.073,0.036
0.073,0.040
0.088,0.034
0.117,0.035
0.145,0.031
0.163,0.033
0.147,0.028
0.123,0.028
0.087,0.029
0.052,0.028
0.007,0.030
-0.030,0.027
-0.054,0.029
-0.070,0.023
-0.084,0.026
-0.081,0.026
-0.070,0.024
-0.070,0.024
-0.061,0.026
-0.055,0.025
-0.029,0.023
0.029,0.022
0.089,0.018
0.132,0.016
0.140,0.015
0.117,0.013
0.095,0.012
0.066,0.011
0.050,0.009
0.043,0.011
0.055,0.007
0.069,0.008
0.095,0.009
0.124,0.011
0.153,0.009
0.166,0.009
0.172,0.008
0.159,0.005
0.129,0.005
0.099,0.002
0.069,0.002
0.029,-0.002
-0.000,0.001
-0.019,-0.002
-0.017,0.000
-0.009,-0.001
0.000,0.001
0.007,0.002
0.014,0.003
0.023,0.001
0.025,-0.002
0.032,-0.001
0.031,-0.006
0.040,-0.004
0.054,-0.003
0.070,-0.003
0.101,-0.006
0.102,-0.005
0.097,-0.007
0.079,-0.004
0.059,-0.007
0.047,-0.007
0.026,-0.009
0.014,-0.007
-0.000,-0.007
-0.004,-0.005
-0.001,-0.006
0.010,-0.005
0.015,-0.004
0.026,-0.007
0.033,-0.006
0.032,-0.009
0.036,-0.007
0.036,-0.007
0.036,-0.007
0.022,-0.005
0.004,-0.008
-0.022,-0.004
-0.010,-0.004
-0.010,0.000
-0.023,-0.003
-0.021,-0.001
-0.018,-0.002
-0.005,0.000
0.011,0.001
0.027,0.002
0.048,0.006
0.069,0.003
0.096,0.007
0.129,0.006
0.147,0.005
0.122,0.005
0.096,0.006
0.074,0.004
0.056,0.002
0.043,0.007
0.038,0.005
0.045,0.008
0.058,0.007
0.073,0.008
0.082,0.007
0.088,0.012
0.083,0.008
0.076,0.013
0.065,0.015
0.059,0.015
0.047,0.014
0.048,0.017
0.044,0.018
0.049,0.021
0.046,0.021
0.052,0.020
0.052,0.022
0.054,0.024
0.057,0.022
0.054,0.026
0.050,0.025
0.049,0.025
0.043,0.023
0.044,0.025
0.043,0.023
0.043,0.025
0.042,0.026
0.040,0.027
0.037,0.032
0.037,0.031
0.037,0.036
0.035,0.033
0.036,0.038
0.040,0.037
0.044,0.036
0.041,0.036
0.044,0.036
0.039,0.031
0.039,0.032
0.043,0.035
0.044,0.035
0.047,0.037
0.051,0.037
0.066,0.038
0.092,0.039
0.104,0.040
0.100,0.039
0.085,0.039
0.057,0.038
0.034,0.041
0.014,0.041
-0.016,0.040
-0.047,0.042
-0.053,0.040
-0.041,0.041
-0.015,0.040
0.023,0.043
0.078,0.041
0.137,0.042
0.175,0.045
0.192,0.045
0.181,0.047
0.149,0.042
0.090,0.046
0.018,0.042
-0.039,0.042
-0.097,0.040
-0.122,0.037
-0.115,0.038
-0.109,0.036
-0.105,0.037
-0.090,0.035
-0.065,0.036
-0.032,0.034
0.012,0.036
0.050,0.037
0.081,0.035
0.096,0.032
0.111,0.032
0.099,0.033
0.058,0.029
0.026,0.032
-0.011,0.028
-0.047,0.030
-0.054,0.026
-0.036,0.029
-0.014,0.025
0.023,0.026
0.058,0.021
0.096,0.023
0.119,0.021
0.132,0.020
0.135,0.020
0.119,0.018
0.084,0.017
0.056,0.013
0.046,0.012
0.057,0.013
0.071,0.012
0.089,0.008
0.105,0.010
0.129,0.010
0.139,0.011
0.143,0.011
0.137,0.010
0.114,0.008
0.091,0.008
0.069,0.008
0.051,0.005
0.041,0.000
0.038,0.002
0.036,0.001
0.039,0.001
0.040,-0.001
0.046,-0.003
0.045,-0.002
0.058,-0.003
0.070,-0.002
0.082,-0.002
0.092,-0.003
0.083,-0.005
0.076,-0.003
0.061,-0.002
0.052,-0.005
0.041,-0.001
0.034,-0.006
0.024,-0.006
0.023,-0.009
0.024,-0.008
0.025,-0.010
0.031,-0.008
0.034,-0.008
0.030,-0.008
0.027,-0.003
0.023,-0.010
0.032,-0.006
0.047,-0.008
0.041,-0.007
0.015,-0.007
0.006,-0.010
-0.001,-0.009
0.004,-0.007
0.008,-0.007
0.021,-0.008
0.034,-0.006
0.046,-0.007
0.062,-0.003
0.071,-0.003
0.072,-0.001
0.069,-0.001
0.062,-0.001
0.056,-0.002
0.050,-0.002
0.042,-0.003
0.038,-0.003
0.035,0.000
0.036,-0.003
0.036,0.001
0.045,0.001
0.045,0.004
0.048,0.004
0.046,0.006
0.043,0.003
0.041,0.008
0.042,0.005
0.045,0.007
0.043,0.009
0.029,0.006
-0.003,0.010
-0.033,0.009
-0.072,0.010
-0.107,0.009
-0.127,0.008
-0.140,0.011
-0.113,0.011
-0.083,0.008
-0.067,0.010
-0.036,0.011
0.004,0.012
0.038,0.015
0.070,0.019
0.106,0.021
0.141,0.023
0.170,0.023
0.183,0.026
0.190,0.026
0.164,0.025
0.140,0.024
0.122,0.027
0.114,0.027
0.117,0.028
0.101,0.026
0.083,0.027
0.073,0.029
0.070,0.032
0.067,0.037
0.073,0.039
0.080,0.037
0.088,0.039
0.091,0.036
0.081,0.032
0.069,0.033
0.058,0.032
0.047,0.033
0.041,0.034
0.034,0.035
0.025,0.034
0.021,0.033
0.014,0.035
0.012,0.036
-0.008,0.037
-0.036,0.038
-0.057,0.039
-0.062,0.037
-0.056,0.038
-0.032,0.037
-0.002,0.037
0.031,0.039
0.054,0.039
0.058,0.039
0.065,0.038
0.059,0.039
0.021,0.037
-0.006,0.037
-0.003,0.036
0.016,0.039
0.027,0.037
-0.007,0.038
-0.064,0.040
-0.103,0.041
-0.115,0.042
-0.083,0.040
-0.062,0.040
-0.019,0.037
0.023,0.039
0.046,0.036
0.058,0.037
0.060,0.035
0.074,0.035
0.086,0.036
0.086,0.036
0.067,0.037
0.064,0.034
0.068,0.035
0.081,0.035
0.099,0.033
0.120,0.032
0.140,0.030
0.153,0.031
0.161,0.028
0.161,0.029
0.153,0.029
0.139,0.027
0.091,0.024
0.037,0.023
-0.007,0.021
-0.028,0.021
-0.018,0.020
0.013,0.019
0.051,0.018
0.090,0.020
0.125,0.018
0.146,0.015
0.169,0.014
0.178,0.014
0.169,0.017
0.133,0.011
0.071,0.011
0.025,0.008
0.005,0.010
-0.012,0.004
-0.018,0.006
-0.022,0.004
-0.020,0.005
-0.015,0.004
-0.002,0.004
0.024,0.001
0.054,0.002
0.082,0.001
0.102,0.005
0.125,0.004
0.135,0.007
0.143,0.006
0.152,0.002
0.153,0.001
0.147,-0.001
0.131,-0.002
0.106,-0.007
0.092,-0.003
0.074,-0.007
0.052,-0.007
0.014,-0.005
-0.019,-0.006
-0.033,-0.009
-0.031,-0.013
-0.024,-0.010
-0.010,-0.014
0.006,-0.009
0.017,-0.010
0.036,-0.007
0.045,-0.006
0.055,-0.004
0.060,-0.003
0.067,-0.005
0.090,-0.003
0.113,-0.008
0.151,-0.008
0.167,-0.009
0.144,-0.010
0.108,-0.009
0.062,-0.011
0.022,-0.005
-0.015,-0.007
-0.031,-0.003
-0.020,-0.002
0.025,0.002
0.075,0.002
0.110,0.004
0.124,0.001
0.135,0.001
0.136,0.001
0.117,-0.001
0.116,0.003
0.118,0.002
0.128,0.005
0.105,0.002
0.070,0.003
0.029,-0.003
-0.003,-0.005
-0.035,-0.006
-0.054,-0.003
-0.074,0.006
-0.071,0.007
-0.050,0.016
-0.017,0.013
0.004,0.016
0.020,0.011
0.043,0.013
0.067,0.014
0.089,0.011
0.099,0.014
0.106,0.014
0.100,0.014
0.095,0.016
0.087,0.014
0.084,0.014
0.078,0.015
0.071,0.019
0.064,0.016
0.062,0.021
0.061,0.018
0.049,0.020
0.014,0.025
-0.010,0.026
-0.019,0.032
-0.014,0.031
-0.003,0.030
0.008,0.027
0.015,0.030
0.018,0.027
0.024,0.031
0.030,0.027
0.035,0.032
0.035,0.028
0.038,0.031
0.041,0.033
0.047,0.032
0.044,0.030
0.049,0.034
0.047,0.035
0.050,0.038
0.050,0.044
0.053,0.047
0.044,0.047
0.039,0.044
0.017,0.042
-0.011,0.037
-0.025,0.040
-0.002,0.035
0.054,0.035
0.109,0.036
0.148,0.035
0.159,0.037
0.131,0.040
0.067,0.041
-0.014,0.039
-0.077,0.040
-0.126,0.037
-0.164,0.039
-0.160,0.039
-0.122,0.039
-0.062,0.040
0.006,0.037
0.063,0.042
0.104,0.039
0.133,0.043
0.141,0.044
0.136,0.046
0.125,0.041
0.125,0.040
0.116,0.036
0.088,0.033
0.060,0.033
0.057,0.033
0.059,0.036
0.067,0.035
0.063,0.041
0.054,0.039
0.029,0.039
-0.004,0.034
-0.046,0.035
-0.105,0.034
-0.136,0.034
-0.156,0.035
-0.154,0.029
-0.113,0.030
-0.059,0.029
-0.016,0.027
0.009,0.026
0.028,0.025
0.055,0.023
0.057,0.024
0.064,0.021
0.100,0.023
0.138,0.018
0.170,0.021
0.192,0.022
0.209,0.021
0.204,0.024
0.196,0.020
0.183,0.024
0.166,0.018
0.142,0.018
0.114,0.016
0.084,0.015
0.060,0.012
0.038,0.011
0.026,0.011
0.019,0.007
0.017,0.004
0.013,0.002
0.011,-0.000
0.007,0.000
0.011,0.003
0.014,0.000
0.021,0.002
0.031,0.001
0.045,0.003
0.061,0.002
0.073,0.001
0.076,-0.001
0.073,-0.001
0.063,-0.003
0.056,-0.005
0.052,-0.002
0.045,-0.002
0.042,-0.002
0.040,-0.002
0.043,-0.002
0.043,-0.002
0.042,-0.004
0.036,-0.005
0.030,-0.004
0.016,-0.003
0.014,-0.001
