File Version,253.000000
# of Channels,2.000000
Samples/Channel,10300.000000
Scan Rate (Hz),10000.000000
Timestamp,3807793328.745662
Operating Mode,1.000000
Trial #,29.000000
Session #,26.000000
Subject code 1,82.000000
Subject code 2,88.000000
Feedback Window,0.000000
Feedback Ch,0.000000
Ch B,0.000000
Pre-Stim Acq. time (ms),100.000000
Post-Stim Acq. time (ms),900.000000
EMG Hi Limit,50.000000
EMG Lo Limit,0.000250
Target Value (V),5.000000
Stimulus Value (V),1.009106
Stimulus duration (ms),1.000000
EMG conditions time limit (sec),0.200000
M-response Start (ms),2.000000
M-response Duration (ms),2.000000
H-response Duration (ms),2.000000
H-response Start (ms),5.000000
Proportioanl gain,0.003000
Channel to monitor,0.000000
SIU gain,20.000000
FB Monitor value,0.850567
Inter-Stim delay (sec),5.000000
M-Window Mean,0.898481
H-Window Mean,0.034752
Stimulus paradigm,2.000000
# of Pulses in cond train,1.000000
Cond duration (ms),1.000000
Cond Train pulse period (ms),30.000000
Cond Value (V),1.009106
Start Delay (ms),0.000000
# of Pulses in stim train,1.000000
Stim Train pulse period (ms),30.000000
EMG amp gain ch 1,500.000000
EMG amp gain ch 2,500.000000
EMG amp gain ch 3,1000.000000
EMG amp gain ch 4,1000.000000
EMG amp gain ch 5,1000.000000
EMG amp gain ch 6,1000.000000
Stim Type 1,2.000000
Stim/Cond 1,0.000000
Stim Type 2,3.000000
Stim/Cond 2,0.000000
Stim Type 3,3.000000
Stim/Cond 3,0.000000
Stim Type 4,3.000000
Stim/Cond 4,0.000000
Stim Value 1,1.009106
Stim Value 2,0.000000
Stim Value 3,0.000000
Stim Value 4,0.000000
1st PP Channel,-1.000000
Pressure (g),0.000000
Speed (mm/sec),0.000000
Dwell (ms),0.000000
Pressure limit (g),0.000000
Travel limit (mm),0.000000
Amp gain,0.000000
Wait Trig?,0.000000
Move Timeout (ms),0.000000
Time Taken (ms),0.000000
Actual Travel (mm),0.000000
Recorded Data (mV),
0.045,-0.003
0.047,-0.005
0.047,-0.002
0.048,-0.005
0.045,-0.001
0.047,-0.003
0.045,-0.003
0.048,-0.003
0.046,-0.004
0.047,-0.004
0.046,-0.005
0.047,-0.006
0.047,-0.003
0.049,0.000
0.046,0.000
0.043,0.002
0.045,0.002
0.044,0.005
0.043,0.004
0.047,0.004
0.046,0.004
0.047,0.005
0.046,0.006
0.045,0.006
0.047,0.011
0.048,0.008
0.047,0.010
0.045,0.009
0.047,0.010
0.046,0.010
0.047,0.011
0.042,0.010
0.048,0.010
0.047,0.014
0.043,0.013
0.045,0.018
0.043,0.013
0.046,0.018
0.044,0.017
0.044,0.018
0.043,0.019
0.041,0.022
0.042,0.023
0.040,0.023
0.040,0.021
0.040,0.026
0.045,0.025
0.042,0.030
0.044,0.027
0.046,0.029
0.041,0.030
0.045,0.029
0.044,0.029
0.043,0.031
0.041,0.030
0.041,0.031
0.044,0.031
0.043,0.034
0.043,0.032
0.041,0.034
0.044,0.038
0.043,0.036
0.041,0.037
0.043,0.036
0.043,0.039
0.043,0.038
0.044,0.042
0.043,0.035
0.045,0.036
0.044,0.036
0.044,0.040
0.042,0.042
0.043,0.041
0.040,0.043
0.045,0.044
0.039,0.043
0.043,0.044
0.046,0.046
0.045,0.041
0.047,0.044
0.047,0.041
0.048,0.043
0.044,0.044
0.047,0.045
0.040,0.048
0.044,0.045
0.043,0.047
0.043,0.044
0.045,0.047
0.044,0.045
0.046,0.044
0.043,0.046
0.043,0.045
0.044,0.049
0.045,0.047
0.046,0.047
0.045,0.045
0.048,0.044
0.047,0.044
0.049,0.040
0.049,0.039
0.049,0.039
0.049,0.041
0.047,0.039
0.045,0.037
0.046,0.039
0.048,0.036
0.048,0.036
0.051,0.037
0.050,0.036
0.050,0.036
0.049,0.035
0.049,0.034
0.049,0.030
0.050,0.030
0.047,0.031
0.050,0.027
0.049,0.030
0.049,0.023
0.049,0.024
0.051,0.026
0.048,0.024
0.050,0.023
0.050,0.024
0.049,0.023
0.049,0.024
0.049,0.024
0.050,0.022
0.049,0.021
0.054,0.017
0.050,0.019
0.051,0.014
0.050,0.014
0.051,0.011
0.049,0.012
0.050,0.013
0.049,0.013
0.051,0.013
0.048,0.010
0.050,0.009
0.050,0.009
0.051,0.003
0.053,0.004
0.049,0.002
0.054,0.001
0.049,0.004
0.052,0.002
0.048,0.003
0.049,0.003
0.051,0.002
0.050,0.002
0.052,0.001
0.051,0.001
0.052,0.000
0.053,0.001
0.052,-0.002
0.052,0.000
0.050,-0.003
0.049,-0.001
0.051,-0.003
0.053,-0.004
0.053,-0.007
0.051,-0.005
0.051,-0.003
0.048,-0.005
0.048,0.000
0.044,-0.003
0.044,-0.000
0.045,-0.003
0.049,-0.002
0.047,-0.005
0.050,-0.003
0.048,-0.003
0.049,-0.005
0.049,-0.000
0.049,0.000
0.045,0.002
0.045,0.001
0.044,0.002
0.044,0.002
0.047,-0.000
0.048,0.001
0.047,0.002
0.048,0.002
0.045,0.003
0.048,0.004
0.044,0.008
0.045,0.006
0.047,0.005
0.046,0.006
0.047,0.006
0.050,0.010
0.048,0.008
0.047,0.008
0.048,0.010
0.046,0.008
0.046,0.014
0.047,0.010
0.042,0.015
0.044,0.014
0.045,0.015
0.045,0.012
0.048,0.014
0.047,0.013
0.049,0.012
0.048,0.013
0.049,0.015
0.047,0.017
0.048,0.017
0.046,0.017
0.044,0.019
0.046,0.021
0.045,0.025
0.049,0.024
0.049,0.027
0.049,0.025
0.047,0.027
0.047,0.025
0.047,0.028
0.048,0.030
0.048,0.030
0.047,0.034
0.046,0.031
0.046,0.035
0.046,0.032
0.046,0.034
0.044,0.035
0.045,0.033
0.042,0.031
0.044,0.031
0.045,0.034
0.046,0.032
0.045,0.036
0.044,0.036
0.045,0.038
0.045,0.040
0.044,0.042
0.044,0.037
0.045,0.042
0.041,0.037
0.049,0.043
0.047,0.042
0.050,0.040
0.046,0.042
0.048,0.039
0.045,0.041
0.046,0.039
0.045,0.043
0.045,0.041
0.048,0.042
0.043,0.040
0.045,0.042
0.042,0.044
0.042,0.043
0.044,0.044
0.046,0.044
0.044,0.043
0.046,0.044
0.049,0.043
0.046,0.038
0.049,0.040
0.050,0.042
0.047,0.040
0.049,0.040
0.049,0.039
0.049,0.042
0.047,0.035
0.044,0.039
0.048,0.036
0.050,0.035
0.046,0.035
0.049,0.036
0.049,0.037
0.049,0.034
0.046,0.039
0.047,0.034
0.048,0.036
0.049,0.032
0.049,0.031
0.050,0.028
0.052,0.030
0.048,0.025
0.049,0.028
0.047,0.028
0.049,0.026
0.045,0.026
0.049,0.025
0.046,0.024
0.048,0.023
0.048,0.026
0.047,0.021
0.048,0.022
0.045,0.021
0.050,0.021
0.050,0.019
0.052,0.017
0.046,0.013
0.050,0.013
0.049,0.010
0.050,0.011
0.048,0.008
0.051,0.010
0.048,0.009
0.051,0.008
0.050,0.008
0.051,0.010
0.052,0.007
0.052,0.007
0.049,0.006
0.054,0.005
0.049,0.003
0.052,0.001
0.051,0.001
0.052,-0.001
0.051,0.001
0.050,-0.001
0.051,0.003
0.050,0.003
0.052,-0.000
0.049,0.004
0.054,0.003
0.051,0.001
0.051,-0.004
0.054,-0.001
0.054,-0.005
0.051,-0.006
0.051,-0.003
0.049,-0.005
0.051,-0.001
0.049,-0.003
0.050,-0.003
0.048,-0.005
0.049,-0.003
0.049,-0.005
0.050,-0.005
0.049,-0.003
0.050,-0.004
0.048,-0.002
0.049,-0.004
0.047,-0.001
0.044,0.001
0.050,-0.002
0.045,-0.002
0.049,-0.002
0.047,-0.002
0.047,-0.001
0.047,0.000
0.049,0.000
0.044,0.003
0.048,0.005
0.046,0.004
0.046,0.003
0.050,0.008
0.049,0.003
0.049,0.005
0.047,0.005
0.046,0.004
0.046,0.006
0.046,0.007
0.043,0.009
0.045,0.008
0.043,0.011
0.046,0.011
0.047,0.013
0.047,0.010
0.049,0.010
0.048,0.009
0.048,0.009
0.049,0.011
0.050,0.010
0.047,0.016
0.046,0.013
0.048,0.017
0.047,0.014
0.047,0.017
0.046,0.016
0.046,0.021
0.045,0.022
0.043,0.024
0.043,0.024
0.043,0.027
0.045,0.027
0.043,0.026
0.047,0.028
0.044,0.029
0.046,0.026
0.044,0.029
0.045,0.030
0.047,0.030
0.045,0.030
0.046,0.032
0.046,0.032
0.047,0.030
0.046,0.037
0.045,0.034
0.044,0.037
0.045,0.036
0.043,0.036
0.044,0.036
0.046,0.039
0.045,0.036
0.046,0.036
0.047,0.041
0.049,0.038
0.046,0.040
0.044,0.039
0.044,0.041
0.043,0.043
0.042,0.043
0.042,0.044
0.044,0.042
0.045,0.040
0.048,0.044
0.046,0.041
0.046,0.041
0.045,0.045
0.047,0.044
0.042,0.045
0.043,0.043
0.041,0.044
0.044,0.042
0.045,0.043
0.044,0.039
0.047,0.041
0.046,0.041
0.045,0.040
0.044,0.046
0.047,0.044
0.042,0.045
0.046,0.045
0.044,0.046
0.047,0.042
0.048,0.042
0.047,0.038
0.048,0.037
0.048,0.039
0.049,0.037
0.048,0.037
0.047,0.036
0.047,0.034
0.048,0.033
0.052,0.032
0.049,0.032
0.052,0.032
0.050,0.034
0.051,0.031
0.049,0.033
0.049,0.030
0.048,0.031
0.047,0.029
0.048,0.028
0.045,0.024
0.050,0.027
0.047,0.026
0.051,0.028
0.053,0.024
0.054,0.026
0.050,0.023
0.054,0.020
0.050,0.021
0.052,0.019
0.049,0.020
0.049,0.015
0.051,0.017
0.049,0.014
0.049,0.016
0.049,0.013
0.046,0.014
0.047,0.014
0.045,0.015
0.047,0.012
0.048,0.010
0.049,0.010
0.050,0.012
0.048,0.004
0.049,0.006
0.049,0.004
0.051,0.006
0.047,0.004
0.046,0.003
0.048,0.001
0.050,0.003
0.047,0.002
0.049,0.006
0.049,0.005
0.048,0.002
0.047,0.003
0.050,0.000
0.052,0.002
0.051,-0.001
0.053,-0.004
0.048,0.001
0.051,-0.005
0.047,-0.003
0.047,-0.005
0.049,-0.004
0.047,-0.007
0.048,-0.004
0.049,-0.003
0.048,-0.003
0.048,0.002
0.046,-0.002
0.045,0.001
0.045,-0.002
0.045,-0.003
0.047,-0.003
0.047,0.000
0.045,-0.001
0.047,-0.001
0.043,0.007
0.045,0.003
0.043,0.005
0.042,0.004
0.044,0.004
0.041,0.005
0.045,0.005
0.043,0.002
0.048,0.006
0.046,0.006
0.046,0.008
0.046,0.010
0.046,0.010
0.045,0.011
0.045,0.010
0.047,0.009
0.047,0.007
0.047,0.010
0.046,0.010
0.046,0.010
0.047,0.011
0.044,0.010
0.042,0.013
0.043,0.014
0.043,0.018
0.042,0.016
0.043,0.018
0.047,0.016
0.045,0.018
0.047,0.016
0.044,0.017
0.044,0.016
0.045,0.020
0.043,0.021
0.043,0.024
0.042,0.024
0.044,0.026
0.044,0.025
0.040,0.026
0.042,0.023
0.044,0.028
0.042,0.026
0.046,0.029
0.044,0.030
0.047,0.030
0.042,0.030
0.046,0.029
0.046,0.033
0.047,0.036
0.045,0.037
0.042,0.037
0.041,0.039
0.044,0.039
0.044,0.040
0.043,0.038
0.046,0.038
0.046,0.037
0.046,0.034
0.046,0.039
0.041,0.036
0.043,0.042
0.042,0.040
0.042,0.042
0.041,0.040
0.043,0.043
0.042,0.043
0.044,0.039
0.046,0.044
0.045,0.044
0.045,0.047
0.045,0.044
0.044,0.045
0.042,0.045
0.044,0.046
0.043,0.042
0.045,0.045
0.045,0.042
0.047,0.043
0.044,0.047
0.044,0.046
0.044,0.047
0.045,0.046
0.042,0.047
0.041,0.046
0.046,0.050
0.044,0.044
0.049,0.045
0.047,0.041
0.050,0.041
0.048,0.042
0.049,0.041
0.047,0.044
0.049,0.041
0.049,0.041
0.044,0.042
0.047,0.039
0.047,0.039
0.049,0.036
0.050,0.037
0.050,0.037
0.052,0.039
0.050,0.037
0.050,0.040
0.048,0.036
0.053,0.036
0.051,0.033
0.049,0.032
0.048,0.031
0.047,0.029
0.045,0.032
0.046,0.029
0.047,0.028
0.046,0.028
0.045,0.029
0.045,0.025
0.048,0.026
0.048,0.024
0.049,0.025
0.050,0.022
0.053,0.019
0.049,0.019
0.051,0.017
0.050,0.015
0.053,0.015
0.049,0.014
0.050,0.013
0.051,0.009
0.050,0.011
0.050,0.009
0.051,0.010
0.052,0.010
0.051,0.010
0.050,0.011
0.049,0.004
0.051,0.006
0.051,0.006
0.052,0.006
0.050,0.004
0.049,0.004
0.048,0.003
0.051,0.004
0.047,0.004
0.046,0.002
0.049,0.007
0.053,0.005
0.051,0.004
0.049,0.004
0.053,0.003
0.051,0.001
0.051,0.001
0.052,-0.002
0.049,-0.002
0.049,0.000
0.048,-0.001
0.044,0.000
0.045,0.000
0.047,-0.000
0.049,-0.003
0.048,-0.003
0.051,-0.002
0.048,-0.002
0.046,0.000
0.045,0.001
0.044,0.002
0.045,0.000
0.044,0.001
0.048,0.001
0.046,0.000
0.047,0.002
0.046,0.002
0.047,0.006
0.048,0.007
0.045,0.009
0.045,0.006
0.044,0.007
0.041,0.006
0.046,0.008
0.044,0.007
0.047,0.007
0.046,0.008
0.049,0.006
0.046,0.010
0.045,0.010
0.045,0.012
0.045,0.012
0.046,0.013
0.044,0.011
0.046,0.012
0.044,0.010
0.047,0.013
0.047,0.014
0.048,0.016
0.048,0.017
0.047,0.017
0.047,0.017
0.047,0.019
0.044,0.019
0.045,0.017
0.041,0.021
0.044,0.022
0.039,0.025
0.045,0.023
0.041,0.028
0.041,0.026
0.041,0.032
0.043,0.028
0.043,0.035
0.045,0.032
0.046,0.033
0.044,0.034
0.045,0.033
0.043,0.035
0.043,0.034
0.043,0.034
0.045,0.037
0.042,0.035
0.046,0.036
0.046,0.036
0.045,0.036
0.043,0.039
0.045,0.039
0.043,0.039
0.045,0.039
0.042,0.042
0.041,0.040
0.044,0.040
0.044,0.039
0.045,0.038
0.041,0.039
0.044,0.041
0.040,0.044
0.043,0.041
0.041,0.045
0.043,0.043
0.043,0.042
0.045,0.042
0.047,0.042
0.045,0.042
0.046,0.042
0.045,0.045
0.044,0.042
0.045,0.045
0.044,0.043
0.043,0.044
0.044,0.045
0.044,0.045
0.046,0.044
0.046,0.045
0.047,0.044
0.048,0.043
0.048,0.044
0.049,0.046
0.047,0.048
0.049,0.044
0.046,0.047
0.048,0.045
0.045,0.046
0.045,0.039
0.048,0.039
0.046,0.037
0.052,0.037
0.049,0.041
0.047,0.037
0.046,0.041
0.046,0.034
0.045,0.036
0.045,0.033
0.049,0.033
0.045,0.029
0.049,0.032
0.047,0.031
0.047,0.030
0.046,0.032
0.048,0.030
0.047,0.028
0.045,0.029
0.049,0.027
0.047,0.027
0.049,0.023
0.049,0.023
0.050,0.024
0.053,0.022
0.051,0.024
0.052,0.021
0.052,0.021
0.052,0.018
0.051,0.018
0.051,0.016
0.050,0.017
0.049,0.016
0.051,0.013
0.048,0.013
0.051,0.010
0.052,0.012
0.050,0.010
0.049,0.011
0.052,0.009
0.049,0.010
0.049,0.007
0.047,0.006
0.048,0.003
0.049,0.004
0.052,0.000
0.053,0.003
0.050,0.001
0.051,0.001
0.050,0.003
0.049,0.002
0.047,0.003
0.047,0.000
0.049,0.002
0.050,-0.001
0.051,-0.000
0.050,-0.002
0.050,-0.001
0.051,0.000
0.048,-0.001
0.048,-0.003
0.047,-0.003
0.051,-0.003
0.048,-0.003
0.050,-0.002
0.051,-0.003
0.048,-0.004
0.048,0.002
0.046,-0.002
0.046,0.001
0.048,-0.001
0.048,-0.003
0.046,-0.005
0.048,-0.000
0.047,-0.005
0.049,-0.001
0.049,-0.002
0.047,-0.002
0.046,0.001
0.049,0.000
0.045,0.002
0.048,-0.001
0.047,0.003
0.049,0.002
0.050,0.006
0.049,0.004
0.049,0.006
0.046,0.004
0.049,0.005
0.047,0.009
0.047,0.006
0.046,0.010
0.046,0.009
0.047,0.011
0.048,0.010
0.048,0.013
0.049,0.010
0.047,0.011
0.049,0.014
0.048,0.014
0.049,0.016
0.050,0.016
0.049,0.015
0.046,0.015
0.046,0.016
0.046,0.016
0.046,0.017
0.049,0.016
0.048,0.020
0.046,0.018
0.047,0.022
0.046,0.020
0.045,0.026
0.044,0.024
0.046,0.027
0.046,0.026
0.047,0.028
0.045,0.029
0.048,0.029
0.047,0.029
0.045,0.030
0.047,0.028
0.044,0.029
0.046,0.032
0.047,0.034
0.043,0.036
0.047,0.034
0.044,0.035
0.047,0.034
0.043,0.036
0.044,0.038
0.047,0.038
0.045,0.040
0.046,0.037
0.047,0.041
0.048,0.040
0.046,0.042
0.046,0.039
0.045,0.041
0.043,0.040
0.045,0.041
0.043,0.040
0.046,0.043
0.050,0.043
0.049,0.043
0.048,0.046
0.048,0.044
0.048,0.046
0.047,0.045
0.047,0.041
0.045,0.043
0.051,0.045
0.048,0.039
0.049,0.043
0.048,0.043
0.050,0.044
0.048,0.044
0.049,0.046
0.044,0.046
0.049,0.045
0.045,0.047
0.047,0.042
0.047,0.043
0.048,0.039
0.049,0.041
0.048,0.041
0.048,0.040
0.045,0.042
0.046,0.040
0.045,0.039
0.046,0.040
0.049,0.041
0.049,0.038
0.049,0.039
0.047,0.040
0.049,0.038
0.050,0.039
0.049,0.036
0.049,0.035
0.047,0.033
0.050,0.032
0.047,0.032
0.051,0.032
0.048,0.028
0.049,0.028
0.047,0.030
0.046,0.026
0.049,0.026
0.050,0.027
0.050,0.028
0.050,0.026
0.049,0.025
0.048,0.024
0.049,0.025
0.049,0.020
0.050,0.020
0.049,0.016
0.048,0.017
0.046,0.014
0.051,0.012
0.047,0.012
0.050,0.009
0.049,0.012
0.051,0.011
0.050,0.011
0.052,0.008
0.054,0.008
0.053,0.009
0.052,0.009
0.053,0.007
0.052,0.009
0.049,0.005
0.050,0.004
0.048,0.002
0.051,0.004
0.048,0.001
0.050,0.001
0.049,0.002
0.050,0.001
0.049,0.004
0.050,0.001
0.047,0.005
0.048,-0.002
0.051,-0.001
0.051,-0.003
0.054,-0.003
0.050,-0.003
0.052,-0.004
0.048,-0.002
0.048,-0.005
0.046,-0.001
0.047,-0.001
0.045,-0.002
0.045,0.000
0.049,0.000
-0.012,-0.025
-0.013,-0.023
-0.015,-0.020
-0.013,-0.018
-0.009,-0.013
-0.002,-0.013
0.000,-0.009
0.006,-0.005
0.029,-0.005
0.144,-0.002
0.490,0.021
1.029,-0.054
1.490,-0.350
1.563,-0.848
1.224,-1.247
0.410,-0.925
-0.644,0.508
-1.527,2.538
-2.103,3.979
-2.186,4.749
-1.537,4.943
-0.166,3.314
1.263,0.680
2.136,-1.978
2.243,-3.797
1.819,-4.593
1.274,-4.155
0.621,-2.836
-0.073,-1.498
-0.547,-0.602
-0.751,-0.143
-0.763,0.055
-0.673,0.130
-0.544,0.143
-0.395,0.123
-0.262,0.089
-0.168,0.058
-0.101,0.036
-0.072,0.024
-0.058,0.021
-0.055,0.024
-0.051,0.031
-0.019,0.033
0.032,0.039
0.075,0.044
0.089,0.047
0.075,0.035
0.036,-0.004
-0.006,-0.014
-0.037,-0.002
-0.042,0.019
-0.049,0.028
-0.042,0.035
-0.028,0.028
0.006,0.017
0.038,0.004
0.062,-0.006
0.065,-0.009
0.058,-0.012
0.050,-0.007
0.044,-0.004
0.041,0.000
0.037,0.003
0.037,0.003
0.027,0.009
0.022,0.010
0.018,0.012
0.016,0.013
0.015,0.013
0.015,0.013
0.018,0.014
0.020,0.013
0.022,0.014
0.025,0.015
0.026,0.016
0.025,0.021
0.024,0.020
0.026,0.024
0.026,0.023
0.028,0.023
0.028,0.020
0.028,0.023
0.027,0.018
0.030,0.022
0.028,0.021
0.028,0.023
0.029,0.026
0.031,0.025
0.033,0.030
0.032,0.026
0.033,0.028
0.034,0.030
0.036,0.032
0.035,0.030
0.041,0.033
0.037,0.027
0.039,0.029
0.035,0.029
0.035,0.028
0.036,0.031
0.036,0.029
0.035,0.029
0.037,0.028
0.036,0.026
0.036,0.027
0.039,0.028
0.037,0.025
0.040,0.025
0.039,0.025
0.041,0.026
0.038,0.026
0.042,0.024
0.041,0.026
0.041,0.023
0.042,0.023
0.041,0.022
0.041,0.019
0.038,0.019
0.038,0.016
0.040,0.019
0.039,0.018
0.041,0.020
0.040,0.018
0.041,0.021
0.041,0.020
0.039,0.018
0.044,0.015
0.040,0.016
0.045,0.012
0.041,0.011
0.043,0.011
0.042,0.009
0.042,0.010
0.044,0.010
0.039,0.010
0.040,0.010
0.042,0.008
0.042,0.010
0.043,0.005
0.045,0.008
0.042,0.003
0.049,0.004
0.048,0.002
0.049,0.003
0.044,0.004
0.048,0.004
0.043,0.005
0.045,0.003
0.043,0.004
0.045,0.003
0.048,0.003
0.046,0.000
0.044,0.002
0.044,0.005
0.046,0.003
0.046,0.004
0.044,0.001
0.049,0.001
0.046,-0.003
0.053,-0.003
0.049,-0.002
0.049,-0.002
0.045,0.002
0.047,-0.001
0.045,-0.000
0.042,-0.003
0.048,-0.001
0.045,-0.004
0.049,-0.002
0.047,-0.001
0.047,-0.003
0.047,0.002
0.049,0.000
0.047,0.002
0.047,0.000
0.047,0.001
0.047,-0.000
0.046,0.001
0.047,0.004
0.046,0.004
0.046,0.009
0.046,0.008
0.045,0.008
0.045,0.009
0.045,0.011
0.045,0.007
0.046,0.009
0.049,0.008
0.048,0.009
0.049,0.010
0.047,0.008
0.049,0.011
0.048,0.011
0.045,0.013
0.043,0.012
0.045,0.013
0.046,0.013
0.048,0.016
0.045,0.014
0.050,0.015
0.049,0.017
0.050,0.015
0.047,0.019
0.051,0.017
0.048,0.021
0.049,0.020
0.045,0.023
0.049,0.023
0.045,0.024
0.046,0.023
0.044,0.028
0.044,0.026
0.045,0.031
0.047,0.032
0.046,0.036
0.049,0.034
0.049,0.035
0.046,0.030
0.048,0.034
0.045,0.033
0.046,0.032
0.045,0.033
0.046,0.035
0.047,0.035
0.047,0.037
0.046,0.036
0.049,0.038
0.048,0.035
0.048,0.037
0.047,0.041
0.049,0.042
0.049,0.041
0.049,0.041
0.052,0.043
0.048,0.039
0.050,0.041
0.050,0.040
0.052,0.044
0.048,0.044
0.051,0.044
0.047,0.047
0.051,0.044
0.049,0.048
0.049,0.046
0.055,0.045
0.050,0.044
0.054,0.046
0.050,0.047
0.054,0.046
0.053,0.049
0.053,0.046
0.050,0.045
0.052,0.045
0.052,0.049
0.053,0.045
0.053,0.045
0.053,0.050
0.051,0.047
0.053,0.052
0.052,0.051
0.054,0.050
0.051,0.045
0.056,0.045
0.052,0.043
0.054,0.044
0.052,0.043
0.054,0.042
0.056,0.044
0.055,0.040
0.052,0.045
0.051,0.041
0.054,0.039
0.052,0.037
0.056,0.037
0.052,0.036
0.053,0.034
0.054,0.036
0.056,0.034
0.055,0.036
0.056,0.036
0.053,0.033
0.055,0.033
0.055,0.031
0.057,0.030
0.056,0.028
0.056,0.026
0.056,0.026
0.054,0.026
0.054,0.023
0.052,0.027
0.055,0.025
0.053,0.026
0.058,0.022
0.055,0.022
0.056,0.020
0.055,0.017
0.056,0.015
0.055,0.011
0.056,0.010
0.054,0.010
0.057,0.008
0.056,0.007
0.056,0.008
0.058,0.007
0.057,0.006
0.061,0.007
0.055,0.006
0.059,0.005
0.054,0.006
0.057,0.003
0.052,0.001
0.053,0.003
0.053,0.004
0.056,0.002
0.054,0.003
0.056,0.002
0.058,0.001
0.055,0.002
0.054,-0.000
0.055,0.003
0.053,-0.001
0.054,0.001
0.050,-0.002
0.052,-0.003
0.050,-0.005
0.054,-0.004
0.054,-0.005
0.052,-0.007
0.051,-0.002
0.052,-0.004
0.050,-0.004
0.051,-0.002
0.050,-0.002
0.047,-0.004
0.051,-0.002
0.048,-0.004
0.050,-0.006
0.047,-0.003
0.048,-0.005
0.048,-0.001
0.050,-0.002
0.048,0.000
0.048,-0.003
0.048,-0.002
0.049,-0.001
0.049,-0.001
0.050,0.000
0.049,0.003
0.048,0.003
0.050,0.004
0.047,0.004
0.051,0.004
0.049,0.005
0.049,0.003
0.052,0.005
0.049,0.005
0.051,0.007
0.051,0.006
0.051,0.008
0.052,0.011
0.050,0.009
0.046,0.013
0.049,0.012
0.045,0.013
0.044,0.012
0.051,0.014
0.048,0.011
0.050,0.014
0.049,0.010
0.051,0.011
0.047,0.013
0.049,0.013
0.045,0.014
0.050,0.012
0.045,0.016
0.049,0.014
0.045,0.020
0.047,0.017
0.047,0.024
0.046,0.023
0.049,0.026
0.046,0.024
0.047,0.027
0.046,0.026
0.046,0.030
0.047,0.027
0.047,0.029
0.048,0.030
0.043,0.034
0.043,0.032
0.044,0.033
0.042,0.033
0.048,0.032
0.049,0.032
0.046,0.034
0.046,0.038
0.046,0.036
0.046,0.037
0.046,0.036
0.046,0.038
0.045,0.038
0.046,0.039
0.046,0.036
0.047,0.037
0.046,0.036
0.045,0.037
0.044,0.037
0.045,0.038
0.045,0.040
0.046,0.041
0.045,0.039
0.046,0.039
0.047,0.039
0.047,0.038
0.048,0.039
0.048,0.037
0.046,0.037
0.045,0.039
0.044,0.040
0.042,0.040
0.043,0.043
0.044,0.043
0.045,0.042
0.047,0.043
0.046,0.042
0.047,0.042
0.046,0.044
0.048,0.042
0.047,0.043
0.048,0.042
0.048,0.044
0.047,0.041
0.051,0.040
0.049,0.035
0.050,0.035
0.049,0.036
0.049,0.036
0.049,0.037
0.049,0.036
0.046,0.037
0.050,0.035
0.049,0.035
0.049,0.031
0.050,0.030
0.048,0.030
0.052,0.029
0.050,0.032
0.052,0.028
0.049,0.028
0.051,0.028
0.048,0.026
0.049,0.024
0.050,0.025
0.049,0.024
0.051,0.024
0.050,0.022
0.052,0.023
0.050,0.021
0.052,0.019
0.052,0.016
0.052,0.015
0.053,0.012
0.052,0.010
0.053,0.010
0.051,0.011
0.051,0.011
0.049,0.011
0.051,0.010
0.052,0.011
0.050,0.011
0.050,0.008
0.049,0.006
0.052,0.008
0.046,0.009
0.049,0.008
0.049,0.005
0.046,0.002
0.051,0.002
0.048,0.001
0.049,0.001
0.049,0.004
0.051,0.002
0.050,0.007
0.049,0.003
0.052,0.001
0.049,0.000
0.054,-0.003
0.053,-0.000
0.053,0.000
0.052,-0.003
0.051,-0.003
0.053,-0.003
0.050,-0.002
0.049,0.000
0.048,-0.003
0.050,-0.003
0.049,-0.005
0.051,-0.003
0.051,-0.005
0.052,-0.001
0.049,-0.003
0.051,-0.004
0.050,-0.002
0.051,-0.003
0.050,-0.002
0.049,-0.003
0.051,-0.004
0.051,-0.004
0.050,-0.003
0.048,-0.001
0.048,-0.000
0.049,0.001
0.045,-0.000
0.047,0.001
0.046,0.001
0.050,0.003
0.048,0.003
0.048,0.002
0.048,0.004
0.047,0.005
0.045,0.006
0.045,0.005
0.046,0.007
0.047,0.004
0.048,0.005
0.047,0.005
0.048,0.010
0.047,0.009
0.050,0.009
0.049,0.010
0.049,0.012
0.047,0.015
0.049,0.012
0.045,0.014
0.048,0.012
0.045,0.013
0.046,0.013
0.045,0.016
0.045,0.015
0.046,0.018
0.045,0.017
0.046,0.020
0.043,0.021
0.046,0.022
0.041,0.023
0.042,0.025
0.042,0.027
0.044,0.029
0.043,0.026
0.047,0.031
0.045,0.031
0.045,0.028
0.041,0.028
0.046,0.032
0.043,0.030
0.045,0.030
0.045,0.032
0.043,0.033
0.043,0.033
0.045,0.036
0.040,0.038
0.044,0.035
0.043,0.037
0.042,0.034
0.044,0.036
0.043,0.035
0.045,0.036
0.044,0.038
0.047,0.037
0.043,0.038
0.045,0.040
0.044,0.041
0.042,0.041
0.043,0.040
0.043,0.042
0.043,0.041
0.045,0.042
0.045,0.039
0.045,0.044
0.044,0.043
0.044,0.042
0.044,0.042
0.046,0.043
0.046,0.039
0.044,0.040
0.045,0.039
0.045,0.042
0.045,0.044
0.047,0.043
0.044,0.045
0.045,0.043
0.042,0.047
0.046,0.043
0.048,0.043
0.045,0.039
0.050,0.042
0.045,0.041
0.048,0.039
0.047,0.044
0.048,0.040
0.047,0.043
0.044,0.040
0.047,0.042
0.045,0.039
0.050,0.037
0.047,0.035
0.047,0.035
0.048,0.036
0.049,0.036
0.047,0.036
0.047,0.035
0.048,0.034
0.047,0.033
0.050,0.032
0.052,0.028
0.050,0.030
0.053,0.028
0.050,0.027
0.049,0.025
0.050,0.026
0.046,0.026
0.049,0.023
0.045,0.025
0.048,0.022
0.047,0.020
0.051,0.022
0.052,0.020
0.051,0.020
0.053,0.017
0.052,0.015
0.051,0.013
0.052,0.011
0.049,0.013
0.050,0.012
0.050,0.013
0.051,0.009
0.053,0.009
0.050,0.006
0.053,0.008
0.050,0.008
0.049,0.007
0.049,0.006
0.051,0.004
0.047,0.004
0.048,0.003
0.049,0.003
0.048,0.004
0.050,0.000
0.050,0.000
0.052,-0.000
0.051,0.001
0.053,-0.002
0.050,0.001
0.052,-0.001
0.052,-0.001
0.052,-0.003
0.055,-0.003
0.050,-0.003
0.053,-0.006
0.049,-0.003
0.050,-0.005
0.047,-0.004
0.048,-0.008
0.049,-0.003
0.050,-0.003
0.051,-0.001
0.046,-0.003
0.049,-0.003
0.050,-0.002
0.049,-0.003
0.049,-0.001
0.049,-0.002
0.047,-0.000
0.049,0.000
0.048,-0.002
0.049,-0.002
0.047,-0.001
0.048,-0.002
0.050,-0.001
0.051,-0.001
0.047,-0.002
0.049,0.003
0.046,-0.001
0.044,0.002
0.045,0.003
0.043,0.005
0.044,0.005
0.049,0.006
0.046,0.005
0.047,0.002
0.048,0.005
0.046,0.003
0.045,0.008
0.046,0.008
0.044,0.009
0.046,0.005
0.047,0.009
0.046,0.007
0.048,0.009
0.048,0.009
0.048,0.010
0.046,0.013
0.049,0.010
0.048,0.015
0.048,0.012
0.049,0.015
0.048,0.013
0.049,0.017
0.046,0.016
0.046,0.022
0.048,0.019
0.047,0.025
0.046,0.022
0.046,0.030
0.046,0.026
0.049,0.029
0.048,0.030
0.048,0.032
0.047,0.031
0.045,0.030
0.047,0.029
0.045,0.028
0.046,0.029
0.046,0.032
0.046,0.033
0.044,0.033
0.047,0.033
0.045,0.034
0.047,0.035
0.046,0.035
0.046,0.037
0.045,0.035
0.045,0.037
0.045,0.038
0.044,0.038
0.043,0.037
0.047,0.040
0.044,0.035
0.045,0.039
0.043,0.039
0.046,0.040
0.044,0.044
0.046,0.043
0.043,0.044
0.046,0.041
0.046,0.043
0.046,0.040
0.049,0.040
0.046,0.038
0.047,0.036
0.042,0.038
0.047,0.039
0.042,0.045
0.043,0.044
0.043,0.044
0.045,0.047
0.047,0.045
0.048,0.045
0.049,0.044
0.049,0.046
0.047,0.044
0.049,0.046
0.048,0.042
0.045,0.039
0.048,0.040
0.048,0.040
0.049,0.039
0.049,0.037
0.052,0.037
0.049,0.037
0.049,0.039
0.048,0.035
0.048,0.037
0.049,0.034
0.049,0.034
0.047,0.030
0.050,0.034
0.050,0.031
0.052,0.033
0.052,0.032
0.053,0.032
0.047,0.033
0.050,0.033
0.047,0.028
0.047,0.025
0.049,0.028
0.050,0.025
0.050,0.025
0.049,0.024
0.050,0.024
0.050,0.023
0.052,0.022
0.051,0.021
0.053,0.018
0.054,0.017
0.053,0.014
0.054,0.013
0.052,0.011
0.050,0.013
0.052,0.009
0.048,0.012
0.049,0.010
0.047,0.012
0.051,0.013
0.050,0.014
0.052,0.010
0.052,0.010
0.051,0.007
0.055,0.007
0.051,0.003
0.054,0.002
0.054,0.005
0.054,0.004
0.051,0.004
0.049,0.003
0.049,0.005
0.048,0.004
0.048,0.006
0.047,0.004
0.048,0.004
0.047,0.004
0.051,0.000
0.051,0.004
0.050,0.002
0.048,0.002
0.050,-0.001
0.050,-0.001
0.046,-0.002
0.050,-0.000
0.046,-0.001
0.047,-0.003
0.046,-0.002
0.045,-0.002
0.048,-0.002
0.047,-0.003
0.046,-0.003
0.047,-0.003
0.050,-0.003
0.049,-0.007
0.049,-0.004
0.045,-0.003
0.048,-0.004
0.043,0.003
0.045,-0.003
0.043,0.001
0.044,-0.000
0.045,0.000
0.045,0.001
0.047,0.004
0.047,0.003
0.047,0.003
0.046,0.005
0.045,0.004
0.043,0.006
0.045,0.005
0.046,0.007
0.044,0.008
0.047,0.008
0.048,0.009
0.047,0.010
0.047,0.008
0.047,0.009
0.047,0.011
0.046,0.015
0.045,0.014
0.047,0.013
0.045,0.012
0.047,0.010
0.048,0.012
0.049,0.011
0.049,0.012
0.050,0.011
0.047,0.012
0.044,0.013
0.046,0.014
0.045,0.014
0.045,0.017
0.043,0.020
0.045,0.022
0.043,0.023
0.044,0.024
0.046,0.024
0.047,0.028
0.044,0.024
0.047,0.028
0.046,0.027
0.049,0.028
0.044,0.028
0.046,0.031
0.044,0.034
0.044,0.030
0.041,0.036
0.044,0.036
0.044,0.036
0.044,0.037
0.046,0.037
0.045,0.036
0.044,0.036
0.044,0.036
0.045,0.036
0.045,0.038
0.044,0.038
0.043,0.038
0.043,0.040
0.041,0.040
0.044,0.039
0.042,0.042
0.045,0.040
0.048,0.046
0.045,0.045
0.046,0.042
0.046,0.046
0.048,0.043
0.045,0.046
0.047,0.044
0.047,0.045
0.047,0.040
0.049,0.042
0.046,0.045
0.047,0.041
0.045,0.044
0.048,0.046
0.045,0.046
0.045,0.045
0.048,0.046
0.049,0.044
0.053,0.045
0.051,0.043
0.050,0.043
0.049,0.041
0.047,0.044
0.047,0.046
0.049,0.043
0.047,0.043
0.051,0.043
0.051,0.042
0.049,0.040
0.049,0.041
0.049,0.038
0.048,0.037
0.050,0.038
0.049,0.038
0.046,0.037
0.047,0.035
0.048,0.035
0.050,0.034
0.051,0.034
0.050,0.030
0.051,0.030
0.050,0.030
0.049,0.028
0.049,0.031
0.049,0.026
0.049,0.029
0.049,0.026
0.046,0.025
0.048,0.023
0.049,0.025
0.050,0.023
0.052,0.023
0.050,0.017
0.052,0.016
0.049,0.010
0.053,0.013
0.049,0.011
0.055,0.012
0.050,0.010
0.051,0.009
0.053,0.006
0.052,0.006
0.051,0.007
0.050,0.006
0.052,0.006
0.052,0.005
0.049,0.006
0.050,0.004
0.049,0.004
0.051,0.001
0.052,0.004
0.051,-0.000
0.054,0.002
0.052,0.002
0.051,0.004
0.050,0.004
0.049,0.003
0.046,0.005
0.051,0.003
0.049,0.002
0.051,-0.003
0.053,-0.001
0.051,-0.006
0.051,-0.005
0.049,-0.003
0.051,-0.002
0.048,-0.001
0.050,-0.001
0.048,-0.001
0.050,-0.001
0.051,0.000
0.050,-0.003
0.053,0.001
0.051,-0.003
0.049,-0.003
0.048,0.001
0.048,-0.003
0.049,-0.000
0.049,-0.000
0.049,-0.003
0.046,-0.003
0.051,-0.003
0.046,-0.002
0.045,-0.000
0.045,0.004
0.046,0.001
0.045,0.002
0.047,0.002
0.048,0.002
0.049,0.003
0.050,0.003
0.047,0.002
0.049,0.004
0.047,0.005
0.047,0.003
0.045,0.005
0.049,0.008
0.045,0.008
0.049,0.007
0.049,0.010
0.047,0.007
0.047,0.011
0.045,0.008
0.050,0.010
0.050,0.010
0.048,0.011
0.045,0.013
0.048,0.012
0.044,0.014
0.046,0.013
0.045,0.015
0.047,0.016
0.045,0.017
0.045,0.017
0.044,0.018
0.043,0.022
0.040,0.022
0.044,0.025
0.041,0.023
0.045,0.024
0.043,0.024
0.045,0.026
0.045,0.026
0.046,0.025
0.045,0.030
0.043,0.028
0.046,0.031
0.042,0.026
0.046,0.031
0.043,0.031
0.043,0.030
0.043,0.036
0.042,0.037
0.043,0.042
0.043,0.040
0.043,0.038
0.043,0.038
0.042,0.038
0.044,0.036
0.043,0.034
0.046,0.035
0.045,0.037
0.044,0.040
0.045,0.041
0.042,0.045
0.044,0.043
0.039,0.044
0.043,0.048
0.043,0.047
0.044,0.041
0.046,0.044
0.047,0.046
0.047,0.042
0.049,0.043
0.047,0.042
0.046,0.044
0.044,0.043
0.047,0.045
0.045,0.042
0.049,0.045
0.046,0.042
0.049,0.042
0.047,0.046
0.048,0.044
0.046,0.047
0.048,0.045
0.048,0.047
0.046,0.043
0.050,0.042
0.044,0.039
0.047,0.039
0.044,0.041
0.047,0.039
0.047,0.040
0.046,0.040
0.045,0.040
0.048,0.038
0.046,0.036
0.049,0.034
0.048,0.036
0.050,0.033
0.049,0.034
0.046,0.035
0.049,0.031
0.045,0.035
0.051,0.032
0.048,0.030
0.048,0.028
0.051,0.027
0.049,0.023
0.051,0.024
0.050,0.026
0.051,0.022
0.050,0.025
0.049,0.022
0.050,0.026
0.049,0.021
0.049,0.023
0.050,0.019
0.051,0.019
0.050,0.015
0.049,0.015
0.049,0.013
0.047,0.014
0.050,0.011
0.048,0.011
0.049,0.010
0.047,0.012
0.049,0.010
0.049,0.010
0.050,0.010
0.052,0.006
0.053,0.005
0.053,0.006
0.051,0.005
0.051,0.004
0.050,0.004
0.049,0.001
0.049,0.001
0.047,0.002
0.050,0.002
0.051,0.002
0.052,-0.001
0.052,-0.002
0.051,-0.002
0.051,-0.000
0.054,-0.002
0.050,-0.001
0.050,-0.002
0.052,-0.001
0.049,-0.005
0.053,-0.005
0.051,-0.005
0.053,-0.006
0.051,-0.003
0.051,-0.005
0.050,-0.001
0.048,-0.003
0.049,-0.001
0.048,-0.000
0.053,-0.002
0.050,-0.005
0.052,-0.003
0.051,-0.004
0.052,-0.005
0.051,-0.002
0.051,-0.003
0.048,-0.002
0.049,0.001
0.049,-0.001
0.049,-0.003
0.049,-0.001
0.050,-0.001
0.050,-0.001
0.051,0.001
0.049,0.003
0.042,0.002
0.044,0.005
0.045,0.003
0.045,0.001
0.046,0.004
0.050,0.005
0.049,0.008
0.049,0.007
0.048,0.009
0.046,0.010
0.049,0.009
0.046,0.012
0.046,0.011
0.047,0.014
0.045,0.009
0.050,0.014
0.047,0.013
0.051,0.015
0.047,0.016
0.049,0.015
0.049,0.018
0.048,0.015
0.047,0.019
0.046,0.018
0.045,0.023
0.045,0.021
0.046,0.025
0.044,0.026
0.043,0.030
0.043,0.029
0.042,0.031
0.045,0.030
0.044,0.035
0.047,0.030
0.046,0.034
0.048,0.030
0.048,0.033
0.047,0.032
0.049,0.033
0.047,0.031
0.049,0.035
0.048,0.035
0.047,0.035
0.044,0.036
0.046,0.036
0.046,0.038
0.047,0.036
0.045,0.040
0.044,0.040
0.045,0.040
0.043,0.038
0.046,0.039
0.045,0.038
0.048,0.041
0.048,0.038
0.048,0.038
0.043,0.041
0.044,0.041
0.041,0.045
0.043,0.042
0.043,0.043
0.045,0.039
0.049,0.043
0.045,0.039
0.049,0.042
0.044,0.041
0.046,0.040
0.045,0.045
0.044,0.043
0.043,0.045
0.043,0.043
0.043,0.045
0.043,0.044
0.045,0.045
0.047,0.046
0.047,0.046
0.049,0.045
0.047,0.045
0.047,0.045
0.047,0.045
0.048,0.043
0.047,0.040
0.048,0.041
0.047,0.038
0.051,0.035
0.049,0.035
0.048,0.036
0.049,0.039
0.049,0.040
0.048,0.040
0.047,0.037
0.050,0.038
0.047,0.036
0.050,0.036
0.048,0.034
0.049,0.033
0.049,0.032
0.053,0.029
0.050,0.030
0.050,0.030
0.048,0.030
0.049,0.025
0.050,0.029
0.049,0.024
0.055,0.026
0.051,0.025
0.053,0.024
0.053,0.023
0.054,0.022
0.053,0.020
0.052,0.018
0.054,0.017
0.051,0.015
0.049,0.013
0.050,0.010
0.049,0.012
0.052,0.010
0.050,0.010
0.050,0.009
0.050,0.014
0.051,0.008
0.049,0.011
0.049,0.009
0.048,0.008
0.050,0.006
0.053,0.006
0.051,0.005
0.050,0.004
0.049,0.006
0.050,0.005
0.046,0.006
0.047,0.005
0.049,0.005
0.049,0.005
0.051,0.005
0.051,0.001
0.050,-0.001
0.052,0.001
0.051,0.001
0.052,0.000
0.053,-0.000
0.052,-0.003
0.050,-0.004
0.050,-0.003
0.050,-0.003
0.052,-0.002
0.052,-0.002
0.049,-0.005
0.048,-0.000
0.049,-0.003
0.046,0.000
0.048,-0.002
0.051,-0.001
0.047,-0.004
0.050,-0.002
0.045,-0.005
0.049,-0.005
0.049,0.001
0.047,-0.004
0.045,-0.001
0.046,0.001
0.047,0.003
0.044,0.004
0.046,0.003
0.047,0.001
0.049,0.007
0.047,0.003
0.046,0.003
0.046,0.006
0.048,0.003
0.048,0.008
0.045,0.008
0.046,0.008
0.045,0.010
0.049,0.009
0.046,0.009
0.047,0.007
0.046,0.007
0.046,0.008
0.047,0.012
0.044,0.011
0.046,0.013
0.046,0.014
0.045,0.015
0.046,0.015
0.049,0.016
0.046,0.014
0.048,0.013
0.049,0.013
0.049,0.017
0.046,0.015
0.049,0.020
0.046,0.020
0.046,0.023
0.043,0.022
0.045,0.021
0.043,0.022
0.045,0.026
0.046,0.024
0.045,0.029
0.046,0.026
0.047,0.029
0.044,0.029
0.048,0.030
0.047,0.031
0.047,0.033
0.045,0.033
0.045,0.035
0.044,0.037
0.045,0.036
0.043,0.037
0.046,0.036
0.044,0.036
0.041,0.035
0.044,0.037
0.042,0.035
0.043,0.034
0.044,0.039
0.043,0.040
0.044,0.042
0.040,0.041
0.043,0.043
0.040,0.043
0.041,0.045
0.042,0.043
0.044,0.045
0.045,0.042
0.043,0.043
0.047,0.045
0.046,0.045
0.046,0.046
0.045,0.046
0.044,0.046
0.043,0.040
0.047,0.044
0.043,0.041
0.046,0.044
0.045,0.040
0.045,0.041
0.045,0.043
0.045,0.043
0.044,0.045
0.046,0.043
0.046,0.044
0.045,0.040
0.045,0.040
0.044,0.041
0.044,0.039
0.043,0.041
0.046,0.038
0.043,0.041
0.047,0.039
0.047,0.040
0.047,0.037
0.047,0.036
0.047,0.034
0.046,0.036
0.046,0.036
0.045,0.031
0.046,0.034
0.043,0.029
0.043,0.030
0.047,0.031
0.047,0.028
0.047,0.027
0.048,0.024
0.049,0.026
0.047,0.026
0.048,0.027
0.046,0.025
0.047,0.028
0.048,0.026
0.047,0.028
0.047,0.025
0.048,0.025
0.048,0.021
0.049,0.020
0.048,0.017
0.050,0.017
0.051,0.012
0.048,0.013
0.047,0.012
0.044,0.011
0.047,0.012
0.046,0.011
0.048,0.011
0.045,0.012
0.049,0.010
0.052,0.010
0.051,0.005
0.052,0.006
0.050,0.002
0.051,0.001
0.050,0.005
0.049,0.002
0.050,0.003
0.050,0.004
0.050,0.005
0.050,0.001
0.049,0.003
0.047,-0.000
0.048,0.001
0.047,0.002
0.049,-0.003
0.045,-0.001
0.048,-0.001
0.049,-0.002
0.049,-0.003
0.052,-0.006
0.048,-0.005
0.050,-0.007
0.049,-0.004
0.048,-0.003
0.046,-0.002
0.046,-0.006
0.046,-0.005
0.045,-0.003
0.049,-0.003
0.050,-0.003
0.049,-0.006
0.049,-0.003
0.046,-0.002
0.047,-0.000
0.047,-0.002
0.044,-0.001
0.045,-0.003
0.045,-0.002
0.046,-0.001
0.047,-0.000
0.047,0.001
0.046,0.002
0.047,0.003
0.046,0.002
0.046,0.005
0.046,0.002
0.045,0.005
0.043,0.005
0.046,0.005
0.043,0.006
0.048,0.009
0.047,0.005
0.049,0.006
0.048,0.007
0.045,0.007
0.047,0.012
0.044,0.011
0.045,0.011
0.043,0.013
0.045,0.014
0.042,0.013
0.045,0.013
0.045,0.011
0.047,0.013
0.047,0.015
0.049,0.016
0.047,0.017
0.047,0.019
0.043,0.016
0.045,0.018
0.043,0.021
0.045,0.022
0.042,0.023
0.044,0.024
0.043,0.025
0.047,0.024
0.046,0.027
0.045,0.025
0.045,0.028
0.044,0.026
0.046,0.030
0.045,0.029
0.044,0.033
0.045,0.032
0.043,0.036
0.041,0.035
0.043,0.036
0.039,0.036
0.042,0.038
0.042,0.037
0.046,0.037
0.045,0.036
0.047,0.038
0.045,0.040
0.045,0.037
0.044,0.041
0.043,0.038
0.043,0.041
0.041,0.042
0.041,0.043
0.043,0.041
0.045,0.043
0.046,0.043
0.046,0.043
0.044,0.047
0.047,0.045
0.043,0.046
0.046,0.045
0.044,0.044
0.047,0.042
0.048,0.043
0.047,0.041
0.045,0.042
0.044,0.043
0.044,0.043
0.043,0.046
0.043,0.043
0.042,0.047
0.045,0.046
0.047,0.048
0.046,0.044
0.049,0.043
0.048,0.043
0.048,0.042
0.047,0.044
0.049,0.039
0.047,0.042
0.046,0.043
0.046,0.043
0.046,0.039
0.048,0.040
0.047,0.039
0.049,0.040
0.049,0.036
0.049,0.033
0.047,0.039
0.049,0.036
0.045,0.036
0.048,0.034
0.049,0.034
0.046,0.034
0.048,0.034
0.046,0.028
0.047,0.030
0.049,0.030
0.049,0.030
0.047,0.030
0.050,0.026
0.047,0.027
0.050,0.023
0.047,0.025
0.047,0.023
0.048,0.025
0.047,0.022
0.049,0.020
0.048,0.020
0.048,0.017
0.050,0.015
0.049,0.016
0.051,0.011
0.052,0.013
0.049,0.010
0.053,0.013
0.048,0.010
0.051,0.011
0.051,0.010
0.049,0.008
0.049,0.012
0.047,0.009
0.050,0.010
0.049,0.008
0.049,0.009
0.049,0.006
0.048,0.007
0.049,0.004
0.053,0.004
0.050,0.003
0.050,0.003
0.049,0.005
0.051,0.005
0.047,0.005
0.050,0.003
0.049,0.002
0.048,-0.002
0.053,-0.002
0.048,-0.004
0.052,-0.002
0.049,-0.001
0.050,-0.004
0.048,-0.001
0.048,-0.000
0.047,0.001
0.047,-0.001
0.047,-0.000
0.049,-0.003
0.052,-0.002
0.049,0.000
0.049,-0.002
0.048,0.000
0.048,-0.001
0.047,-0.000
0.046,0.002
0.044,0.002
0.043,-0.001
0.044,0.002
0.046,-0.001
0.047,0.002
0.046,0.002
0.045,0.002
0.045,0.007
0.047,0.005
0.045,0.008
0.045,0.007
0.047,0.009
0.042,0.008
0.049,0.010
0.045,0.008
0.046,0.007
0.045,0.010
0.046,0.008
0.044,0.013
0.044,0.013
0.045,0.009
0.044,0.010
0.044,0.013
0.044,0.012
0.047,0.012
0.047,0.015
0.048,0.015
0.043,0.017
0.046,0.017
0.043,0.017
0.047,0.018
0.043,0.020
0.045,0.019
0.045,0.022
0.045,0.018
0.043,0.026
0.042,0.024
0.040,0.028
0.041,0.026
0.041,0.029
0.042,0.029
0.042,0.033
0.044,0.030
0.043,0.034
0.045,0.032
0.041,0.034
0.040,0.033
0.043,0.035
0.042,0.034
0.045,0.038
0.044,0.034
0.046,0.036
0.044,0.036
0.046,0.037
0.042,0.040
0.045,0.036
0.044,0.041
0.043,0.039
0.044,0.041
0.043,0.041
0.045,0.040
0.041,0.037
0.044,0.040
0.042,0.041
0.042,0.040
0.041,0.042
0.043,0.043
0.043,0.044
0.043,0.045
0.039,0.048
0.043,0.046
0.046,0.045
0.044,0.043
0.047,0.045
0.045,0.041
0.044,0.041
0.042,0.041
0.045,0.041
0.038,0.045
0.043,0.043
0.043,0.045
0.044,0.045
0.045,0.045
0.046,0.044
0.047,0.043
0.046,0.044
0.047,0.042
0.049,0.045
0.047,0.044
0.045,0.045
0.044,0.043
0.046,0.043
0.044,0.038
0.049,0.041
0.048,0.038
0.051,0.039
0.046,0.040
0.047,0.035
0.044,0.038
0.046,0.035
0.045,0.036
0.043,0.033
0.046,0.036
0.045,0.035
0.048,0.033
0.046,0.035
0.048,0.034
0.045,0.032
0.047,0.032
0.045,0.030
0.047,0.029
0.048,0.026
0.046,0.024
0.044,0.027
0.044,0.022
0.046,0.023
0.046,0.021
0.048,0.022
0.045,0.019
0.047,0.019
0.044,0.017
0.047,0.014
0.047,0.012
0.048,0.009
0.049,0.012
0.048,0.010
0.045,0.012
0.047,0.011
0.045,0.012
0.049,0.009
0.047,0.011
0.050,0.010
0.047,0.010
0.046,0.007
0.045,0.006
0.047,0.004
0.048,0.005
0.047,0.000
0.047,0.002
0.046,0.006
0.050,0.004
0.047,0.004
0.048,0.005
0.046,0.005
0.045,0.002
0.047,0.001
0.047,-0.002
0.049,-0.002
0.049,0.000
0.047,-0.003
0.049,0.003
0.047,-0.002
0.048,-0.000
0.046,0.000
0.047,-0.003
0.047,-0.003
0.049,-0.002
0.046,-0.002
0.049,-0.003
0.048,-0.002
0.045,-0.003
0.045,0.001
0.046,-0.003
0.044,-0.002
0.045,-0.001
0.050,-0.001
0.046,-0.004
0.049,-0.001
0.049,0.001
0.046,-0.001
0.046,0.002
0.046,0.004
0.044,0.007
0.047,0.007
0.046,0.007
0.045,0.008
0.045,0.006
0.047,0.007
0.047,0.003
0.046,0.007
0.046,0.004
0.049,0.009
0.045,0.009
0.045,0.009
0.045,0.010
0.048,0.010
0.047,0.009
0.046,0.009
0.048,0.010
0.043,0.011
0.047,0.013
0.044,0.012
0.043,0.016
0.044,0.016
0.044,0.015
0.046,0.015
0.046,0.018
0.044,0.016
0.047,0.017
0.044,0.017
0.047,0.018
0.041,0.018
0.045,0.022
0.041,0.022
0.043,0.025
0.041,0.024
0.044,0.029
0.043,0.026
0.043,0.029
0.042,0.028
0.047,0.030
0.043,0.028
0.047,0.031
0.043,0.030
0.044,0.028
0.042,0.030
0.043,0.031
0.042,0.036
0.043,0.032
0.044,0.038
0.043,0.039
0.043,0.039
0.040,0.036
0.046,0.036
0.043,0.037
0.046,0.038
0.046,0.035
0.047,0.035
0.044,0.041
0.044,0.037
0.043,0.042
0.042,0.041
0.041,0.043
0.041,0.043
0.046,0.045
0.045,0.044
0.048,0.042
0.047,0.041
0.049,0.041
0.045,0.042
0.047,0.042
0.046,0.043
0.047,0.045
0.047,0.045
0.046,0.042
0.049,0.045
0.044,0.041
0.047,0.043
0.048,0.044
0.048,0.045
0.046,0.048
0.049,0.046
0.047,0.047
0.048,0.041
0.047,0.043
0.045,0.041
0.049,0.041
0.049,0.039
0.053,0.038
0.050,0.041
0.047,0.038
0.048,0.042
0.048,0.039
0.049,0.041
0.049,0.037
0.051,0.035
0.048,0.034
0.049,0.032
0.046,0.035
0.047,0.034
0.047,0.036
0.048,0.032
0.051,0.030
0.049,0.030
0.050,0.030
0.050,0.028
0.050,0.026
0.050,0.029
0.052,0.025
0.049,0.028
0.049,0.024
0.049,0.024
0.052,0.023
0.052,0.022
0.050,0.018
0.047,0.018
0.052,0.016
0.048,0.016
0.053,0.012
0.051,0.016
0.051,0.014
0.053,0.013
0.050,0.010
0.050,0.011
0.050,0.011
0.052,0.011
0.052,0.008
0.054,0.008
0.052,0.007
0.056,0.006
0.053,0.004
0.054,0.005
0.053,0.004
0.054,0.002
0.051,0.004
0.051,0.004
0.046,0.002
0.052,0.002
0.049,0.004
0.052,0.001
0.052,0.002
0.052,0.000
0.050,0.001
0.050,0.002
0.051,-0.001
0.049,-0.001
0.050,-0.002
0.050,-0.002
0.049,-0.003
0.051,-0.004
0.050,-0.001
0.050,-0.003
0.050,0.000
0.050,-0.000
0.051,-0.003
0.049,-0.001
0.050,-0.001
0.049,-0.005
0.052,-0.004
0.051,-0.003
0.048,-0.003
0.049,-0.001
0.050,-0.000
0.048,0.000
0.048,-0.001
0.047,0.002
0.046,0.000
0.050,0.003
0.046,-0.001
0.052,0.003
0.050,0.004
0.051,0.004
0.048,0.006
0.050,0.003
0.047,0.010
0.049,0.007
0.047,0.008
0.048,0.007
0.050,0.009
0.048,0.008
0.052,0.009
0.048,0.013
0.050,0.011
0.045,0.013
0.046,0.013
0.046,0.013
0.044,0.012
0.049,0.013
0.047,0.013
0.050,0.014
0.051,0.015
0.047,0.014
0.047,0.016
0.045,0.015
0.046,0.017
0.046,0.017
0.045,0.017
0.046,0.020
0.044,0.024
0.046,0.022
0.043,0.026
0.044,0.026
0.044,0.032
0.047,0.030
0.046,0.032
0.046,0.030
0.046,0.034
0.047,0.029
0.046,0.033
0.047,0.030
0.046,0.035
0.046,0.032
0.047,0.033
0.045,0.035
0.047,0.034
0.045,0.034
0.049,0.038
0.046,0.039
0.051,0.036
0.048,0.036
0.049,0.036
0.048,0.041
0.048,0.038
0.049,0.041
0.047,0.041
0.046,0.042
0.044,0.040
0.047,0.039
0.046,0.043
0.048,0.043
0.046,0.047
0.048,0.047
0.049,0.049
0.048,0.047
0.051,0.047
0.050,0.047
0.049,0.046
0.049,0.044
0.051,0.045
0.050,0.044
0.047,0.044
0.048,0.044
0.047,0.046
0.045,0.047
0.046,0.046
0.048,0.049
0.047,0.043
0.052,0.045
0.049,0.045
0.049,0.045
0.046,0.050
0.048,0.046
0.045,0.049
0.047,0.045
0.048,0.046
0.048,0.044
0.049,0.044
0.047,0.043
0.049,0.043
0.048,0.038
0.047,0.038
0.044,0.043
0.046,0.042
0.044,0.041
0.045,0.038
0.050,0.036
0.048,0.035
0.050,0.033
0.052,0.036
0.049,0.032
0.047,0.037
0.046,0.031
0.046,0.032
0.048,0.029
0.051,0.029
0.047,0.026
0.051,0.027
0.048,0.028
0.049,0.027
0.049,0.026
0.051,0.027
0.050,0.024
0.050,0.021
0.051,0.020
0.049,0.018
0.048,0.016
0.052,0.015
0.051,0.015
0.049,0.012
0.050,0.015
0.048,0.011
0.049,0.014
0.048,0.011
0.047,0.011
0.048,0.011
0.048,0.012
0.050,0.009
0.049,0.009
0.051,0.006
0.050,0.008
0.051,0.003
0.049,0.003
0.047,0.004
0.047,0.004
0.047,0.006
0.048,0.000
0.047,0.006
0.045,0.002
0.050,0.002
0.048,0.003
0.051,0.003
0.049,0.003
0.053,-0.002
0.051,0.002
0.049,-0.003
0.048,-0.002
0.049,-0.003
0.049,-0.000
0.047,-0.005
0.049,-0.001
0.047,0.000
0.050,0.001
0.045,-0.001
0.049,-0.002
0.047,0.001
0.049,-0.004
0.049,-0.004
0.051,-0.001
0.052,-0.003
0.049,-0.003
0.049,-0.003
0.046,-0.000
0.047,-0.001
0.047,0.006
0.046,0.006
0.046,0.004
0.044,0.005
0.046,0.005
0.049,0.004
0.046,0.006
0.047,0.001
0.045,0.004
0.045,0.008
0.043,0.006
0.044,0.010
0.045,0.009
0.046,0.009
0.043,0.007
0.048,0.010
0.047,0.009
0.047,0.012
0.045,0.012
0.047,0.013
0.044,0.012
0.047,0.014
0.042,0.016
0.043,0.017
0.042,0.019
0.044,0.017
0.043,0.020
0.043,0.018
0.041,0.022
0.040,0.019
0.042,0.022
0.040,0.022
0.042,0.025
0.039,0.026
0.042,0.030
0.039,0.030
0.043,0.032
0.042,0.032
0.046,0.032
0.047,0.030
0.047,0.032
0.045,0.027
0.049,0.031
0.045,0.029
0.046,0.033
0.045,0.033
0.045,0.036
0.044,0.037
0.042,0.034
0.044,0.039
0.044,0.041
0.044,0.042
0.043,0.040
0.042,0.041
0.041,0.041
0.045,0.040
0.042,0.038
0.045,0.040
0.042,0.040
0.043,0.041
0.041,0.042
0.042,0.044
0.039,0.047
0.041,0.043
0.039,0.047
0.042,0.044
0.043,0.045
0.044,0.043
0.046,0.044
0.045,0.043
0.045,0.044
0.045,0.046
0.044,0.045
0.043,0.046
0.042,0.044
0.042,0.047
0.041,0.045
0.045,0.047
0.044,0.047
0.045,0.047
0.045,0.049
0.045,0.046
0.044,0.047
0.045,0.047
0.045,0.046
0.044,0.048
0.045,0.046
0.044,0.043
0.047,0.043
0.047,0.039
0.047,0.039
0.047,0.041
0.046,0.040
0.044,0.039
0.047,0.039
0.048,0.038
0.048,0.034
0.052,0.034
0.048,0.034
0.050,0.035
0.049,0.034
0.050,0.033
0.047,0.035
0.052,0.033
0.049,0.033
0.051,0.028
0.051,0.030
0.051,0.027
0.049,0.027
0.051,0.028
0.049,0.028
0.050,0.030
0.049,0.025
0.048,0.026
0.051,0.024
0.047,0.024
0.053,0.021
0.048,0.020
0.049,0.016
0.046,0.019
0.049,0.016
0.049,0.016
0.049,0.012
0.046,0.010
0.047,0.011
0.047,0.011
0.049,0.010
0.049,0.012
0.049,0.008
0.050,0.010
0.047,0.006
0.051,0.007
0.050,0.007
0.053,0.002
0.049,0.009
0.050,0.006
0.046,0.008
0.049,0.005
0.050,0.006
0.050,0.006
0.054,0.005
0.054,0.002
0.052,0.001
0.053,0.006
0.051,0.002
0.052,0.002
0.050,0.000
0.053,-0.001
0.050,-0.002
0.052,-0.002
0.050,-0.002
0.050,-0.003
0.050,0.002
0.048,0.001
0.050,0.003
0.047,0.001
0.051,0.001
0.049,-0.002
0.052,0.000
0.051,-0.001
0.050,-0.000
0.050,0.001
0.050,0.002
0.049,0.001
0.046,-0.001
0.046,0.001
0.046,0.000
0.046,-0.001
0.044,-0.000
0.045,0.002
0.047,0.001
0.046,0.003
0.047,0.006
0.046,0.006
0.043,0.009
0.045,0.010
0.046,0.010
0.045,0.008
0.048,0.009
0.047,0.009
0.047,0.012
0.046,0.013
0.047,0.010
0.045,0.012
0.046,0.011
0.045,0.015
0.044,0.014
0.048,0.019
0.048,0.014
0.049,0.018
0.047,0.017
0.049,0.016
0.047,0.017
0.049,0.016
0.046,0.020
0.049,0.019
0.047,0.023
0.045,0.023
0.046,0.024
0.044,0.024
0.045,0.028
0.048,0.028
0.047,0.032
0.045,0.032
0.044,0.033
0.046,0.033
0.046,0.035
0.047,0.033
0.047,0.035
0.048,0.034
0.045,0.038
0.043,0.036
0.047,0.036
0.043,0.034
0.047,0.036
0.046,0.038
0.046,0.037
0.044,0.041
0.045,0.042
0.043,0.043
0.045,0.039
0.047,0.042
0.044,0.041
0.047,0.041
0.042,0.040
0.046,0.041
0.042,0.041
0.044,0.042
0.041,0.044
0.042,0.046
0.042,0.047
0.047,0.048
0.043,0.049
0.046,0.049
0.047,0.049
0.047,0.045
0.048,0.047
0.047,0.043
0.046,0.045
0.046,0.045
0.043,0.047
0.043,0.047
0.044,0.049
0.043,0.048
0.042,0.050
0.043,0.049
0.043,0.047
0.045,0.048
0.045,0.049
0.048,0.045
0.047,0.047
0.045,0.046
0.046,0.045
0.047,0.043
0.052,0.040
0.050,0.040
0.049,0.040
0.051,0.042
0.053,0.040
0.048,0.042
0.050,0.040
0.047,0.042
0.046,0.039
0.046,0.040
0.044,0.037
0.046,0.037
0.046,0.035
0.048,0.034
0.049,0.036
0.050,0.032
0.049,0.034
0.049,0.032
0.050,0.033
0.048,0.032
0.052,0.031
0.048,0.029
0.050,0.027
0.052,0.026
0.050,0.029
0.051,0.024
0.053,0.023
0.053,0.022
0.054,0.022
0.055,0.019
0.053,0.017
0.050,0.018
0.054,0.016
0.050,0.016
0.051,0.011
0.049,0.013
0.050,0.011
0.049,0.014
0.050,0.014
0.047,0.014
0.049,0.011
0.050,0.011
0.047,0.010
0.050,0.008
0.047,0.008
0.046,0.005
0.047,0.007
0.047,0.006
0.046,0.007
0.046,0.005
0.047,0.006
0.046,0.006
0.049,0.006
0.048,0.004
0.049,0.002
0.050,0.001
0.047,-0.000
0.049,0.002
0.049,0.004
0.049,0.004
0.050,0.000
0.049,0.000
0.048,-0.003
0.049,-0.001
0.046,-0.003
0.050,-0.002
0.050,-0.001
0.050,-0.003
0.049,0.001
0.049,-0.002
0.047,-0.001
0.047,-0.002
0.049,-0.002
0.049,-0.002
0.051,-0.001
0.049,-0.002
0.050,-0.001
0.046,0.002
0.050,-0.001
0.047,0.000
0.046,0.003
0.045,0.004
0.045,0.004
0.048,0.003
0.046,0.005
0.049,0.004
0.048,0.004
0.046,0.005
0.044,0.007
0.045,0.008
0.045,0.008
0.043,0.011
0.044,0.010
0.045,0.014
0.046,0.013
0.047,0.013
0.049,0.010
0.048,0.010
0.046,0.013
0.045,0.015
0.045,0.014
0.041,0.017
0.044,0.016
0.044,0.015
0.044,0.015
0.044,0.016
0.043,0.013
0.049,0.015
0.044,0.016
0.047,0.019
0.046,0.019
0.047,0.021
0.041,0.022
0.045,0.024
0.044,0.024
0.045,0.029
0.046,0.026
0.046,0.030
0.045,0.026
0.046,0.032
0.045,0.027
0.046,0.030
0.045,0.032
0.046,0.033
0.046,0.034
0.047,0.032
0.044,0.037
0.046,0.035
0.043,0.037
0.042,0.036
0.045,0.040
0.043,0.037
0.049,0.039
0.047,0.037
0.049,0.036
0.049,0.039
0.047,0.036
0.044,0.039
0.046,0.037
0.043,0.040
0.045,0.038
0.046,0.042
0.044,0.042
0.048,0.040
0.046,0.039
0.048,0.041
0.047,0.041
0.049,0.041
0.047,0.044
0.047,0.043
0.044,0.045
0.044,0.044
0.045,0.042
0.045,0.039
0.046,0.043
0.043,0.043
0.044,0.043
0.044,0.047
0.046,0.045
0.040,0.047
0.045,0.046
0.043,0.046
0.047,0.046
0.047,0.047
0.048,0.043
0.049,0.043
0.046,0.043
0.046,0.040
0.045,0.043
0.048,0.039
0.047,0.041
0.047,0.039
0.049,0.036
0.045,0.035
0.050,0.035
0.047,0.032
0.050,0.033
0.048,0.036
0.048,0.033
0.047,0.036
0.048,0.033
0.051,0.035
0.050,0.031
0.052,0.033
0.048,0.028
0.052,0.029
0.048,0.030
0.051,0.027
0.048,0.028
0.050,0.029
0.045,0.030
0.050,0.027
0.047,0.029
0.052,0.026
0.048,0.024
0.049,0.023
0.050,0.023
0.049,0.018
0.049,0.018
0.046,0.016
0.047,0.014
0.047,0.013
0.047,0.017
0.047,0.014
0.049,0.014
0.046,0.010
0.051,0.013
0.049,0.007
0.051,0.009
0.049,0.008
0.049,0.009
0.049,0.009
0.048,0.005
0.046,0.008
0.048,0.003
0.049,0.006
0.049,0.000
0.051,0.002
0.049,0.003
0.050,0.004
0.048,0.004
0.049,0.001
0.045,0.004
0.049,0.000
0.049,-0.003
0.051,-0.003
0.051,-0.003
0.052,-0.003
0.053,-0.005
0.051,-0.001
0.049,-0.004
0.049,0.001
0.049,-0.003
0.049,-0.003
0.046,-0.003
0.050,-0.002
0.049,-0.003
0.052,-0.002
0.051,-0.001
0.049,-0.003
0.048,-0.002
0.046,-0.003
0.046,-0.001
0.046,-0.002
0.047,-0.003
0.046,-0.003
0.049,-0.001
0.049,-0.003
0.047,-0.001
0.045,0.004
0.046,0.002
0.044,0.005
0.044,0.004
0.045,0.007
0.046,0.003
0.048,0.006
0.044,0.003
0.049,0.006
0.048,0.006
0.048,0.007
0.044,0.009
0.046,0.008
0.042,0.011
0.047,0.011
0.043,0.011
0.045,0.011
0.047,0.013
0.048,0.012
0.047,0.011
0.046,0.011
0.046,0.011
0.047,0.016
0.045,0.016
0.046,0.016
0.046,0.017
0.046,0.017
0.045,0.017
0.044,0.020
0.047,0.019
0.042,0.024
0.049,0.023
0.043,0.026
0.045,0.025
0.042,0.028
0.043,0.031
0.043,0.028
0.046,0.030
0.045,0.029
0.045,0.030
0.042,0.030
0.045,0.028
0.042,0.031
0.043,0.034
0.042,0.035
0.043,0.035
0.044,0.038
0.045,0.037
0.045,0.037
0.043,0.041
0.046,0.039
0.043,0.041
0.046,0.037
0.046,0.038
0.045,0.037
0.048,0.036
0.045,0.037
0.049,0.038
0.045,0.042
0.045,0.041
0.045,0.045
0.046,0.044
0.044,0.045
0.045,0.045
0.049,0.043
0.045,0.042
0.049,0.045
0.049,0.039
0.047,0.042
0.050,0.042
0.051,0.040
0.047,0.041
0.046,0.043
0.044,0.044
0.045,0.044
0.049,0.046
0.045,0.043
0.049,0.045
0.047,0.042
0.054,0.042
0.052,0.044
0.052,0.041
0.049,0.044
0.049,0.041
0.051,0.042
0.047,0.043
0.049,0.042
0.049,0.040
0.053,0.039
0.052,0.035
0.050,0.036
0.049,0.036
0.048,0.036
0.047,0.037
0.046,0.039
0.049,0.039
0.047,0.035
0.050,0.036
0.050,0.032
0.049,0.032
0.051,0.033
0.048,0.030
0.047,0.033
0.048,0.029
0.048,0.026
0.047,0.026
0.048,0.026
0.049,0.026
0.051,0.026
0.051,0.023
0.049,0.023
0.051,0.021
0.052,0.021
0.051,0.018
0.053,0.014
0.054,0.013
0.052,0.010
0.052,0.011
0.054,0.012
0.053,0.012
0.051,0.008
0.053,0.012
0.049,0.008
0.050,0.011
0.051,0.007
0.050,0.007
0.052,0.007
0.050,0.008
0.051,0.007
0.051,0.004
0.050,0.003
0.051,0.005
0.048,0.003
0.048,0.000
0.047,0.005
0.049,0.001
0.049,0.004
0.048,0.004
0.047,0.004
0.047,0.000
0.050,0.002
0.051,-0.002
0.053,-0.003
0.049,-0.001
0.051,-0.002
0.050,0.000
0.050,-0.003
0.049,-0.001
0.050,-0.005
0.052,-0.003
0.050,-0.003
0.051,-0.006
0.049,-0.002
0.051,-0.002
0.046,-0.003
0.051,-0.002
0.050,-0.002
0.049,-0.003
0.051,-0.001
0.050,0.000
0.051,-0.005
0.049,0.001
0.049,0.000
0.049,0.001
0.048,-0.000
0.046,0.001
0.049,0.001
0.049,0.003
0.049,0.001
0.049,0.003
0.049,0.003
0.049,0.004
0.049,0.007
0.048,0.007
0.049,0.010
0.047,0.004
0.046,0.010
0.046,0.010
0.049,0.010
0.045,0.008
0.049,0.010
0.045,0.012
0.047,0.011
0.047,0.013
0.046,0.011
0.042,0.017
0.044,0.014
0.043,0.015
0.043,0.012
0.046,0.016
0.043,0.015
0.047,0.015
0.041,0.015
0.047,0.019
0.043,0.017
0.048,0.021
0.044,0.020
0.046,0.023
0.042,0.025
0.045,0.028
0.044,0.025
0.046,0.030
0.043,0.028
0.046,0.030
0.046,0.030
0.045,0.034
0.043,0.032
0.046,0.033
0.042,0.036
0.043,0.032
0.045,0.037
0.043,0.036
0.044,0.040
0.042,0.042
0.044,0.040
0.044,0.037
0.046,0.040
0.046,0.037
0.049,0.039
0.048,0.036
0.045,0.038
0.043,0.041
0.044,0.040
0.041,0.042
0.043,0.044
0.041,0.045
0.044,0.044
0.046,0.049
0.047,0.043
0.046,0.045
0.046,0.047
0.049,0.045
0.046,0.049
0.049,0.043
0.045,0.045
0.047,0.045
0.047,0.047
0.047,0.044
0.046,0.043
0.047,0.045
0.047,0.044
0.044,0.049
0.046,0.045
0.045,0.050
0.046,0.047
0.047,0.050
0.046,0.049
0.049,0.047
0.048,0.044
0.047,0.044
0.046,0.046
0.044,0.044
0.047,0.047
0.046,0.044
0.047,0.042
0.047,0.041
0.050,0.040
0.049,0.040
0.048,0.039
0.049,0.039
0.048,0.039
0.047,0.039
0.049,0.036
0.047,0.036
0.046,0.032
0.050,0.034
0.048,0.030
0.049,0.029
0.046,0.029
0.050,0.029
0.046,0.031
0.049,0.027
0.044,0.028
0.049,0.023
0.045,0.026
0.048,0.024
0.046,0.025
0.049,0.025
0.049,0.022
0.048,0.018
0.049,0.018
0.049,0.015
0.049,0.015
0.049,0.012
0.049,0.013
0.049,0.012
0.049,0.012
0.051,0.010
0.052,0.011
0.052,0.006
0.051,0.006
0.048,0.005
0.050,0.005
0.049,0.006
0.051,0.004
0.048,0.009
0.050,0.005
0.046,0.006
0.049,0.003
0.050,0.001
0.049,0.001
0.050,-0.000
0.049,0.003
0.049,-0.000
0.049,0.004
0.050,0.004
0.049,0.002
0.050,0.000
0.053,0.001
0.051,0.000
0.051,-0.003
0.050,-0.000
0.049,-0.004
0.050,-0.002
0.050,-0.004
0.049,-0.001
0.048,-0.003
0.051,0.000
0.051,-0.003
0.051,-0.003
0.050,-0.005
0.051,-0.001
0.050,-0.005
0.051,-0.003
0.048,-0.001
0.048,-0.002
0.046,-0.000
0.049,-0.002
0.047,0.000
0.047,-0.002
0.049,0.003
0.047,0.000
0.047,0.004
0.046,0.004
0.047,0.005
0.045,0.010
0.047,0.008
0.047,0.006
0.049,0.008
0.049,0.007
0.046,0.008
0.046,0.007
0.045,0.009
0.044,0.009
0.047,0.011
0.045,0.011
0.045,0.013
0.043,0.011
0.046,0.011
0.044,0.012
0.045,0.014
0.045,0.013
0.047,0.012
0.046,0.015
0.043,0.017
0.047,0.017
0.044,0.015
0.045,0.019
0.045,0.015
0.046,0.017
0.046,0.016
0.042,0.019
0.043,0.020
0.042,0.024
0.043,0.023
0.041,0.026
0.041,0.028
0.041,0.032
0.043,0.029
0.043,0.033
0.039,0.032
0.042,0.032
0.042,0.030
0.044,0.032
0.043,0.031
0.045,0.030
0.043,0.030
0.045,0.032
0.045,0.032
0.043,0.034
0.047,0.034
0.044,0.036
0.044,0.040
0.045,0.038
0.043,0.040
0.043,0.037
0.045,0.039
0.043,0.036
0.047,0.040
0.046,0.039
0.045,0.040
0.042,0.044
0.043,0.043
0.042,0.047
0.043,0.044
0.042,0.050
0.044,0.046
0.044,0.047
0.043,0.047
0.047,0.046
0.043,0.043
0.045,0.043
0.043,0.047
0.044,0.044
0.042,0.044
0.043,0.045
0.043,0.046
0.042,0.047
0.043,0.045
0.044,0.047
0.044,0.048
0.044,0.047
0.045,0.047
0.047,0.049
0.045,0.048
0.045,0.045
0.044,0.047
0.048,0.045
0.047,0.042
0.047,0.041
0.048,0.042
0.047,0.040
0.048,0.041
0.048,0.038
0.046,0.040
0.045,0.039
0.050,0.038
0.047,0.038
0.052,0.037
0.047,0.035
0.051,0.037
0.048,0.036
0.048,0.035
0.048,0.034
0.050,0.032
0.048,0.032
0.049,0.031
0.050,0.031
0.050,0.026
0.051,0.029
0.047,0.026
0.049,0.024
0.050,0.023
0.051,0.021
0.050,0.025
0.051,0.019
0.049,0.020
0.053,0.017
0.050,0.018
0.051,0.013
0.049,0.013
0.051,0.011
0.049,0.013
0.050,0.010
0.047,0.011
0.049,0.010
0.045,0.009
0.048,0.009
0.046,0.008
0.045,0.005
0.048,0.004
0.050,0.003
0.050,0.006
0.051,0.003
0.049,0.000
0.050,0.002
0.050,0.002
0.048,0.000
0.049,0.004
0.045,0.003
0.046,0.002
0.047,0.002
0.047,-0.002
0.049,0.001
0.050,0.000
0.050,-0.003
0.050,-0.000
0.049,-0.002
0.049,-0.002
0.048,-0.003
0.049,-0.004
0.046,-0.003
0.049,-0.005
0.047,-0.002
0.048,-0.003
0.050,-0.001
0.048,0.000
0.049,0.001
0.048,0.001
0.050,-0.003
0.050,-0.005
0.052,-0.002
0.050,-0.006
0.051,-0.004
0.049,-0.001
0.051,0.000
0.046,0.003
0.047,0.003
0.045,0.001
0.048,0.002
0.049,0.003
0.048,0.003
0.050,0.005
0.049,0.007
0.050,0.006
0.050,0.009
0.049,0.009
0.045,0.012
0.046,0.009
0.046,0.011
0.047,0.012
0.048,0.011
0.047,0.009
0.045,0.011
0.043,0.014
0.043,0.012
0.042,0.016
0.041,0.017
0.042,0.017
0.043,0.014
0.047,0.019
0.044,0.015
0.049,0.016
0.043,0.015
0.047,0.015
0.045,0.017
0.047,0.017
0.046,0.019
0.043,0.019
0.046,0.020
0.043,0.023
0.042,0.023
0.042,0.026
0.041,0.029
0.043,0.029
0.044,0.033
0.044,0.030
0.044,0.034
0.043,0.030
0.044,0.032
0.042,0.034
0.046,0.036
0.045,0.033
0.045,0.037
0.043,0.035
0.046,0.034
0.045,0.034
0.046,0.036
0.047,0.037
0.046,0.035
0.048,0.038
0.045,0.038
0.047,0.040
0.047,0.041
0.048,0.044
0.047,0.043
0.045,0.044
0.045,0.043
0.045,0.045
0.044,0.046
0.050,0.050
0.046,0.047
0.047,0.046
0.045,0.050
0.046,0.047
0.040,0.049
0.042,0.045
0.045,0.045
0.041,0.044
0.047,0.044
0.045,0.043
0.046,0.046
0.044,0.045
0.043,0.048
0.045,0.050
0.046,0.049
0.043,0.050
0.045,0.047
0.044,0.051
0.047,0.048
0.048,0.047
0.047,0.046
0.049,0.044
0.044,0.046
0.050,0.045
0.045,0.046
0.048,0.043
0.048,0.042
0.049,0.040
0.051,0.039
0.051,0.039
0.051,0.041
0.050,0.040
0.050,0.036
0.050,0.039
0.048,0.036
0.049,0.039
0.048,0.036
0.051,0.036
0.050,0.034
0.052,0.030
0.050,0.032
0.054,0.029
0.050,0.033
0.051,0.031
0.050,0.032
0.047,0.030
0.051,0.029
0.046,0.027
0.047,0.028
0.047,0.025
0.053,0.028
0.050,0.024
0.051,0.023
0.050,0.018
0.054,0.021
0.049,0.016
0.053,0.018
0.049,0.013
0.052,0.012
0.050,0.013
0.051,0.012
0.052,0.011
0.050,0.010
0.051,0.010
0.051,0.010
0.052,0.013
0.049,0.011
0.048,0.012
0.049,0.008
0.049,0.007
0.049,0.004
0.051,0.003
0.050,0.001
0.053,0.002
0.051,0.001
0.051,0.001
0.050,0.006
0.054,0.002
0.051,0.005
0.051,0.003
0.050,0.003
0.054,-0.000
0.055,-0.002
0.054,-0.002
0.056,-0.004
0.053,-0.001
0.053,-0.005
0.051,-0.002
0.051,-0.003
0.053,-0.003
0.051,-0.002
0.052,-0.001
0.051,-0.004
0.050,-0.003
0.050,0.002
0.048,-0.002
0.049,-0.001
0.047,-0.001
0.047,-0.001
0.048,0.000
0.052,0.001
0.049,0.002
0.050,0.003
0.052,0.009
0.047,0.007
0.049,0.008
0.046,0.005
0.044,0.006
0.045,0.007
0.046,0.006
0.045,0.005
0.048,0.007
0.043,0.006
0.045,0.008
0.044,0.010
0.045,0.011
0.043,0.013
0.043,0.011
0.044,0.014
0.044,0.016
0.046,0.012
0.046,0.013
0.046,0.016
0.045,0.013
0.046,0.015
0.047,0.017
0.045,0.018
0.045,0.018
0.047,0.020
0.043,0.020
0.049,0.018
0.043,0.017
0.046,0.016
0.043,0.021
0.046,0.021
0.043,0.025
0.045,0.026
0.042,0.029
0.042,0.030
0.043,0.030
0.043,0.032
0.042,0.031
0.047,0.033
0.044,0.036
0.047,0.032
0.043,0.034
0.042,0.032
0.044,0.034
0.041,0.034
0.043,0.035
0.041,0.034
0.045,0.035
0.042,0.035
0.043,0.041
0.043,0.041
0.043,0.040
0.043,0.040
0.048,0.040
0.044,0.041
0.044,0.040
0.047,0.041
0.045,0.041
0.045,0.042
0.045,0.042
0.044,0.043
0.045,0.049
0.043,0.045
0.044,0.048
0.042,0.047
0.046,0.045
0.044,0.043
0.048,0.045
0.046,0.046
0.045,0.047
0.048,0.047
0.045,0.046
0.045,0.049
0.043,0.046
0.041,0.048
0.043,0.047
0.044,0.048
0.043,0.044
0.046,0.048
0.043,0.047
0.045,0.048
0.045,0.049
0.049,0.049
0.043,0.046
0.047,0.045
0.047,0.046
0.049,0.042
0.049,0.046
0.049,0.040
0.049,0.041
0.048,0.041
0.050,0.041
0.046,0.043
0.049,0.042
0.046,0.042
0.049,0.039
0.047,0.039
0.049,0.036
0.050,0.037
0.051,0.036
0.050,0.035
0.049,0.038
0.049,0.035
0.047,0.035
0.047,0.032
0.049,0.032
0.047,0.029
0.052,0.032
0.048,0.030
0.049,0.030
0.047,0.030
0.048,0.026
0.048,0.024
0.046,0.022
0.050,0.023
0.049,0.021
0.051,0.021
0.049,0.017
0.049,0.018
0.049,0.015
0.049,0.018
0.049,0.015
0.046,0.016
0.047,0.015
0.045,0.017
0.045,0.014
0.049,0.012
0.047,0.010
0.051,0.010
0.047,0.006
0.052,0.007
0.046,0.006
0.047,0.005
0.049,0.008
0.047,0.006
0.049,0.007
0.049,0.004
0.051,0.003
0.049,0.001
0.050,0.004
0.048,0.001
0.051,0.001
0.050,0.004
0.050,0.002
0.049,0.003
0.053,0.001
0.051,-0.002
0.049,-0.002
0.049,-0.004
0.049,-0.003
0.047,-0.001
0.049,-0.003
0.046,-0.003
0.047,-0.002
0.045,-0.002
0.048,0.000
0.048,-0.001
0.048,-0.001
0.049,-0.003
0.052,-0.003
0.051,-0.003
0.049,-0.005
0.049,-0.001
0.047,-0.005
0.045,-0.001
0.043,-0.001
0.045,-0.001
0.046,0.000
0.046,0.003
0.045,-0.001
0.045,0.002
0.045,0.002
0.048,0.003
0.044,0.005
0.047,0.004
0.042,0.007
0.044,0.005
0.046,0.008
0.046,0.007
0.046,0.010
0.046,0.010
0.047,0.009
0.044,0.010
0.045,0.008
0.041,0.010
0.042,0.009
0.044,0.012
0.045,0.010
0.045,0.014
0.045,0.013
0.045,0.015
0.046,0.015
0.049,0.013
0.047,0.016
0.047,0.015
0.047,0.016
0.043,0.018
0.046,0.023
0.045,0.022
0.044,0.025
0.044,0.023
0.046,0.024
0.043,0.026
0.047,0.026
0.045,0.031
0.044,0.031
0.044,0.029
0.045,0.035
0.048,0.030
0.043,0.034
0.047,0.032
0.043,0.034
0.044,0.035
0.043,0.036
0.044,0.036
0.043,0.039
0.045,0.036
0.045,0.037
0.045,0.036
0.045,0.038
0.042,0.037
0.046,0.037
0.045,0.041
0.049,0.037
0.043,0.041
0.043,0.039
0.043,0.041
0.042,0.040
0.045,0.043
0.045,0.045
0.045,0.043
0.045,0.046
0.045,0.044
0.044,0.047
0.042,0.044
0.045,0.047
0.043,0.042
0.048,0.045
0.045,0.041
0.047,0.042
0.041,0.044
0.044,0.043
0.041,0.046
0.043,0.044
0.045,0.045
0.045,0.045
0.045,0.046
0.040,0.044
0.048,0.043
0.045,0.042
0.048,0.043
0.046,0.046
0.046,0.044
0.043,0.045
0.043,0.045
0.045,0.042
0.047,0.043
0.046,0.040
0.048,0.041
0.049,0.041
0.047,0.037
0.050,0.038
0.049,0.039
0.049,0.035
0.047,0.035
0.051,0.035
0.048,0.033
0.049,0.032
0.049,0.031
0.048,0.028
0.050,0.030
0.048,0.031
0.050,0.028
0.048,0.029
0.049,0.025
0.049,0.029
0.049,0.025
0.051,0.028
0.047,0.024
0.051,0.026
0.048,0.022
0.054,0.020
0.046,0.019
0.051,0.018
0.047,0.015
0.050,0.014
0.049,0.012
0.049,0.012
0.049,0.010
0.050,0.014
0.051,0.013
0.051,0.011
0.050,0.010
0.051,0.009
0.051,0.008
0.051,0.003
0.049,0.007
0.052,0.006
0.050,0.008
0.049,0.006
0.050,0.007
0.047,0.004
0.049,0.003
0.048,0.002
0.050,0.001
0.050,0.001
0.050,0.001
0.051,0.003
0.051,0.003
0.053,0.001
0.049,-0.002
0.052,-0.001
0.053,-0.004
0.052,-0.004
0.051,-0.003
0.053,-0.004
0.050,-0.003
0.054,-0.002
0.048,-0.002
0.051,-0.001
0.050,-0.001
0.049,-0.003
0.053,-0.001
0.052,-0.004
0.051,-0.005
0.050,-0.000
0.051,-0.001
0.047,-0.002
0.047,-0.001
0.045,-0.001
0.046,-0.002
0.047,0.002
0.048,-0.001
0.048,0.002
0.047,0.004
0.048,0.002
0.047,0.007
0.046,0.004
0.047,0.009
0.046,0.004
0.047,0.006
0.045,0.004
0.050,0.006
0.047,0.003
0.047,0.007
0.047,0.008
0.047,0.006
0.045,0.011
0.045,0.010
0.045,0.013
0.043,0.012
0.048,0.013
0.044,0.010
0.048,0.013
0.048,0.012
0.046,0.014
0.048,0.017
0.046,0.017
0.045,0.018
0.047,0.017
0.044,0.019
0.046,0.015
0.043,0.021
0.047,0.018
0.045,0.024
0.042,0.021
0.040,0.030
0.041,0.028
0.040,0.029
0.043,0.029
0.046,0.030
0.043,0.030
0.046,0.033
0.043,0.033
0.045,0.034
0.045,0.033
0.049,0.034
0.044,0.032
0.048,0.034
0.047,0.034
0.047,0.035
0.048,0.035
0.047,0.035
0.047,0.035
0.049,0.038
0.048,0.041
0.047,0.039
0.046,0.042
0.047,0.040
0.049,0.042
0.049,0.037
0.047,0.037
0.048,0.040
0.048,0.040
0.046,0.044
0.046,0.045
0.045,0.047
0.046,0.049
0.047,0.049
0.045,0.045
0.048,0.046
0.050,0.041
0.050,0.044
0.050,0.043
0.048,0.045
0.048,0.046
0.047,0.046
0.043,0.048
0.046,0.046
0.048,0.049
0.048,0.049
0.048,0.049
0.050,0.045
0.051,0.045
0.053,0.048
0.052,0.044
0.049,0.046
0.052,0.046
0.051,0.048
0.050,0.044
0.053,0.045
0.049,0.041
0.051,0.043
0.049,0.041
0.054,0.041
0.048,0.043
0.047,0.038
0.047,0.042
0.048,0.036
0.050,0.038
0.051,0.036
0.054,0.036
0.052,0.034
0.053,0.034
0.052,0.034
0.052,0.031
0.047,0.032
0.050,0.033
0.049,0.030
0.050,0.029
0.051,0.029
0.051,0.027
0.049,0.027
0.049,0.028
0.049,0.027
0.050,0.026
0.052,0.025
0.051,0.023
0.053,0.022
0.051,0.023
0.051,0.017
0.049,0.017
0.051,0.015
0.050,0.014
0.052,0.013
0.049,0.014
0.053,0.012
0.049,0.012
0.050,0.011
0.050,0.012
0.051,0.010
0.050,0.009
0.049,0.005
0.052,0.008
0.053,0.004
0.054,0.004
0.052,0.003
0.054,0.001
0.051,0.005
0.052,0.003
0.052,0.004
0.050,0.004
0.050,0.002
0.052,0.001
0.055,0.001
0.055,-0.001
0.052,0.000
0.052,0.001
0.051,-0.002
0.049,-0.001
0.052,-0.002
0.047,-0.003
0.049,-0.003
0.049,-0.002
0.051,-0.004
0.050,-0.002
0.050,-0.002
0.049,-0.002
0.047,0.002
0.048,0.001
0.046,0.003
0.047,-0.003
0.050,-0.001
0.046,-0.002
0.049,-0.002
0.049,-0.003
0.049,-0.003
0.044,0.002
0.046,0.002
0.042,0.004
0.044,0.003
0.047,0.008
0.044,0.003
0.046,0.008
0.048,0.007
0.047,0.007
0.047,0.010
0.049,0.008
0.046,0.010
0.048,0.009
0.045,0.012
0.043,0.009
0.046,0.008
0.046,0.007
0.046,0.010
0.044,0.010
0.047,0.008
0.047,0.011
0.045,0.015
0.045,0.017
0.043,0.015
0.044,0.016
0.043,0.015
0.047,0.017
0.045,0.020
0.047,0.017
0.047,0.019
0.046,0.020
0.044,0.021
0.043,0.022
0.045,0.022
0.041,0.022
0.042,0.024
0.043,0.026
0.044,0.026
0.045,0.028
0.043,0.028
0.042,0.029
0.043,0.029
0.039,0.029
0.043,0.032
0.044,0.031
0.041,0.031
0.040,0.033
0.041,0.034
0.040,0.033
0.039,0.035
0.042,0.036
0.038,0.035
0.041,0.036
0.039,0.037
0.040,0.038
0.041,0.039
0.043,0.039
0.042,0.036
0.043,0.041
0.041,0.037
0.040,0.042
0.039,0.038
0.041,0.041
0.040,0.042
0.043,0.041
0.041,0.043
0.046,0.042
0.045,0.046
0.042,0.044
0.042,0.046
0.044,0.041
0.042,0.044
0.041,0.044
0.043,0.043
0.042,0.042
0.045,0.045
0.042,0.039
0.042,0.042
0.041,0.044
0.045,0.044
0.041,0.045
0.044,0.046
0.041,0.046
0.040,0.045
0.041,0.048
0.044,0.044
0.045,0.046
0.045,0.042
0.046,0.044
0.044,0.047
0.046,0.044
0.043,0.044
0.044,0.043
0.045,0.041
0.046,0.038
0.046,0.041
0.049,0.041
0.047,0.041
0.047,0.040
0.046,0.038
0.044,0.037
0.046,0.035
0.045,0.036
0.046,0.033
0.046,0.034
0.048,0.029
0.048,0.032
0.046,0.028
0.047,0.027
0.045,0.031
0.046,0.028
0.043,0.029
0.047,0.027
0.044,0.027
0.045,0.023
0.048,0.025
0.048,0.022
0.050,0.021
0.050,0.020
0.051,0.020
0.049,0.018
0.050,0.018
0.048,0.012
0.048,0.013
0.044,0.011
0.049,0.011
0.046,0.010
0.052,0.009
0.048,0.007
0.049,0.005
0.049,0.009
0.050,0.006
0.049,0.009
0.047,0.007
0.049,0.006
0.047,0.006
0.048,0.004
0.046,0.000
0.049,0.003
0.048,0.000
0.049,0.002
0.047,0.001
0.048,0.001
0.045,0.002
0.047,0.004
0.048,0.000
0.050,0.001
0.049,-0.000
0.051,-0.005
0.049,-0.005
0.049,-0.001
0.047,-0.002
0.047,0.000
0.048,-0.003
0.047,-0.002
0.046,-0.002
0.050,-0.005
0.049,-0.005
0.048,-0.003
0.049,-0.003
0.052,-0.003
0.050,-0.001
0.047,-0.005
0.047,0.002
0.046,-0.003
0.044,0.001
0.046,-0.002
0.049,-0.002
0.043,-0.004
0.048,-0.003
0.045,0.003
0.047,0.002
0.045,0.006
0.049,0.005
0.044,0.003
0.045,0.004
0.049,0.003
0.047,0.004
0.047,0.004
0.044,0.007
0.047,0.005
0.048,0.011
0.049,0.009
0.045,0.009
0.046,0.009
0.045,0.012
0.046,0.011
0.047,0.010
0.046,0.012
0.048,0.012
0.047,0.013
0.047,0.015
0.048,0.016
0.045,0.014
0.044,0.017
0.046,0.018
0.042,0.018
0.044,0.017
0.040,0.020
0.044,0.019
0.041,0.022
0.045,0.021
0.040,0.024
0.040,0.024
0.041,0.027
0.043,0.031
0.041,0.033
0.043,0.034
0.039,0.034
0.044,0.032
0.043,0.031
0.044,0.032
0.046,0.033
0.043,0.028
0.043,0.031
0.042,0.031
0.044,0.034
0.043,0.035
0.047,0.036
0.042,0.040
0.042,0.040
0.042,0.041
0.043,0.042
0.042,0.041
0.045,0.040
0.045,0.042
0.047,0.040
0.045,0.041
0.044,0.040
0.046,0.040
0.046,0.044
0.042,0.041
0.042,0.045
0.042,0.046
0.043,0.049
0.042,0.048
0.047,0.045
0.047,0.044
0.049,0.043
0.046,0.046
0.044,0.043
0.046,0.047
0.044,0.043
0.045,0.046
0.042,0.045
0.042,0.046
0.044,0.045
0.047,0.047
0.046,0.044
0.048,0.048
0.046,0.045
0.047,0.044
0.045,0.046
0.047,0.043
0.044,0.046
0.044,0.044
0.047,0.047
0.044,0.044
0.048,0.042
0.044,0.041
0.046,0.041
0.045,0.043
0.046,0.044
0.043,0.044
0.045,0.041
0.047,0.040
0.045,0.038
0.049,0.035
0.049,0.036
0.049,0.036
0.050,0.037
0.049,0.033
0.049,0.036
0.046,0.033
0.047,0.032
0.048,0.030
0.051,0.030
0.051,0.029
0.050,0.028
0.049,0.028
0.048,0.027
0.050,0.027
0.048,0.025
0.049,0.027
0.048,0.024
0.050,0.023
0.048,0.021
0.050,0.021
0.050,0.017
0.051,0.017
0.051,0.016
0.050,0.017
0.051,0.014
0.049,0.016
0.050,0.014
0.050,0.013
0.048,0.012
0.053,0.012
0.047,0.011
0.050,0.008
0.049,0.007
0.049,0.002
0.052,0.006
0.048,0.004
0.049,0.007
0.049,0.006
0.048,0.008
0.048,0.006
0.048,0.004
0.046,0.003
0.052,0.004
0.047,0.003
0.047,0.004
0.047,0.002
0.047,0.003
0.046,0.003
0.049,0.001
0.045,-0.002
0.046,-0.004
0.045,-0.000
0.047,-0.000
0.047,0.001
0.048,0.000
0.048,0.000
0.044,0.003
0.047,-0.000
0.043,-0.001
0.045,-0.001
0.045,-0.004
0.045,-0.004
0.045,-0.002
0.045,-0.003
0.044,-0.002
0.046,0.002
0.043,0.002
0.044,0.001
0.044,0.001
0.045,0.003
0.044,0.001
0.044,0.003
0.045,0.003
0.046,0.004
0.045,0.005
0.047,0.007
0.044,0.010
0.044,0.008
0.044,0.009
0.044,0.006
0.045,0.008
0.045,0.006
0.048,0.009
0.047,0.010
0.047,0.008
0.045,0.013
0.045,0.012
0.043,0.016
0.042,0.015
0.041,0.014
0.041,0.012
0.047,0.015
0.044,0.016
0.046,0.017
0.046,0.016
0.047,0.013
0.046,0.014
0.048,0.015
0.049,0.015
0.045,0.019
0.047,0.020
0.046,0.023
0.047,0.021
0.046,0.026
0.043,0.025
0.046,0.027
0.042,0.028
0.045,0.026
0.042,0.030
0.043,0.030
0.044,0.031
0.044,0.031
0.040,0.034
0.042,0.034
0.042,0.034
0.044,0.036
0.042,0.038
0.043,0.037
0.044,0.037
0.044,0.036
0.045,0.037
0.045,0.035
0.047,0.036
0.043,0.036
0.043,0.038
0.040,0.043
0.046,0.042
0.044,0.042
0.041,0.040
0.043,0.045
0.042,0.043
0.044,0.043
0.045,0.045
0.047,0.045
0.044,0.049
0.043,0.044
0.045,0.047
0.045,0.043
0.051,0.043
0.044,0.039
0.048,0.045
0.045,0.044
0.047,0.041
0.045,0.046
0.044,0.043
0.043,0.048
0.040,0.046
0.043,0.047
0.043,0.047
0.046,0.047
0.046,0.047
0.047,0.044
0.044,0.045
0.048,0.043
0.046,0.045
0.047,0.043
0.046,0.041
0.048,0.040
0.047,0.040
0.050,0.040
0.047,0.039
0.047,0.039
0.047,0.038
0.045,0.041
0.047,0.037
0.043,0.039
0.046,0.036
0.044,0.035
0.047,0.034
0.049,0.034
0.050,0.031
0.049,0.027
0.049,0.028
0.049,0.027
0.046,0.029
0.048,0.030
0.048,0.031
0.047,0.031
0.048,0.028
0.045,0.026
0.048,0.028
0.048,0.024
0.051,0.024
0.053,0.021
0.054,0.020
0.053,0.014
0.053,0.016
0.052,0.012
0.054,0.013
0.053,0.011
0.051,0.010
0.050,0.009
0.049,0.011
0.052,0.010
0.051,0.010
0.050,0.013
0.049,0.008
0.048,0.011
0.048,0.005
0.049,0.005
0.048,0.002
0.049,0.005
0.048,0.002
0.049,0.000
0.049,0.001
0.049,-0.001
0.049,0.002
0.050,0.000
0.048,0.004
0.045,0.003
0.046,0.000
0.048,0.002
0.050,0.000
0.049,-0.003
0.052,-0.003
0.049,-0.006
0.049,-0.006
0.047,-0.003
0.049,-0.006
0.046,-0.005
0.049,-0.004
0.045,-0.002
0.049,-0.007
0.049,-0.002
0.047,-0.007
0.050,-0.006
0.049,-0.002
0.052,-0.004
0.046,-0.001
0.049,-0.004
0.046,-0.001
0.050,-0.002
0.052,-0.002
0.052,-0.004
0.051,-0.005
0.049,-0.001
0.048,-0.002
0.050,0.001
0.046,0.002
0.045,0.006
0.045,0.005
0.044,0.006
0.043,0.002
0.049,0.004
0.047,0.003
0.051,0.006
0.049,0.008
0.050,0.009
0.049,0.011
0.047,0.008
0.047,0.010
0.046,0.009
0.046,0.010
0.046,0.013
0.047,0.014
0.043,0.012
0.048,0.014
0.047,0.013
0.046,0.013
0.047,0.013
0.047,0.014
0.043,0.014
0.045,0.015
0.044,0.019
0.046,0.018
0.043,0.021
0.048,0.020
0.043,0.025
0.045,0.022
0.042,0.028
0.045,0.027
0.045,0.028
0.044,0.029
0.045,0.031
0.046,0.028
0.044,0.031
0.043,0.031
0.044,0.031
0.045,0.031
0.045,0.033
0.046,0.028
0.050,0.036
0.047,0.032
0.049,0.036
0.044,0.036
0.047,0.035
0.045,0.038
0.045,0.038
0.043,0.041
0.042,0.038
0.045,0.041
0.044,0.039
0.048,0.040
0.045,0.037
0.048,0.039
0.045,0.043
0.047,0.042
0.042,0.046
0.044,0.044
0.043,0.048
0.043,0.044
0.043,0.044
0.045,0.046
0.045,0.045
0.046,0.042
0.047,0.044
0.046,0.047
0.045,0.045
0.045,0.044
0.048,0.045
0.044,0.045
0.046,0.044
0.047,0.045
0.045,0.044
0.047,0.044
0.045,0.048
0.046,0.045
0.045,0.046
0.047,0.043
0.047,0.046
0.047,0.043
0.049,0.048
0.047,0.041
0.050,0.041
0.047,0.042
0.050,0.040
0.046,0.042
0.050,0.039
0.048,0.041
0.048,0.041
0.048,0.041
0.045,0.035
0.046,0.036
0.046,0.034
0.047,0.034
0.046,0.035
0.049,0.036
0.045,0.036
0.047,0.033
0.047,0.035
0.048,0.033
0.049,0.033
0.049,0.031
0.052,0.029
0.049,0.029
0.048,0.028
0.052,0.025
0.050,0.026
0.053,0.026
0.051,0.023
0.051,0.022
0.051,0.019
0.053,0.020
0.050,0.016
0.050,0.018
0.052,0.013
0.048,0.016
0.051,0.012
0.048,0.013
0.049,0.011
0.048,0.012
0.048,0.011
0.047,0.010
0.049,0.008
0.052,0.006
0.051,0.006
0.050,0.003
0.050,0.008
0.048,0.005
0.048,0.007
0.045,0.004
0.046,0.003
0.047,0.003
0.047,0.003
0.048,0.002
0.051,0.000
0.053,0.000
0.051,0.001
0.050,0.001
0.050,-0.002
0.050,-0.001
0.050,-0.002
0.051,0.001
0.050,-0.007
0.052,-0.004
0.050,-0.006
0.052,-0.004
0.052,-0.006
0.052,-0.005
0.051,-0.001
0.052,-0.006
0.052,-0.001
0.051,-0.002
0.052,-0.003
0.050,-0.005
0.052,-0.006
0.049,-0.004
0.049,-0.003
0.052,-0.001
0.050,-0.002
0.048,0.001
0.048,0.002
0.052,0.001
0.051,-0.002
0.051,-0.002
0.050,-0.002
0.049,-0.001
0.048,0.001
0.047,0.004
0.046,0.003
0.046,0.004
0.045,0.004
0.047,0.006
0.044,0.007
0.051,0.007
0.049,0.009
0.049,0.009
0.048,0.007
0.046,0.008
0.048,0.010
0.045,0.013
0.047,0.012
0.048,0.014
0.045,0.012
0.049,0.013
0.045,0.014
0.048,0.019
0.047,0.014
0.050,0.017
0.048,0.017
0.049,0.015
0.047,0.019
0.045,0.017
0.045,0.019
0.043,0.021
0.044,0.024
0.045,0.026
0.045,0.024
0.044,0.025
0.046,0.028
0.047,0.025
0.049,0.030
0.046,0.027
0.046,0.032
0.045,0.030
0.047,0.033
0.045,0.032
0.044,0.035
0.043,0.035
0.041,0.033
0.042,0.036
0.044,0.038
0.045,0.037
0.047,0.037
0.046,0.037
0.047,0.036
0.047,0.039
0.047,0.037
0.044,0.041
0.047,0.038
0.041,0.039
0.044,0.037
0.043,0.041
0.041,0.040
0.045,0.041
0.045,0.041
0.043,0.043
0.040,0.046
0.045,0.045
0.041,0.045
0.045,0.045
0.045,0.045
0.043,0.042
0.043,0.046
0.042,0.043
0.044,0.044
0.041,0.045
0.043,0.045
0.040,0.048
0.042,0.047
0.040,0.048
0.042,0.049
0.045,0.047
0.045,0.047
0.047,0.046
0.047,0.047
0.047,0.046
0.048,0.046
0.048,0.045
0.046,0.043
0.044,0.041
0.045,0.041
0.045,0.043
0.048,0.044
0.047,0.039
0.047,0.041
0.046,0.043
0.046,0.041
0.045,0.044
0.044,0.039
0.046,0.038
0.045,0.036
0.048,0.036
0.049,0.033
0.048,0.032
0.047,0.032
0.049,0.032
0.046,0.032
0.048,0.032
0.045,0.030
0.048,0.030
0.045,0.029
0.047,0.027
0.048,0.028
0.047,0.027
0.050,0.026
0.046,0.024
0.049,0.024
0.047,0.020
0.051,0.019
0.048,0.015
0.049,0.016
0.046,0.015
0.049,0.015
0.046,0.013
0.049,0.016
0.047,0.013
0.049,0.013
0.047,0.013
0.046,0.011
0.045,0.013
0.046,0.012
0.046,0.011
0.047,0.009
0.049,0.009
0.048,0.009
0.051,0.010
0.049,0.004
0.052,0.006
0.050,0.007
0.053,0.007
0.051,0.008
0.051,0.008
0.050,0.009
0.049,0.004
0.052,0.006
0.050,0.005
0.051,0.002
0.048,0.007
0.049,0.001
0.050,0.003
0.049,0.001
0.049,0.002
0.050,0.001
0.045,0.001
0.048,0.001
0.047,0.002
0.049,-0.000
0.047,-0.002
0.049,-0.003
0.050,-0.001
0.050,0.002
0.049,-0.000
0.048,0.002
0.048,0.001
0.050,0.003
0.045,0.004
0.048,0.002
0.043,0.002
0.047,-0.001
0.046,0.003
0.046,0.005
0.045,0.006
0.044,0.006
0.046,0.009
0.043,0.007
0.047,0.008
0.045,0.007
0.049,0.010
0.048,0.006
0.049,0.008
0.050,0.006
0.052,0.008
0.048,0.011
0.052,0.012
0.049,0.016
0.048,0.014
0.051,0.016
0.049,0.013
0.049,0.015
0.049,0.016
0.050,0.016
0.047,0.020
0.051,0.017
0.050,0.020
0.050,0.017
0.048,0.020
0.046,0.017
0.042,0.020
0.040,0.021
0.034,0.026
0.039,0.028
0.041,0.032
0.044,0.033
0.046,0.033
0.050,0.032
0.048,0.031
0.047,0.033
0.046,0.032
0.050,0.033
0.047,0.033
0.045,0.033
0.048,0.035
0.047,0.031
0.049,0.035
0.049,0.033
0.049,0.035
0.047,0.033
0.049,0.035
0.043,0.039
0.042,0.039
0.039,0.041
0.039,0.040
0.043,0.042
0.048,0.041
0.048,0.042
0.050,0.042
0.045,0.043
0.044,0.044
0.042,0.042
0.043,0.044
0.045,0.044
0.047,0.044
0.051,0.046
0.052,0.046
0.050,0.040
0.052,0.045
0.052,0.044
0.047,0.044
0.044,0.046
0.042,0.044
0.042,0.048
0.044,0.042
0.044,0.044
0.042,0.044
0.045,0.048
0.043,0.045
0.043,0.046
0.044,0.049
0.045,0.047
0.043,0.047
0.045,0.045
0.043,0.045
0.045,0.043
0.045,0.046
0.047,0.043
0.052,0.044
0.052,0.040
0.057,0.042
0.056,0.044
0.058,0.040
0.057,0.044
0.055,0.039
0.051,0.040
0.048,0.037
0.051,0.039
0.046,0.037
0.041,0.036
0.036,0.040
0.033,0.036
0.037,0.037
0.036,0.033
0.037,0.034
0.037,0.033
0.044,0.033
0.052,0.030
0.063,0.028
0.064,0.029
0.058,0.026
0.055,0.028
0.050,0.024
0.047,0.024
0.052,0.021
0.056,0.023
0.059,0.020
0.055,0.019
0.053,0.012
0.047,0.013
0.038,0.009
0.030,0.011
0.023,0.011
0.020,0.015
0.030,0.015
0.053,0.016
0.074,0.014
0.082,0.011
0.080,0.007
0.076,0.004
0.071,-0.002
0.065,-0.000
0.061,-0.003
0.054,-0.002
0.053,0.000
0.049,0.001
0.045,0.010
0.043,0.014
0.039,0.014
0.036,0.012
0.041,0.011
0.046,0.007
0.051,0.006
0.054,0.007
0.057,0.004
0.057,0.003
0.061,0.000
0.058,0.002
0.057,-0.004
0.058,-0.004
0.053,-0.007
0.052,-0.003
0.051,-0.002
0.051,-0.000
0.056,0.003
0.066,0.005
0.069,0.010
0.073,0.015
0.068,0.022
0.064,0.026
0.058,0.020
0.049,-0.003
0.041,-0.023
0.031,-0.025
0.021,-0.021
0.015,-0.014
0.022,-0.008
0.032,-0.002
0.034,-0.002
0.040,-0.001
0.044,-0.002
0.060,-0.001
0.065,0.000
0.064,0.001
0.054,0.005
0.054,0.005
0.056,0.007
0.056,0.008
0.057,0.015
0.054,0.015
0.053,0.019
0.052,0.020
0.051,0.016
0.050,0.018
0.055,0.017
0.060,0.018
0.062,0.021
0.060,0.023
0.050,0.023
0.044,0.027
0.034,0.032
0.018,0.039
0.008,0.047
0.004,0.056
0.026,0.063
0.049,0.062
0.061,0.057
0.063,0.050
0.057,0.044
0.054,0.048
0.051,0.052
0.050,0.044
0.044,0.028
0.047,0.003
0.043,-0.008
0.045,-0.010
0.044,0.002
0.047,0.009
0.043,0.020
0.046,0.030
0.047,0.036
0.046,0.040
0.044,0.045
0.046,0.043
0.046,0.046
0.044,0.044
0.045,0.051
0.044,0.059
0.047,0.065
0.046,0.077
0.049,0.080
0.044,0.081
0.046,0.065
0.045,0.045
0.047,0.028
0.050,0.018
0.046,0.019
0.045,0.032
0.043,0.046
0.047,0.037
0.044,0.023
0.045,0.015
0.047,0.012
0.048,0.015
0.052,0.020
0.054,0.023
0.060,0.024
0.060,0.027
0.054,0.033
0.040,0.037
0.026,0.042
0.013,0.048
0.010,0.051
0.007,0.054
0.010,0.056
0.023,0.058
0.052,0.055
0.082,0.054
0.091,0.051
0.085,0.047
0.067,0.046
0.055,0.042
0.051,0.042
0.049,0.038
0.048,0.041
0.049,0.044
0.047,0.047
0.041,0.045
0.039,0.044
0.038,0.042
0.038,0.044
0.043,0.050
0.049,0.054
0.049,0.071
0.055,0.062
0.061,0.037
0.060,0.010
0.058,-0.008
0.054,-0.008
0.052,0.005
0.040,0.015
0.033,0.024
0.030,0.035
0.031,0.035
0.039,0.041
0.039,0.038
0.042,0.033
0.039,0.031
0.046,0.021
0.050,0.015
0.061,0.009
0.065,0.012
0.058,0.004
0.053,0.006
0.047,0.009
0.047,0.016
0.049,0.025
0.051,0.042
0.054,0.056
0.053,0.069
0.052,0.075
0.053,0.071
0.054,0.046
0.052,0.009
0.051,-0.022
0.052,-0.034
0.052,-0.032
0.053,-0.025
0.048,-0.019
0.049,-0.012
0.046,-0.011
0.046,-0.012
0.039,-0.007
0.040,-0.001
0.043,0.008
0.059,0.013
0.072,0.019
0.071,0.020
0.063,0.024
0.047,0.019
0.040,0.013
0.043,0.006
0.049,-0.003
0.052,-0.006
0.055,-0.011
0.054,-0.010
0.056,-0.009
0.057,-0.010
0.058,-0.008
0.061,-0.010
0.066,-0.010
0.067,-0.007
0.069,0.002
0.067,-0.014
0.067,-0.058
0.057,-0.079
0.048,-0.006
0.039,0.082
0.035,0.143
0.038,0.175
0.041,0.154
0.042,0.120
0.043,0.057
0.042,-0.007
0.045,-0.053
0.047,-0.074
0.051,-0.086
0.055,-0.079
0.053,-0.067
0.051,-0.052
0.048,-0.037
0.044,-0.026
0.040,-0.028
0.039,-0.056
0.040,-0.087
0.051,-0.084
0.057,-0.011
0.056,0.066
0.059,0.127
0.058,0.157
0.057,0.160
0.047,0.131
0.042,0.081
0.032,0.024
0.025,-0.034
0.020,-0.059
0.022,-0.056
0.039,-0.041
0.056,-0.019
0.071,0.004
0.070,0.030
0.066,0.045
0.063,0.041
0.065,0.020
0.066,0.006
0.069,-0.003
0.069,-0.005
0.063,0.001
0.056,-0.003
0.044,-0.013
0.033,-0.020
0.023,-0.019
0.023,-0.004
0.035,0.014
0.041,0.031
0.043,0.040
0.040,0.045
0.042,0.043
0.040,0.043
0.044,0.041
0.046,0.042
0.050,0.040
0.049,0.038
0.046,0.036
0.043,0.040
0.038,0.034
0.033,0.022
0.028,0.021
0.026,0.021
0.032,0.028
0.047,0.034
0.062,0.037
0.069,0.039
0.069,0.043
0.057,0.044
0.045,0.043
0.037,0.041
0.031,0.034
0.033,0.034
0.033,0.034
0.035,0.039
0.037,0.038
0.045,0.044
0.056,0.042
0.060,0.042
0.059,0.037
0.062,0.038
0.056,0.039
0.054,0.038
0.052,0.041
0.052,0.038
0.051,0.042
0.053,0.041
0.051,0.047
0.048,0.045
0.048,0.050
0.042,0.048
0.043,0.051
0.040,0.050
0.046,0.042
0.051,0.038
0.058,0.036
0.061,0.033
0.062,0.032
0.060,0.030
0.058,0.030
0.049,0.031
0.044,0.038
0.040,0.037
0.041,0.038
0.043,0.035
0.044,0.034
0.044,0.033
0.044,0.034
0.040,0.033
0.043,0.035
0.048,0.033
0.053,0.032
0.051,0.034
0.039,0.028
0.026,0.032
0.027,0.028
0.044,0.025
0.061,0.022
0.073,0.019
0.070,0.018
0.070,0.022
0.066,0.018
0.071,0.019
0.069,0.017
0.069,0.021
0.063,0.018
0.056,0.022
0.043,0.026
0.037,0.028
0.030,0.030
0.034,0.024
0.036,0.022
0.041,0.013
0.041,0.011
0.046,0.004
0.049,0.002
0.047,0.001
0.049,0.001
0.048,0.002
0.050,0.003
0.051,0.000
0.050,0.002
0.047,0.003
0.042,0.002
0.039,0.007
0.037,0.004
0.036,0.003
0.036,0.007
0.042,0.005
0.052,0.002
0.061,-0.001
0.069,-0.002
0.067,-0.003
0.070,-0.006
0.067,-0.010
0.064,-0.008
0.058,-0.009
0.049,-0.004
0.046,-0.007
0.045,-0.004
0.043,-0.006
0.044,-0.005
0.039,-0.004
0.033,-0.002
0.028,0.004
0.025,0.003
0.034,0.004
0.050,-0.001
0.066,-0.002
0.070,-0.007
0.066,-0.005
0.056,-0.010
0.055,-0.009
0.052,-0.009
0.054,-0.005
0.050,-0.000
0.050,0.002
0.045,0.009
0.041,0.011
0.040,0.017
0.042,0.015
0.045,0.013
0.045,0.014
0.050,0.023
0.050,0.041
0.051,0.059
0.047,0.071
0.044,0.045
0.040,0.006
0.034,-0.026
0.032,-0.042
0.023,-0.040
0.017,-0.029
0.012,-0.014
0.017,-0.003
0.034,0.009
0.055,0.009
0.075,0.011
0.079,0.009
0.073,0.008
0.060,0.010
0.053,0.008
0.048,0.008
0.047,0.010
0.046,0.008
0.046,0.014
0.047,0.013
0.053,0.016
0.054,0.015
0.054,0.019
0.046,0.018
0.043,0.019
0.038,0.019
0.032,0.022
0.030,0.025
0.041,0.024
0.059,0.031
0.069,0.037
0.070,0.034
0.064,0.031
0.057,0.032
0.053,0.032
0.047,0.036
0.043,0.039
0.034,0.040
0.031,0.039
0.030,0.039
0.036,0.036
0.042,0.034
0.047,0.031
0.049,0.032
0.046,0.031
0.043,0.030
0.037,0.037
0.036,0.038
0.030,0.046
0.031,0.044
0.039,0.046
0.047,0.044
0.056,0.046
0.055,0.044
0.056,0.046
0.052,0.045
0.051,0.042
0.050,0.044
0.051,0.040
0.051,0.040
0.055,0.036
0.059,0.038
0.055,0.036
0.055,0.037
0.050,0.041
0.052,0.041
0.041,0.043
0.047,0.046
0.044,0.048
0.047,0.048
0.047,0.049
0.047,0.045
0.048,0.043
0.045,0.043
0.045,0.042
0.044,0.046
0.044,0.043
0.044,0.046
0.042,0.045
0.043,0.047
0.045,0.047
0.054,0.048
0.057,0.057
0.063,0.050
0.063,0.034
0.063,0.014
0.063,0.013
0.059,0.011
0.058,0.015
0.057,0.019
0.059,0.024
0.055,0.025
0.054,0.026
0.051,0.035
0.049,0.036
0.049,0.040
0.050,0.036
0.045,0.033
0.049,0.041
0.049,0.051
0.051,0.061
0.052,0.064
0.055,0.056
0.054,0.032
0.054,0.004
0.056,-0.013
0.054,-0.019
0.053,-0.011
0.053,-0.008
0.049,-0.001
0.052,0.000
0.054,0.006
0.055,0.003
0.066,0.006
0.072,0.004
0.076,-0.002
0.073,0.000
0.068,-0.005
0.054,-0.003
0.038,-0.005
0.023,-0.003
0.014,-0.000
0.018,0.004
0.030,0.006
0.042,0.006
0.056,0.006
0.065,0.005
0.082,0.005
0.094,0.000
0.100,0.001
0.090,-0.001
0.079,-0.003
0.061,-0.003
0.048,-0.005
0.038,-0.003
0.035,-0.007
0.038,-0.007
0.037,-0.005
0.040,-0.003
0.046,-0.003
0.049,-0.003
0.047,-0.002
0.051,-0.003
0.046,-0.003
0.049,-0.002
0.047,0.000
0.049,-0.000
0.045,-0.001
0.047,-0.005
0.044,-0.007
0.050,-0.010
0.052,-0.009
0.052,-0.010
0.055,-0.006
0.052,-0.005
0.055,-0.002
0.051,0.003
0.050,0.005
0.047,0.012
0.045,0.010
0.042,0.008
0.042,0.006
0.046,0.003
0.051,0.001
0.056,-0.001
0.060,-0.003
0.059,-0.003
0.057,0.002
0.051,0.003
0.043,0.003
0.038,0.005
0.033,0.009
0.029,0.008
0.031,0.009
0.037,0.010
0.047,0.009
0.057,0.015
0.057,0.013
0.058,0.016
0.054,0.014
0.052,0.018
0.049,0.019
0.050,0.017
0.051,0.015
0.054,0.015
0.050,0.015
0.054,0.017
0.049,0.017
0.046,0.023
0.033,0.023
0.031,0.029
0.024,0.029
0.024,0.031
0.020,0.031
0.029,0.033
0.042,0.031
0.065,0.029
0.069,0.028
0.066,0.027
0.054,0.025
0.049,0.028
0.047,0.028
0.046,0.031
0.047,0.031
0.045,0.035
0.048,0.035
0.047,0.034
0.047,0.034
0.050,0.032
0.052,0.036
0.049,0.032
0.051,0.035
0.047,0.034
0.046,0.035
0.045,0.040
0.045,0.039
0.041,0.042
0.044,0.041
0.045,0.042
0.043,0.041
0.046,0.043
0.046,0.040
0.049,0.040
0.048,0.038
0.050,0.039
0.049,0.040
0.053,0.038
0.052,0.041
0.057,0.037
0.049,0.040
0.047,0.038
0.050,0.041
0.047,0.039
0.051,0.041
0.051,0.041
0.052,0.040
0.051,0.043
0.048,0.040
0.042,0.041
0.035,0.041
0.042,0.042
0.048,0.037
0.057,0.038
0.058,0.034
0.059,0.034
0.054,0.034
0.050,0.032
0.048,0.034
0.044,0.034
0.046,0.035
0.045,0.032
0.051,0.030
0.052,0.030
0.052,0.028
0.052,0.031
0.052,0.031
0.048,0.029
0.049,0.030
0.049,0.028
0.049,0.024
0.052,0.025
0.051,0.023
0.053,0.021
0.053,0.019
0.055,0.019
0.053,0.021
0.053,0.021
0.050,0.022
0.052,0.019
0.045,0.022
0.049,0.018
0.048,0.019
0.051,0.012
0.049,0.010
0.050,0.008
0.049,0.010
0.049,0.009
0.049,0.008
0.050,0.006
0.050,0.008
0.050,0.006
0.050,0.010
0.050,0.006
0.053,0.009
0.053,0.006
0.055,0.004
0.054,0.004
0.055,0.002
0.053,0.003
0.053,-0.001
0.052,0.000
0.054,0.002
0.053,0.004
0.050,-0.000
0.053,-0.002
0.052,-0.000
0.052,-0.003
0.053,0.000
0.052,-0.002
0.054,0.000
0.053,-0.003
0.053,-0.005
0.055,-0.005
0.058,-0.004
0.053,-0.005
0.052,-0.007
0.052,-0.003
0.050,-0.004
0.049,-0.002
0.049,-0.001
0.050,-0.001
0.046,-0.004
0.051,-0.002
0.053,-0.005
0.055,-0.004
0.053,-0.004
0.051,-0.005
0.047,0.000
0.050,0.000
0.047,0.001
0.046,0.002
0.049,0.001
0.052,-0.001
0.053,-0.002
0.056,-0.002
0.057,0.001
0.054,0.002
0.053,0.001
0.050,0.007
0.049,0.005
0.049,0.006
0.045,0.006
0.048,0.007
0.050,0.007
0.053,0.007
0.051,0.004
0.051,0.006
0.050,0.009
0.050,0.011
0.050,0.013
0.049,0.014
0.048,0.016
0.049,0.013
0.052,0.015
0.049,0.014
0.052,0.015
0.049,0.014
0.051,0.016
0.051,0.017
0.052,0.016
0.051,0.020
0.050,0.017
0.049,0.022
0.048,0.021
0.046,0.023
0.045,0.023
0.047,0.028
0.046,0.028
0.045,0.030
0.045,0.027
0.048,0.032
0.047,0.029
0.049,0.032
0.050,0.032
0.052,0.035
0.050,0.031
0.047,0.035
0.047,0.032
0.045,0.037
0.042,0.035
0.047,0.036
0.048,0.033
0.052,0.035
0.049,0.036
0.052,0.034
0.051,0.041
0.052,0.041
0.050,0.039
0.050,0.040
0.049,0.041
0.049,0.038
0.049,0.038
0.046,0.035
0.049,0.036
0.045,0.033
0.047,0.036
0.046,0.040
0.048,0.040
0.044,0.046
0.050,0.044
0.049,0.047
0.049,0.044
0.052,0.050
0.053,0.050
0.051,0.049
0.049,0.047
0.048,0.046
0.045,0.047
0.050,0.044
0.045,0.047
0.046,0.047
0.047,0.044
0.046,0.043
0.049,0.045
0.048,0.042
0.052,0.041
0.050,0.043
0.049,0.040
0.048,0.043
0.046,0.040
0.050,0.039
0.049,0.038
0.053,0.036
0.050,0.035
0.051,0.032
0.051,0.038
0.051,0.035
0.049,0.035
0.049,0.031
0.052,0.033
0.051,0.032
0.053,0.031
0.053,0.029
0.053,0.028
0.054,0.029
0.053,0.028
0.051,0.027
0.052,0.026
0.052,0.024
0.054,0.024
0.054,0.025
0.054,0.022
0.052,0.023
0.052,0.020
0.052,0.021
0.052,0.019
0.056,0.020
0.053,0.017
0.056,0.016
0.053,0.014
0.056,0.012
0.052,0.012
0.055,0.010
0.052,0.009
0.053,0.010
0.057,0.010
0.055,0.007
0.054,0.009
0.056,0.007
0.053,0.009
0.055,0.009
0.050,0.009
0.054,0.007
0.051,0.003
0.056,0.005
0.054,0.004
0.054,-0.002
0.054,0.000
0.054,0.002
0.054,0.002
0.050,0.003
0.051,0.003
0.050,0.001
0.053,0.000
0.055,0.003
0.056,-0.002
0.054,-0.001
0.056,0.000
0.057,-0.003
0.055,-0.003
0.054,-0.006
0.052,-0.003
0.050,-0.005
0.053,-0.003
0.050,-0.007
0.052,-0.004
0.051,-0.004
0.052,-0.003
0.052,-0.000
0.052,-0.006
0.050,-0.001
0.049,-0.005
0.055,-0.002
0.050,-0.002
0.053,-0.003
0.050,-0.003
0.049,-0.004
0.048,-0.002
0.048,-0.001
0.045,0.001
0.048,0.000
0.046,0.004
0.047,0.003
0.049,0.004
0.049,0.004
0.049,0.004
0.047,0.004
0.048,0.003
0.045,0.007
0.048,0.006
0.045,0.008
0.042,0.010
0.047,0.010
0.045,0.008
0.048,0.009
0.046,0.009
0.046,0.006
0.048,0.012
0.047,0.012
0.050,0.015
0.048,0.015
0.046,0.017
0.047,0.015
0.046,0.017
0.046,0.015
0.046,0.018
0.044,0.018
0.045,0.020
0.044,0.019
0.045,0.021
0.042,0.021
0.043,0.023
0.040,0.023
0.044,0.025
0.043,0.026
0.048,0.028
0.047,0.028
0.048,0.029
0.049,0.028
0.049,0.031
0.048,0.030
0.046,0.033
0.045,0.031
0.048,0.033
0.048,0.033
0.048,0.032
0.047,0.039
0.046,0.037
0.043,0.037
0.043,0.037
0.045,0.040
0.041,0.035
0.046,0.036
0.043,0.033
0.047,0.036
0.044,0.039
0.047,0.037
0.042,0.040
0.045,0.034
0.045,0.039
0.045,0.036
0.042,0.037
0.043,0.038
0.047,0.038
0.046,0.038
0.047,0.043
0.043,0.046
0.048,0.047
0.045,0.052
0.048,0.053
0.048,0.054
0.049,0.053
0.047,0.050
0.046,0.047
0.045,0.048
0.047,0.046
0.046,0.046
0.045,0.046
0.047,0.048
0.045,0.046
0.046,0.051
0.050,0.045
0.050,0.043
0.053,0.044
0.054,0.044
0.049,0.041
0.050,0.047
0.051,0.043
0.049,0.044
0.050,0.040
0.052,0.041
0.050,0.037
0.052,0.038
0.051,0.036
0.053,0.038
0.051,0.038
0.052,0.037
0.049,0.038
0.049,0.035
0.051,0.036
0.048,0.034
0.049,0.032
0.048,0.032
0.048,0.031
0.047,0.029
0.049,0.028
0.051,0.031
0.051,0.028
0.047,0.029
0.050,0.028
0.049,0.029
0.052,0.026
0.048,0.024
0.051,0.022
0.051,0.020
0.050,0.017
0.051,0.016
0.051,0.015
0.049,0.014
0.049,0.013
0.050,0.016
0.050,0.012
0.050,0.014
0.050,0.012
0.053,0.011
0.048,0.010
0.050,0.009
0.052,0.012
0.053,0.008
0.051,0.010
0.052,0.006
0.050,0.007
0.049,0.006
0.051,0.005
0.049,0.003
0.053,0.003
0.051,0.005
0.050,0.002
0.053,0.004
0.051,0.005
0.051,0.004
0.050,0.005
0.054,0.004
0.052,-0.001
0.052,-0.001
0.050,-0.002
0.051,-0.002
0.052,-0.002
0.050,-0.003
0.049,-0.002
0.049,-0.001
0.050,0.001
0.047,-0.001
0.051,0.000
0.052,-0.003
0.052,-0.002
0.052,-0.003
0.052,-0.002
0.050,-0.001
0.051,-0.003
0.047,-0.000
0.047,-0.002
0.049,0.002
0.047,0.000
0.051,0.004
0.052,0.004
0.050,0.004
0.049,0.008
0.049,0.005
0.048,0.009
0.049,0.006
0.049,0.006
0.047,0.007
0.048,0.006
0.050,0.006
0.050,0.006
0.051,0.010
0.050,0.010
0.048,0.013
0.048,0.012
0.047,0.013
0.047,0.012
0.048,0.012
0.048,0.013
0.051,0.015
0.049,0.014
0.051,0.014
0.049,0.018
0.049,0.017
0.047,0.019
0.048,0.019
0.047,0.021
0.050,0.020
0.048,0.023
0.049,0.022
0.046,0.025
0.045,0.024
0.045,0.026
0.044,0.025
0.043,0.030
0.046,0.029
0.045,0.030
0.049,0.032
0.045,0.033
0.046,0.031
0.047,0.031
0.047,0.032
0.050,0.035
0.051,0.034
0.049,0.036
0.049,0.034
0.047,0.037
0.050,0.038
0.050,0.036
0.049,0.039
0.048,0.036
0.045,0.041
0.048,0.039
0.046,0.038
0.045,0.038
0.043,0.038
0.043,0.037
0.047,0.037
0.046,0.038
0.047,0.039
0.048,0.043
0.045,0.040
0.044,0.045
0.043,0.045
0.044,0.045
0.044,0.043
0.049,0.045
0.049,0.039
0.050,0.042
0.049,0.041
0.047,0.043
0.047,0.045
0.048,0.043
0.043,0.047
0.047,0.045
0.046,0.048
0.046,0.044
0.048,0.047
0.049,0.045
0.049,0.045
0.047,0.047
0.052,0.046
0.051,0.046
0.051,0.045
0.051,0.044
0.052,0.039
0.052,0.044
0.052,0.041
0.052,0.039
0.049,0.039
0.052,0.040
0.051,0.042
0.049,0.039
0.050,0.038
0.047,0.038
0.053,0.036
0.051,0.035
0.052,0.033
0.054,0.037
0.052,0.032
0.051,0.032
0.049,0.032
0.049,0.033
0.050,0.032
0.051,0.032
0.048,0.028
0.052,0.029
0.050,0.025
0.049,0.025
0.050,0.025
0.052,0.025
0.051,0.026
0.055,0.026
0.052,0.024
0.052,0.020
0.051,0.022
0.052,0.016
0.051,0.019
0.052,0.015
0.049,0.016
0.050,0.013
0.050,0.011
0.048,0.011
0.050,0.014
0.047,0.014
0.049,0.012
0.047,0.011
0.052,0.012
0.048,0.008
0.052,0.009
0.051,0.008
0.052,0.005
0.051,0.006
0.053,0.004
0.049,0.006
0.052,0.004
0.051,0.004
0.050,0.001
0.052,0.001
0.050,0.001
0.054,0.001
0.050,0.002
0.053,0.002
0.050,0.003
0.051,0.001
0.053,0.002
0.050,-0.002
0.052,-0.003
0.050,-0.004
0.050,-0.006
0.050,-0.002
0.049,-0.004
0.051,-0.002
0.049,-0.003
0.050,0.001
0.049,0.001
0.054,-0.001
0.053,-0.000
0.053,-0.001
0.050,0.001
0.050,-0.002
0.049,0.003
0.051,0.002
0.050,0.001
0.047,0.001
0.050,0.002
0.049,0.001
0.050,0.003
0.049,0.000
0.049,0.002
0.049,0.004
0.050,0.005
0.048,0.009
0.050,0.007
0.049,0.007
0.051,0.008
0.051,0.007
0.050,0.009
0.052,0.008
0.052,0.007
0.052,0.008
0.053,0.011
0.050,0.012
0.049,0.012
0.049,0.012
0.048,0.012
0.049,0.014
0.049,0.016
0.047,0.013
0.049,0.018
0.050,0.016
0.049,0.015
0.048,0.018
0.050,0.015
0.049,0.017
0.048,0.017
0.050,0.020
0.049,0.018
0.049,0.021
0.046,0.021
0.049,0.024
0.048,0.025
0.049,0.024
0.049,0.027
0.049,0.028
0.049,0.025
0.045,0.029
0.047,0.028
0.043,0.034
0.046,0.034
0.043,0.036
0.046,0.035
0.047,0.036
0.043,0.036
0.046,0.037
0.046,0.037
0.047,0.038
0.048,0.037
0.044,0.037
0.046,0.040
0.044,0.037
0.045,0.040
0.045,0.040
0.046,0.038
0.045,0.037
0.045,0.039
0.046,0.039
0.048,0.041
0.046,0.045
0.046,0.047
0.045,0.049
0.045,0.047
0.045,0.049
0.047,0.043
0.048,0.048
0.046,0.043
0.048,0.046
0.048,0.043
0.049,0.040
0.047,0.045
0.048,0.044
0.041,0.049
0.042,0.046
0.043,0.048
0.045,0.045
0.048,0.043
0.048,0.045
0.049,0.044
0.045,0.046
0.047,0.045
0.044,0.047
0.045,0.043
0.043,0.043
0.045,0.041
0.047,0.041
0.049,0.039
0.050,0.038
0.050,0.037
0.049,0.040
0.048,0.040
0.049,0.039
0.047,0.040
0.046,0.036
0.049,0.034
0.049,0.034
0.046,0.033
0.049,0.031
0.046,0.031
0.047,0.035
0.048,0.030
0.047,0.032
0.048,0.030
0.048,0.030
0.048,0.030
0.052,0.030
0.049,0.027
0.054,0.025
0.051,0.023
0.054,0.024
0.052,0.022
0.055,0.018
0.053,0.022
0.056,0.019
0.054,0.017
0.053,0.013
0.056,0.014
0.053,0.012
0.056,0.014
0.054,0.010
0.055,0.013
0.053,0.008
0.051,0.012
0.054,0.007
0.051,0.012
0.054,0.008
0.052,0.010
0.052,0.009
0.053,0.006
0.051,0.004
0.057,0.003
0.051,0.003
0.052,0.002
0.050,0.008
0.050,0.005
0.051,0.004
0.050,0.004
0.053,0.003
0.052,0.001
0.053,-0.000
0.051,-0.002
0.053,0.001
0.051,0.003
0.052,-0.001
0.049,0.001
0.052,-0.003
0.052,-0.002
0.054,-0.003
0.056,-0.004
0.053,-0.005
0.054,-0.003
0.052,-0.000
0.054,-0.003
0.052,0.001
0.057,-0.002
0.051,-0.001
0.053,-0.002
0.054,-0.001
0.052,-0.005
0.054,-0.003
0.052,-0.002
0.050,-0.003
0.051,0.003
0.051,-0.001
0.051,0.003
0.051,-0.002
0.053,0.003
0.049,-0.000
0.053,0.002
0.051,0.002
0.051,0.004
0.050,0.006
0.049,0.003
0.048,0.008
0.048,0.006
0.047,0.007
0.047,0.004
0.048,0.006
0.046,0.006
0.050,0.009
0.049,0.009
0.051,0.007
0.045,0.010
0.049,0.008
0.046,0.013
0.045,0.013
0.043,0.014
0.045,0.015
0.046,0.015
0.044,0.013
0.047,0.018
0.046,0.016
0.048,0.018
0.046,0.016
0.046,0.018
0.044,0.017
0.047,0.020
0.042,0.020
0.045,0.023
0.043,0.024
0.043,0.026
0.046,0.027
0.044,0.028
0.046,0.032
0.048,0.031
0.049,0.033
0.047,0.032
0.045,0.032
0.046,0.033
0.043,0.035
0.043,0.034
0.043,0.036
0.045,0.034
0.046,0.036
0.048,0.034
0.049,0.036
0.046,0.033
0.048,0.035
0.045,0.036
0.047,0.039
0.043,0.038
0.046,0.039
0.046,0.039
0.046,0.038
0.048,0.040
0.045,0.039
0.047,0.038
0.046,0.042
0.047,0.042
0.048,0.045
0.047,0.044
0.046,0.045
0.045,0.043
0.045,0.044
0.046,0.044
0.048,0.043
0.047,0.039
0.049,0.040
0.048,0.041
0.049,0.043
0.047,0.046
0.046,0.046
0.044,0.046
0.046,0.048
0.046,0.050
0.046,0.046
0.048,0.046
0.047,0.043
0.051,0.042
0.050,0.043
0.050,0.042
0.048,0.043
0.050,0.042
0.047,0.042
0.047,0.043
0.046,0.042
0.048,0.040
0.050,0.040
0.047,0.038
0.048,0.039
0.047,0.039
0.049,0.037
0.047,0.036
0.047,0.035
0.052,0.038
0.050,0.034
0.052,0.032
0.050,0.033
0.052,0.028
0.051,0.031
0.050,0.025
0.050,0.028
0.050,0.026
0.053,0.027
0.049,0.028
0.049,0.025
0.049,0.023
0.049,0.023
0.050,0.022
0.049,0.021
0.052,0.018
0.052,0.021
0.052,0.016
0.052,0.018
0.052,0.015
0.053,0.014
0.049,0.012
0.051,0.013
0.051,0.014
0.051,0.012
0.053,0.011
0.052,0.009
0.051,0.011
0.050,0.010
0.050,0.011
0.051,0.009
0.047,0.009
0.051,0.009
0.052,0.006
0.052,0.003
0.054,0.001
0.053,0.005
0.053,0.005
0.050,0.008
0.049,0.007
0.049,0.007
0.051,0.004
0.051,0.005
0.050,0.002
0.055,0.002
0.054,-0.001
0.054,-0.002
0.053,0.001
0.052,0.000
0.051,0.002
0.051,0.001
0.052,0.001
0.049,-0.002
0.053,-0.001
0.051,-0.002
0.050,-0.001
0.050,0.000
0.051,0.000
0.049,0.001
0.052,0.001
0.049,0.001
0.047,-0.001
0.050,0.002
0.051,-0.002
0.049,-0.001
0.049,0.004
0.049,0.003
0.048,0.005
0.049,0.005
0.046,0.006
0.048,0.005
0.048,0.007
0.048,0.008
0.051,0.008
0.049,0.007
0.049,0.009
0.050,0.010
0.048,0.009
0.050,0.012
0.049,0.008
0.049,0.009
0.045,0.009
0.050,0.010
0.048,0.008
0.051,0.011
0.050,0.014
0.047,0.016
0.049,0.018
0.049,0.017
0.047,0.022
0.047,0.019
0.047,0.021
0.043,0.020
0.044,0.020
0.045,0.020
0.042,0.022
0.042,0.022
0.047,0.026
0.044,0.025
0.047,0.031
0.044,0.029
0.045,0.030
0.041,0.029
0.041,0.031
0.043,0.030
0.042,0.031
0.044,0.031
0.044,0.034
0.044,0.031
0.045,0.032
0.043,0.032
0.043,0.034
0.045,0.036
0.044,0.034
0.043,0.038
0.044,0.039
0.042,0.041
0.044,0.040
0.046,0.042
0.042,0.040
0.047,0.042
0.044,0.042
0.049,0.043
0.044,0.042
0.045,0.039
0.042,0.043
0.041,0.041
0.040,0.047
0.041,0.049
0.042,0.047
0.043,0.046
0.049,0.047
0.047,0.045
0.049,0.044
0.048,0.046
0.049,0.044
0.045,0.047
0.048,0.046
0.047,0.046
0.047,0.048
0.048,0.047
0.046,0.045
0.050,0.047
0.049,0.046
0.050,0.049
0.047,0.050
0.049,0.050
0.047,0.047
0.048,0.047
0.049,0.046
0.048,0.045
0.049,0.041
0.049,0.044
0.048,0.042
0.047,0.043
0.046,0.043
0.049,0.043
0.045,0.042
0.049,0.041
0.047,0.041
0.050,0.040
0.047,0.039
0.049,0.039
0.050,0.038
0.046,0.038
0.048,0.037
0.047,0.035
0.049,0.037
0.048,0.033
0.049,0.033
0.049,0.030
0.049,0.031
0.048,0.032
0.049,0.032
0.049,0.032
0.048,0.029
0.050,0.030
0.052,0.025
0.047,0.026
0.054,0.022
0.049,0.023
0.052,0.020
0.050,0.022
0.052,0.017
0.052,0.019
0.049,0.016
0.053,0.016
0.049,0.014
0.051,0.012
0.050,0.010
0.051,0.011
0.049,0.008
0.054,0.007
0.052,0.004
0.055,0.005
0.052,0.003
0.054,0.002
0.053,0.008
0.052,0.005
0.050,0.004
0.049,0.001
0.050,0.004
0.049,0.000
0.053,0.002
0.052,-0.000
0.051,0.001
0.052,0.001
0.053,0.002
0.052,0.004
0.054,0.002
0.053,-0.001
0.055,-0.003
0.052,-0.001
0.052,-0.005
0.053,-0.003
0.051,-0.004
0.052,-0.005
0.051,-0.003
0.051,-0.004
0.047,-0.000
0.051,-0.003
0.051,-0.003
0.050,-0.005
0.053,-0.004
0.051,-0.004
0.050,-0.003
0.048,0.000
0.049,-0.002
0.048,-0.002
0.046,-0.001
0.049,-0.003
0.048,-0.003
0.052,-0.003
0.049,0.000
0.046,-0.001
0.049,0.003
0.045,-0.001
0.045,0.003
0.045,0.004
0.048,0.004
0.046,0.003
0.047,0.004
0.047,0.001
0.047,0.006
0.046,0.003
0.048,0.006
0.045,0.008
0.049,0.009
0.044,0.010
0.046,0.007
0.045,0.010
0.045,0.008
0.047,0.011
0.044,0.011
0.048,0.013
0.047,0.013
0.049,0.012
0.047,0.014
0.047,0.012
0.046,0.013
0.048,0.015
0.046,0.016
0.049,0.014
0.047,0.017
0.047,0.016
0.044,0.021
0.044,0.022
0.045,0.025
0.047,0.024
0.044,0.028
0.044,0.027
0.046,0.030
0.046,0.031
0.046,0.032
0.047,0.031
0.043,0.032
0.044,0.031
0.045,0.032
0.043,0.031
0.046,0.033
0.044,0.030
0.048,0.034
0.044,0.034
0.045,0.033
0.044,0.038
0.043,0.035
0.042,0.038
0.042,0.035
0.044,0.037
0.041,0.037
0.045,0.036
0.043,0.035
0.045,0.040
0.044,0.041
0.046,0.040
0.042,0.041
0.043,0.038
0.042,0.041
0.046,0.041
0.044,0.043
0.045,0.043
0.048,0.043
0.048,0.041
0.049,0.040
0.047,0.038
0.045,0.037
0.044,0.042
0.043,0.041
0.044,0.042
0.042,0.042
0.043,0.042
0.043,0.042
0.046,0.045
0.044,0.045
0.045,0.045
0.048,0.044
0.049,0.042
0.048,0.045
0.049,0.042
0.048,0.042
0.050,0.038
0.049,0.041
0.047,0.036
0.047,0.037
0.048,0.039
0.049,0.036
0.046,0.040
0.047,0.036
0.048,0.039
0.046,0.036
0.049,0.035
0.047,0.035
0.051,0.032
0.049,0.034
0.046,0.030
0.048,0.031
0.047,0.029
0.044,0.031
0.048,0.030
0.049,0.028
0.047,0.029
0.051,0.028
0.050,0.027
0.049,0.030
0.052,0.027
0.051,0.028
0.050,0.024
0.051,0.019
0.050,0.021
0.055,0.017
0.053,0.016
0.052,0.017
0.051,0.017
0.052,0.013
0.049,0.014
0.049,0.011
0.047,0.014
0.050,0.010
0.049,0.011
0.049,0.010
0.050,0.010
0.050,0.008
0.050,0.005
0.053,0.006
0.052,0.006
0.052,0.003
0.051,0.003
0.051,-0.000
0.050,0.002
0.049,0.003
0.049,0.004
0.046,0.006
0.049,0.003
0.049,0.003
0.049,0.000
0.051,0.000
0.052,-0.002
0.051,-0.003
0.050,0.001
0.049,-0.001
0.048,0.002
0.049,0.000
0.049,-0.001
0.049,-0.005
0.050,-0.005
0.049,-0.005
0.049,-0.004
0.049,-0.002
0.048,-0.004
0.044,-0.001
0.045,-0.003
0.046,-0.003
0.045,-0.005
0.050,-0.003
0.049,-0.003
0.051,-0.001
0.047,-0.004
0.051,-0.002
0.047,0.002
0.047,-0.000
0.045,0.002
0.046,0.001
0.047,-0.001
0.046,-0.001
0.050,-0.001
0.045,0.001
0.047,0.003
0.049,0.004
0.045,0.005
0.047,0.005
0.045,0.003
0.044,0.007
0.045,0.009
0.047,0.007
0.046,0.006
0.049,0.006
0.049,0.007
0.047,0.010
0.047,0.012
0.046,0.011
0.047,0.012
0.045,0.011
0.046,0.014
0.045,0.011
0.047,0.014
0.045,0.013
0.049,0.017
0.047,0.015
0.051,0.018
0.047,0.016
0.049,0.019
0.046,0.022
0.048,0.020
0.044,0.021
0.047,0.024
0.045,0.025
0.046,0.027
0.045,0.028
0.045,0.029
0.046,0.030
0.045,0.029
0.046,0.031
0.044,0.028
0.044,0.031
0.045,0.029
0.044,0.032
0.046,0.032
0.042,0.031
0.043,0.034
0.041,0.038
0.044,0.036
0.044,0.037
0.045,0.035
0.043,0.036
0.046,0.034
0.049,0.035
0.049,0.039
0.048,0.037
0.045,0.041
0.041,0.041
0.042,0.042
0.041,0.044
0.042,0.040
0.043,0.042
0.046,0.042
0.047,0.043
0.044,0.040
0.044,0.043
0.042,0.043
0.043,0.043
0.043,0.042
0.041,0.044
0.041,0.042
0.042,0.044
0.042,0.041
0.045,0.045
0.043,0.045
0.043,0.048
0.040,0.048
0.043,0.047
0.042,0.048
0.044,0.046
0.046,0.046
0.047,0.043
0.049,0.042
0.049,0.043
0.045,0.043
0.045,0.044
0.045,0.041
0.045,0.042
0.047,0.040
0.045,0.039
0.047,0.035
0.048,0.036
0.047,0.037
0.046,0.035
0.045,0.036
0.046,0.034
0.047,0.035
0.047,0.033
0.050,0.031
0.047,0.029
0.052,0.031
0.047,0.029
0.050,0.028
0.053,0.028
0.051,0.026
0.050,0.030
0.050,0.025
0.049,0.029
0.051,0.026
0.050,0.026
0.049,0.023
0.050,0.024
0.051,0.023
0.051,0.022
0.052,0.019
0.052,0.018
0.049,0.015
0.054,0.015
0.050,0.014
0.052,0.012
0.050,0.012
0.051,0.011
0.052,0.010
0.051,0.009
0.051,0.005
0.054,0.006
0.053,0.007
0.056,0.004
0.054,0.008
0.055,0.005
0.053,0.007
0.053,0.000
0.054,0.002
0.051,-0.001
0.055,0.001
0.051,-0.002
0.055,-0.001
0.053,0.001
0.049,0.000
0.052,0.000
0.050,-0.000
0.052,-0.001
0.053,0.001
0.054,-0.001
0.053,-0.007
0.052,-0.003
0.053,-0.004
0.053,-0.005
0.051,-0.004
0.051,-0.003
0.050,-0.002
0.049,-0.003
0.051,-0.000
0.049,-0.005
0.054,-0.005
0.052,-0.006
0.051,-0.008
0.047,-0.003
0.050,-0.005
0.049,-0.001
0.052,-0.003
0.052,-0.002
0.050,-0.002
0.051,-0.002
0.050,0.001
0.046,-0.001
0.049,0.001
0.045,0.000
0.047,0.002
0.046,0.003
0.049,0.004
0.050,0.001
0.053,0.002
0.053,0.000
0.051,0.006
0.051,0.006
0.049,0.005
0.047,0.008
0.049,0.007
0.047,0.011
0.048,0.009
0.051,0.010
0.049,0.008
0.051,0.009
0.048,0.009
0.049,0.011
0.046,0.011
0.047,0.010
0.046,0.015
0.047,0.013
0.046,0.016
0.045,0.017
0.045,0.018
0.044,0.019
0.044,0.019
0.045,0.020
0.045,0.024
0.045,0.023
0.042,0.027
0.045,0.024
0.045,0.028
0.043,0.027
0.043,0.029
0.044,0.028
0.046,0.029
0.042,0.026
0.044,0.026
0.043,0.028
0.046,0.028
0.044,0.029
0.047,0.030
0.045,0.034
0.045,0.033
0.044,0.035
0.043,0.036
0.043,0.038
0.045,0.038
0.047,0.037
0.045,0.036
0.050,0.037
0.046,0.034
0.050,0.038
0.045,0.037
0.045,0.038
0.042,0.038
0.045,0.037
0.039,0.042
0.041,0.040
0.045,0.041
0.044,0.041
0.049,0.044
0.047,0.040
0.049,0.041
0.046,0.040
0.048,0.038
0.047,0.041
0.047,0.041
0.044,0.041
0.044,0.040
0.043,0.044
0.043,0.044
0.044,0.046
0.045,0.042
0.046,0.042
0.049,0.046
0.045,0.045
0.043,0.046
0.045,0.043
0.045,0.043
0.046,0.040
0.047,0.040
0.047,0.039
0.049,0.038
0.048,0.042
0.049,0.039
0.047,0.041
0.049,0.038
0.049,0.037
0.049,0.036
0.051,0.036
0.050,0.033
0.053,0.034
0.049,0.034
0.049,0.032
0.050,0.031
0.049,0.029
0.047,0.029
0.049,0.029
0.051,0.026
0.049,0.024
0.051,0.025
0.049,0.023
0.051,0.024
0.049,0.023
0.051,0.021
0.051,0.022
0.052,0.017
0.052,0.020
0.054,0.016
0.053,0.018
0.054,0.017
0.057,0.018
0.053,0.016
0.052,0.014
0.052,0.012
0.052,0.012
0.053,0.010
0.050,0.014
0.051,0.009
0.049,0.010
0.050,0.008
0.052,0.012
0.050,0.007
0.056,0.004
0.053,0.002
0.056,-0.000
0.054,0.001
0.054,-0.002
0.053,0.000
0.052,-0.001
0.050,0.002
0.049,0.001
0.050,0.002
0.051,-0.003
0.054,-0.001
0.051,-0.003
0.054,-0.001
0.053,0.001
0.054,-0.003
0.052,-0.003
0.053,-0.005
0.052,-0.004
0.053,-0.007
0.052,-0.005
0.049,-0.007
0.052,-0.003
0.052,-0.005
0.053,-0.006
0.050,-0.005
0.051,-0.004
0.052,-0.003
0.052,-0.004
0.052,-0.004
0.051,-0.007
0.050,-0.006
0.053,-0.003
0.052,-0.006
0.049,-0.001
0.049,-0.003
0.048,-0.002
0.046,-0.002
0.050,-0.003
0.049,-0.003
0.052,-0.001
0.053,-0.002
0.053,-0.003
0.051,0.002
0.051,0.001
0.049,0.002
0.049,0.002
0.048,0.002
0.050,0.004
0.052,0.003
0.050,0.000
0.051,0.004
0.049,0.005
0.049,0.007
0.049,0.008
0.051,0.007
0.046,0.010
0.050,0.009
0.046,0.009
0.049,0.007
0.049,0.008
0.047,0.009
0.048,0.009
0.046,0.011
0.048,0.012
0.047,0.010
0.045,0.011
0.047,0.013
0.045,0.014
0.045,0.016
0.046,0.018
0.041,0.019
0.045,0.022
0.041,0.024
0.044,0.023
0.042,0.026
0.043,0.026
0.043,0.027
0.044,0.026
0.046,0.030
0.043,0.029
0.043,0.032
0.043,0.031
0.046,0.032
0.043,0.029
0.045,0.032
0.043,0.031
0.046,0.034
0.043,0.034
0.047,0.035
0.043,0.037
0.047,0.032
0.045,0.038
0.043,0.035
0.043,0.039
0.042,0.037
0.045,0.037
0.043,0.034
0.047,0.039
0.043,0.038
0.046,0.037
0.045,0.040
0.045,0.042
0.045,0.043
0.045,0.044
0.043,0.043
0.045,0.043
0.043,0.040
0.045,0.037
0.043,0.039
0.045,0.036
0.046,0.040
0.045,0.039
0.045,0.042
0.041,0.041
0.044,0.042
0.042,0.044
0.044,0.041
0.046,0.044
0.047,0.043
0.047,0.043
0.048,0.042
0.050,0.040
0.048,0.039
0.049,0.036
0.048,0.038
0.047,0.037
0.047,0.038
0.047,0.037
0.048,0.036
0.049,0.034
0.051,0.033
0.048,0.034
0.049,0.031
0.045,0.036
0.045,0.033
0.044,0.035
0.046,0.034
0.049,0.033
0.047,0.029
0.050,0.030
0.050,0.029
0.049,0.030
0.048,0.031
0.049,0.028
0.048,0.028
0.049,0.028
0.045,0.027
0.043,0.023
0.042,0.025
0.043,0.022
0.044,0.023
0.043,0.019
0.049,0.018
0.047,0.017
0.050,0.017
0.048,0.011
0.051,0.015
0.048,0.011
0.049,0.013
0.047,0.008
0.049,0.008
0.048,0.009
0.050,0.008
0.048,0.009
0.051,0.006
0.046,0.010
0.050,0.006
0.051,0.009
0.050,0.005
0.051,0.005
0.050,0.004
0.053,-0.000
0.052,-0.002
0.052,-0.000
0.051,-0.000
0.052,0.001
0.048,0.002
0.051,0.002
0.049,0.003
0.049,0.000
0.051,-0.001
0.051,-0.004
0.051,-0.004
0.052,-0.008
0.051,-0.009
0.049,-0.007
0.050,-0.006
0.045,-0.007
0.049,-0.004
0.049,-0.004
0.048,-0.003
0.050,-0.005
0.049,-0.006
0.051,-0.007
0.051,-0.003
0.050,-0.004
0.050,-0.003
0.048,-0.005
0.047,-0.003
0.045,-0.004
0.048,-0.003
0.045,-0.004
0.049,-0.003
0.047,-0.003
0.048,0.001
0.048,0.001
0.049,0.001
0.048,0.003
0.047,0.003
0.048,0.003
0.046,0.002
0.047,0.004
0.047,0.002
0.049,0.004
0.048,0.003
0.051,0.003
0.047,0.009
0.049,0.006
0.046,0.010
0.047,0.007
0.045,0.009
0.045,0.009
0.049,0.010
0.047,0.008
0.049,0.011
0.048,0.013
0.049,0.012
0.048,0.014
0.049,0.013
0.048,0.014
0.049,0.013
0.047,0.014
0.047,0.012
0.043,0.013
0.045,0.015
0.040,0.019
0.045,0.021
0.041,0.025
0.045,0.025
0.039,0.028
0.044,0.027
0.043,0.031
0.043,0.028
0.045,0.033
0.042,0.031
0.045,0.032
0.045,0.032
0.045,0.032
0.043,0.029
0.047,0.034
0.043,0.031
0.046,0.036
0.043,0.029
0.046,0.033
0.043,0.035
0.048,0.035
0.045,0.039
0.045,0.036
0.044,0.036
0.044,0.034
0.047,0.036
0.044,0.035
0.049,0.035
0.045,0.036
0.044,0.038
0.043,0.041
0.044,0.041
0.040,0.046
0.040,0.046
0.043,0.044
0.044,0.044
0.046,0.044
0.045,0.042
0.046,0.040
0.045,0.040
0.044,0.039
0.044,0.041
0.042,0.041
0.041,0.044
0.039,0.043
0.039,0.045
0.043,0.045
0.043,0.042
0.044,0.042
0.042,0.042
0.043,0.043
0.044,0.044
0.042,0.045
0.042,0.044
0.044,0.044
0.043,0.042
0.045,0.043
0.043,0.039
0.048,0.039
0.047,0.038
0.049,0.036
0.044,0.040
0.045,0.037
0.046,0.039
0.047,0.038
0.047,0.038
0.045,0.035
0.049,0.036
0.046,0.033
0.050,0.031
0.049,0.030
0.048,0.030
0.048,0.030
0.050,0.031
0.047,0.032
0.050,0.029
0.049,0.027
0.049,0.024
0.049,0.026
0.047,0.022
0.047,0.023
0.048,0.023
0.049,0.022
0.049,0.019
0.052,0.019
0.053,0.018
0.055,0.016
0.049,0.012
0.050,0.010
0.050,0.014
0.050,0.009
0.048,0.014
0.049,0.010
0.046,0.013
0.049,0.011
0.048,0.012
0.048,0.012
0.049,0.010
0.049,0.007
0.049,0.007
0.050,0.004
0.051,0.002
0.050,0.000
0.049,0.003
0.048,0.006
0.049,0.005
0.043,0.003
0.047,0.000
0.048,0.002
0.049,0.002
0.052,-0.003
0.052,-0.002
0.052,-0.002
0.050,-0.002
0.049,-0.005
0.049,0.000
0.049,-0.002
0.048,-0.002
0.047,-0.003
0.049,-0.001
0.049,-0.003
0.052,-0.002
0.050,-0.001
0.047,-0.004
0.045,0.002
0.046,-0.001
0.041,-0.001
0.036,-0.003
0.036,-0.003
0.036,-0.003
0.043,-0.004
0.047,-0.003
0.055,-0.006
0.058,-0.002
0.061,-0.004
0.054,-0.000
0.052,0.002
0.049,0.002
0.048,-0.001
0.049,0.003
0.045,0.000
0.044,0.000
0.044,0.001
0.044,0.003
0.043,0.006
0.044,0.001
0.041,0.004
0.044,0.007
0.043,0.007
0.044,0.007
0.045,0.009
0.045,0.008
0.047,0.010
0.045,0.012
0.046,0.010
0.044,0.018
0.044,0.015
0.047,0.016
0.045,0.013
0.048,0.015
0.045,0.014
0.047,0.017
0.046,0.019
0.045,0.017
0.045,0.017
0.045,0.018
0.047,0.019
0.046,0.019
0.045,0.020
0.041,0.020
0.042,0.026
0.041,0.024
0.043,0.027
0.046,0.028
0.048,0.030
0.046,0.028
0.047,0.033
0.046,0.030
0.045,0.031
0.042,0.030
0.045,0.033
0.043,0.035
0.044,0.036
0.042,0.035
0.043,0.039
0.044,0.035
0.046,0.039
0.045,0.038
0.045,0.036
0.045,0.035
0.047,0.036
0.048,0.037
0.047,0.039
0.043,0.042
0.045,0.039
0.044,0.041
0.044,0.037
0.047,0.040
0.042,0.039
0.045,0.043
0.044,0.044
0.047,0.042
0.043,0.047
0.045,0.044
0.044,0.048
0.044,0.045
0.043,0.047
0.042,0.046
0.047,0.047
0.043,0.045
0.048,0.045
0.046,0.049
0.046,0.044
0.043,0.046
0.047,0.045
0.044,0.047
0.046,0.045
0.048,0.048
0.045,0.044
0.048,0.044
0.048,0.044
0.048,0.043
0.047,0.045
0.046,0.044
0.046,0.046
0.047,0.041
0.046,0.044
0.045,0.040
0.049,0.040
0.048,0.039
0.054,0.035
0.047,0.038
0.049,0.036
0.048,0.039
0.047,0.036
0.048,0.036
0.046,0.034
0.049,0.034
0.048,0.030
0.049,0.030
0.049,0.029
0.049,0.029
0.046,0.030
0.048,0.028
0.045,0.030
0.048,0.030
0.046,0.029
0.046,0.027
0.046,0.027
0.049,0.022
0.048,0.025
0.049,0.021
0.049,0.020
0.049,0.019
0.049,0.018
0.050,0.012
0.052,0.012
0.051,0.008
0.051,0.009
0.050,0.007
0.051,0.010
0.051,0.007
0.057,0.010
0.055,0.005
0.054,0.007
0.054,0.005
0.052,0.006
0.047,0.007
0.051,0.004
0.050,0.004
0.051,-0.000
0.053,0.001
0.052,-0.002
0.053,0.000
0.051,0.002
0.054,0.002
0.049,0.004
0.052,0.006
0.048,0.005
0.050,0.003
0.050,0.002
0.051,-0.002
0.050,-0.002
0.048,-0.003
0.050,-0.007
0.048,-0.002
0.046,-0.004
0.044,-0.004
0.043,-0.005
0.047,-0.004
0.043,-0.003
0.048,-0.003
0.048,-0.003
0.050,-0.002
0.050,-0.002
0.048,-0.005
0.048,-0.001
0.049,-0.002
0.049,0.001
0.047,-0.003
0.050,0.000
0.045,-0.002
0.049,0.000
0.045,-0.002
0.044,-0.001
0.044,0.002
0.044,0.004
0.041,0.005
0.044,0.006
0.042,0.006
0.047,0.003
0.048,0.004
0.049,0.002
0.050,0.006
0.048,0.006
0.045,0.005
0.045,0.009
0.047,0.008
0.045,0.011
0.047,0.009
0.044,0.010
0.045,0.011
0.047,0.014
0.046,0.012
0.046,0.012
0.047,0.017
0.044,0.014
0.046,0.016
0.043,0.015
0.046,0.018
0.045,0.021
0.042,0.021
0.045,0.023
0.040,0.023
0.044,0.023
0.042,0.024
0.043,0.027
0.039,0.030
0.044,0.030
0.040,0.029
0.040,0.032
0.039,0.031
0.042,0.030
0.042,0.036
0.043,0.033
0.042,0.033
0.042,0.034
0.042,0.032
0.044,0.032
0.043,0.034
0.041,0.035
0.043,0.037
0.044,0.037
0.043,0.036
0.046,0.038
0.046,0.038
0.045,0.042
0.045,0.039
0.046,0.038
0.045,0.040
0.045,0.040
0.037,0.040
0.016,0.042
-0.019,0.039
-0.049,0.042
-0.073,0.044
-0.078,0.042
-0.063,0.045
-0.031,0.042
0.004,0.043
0.036,0.040
0.065,0.044
0.077,0.040
0.089,0.040
0.091,0.038
0.097,0.040
0.096,0.043
0.099,0.039
0.099,0.043
0.097,0.043
0.089,0.044
0.080,0.045
0.073,0.045
0.066,0.045
0.062,0.045
0.058,0.044
0.054,0.042
0.050,0.043
0.051,0.042
0.050,0.043
0.051,0.042
0.052,0.041
0.052,0.037
0.049,0.040
0.051,0.037
0.048,0.036
0.048,0.040
0.043,0.038
0.042,0.038
0.039,0.036
0.036,0.037
0.041,0.034
0.049,0.034
0.053,0.032
0.056,0.032
0.056,0.036
0.055,0.031
0.050,0.033
0.050,0.032
0.047,0.035
0.049,0.031
0.049,0.032
0.047,0.026
0.050,0.026
0.049,0.025
0.052,0.025
0.050,0.024
0.048,0.025
0.046,0.023
0.045,0.020
0.039,0.015
0.039,0.019
0.043,0.014
0.049,0.014
0.057,0.013
0.061,0.011
0.061,0.011
0.061,0.010
0.058,0.010
0.055,0.007
0.056,0.008
0.053,0.008
0.051,0.009
0.050,0.007
0.050,0.007
0.048,0.004
0.049,0.004
0.047,0.003
0.050,0.002
0.050,0.000
0.049,0.003
0.048,0.003
0.047,0.002
0.046,0.007
0.046,0.005
0.048,0.006
0.049,0.003
0.054,0.002
0.049,-0.002
0.051,-0.002
0.049,-0.000
0.050,-0.004
0.045,-0.002
0.047,-0.003
0.046,-0.003
0.048,-0.004
0.049,-0.002
0.049,-0.003
0.050,-0.002
0.049,0.001
0.050,-0.002
0.047,0.001
0.051,-0.003
0.046,-0.003
0.048,-0.002
0.050,-0.002
0.050,-0.001
0.050,-0.001
0.051,-0.002
0.047,-0.001
0.048,0.001
0.047,0.003
0.046,0.004
0.049,0.006
0.045,0.008
0.048,0.005
0.047,0.009
0.046,0.007
0.048,0.008
0.048,0.006
0.047,0.006
0.045,0.006
0.045,0.004
0.044,0.009
0.043,0.007
0.044,0.010
0.042,0.010
0.045,0.012
0.042,0.010
0.043,0.012
0.039,0.015
0.039,0.012
0.031,0.018
0.032,0.016
0.034,0.020
0.040,0.018
0.046,0.021
0.050,0.019
0.054,0.023
0.051,0.021
0.047,0.022
0.049,0.024
0.043,0.024
0.043,0.024
0.040,0.030
0.043,0.029
0.041,0.032
0.038,0.030
0.038,0.031
0.039,0.031
0.041,0.033
0.043,0.032
0.042,0.033
0.045,0.032
0.042,0.033
0.041,0.032
0.042,0.036
0.040,0.035
0.042,0.036
0.043,0.039
0.043,0.037
0.042,0.042
0.043,0.038
0.043,0.040
0.040,0.037
0.043,0.038
0.041,0.037
0.043,0.039
0.042,0.038
0.045,0.041
0.043,0.042
0.039,0.041
0.042,0.046
0.044,0.045
0.042,0.048
0.045,0.046
0.041,0.048
0.042,0.045
0.043,0.048
0.041,0.042
0.042,0.043
0.040,0.041
0.044,0.041
0.040,0.044
0.042,0.043
0.041,0.046
0.042,0.045
0.042,0.048
0.042,0.046
0.046,0.048
0.044,0.045
0.046,0.046
0.045,0.046
0.046,0.044
0.046,0.042
0.049,0.043
0.047,0.042
0.047,0.043
0.045,0.040
0.046,0.040
0.045,0.038
0.047,0.039
0.048,0.036
0.045,0.038
0.046,0.040
0.045,0.037
0.045,0.037
0.047,0.035
0.046,0.032
0.046,0.033
0.049,0.032
0.049,0.032
0.047,0.031
0.044,0.031
0.043,0.030
0.038,0.028
0.040,0.030
0.044,0.026
0.049,0.027
0.052,0.024
0.051,0.025
0.049,0.021
0.053,0.023
0.049,0.017
0.050,0.023
0.049,0.018
0.053,0.017
0.056,0.016
0.072,0.013
0.084,0.013
0.091,0.014
0.084,0.014
0.077,0.012
0.065,0.011
0.052,0.010
0.045,0.010
0.038,0.008
0.036,0.010
0.032,0.006
0.029,0.007
0.032,0.004
0.037,0.005
0.040,0.004
0.046,0.001
0.048,0.000
0.057,0.001
0.069,0.006
0.090,0.004
0.121,0.007
0.113,0.004
0.078,0.006
0.049,0.001
0.038,0.003
0.031,-0.002
0.026,-0.002
0.007,-0.001
0.001,-0.003
0.009,-0.003
0.030,-0.005
0.038,-0.003
0.051,-0.005
0.032,-0.003
-0.002,-0.005
-0.013,-0.002
-0.011,-0.003
0.015,-0.003
0.050,-0.002
0.083,-0.003
0.112,-0.003
0.137,-0.003
0.141,-0.001
0.128,-0.003
0.098,-0.002
0.073,-0.002
0.065,-0.002
0.063,-0.002
0.057,0.001
0.042,0.002
0.032,0.002
0.027,0.005
0.032,0.004
0.040,0.004
0.056,0.002
0.074,0.002
0.086,0.003
0.085,0.003
0.075,0.007
0.066,0.007
0.028,0.010
-0.002,0.011
-0.013,0.010
-0.021,0.008
-0.006,0.011
0.012,0.009
0.033,0.010
0.050,0.011
0.066,0.011
0.067,0.015
0.061,0.014
0.056,0.018
0.058,0.020
0.058,0.017
0.057,0.017
0.064,0.017
0.066,0.020
0.071,0.021
0.050,0.021
-0.000,0.021
-0.089,0.023
-0.201,0.026
-0.262,0.028
-0.260,0.031
-0.204,0.032
-0.137,0.034
-0.052,0.034
0.017,0.034
0.067,0.032
0.097,0.033
0.117,0.033
0.143,0.036
0.165,0.037
0.183,0.038
0.196,0.037
0.205,0.036
0.198,0.034
0.186,0.038
0.157,0.040
0.121,0.038
0.080,0.043
0.045,0.039
0.000,0.043
-0.046,0.038
-0.065,0.041
-0.077,0.039
-0.058,0.040
-0.037,0.040
-0.008,0.042
0.007,0.044
0.030,0.045
0.049,0.047
0.061,0.043
0.072,0.047
0.082,0.046
0.104,0.047
0.114,0.045
0.114,0.045
0.112,0.048
0.115,0.048
0.113,0.049
0.107,0.044
0.100,0.045
0.087,0.045
0.081,0.045
0.069,0.044
0.067,0.043
0.056,0.048
0.048,0.045
0.045,0.048
0.037,0.046
0.014,0.047
0.002,0.045
0.019,0.046
0.042,0.044
0.068,0.042
0.084,0.043
0.099,0.042
0.115,0.043
0.126,0.043
0.110,0.041
0.080,0.038
0.031,0.036
-0.023,0.034
-0.081,0.036
-0.095,0.035
-0.091,0.035
-0.092,0.039
-0.067,0.037
-0.029,0.038
0.012,0.033
0.050,0.035
0.079,0.031
0.109,0.031
0.134,0.029
0.157,0.029
0.167,0.030
0.159,0.027
0.134,0.030
0.095,0.027
0.046,0.030
-0.006,0.025
-0.059,0.026
-0.089,0.021
-0.092,0.021
-0.084,0.018
-0.067,0.019
-0.036,0.016
-0.027,0.014
-0.011,0.013
0.008,0.014
0.037,0.012
0.057,0.016
0.083,0.011
0.107,0.013
0.138,0.009
0.157,0.010
0.166,0.011
0.157,0.011
0.121,0.011
0.072,0.009
0.020,0.007
-0.019,0.006
-0.047,0.009
-0.070,0.006
-0.074,0.007
-0.068,0.006
-0.052,0.005
-0.035,0.002
-0.027,0.003
-0.026,-0.001
-0.014,0.000
0.004,0.004
0.029,-0.000
0.047,0.003
0.068,0.001
0.075,0.003
0.055,0.001
0.029,-0.000
0.007,0.000
-0.009,-0.000
-0.014,0.001
0.010,-0.002
0.060,0.001
0.137,-0.003
0.203,0.002
0.241,-0.000
0.245,0.001
0.218,-0.002
0.186,-0.002
0.149,-0.002
0.113,-0.002
0.073,-0.001
0.051,-0.001
0.043,0.001
0.043,0.003
0.051,0.002
0.056,0.003
0.062,0.002
0.069,0.003
0.068,0.007
0.067,0.006
0.062,0.007
0.054,0.007
0.052,0.006
0.065,0.008
0.091,0.008
0.119,0.011
0.139,0.009
0.146,0.011
0.140,0.013
0.126,0.011
0.103,0.014
0.077,0.012
0.061,0.015
0.033,0.012
0.007,0.014
-0.012,0.014
-0.020,0.015
-0.015,0.020
-0.004,0.016
0.006,0.020
0.016,0.019
0.026,0.022
0.028,0.019
0.029,0.024
0.013,0.023
-0.026,0.025
-0.066,0.025
-0.085,0.028
-0.110,0.028
-0.146,0.034
-0.130,0.029
-0.095,0.032
-0.051,0.029
-0.003,0.031
0.046,0.031
0.088,0.030
0.120,0.031
0.154,0.034
0.176,0.036
0.185,0.037
0.168,0.039
0.137,0.039
0.097,0.039
0.066,0.038
0.038,0.038
0.022,0.037
0.031,0.040
0.035,0.038
0.038,0.043
0.034,0.042
0.003,0.043
-0.016,0.043
-0.014,0.043
-0.014,0.043
-0.016,0.043
-0.021,0.043
-0.007,0.043
0.009,0.046
0.030,0.043
0.049,0.043
0.070,0.043
0.094,0.042
0.110,0.044
0.124,0.046
0.127,0.044
0.127,0.044
0.119,0.043
0.115,0.045
0.106,0.046
0.102,0.047
0.090,0.048
0.084,0.047
0.079,0.049
0.077,0.046
0.075,0.045
0.070,0.047
0.062,0.045
0.054,0.047
0.050,0.043
0.045,0.045
0.044,0.043
0.039,0.044
0.039,0.042
0.042,0.041
0.045,0.041
0.048,0.038
0.049,0.044
0.049,0.039
0.048,0.041
0.047,0.036
0.050,0.036
0.046,0.034
0.049,0.033
0.049,0.034
0.049,0.031
0.046,0.032
0.045,0.029
0.050,0.030
0.061,0.031
0.078,0.035
0.090,0.029
0.107,0.027
0.111,0.020
0.108,0.021
0.092,0.016
0.078,0.017
0.058,0.016
0.039,0.016
0.013,0.016
0.008,0.016
0.009,0.016
0.012,0.016
0.023,0.020
0.018,0.017
-0.013,0.019
-0.058,0.013
-0.071,0.014
-0.065,0.012
-0.037,0.012
0.000,0.009
0.043,0.010
0.073,0.007
0.089,0.009
0.102,0.008
0.117,0.008
0.129,0.001
0.141,0.005
0.140,0.002
0.140,0.001
0.128,0.003
0.115,-0.001
0.094,0.004
0.082,0.001
0.069,0.004
0.056,-0.002
0.042,0.002
0.023,0.000
0.010,-0.002
0.008,0.001
0.015,-0.002
0.021,-0.004
0.032,-0.005
0.042,-0.004
0.046,-0.007
0.055,-0.008
0.059,-0.005
0.067,-0.008
0.075,-0.003
0.082,-0.003
0.086,-0.003
0.087,-0.004
0.084,-0.005
0.078,-0.004
0.069,-0.006
0.059,-0.008
0.050,-0.005
0.045,-0.004
0.031,-0.004
0.019,0.002
0.011,0.001
0.012,0.001
0.028,-0.001
0.048,0.001
0.061,0.000
0.063,0.002
0.049,0.000
0.032,0.005
0.011,0.005
0.001,0.005
-0.007,0.007
-0.005,0.004
-0.001,0.009
0.012,0.005
0.021,0.008
0.027,0.005
0.034,0.009
0.034,0.007
0.041,0.008
0.041,0.010
0.045,0.010
0.047,0.014
0.049,0.011
0.046,0.012
0.046,0.011
0.045,0.013
0.042,0.014
0.043,0.014
0.047,0.015
0.052,0.015
0.054,0.014
0.036,0.018
0.007,0.019
-0.026,0.022
-0.052,0.025
-0.055,0.029
-0.045,0.026
-0.016,0.026
0.002,0.026
0.023,0.026
0.038,0.025
0.056,0.027
0.070,0.026
0.084,0.028
0.093,0.025
0.101,0.031
0.101,0.033
0.096,0.034
0.082,0.036
0.074,0.036
0.060,0.041
0.056,0.037
0.050,0.040
0.045,0.039
0.048,0.043
0.044,0.038
0.049,0.037
0.046,0.034
0.047,0.036
0.047,0.037
0.046,0.034
0.042,0.039
0.043,0.039
0.040,0.039
0.043,0.039
0.045,0.038
0.053,0.038
0.073,0.038
0.113,0.037
0.148,0.039
0.165,0.042
0.158,0.041
0.125,0.041
0.092,0.037
0.068,0.038
0.038,0.039
0.010,0.038
-0.010,0.040
-0.038,0.039
-0.065,0.041
-0.067,0.038
-0.054,0.042
-0.039,0.037
-0.023,0.040
0.003,0.039
0.042,0.038
0.058,0.036
0.050,0.036
0.039,0.034
0.039,0.033
0.040,0.037
0.044,0.036
0.046,0.038
0.051,0.036
0.058,0.036
0.066,0.034
0.080,0.033
0.080,0.030
0.085,0.030
0.077,0.028
0.069,0.028
0.057,0.029
0.050,0.026
0.034,0.028
0.013,0.024
-0.008,0.026
-0.024,0.023
-0.016,0.024
-0.003,0.023
0.013,0.022
0.033,0.019
0.054,0.020
0.076,0.019
0.083,0.019
0.053,0.018
0.025,0.018
0.021,0.018
0.024,0.013
0.026,0.012
0.031,0.008
0.038,0.011
0.048,0.006
0.054,0.010
0.067,0.007
0.084,0.010
0.101,0.008
0.106,0.010
0.110,0.008
0.100,0.008
0.086,0.007
0.076,0.009
0.064,0.002
0.027,0.002
0.001,-0.002
-0.021,-0.002
-0.015,-0.002
0.002,-0.001
0.024,-0.002
0.049,-0.003
0.062,-0.001
0.075,-0.001
0.083,-0.000
0.097,-0.001
0.103,-0.001
0.094,-0.003
0.086,-0.003
0.076,-0.001
0.067,-0.007
0.054,-0.004
0.046,-0.007
0.041,-0.004
0.036,-0.008
0.036,-0.007
0.036,-0.010
0.043,-0.007
0.052,-0.005
0.070,-0.009
0.100,-0.005
0.142,-0.006
0.173,-0.006
0.182,-0.007
0.173,-0.006
0.136,-0.003
0.098,-0.006
0.056,-0.004
0.016,-0.004
-0.014,-0.006
-0.022,-0.005
-0.016,-0.003
-0.000,-0.004
0.017,-0.001
0.031,-0.003
0.037,-0.001
0.040,-0.002
0.038,-0.000
0.034,0.001
0.036,0.000
0.035,0.003
0.043,0.001
0.045,0.004
0.044,0.003
0.045,0.002
0.043,0.001
0.042,0.004
0.040,0.006
0.039,0.008
0.040,0.012
0.044,0.009
0.045,0.013
0.046,0.011
0.047,0.010
0.063,0.010
0.079,0.010
0.081,0.011
0.079,0.010
0.066,0.011
0.051,0.013
0.032,0.017
0.018,0.018
0.005,0.017
-0.001,0.020
0.004,0.020
0.017,0.026
0.022,0.026
0.029,0.026
0.034,0.029
0.037,0.029
0.035,0.029
0.039,0.028
0.041,0.026
0.039,0.031
0.041,0.025
0.042,0.028
0.043,0.031
0.045,0.031
0.045,0.034
0.047,0.033
0.042,0.038
0.038,0.035
0.034,0.038
0.035,0.037
0.037,0.038
0.033,0.039
0.035,0.039
0.034,0.039
0.033,0.040
0.034,0.044
0.035,0.039
0.037,0.040
0.035,0.039
0.041,0.041
0.038,0.042
0.039,0.043
0.038,0.043
0.038,0.041
0.038,0.042
0.038,0.042
0.039,0.044
0.042,0.041
0.052,0.043
0.073,0.042
0.113,0.041
0.147,0.041
0.168,0.042
0.163,0.043
0.134,0.046
0.091,0.046
0.050,0.046
0.006,0.046
-0.021,0.047
-0.037,0.046
-0.029,0.041
-0.012,0.041
0.002,0.037
0.015,0.037
0.036,0.039
0.060,0.037
0.070,0.037
0.081,0.038
0.077,0.037
0.063,0.035
0.045,0.036
0.026,0.035
0.018,0.034
0.019,0.037
0.028,0.035
0.049,0.034
0.075,0.033
0.095,0.030
0.102,0.032
0.097,0.031
0.081,0.026
0.068,0.024
0.044,0.025
0.018,0.028
0.003,0.028
-0.001,0.026
0.007,0.026
0.015,0.024
0.025,0.024
0.035,0.023
0.039,0.022
0.040,0.017
0.042,0.020
0.044,0.015
0.042,0.016
0.044,0.013
0.044,0.014
0.044,0.010
0.043,0.010
0.042,0.009
0.044,0.009
0.042,0.009
0.047,0.011
0.049,0.007
0.050,0.009
0.050,0.007
0.046,0.002
0.043,0.002
0.038,0.000
0.042,0.002
0.045,-0.000
0.046,0.002
0.047,0.001
0.047,0.003
0.044,0.000
0.047,0.002
0.046,-0.001
0.049,-0.001
0.046,-0.003
0.049,-0.002
0.045,-0.002
0.048,-0.003
0.050,-0.003
0.068,-0.007
0.077,-0.007
0.082,-0.009
0.082,-0.006
0.075,-0.005
0.074,-0.005
0.063,-0.004
0.055,-0.003
0.042,-0.003
0.034,-0.002
0.021,-0.002
0.023,-0.004
0.024,-0.004
0.024,-0.003
0.029,-0.004
0.032,-0.003
0.034,-0.007
0.036,-0.004
0.039,-0.004
0.041,-0.001
0.041,-0.002
0.040,-0.001
0.043,0.000
0.043,-0.000
0.049,-0.003
0.047,-0.000
0.046,0.002
0.044,0.002
0.043,0.006
0.046,0.006
0.044,0.008
0.041,0.007
0.044,0.009
0.043,0.008
0.047,0.008
0.044,0.008
0.047,0.008
0.045,0.009
0.044,0.009
0.046,0.012
0.043,0.010
0.044,0.016
0.045,0.014
0.051,0.013
0.047,0.009
0.046,0.013
0.039,0.010
0.040,0.011
0.039,0.011
0.040,0.017
0.037,0.017
0.041,0.018
0.038,0.018
0.041,0.022
0.040,0.023
0.046,0.023
0.045,0.024
0.047,0.024
0.048,0.023
0.048,0.026
0.050,0.026
0.058,0.027
0.085,0.026
0.120,0.026
0.148,0.032
0.157,0.030
0.143,0.033
0.111,0.033
0.074,0.037
0.033,0.036
-0.001,0.037
-0.026,0.035
-0.029,0.033
-0.020,0.038
-0.006,0.034
0.009,0.037
0.022,0.037
0.029,0.039
0.033,0.038
0.038,0.038
0.038,0.039
0.043,0.039
0.043,0.039
0.045,0.043
0.043,0.041
0.042,0.043
0.040,0.043
0.043,0.042
0.041,0.042
0.045,0.046
0.045,0.043
0.052,0.039
0.065,0.039
0.090,0.041
0.109,0.043
0.116,0.045
0.127,0.047
0.138,0.045
0.149,0.047
0.145,0.045
0.115,0.044
0.070,0.043
0.011,0.042
-0.014,0.039
-0.032,0.041
-0.038,0.038
-0.021,0.043
0.006,0.040
0.042,0.039
0.071,0.037
0.094,0.039
0.095,0.038
0.082,0.037
0.059,0.034
0.036,0.036
0.006,0.034
-0.009,0.037
-0.004,0.035
0.026,0.031
0.078,0.032
0.156,0.029
0.224,0.033
0.270,0.027
0.282,0.028
0.235,0.027
0.169,0.024
0.085,0.025
0.013,0.023
-0.042,0.025
-0.085,0.024
-0.106,0.026
-0.107,0.026
-0.088,0.026
-0.065,0.025
-0.038,0.022
-0.018,0.020
-0.000,0.017
0.012,0.015
0.020,0.012
0.028,0.009
0.031,0.012
0.034,0.010
0.045,0.010
0.056,0.007
0.071,0.010
0.090,0.005
0.123,0.005
0.156,0.005
0.165,0.002
0.151,0.004
0.118,0.003
0.072,0.003
0.030,0.002
0.002,0.002
-0.021,0.002
-0.029,0.003
-0.031,0.003
-0.030,0.001
-0.020,0.005
-0.006,0.006
0.010,0.006
0.024,0.002
0.033,0.000
0.036,-0.002
0.040,-0.004
0.038,-0.007
0.039,-0.006
0.037,-0.009
0.039,-0.009
0.039,-0.008
0.039,-0.007
0.039,-0.003
0.038,-0.003
0.039,0.000
0.039,-0.003
0.042,-0.002
0.041,-0.003
0.047,-0.004
0.044,-0.006
0.045,-0.005
0.043,-0.002
0.045,-0.004
0.043,-0.005
0.041,-0.003
0.041,-0.003
0.041,-0.003
0.041,-0.001
0.044,-0.003
0.040,0.000
0.044,0.002
0.040,0.001
0.040,0.007
0.038,0.005
0.038,0.005
0.039,0.006
0.045,0.007
0.048,0.004
0.047,0.007
0.046,0.006
0.045,0.007
0.045,0.007
0.041,0.007
0.039,0.009
0.038,0.011
0.036,0.011
0.035,0.010
0.039,0.014
0.041,0.009
0.051,0.010
0.053,0.012
0.052,0.014
0.048,0.017
0.044,0.015
0.041,0.019
0.042,0.016
0.040,0.017
0.041,0.016
0.042,0.021
0.042,0.021
0.050,0.023
0.060,0.022
0.089,0.028
0.118,0.025
0.140,0.028
0.140,0.027
0.126,0.031
0.093,0.028
