File Version,253.000000
# of Channels,2.000000
Samples/Channel,10300.000000
Scan Rate (Hz),10000.000000
Timestamp,3807793408.728580
Operating Mode,1.000000
Trial #,45.000000
Session #,26.000000
Subject code 1,82.000000
Subject code 2,88.000000
Feedback Window,0.000000
Feedback Ch,0.000000
Ch B,0.000000
Pre-Stim Acq. time (ms),100.000000
Post-Stim Acq. time (ms),900.000000
EMG Hi Limit,50.000000
EMG Lo Limit,0.000250
Target Value (V),5.000000
Stimulus Value (V),1.200000
Stimulus duration (ms),1.000000
EMG conditions time limit (sec),0.200000
M-response Start (ms),2.000000
M-response Duration (ms),2.000000
H-response Duration (ms),2.000000
H-response Start (ms),5.000000
Proportioanl gain,0.003000
Channel to monitor,0.000000
SIU gain,20.000000
FB Monitor value,1.040444
Inter-Stim delay (sec),5.000000
M-Window Mean,1.038077
H-Window Mean,0.009753
Stimulus paradigm,2.000000
# of Pulses in cond train,1.000000
Cond duration (ms),1.000000
Cond Train pulse period (ms),30.000000
Cond Value (V),1.200000
Start Delay (ms),0.000000
# of Pulses in stim train,1.000000
Stim Train pulse period (ms),30.000000
EMG amp gain ch 1,500.000000
EMG amp gain ch 2,500.000000
EMG amp gain ch 3,1000.000000
EMG amp gain ch 4,1000.000000
EMG amp gain ch 5,1000.000000
EMG amp gain ch 6,1000.000000
Stim Type 1,2.000000
Stim/Cond 1,0.000000
Stim Type 2,3.000000
Stim/Cond 2,0.000000
Stim Type 3,3.000000
Stim/Cond 3,0.000000
Stim Type 4,3.000000
Stim/Cond 4,0.000000
Stim Value 1,1.200000
Stim Value 2,0.000000
Stim Value 3,0.000000
Stim Value 4,0.000000
1st PP Channel,-1.000000
Pressure (g),0.000000
Speed (mm/sec),0.000000
Dwell (ms),0.000000
Pressure limit (g),0.000000
Travel limit (mm),0.000000
Amp gain,0.000000
Wait Trig?,0.000000
Move Timeout (ms),0.000000
Time Taken (ms),0.000000
Actual Travel (mm),0.000000
Recorded Data (mV),
0.046,0.008
0.045,0.007
0.044,0.008
0.045,0.007
0.046,0.006
0.045,0.008
0.046,0.008
0.041,0.008
0.045,0.009
0.045,0.010
0.043,0.011
0.044,0.015
0.045,0.013
0.044,0.013
0.044,0.014
0.042,0.015
0.043,0.017
0.042,0.017
0.045,0.018
0.041,0.016
0.041,0.018
0.041,0.017
0.043,0.019
0.043,0.022
0.045,0.023
0.042,0.027
0.041,0.027
0.045,0.029
0.043,0.028
0.044,0.030
0.044,0.029
0.047,0.034
0.043,0.029
0.045,0.034
0.041,0.031
0.043,0.030
0.041,0.032
0.044,0.034
0.040,0.037
0.042,0.036
0.041,0.039
0.043,0.036
0.045,0.035
0.045,0.035
0.048,0.034
0.049,0.034
0.047,0.035
0.048,0.036
0.043,0.036
0.046,0.041
0.041,0.038
0.044,0.042
0.042,0.041
0.045,0.044
0.042,0.043
0.048,0.043
0.046,0.043
0.046,0.042
0.044,0.044
0.044,0.041
0.042,0.045
0.043,0.043
0.041,0.044
0.039,0.043
0.040,0.041
0.040,0.041
0.045,0.042
0.043,0.042
0.044,0.043
0.045,0.044
0.046,0.047
0.045,0.045
0.045,0.044
0.043,0.044
0.046,0.042
0.045,0.041
0.044,0.037
0.043,0.040
0.044,0.037
0.046,0.039
0.044,0.037
0.046,0.037
0.042,0.040
0.042,0.039
0.043,0.037
0.044,0.035
0.043,0.034
0.045,0.035
0.043,0.034
0.045,0.035
0.047,0.035
0.044,0.035
0.045,0.034
0.048,0.032
0.045,0.028
0.049,0.026
0.048,0.022
0.050,0.026
0.049,0.024
0.049,0.025
0.048,0.023
0.048,0.022
0.045,0.022
0.050,0.019
0.048,0.019
0.052,0.019
0.049,0.019
0.050,0.017
0.046,0.015
0.048,0.011
0.047,0.016
0.048,0.010
0.048,0.013
0.047,0.009
0.045,0.014
0.045,0.013
0.049,0.010
0.045,0.010
0.049,0.009
0.044,0.007
0.049,0.007
0.046,0.004
0.049,0.004
0.047,0.003
0.047,0.002
0.048,0.003
0.047,0.005
0.044,0.003
0.044,0.004
0.045,0.005
0.045,0.004
0.049,0.002
0.049,0.004
0.047,0.002
0.047,0.001
0.048,-0.001
0.047,-0.000
0.047,-0.001
0.050,-0.004
0.045,-0.005
0.049,-0.005
0.048,-0.005
0.049,-0.005
0.045,0.000
0.048,-0.003
0.046,0.001
0.043,-0.001
0.045,-0.001
0.045,-0.003
0.047,-0.001
0.042,-0.003
0.047,-0.002
0.046,-0.002
0.048,-0.002
0.044,0.001
0.046,0.001
0.042,0.004
0.045,0.003
0.044,0.002
0.044,0.005
0.045,0.004
0.048,0.002
0.046,0.002
0.045,0.006
0.043,0.004
0.044,0.007
0.044,0.007
0.046,0.007
0.045,0.008
0.046,0.009
0.045,0.009
0.045,0.010
0.046,0.007
0.045,0.010
0.047,0.010
0.043,0.011
0.042,0.012
0.045,0.012
0.040,0.017
0.044,0.015
0.045,0.016
0.044,0.014
0.047,0.017
0.044,0.016
0.047,0.018
0.046,0.015
0.049,0.018
0.043,0.018
0.045,0.021
0.040,0.021
0.045,0.024
0.043,0.024
0.042,0.023
0.043,0.027
0.045,0.026
0.043,0.027
0.042,0.028
0.043,0.030
0.041,0.028
0.044,0.032
0.042,0.031
0.044,0.033
0.043,0.034
0.043,0.036
0.041,0.036
0.042,0.038
0.042,0.038
0.042,0.040
0.044,0.036
0.046,0.037
0.045,0.037
0.047,0.037
0.042,0.037
0.044,0.038
0.040,0.041
0.043,0.040
0.037,0.041
0.038,0.039
0.039,0.041
0.039,0.042
0.044,0.043
0.040,0.042
0.045,0.042
0.042,0.046
0.042,0.044
0.038,0.048
0.043,0.045
0.040,0.046
0.042,0.044
0.043,0.045
0.044,0.044
0.046,0.044
0.043,0.045
0.044,0.043
0.045,0.046
0.046,0.044
0.044,0.049
0.044,0.047
0.044,0.047
0.045,0.042
0.046,0.047
0.045,0.043
0.049,0.043
0.045,0.044
0.047,0.040
0.045,0.041
0.047,0.040
0.043,0.043
0.047,0.041
0.047,0.040
0.047,0.038
0.048,0.038
0.049,0.038
0.050,0.037
0.048,0.038
0.047,0.036
0.047,0.040
0.049,0.038
0.045,0.036
0.047,0.034
0.049,0.030
0.049,0.030
0.051,0.028
0.051,0.027
0.048,0.026
0.047,0.028
0.047,0.027
0.050,0.027
0.047,0.026
0.047,0.026
0.047,0.026
0.049,0.026
0.048,0.023
0.048,0.019
0.049,0.018
0.048,0.016
0.049,0.015
0.047,0.013
0.049,0.011
0.048,0.015
0.048,0.012
0.049,0.011
0.050,0.009
0.052,0.012
0.053,0.006
0.053,0.006
0.053,0.006
0.052,0.005
0.052,0.009
0.051,0.004
0.049,0.008
0.051,0.004
0.049,0.005
0.047,0.003
0.049,0.002
0.044,0.002
0.048,0.000
0.045,0.003
0.047,0.001
0.050,0.001
0.051,0.000
0.049,0.000
0.050,-0.001
0.050,-0.003
0.049,-0.004
0.047,-0.003
0.049,-0.005
0.049,-0.003
0.045,-0.003
0.047,-0.004
0.045,-0.002
0.047,-0.002
0.046,0.001
0.046,-0.002
0.048,0.001
0.048,-0.004
0.046,-0.002
0.046,0.000
0.046,0.001
0.043,0.004
0.045,0.002
0.042,0.002
0.044,0.003
0.046,0.005
0.045,0.003
0.049,0.006
0.049,0.006
0.049,0.004
0.048,0.008
0.046,0.004
0.046,0.010
0.043,0.007
0.046,0.008
0.046,0.007
0.048,0.010
0.046,0.007
0.051,0.008
0.048,0.008
0.047,0.008
0.050,0.013
0.049,0.012
0.046,0.014
0.045,0.013
0.049,0.015
0.047,0.014
0.049,0.016
0.048,0.014
0.048,0.017
0.047,0.014
0.046,0.015
0.046,0.015
0.049,0.017
0.048,0.018
0.049,0.019
0.047,0.022
0.049,0.020
0.045,0.025
0.048,0.021
0.044,0.025
0.047,0.025
0.045,0.030
0.045,0.029
0.045,0.031
0.045,0.030
0.044,0.030
0.046,0.031
0.047,0.033
0.042,0.032
0.041,0.036
0.043,0.034
0.044,0.035
0.041,0.036
0.045,0.036
0.041,0.035
0.047,0.037
0.044,0.036
0.044,0.038
0.046,0.039
0.044,0.038
0.041,0.042
0.044,0.043
0.042,0.042
0.044,0.040
0.043,0.043
0.047,0.040
0.045,0.043
0.044,0.044
0.045,0.046
0.045,0.049
0.045,0.050
0.043,0.050
0.045,0.047
0.045,0.048
0.046,0.045
0.047,0.046
0.045,0.046
0.045,0.045
0.046,0.047
0.043,0.049
0.041,0.053
0.043,0.050
0.045,0.049
0.043,0.049
0.046,0.050
0.043,0.048
0.050,0.048
0.048,0.045
0.049,0.046
0.047,0.049
0.047,0.048
0.046,0.048
0.046,0.046
0.046,0.043
0.047,0.043
0.047,0.041
0.049,0.041
0.050,0.040
0.049,0.043
0.046,0.041
0.048,0.043
0.047,0.040
0.047,0.040
0.047,0.039
0.050,0.036
0.049,0.035
0.049,0.034
0.049,0.036
0.050,0.035
0.051,0.035
0.050,0.034
0.052,0.034
0.049,0.032
0.050,0.032
0.047,0.026
0.048,0.027
0.046,0.026
0.051,0.027
0.048,0.022
0.052,0.024
0.050,0.020
0.053,0.020
0.051,0.019
0.051,0.017
0.049,0.016
0.049,0.014
0.049,0.016
0.049,0.012
0.046,0.013
0.048,0.011
0.049,0.012
0.050,0.011
0.048,0.010
0.048,0.009
0.050,0.008
0.047,0.006
0.050,0.007
0.049,0.005
0.051,0.007
0.046,0.005
0.049,0.006
0.049,0.008
0.047,0.008
0.045,0.008
0.045,0.007
0.046,0.005
0.047,0.008
0.049,0.006
0.050,0.001
0.050,0.000
0.053,-0.002
0.049,-0.001
0.049,-0.001
0.049,-0.001
0.047,-0.000
0.049,-0.001
0.050,-0.001
0.050,-0.003
0.047,-0.002
0.049,-0.002
0.049,-0.000
0.047,0.001
0.047,-0.002
0.046,0.000
0.047,0.000
0.047,0.001
0.047,0.002
0.049,0.003
0.046,0.001
0.049,0.000
0.046,0.002
0.045,0.000
0.043,0.006
0.042,0.002
0.042,0.006
0.042,0.002
0.045,0.006
0.045,0.006
0.047,0.008
0.044,0.007
0.048,0.010
0.047,0.009
0.044,0.010
0.043,0.013
0.043,0.014
0.041,0.014
0.044,0.015
0.043,0.016
0.044,0.013
0.044,0.014
0.046,0.013
0.043,0.014
0.044,0.014
0.042,0.015
0.041,0.017
0.043,0.018
0.040,0.017
0.041,0.020
0.040,0.021
0.041,0.022
0.041,0.021
0.041,0.021
0.040,0.024
0.039,0.025
0.039,0.025
0.040,0.025
0.039,0.027
0.038,0.029
0.041,0.033
0.041,0.031
0.044,0.031
0.041,0.032
0.042,0.030
0.043,0.031
0.045,0.031
0.043,0.032
0.044,0.033
0.044,0.033
0.045,0.034
0.046,0.037
0.045,0.035
0.046,0.038
0.043,0.036
0.044,0.036
0.044,0.035
0.048,0.039
0.046,0.039
0.047,0.039
0.046,0.037
0.044,0.036
0.043,0.037
0.043,0.040
0.044,0.043
0.040,0.041
0.042,0.044
0.042,0.044
0.043,0.046
0.043,0.045
0.048,0.046
0.045,0.043
0.046,0.045
0.045,0.042
0.047,0.042
0.045,0.044
0.044,0.042
0.044,0.042
0.042,0.044
0.041,0.045
0.043,0.043
0.043,0.045
0.044,0.043
0.044,0.043
0.045,0.043
0.045,0.042
0.047,0.046
0.044,0.044
0.043,0.043
0.043,0.044
0.048,0.042
0.045,0.040
0.047,0.040
0.046,0.041
0.047,0.040
0.045,0.039
0.044,0.039
0.045,0.039
0.041,0.037
0.046,0.037
0.045,0.037
0.048,0.036
0.046,0.034
0.047,0.036
0.046,0.033
0.047,0.032
0.044,0.035
0.047,0.034
0.046,0.032
0.048,0.032
0.047,0.029
0.046,0.029
0.047,0.027
0.048,0.024
0.048,0.022
0.048,0.026
0.049,0.024
0.045,0.020
0.046,0.022
0.050,0.019
0.048,0.018
0.052,0.012
0.049,0.015
0.049,0.011
0.049,0.011
0.046,0.010
0.049,0.009
0.048,0.008
0.048,0.008
0.048,0.012
0.051,0.009
0.048,0.010
0.046,0.008
0.046,0.007
0.048,0.005
0.051,0.006
0.049,0.004
0.049,0.004
0.049,0.003
0.049,0.003
0.050,0.006
0.050,0.002
0.049,0.006
0.050,0.004
0.051,0.008
0.047,0.004
0.053,0.004
0.051,0.001
0.054,-0.003
0.051,-0.000
0.052,-0.001
0.050,-0.001
0.050,-0.001
0.047,0.000
0.048,-0.001
0.049,0.000
0.049,-0.002
0.051,-0.003
0.051,0.000
0.050,-0.001
0.051,0.002
0.049,-0.001
0.047,0.000
0.047,-0.002
0.045,0.000
0.045,-0.002
0.043,0.002
0.044,0.000
0.045,0.000
0.046,0.000
0.045,0.001
0.043,0.005
0.044,0.004
0.041,0.006
0.044,0.004
0.045,0.005
0.043,0.005
0.048,0.007
0.046,0.002
0.046,0.008
0.046,0.009
0.049,0.008
0.044,0.011
0.047,0.012
0.045,0.013
0.044,0.012
0.044,0.013
0.044,0.008
0.045,0.011
0.045,0.011
0.046,0.015
0.045,0.016
0.041,0.018
0.041,0.017
0.043,0.017
0.042,0.017
0.041,0.019
0.040,0.020
0.040,0.018
0.038,0.022
0.040,0.022
0.039,0.024
0.039,0.025
0.039,0.025
0.040,0.028
0.040,0.029
0.040,0.029
0.043,0.029
0.041,0.030
0.044,0.030
0.042,0.032
0.045,0.032
0.044,0.031
0.045,0.030
0.047,0.029
0.044,0.035
0.045,0.032
0.042,0.033
0.044,0.038
0.043,0.036
0.042,0.039
0.043,0.039
0.041,0.040
0.042,0.038
0.041,0.039
0.044,0.037
0.044,0.036
0.044,0.036
0.044,0.039
0.042,0.039
0.043,0.040
0.041,0.044
0.041,0.045
0.040,0.047
0.041,0.044
0.043,0.047
0.043,0.042
0.046,0.043
0.040,0.040
0.043,0.041
0.041,0.040
0.043,0.043
0.041,0.044
0.042,0.044
0.042,0.040
0.044,0.041
0.042,0.043
0.042,0.042
0.043,0.043
0.042,0.042
0.041,0.044
0.043,0.045
0.040,0.045
0.041,0.044
0.043,0.045
0.041,0.042
0.044,0.042
0.043,0.043
0.044,0.040
0.043,0.040
0.043,0.043
0.042,0.039
0.041,0.041
0.043,0.037
0.044,0.037
0.043,0.036
0.045,0.035
0.043,0.033
0.048,0.035
0.045,0.034
0.045,0.033
0.045,0.033
0.047,0.031
0.043,0.030
0.045,0.030
0.045,0.028
0.046,0.024
0.044,0.026
0.047,0.025
0.045,0.026
0.047,0.023
0.047,0.026
0.048,0.022
0.049,0.018
0.046,0.017
0.049,0.019
0.050,0.017
0.050,0.015
0.049,0.016
0.050,0.013
0.045,0.014
0.048,0.009
0.047,0.011
0.049,0.010
0.047,0.010
0.047,0.010
0.042,0.007
0.045,0.008
0.044,0.007
0.047,0.004
0.043,0.005
0.046,-0.000
0.049,0.004
0.049,0.001
0.048,0.001
0.047,0.002
0.049,0.002
0.045,0.002
0.048,0.001
0.043,0.001
0.048,-0.000
0.046,-0.000
0.047,-0.001
0.049,0.000
0.049,-0.002
0.049,-0.006
0.051,-0.004
0.049,-0.007
0.049,-0.005
0.048,-0.007
0.046,-0.006
0.045,-0.006
0.049,-0.004
0.046,-0.005
0.050,-0.005
0.047,-0.001
0.050,-0.003
0.046,-0.003
0.048,-0.003
0.046,-0.004
0.046,-0.004
0.048,-0.003
0.047,-0.007
0.050,-0.005
0.048,-0.005
0.048,-0.004
0.043,0.001
0.047,0.002
0.045,0.002
0.046,0.004
0.046,0.003
0.048,0.002
0.048,0.003
0.048,0.003
0.049,0.001
0.048,0.004
0.045,0.002
0.046,0.007
0.047,0.005
0.048,0.004
0.046,0.007
0.049,0.006
0.048,0.006
0.048,0.010
0.049,0.009
0.048,0.012
0.049,0.014
0.049,0.015
0.046,0.015
0.044,0.015
0.045,0.017
0.044,0.016
0.045,0.017
0.045,0.016
0.046,0.019
0.044,0.015
0.045,0.019
0.042,0.015
0.045,0.021
0.044,0.019
0.045,0.022
0.043,0.022
0.047,0.026
0.043,0.024
0.047,0.025
0.045,0.023
0.049,0.025
0.044,0.026
0.046,0.028
0.045,0.027
0.046,0.029
0.043,0.028
0.042,0.030
0.043,0.032
0.041,0.033
0.040,0.036
0.042,0.036
0.041,0.036
0.041,0.036
0.044,0.038
0.042,0.036
0.045,0.036
0.043,0.039
0.042,0.038
0.041,0.038
0.042,0.039
0.040,0.039
0.042,0.040
0.040,0.042
0.039,0.042
0.041,0.043
0.043,0.040
0.045,0.042
0.042,0.041
0.046,0.042
0.043,0.042
0.045,0.042
0.044,0.040
0.044,0.040
0.043,0.042
0.044,0.041
0.045,0.042
0.046,0.042
0.044,0.040
0.046,0.045
0.045,0.045
0.043,0.044
0.044,0.042
0.046,0.044
0.045,0.043
0.047,0.041
0.049,0.040
0.049,0.042
0.049,0.040
0.051,0.041
0.049,0.042
0.048,0.041
0.047,0.040
0.046,0.039
0.048,0.038
0.050,0.034
0.049,0.037
0.049,0.034
0.050,0.036
0.050,0.033
0.050,0.035
0.049,0.034
0.050,0.033
0.049,0.032
0.051,0.029
0.049,0.029
0.050,0.029
0.050,0.025
0.050,0.028
0.049,0.027
0.051,0.028
0.051,0.025
0.049,0.027
0.051,0.023
0.050,0.025
0.050,0.020
0.050,0.022
0.050,0.018
0.053,0.019
0.052,0.013
0.050,0.013
0.051,0.011
0.048,0.011
0.049,0.010
0.049,0.012
0.047,0.011
0.049,0.010
0.047,0.010
0.050,0.010
0.049,0.010
0.052,0.009
0.052,0.007
0.050,0.007
0.050,0.008
0.049,0.005
0.049,0.006
0.051,0.007
0.050,0.004
0.050,0.005
0.051,0.004
0.049,0.001
0.052,0.001
0.052,0.004
0.050,0.003
0.050,0.002
0.051,0.001
0.049,-0.001
0.051,-0.000
0.050,-0.002
0.051,-0.006
0.054,-0.005
0.055,-0.006
0.051,-0.006
0.051,-0.005
0.049,-0.004
0.047,-0.003
0.051,-0.001
0.052,-0.002
0.050,-0.003
0.055,-0.003
0.052,-0.005
0.050,-0.003
0.051,-0.001
0.049,-0.002
0.049,-0.002
0.045,-0.003
0.047,-0.001
0.046,-0.001
0.049,-0.001
0.047,-0.000
0.049,0.001
0.048,0.001
0.047,0.000
0.048,0.002
0.049,0.000
0.046,0.007
0.049,0.003
0.046,0.004
0.048,0.005
-0.025,-0.024
-0.033,-0.020
-0.034,-0.016
-0.028,-0.011
-0.025,-0.008
-0.017,-0.004
-0.011,-0.003
-0.007,0.002
0.049,0.005
0.271,0.003
0.977,0.002
2.272,-0.129
3.763,-0.501
4.618,-1.066
4.243,-1.459
2.734,-1.067
0.823,0.433
-0.645,2.485
-1.807,3.950
-2.605,4.733
-2.926,4.955
-2.893,3.369
-2.538,0.838
-2.144,-1.577
-1.790,-3.214
-1.482,-4.042
-1.125,-3.764
-0.710,-2.574
-0.293,-1.320
0.049,-0.508
0.270,-0.134
0.359,-0.012
0.361,0.005
0.321,-0.003
0.265,-0.013
0.213,-0.020
0.169,-0.018
0.135,-0.017
0.113,-0.008
0.096,0.002
0.082,0.011
0.072,0.021
0.062,0.030
0.052,0.035
0.044,0.045
0.035,0.053
0.029,0.036
0.027,-0.009
0.031,-0.033
0.035,-0.028
0.036,-0.015
0.035,0.002
0.033,0.007
0.034,0.010
0.031,0.004
0.036,0.007
0.031,0.008
0.032,0.008
0.031,0.009
0.040,0.010
0.046,0.012
0.045,0.012
0.039,0.011
0.037,0.013
0.037,0.012
0.034,0.016
0.035,0.013
0.037,0.015
0.036,0.010
0.039,0.014
0.038,0.010
0.044,0.014
0.042,0.010
0.045,0.010
0.043,0.008
0.045,0.008
0.041,0.009
0.041,0.010
0.035,0.013
0.036,0.011
0.032,0.016
0.035,0.014
0.040,0.016
0.044,0.013
0.045,0.014
0.044,0.011
0.046,0.012
0.046,0.011
0.047,0.011
0.043,0.015
0.050,0.013
0.045,0.012
0.047,0.010
0.046,0.012
0.045,0.009
0.045,0.008
0.044,0.007
0.044,0.004
0.044,0.006
0.045,0.006
0.046,0.005
0.046,0.007
0.046,0.004
0.049,0.005
0.047,0.004
0.049,0.003
0.046,0.002
0.049,0.002
0.047,0.003
0.047,-0.000
0.044,0.000
0.045,-0.000
0.044,0.002
0.045,0.002
0.043,0.004
0.043,0.001
0.043,0.001
0.046,0.002
0.046,-0.001
0.044,-0.002
0.047,-0.004
0.045,-0.003
0.048,-0.004
0.046,-0.005
0.043,-0.005
0.046,-0.003
0.045,-0.005
0.043,-0.004
0.045,-0.006
0.043,-0.004
0.043,-0.005
0.045,-0.005
0.047,-0.007
0.045,-0.007
0.046,-0.007
0.044,-0.008
0.045,-0.006
0.047,-0.005
0.045,-0.005
0.044,-0.005
0.044,-0.004
0.044,-0.005
0.046,-0.005
0.045,-0.007
0.048,-0.006
0.044,-0.004
0.048,-0.003
0.043,-0.001
0.045,-0.003
0.044,-0.002
0.042,-0.006
0.046,-0.003
0.045,-0.007
0.046,-0.003
0.040,-0.003
0.043,-0.002
0.040,0.003
0.043,0.002
0.040,0.004
0.043,0.005
0.042,0.004
0.043,0.002
0.047,0.005
0.045,0.006
0.044,0.006
0.045,0.009
0.045,0.009
0.044,0.012
0.045,0.009
0.046,0.011
0.043,0.011
0.046,0.012
0.045,0.012
0.046,0.016
0.044,0.011
0.045,0.015
0.043,0.014
0.043,0.017
0.040,0.018
0.045,0.019
0.042,0.017
0.046,0.018
0.044,0.021
0.046,0.020
0.043,0.023
0.044,0.022
0.044,0.022
0.045,0.023
0.044,0.028
0.044,0.027
0.047,0.030
0.043,0.032
0.047,0.032
0.044,0.032
0.045,0.034
0.042,0.033
0.045,0.034
0.044,0.036
0.048,0.035
0.046,0.034
0.047,0.037
0.046,0.035
0.046,0.036
0.046,0.037
0.045,0.038
0.044,0.040
0.044,0.039
0.044,0.044
0.046,0.042
0.048,0.045
0.049,0.045
0.050,0.043
0.047,0.041
0.048,0.045
0.050,0.044
0.047,0.045
0.047,0.047
0.045,0.049
0.045,0.050
0.048,0.052
0.049,0.051
0.049,0.050
0.051,0.050
0.051,0.047
0.050,0.047
0.049,0.047
0.051,0.047
0.049,0.048
0.049,0.049
0.050,0.049
0.050,0.049
0.053,0.052
0.050,0.050
0.051,0.054
0.050,0.050
0.052,0.050
0.050,0.052
0.050,0.052
0.048,0.050
0.052,0.050
0.053,0.051
0.054,0.044
0.053,0.048
0.054,0.044
0.052,0.045
0.054,0.045
0.054,0.045
0.051,0.046
0.055,0.046
0.050,0.044
0.051,0.044
0.051,0.045
0.054,0.042
0.056,0.044
0.055,0.045
0.055,0.041
0.052,0.041
0.056,0.039
0.056,0.039
0.055,0.035
0.054,0.037
0.054,0.031
0.055,0.036
0.056,0.032
0.058,0.030
0.057,0.032
0.058,0.029
0.054,0.032
0.056,0.029
0.056,0.030
0.056,0.025
0.057,0.028
0.057,0.024
0.057,0.023
0.055,0.020
0.056,0.022
0.053,0.018
0.054,0.017
0.054,0.015
0.053,0.014
0.054,0.013
0.054,0.013
0.054,0.013
0.055,0.013
0.052,0.010
0.058,0.009
0.053,0.008
0.056,0.005
0.054,0.009
0.054,0.005
0.053,0.010
0.050,0.009
0.051,0.010
0.050,0.008
0.057,0.009
0.054,0.007
0.055,0.009
0.055,0.006
0.057,0.005
0.054,0.008
0.059,0.004
0.055,0.006
0.054,0.004
0.054,0.003
0.053,-0.001
0.055,0.002
0.051,-0.000
0.054,-0.002
0.054,0.001
0.054,0.001
0.055,0.006
0.053,0.003
0.055,0.004
0.050,0.002
0.055,0.001
0.051,0.001
0.054,-0.001
0.054,0.000
0.054,-0.002
0.052,0.001
0.053,-0.000
0.050,0.001
0.051,0.002
0.051,0.004
0.049,0.004
0.055,0.008
0.053,0.005
0.055,0.006
0.052,0.007
0.053,0.007
0.051,0.007
0.051,0.008
0.050,0.008
0.051,0.009
0.050,0.010
0.053,0.011
0.053,0.010
0.053,0.010
0.055,0.011
0.051,0.015
0.051,0.013
0.047,0.014
0.049,0.013
0.050,0.013
0.048,0.014
0.049,0.016
0.050,0.017
0.050,0.017
0.049,0.017
0.049,0.016
0.050,0.015
0.049,0.015
0.049,0.020
0.048,0.018
0.047,0.021
0.047,0.020
0.047,0.024
0.045,0.023
0.048,0.028
0.046,0.024
0.047,0.028
0.048,0.027
0.045,0.029
0.046,0.028
0.047,0.031
0.047,0.032
0.047,0.033
0.047,0.033
0.044,0.035
0.047,0.035
0.045,0.036
0.047,0.034
0.049,0.035
0.048,0.032
0.050,0.033
0.044,0.034
0.044,0.032
0.045,0.037
0.043,0.038
0.045,0.039
0.045,0.038
0.044,0.037
0.045,0.034
0.046,0.038
0.044,0.037
0.046,0.041
0.044,0.045
0.047,0.041
0.043,0.046
0.047,0.046
0.044,0.046
0.045,0.045
0.043,0.043
0.046,0.040
0.046,0.043
0.047,0.038
0.047,0.041
0.046,0.043
0.049,0.042
0.044,0.044
0.046,0.045
0.044,0.045
0.046,0.043
0.045,0.045
0.046,0.044
0.046,0.044
0.046,0.041
0.046,0.042
0.047,0.045
0.046,0.039
0.044,0.041
0.046,0.037
0.046,0.040
0.045,0.036
0.048,0.040
0.045,0.036
0.050,0.036
0.046,0.036
0.047,0.036
0.046,0.035
0.049,0.032
0.047,0.035
0.046,0.032
0.048,0.035
0.045,0.032
0.048,0.031
0.046,0.030
0.049,0.028
0.048,0.028
0.049,0.026
0.047,0.030
0.049,0.028
0.049,0.031
0.049,0.027
0.047,0.028
0.049,0.028
0.048,0.025
0.050,0.024
0.049,0.022
0.050,0.019
0.048,0.020
0.051,0.014
0.051,0.014
0.051,0.012
0.051,0.013
0.049,0.012
0.052,0.012
0.047,0.011
0.052,0.011
0.048,0.011
0.050,0.010
0.051,0.010
0.053,0.007
0.051,0.007
0.053,0.004
0.049,0.004
0.050,0.004
0.049,0.002
0.050,0.002
0.052,0.004
0.051,0.001
0.053,-0.002
0.052,0.000
0.050,-0.000
0.046,0.004
0.048,0.000
0.049,0.003
0.048,-0.001
0.051,0.000
0.047,-0.003
0.052,-0.002
0.049,-0.002
0.050,-0.005
0.046,-0.002
0.047,-0.003
0.046,-0.001
0.043,-0.002
0.048,-0.000
0.044,-0.003
0.049,-0.001
0.045,-0.001
0.049,-0.003
0.046,-0.002
0.047,-0.003
0.044,0.002
0.047,-0.001
0.045,0.000
0.045,0.000
0.043,0.002
0.043,-0.000
0.042,0.000
0.041,0.001
0.037,0.002
0.037,0.003
0.039,0.003
0.037,0.007
0.041,0.007
0.042,0.009
0.047,0.007
0.049,0.009
0.051,0.008
0.049,0.006
0.046,0.007
0.048,0.006
0.049,0.010
0.049,0.008
0.046,0.013
0.043,0.010
0.046,0.013
0.045,0.013
0.047,0.013
0.044,0.014
0.045,0.013
0.043,0.015
0.042,0.015
0.043,0.015
0.043,0.016
0.046,0.019
0.041,0.018
0.043,0.020
0.042,0.020
0.040,0.021
0.042,0.020
0.040,0.026
0.041,0.023
0.040,0.028
0.041,0.026
0.041,0.030
0.044,0.029
0.043,0.031
0.043,0.030
0.041,0.033
0.043,0.032
0.041,0.034
0.039,0.036
0.040,0.035
0.041,0.036
0.042,0.036
0.042,0.034
0.043,0.038
0.043,0.040
0.042,0.037
0.044,0.040
0.044,0.038
0.042,0.042
0.044,0.041
0.042,0.043
0.042,0.039
0.043,0.041
0.040,0.040
0.044,0.039
0.042,0.041
0.040,0.042
0.042,0.046
0.041,0.043
0.042,0.048
0.043,0.045
0.042,0.043
0.041,0.044
0.046,0.045
0.043,0.044
0.047,0.045
0.045,0.045
0.046,0.043
0.045,0.045
0.047,0.047
0.045,0.050
0.043,0.048
0.042,0.047
0.044,0.051
0.047,0.046
0.047,0.045
0.046,0.044
0.047,0.044
0.045,0.042
0.047,0.044
0.045,0.042
0.046,0.041
0.047,0.041
0.047,0.042
0.047,0.039
0.049,0.039
0.048,0.041
0.047,0.040
0.049,0.042
0.049,0.039
0.045,0.040
0.047,0.039
0.048,0.040
0.048,0.037
0.049,0.034
0.049,0.032
0.050,0.032
0.048,0.031
0.047,0.031
0.045,0.032
0.048,0.030
0.045,0.031
0.046,0.028
0.045,0.030
0.048,0.028
0.046,0.026
0.048,0.023
0.048,0.023
0.047,0.022
0.052,0.020
0.047,0.016
0.052,0.019
0.048,0.013
0.049,0.016
0.049,0.014
0.050,0.015
0.045,0.012
0.050,0.012
0.049,0.013
0.051,0.010
0.050,0.010
0.051,0.008
0.049,0.011
0.050,0.010
0.048,0.009
0.049,0.008
0.049,0.006
0.048,0.005
0.050,0.006
0.049,0.006
0.050,0.005
0.050,0.005
0.049,0.002
0.049,0.006
0.049,0.004
0.049,0.007
0.047,0.004
0.049,0.003
0.049,-0.000
0.050,0.000
0.050,-0.000
0.050,-0.001
0.047,0.001
0.049,-0.002
0.046,-0.001
0.046,-0.003
0.047,-0.002
0.044,-0.004
0.049,-0.001
0.047,-0.003
0.050,-0.003
0.046,-0.003
0.050,-0.002
0.048,0.002
0.048,-0.001
0.043,-0.001
0.046,-0.001
0.046,-0.000
0.046,-0.001
0.047,-0.002
0.047,-0.002
0.046,-0.003
0.046,0.002
0.047,0.000
0.044,0.005
0.043,0.003
0.043,0.005
0.041,0.003
0.045,0.008
0.043,0.005
0.045,0.005
0.045,0.007
0.046,0.007
0.045,0.011
0.045,0.012
0.043,0.013
0.043,0.012
0.043,0.015
0.043,0.014
0.046,0.015
0.044,0.015
0.049,0.013
0.046,0.016
0.047,0.014
0.046,0.019
0.046,0.019
0.043,0.023
0.044,0.021
0.043,0.023
0.044,0.022
0.039,0.023
0.044,0.026
0.039,0.028
0.040,0.027
0.038,0.031
0.042,0.029
0.041,0.033
0.043,0.030
0.043,0.031
0.044,0.032
0.044,0.033
0.041,0.033
0.042,0.033
0.041,0.032
0.043,0.033
0.040,0.034
0.042,0.036
0.039,0.035
0.041,0.036
0.043,0.036
0.044,0.037
0.042,0.037
0.041,0.036
0.044,0.040
0.044,0.038
0.045,0.039
0.042,0.039
0.042,0.039
0.045,0.041
0.043,0.041
0.043,0.038
0.045,0.039
0.045,0.045
0.045,0.043
0.043,0.045
0.043,0.045
0.044,0.046
0.046,0.044
0.045,0.043
0.044,0.044
0.045,0.042
0.045,0.042
0.044,0.040
0.045,0.044
0.041,0.043
0.040,0.049
0.039,0.046
0.042,0.045
0.042,0.043
0.044,0.046
0.043,0.043
0.045,0.048
0.045,0.046
0.048,0.046
0.046,0.046
0.046,0.043
0.042,0.045
0.043,0.042
0.042,0.043
0.043,0.040
0.046,0.041
0.045,0.039
0.045,0.037
0.044,0.039
0.047,0.037
0.043,0.039
0.045,0.038
0.043,0.038
0.046,0.035
0.044,0.035
0.045,0.033
0.047,0.033
0.045,0.035
0.047,0.032
0.046,0.033
0.046,0.029
0.047,0.034
0.046,0.029
0.050,0.029
0.046,0.025
0.049,0.026
0.044,0.024
0.048,0.023
0.048,0.024
0.050,0.023
0.049,0.021
0.051,0.018
0.049,0.016
0.047,0.017
0.047,0.013
0.048,0.011
0.046,0.014
0.046,0.013
0.048,0.014
0.046,0.010
0.046,0.011
0.045,0.010
0.047,0.013
0.048,0.012
0.047,0.011
0.048,0.012
0.048,0.009
0.047,0.008
0.050,0.007
0.049,0.006
0.050,0.004
0.047,0.006
0.048,0.005
0.047,0.008
0.047,0.006
0.048,0.008
0.046,0.003
0.051,0.004
0.049,0.001
0.050,0.001
0.049,0.004
0.051,0.000
0.047,0.003
0.050,0.002
0.046,0.003
0.046,0.000
0.049,-0.000
0.048,-0.002
0.047,0.002
0.048,-0.004
0.048,-0.002
0.048,-0.002
0.049,0.000
0.047,0.001
0.047,-0.001
0.047,0.001
0.049,-0.000
0.046,0.000
0.049,-0.004
0.049,-0.002
0.047,0.004
0.048,0.002
0.046,0.006
0.044,0.002
0.045,0.004
0.043,0.004
0.048,0.003
0.048,0.000
0.050,0.003
0.047,0.004
0.048,0.003
0.045,0.008
0.047,0.004
0.044,0.011
0.045,0.010
0.043,0.011
0.042,0.010
0.045,0.011
0.044,0.011
0.047,0.010
0.045,0.009
0.048,0.013
0.046,0.013
0.047,0.012
0.045,0.016
0.045,0.018
0.045,0.017
0.046,0.015
0.042,0.017
0.046,0.017
0.045,0.020
0.046,0.020
0.045,0.022
0.046,0.021
0.046,0.022
0.041,0.024
0.044,0.026
0.042,0.026
0.044,0.026
0.043,0.029
0.045,0.030
0.046,0.028
0.046,0.031
0.045,0.033
0.046,0.033
0.046,0.031
0.046,0.035
0.045,0.032
0.049,0.037
0.044,0.035
0.048,0.036
0.044,0.038
0.048,0.038
0.045,0.043
0.043,0.039
0.044,0.040
0.042,0.036
0.045,0.036
0.045,0.036
0.047,0.037
0.046,0.037
0.046,0.039
0.043,0.043
0.044,0.044
0.041,0.047
0.044,0.046
0.041,0.043
0.042,0.044
0.045,0.047
0.045,0.044
0.047,0.043
0.047,0.042
0.047,0.041
0.047,0.045
0.046,0.045
0.046,0.044
0.043,0.042
0.046,0.046
0.046,0.043
0.046,0.044
0.046,0.045
0.046,0.045
0.045,0.048
0.045,0.046
0.046,0.046
0.044,0.048
0.045,0.044
0.045,0.041
0.048,0.041
0.045,0.039
0.048,0.040
0.047,0.038
0.046,0.039
0.044,0.040
0.048,0.038
0.044,0.037
0.047,0.037
0.046,0.036
0.048,0.035
0.048,0.035
0.048,0.034
0.047,0.033
0.046,0.036
0.046,0.031
0.047,0.032
0.044,0.032
0.047,0.032
0.046,0.029
0.049,0.027
0.048,0.026
0.046,0.025
0.047,0.026
0.048,0.024
0.049,0.024
0.049,0.022
0.050,0.022
0.047,0.022
0.048,0.020
0.047,0.017
0.048,0.018
0.048,0.013
0.047,0.017
0.044,0.010
0.044,0.012
0.044,0.010
0.046,0.011
0.047,0.012
0.046,0.010
0.047,0.009
0.048,0.006
0.049,0.009
0.051,0.009
0.051,0.004
0.049,0.002
0.050,0.002
0.047,0.002
0.047,0.001
0.046,0.002
0.043,0.003
0.045,0.003
0.045,0.005
0.045,0.001
0.048,0.002
0.046,-0.001
0.049,-0.003
0.050,-0.000
0.049,-0.000
0.049,0.001
0.049,-0.002
0.048,-0.003
0.047,-0.001
0.047,-0.001
0.047,-0.003
0.047,-0.004
0.046,-0.003
0.047,-0.002
0.047,0.000
0.047,0.001
0.045,0.000
0.047,-0.001
0.048,-0.004
0.048,-0.005
0.049,-0.003
0.046,-0.003
0.044,-0.004
0.047,-0.001
0.048,-0.002
0.046,-0.001
0.045,0.000
0.044,0.002
0.047,0.002
0.048,0.002
0.047,-0.003
0.048,0.002
0.047,0.002
0.047,0.002
0.045,0.005
0.046,0.002
0.041,0.006
0.045,0.004
0.043,0.007
0.045,0.006
0.048,0.006
0.045,0.006
0.048,0.008
0.043,0.009
0.044,0.009
0.040,0.013
0.044,0.011
0.043,0.014
0.045,0.015
0.046,0.016
0.043,0.014
0.047,0.013
0.043,0.015
0.044,0.015
0.041,0.015
0.044,0.014
0.042,0.015
0.043,0.015
0.045,0.017
0.043,0.019
0.042,0.019
0.044,0.021
0.045,0.021
0.047,0.025
0.043,0.025
0.046,0.026
0.042,0.025
0.046,0.026
0.044,0.027
0.046,0.027
0.041,0.025
0.044,0.028
0.044,0.032
0.043,0.033
0.042,0.037
0.043,0.035
0.040,0.035
0.043,0.036
0.043,0.032
0.041,0.033
0.045,0.033
0.045,0.032
0.045,0.034
0.044,0.035
0.044,0.033
0.043,0.037
0.044,0.037
0.041,0.037
0.040,0.038
0.039,0.040
0.040,0.039
0.045,0.039
0.045,0.039
0.043,0.038
0.045,0.041
0.044,0.038
0.043,0.042
0.044,0.036
0.042,0.040
0.041,0.039
0.043,0.039
0.042,0.039
0.045,0.042
0.043,0.040
0.047,0.041
0.047,0.041
0.043,0.042
0.044,0.043
0.044,0.043
0.043,0.043
0.045,0.039
0.045,0.039
0.045,0.034
0.047,0.037
0.048,0.039
0.047,0.036
0.047,0.036
0.047,0.037
0.047,0.039
0.047,0.035
0.045,0.037
0.048,0.033
0.046,0.034
0.045,0.032
0.045,0.034
0.047,0.031
0.046,0.030
0.044,0.033
0.045,0.031
0.044,0.030
0.047,0.028
0.049,0.030
0.049,0.028
0.047,0.027
0.049,0.026
0.049,0.025
0.047,0.025
0.049,0.024
0.048,0.025
0.050,0.022
0.048,0.023
0.050,0.021
0.049,0.022
0.048,0.018
0.049,0.017
0.049,0.015
0.046,0.014
0.047,0.012
0.046,0.013
0.046,0.012
0.048,0.012
0.049,0.011
0.050,0.012
0.050,0.011
0.051,0.013
0.050,0.008
0.051,0.008
0.049,0.004
0.052,0.004
0.050,0.004
0.049,0.002
0.047,0.004
0.048,0.003
0.047,0.002
0.047,0.004
0.052,0.003
0.048,0.003
0.050,0.004
0.050,0.003
0.051,0.002
0.051,0.003
0.051,0.002
0.048,0.001
0.049,-0.001
0.049,-0.001
0.049,-0.004
0.050,-0.003
0.050,-0.002
0.049,0.000
0.047,0.003
0.047,0.002
0.045,0.003
0.044,0.000
0.048,0.002
0.047,0.000
0.049,-0.000
0.047,0.000
0.047,-0.004
0.044,0.003
0.046,-0.003
0.045,0.000
0.047,0.002
0.045,0.004
0.044,0.002
0.044,0.004
0.044,0.002
0.050,0.004
0.048,0.002
0.049,0.002
0.046,0.003
0.047,0.005
0.045,0.007
0.047,0.009
0.042,0.008
0.044,0.009
0.045,0.010
0.044,0.008
0.048,0.008
0.046,0.009
0.045,0.008
0.046,0.011
0.044,0.011
0.046,0.013
0.043,0.015
0.044,0.015
0.041,0.016
0.042,0.016
0.042,0.014
0.043,0.016
0.043,0.015
0.043,0.018
0.044,0.017
0.040,0.017
0.041,0.016
0.040,0.022
0.041,0.021
0.039,0.023
0.042,0.024
0.040,0.027
0.043,0.028
0.043,0.028
0.040,0.028
0.044,0.030
0.041,0.030
0.043,0.028
0.044,0.033
0.043,0.028
0.044,0.033
0.043,0.032
0.041,0.036
0.041,0.034
0.041,0.036
0.041,0.039
0.042,0.039
0.040,0.038
0.042,0.037
0.042,0.037
0.044,0.040
0.045,0.042
0.045,0.040
0.043,0.041
0.044,0.040
0.046,0.041
0.044,0.041
0.045,0.041
0.042,0.040
0.045,0.043
0.043,0.042
0.046,0.043
0.044,0.044
0.047,0.043
0.043,0.045
0.044,0.044
0.045,0.046
0.042,0.045
0.045,0.044
0.042,0.043
0.044,0.041
0.045,0.043
0.045,0.042
0.043,0.045
0.043,0.044
0.041,0.046
0.044,0.046
0.042,0.047
0.041,0.046
0.044,0.047
0.045,0.045
0.045,0.045
0.044,0.043
0.045,0.043
0.044,0.042
0.044,0.037
0.045,0.042
0.045,0.038
0.046,0.040
0.045,0.038
0.048,0.037
0.048,0.038
0.049,0.036
0.048,0.035
0.048,0.036
0.047,0.039
0.048,0.036
0.047,0.036
0.047,0.035
0.047,0.033
0.044,0.031
0.050,0.030
0.047,0.028
0.050,0.029
0.048,0.027
0.051,0.024
0.046,0.028
0.049,0.025
0.047,0.027
0.047,0.023
0.048,0.026
0.048,0.024
0.049,0.021
0.048,0.018
0.051,0.019
0.051,0.017
0.052,0.015
0.050,0.013
0.050,0.014
0.049,0.014
0.049,0.013
0.045,0.011
0.048,0.010
0.047,0.010
0.049,0.010
0.049,0.003
0.051,0.007
0.052,0.002
0.052,0.003
0.051,0.001
0.051,0.000
0.049,0.003
0.049,0.001
0.046,0.003
0.048,0.002
0.049,0.004
0.048,0.000
0.050,0.003
0.050,0.001
0.047,0.000
0.046,0.002
0.051,-0.001
0.047,0.000
0.049,-0.003
0.050,-0.002
0.049,-0.004
0.049,-0.002
0.048,-0.002
0.049,-0.003
0.050,0.000
0.048,-0.003
0.048,0.000
0.046,-0.003
0.050,-0.001
0.049,-0.002
0.057,-0.005
0.054,-0.004
0.050,-0.004
0.050,-0.001
0.050,-0.004
0.046,-0.003
0.049,-0.003
0.051,0.001
0.046,-0.003
0.051,0.000
0.051,0.001
0.048,-0.001
0.044,0.001
0.047,0.001
0.045,0.004
0.047,0.005
0.047,0.004
0.047,0.004
0.047,0.004
0.049,0.007
0.051,0.006
0.051,0.008
0.052,0.004
0.051,0.011
0.048,0.010
0.044,0.014
0.042,0.011
0.042,0.013
0.040,0.011
0.043,0.013
0.040,0.013
0.044,0.011
0.045,0.013
0.045,0.016
0.046,0.017
0.044,0.015
0.044,0.019
0.043,0.015
0.043,0.020
0.043,0.020
0.042,0.023
0.042,0.025
0.041,0.029
0.041,0.026
0.042,0.030
0.044,0.027
0.041,0.032
0.044,0.031
0.045,0.035
0.043,0.032
0.043,0.036
0.044,0.032
0.044,0.036
0.044,0.034
0.045,0.037
0.044,0.036
0.047,0.037
0.045,0.036
0.048,0.035
0.045,0.037
0.045,0.037
0.042,0.037
0.042,0.036
0.044,0.040
0.048,0.039
0.050,0.039
0.051,0.040
0.054,0.042
0.048,0.042
0.049,0.042
0.046,0.038
0.042,0.041
0.038,0.041
0.036,0.040
0.036,0.042
0.046,0.037
0.049,0.036
0.057,0.035
0.055,0.038
0.053,0.040
0.054,0.044
0.048,0.043
0.044,0.044
0.041,0.046
0.040,0.045
0.041,0.049
0.046,0.045
0.048,0.047
0.051,0.046
0.050,0.045
0.050,0.043
0.050,0.043
0.053,0.040
0.052,0.039
0.048,0.044
0.046,0.041
0.043,0.042
0.042,0.038
0.044,0.036
0.046,0.034
0.049,0.037
0.046,0.032
0.046,0.030
0.041,0.033
0.042,0.043
0.042,0.061
0.047,0.071
0.043,0.086
0.048,0.083
0.049,0.073
0.046,0.044
0.048,0.016
0.049,-0.001
0.049,-0.003
0.046,0.002
0.048,0.006
0.046,0.013
0.049,0.012
0.045,0.013
0.046,0.015
0.049,0.015
0.051,0.017
0.052,0.016
0.057,0.013
0.058,0.012
0.060,0.009
0.055,0.010
0.055,0.013
0.047,0.014
0.045,0.015
0.044,0.015
0.040,0.013
0.043,0.012
0.042,0.009
0.051,0.009
0.051,0.007
0.052,0.007
0.050,0.008
0.052,0.005
0.049,0.007
0.048,0.006
0.048,0.007
0.050,0.006
0.053,0.007
0.054,0.007
0.056,0.003
0.057,-0.001
0.056,-0.004
0.055,-0.006
0.052,-0.008
0.053,-0.002
0.051,-0.005
0.048,-0.002
0.045,0.002
0.047,0.013
0.044,0.020
0.048,0.018
0.048,-0.002
0.048,-0.022
0.046,-0.023
0.044,-0.026
0.045,-0.016
0.045,-0.013
0.049,-0.006
0.048,-0.006
0.054,-0.002
0.050,-0.003
0.051,-0.006
0.043,-0.007
0.040,-0.012
0.036,-0.015
0.033,-0.015
0.030,-0.015
0.030,-0.011
0.038,-0.010
0.050,-0.009
0.058,-0.003
0.060,-0.002
0.061,-0.001
0.060,0.001
0.059,0.000
0.054,-0.001
0.055,0.003
0.050,0.004
0.049,0.007
0.046,0.006
0.045,0.008
0.043,0.010
0.046,0.015
0.047,0.014
0.048,0.020
0.045,0.021
0.043,0.027
0.038,0.034
0.036,0.041
0.032,0.036
0.034,0.025
0.032,0.020
0.039,0.030
0.048,0.034
0.056,0.027
0.057,0.012
0.059,-0.012
0.053,-0.021
0.052,-0.022
0.047,-0.011
0.045,-0.008
0.042,0.004
0.042,0.006
0.044,0.012
0.045,0.010
0.045,0.018
0.044,0.017
0.045,0.026
0.047,0.028
0.048,0.034
0.052,0.036
0.055,0.041
0.057,0.046
0.057,0.054
0.058,0.059
0.057,0.068
0.051,0.068
0.048,0.063
0.037,0.045
0.033,0.032
0.030,0.015
0.036,0.005
0.036,0.010
0.042,0.014
0.039,0.021
0.042,0.021
0.041,0.022
0.042,0.024
0.042,0.029
0.042,0.030
0.041,0.036
0.043,0.038
0.043,0.040
0.043,0.043
0.044,0.046
0.040,0.046
0.042,0.045
0.042,0.044
0.045,0.040
0.050,0.039
0.055,0.034
0.051,0.034
0.053,0.036
0.054,0.036
0.049,0.042
0.046,0.042
0.045,0.043
0.044,0.041
0.047,0.043
0.049,0.039
0.053,0.041
0.051,0.040
0.049,0.041
0.046,0.041
0.044,0.040
0.038,0.044
0.040,0.043
0.038,0.043
0.043,0.041
0.048,0.040
0.049,0.036
0.052,0.035
0.051,0.034
0.057,0.028
0.053,0.030
0.053,0.026
0.048,0.025
0.047,0.032
0.046,0.046
0.041,0.055
0.038,0.041
0.030,0.020
0.032,0.013
0.036,0.012
0.044,0.012
0.047,0.019
0.047,0.025
0.047,0.032
0.043,0.027
0.047,0.028
0.043,0.024
0.049,0.022
0.047,0.021
0.051,0.022
0.053,0.025
0.056,0.030
0.055,0.037
0.053,0.043
0.054,0.032
0.051,0.025
0.048,0.017
0.045,0.013
0.037,0.012
0.040,0.014
0.039,0.011
0.045,0.004
0.048,0.002
0.047,-0.003
0.046,-0.001
0.046,-0.003
0.048,0.001
0.045,0.000
0.047,0.001
0.043,-0.002
0.047,-0.000
0.047,0.003
0.049,0.000
0.049,0.004
0.047,0.001
0.044,0.007
0.045,0.002
0.047,0.005
0.045,0.002
0.048,0.003
0.045,0.000
0.049,-0.000
0.048,0.002
0.050,-0.000
0.048,-0.002
0.049,-0.005
0.045,-0.007
0.047,-0.008
0.049,-0.008
0.047,-0.013
0.047,-0.010
0.049,-0.012
0.049,-0.008
0.054,-0.007
0.056,-0.010
0.052,-0.009
0.048,-0.006
0.042,-0.003
0.044,-0.002
0.046,0.001
0.051,0.000
0.053,0.005
0.055,0.006
0.053,0.007
0.050,0.010
0.049,0.004
0.044,0.005
0.040,0.001
0.035,0.003
0.028,0.000
0.028,0.002
0.026,0.003
0.033,0.002
0.037,0.007
0.049,0.007
0.054,0.011
0.058,0.006
0.057,0.011
0.054,0.007
0.051,0.008
0.049,0.004
0.050,0.006
0.049,0.006
0.055,0.006
0.056,0.010
0.057,0.012
0.050,0.017
0.051,0.018
0.045,0.023
0.042,0.019
0.032,0.018
0.027,0.020
0.025,0.023
0.029,0.024
0.037,0.024
0.040,0.026
0.042,0.028
0.044,0.030
0.046,0.029
0.044,0.028
0.042,0.033
0.046,0.030
0.043,0.033
0.049,0.031
0.048,0.033
0.048,0.030
0.049,0.032
0.045,0.031
0.045,0.032
0.041,0.036
0.036,0.036
0.036,0.038
0.036,0.033
0.040,0.037
0.045,0.035
0.044,0.036
0.044,0.036
0.042,0.037
0.037,0.036
0.035,0.037
0.030,0.039
0.025,0.039
0.029,0.039
0.035,0.038
0.041,0.041
0.046,0.045
0.044,0.045
0.046,0.048
0.047,0.047
0.045,0.043
0.043,0.043
0.043,0.046
0.040,0.043
0.043,0.045
0.042,0.046
0.040,0.046
0.040,0.050
0.041,0.054
0.040,0.051
0.043,0.053
0.040,0.055
0.044,0.068
0.041,0.080
0.041,0.094
0.040,0.095
0.040,0.084
0.038,0.066
0.040,0.047
0.044,0.034
0.042,0.006
0.041,-0.006
0.043,-0.005
0.045,0.001
0.043,0.012
0.045,0.017
0.040,0.026
0.043,0.031
0.045,0.033
0.044,0.033
0.048,0.033
0.046,0.032
0.051,0.032
0.049,0.032
0.050,0.030
0.048,0.032
0.047,0.025
0.051,0.027
0.051,0.022
0.056,0.024
0.050,0.023
0.050,0.021
0.047,0.021
0.049,0.019
0.049,0.023
0.050,0.019
0.049,0.021
0.050,0.019
0.052,0.019
0.050,0.014
0.051,0.015
0.045,0.012
0.041,0.013
0.042,0.012
0.045,0.013
0.048,0.010
0.047,0.012
0.050,0.010
0.050,0.010
0.049,0.009
0.051,0.004
0.045,0.000
0.040,0.003
0.036,-0.000
0.040,0.004
0.042,-0.002
0.050,-0.001
0.052,0.007
0.055,0.004
0.047,0.010
0.039,0.002
0.028,0.006
0.016,-0.002
0.015,-0.002
0.022,-0.007
0.046,-0.009
0.070,-0.012
0.081,-0.016
0.080,-0.013
0.075,-0.007
0.063,0.001
0.053,0.005
0.043,0.005
0.040,0.007
0.049,0.001
0.059,0.003
0.062,0.007
0.062,0.020
0.055,0.030
0.053,0.036
0.046,0.028
0.044,0.005
0.043,-0.020
0.047,-0.034
0.047,-0.029
0.050,-0.019
0.048,-0.003
0.044,0.002
0.043,0.004
0.045,0.004
0.044,0.007
0.045,0.014
0.044,0.024
0.042,0.021
0.042,0.006
0.040,-0.009
0.038,-0.014
0.038,-0.013
0.043,-0.011
0.039,-0.006
0.042,-0.003
0.045,0.002
0.045,0.002
0.045,0.006
0.044,0.005
0.046,0.008
0.044,0.010
0.045,0.011
0.041,0.015
0.043,0.013
0.046,0.017
0.046,0.013
0.046,0.018
0.046,0.015
0.048,0.015
0.047,0.013
0.049,0.015
0.050,0.014
0.049,0.015
0.046,0.018
0.049,0.018
0.046,0.019
0.046,0.021
0.045,0.023
0.045,0.023
0.045,0.025
0.044,0.025
0.043,0.026
0.042,0.028
0.045,0.029
0.049,0.031
0.059,0.031
0.060,0.031
0.058,0.028
0.055,0.030
0.052,0.031
0.051,0.035
0.041,0.035
0.037,0.036
0.038,0.036
0.045,0.035
0.045,0.036
0.045,0.041
0.042,0.049
0.039,0.058
0.038,0.054
0.042,0.049
0.050,0.041
0.051,0.037
0.057,0.035
0.052,0.033
0.042,0.027
0.036,0.032
0.019,0.036
0.014,0.039
0.005,0.050
0.019,0.048
0.039,0.053
0.060,0.049
0.065,0.048
0.061,0.044
0.055,0.045
0.049,0.044
0.049,0.045
0.044,0.041
0.047,0.044
0.045,0.046
0.045,0.046
0.043,0.051
0.048,0.047
0.046,0.049
0.044,0.047
0.046,0.049
0.044,0.046
0.044,0.047
0.041,0.044
0.045,0.043
0.045,0.043
0.048,0.043
0.050,0.046
0.050,0.045
0.051,0.050
0.050,0.050
0.053,0.055
0.052,0.062
0.054,0.078
0.045,0.078
0.047,0.066
0.041,0.063
0.040,0.049
0.039,0.030
0.037,0.008
0.041,-0.004
0.041,-0.006
0.047,-0.002
0.047,0.007
0.049,0.012
0.048,0.021
0.049,0.022
0.047,0.025
0.050,0.021
0.046,0.021
0.049,0.019
0.049,0.017
0.051,0.016
0.049,0.014
0.051,0.009
0.047,0.010
0.050,0.008
0.045,0.008
0.046,0.003
0.044,0.008
0.047,0.003
0.047,0.006
0.044,0.008
0.049,0.013
0.045,0.012
0.050,0.016
0.048,0.019
0.049,0.021
0.050,0.022
0.050,0.019
0.047,0.018
0.051,0.014
0.050,0.010
0.049,0.009
0.052,0.008
0.051,0.006
0.055,0.003
0.056,0.006
0.055,0.003
0.053,0.007
0.050,0.007
0.051,0.010
0.050,0.010
0.055,0.010
0.050,0.007
0.055,0.003
0.057,-0.002
0.055,-0.005
0.052,-0.005
0.049,-0.004
0.045,-0.002
0.041,-0.002
0.040,0.002
0.040,-0.001
0.043,0.000
0.043,0.000
0.045,-0.001
0.046,-0.002
0.048,-0.003
0.046,-0.000
0.050,-0.002
0.047,-0.002
0.050,-0.000
0.052,0.001
0.054,-0.002
0.055,0.000
0.054,-0.001
0.050,0.000
0.049,0.004
0.044,0.002
0.039,0.009
0.038,0.008
0.046,0.010
0.051,0.011
0.060,0.008
0.062,0.008
0.062,0.008
0.051,0.009
0.045,0.010
0.039,0.014
0.042,0.012
0.045,0.012
0.049,0.010
0.053,0.014
0.048,0.012
0.052,0.015
0.047,0.015
0.048,0.017
0.043,0.019
0.045,0.018
0.041,0.019
0.043,0.020
0.043,0.021
0.042,0.019
0.043,0.024
0.041,0.025
0.045,0.028
0.050,0.025
0.050,0.031
0.056,0.035
0.055,0.038
0.058,0.037
0.052,0.040
0.051,0.042
0.041,0.057
0.039,0.064
0.033,0.075
0.033,0.069
0.033,0.055
0.034,0.028
0.039,0.013
0.037,0.007
0.044,0.011
0.041,0.018
0.045,0.027
0.042,0.036
0.044,0.041
0.044,0.045
0.043,0.041
0.043,0.038
0.043,0.036
0.044,0.032
0.045,0.031
0.041,0.031
0.042,0.034
0.040,0.038
0.039,0.040
0.039,0.043
0.038,0.045
0.039,0.047
0.042,0.049
0.043,0.050
0.045,0.050
0.046,0.049
0.048,0.048
0.045,0.042
0.045,0.042
0.045,0.043
0.043,0.044
0.045,0.046
0.046,0.044
0.045,0.046
0.045,0.045
0.047,0.047
0.047,0.043
0.050,0.043
0.048,0.043
0.046,0.045
0.046,0.043
0.048,0.044
0.044,0.045
0.048,0.042
0.046,0.044
0.044,0.040
0.045,0.040
0.047,0.036
0.050,0.039
0.048,0.037
0.049,0.038
0.048,0.039
0.047,0.038
0.043,0.038
0.046,0.036
0.046,0.036
0.045,0.035
0.049,0.035
0.049,0.031
0.047,0.029
0.047,0.031
0.049,0.028
0.050,0.029
0.049,0.028
0.049,0.028
0.045,0.028
0.046,0.029
0.042,0.026
0.045,0.028
0.041,0.025
0.046,0.023
0.043,0.023
0.050,0.020
0.044,0.019
0.049,0.017
0.049,0.019
0.052,0.016
0.050,0.015
0.052,0.015
0.052,0.013
0.053,0.010
0.054,0.014
0.052,0.010
0.054,0.013
0.053,0.010
0.054,0.010
0.053,0.004
0.055,0.005
0.053,0.005
0.057,0.003
0.056,0.001
0.056,0.002
0.055,0.003
0.055,0.003
0.053,0.006
0.052,0.006
0.048,0.009
0.049,0.007
0.048,0.005
0.048,0.005
0.049,0.001
0.050,0.002
0.049,-0.003
0.051,0.003
0.049,-0.003
0.050,-0.001
0.047,0.000
0.046,-0.002
0.048,-0.002
0.048,0.000
0.049,-0.002
0.050,-0.001
0.051,0.001
0.050,-0.001
0.049,-0.001
0.049,-0.001
0.047,0.000
0.047,-0.002
0.048,-0.002
0.047,-0.003
0.049,-0.001
0.045,0.000
0.046,0.000
0.044,0.002
0.046,0.004
0.045,0.007
0.047,0.004
0.041,0.009
0.042,0.007
0.046,0.009
0.045,0.007
0.047,0.007
0.045,0.009
0.044,0.008
0.044,0.008
0.045,0.001
0.043,0.005
0.043,0.003
0.041,0.006
0.042,0.008
0.045,0.010
0.041,0.013
0.047,0.013
0.045,0.018
0.045,0.018
0.047,0.024
0.045,0.023
0.046,0.025
0.045,0.021
0.044,0.020
0.046,0.019
0.047,0.018
0.045,0.019
0.045,0.020
0.043,0.019
0.039,0.018
0.042,0.017
0.039,0.016
0.041,0.015
0.040,0.023
0.039,0.031
0.041,0.044
0.041,0.049
0.043,0.049
0.045,0.043
0.046,0.036
0.047,0.032
0.049,0.032
0.046,0.031
0.048,0.035
0.047,0.034
0.044,0.031
0.046,0.035
0.041,0.034
0.040,0.038
0.040,0.039
0.038,0.038
0.039,0.037
0.043,0.039
0.046,0.037
0.045,0.039
0.047,0.038
0.045,0.037
0.045,0.038
0.046,0.040
0.045,0.041
0.041,0.043
0.043,0.045
0.044,0.045
0.046,0.045
0.046,0.039
0.049,0.038
0.046,0.037
0.045,0.037
0.043,0.038
0.045,0.038
0.039,0.041
0.043,0.043
0.041,0.047
0.044,0.047
0.045,0.051
0.047,0.052
0.047,0.053
0.048,0.052
0.048,0.050
0.046,0.047
0.048,0.046
0.044,0.045
0.047,0.041
0.046,0.043
0.049,0.040
0.049,0.041
0.049,0.040
0.049,0.041
0.049,0.045
0.051,0.041
0.049,0.041
0.048,0.039
0.050,0.039
0.049,0.038
0.053,0.039
0.050,0.035
0.050,0.036
0.049,0.035
0.050,0.034
0.049,0.033
0.049,0.032
0.048,0.031
0.047,0.027
0.049,0.026
0.050,0.026
0.050,0.025
0.049,0.024
0.046,0.024
0.049,0.022
0.050,0.023
0.053,0.021
0.052,0.020
0.051,0.018
0.053,0.018
0.048,0.015
0.049,0.012
0.048,0.012
0.050,0.006
0.046,0.007
0.048,0.005
0.049,0.008
0.050,0.010
0.046,0.016
0.049,0.015
0.046,0.013
0.049,0.010
0.045,0.007
0.047,0.005
0.048,0.005
0.047,0.002
0.047,0.003
0.047,0.005
0.047,0.004
0.048,0.004
0.048,0.006
0.046,0.006
0.047,0.004
0.046,0.004
0.048,0.002
0.048,0.002
0.049,-0.000
0.049,-0.001
0.048,0.001
0.048,-0.003
0.045,0.000
0.045,-0.003
0.042,-0.002
0.043,-0.003
0.045,-0.003
0.045,-0.006
0.047,-0.003
0.045,-0.004
0.048,-0.003
0.047,-0.001
0.048,-0.004
0.044,-0.000
0.046,-0.001
0.046,0.001
0.047,-0.005
0.050,0.000
0.049,0.000
0.049,0.001
0.048,0.001
0.048,0.001
0.047,0.007
0.046,0.004
0.047,0.007
0.048,0.006
0.048,0.006
0.049,0.004
0.048,0.004
0.049,0.006
0.049,0.007
0.047,0.010
0.047,0.006
0.045,0.010
0.044,0.009
0.045,0.011
0.044,0.008
0.045,0.010
0.045,0.012
0.045,0.010
0.043,0.015
0.047,0.014
0.044,0.019
0.047,0.017
0.045,0.018
0.045,0.017
0.046,0.018
0.045,0.018
0.045,0.018
0.042,0.017
0.045,0.019
0.041,0.021
0.044,0.022
0.042,0.021
0.043,0.025
0.041,0.023
0.043,0.027
0.044,0.027
0.043,0.028
0.041,0.027
0.045,0.031
0.043,0.031
0.045,0.031
0.041,0.030
0.044,0.029
0.045,0.031
0.047,0.034
0.044,0.035
0.041,0.035
0.043,0.038
0.043,0.036
0.042,0.040
0.041,0.039
0.045,0.039
0.041,0.039
0.045,0.037
0.044,0.036
0.043,0.037
0.042,0.039
0.044,0.040
0.041,0.040
0.042,0.039
0.042,0.038
0.042,0.040
0.044,0.045
0.042,0.047
0.044,0.049
0.045,0.046
0.043,0.045
0.047,0.046
0.044,0.045
0.044,0.047
0.045,0.046
0.044,0.046
0.041,0.047
0.041,0.046
0.044,0.047
0.042,0.047
0.043,0.046
0.043,0.048
0.043,0.050
0.042,0.046
0.045,0.048
0.043,0.047
0.045,0.048
0.046,0.046
0.048,0.046
0.046,0.043
0.049,0.041
0.049,0.039
0.046,0.041
0.046,0.040
0.047,0.040
0.044,0.041
0.047,0.039
0.048,0.040
0.046,0.036
0.049,0.039
0.050,0.037
0.050,0.036
0.049,0.036
0.047,0.035
0.045,0.036
0.047,0.034
0.045,0.033
0.047,0.033
0.045,0.032
0.047,0.029
0.047,0.028
0.046,0.027
0.045,0.025
0.046,0.029
0.046,0.027
0.046,0.026
0.049,0.025
0.048,0.025
0.049,0.021
0.050,0.025
0.047,0.020
0.048,0.022
0.049,0.018
0.048,0.021
0.048,0.013
0.050,0.016
0.046,0.013
0.047,0.013
0.047,0.011
0.051,0.014
0.049,0.007
0.052,0.008
0.049,0.008
0.052,0.007
0.050,0.007
0.053,0.003
0.051,0.005
0.049,0.002
0.050,0.005
0.049,0.003
0.049,0.004
0.048,0.003
0.051,0.004
0.049,0.002
0.052,0.004
0.050,0.005
0.051,0.001
0.051,0.004
0.051,0.002
0.049,0.002
0.050,-0.001
0.049,-0.003
0.048,-0.002
0.052,-0.003
0.047,-0.001
0.046,-0.000
0.051,0.001
0.048,-0.000
0.049,0.002
0.047,0.000
0.051,0.001
0.051,-0.002
0.053,-0.001
0.052,-0.003
0.052,-0.004
0.050,0.001
0.050,-0.001
0.049,0.000
0.048,0.000
0.050,-0.001
0.047,0.002
0.048,0.003
0.044,0.002
0.049,0.003
0.046,0.007
0.046,0.006
0.044,0.011
0.045,0.010
0.045,0.010
0.045,0.012
0.048,0.011
0.046,0.007
0.045,0.009
0.046,0.010
0.048,0.010
0.048,0.011
0.047,0.010
0.046,0.014
0.044,0.012
0.043,0.011
0.045,0.013
0.045,0.014
0.047,0.016
0.046,0.016
0.048,0.017
0.046,0.015
0.046,0.019
0.048,0.017
0.049,0.018
0.046,0.017
0.045,0.021
0.045,0.019
0.046,0.024
0.046,0.020
0.046,0.026
0.045,0.023
0.043,0.028
0.044,0.027
0.046,0.032
0.045,0.030
0.044,0.032
0.045,0.030
0.045,0.032
0.047,0.034
0.045,0.034
0.045,0.033
0.045,0.032
0.043,0.032
0.043,0.034
0.046,0.033
0.044,0.035
0.047,0.036
0.047,0.038
0.046,0.038
0.047,0.038
0.045,0.042
0.045,0.037
0.045,0.040
0.045,0.038
0.047,0.039
0.045,0.036
0.049,0.038
0.046,0.039
0.049,0.042
0.046,0.043
0.045,0.042
0.041,0.045
0.045,0.039
0.044,0.042
0.045,0.038
0.045,0.040
0.044,0.038
0.045,0.039
0.041,0.041
0.044,0.041
0.040,0.043
0.043,0.044
0.039,0.046
0.045,0.045
0.041,0.044
0.043,0.044
0.045,0.045
0.044,0.041
0.044,0.043
0.046,0.043
0.045,0.038
0.046,0.042
0.047,0.037
0.048,0.040
0.046,0.038
0.050,0.039
0.046,0.036
0.048,0.036
0.046,0.036
0.047,0.033
0.047,0.038
0.049,0.035
0.047,0.036
0.045,0.034
0.045,0.036
0.043,0.034
0.048,0.035
0.047,0.030
0.050,0.030
0.047,0.030
0.048,0.027
0.047,0.030
0.048,0.028
0.043,0.026
0.046,0.028
0.046,0.024
0.048,0.025
0.050,0.025
0.050,0.023
0.050,0.023
0.051,0.016
0.049,0.019
0.048,0.017
0.050,0.018
0.051,0.015
0.052,0.014
0.049,0.010
0.054,0.009
0.047,0.006
0.051,0.008
0.047,0.006
0.047,0.008
0.049,0.009
0.053,0.006
0.048,0.010
0.049,0.007
0.047,0.009
0.049,0.008
0.050,0.006
0.049,0.003
0.051,0.001
0.050,-0.000
0.050,-0.000
0.049,0.003
0.045,0.001
0.047,0.006
0.045,0.004
0.047,0.002
0.046,0.000
0.049,-0.001
0.048,-0.004
0.050,-0.004
0.048,-0.002
0.049,-0.002
0.044,-0.001
0.046,-0.002
0.048,-0.001
0.044,-0.003
0.050,0.000
0.049,-0.002
0.050,-0.003
0.050,-0.003
0.052,-0.003
0.050,-0.003
0.052,-0.004
0.048,-0.002
0.050,-0.002
0.048,-0.004
0.049,-0.003
0.054,-0.002
0.050,-0.004
0.048,-0.004
0.051,-0.001
0.047,-0.001
0.046,0.002
0.048,0.004
0.047,0.003
0.048,0.004
0.049,0.004
0.047,0.004
0.049,0.003
0.047,0.004
0.046,0.005
0.049,0.007
0.047,0.007
0.047,0.010
0.047,0.007
0.048,0.008
0.047,0.007
0.048,0.011
0.048,0.010
0.050,0.011
0.051,0.009
0.048,0.011
0.049,0.011
0.049,0.014
0.046,0.017
0.050,0.014
0.048,0.017
0.048,0.017
0.045,0.017
0.047,0.017
0.042,0.019
0.041,0.019
0.042,0.022
0.041,0.021
0.043,0.025
0.042,0.025
0.044,0.028
0.040,0.026
0.044,0.027
0.044,0.026
0.043,0.029
0.044,0.030
0.043,0.032
0.043,0.030
0.045,0.034
0.044,0.029
0.046,0.032
0.045,0.031
0.046,0.034
0.044,0.038
0.046,0.039
0.044,0.040
0.047,0.038
0.046,0.038
0.046,0.036
0.046,0.037
0.045,0.033
0.046,0.037
0.045,0.035
0.045,0.036
0.042,0.040
0.045,0.039
0.040,0.041
0.045,0.042
0.043,0.041
0.046,0.041
0.044,0.044
0.045,0.039
0.045,0.039
0.044,0.038
0.045,0.039
0.048,0.042
0.047,0.040
0.043,0.044
0.046,0.042
0.045,0.043
0.043,0.041
0.049,0.044
0.045,0.039
0.047,0.042
0.045,0.042
0.046,0.042
0.045,0.046
0.048,0.046
0.047,0.047
0.045,0.043
0.046,0.044
0.045,0.039
0.047,0.040
0.048,0.039
0.049,0.041
0.048,0.040
0.051,0.034
0.045,0.037
0.049,0.036
0.045,0.037
0.048,0.035
0.049,0.033
0.049,0.030
0.048,0.032
0.047,0.032
0.047,0.031
0.047,0.033
0.048,0.032
0.047,0.030
0.045,0.028
0.049,0.028
0.050,0.025
0.051,0.026
0.050,0.022
0.050,0.023
0.048,0.022
0.051,0.022
0.049,0.023
0.051,0.020
0.054,0.022
0.050,0.014
0.051,0.016
0.052,0.011
0.053,0.013
0.050,0.012
0.050,0.012
0.048,0.011
0.048,0.013
0.048,0.009
0.047,0.010
0.050,0.008
0.051,0.008
0.050,0.008
0.050,0.007
0.049,0.005
0.052,0.007
0.051,0.002
0.052,0.006
0.051,0.003
0.049,0.005
0.049,0.005
0.048,0.004
0.045,0.003
0.046,0.000
0.049,0.002
0.050,0.001
0.051,0.001
0.051,0.001
0.054,-0.001
0.054,-0.002
0.052,-0.004
0.053,-0.002
0.051,-0.003
0.049,-0.003
0.051,-0.003
0.052,-0.003
0.052,-0.003
0.053,-0.003
0.052,-0.000
0.054,0.000
0.053,0.002
0.051,-0.000
0.052,0.001
0.053,0.000
0.051,-0.001
0.050,-0.005
0.052,-0.002
0.053,-0.002
0.054,0.000
0.052,0.002
0.052,-0.000
0.047,-0.001
0.049,-0.000
0.046,0.004
0.049,-0.001
0.049,0.004
0.051,0.000
0.051,0.003
0.049,0.005
0.050,0.007
0.050,0.008
0.050,0.007
0.049,0.009
0.049,0.009
0.047,0.009
0.049,0.011
0.049,0.010
0.047,0.010
0.049,0.009
0.049,0.010
0.049,0.009
0.049,0.013
0.049,0.010
0.046,0.013
0.045,0.013
0.045,0.013
0.043,0.016
0.045,0.017
0.047,0.014
0.044,0.018
0.044,0.018
0.046,0.022
0.042,0.021
0.047,0.023
0.043,0.026
0.047,0.026
0.043,0.025
0.047,0.029
0.046,0.030
0.047,0.031
0.046,0.029
0.045,0.031
0.044,0.026
0.045,0.029
0.047,0.028
0.045,0.032
0.045,0.033
0.045,0.033
0.044,0.035
0.042,0.035
0.041,0.037
0.042,0.035
0.046,0.037
0.043,0.035
0.045,0.038
0.045,0.033
0.049,0.036
0.047,0.036
0.048,0.034
0.041,0.040
0.044,0.040
0.041,0.042
0.040,0.038
0.041,0.042
0.042,0.041
0.045,0.042
0.043,0.042
0.047,0.044
0.043,0.044
0.045,0.041
0.043,0.044
0.045,0.041
0.044,0.041
0.046,0.041
0.042,0.041
0.046,0.041
0.047,0.043
0.045,0.042
0.046,0.040
0.045,0.045
0.045,0.044
0.044,0.048
0.046,0.044
0.047,0.046
0.048,0.043
0.052,0.043
0.047,0.040
0.051,0.041
0.049,0.044
0.048,0.036
0.047,0.042
0.047,0.040
0.047,0.041
0.046,0.039
0.048,0.040
0.048,0.039
0.049,0.039
0.047,0.035
0.050,0.035
0.047,0.034
0.050,0.032
0.047,0.037
0.051,0.034
0.046,0.033
0.048,0.032
0.047,0.032
0.047,0.029
0.049,0.027
0.048,0.028
0.049,0.027
0.049,0.028
0.049,0.024
0.049,0.026
0.048,0.022
0.051,0.024
0.050,0.020
0.051,0.022
0.052,0.017
0.052,0.018
0.051,0.016
0.050,0.017
0.050,0.014
0.047,0.015
0.050,0.013
0.045,0.014
0.049,0.010
0.049,0.012
0.050,0.013
0.049,0.011
0.050,0.010
0.052,0.009
0.051,0.008
0.053,0.005
0.054,0.007
0.049,0.005
0.049,0.007
0.048,0.003
0.049,0.006
0.047,0.004
0.051,0.003
0.049,0.000
0.052,0.000
0.051,0.002
0.050,0.001
0.049,0.004
0.051,-0.001
0.049,0.001
0.051,-0.002
0.050,-0.002
0.051,-0.005
0.052,-0.003
0.048,-0.004
0.053,-0.002
0.050,0.001
0.053,-0.000
0.049,0.002
0.050,-0.001
0.049,0.000
0.048,-0.001
0.052,-0.001
0.049,-0.003
0.049,-0.003
0.049,-0.003
0.047,-0.003
0.048,-0.000
0.049,-0.002
0.046,0.003
0.044,0.003
0.047,0.002
0.044,0.004
0.047,0.005
0.049,0.006
0.050,0.007
0.048,0.009
0.047,0.007
0.046,0.011
0.044,0.009
0.046,0.011
0.046,0.010
0.047,0.010
0.043,0.009
0.048,0.010
0.045,0.009
0.046,0.008
0.046,0.010
0.045,0.011
0.045,0.016
0.049,0.013
0.045,0.015
0.044,0.015
0.047,0.015
0.046,0.016
0.047,0.016
0.044,0.016
0.046,0.018
0.044,0.019
0.045,0.017
0.045,0.019
0.043,0.020
0.043,0.023
0.042,0.024
0.041,0.024
0.044,0.029
0.045,0.028
0.043,0.032
0.043,0.033
0.046,0.033
0.043,0.034
0.046,0.030
0.042,0.034
0.044,0.033
0.042,0.037
0.043,0.036
0.042,0.038
0.043,0.037
0.039,0.039
0.041,0.040
0.045,0.041
0.046,0.039
0.046,0.039
0.045,0.037
0.045,0.039
0.046,0.039
0.044,0.039
0.044,0.040
0.044,0.040
0.041,0.043
0.041,0.044
0.045,0.045
0.042,0.046
0.044,0.044
0.045,0.044
0.042,0.043
0.044,0.045
0.044,0.043
0.044,0.045
0.043,0.044
0.043,0.043
0.041,0.044
0.045,0.044
0.041,0.044
0.046,0.042
0.045,0.042
0.045,0.043
0.041,0.047
0.044,0.046
0.041,0.047
0.041,0.047
0.040,0.047
0.042,0.048
0.045,0.047
0.045,0.043
0.045,0.044
0.046,0.045
0.046,0.043
0.045,0.045
0.044,0.040
0.044,0.040
0.043,0.038
0.046,0.040
0.043,0.037
0.045,0.036
0.046,0.036
0.042,0.034
0.045,0.035
0.046,0.036
0.043,0.036
0.046,0.036
0.048,0.033
0.048,0.031
0.050,0.030
0.050,0.026
0.055,0.026
0.049,0.024
0.050,0.025
0.047,0.027
0.048,0.026
0.048,0.027
0.048,0.024
0.047,0.026
0.049,0.023
0.047,0.023
0.050,0.018
0.050,0.019
0.050,0.016
0.048,0.015
0.049,0.013
0.050,0.014
0.049,0.010
0.052,0.010
0.049,0.008
0.052,0.011
0.047,0.010
0.054,0.012
0.048,0.011
0.054,0.008
0.051,0.008
0.054,0.007
0.050,0.010
0.053,0.007
0.049,0.009
0.049,0.006
0.048,0.004
0.046,0.004
0.047,0.001
0.047,-0.000
0.050,0.002
0.047,0.004
0.047,0.000
0.051,0.008
0.049,0.004
0.049,0.001
0.049,0.001
0.051,-0.001
0.049,-0.005
0.051,-0.005
0.050,-0.004
0.050,-0.005
0.049,-0.001
0.048,-0.001
0.047,-0.001
0.047,-0.002
0.051,-0.002
0.047,-0.004
0.052,-0.002
0.046,-0.002
0.050,-0.005
0.046,-0.001
0.047,-0.003
0.045,0.001
0.045,0.001
0.044,0.002
0.045,0.001
0.049,-0.000
0.046,-0.000
0.046,0.001
0.046,0.004
0.045,0.003
0.044,0.007
0.044,0.004
0.043,0.006
0.042,0.005
0.044,0.008
0.045,0.005
0.047,0.007
0.047,0.007
0.048,0.006
0.049,0.008
0.045,0.007
0.044,0.013
0.040,0.010
0.043,0.010
0.041,0.013
0.044,0.015
0.043,0.012
0.046,0.014
0.046,0.013
0.049,0.015
0.045,0.014
0.047,0.016
0.047,0.014
0.047,0.017
0.045,0.019
0.045,0.020
0.043,0.021
0.044,0.022
0.044,0.025
0.045,0.024
0.043,0.027
0.045,0.026
0.044,0.030
0.046,0.029
0.043,0.034
0.047,0.031
0.046,0.033
0.048,0.030
0.043,0.033
0.045,0.029
0.043,0.034
0.045,0.033
0.042,0.036
0.042,0.035
0.045,0.036
0.042,0.035
0.045,0.036
0.043,0.036
0.044,0.036
0.044,0.039
0.046,0.038
0.044,0.040
0.046,0.040
0.042,0.040
0.043,0.040
0.043,0.044
0.042,0.041
0.041,0.043
0.044,0.040
0.044,0.044
0.045,0.046
0.044,0.045
0.045,0.049
0.045,0.046
0.042,0.044
0.043,0.046
0.041,0.046
0.042,0.042
0.043,0.043
0.045,0.042
0.043,0.044
0.046,0.044
0.042,0.043
0.043,0.046
0.043,0.046
0.041,0.048
0.041,0.047
0.045,0.049
0.045,0.048
0.047,0.046
0.046,0.044
0.046,0.042
0.047,0.042
0.046,0.044
0.045,0.046
0.046,0.041
0.046,0.041
0.046,0.041
0.044,0.040
0.046,0.037
0.044,0.035
0.047,0.034
0.046,0.034
0.047,0.036
0.045,0.036
0.048,0.036
0.045,0.034
0.048,0.032
0.049,0.030
0.049,0.029
0.048,0.028
0.045,0.030
0.047,0.029
0.046,0.028
0.047,0.026
0.047,0.027
0.046,0.028
0.049,0.025
0.049,0.025
0.051,0.022
0.051,0.024
0.049,0.019
0.050,0.020
0.047,0.014
0.052,0.014
0.049,0.012
0.050,0.014
0.045,0.012
0.050,0.012
0.048,0.010
0.050,0.010
0.047,0.009
0.051,0.010
0.050,0.008
0.051,0.008
0.050,0.008
0.050,0.007
0.047,0.007
0.047,0.004
0.046,0.006
0.046,0.003
0.049,0.003
0.048,-0.000
0.052,0.001
0.049,-0.002
0.050,0.000
0.050,0.000
0.050,0.001
0.048,0.001
0.049,-0.001
0.049,0.001
0.050,-0.004
0.049,-0.002
0.049,-0.005
0.049,-0.005
0.051,-0.007
0.050,-0.003
0.048,-0.000
0.048,-0.003
0.046,0.001
0.049,-0.002
0.049,-0.001
0.048,-0.003
0.052,-0.002
0.052,-0.006
0.055,-0.004
0.050,-0.006
0.051,-0.006
0.047,-0.003
0.049,-0.001
0.047,0.002
0.046,0.000
0.044,0.002
0.045,-0.002
0.049,-0.000
0.045,0.001
0.049,0.000
0.047,0.002
0.049,-0.001
0.046,0.004
0.051,0.002
0.049,0.004
0.050,0.007
0.052,0.004
0.050,0.006
0.049,0.004
0.049,0.006
0.050,0.008
0.050,0.008
0.049,0.009
0.047,0.010
0.045,0.008
0.046,0.010
0.046,0.010
0.049,0.012
0.047,0.011
0.052,0.012
0.046,0.010
0.049,0.013
0.047,0.015
0.046,0.013
0.044,0.018
0.048,0.015
0.044,0.020
0.044,0.018
0.041,0.024
0.042,0.022
0.043,0.030
0.042,0.026
0.043,0.030
0.044,0.027
0.046,0.030
0.045,0.030
0.043,0.033
0.042,0.031
0.045,0.033
0.043,0.034
0.040,0.035
0.043,0.034
0.042,0.038
0.040,0.038
0.041,0.037
0.040,0.037
0.042,0.037
0.042,0.038
0.045,0.039
0.046,0.036
0.045,0.040
0.043,0.038
0.045,0.039
0.041,0.042
0.043,0.040
0.040,0.042
0.043,0.040
0.042,0.042
0.041,0.041
0.044,0.043
0.043,0.045
0.044,0.046
0.040,0.049
0.045,0.045
0.040,0.048
0.045,0.045
0.044,0.045
0.045,0.042
0.045,0.042
0.045,0.044
0.042,0.043
0.045,0.047
0.042,0.044
0.041,0.046
0.039,0.044
0.043,0.046
0.046,0.044
0.047,0.045
0.044,0.042
0.048,0.044
0.045,0.042
0.046,0.041
0.048,0.044
0.046,0.043
0.046,0.043
0.044,0.041
0.048,0.041
0.045,0.039
0.050,0.039
0.046,0.037
0.049,0.037
0.046,0.036
0.049,0.036
0.047,0.038
0.045,0.036
0.043,0.036
0.044,0.032
0.048,0.031
0.046,0.031
0.047,0.028
0.046,0.028
0.045,0.030
0.046,0.032
0.045,0.030
0.047,0.032
0.047,0.029
0.043,0.028
0.045,0.031
0.043,0.027
0.045,0.026
0.047,0.026
0.045,0.023
0.046,0.021
0.046,0.019
0.048,0.018
0.047,0.013
0.049,0.014
0.046,0.013
0.047,0.014
0.047,0.013
0.046,0.015
0.044,0.012
0.048,0.011
0.049,0.009
0.049,0.008
0.049,0.008
0.047,0.009
0.046,0.008
0.047,0.006
0.046,0.005
0.043,0.005
0.046,0.007
0.044,0.006
0.047,0.004
0.047,0.004
0.045,0.005
0.047,0.010
0.046,0.010
0.044,0.012
0.048,0.004
0.049,0.005
0.046,0.001
0.050,0.002
0.050,-0.002
0.051,-0.000
0.048,-0.002
0.049,0.002
0.047,0.001
0.049,0.002
0.046,0.002
0.048,0.003
0.044,0.002
0.046,-0.002
0.045,-0.000
0.047,-0.004
0.047,-0.002
0.046,-0.002
0.047,-0.002
0.043,0.001
0.044,-0.000
0.040,0.001
0.043,0.002
0.043,0.002
0.043,0.001
0.047,0.003
0.045,0.003
0.046,0.002
0.045,0.004
0.044,0.002
0.043,0.008
0.043,0.007
0.044,0.007
0.043,0.005
0.046,0.006
0.043,0.007
0.045,0.007
0.041,0.010
0.045,0.010
0.043,0.013
0.042,0.009
0.041,0.012
0.041,0.010
0.042,0.013
0.040,0.010
0.045,0.013
0.043,0.010
0.045,0.012
0.042,0.013
0.045,0.015
0.042,0.019
0.046,0.018
0.042,0.020
0.042,0.021
0.042,0.021
0.044,0.023
0.042,0.023
0.045,0.025
0.044,0.025
0.045,0.023
0.043,0.028
0.045,0.024
0.042,0.029
0.043,0.030
0.043,0.031
0.043,0.030
0.044,0.032
0.043,0.030
0.041,0.028
0.043,0.031
0.046,0.032
0.043,0.032
0.045,0.034
0.044,0.030
0.045,0.034
0.044,0.034
0.045,0.034
0.042,0.035
0.045,0.036
0.044,0.037
0.048,0.037
0.044,0.039
0.047,0.035
0.044,0.037
0.044,0.039
0.045,0.041
0.044,0.040
0.044,0.042
0.044,0.039
0.045,0.042
0.042,0.045
0.047,0.044
0.045,0.043
0.046,0.041
0.042,0.042
0.044,0.041
0.043,0.040
0.043,0.038
0.043,0.037
0.041,0.041
0.044,0.042
0.042,0.048
0.043,0.045
0.043,0.047
0.043,0.044
0.046,0.046
0.043,0.044
0.047,0.042
0.046,0.041
0.048,0.040
0.046,0.043
0.047,0.040
0.046,0.043
0.044,0.043
0.046,0.040
0.045,0.038
0.047,0.038
0.045,0.037
0.047,0.036
0.047,0.036
0.048,0.035
0.044,0.037
0.047,0.036
0.046,0.037
0.047,0.037
0.044,0.034
0.049,0.033
0.050,0.033
0.049,0.029
0.049,0.027
0.048,0.027
0.049,0.026
0.051,0.026
0.051,0.023
0.049,0.026
0.052,0.026
0.048,0.023
0.052,0.019
0.050,0.019
0.054,0.018
0.051,0.016
0.053,0.015
0.051,0.013
0.050,0.011
0.052,0.011
0.050,0.010
0.052,0.010
0.053,0.010
0.052,0.008
0.049,0.007
0.053,0.008
0.052,0.005
0.051,0.004
0.051,0.002
0.052,0.002
0.047,0.004
0.050,0.003
0.048,0.004
0.047,0.002
0.048,0.001
0.048,-0.002
0.050,-0.000
0.051,0.001
0.050,-0.000
0.052,0.001
0.051,-0.002
0.050,0.002
0.051,-0.000
0.052,-0.002
0.053,-0.004
0.055,-0.004
0.049,-0.006
0.050,-0.003
0.050,-0.003
0.052,-0.003
0.047,-0.002
0.049,-0.003
0.047,0.000
0.049,-0.003
0.049,-0.001
0.048,-0.002
0.052,-0.003
0.048,-0.005
0.049,-0.006
0.047,-0.005
0.050,-0.004
0.047,0.000
0.049,-0.002
0.043,0.001
0.045,-0.001
0.046,0.000
0.046,-0.003
0.050,0.001
0.048,-0.002
0.049,0.001
0.049,0.002
0.045,0.003
0.043,-0.000
0.047,0.003
0.044,0.004
0.044,0.005
0.045,0.006
0.045,0.004
0.045,0.006
0.044,0.007
0.045,0.006
0.044,0.009
0.044,0.009
0.043,0.012
0.044,0.012
0.043,0.014
0.043,0.013
0.042,0.014
0.041,0.011
0.044,0.015
0.042,0.013
0.044,0.016
0.043,0.013
0.046,0.016
0.041,0.014
0.045,0.017
0.041,0.019
0.042,0.019
0.041,0.019
0.042,0.021
0.041,0.023
0.043,0.025
0.043,0.025
0.046,0.025
0.043,0.028
0.043,0.027
0.042,0.030
0.040,0.027
0.043,0.033
0.041,0.033
0.040,0.034
0.042,0.035
0.040,0.036
0.040,0.035
0.038,0.034
0.041,0.033
0.044,0.036
0.044,0.035
0.046,0.037
0.045,0.036
0.046,0.036
0.043,0.037
0.043,0.038
0.042,0.038
0.042,0.037
0.040,0.041
0.040,0.038
0.041,0.042
0.042,0.039
0.042,0.042
0.043,0.038
0.044,0.039
0.044,0.041
0.047,0.042
0.045,0.042
0.049,0.039
0.045,0.042
0.045,0.042
0.044,0.042
0.045,0.039
0.046,0.042
0.044,0.043
0.045,0.042
0.044,0.045
0.047,0.044
0.045,0.047
0.044,0.044
0.045,0.044
0.044,0.044
0.046,0.046
0.044,0.040
0.050,0.041
0.048,0.040
0.048,0.039
0.048,0.044
0.046,0.041
0.047,0.041
0.044,0.037
0.046,0.037
0.045,0.036
0.048,0.036
0.048,0.034
0.049,0.036
0.048,0.036
0.048,0.031
0.043,0.036
0.049,0.031
0.045,0.031
0.046,0.031
0.048,0.032
0.046,0.029
0.049,0.030
0.047,0.025
0.050,0.024
0.047,0.025
0.050,0.023
0.047,0.026
0.048,0.021
0.049,0.023
0.050,0.021
0.047,0.020
0.052,0.020
0.048,0.019
0.050,0.016
0.049,0.015
0.049,0.014
0.047,0.013
0.051,0.012
0.049,0.012
0.050,0.010
0.047,0.010
0.050,0.006
0.049,0.007
0.051,0.004
0.052,0.007
0.051,0.003
0.052,0.004
0.048,0.002
0.049,0.002
0.047,0.005
0.048,0.001
0.049,0.001
0.051,0.002
0.051,0.001
0.050,0.001
0.051,-0.001
0.050,0.001
0.050,-0.000
0.050,0.001
0.050,0.000
0.048,0.000
0.047,0.000
0.048,-0.002
0.049,-0.002
0.046,-0.004
0.051,-0.005
0.048,-0.004
0.048,0.000
0.048,-0.002
0.046,0.002
0.049,0.001
0.046,0.002
0.046,-0.003
0.048,0.000
0.043,-0.004
0.049,-0.002
0.047,-0.003
0.048,-0.001
0.046,0.002
0.048,-0.001
0.045,0.001
0.045,0.001
0.043,0.004
0.045,0.003
0.046,0.004
0.045,0.003
0.048,0.008
0.045,0.008
0.048,0.006
0.048,0.011
0.046,0.008
0.046,0.010
0.047,0.010
0.047,0.009
0.046,0.009
0.050,0.009
0.049,0.007
0.046,0.007
0.045,0.010
0.046,0.011
0.045,0.014
0.045,0.014
0.046,0.017
0.045,0.015
0.048,0.017
0.045,0.013
0.047,0.014
0.047,0.013
0.048,0.019
0.047,0.019
0.045,0.016
0.047,0.017
0.044,0.019
0.042,0.019
0.043,0.020
0.045,0.020
0.045,0.023
0.043,0.023
0.045,0.025
0.046,0.026
0.044,0.026
0.044,0.028
0.045,0.029
0.045,0.032
0.048,0.031
0.046,0.035
0.046,0.029
0.044,0.035
0.043,0.030
0.044,0.035
0.041,0.036
0.041,0.034
0.040,0.034
0.045,0.034
0.044,0.033
0.043,0.034
0.045,0.035
0.043,0.035
0.045,0.040
0.043,0.037
0.041,0.040
0.040,0.038
0.042,0.038
0.039,0.039
0.043,0.039
0.043,0.039
0.045,0.042
0.042,0.041
0.043,0.040
0.041,0.043
0.042,0.041
0.038,0.042
0.041,0.042
0.042,0.040
0.043,0.040
0.045,0.039
0.044,0.040
0.044,0.041
0.045,0.043
0.044,0.044
0.044,0.045
0.044,0.044
0.043,0.042
0.041,0.044
0.042,0.043
0.044,0.041
0.046,0.039
0.045,0.038
0.045,0.038
0.046,0.042
0.044,0.037
0.044,0.038
0.043,0.037
0.044,0.036
0.046,0.036
0.045,0.034
0.046,0.036
0.046,0.035
0.044,0.035
0.045,0.033
0.045,0.031
0.049,0.030
0.046,0.031
0.049,0.030
0.047,0.030
0.049,0.025
0.048,0.028
0.050,0.024
0.049,0.024
0.048,0.025
0.048,0.024
0.047,0.026
0.049,0.023
0.046,0.025
0.049,0.022
0.047,0.024
0.048,0.020
0.048,0.020
0.047,0.017
0.047,0.016
0.047,0.014
0.047,0.012
0.045,0.012
0.046,0.007
0.047,0.010
0.049,0.007
0.048,0.007
0.048,0.007
0.048,0.008
0.051,0.008
0.050,0.005
0.050,0.005
0.050,0.003
0.049,0.001
0.047,0.003
0.049,0.004
0.047,0.003
0.049,0.003
0.047,0.005
0.048,0.000
0.049,0.002
0.050,0.002
0.051,0.000
0.049,0.003
0.048,0.000
0.045,0.002
0.046,-0.001
0.047,0.000
0.046,-0.002
0.050,-0.003
0.047,-0.004
0.050,-0.003
0.046,-0.004
0.047,-0.008
0.047,-0.003
0.046,-0.006
0.047,-0.001
0.046,-0.002
0.047,-0.001
0.046,-0.003
0.049,-0.004
0.046,-0.006
0.050,-0.004
0.046,-0.003
0.047,-0.002
0.043,-0.002
0.045,-0.002
0.045,-0.004
0.049,-0.002
0.048,0.000
0.046,-0.002
0.046,0.001
0.044,-0.001
0.045,0.000
0.043,0.000
0.042,0.003
0.042,0.003
0.047,0.006
0.043,0.008
0.042,0.006
0.043,0.006
0.045,0.005
0.044,0.007
0.043,0.006
0.042,0.006
0.042,0.011
0.042,0.010
0.042,0.012
0.042,0.011
0.043,0.013
0.042,0.010
0.045,0.014
0.042,0.010
0.044,0.012
0.041,0.011
0.044,0.012
0.041,0.013
0.042,0.013
0.042,0.014
0.044,0.013
0.045,0.014
0.043,0.019
0.043,0.020
0.041,0.023
0.043,0.025
0.042,0.024
0.044,0.026
0.043,0.026
0.045,0.028
0.045,0.024
0.047,0.028
0.046,0.026
0.046,0.028
0.045,0.028
0.042,0.031
0.043,0.031
0.043,0.032
0.042,0.034
0.047,0.035
0.044,0.032
0.045,0.032
0.047,0.034
0.046,0.033
0.049,0.037
0.048,0.036
0.047,0.039
0.048,0.037
0.046,0.036
0.046,0.036
0.046,0.036
0.044,0.036
0.046,0.041
0.045,0.038
0.049,0.040
0.048,0.040
0.045,0.041
0.045,0.042
0.046,0.042
0.041,0.041
0.043,0.038
0.044,0.040
0.042,0.037
0.043,0.040
0.044,0.038
0.045,0.039
0.041,0.042
0.045,0.043
0.043,0.048
0.044,0.045
0.044,0.045
0.045,0.043
0.047,0.043
0.047,0.042
0.048,0.041
0.049,0.040
0.046,0.039
0.049,0.043
0.046,0.040
0.046,0.042
0.045,0.042
0.046,0.038
0.045,0.038
0.046,0.036
0.046,0.037
0.047,0.035
0.049,0.035
0.047,0.035
0.045,0.035
0.047,0.032
0.047,0.034
0.046,0.031
0.049,0.030
0.049,0.029
0.049,0.029
0.048,0.026
0.049,0.026
0.047,0.027
0.049,0.025
0.050,0.024
0.049,0.023
0.047,0.023
0.050,0.020
0.047,0.018
0.049,0.017
0.049,0.019
0.053,0.014
0.050,0.018
0.049,0.012
0.049,0.014
0.049,0.011
0.051,0.014
0.049,0.011
0.051,0.010
0.048,0.009
0.050,0.008
0.047,0.004
0.049,0.005
0.049,0.003
0.050,0.004
0.049,0.001
0.050,0.002
0.047,0.003
0.048,-0.002
0.044,0.000
0.047,-0.004
0.047,-0.000
0.046,-0.004
0.050,-0.001
0.044,-0.003
0.050,-0.003
0.047,-0.004
0.051,-0.004
0.045,-0.001
0.048,-0.004
0.046,-0.003
0.047,-0.008
0.050,-0.006
0.047,-0.007
0.045,-0.005
0.048,-0.005
0.043,-0.005
0.045,-0.003
0.045,-0.005
0.047,-0.005
0.048,-0.006
0.049,-0.005
0.048,-0.006
0.049,-0.007
0.048,-0.007
0.048,-0.005
0.048,-0.007
0.049,-0.007
0.049,-0.002
0.046,-0.004
0.044,0.001
0.043,-0.003
0.041,0.001
0.041,-0.003
0.048,0.002
0.043,-0.001
0.048,0.000
0.045,0.000
0.046,0.001
0.043,0.007
0.044,0.001
0.043,0.005
0.042,0.005
0.044,0.007
0.043,0.008
0.046,0.007
0.043,0.003
0.045,0.004
0.045,0.010
0.044,0.006
0.044,0.010
0.042,0.011
0.040,0.014
0.044,0.011
0.045,0.013
0.045,0.012
0.045,0.012
0.045,0.011
0.044,0.014
0.044,0.010
0.045,0.013
0.041,0.012
0.042,0.015
0.041,0.014
0.042,0.019
0.039,0.018
0.044,0.023
0.041,0.024
0.044,0.024
0.041,0.025
0.044,0.025
0.044,0.026
0.045,0.023
0.043,0.027
0.041,0.028
0.042,0.028
0.044,0.029
0.041,0.028
0.044,0.031
0.042,0.034
0.044,0.031
0.042,0.035
0.043,0.034
0.043,0.036
0.043,0.033
0.044,0.035
0.044,0.035
0.044,0.036
0.043,0.038
0.045,0.037
0.043,0.037
0.045,0.036
0.042,0.039
0.045,0.038
0.042,0.040
0.044,0.041
0.044,0.042
0.043,0.039
0.046,0.040
0.048,0.041
0.047,0.039
0.047,0.040
0.046,0.040
0.047,0.042
0.047,0.039
0.047,0.042
0.045,0.039
0.046,0.040
0.044,0.040
0.045,0.037
0.043,0.040
0.045,0.039
0.041,0.041
0.043,0.042
0.041,0.041
0.043,0.037
0.044,0.040
0.045,0.038
0.048,0.039
0.045,0.040
0.049,0.037
0.042,0.039
0.048,0.034
0.043,0.037
0.044,0.035
0.044,0.036
0.043,0.033
0.047,0.034
0.046,0.032
0.048,0.031
0.048,0.033
0.048,0.028
0.047,0.031
0.047,0.028
0.046,0.030
0.045,0.024
0.050,0.026
0.049,0.024
0.051,0.027
0.047,0.023
0.052,0.023
0.049,0.023
0.049,0.023
0.049,0.023
0.048,0.019
0.049,0.021
0.049,0.015
0.050,0.018
0.047,0.011
0.050,0.014
0.050,0.011
0.050,0.010
0.049,0.008
0.047,0.012
0.049,0.009
0.047,0.012
0.050,0.007
0.049,0.009
0.049,0.008
0.049,0.010
0.049,0.007
0.053,0.005
0.050,0.005
0.055,0.001
0.051,-0.001
0.051,0.000
0.049,0.003
0.050,0.000
0.049,0.004
0.047,0.002
0.048,0.001
0.047,0.002
0.052,0.002
0.050,0.001
0.050,-0.002
0.050,0.001
0.053,-0.002
0.050,-0.001
0.052,0.001
0.049,-0.003
0.049,-0.004
0.049,-0.004
0.050,-0.003
0.049,-0.005
0.049,-0.004
0.049,-0.006
0.049,-0.001
0.046,-0.006
0.048,-0.004
0.044,-0.005
0.047,-0.004
0.049,-0.007
0.050,-0.006
0.046,-0.005
0.048,-0.003
0.047,0.001
0.045,-0.001
0.045,-0.000
0.044,0.001
0.044,0.001
0.042,-0.001
0.047,0.001
0.045,-0.000
0.046,0.000
0.045,-0.002
0.047,-0.000
0.045,0.001
0.049,0.004
0.045,0.008
0.047,0.009
0.046,0.010
0.047,0.008
0.047,0.011
0.049,0.007
0.048,0.009
0.047,0.010
0.049,0.010
0.043,0.013
0.045,0.011
0.043,0.013
0.045,0.013
0.048,0.016
0.048,0.013
0.048,0.015
0.048,0.013
0.047,0.015
0.045,0.014
0.048,0.017
0.048,0.019
0.048,0.021
0.045,0.021
0.046,0.023
0.046,0.023
0.046,0.026
0.046,0.024
0.047,0.028
0.046,0.027
0.049,0.029
0.047,0.028
0.049,0.030
0.045,0.030
0.048,0.030
0.046,0.032
0.046,0.031
0.044,0.035
0.046,0.037
0.044,0.037
0.044,0.036
0.042,0.036
0.045,0.036
0.046,0.035
0.048,0.035
0.047,0.036
0.048,0.036
0.045,0.036
0.044,0.040
0.043,0.039
0.041,0.041
0.043,0.040
0.043,0.039
0.044,0.037
0.045,0.040
0.046,0.041
0.042,0.041
0.045,0.045
0.045,0.042
0.045,0.045
0.048,0.045
0.046,0.043
0.047,0.042
0.046,0.041
0.046,0.038
0.045,0.042
0.044,0.042
0.047,0.044
0.046,0.045
0.046,0.045
0.043,0.048
0.043,0.048
0.042,0.044
0.045,0.045
0.047,0.044
0.046,0.039
0.048,0.042
0.044,0.037
0.047,0.039
0.047,0.039
0.047,0.039
0.046,0.039
0.047,0.039
0.045,0.038
0.047,0.034
0.048,0.033
0.048,0.034
0.046,0.032
0.048,0.037
0.047,0.034
0.048,0.034
0.045,0.030
0.045,0.032
0.045,0.029
0.046,0.029
0.045,0.027
0.049,0.029
0.048,0.026
0.047,0.025
0.051,0.025
0.047,0.023
0.049,0.025
0.049,0.021
0.047,0.024
0.049,0.017
0.049,0.023
0.050,0.018
0.049,0.021
0.050,0.016
0.049,0.018
0.050,0.013
0.050,0.013
0.049,0.012
0.048,0.010
0.049,0.009
0.049,0.011
0.047,0.010
0.053,0.010
0.053,0.009
0.053,0.006
0.052,0.005
0.053,0.004
0.053,0.002
0.050,0.002
0.051,0.002
0.049,0.001
0.050,0.004
0.048,0.001
0.049,0.000
0.051,-0.002
0.052,-0.000
0.051,-0.003
0.051,-0.000
0.050,-0.002
0.051,-0.004
0.049,-0.003
0.053,-0.004
0.049,-0.005
0.050,-0.007
0.051,-0.007
0.047,-0.010
0.049,-0.007
0.046,-0.006
0.048,-0.004
0.045,-0.001
0.046,-0.005
0.045,-0.003
0.047,-0.007
0.048,-0.005
0.049,-0.007
0.051,-0.003
0.049,-0.005
0.051,-0.005
0.049,-0.002
0.048,-0.005
0.045,-0.001
0.044,-0.003
0.046,-0.002
0.044,-0.004
0.047,-0.001
0.047,-0.002
0.046,-0.001
0.042,0.001
0.049,0.002
0.045,0.004
0.049,0.002
0.045,0.004
0.044,0.005
0.046,0.005
0.042,0.005
0.046,0.009
0.045,0.005
0.048,0.008
0.046,0.007
0.048,0.006
0.047,0.010
0.047,0.008
0.044,0.011
0.047,0.011
0.042,0.012
0.044,0.014
0.045,0.014
0.045,0.012
0.044,0.015
0.044,0.015
0.045,0.016
0.045,0.015
0.045,0.017
0.044,0.013
0.046,0.019
0.043,0.019
0.046,0.019
0.042,0.023
0.043,0.026
0.041,0.025
0.044,0.028
0.040,0.029
0.045,0.028
0.045,0.027
0.044,0.027
0.043,0.025
0.043,0.026
0.042,0.029
0.041,0.028
0.041,0.031
0.041,0.033
0.042,0.034
0.044,0.034
0.042,0.033
0.045,0.034
0.043,0.033
0.045,0.032
0.044,0.033
0.044,0.035
0.044,0.037
0.043,0.036
0.043,0.034
0.042,0.035
0.042,0.035
0.039,0.039
0.043,0.038
0.045,0.041
0.045,0.037
0.047,0.041
0.046,0.041
0.044,0.041
0.044,0.041
0.044,0.039
0.043,0.039
0.045,0.038
0.044,0.039
0.041,0.038
0.045,0.038
0.042,0.038
0.045,0.040
0.042,0.042
0.045,0.043
0.043,0.044
0.045,0.043
0.042,0.044
0.043,0.043
0.044,0.046
0.043,0.041
0.048,0.041
0.045,0.038
0.047,0.040
0.048,0.039
0.047,0.039
0.045,0.040
0.048,0.038
0.047,0.039
0.047,0.037
0.048,0.034
0.049,0.035
0.049,0.033
0.051,0.034
0.050,0.032
0.050,0.034
0.049,0.032
0.049,0.034
0.048,0.031
0.053,0.030
0.048,0.026
0.052,0.024
0.047,0.024
0.048,0.023
0.047,0.024
0.047,0.021
0.047,0.025
0.047,0.023
0.049,0.025
0.047,0.021
0.050,0.022
0.049,0.017
0.050,0.017
0.051,0.016
0.052,0.013
0.051,0.011
0.050,0.009
0.046,0.008
0.045,0.012
0.047,0.008
0.047,0.009
0.048,0.004
0.050,0.007
0.050,0.005
0.050,0.006
0.049,0.002
0.052,0.003
0.049,0.002
0.053,0.000
0.052,0.003
0.050,0.002
0.046,0.005
0.050,0.001
0.049,0.004
0.047,0.000
0.049,0.002
0.047,0.002
0.052,0.002
0.048,0.001
0.052,0.001
0.049,-0.001
0.052,-0.002
0.050,-0.003
0.050,-0.003
0.049,-0.004
0.047,-0.003
0.048,-0.008
0.047,-0.007
0.050,-0.007
0.049,-0.005
0.050,-0.005
0.052,-0.002
0.051,-0.004
0.051,-0.003
0.049,-0.004
0.051,-0.004
0.051,-0.004
0.052,-0.005
0.053,-0.005
0.052,-0.006
0.050,-0.003
0.049,-0.004
0.048,-0.001
0.048,-0.002
0.047,0.002
0.047,-0.001
0.049,-0.001
0.050,-0.002
0.052,-0.000
0.051,0.002
0.049,0.001
0.047,0.005
0.049,0.003
0.046,0.004
0.047,0.005
0.049,0.005
0.049,0.006
0.051,0.005
0.050,0.005
0.052,0.009
0.051,0.007
0.049,0.008
0.049,0.011
0.049,0.012
0.047,0.011
0.048,0.011
0.047,0.011
0.046,0.012
0.050,0.015
0.049,0.017
0.048,0.015
0.047,0.015
0.045,0.018
0.045,0.016
0.045,0.021
0.045,0.022
0.042,0.022
0.044,0.022
0.048,0.023
0.044,0.023
0.046,0.025
0.046,0.026
0.047,0.027
0.045,0.026
0.046,0.027
0.045,0.028
0.047,0.031
0.041,0.029
0.045,0.032
0.044,0.031
0.046,0.031
0.044,0.036
0.045,0.036
0.041,0.039
0.043,0.037
0.043,0.038
0.046,0.037
0.046,0.036
0.045,0.034
0.043,0.036
0.045,0.038
0.041,0.037
0.041,0.042
0.041,0.041
0.039,0.043
0.040,0.042
0.042,0.044
0.040,0.042
0.045,0.043
0.043,0.043
0.046,0.042
0.044,0.043
0.045,0.041
0.045,0.045
0.045,0.042
0.045,0.043
0.042,0.043
0.045,0.041
0.042,0.042
0.044,0.042
0.044,0.041
0.046,0.045
0.043,0.044
0.046,0.046
0.043,0.046
0.044,0.046
0.042,0.046
0.045,0.043
0.044,0.041
0.045,0.039
0.046,0.041
0.047,0.039
0.046,0.038
0.047,0.039
0.049,0.040
0.046,0.037
0.046,0.039
0.044,0.035
0.046,0.036
0.045,0.036
0.048,0.035
0.048,0.033
0.049,0.036
0.047,0.032
0.046,0.035
0.045,0.033
0.046,0.031
0.046,0.030
0.050,0.029
0.050,0.025
0.051,0.027
0.047,0.023
0.050,0.025
0.047,0.023
0.047,0.024
0.047,0.023
0.049,0.022
0.048,0.021
0.051,0.019
0.050,0.019
0.052,0.014
0.049,0.016
0.049,0.013
0.046,0.015
0.048,0.013
0.049,0.016
0.047,0.010
0.049,0.013
0.048,0.010
0.050,0.012
0.048,0.007
0.050,0.007
0.048,0.005
0.052,0.006
0.051,0.001
0.049,0.002
0.048,0.005
0.047,0.002
0.046,0.002
0.045,0.002
0.045,0.003
0.046,0.002
0.049,0.000
0.049,0.003
0.050,0.002
0.050,0.002
0.048,0.001
0.049,0.002
0.049,-0.003
0.048,0.000
0.047,-0.004
0.049,-0.003
0.047,-0.003
0.053,-0.003
0.048,-0.004
0.049,-0.002
0.049,-0.002
0.049,-0.006
0.047,0.001
0.046,-0.001
0.049,-0.001
0.048,-0.003
0.049,-0.002
0.047,-0.003
0.051,0.001
0.048,-0.001
0.050,0.001
0.049,0.003
0.050,0.002
0.047,0.004
0.049,0.001
0.047,0.006
0.049,0.003
0.048,0.008
0.047,0.004
0.048,0.007
0.047,0.002
0.047,0.006
0.049,0.009
0.047,0.009
0.043,0.011
0.046,0.011
0.044,0.013
0.046,0.011
0.045,0.013
0.047,0.012
0.046,0.013
0.046,0.012
0.044,0.010
0.044,0.013
0.045,0.011
0.043,0.016
0.045,0.014
0.046,0.017
0.044,0.015
0.045,0.017
0.043,0.016
0.044,0.019
0.042,0.018
0.042,0.021
0.042,0.021
0.042,0.023
0.041,0.023
0.045,0.026
0.041,0.026
0.043,0.029
0.042,0.030
0.043,0.030
0.041,0.031
0.042,0.031
0.041,0.032
0.042,0.034
0.043,0.031
0.041,0.032
0.042,0.032
0.045,0.034
0.044,0.035
0.043,0.036
0.043,0.039
0.043,0.040
0.042,0.042
0.044,0.039
0.043,0.042
0.041,0.039
0.046,0.040
0.044,0.040
0.044,0.041
0.041,0.042
0.043,0.038
0.039,0.044
0.042,0.044
0.041,0.044
0.042,0.043
0.043,0.046
0.044,0.045
0.044,0.046
0.042,0.044
0.044,0.045
0.046,0.047
0.044,0.045
0.043,0.048
0.044,0.044
0.043,0.046
0.043,0.046
0.043,0.045
0.042,0.044
0.043,0.044
0.045,0.046
0.043,0.046
0.045,0.048
0.042,0.047
0.045,0.050
0.043,0.047
0.043,0.047
0.045,0.046
0.044,0.043
0.046,0.041
0.048,0.042
0.047,0.042
0.047,0.040
0.046,0.043
0.046,0.040
0.046,0.042
0.045,0.039
0.047,0.041
0.045,0.039
0.049,0.041
0.047,0.036
0.047,0.037
0.046,0.037
0.049,0.036
0.046,0.037
0.047,0.036
0.045,0.033
0.047,0.033
0.047,0.035
0.045,0.030
0.045,0.032
0.047,0.031
0.049,0.029
0.044,0.027
0.048,0.028
0.045,0.027
0.049,0.024
0.049,0.022
0.051,0.020
0.049,0.023
0.049,0.018
0.048,0.019
0.049,0.016
0.046,0.016
0.047,0.014
0.046,0.015
0.048,0.015
0.045,0.014
0.049,0.013
0.046,0.014
0.050,0.009
0.049,0.011
0.049,0.005
0.053,0.006
0.049,0.001
0.053,0.003
0.051,0.005
0.052,0.002
0.049,0.006
0.049,0.004
0.049,0.007
0.051,0.007
0.052,0.004
0.052,0.004
0.055,0.004
0.054,0.002
0.052,0.002
0.053,0.004
0.052,-0.001
0.049,0.000
0.049,-0.002
0.048,-0.002
0.046,-0.005
0.050,-0.004
0.047,-0.001
0.050,-0.003
0.048,-0.000
0.049,-0.002
0.046,0.002
0.049,-0.002
0.047,-0.000
0.049,-0.002
0.047,-0.001
0.045,0.000
0.048,-0.000
0.047,-0.001
0.052,0.000
0.048,-0.000
0.049,-0.002
0.048,0.004
0.049,0.002
0.045,0.004
0.045,0.005
0.046,0.005
0.044,0.004
0.046,0.004
0.047,0.006
0.047,0.008
0.047,0.011
0.047,0.012
0.045,0.010
0.047,0.010
0.046,0.010
0.047,0.010
0.047,0.011
0.047,0.010
0.047,0.012
0.049,0.016
0.046,0.015
0.046,0.016
0.046,0.014
0.044,0.015
0.042,0.015
0.046,0.014
0.043,0.015
0.049,0.019
0.048,0.016
0.045,0.021
0.045,0.018
0.045,0.021
0.042,0.019
0.046,0.023
0.043,0.024
0.046,0.028
0.040,0.028
0.043,0.028
0.044,0.029
0.048,0.032
0.046,0.029
0.047,0.031
0.047,0.032
0.045,0.033
0.046,0.030
0.044,0.035
0.047,0.036
0.044,0.037
0.044,0.038
0.044,0.036
0.040,0.039
0.042,0.038
0.042,0.043
0.041,0.038
0.043,0.043
0.042,0.040
0.046,0.039
0.045,0.040
0.045,0.038
0.045,0.043
0.042,0.041
0.041,0.042
0.041,0.041
0.042,0.043
0.041,0.043
0.045,0.044
0.042,0.042
0.046,0.043
0.046,0.042
0.045,0.040
0.043,0.042
0.045,0.044
0.042,0.047
0.044,0.046
0.043,0.044
0.043,0.045
0.045,0.045
0.045,0.046
0.043,0.047
0.046,0.049
0.041,0.048
0.043,0.047
0.042,0.043
0.044,0.045
0.042,0.042
0.047,0.042
0.045,0.038
0.046,0.039
0.048,0.040
0.047,0.037
0.047,0.039
0.045,0.040
0.045,0.040
0.045,0.041
0.046,0.038
0.046,0.036
0.049,0.036
0.047,0.037
0.049,0.035
0.047,0.038
0.051,0.035
0.046,0.038
0.048,0.035
0.047,0.032
0.045,0.029
0.046,0.030
0.043,0.026
0.044,0.027
0.040,0.024
0.043,0.022
0.042,0.024
0.044,0.023
0.042,0.025
0.047,0.023
0.045,0.023
0.045,0.021
0.044,0.023
0.047,0.019
0.045,0.018
0.047,0.016
0.045,0.015
0.045,0.012
0.046,0.012
0.045,0.012
0.045,0.010
0.044,0.011
0.046,0.011
0.046,0.009
0.046,0.009
0.049,0.007
0.046,0.004
0.046,0.000
0.046,0.003
0.046,0.005
0.047,0.004
0.044,0.007
0.046,0.005
0.046,0.006
0.048,0.002
0.046,0.001
0.047,0.001
0.048,0.002
0.048,0.002
0.049,0.000
0.047,0.004
0.049,-0.001
0.047,0.002
0.048,-0.004
0.047,-0.002
0.045,-0.005
0.049,-0.005
0.046,-0.006
0.047,-0.005
0.045,-0.002
0.047,-0.005
0.045,0.000
0.047,-0.004
0.045,-0.003
0.043,-0.003
0.049,-0.003
0.047,-0.007
0.047,-0.004
0.047,-0.003
0.050,-0.004
0.046,-0.000
0.049,-0.003
0.045,-0.001
0.045,-0.002
0.044,0.001
0.045,0.001
0.045,0.003
0.045,-0.001
0.047,-0.000
0.046,0.001
0.044,0.000
0.045,0.004
0.043,0.002
0.042,0.008
0.043,0.006
0.045,0.008
0.042,0.007
0.046,0.007
0.044,0.006
0.046,0.007
0.043,0.008
0.045,0.008
0.044,0.012
0.043,0.009
0.043,0.013
0.041,0.012
0.043,0.012
0.044,0.012
0.047,0.015
0.045,0.012
0.048,0.015
0.044,0.011
0.047,0.014
0.043,0.015
0.045,0.019
0.042,0.016
0.045,0.019
0.041,0.018
0.044,0.020
0.040,0.021
0.042,0.023
0.041,0.026
0.045,0.028
0.042,0.026
0.043,0.026
0.043,0.029
0.043,0.030
0.044,0.030
0.043,0.031
0.043,0.032
0.040,0.033
0.042,0.035
0.041,0.036
0.038,0.037
0.038,0.038
0.041,0.037
0.042,0.033
0.042,0.038
0.043,0.034
0.044,0.038
0.043,0.036
0.045,0.035
0.041,0.036
0.043,0.036
0.040,0.040
0.041,0.037
0.041,0.040
0.040,0.039
0.046,0.042
0.041,0.041
0.045,0.041
0.044,0.044
0.043,0.041
0.042,0.043
0.044,0.042
0.043,0.042
0.046,0.041
0.045,0.041
0.043,0.041
0.045,0.043
0.043,0.044
0.045,0.041
0.047,0.043
0.045,0.043
0.045,0.045
0.046,0.042
0.045,0.045
0.046,0.044
0.047,0.040
0.045,0.043
0.049,0.039
0.045,0.040
0.049,0.037
0.046,0.037
0.044,0.037
0.045,0.038
0.042,0.036
0.045,0.036
0.040,0.036
0.047,0.035
0.045,0.034
0.049,0.033
0.047,0.031
0.046,0.032
0.045,0.034
0.047,0.034
0.046,0.034
0.048,0.030
0.047,0.030
0.047,0.026
0.048,0.028
0.046,0.024
0.044,0.024
0.044,0.023
0.043,0.023
0.045,0.022
0.045,0.021
0.043,0.020
0.046,0.017
0.045,0.016
0.047,0.012
0.046,0.014
0.048,0.011
0.046,0.012
0.048,0.010
0.046,0.011
0.047,0.008
0.046,0.009
0.047,0.006
0.045,0.009
0.045,0.006
0.044,0.006
0.047,0.006
0.045,0.006
0.047,0.003
0.050,0.003
0.049,0.000
0.049,0.002
0.047,0.003
0.046,0.002
0.046,0.008
0.046,0.003
0.047,0.003
0.045,0.002
0.047,0.002
0.043,-0.001
0.045,0.000
0.045,-0.003
0.046,-0.004
0.045,-0.002
0.046,-0.003
0.044,-0.000
0.042,-0.004
0.049,-0.003
0.045,-0.006
0.047,-0.006
0.047,-0.007
0.047,-0.004
0.045,-0.001
0.048,-0.005
0.044,-0.004
0.047,-0.005
0.043,-0.002
0.046,-0.005
0.047,-0.003
0.046,-0.006
0.047,-0.003
0.045,-0.005
0.046,-0.003
0.043,-0.001
0.046,-0.001
0.042,0.002
0.043,0.002
0.043,0.004
0.044,0.004
0.047,0.007
0.045,0.006
0.045,0.006
0.045,0.006
0.045,0.007
0.044,0.009
0.046,0.007
0.044,0.008
0.042,0.007
0.044,0.008
0.042,0.008
0.048,0.009
0.044,0.009
0.044,0.011
0.047,0.013
0.044,0.012
0.043,0.015
0.043,0.013
0.043,0.014
0.043,0.016
0.046,0.018
0.046,0.017
0.045,0.018
0.043,0.018
0.045,0.021
0.042,0.019
0.044,0.022
0.042,0.019
0.044,0.024
0.041,0.022
0.042,0.026
0.043,0.026
0.044,0.029
0.042,0.030
0.044,0.031
0.041,0.029
0.045,0.031
0.042,0.029
0.043,0.032
0.041,0.034
0.042,0.033
0.041,0.035
0.040,0.035
0.040,0.036
0.040,0.033
0.041,0.037
0.041,0.038
0.040,0.039
0.040,0.040
0.045,0.040
0.043,0.036
0.044,0.036
0.044,0.037
0.041,0.039
0.041,0.039
0.044,0.040
0.041,0.041
0.041,0.042
0.042,0.045
0.042,0.044
0.043,0.045
0.044,0.043
0.046,0.044
0.046,0.043
0.046,0.044
0.044,0.044
0.045,0.045
0.042,0.043
0.044,0.043
0.044,0.043
0.042,0.043
0.042,0.045
0.044,0.045
0.044,0.045
0.043,0.046
0.044,0.046
0.043,0.050
0.043,0.048
0.043,0.047
0.044,0.045
0.047,0.043
0.045,0.040
0.047,0.041
0.045,0.039
0.047,0.039
0.046,0.040
0.048,0.037
0.046,0.039
0.048,0.037
0.046,0.037
0.046,0.036
0.047,0.036
0.047,0.033
0.048,0.032
0.047,0.034
0.048,0.030
0.048,0.032
0.049,0.032
0.046,0.032
0.049,0.032
0.050,0.028
0.047,0.028
0.049,0.027
0.047,0.027
0.047,0.026
0.048,0.027
0.049,0.024
0.050,0.024
0.049,0.022
0.051,0.022
0.049,0.021
0.050,0.019
0.050,0.017
0.048,0.020
0.051,0.014
0.049,0.016
0.052,0.012
0.047,0.013
0.049,0.011
0.046,0.013
0.049,0.011
0.046,0.009
0.047,0.007
0.047,0.006
0.047,0.004
0.048,0.003
0.049,0.002
0.050,0.003
0.052,0.002
0.049,0.002
0.047,0.002
0.048,0.004
0.046,0.003
0.046,0.002
0.047,-0.001
0.048,-0.003
0.048,0.000
0.051,-0.002
0.050,-0.003
0.051,-0.002
0.051,-0.004
0.050,-0.003
0.049,-0.006
0.049,-0.005
0.047,-0.007
0.050,-0.005
0.047,-0.008
0.048,-0.005
0.047,-0.006
0.049,-0.001
0.047,-0.002
0.048,-0.003
0.048,-0.002
0.051,-0.005
0.050,-0.006
0.051,-0.008
0.049,-0.004
0.048,-0.003
0.048,-0.003
0.047,0.000
0.047,-0.001
0.042,0.000
0.045,-0.001
0.044,0.000
0.046,-0.002
0.047,0.001
0.048,0.000
0.047,0.002
0.046,0.005
0.046,0.002
0.045,0.008
0.044,0.005
0.043,0.007
0.043,0.010
0.047,0.009
0.045,0.007
0.047,0.006
0.045,0.009
0.044,0.006
0.045,0.010
0.045,0.010
0.044,0.011
0.042,0.009
0.044,0.012
0.042,0.010
0.047,0.011
0.044,0.014
0.047,0.015
0.045,0.014
0.046,0.014
0.046,0.014
0.047,0.017
0.043,0.017
0.043,0.022
0.042,0.023
0.043,0.024
0.041,0.023
0.044,0.026
0.044,0.025
0.045,0.028
0.043,0.026
0.046,0.025
0.044,0.029
0.045,0.027
0.047,0.029
0.046,0.028
0.045,0.031
0.043,0.030
0.043,0.034
0.042,0.035
0.043,0.036
0.042,0.035
0.043,0.038
0.042,0.033
0.046,0.036
0.046,0.037
0.049,0.039
0.047,0.037
0.049,0.035
0.046,0.036
0.048,0.034
0.044,0.039
0.046,0.038
0.044,0.041
0.044,0.040
0.048,0.041
0.044,0.040
0.047,0.043
0.042,0.042
0.045,0.041
0.043,0.042
0.047,0.042
0.043,0.044
0.046,0.041
0.043,0.041
0.045,0.038
0.047,0.039
0.047,0.040
0.046,0.039
0.046,0.043
0.045,0.040
0.043,0.044
0.045,0.044
0.046,0.047
0.046,0.043
0.049,0.044
0.047,0.038
0.049,0.038
0.048,0.041
0.049,0.039
0.046,0.044
0.047,0.039
0.047,0.041
0.044,0.038
0.049,0.038
0.047,0.037
0.049,0.037
0.047,0.034
0.049,0.033
0.048,0.036
0.048,0.036
0.046,0.036
0.048,0.034
0.049,0.035
0.048,0.033
0.049,0.032
0.049,0.030
0.049,0.030
0.048,0.031
0.048,0.028
0.049,0.030
0.046,0.026
0.047,0.027
0.049,0.026
0.050,0.024
0.049,0.021
0.050,0.023
0.050,0.021
0.049,0.020
0.049,0.018
0.048,0.016
0.051,0.015
0.049,0.012
0.048,0.012
0.048,0.012
0.047,0.011
0.053,0.011
0.049,0.011
0.052,0.009
0.049,0.010
0.049,0.008
0.050,0.007
0.049,0.006
0.050,0.004
0.049,0.006
0.049,0.004
0.047,0.003
0.047,0.002
0.048,-0.001
0.048,0.002
0.050,-0.000
0.046,0.000
0.047,0.000
0.045,-0.001
0.046,0.003
0.049,0.000
0.049,0.004
0.049,0.000
0.049,0.000
0.050,-0.003
0.051,-0.002
0.048,-0.006
0.049,-0.003
0.048,-0.005
0.048,-0.003
0.043,-0.002
0.044,-0.003
0.044,-0.002
0.048,-0.004
0.048,-0.004
0.051,-0.004
0.050,-0.004
0.049,-0.002
0.050,-0.002
0.048,-0.003
0.046,0.000
0.045,0.002
0.048,0.000
0.046,-0.002
0.047,0.001
0.049,0.001
0.047,-0.002
0.047,0.001
0.049,0.004
0.046,0.003
0.045,0.006
0.048,0.005
0.045,0.006
0.044,0.005
0.047,0.007
0.046,0.007
0.048,0.008
0.045,0.007
0.046,0.010
0.043,0.010
0.046,0.008
0.045,0.011
0.045,0.011
0.044,0.016
0.044,0.015
0.048,0.015
0.044,0.016
0.047,0.015
0.044,0.014
0.047,0.014
0.044,0.015
0.045,0.018
0.042,0.015
0.047,0.017
0.043,0.016
0.043,0.020
0.043,0.020
0.046,0.023
0.043,0.023
0.044,0.026
0.045,0.027
0.045,0.027
0.044,0.027
0.046,0.028
0.042,0.029
0.044,0.029
0.040,0.031
0.044,0.032
0.041,0.034
0.044,0.031
0.043,0.038
0.043,0.035
0.040,0.039
0.041,0.039
0.045,0.041
0.042,0.039
0.046,0.040
0.045,0.036
0.046,0.036
0.046,0.037
0.045,0.039
0.041,0.041
0.044,0.039
0.040,0.039
0.043,0.040
0.043,0.038
0.042,0.037
0.043,0.042
0.042,0.040
0.043,0.042
0.040,0.043
0.045,0.042
0.042,0.043
0.042,0.041
0.041,0.042
0.041,0.039
0.042,0.039
0.041,0.039
0.044,0.038
0.043,0.040
0.044,0.041
0.043,0.044
0.043,0.044
0.041,0.045
0.042,0.044
0.043,0.043
0.043,0.041
0.046,0.042
0.046,0.038
0.046,0.037
0.049,0.038
0.047,0.037
0.046,0.037
0.047,0.038
0.046,0.038
0.046,0.038
0.046,0.038
0.046,0.033
0.048,0.035
0.048,0.031
0.045,0.032
0.046,0.033
0.046,0.029
0.043,0.031
0.045,0.033
0.041,0.029
0.045,0.028
0.045,0.027
0.046,0.025
0.047,0.027
0.048,0.028
0.048,0.025
0.047,0.026
0.047,0.023
0.047,0.025
0.048,0.020
0.048,0.022
0.047,0.019
0.046,0.019
0.047,0.018
0.047,0.019
0.045,0.016
0.043,0.017
0.045,0.013
0.043,0.011
0.048,0.011
0.046,0.010
0.048,0.009
0.049,0.008
0.048,0.007
0.049,0.007
0.048,0.006
0.049,0.009
0.049,0.005
0.049,0.004
0.051,0.005
0.047,0.003
0.047,0.004
0.045,0.005
0.043,0.005
0.044,0.002
0.046,0.003
0.046,-0.000
0.047,-0.000
0.046,-0.001
0.049,0.001
0.046,0.003
0.051,0.000
0.048,0.003
0.052,-0.002
0.049,0.000
0.053,-0.006
0.054,-0.005
0.050,-0.005
0.052,-0.004
0.051,-0.004
0.052,-0.006
0.048,-0.003
0.050,-0.004
0.046,-0.001
0.047,-0.002
0.050,-0.000
0.049,-0.002
0.048,-0.002
0.048,-0.002
0.046,-0.004
0.044,-0.002
0.048,-0.001
0.044,0.001
0.045,-0.001
0.045,0.002
0.045,0.002
0.048,0.004
0.046,0.002
0.050,0.004
0.045,0.005
0.047,0.004
0.047,0.008
0.046,0.004
0.043,0.006
0.044,0.005
0.046,0.007
0.043,0.005
0.048,0.007
0.045,0.008
0.046,0.009
0.046,0.012
0.045,0.011
0.045,0.011
0.045,0.010
0.044,0.012
0.044,0.013
0.045,0.014
0.044,0.012
0.044,0.015
0.045,0.014
0.044,0.016
0.045,0.014
0.042,0.016
0.045,0.016
0.043,0.019
0.044,0.016
0.045,0.021
0.044,0.023
0.047,0.026
0.046,0.026
0.047,0.024
0.043,0.029
0.045,0.029
0.041,0.031
0.040,0.032
0.039,0.032
0.042,0.031
0.041,0.033
0.041,0.032
0.040,0.035
0.042,0.036
0.043,0.036
0.046,0.039
0.050,0.039
0.051,0.040
0.056,0.038
0.058,0.038
0.054,0.034
0.054,0.037
0.048,0.037
0.043,0.040
0.037,0.039
0.036,0.041
0.035,0.045
0.037,0.043
0.040,0.045
0.042,0.048
0.044,0.046
0.042,0.045
0.041,0.048
0.042,0.045
0.040,0.050
0.043,0.048
0.046,0.050
0.044,0.047
0.047,0.047
0.045,0.044
0.046,0.045
0.043,0.046
0.045,0.045
0.043,0.047
0.044,0.046
0.044,0.050
0.045,0.047
0.048,0.046
0.048,0.044
0.053,0.047
0.053,0.047
0.055,0.047
0.052,0.047
0.052,0.042
0.047,0.043
0.043,0.041
0.032,0.043
0.029,0.039
0.028,0.041
0.030,0.040
0.033,0.037
0.034,0.040
0.034,0.037
0.045,0.044
0.056,0.040
0.060,0.042
0.062,0.041
0.065,0.041
0.062,0.036
0.066,0.036
0.067,0.031
0.074,0.025
0.076,0.026
0.072,0.022
0.056,0.026
0.043,0.023
0.028,0.024
0.013,0.023
0.003,0.024
-0.003,0.026
0.003,0.027
0.014,0.025
0.038,0.028
0.048,0.022
0.062,0.023
0.068,0.019
0.074,0.020
0.071,0.016
0.069,0.015
0.063,0.010
0.063,0.010
0.057,0.010
0.056,0.011
0.055,0.012
0.052,0.008
0.051,0.011
0.048,0.008
0.045,0.008
0.042,0.007
0.041,0.008
0.044,0.007
0.047,0.005
0.048,0.002
0.054,0.001
0.052,-0.003
0.057,0.000
0.058,-0.000
0.060,0.000
0.059,0.001
0.063,0.003
0.062,0.000
0.061,0.002
0.057,0.002
0.053,0.000
0.048,0.000
0.044,0.000
0.036,0.001
0.035,0.001
0.042,0.000
0.050,-0.004
0.062,-0.003
0.070,-0.004
0.068,-0.006
0.059,-0.005
0.048,-0.005
0.036,-0.003
0.023,0.001
0.019,0.004
0.017,0.008
0.034,0.010
0.060,0.010
0.073,0.000
0.075,-0.003
0.057,-0.002
0.045,0.001
0.027,0.003
0.021,0.003
0.023,0.008
0.029,0.004
0.039,0.008
0.053,0.006
0.069,0.001
0.059,0.001
0.041,0.006
0.019,0.009
0.005,0.014
-0.004,0.020
-0.004,0.025
0.003,0.026
0.028,0.022
0.055,0.015
0.076,0.009
0.084,0.002
0.080,0.003
0.073,0.003
0.063,0.009
0.052,0.016
0.046,0.021
0.043,0.021
0.046,0.024
0.047,0.023
0.051,0.021
0.055,0.017
0.057,0.017
0.052,0.017
0.042,0.022
0.037,0.029
0.025,0.038
0.020,0.056
0.014,0.078
0.021,0.087
0.027,0.076
0.045,0.071
0.060,0.069
0.070,0.062
0.063,0.047
0.043,0.024
0.026,0.014
0.011,0.018
0.009,0.028
0.015,0.024
0.023,0.020
0.035,0.012
0.046,0.012
0.053,0.017
0.056,0.021
0.056,0.024
0.050,0.028
0.039,0.037
0.030,0.054
0.016,0.082
0.008,0.099
0.006,0.104
0.013,0.102
0.036,0.097
0.059,0.088
0.073,0.069
0.073,0.051
0.062,0.036
0.052,0.034
0.045,0.034
0.045,0.034
0.042,0.031
0.044,0.031
0.043,0.014
0.044,-0.002
0.041,-0.009
0.044,-0.005
0.042,0.025
0.043,0.041
0.046,0.027
0.045,-0.009
0.045,0.034
0.046,0.115
0.049,0.171
0.046,0.202
0.049,0.184
0.050,0.142
0.051,0.085
0.056,0.013
0.057,-0.037
0.059,-0.054
0.058,-0.042
0.055,-0.023
0.046,-0.004
0.040,0.003
0.037,0.008
0.034,0.010
0.034,0.015
0.041,0.010
0.050,-0.004
0.059,-0.034
0.062,-0.049
0.065,0.001
0.063,0.073
0.061,0.130
0.059,0.161
0.056,0.174
0.050,0.155
0.048,0.120
0.048,0.071
0.051,0.011
0.057,-0.032
0.071,-0.043
0.075,-0.042
0.074,-0.027
0.060,-0.020
0.037,-0.013
0.017,-0.027
0.003,-0.047
-0.013,-0.063
-0.007,-0.045
0.023,0.009
0.065,0.056
0.082,0.089
0.072,0.097
0.056,0.100
0.052,0.087
0.055,0.062
0.053,0.027
0.052,-0.005
0.042,-0.032
0.039,-0.032
0.043,-0.020
0.061,-0.001
0.065,0.010
0.055,0.018
0.038,0.012
0.031,-0.000
0.020,-0.024
0.008,-0.043
-0.016,-0.051
-0.021,-0.048
0.001,-0.035
0.051,-0.029
0.092,-0.015
0.109,-0.005
0.101,0.005
0.086,0.010
0.075,0.012
0.064,0.010
0.060,0.008
0.051,0.007
0.051,0.008
0.048,0.015
0.047,0.011
0.046,0.014
0.047,0.011
0.049,0.011
0.050,0.007
0.051,0.003
0.054,-0.002
0.056,-0.010
0.055,-0.012
0.059,-0.019
0.057,-0.017
0.051,-0.009
0.049,0.014
0.042,0.022
0.042,0.015
0.036,0.023
0.034,0.024
0.033,0.022
0.033,0.006
0.034,-0.004
0.032,-0.008
0.044,-0.004
0.049,-0.002
0.056,0.002
0.054,0.010
0.041,0.019
0.034,0.028
0.041,0.035
0.049,0.037
0.050,0.031
0.045,0.015
0.036,-0.012
0.038,-0.035
0.045,-0.049
0.050,-0.049
0.052,-0.039
0.050,-0.028
0.047,-0.012
0.042,0.006
0.032,0.027
0.025,0.046
0.024,0.051
0.023,0.045
0.026,0.037
0.030,0.031
0.036,0.028
0.047,0.026
0.055,0.028
0.061,0.027
0.062,0.028
0.061,0.029
0.058,0.032
0.055,0.030
0.053,0.029
0.039,0.029
0.030,0.027
0.016,0.028
0.012,0.028
0.013,0.027
0.019,0.026
0.021,0.027
0.031,0.034
0.054,0.034
0.075,0.036
0.083,0.034
0.076,0.034
0.061,0.034
0.049,0.033
0.037,0.033
0.034,0.033
0.029,0.036
0.024,0.037
0.024,0.039
0.033,0.040
0.050,0.042
0.067,0.049
0.069,0.053
0.064,0.056
0.055,0.055
0.050,0.056
0.043,0.051
0.046,0.052
0.041,0.048
0.041,0.042
0.039,0.043
0.041,0.038
0.041,0.044
0.042,0.040
0.038,0.043
0.039,0.043
0.038,0.046
0.033,0.052
0.031,0.065
0.026,0.076
0.033,0.063
0.042,0.038
0.054,0.017
0.058,0.013
0.055,0.015
0.048,0.026
0.041,0.037
0.044,0.044
0.046,0.046
0.053,0.049
0.068,0.050
0.073,0.044
0.066,0.045
0.047,0.049
0.022,0.069
-0.005,0.079
-0.030,0.088
-0.032,0.082
0.004,0.061
0.049,0.036
0.077,0.015
0.079,0.010
0.075,0.010
0.065,0.017
0.060,0.019
0.057,0.022
0.054,0.020
0.058,0.022
0.053,0.019
0.052,0.020
0.049,0.022
0.047,0.023
0.046,0.028
0.049,0.030
0.051,0.031
0.050,0.031
0.054,0.032
0.055,0.033
0.053,0.036
0.056,0.037
0.053,0.048
0.058,0.043
0.053,0.028
0.054,0.003
0.044,-0.010
0.036,-0.016
0.025,-0.010
0.017,-0.005
0.008,0.005
0.004,0.009
0.017,0.013
0.035,0.011
0.057,0.010
0.058,0.006
0.056,0.004
0.051,0.002
0.049,-0.001
0.052,0.002
0.058,0.002
0.060,0.002
0.062,0.003
0.061,0.001
0.060,-0.001
0.058,-0.002
0.052,0.000
0.046,-0.002
0.041,0.001
0.041,-0.001
0.048,0.003
0.060,0.001
0.064,0.002
0.057,0.004
0.049,0.004
0.046,0.005
0.047,0.004
0.046,0.003
0.046,0.003
0.044,0.010
0.040,0.017
0.036,0.013
0.028,-0.002
0.030,-0.005
0.034,-0.009
0.047,-0.009
0.054,-0.009
0.058,-0.004
0.062,0.007
0.060,0.015
0.048,0.023
0.039,0.020
0.042,0.016
0.050,0.007
0.059,-0.004
0.060,-0.010
0.051,-0.009
0.036,-0.003
0.023,0.002
0.020,0.006
0.015,0.006
0.009,0.007
0.014,0.019
0.026,0.033
0.044,0.045
0.048,0.051
0.041,0.039
0.048,0.018
0.064,-0.012
0.081,-0.032
0.071,-0.034
0.041,-0.029
0.007,-0.013
-0.024,0.003
-0.040,0.026
-0.024,0.037
0.027,0.047
0.066,0.048
0.086,0.052
0.073,0.049
0.066,0.043
0.055,0.030
0.054,0.024
0.048,0.019
0.050,0.016
0.049,0.014
0.046,0.014
0.045,0.016
0.045,0.018
0.048,0.023
0.047,0.028
0.049,0.026
0.049,0.029
0.047,0.030
0.046,0.031
0.047,0.028
0.052,0.027
0.056,0.029
0.063,0.023
0.065,0.026
0.066,0.027
0.057,0.029
0.038,0.029
0.019,0.033
0.003,0.036
0.008,0.045
0.030,0.046
0.056,0.047
0.063,0.045
0.055,0.044
0.027,0.043
0.007,0.048
-0.006,0.052
-0.003,0.019
0.002,-0.031
0.020,-0.025
0.060,0.059
0.091,0.133
0.092,0.186
0.064,0.191
0.032,0.154
-0.003,0.100
-0.022,0.029
-0.008,-0.011
0.042,-0.019
0.086,-0.006
0.100,0.013
0.083,0.029
0.060,0.042
0.041,0.048
0.039,0.051
0.045,0.043
0.051,0.037
0.052,0.030
0.053,0.030
0.047,0.025
0.047,0.027
0.046,0.025
0.047,0.029
0.045,0.035
0.045,0.033
0.045,0.036
0.041,0.036
0.035,0.040
0.027,0.039
0.029,0.040
0.033,0.035
0.043,0.034
0.047,0.034
0.038,0.030
0.030,0.031
0.034,0.032
0.038,0.032
0.048,0.030
0.055,0.033
0.058,0.029
0.061,0.025
0.061,0.026
0.059,0.024
0.058,0.027
0.059,0.024
0.062,0.025
0.060,0.021
0.063,0.024
0.062,0.021
0.060,0.022
0.059,0.021
0.054,0.020
0.048,0.018
0.044,0.015
0.045,0.015
0.048,0.010
0.051,0.010
0.051,0.010
0.052,0.009
0.051,0.011
0.047,0.008
0.045,0.008
0.048,0.005
0.055,0.003
0.062,-0.001
0.066,0.000
0.051,0.003
0.039,0.005
0.024,0.014
0.014,0.010
0.013,0.011
0.023,0.003
0.050,-0.006
0.074,-0.015
0.083,-0.020
0.073,-0.013
0.060,0.000
0.047,0.011
0.034,0.020
0.038,0.021
0.046,0.013
0.061,0.009
0.066,0.011
0.069,0.020
0.068,0.025
0.078,0.028
0.083,0.022
0.079,0.006
0.062,-0.010
0.047,-0.014
0.028,-0.010
0.030,-0.008
0.037,-0.006
0.049,-0.006
0.054,-0.005
0.055,-0.004
0.051,0.001
0.049,0.007
0.049,0.010
0.047,0.014
0.052,0.018
0.048,0.028
0.049,0.028
0.045,0.013
0.042,-0.011
0.041,-0.018
0.045,-0.017
0.052,-0.019
0.064,-0.016
0.065,-0.019
0.049,-0.016
0.028,-0.018
0.006,-0.010
-0.022,-0.005
-0.020,0.008
0.015,0.016
0.068,0.026
0.095,0.025
0.088,-0.016
0.059,-0.057
0.040,-0.016
0.033,0.068
0.036,0.132
0.033,0.176
0.029,0.162
0.026,0.121
0.015,0.046
0.003,-0.014
-0.008,-0.036
-0.003,-0.023
0.023,0.005
0.060,0.025
0.082,0.026
0.092,0.010
0.084,-0.006
0.068,-0.017
0.051,-0.014
0.043,-0.006
0.038,0.001
0.044,0.009
0.052,0.016
0.059,0.023
0.062,0.023
0.064,0.022
0.056,0.026
0.051,0.023
0.040,0.026
0.036,0.025
0.030,0.031
0.033,0.026
0.039,0.032
0.053,0.028
0.064,0.031
0.064,0.029
0.055,0.028
0.043,0.034
0.041,0.039
0.036,0.045
0.038,0.046
0.038,0.046
0.043,0.043
0.039,0.044
0.041,0.044
0.040,0.048
0.038,0.050
0.043,0.050
0.041,0.053
0.045,0.054
0.046,0.055
0.049,0.052
0.051,0.055
0.054,0.048
0.055,0.043
0.053,0.034
0.054,0.028
0.049,0.025
0.044,0.025
0.040,0.030
0.033,0.030
0.031,0.041
0.029,0.043
0.032,0.046
0.038,0.045
0.043,0.046
0.048,0.046
0.054,0.044
0.055,0.044
0.062,0.040
0.065,0.043
0.066,0.041
0.065,0.039
0.068,0.037
0.071,0.034
0.062,0.031
0.056,0.034
0.046,0.036
0.042,0.041
0.044,0.046
0.043,0.045
0.041,0.044
0.039,0.040
0.046,0.039
0.050,0.035
0.062,0.032
0.061,0.024
0.061,0.019
0.061,0.024
0.058,0.021
0.040,0.023
0.010,0.021
-0.010,0.025
-0.015,0.027
-0.017,0.029
0.002,0.028
0.041,0.029
0.084,0.027
0.105,0.023
0.100,0.023
0.078,0.023
0.060,0.019
0.054,0.020
0.049,0.014
0.046,0.014
0.042,0.014
0.040,0.015
0.031,0.012
0.026,0.012
0.026,0.008
0.045,0.007
0.061,0.007
0.073,0.005
0.067,0.009
0.056,0.008
0.049,0.012
0.045,0.010
0.047,0.016
0.045,0.022
0.049,0.028
0.046,0.012
0.052,-0.009
0.047,-0.023
0.047,-0.028
0.045,-0.022
0.044,-0.019
0.043,-0.013
0.046,-0.009
0.047,-0.007
0.049,-0.003
0.054,-0.003
0.057,-0.004
0.061,-0.003
0.062,-0.005
0.057,-0.006
0.056,-0.004
0.053,-0.005
0.052,-0.004
0.053,-0.005
0.050,-0.003
0.052,-0.004
0.054,-0.001
0.055,-0.003
0.057,-0.003
0.060,-0.001
0.058,-0.004
0.058,-0.003
0.058,-0.004
0.053,-0.000
0.052,-0.002
0.053,0.002
0.054,0.003
0.057,0.004
0.057,0.003
0.056,0.004
0.049,0.005
0.040,0.006
0.035,0.007
0.033,0.004
0.040,0.001
0.051,-0.001
0.062,-0.000
0.064,-0.001
0.065,0.004
0.057,0.008
0.047,0.012
0.040,0.014
0.037,0.014
0.036,0.013
0.038,0.012
0.038,0.010
0.036,0.010
0.038,0.010
0.038,0.010
0.038,0.010
0.038,0.011
0.037,0.013
0.047,0.016
0.054,0.018
0.058,0.018
0.056,0.019
0.052,0.017
0.045,0.018
0.039,0.016
0.032,0.017
0.030,0.020
0.030,0.023
0.032,0.025
0.041,0.027
0.058,0.027
0.061,0.026
0.058,0.025
0.049,0.024
0.045,0.024
0.042,0.026
0.046,0.031
0.050,0.027
0.052,0.033
0.054,0.034
0.048,0.038
0.045,0.040
0.046,0.044
0.045,0.039
0.047,0.039
0.050,0.034
0.050,0.033
0.050,0.031
0.049,0.032
0.049,0.032
0.049,0.032
0.047,0.037
0.044,0.037
0.042,0.041
0.038,0.039
0.041,0.041
0.039,0.038
0.042,0.038
0.044,0.036
0.049,0.036
0.048,0.038
0.052,0.037
0.046,0.038
0.049,0.037
0.049,0.041
0.045,0.041
0.047,0.042
0.043,0.039
0.044,0.042
0.035,0.045
0.037,0.045
0.038,0.048
0.041,0.042
0.044,0.041
0.050,0.041
0.057,0.041
0.057,0.039
0.055,0.040
0.055,0.040
0.050,0.036
0.050,0.040
0.049,0.035
0.049,0.036
0.048,0.036
0.051,0.035
0.049,0.033
0.052,0.035
0.050,0.035
0.048,0.033
0.043,0.037
0.042,0.036
0.040,0.036
0.041,0.032
0.047,0.034
0.048,0.031
0.050,0.026
0.046,0.019
0.046,0.015
0.042,0.008
0.043,0.000
0.048,-0.004
0.050,-0.012
0.052,-0.002
0.054,0.011
0.051,0.035
0.048,0.049
0.044,0.056
0.044,0.051
0.049,0.039
0.059,0.029
0.059,0.022
0.061,0.015
0.054,0.014
0.052,0.013
0.046,0.013
0.046,0.013
0.045,0.011
0.045,0.007
0.049,0.007
0.047,0.002
0.051,0.005
0.050,0.004
0.050,0.001
0.049,0.002
0.051,-0.002
0.049,0.003
0.050,0.002
0.051,0.003
0.052,0.003
0.054,0.001
0.049,-0.001
0.051,-0.000
0.052,0.003
0.053,0.002
0.051,0.002
0.050,-0.001
0.047,-0.001
0.048,-0.005
0.048,-0.005
0.049,-0.009
0.048,-0.009
0.046,-0.008
0.052,-0.004
0.049,-0.003
0.049,-0.006
0.044,-0.003
0.047,-0.003
0.044,-0.002
0.047,-0.004
0.049,-0.002
0.046,-0.005
0.049,0.000
0.045,-0.004
0.047,-0.003
0.043,-0.004
0.046,-0.003
0.043,0.000
0.045,-0.001
0.045,0.001
0.042,0.000
0.045,-0.002
0.046,-0.004
0.047,-0.003
0.049,-0.002
0.045,-0.005
0.047,-0.004
0.048,-0.005
0.049,-0.001
0.048,0.001
0.052,0.006
0.048,0.008
0.052,0.011
0.048,0.014
0.050,0.012
0.046,0.016
0.046,0.012
0.044,0.018
0.044,0.014
0.044,0.012
0.042,0.011
0.045,0.014
0.045,0.011
0.048,0.014
0.047,0.014
0.049,0.015
0.048,0.015
0.047,0.018
0.046,0.017
0.045,0.017
0.044,0.019
0.047,0.023
0.041,0.016
0.041,0.015
0.037,0.008
0.037,0.007
0.034,0.006
0.037,0.010
0.036,0.018
0.041,0.031
0.040,0.043
0.044,0.050
0.043,0.052
0.050,0.047
0.049,0.043
0.052,0.035
0.050,0.038
0.050,0.035
0.044,0.036
0.044,0.034
0.046,0.033
0.044,0.031
0.047,0.033
0.045,0.031
0.047,0.031
0.047,0.036
0.049,0.034
0.047,0.039
0.047,0.038
0.044,0.039
0.038,0.042
0.035,0.040
0.030,0.041
0.030,0.041
0.027,0.039
0.036,0.041
0.035,0.044
0.038,0.040
0.036,0.042
0.039,0.040
0.039,0.041
0.036,0.038
0.037,0.040
0.037,0.038
0.042,0.041
0.043,0.039
0.050,0.041
0.051,0.041
0.053,0.036
0.052,0.045
0.052,0.043
0.047,0.046
0.046,0.043
0.049,0.043
0.045,0.040
0.049,0.040
0.046,0.038
0.047,0.041
0.046,0.042
0.046,0.040
0.044,0.039
0.045,0.040
0.047,0.038
0.046,0.037
0.047,0.038
0.047,0.037
0.048,0.032
0.047,0.034
0.049,0.032
0.049,0.034
0.048,0.036
0.052,0.034
0.051,0.030
0.051,0.031
0.052,0.030
0.053,0.027
0.051,0.031
0.050,0.028
0.050,0.034
0.049,0.025
0.049,0.025
0.049,0.022
0.051,0.021
0.050,0.020
0.052,0.021
0.052,0.019
0.055,0.022
0.055,0.018
0.052,0.018
0.051,0.013
0.050,0.016
0.051,0.013
0.053,0.010
0.052,0.007
0.056,0.010
0.052,0.008
0.058,0.008
0.051,0.010
0.054,0.006
0.051,0.007
0.051,0.008
0.047,0.007
0.050,0.002
0.048,0.007
0.050,0.002
0.049,0.004
0.048,0.002
0.052,0.000
0.048,0.001
0.051,0.002
0.048,0.004
0.051,0.002
0.049,0.004
0.049,0.000
0.050,0.000
0.049,-0.001
0.050,-0.001
0.050,-0.004
0.051,-0.006
0.051,-0.003
0.049,-0.005
0.047,0.001
0.049,-0.002
0.049,0.003
0.048,-0.001
0.049,-0.001
0.048,-0.003
0.052,-0.004
0.050,-0.004
0.050,-0.005
0.050,-0.003
0.048,-0.003
0.047,0.001
0.044,-0.003
0.044,0.003
0.045,0.003
0.044,0.002
0.046,0.001
0.051,-0.002
0.048,-0.003
0.052,-0.007
0.050,-0.003
0.051,-0.001
0.050,0.006
0.050,0.011
0.049,0.014
0.047,0.012
0.045,0.011
0.046,0.010
0.047,0.010
0.046,0.008
0.046,0.010
0.048,0.013
0.044,0.011
0.045,0.013
0.046,0.010
0.044,0.015
0.043,0.017
0.047,0.017
0.046,0.015
0.048,0.016
0.049,0.017
0.048,0.017
0.048,0.014
0.044,0.019
0.045,0.016
0.044,0.018
0.046,0.022
0.044,0.024
0.041,0.023
0.041,0.025
0.040,0.028
0.038,0.025
0.037,0.026
0.039,0.028
0.042,0.030
0.043,0.030
0.047,0.033
0.043,0.032
0.048,0.034
0.045,0.034
0.045,0.035
0.046,0.035
0.040,0.038
0.042,0.038
0.038,0.042
0.044,0.039
0.045,0.041
0.045,0.038
0.046,0.038
0.045,0.039
0.047,0.041
0.044,0.041
0.044,0.042
0.046,0.044
0.043,0.043
0.044,0.045
0.042,0.042
0.048,0.044
0.043,0.043
0.046,0.042
0.045,0.045
0.046,0.044
0.045,0.046
0.045,0.043
0.045,0.045
0.044,0.041
0.048,0.043
0.045,0.043
0.049,0.043
0.048,0.042
0.050,0.042
0.050,0.043
0.049,0.043
0.051,0.047
0.048,0.047
0.047,0.044
0.045,0.045
0.046,0.044
0.045,0.044
0.048,0.044
0.047,0.042
0.047,0.041
0.050,0.040
0.049,0.040
0.050,0.042
0.049,0.040
0.048,0.041
0.046,0.040
0.048,0.037
0.048,0.037
0.047,0.037
0.047,0.036
0.045,0.037
0.048,0.036
0.045,0.034
0.046,0.032
0.046,0.030
0.049,0.030
0.048,0.028
0.050,0.032
0.049,0.023
0.052,0.029
0.049,0.028
0.053,0.029
0.049,0.024
0.052,0.026
0.054,0.027
0.056,0.024
0.049,0.027
0.051,0.023
0.047,0.023
0.050,0.019
0.047,0.019
0.049,0.015
0.047,0.015
0.052,0.012
0.049,0.015
0.050,0.009
0.050,0.014
0.047,0.013
0.050,0.010
0.049,0.013
0.054,0.011
0.052,0.007
0.055,0.008
0.054,0.004
0.055,0.002
0.053,0.007
0.054,0.004
0.050,0.005
0.053,0.006
0.050,0.005
0.050,0.003
0.048,0.003
0.050,0.003
0.052,0.004
0.055,0.003
0.055,0.001
0.056,0.002
0.055,0.001
0.055,-0.001
0.057,-0.001
0.054,-0.003
0.053,-0.003
0.051,-0.005
0.051,-0.004
0.053,-0.003
0.054,-0.001
0.052,0.000
0.050,0.002
0.051,-0.000
0.052,-0.002
0.051,-0.003
0.054,-0.001
0.052,-0.003
0.052,-0.002
0.051,0.001
0.053,-0.001
0.052,0.002
0.054,-0.001
0.051,0.003
0.050,0.004
0.052,0.005
0.052,0.004
0.054,0.003
0.050,0.004
0.046,0.004
0.050,0.006
0.047,0.007
0.049,0.008
0.050,0.008
0.048,0.008
0.047,0.010
0.051,0.010
0.048,0.009
0.050,0.009
0.047,0.012
0.045,0.010
0.045,0.015
0.045,0.012
0.045,0.014
0.041,0.015
0.047,0.016
0.042,0.014
0.048,0.017
0.047,0.014
0.046,0.016
0.045,0.016
0.048,0.017
0.045,0.019
0.045,0.021
0.046,0.021
0.048,0.023
0.046,0.023
0.046,0.023
0.044,0.026
0.045,0.026
0.045,0.030
0.046,0.028
0.046,0.031
0.045,0.031
0.044,0.033
0.047,0.032
0.043,0.032
0.047,0.032
0.041,0.037
0.045,0.035
0.042,0.037
0.044,0.037
0.041,0.037
0.045,0.038
0.042,0.041
0.043,0.038
0.045,0.038
0.048,0.038
0.046,0.037
0.043,0.040
0.046,0.040
0.043,0.040
0.045,0.039
0.045,0.041
0.044,0.041
0.042,0.041
0.045,0.041
0.043,0.042
0.043,0.044
0.045,0.045
0.047,0.048
0.046,0.045
0.046,0.047
0.045,0.045
0.047,0.044
0.046,0.045
0.050,0.043
0.046,0.040
0.048,0.041
0.048,0.044
0.048,0.043
0.047,0.047
0.046,0.046
0.046,0.047
0.047,0.046
0.045,0.046
0.047,0.044
0.045,0.045
0.047,0.044
0.047,0.043
0.045,0.045
0.045,0.043
0.044,0.043
0.046,0.042
0.046,0.038
0.045,0.037
0.049,0.037
0.045,0.036
0.048,0.038
0.047,0.039
0.045,0.034
0.044,0.037
0.047,0.035
0.047,0.038
0.048,0.036
0.050,0.034
0.049,0.033
0.051,0.031
0.050,0.033
0.050,0.030
0.049,0.031
0.049,0.030
0.047,0.029
0.047,0.028
0.046,0.026
0.045,0.029
0.042,0.026
0.043,0.023
0.041,0.024
0.045,0.023
0.045,0.021
0.044,0.017
0.047,0.019
0.048,0.014
0.056,0.014
0.052,0.012
0.054,0.014
0.052,0.012
0.055,0.012
0.049,0.013
0.053,0.013
0.050,0.011
0.054,0.011
0.050,0.010
0.050,0.007
0.051,0.010
0.052,0.006
0.049,0.009
0.051,0.008
0.050,0.006
0.048,0.006
0.049,0.003
0.050,0.003
0.048,0.004
0.048,0.003
0.049,0.003
0.046,0.004
0.048,0.005
0.047,0.002
0.048,0.005
0.048,0.000
0.047,0.000
0.049,-0.002
0.049,-0.003
0.049,-0.006
0.049,-0.001
0.048,-0.003
0.047,-0.001
0.047,0.001
0.048,-0.002
0.046,-0.002
0.049,-0.001
0.049,-0.003
0.050,-0.004
0.048,-0.001
0.048,-0.003
0.048,0.002
0.047,-0.002
0.045,0.002
0.046,0.000
0.048,0.001
0.048,0.000
0.048,-0.002
0.047,-0.000
0.048,0.002
0.048,0.005
0.045,0.004
0.047,0.005
0.047,0.005
0.047,0.006
0.045,0.006
0.050,0.008
0.044,0.007
0.044,0.008
0.045,0.009
0.046,0.006
0.042,0.009
0.040,0.008
0.042,0.011
0.039,0.012
0.042,0.011
0.043,0.011
0.044,0.011
0.042,0.010
0.043,0.013
0.041,0.016
0.041,0.013
0.043,0.014
0.045,0.015
0.045,0.017
0.044,0.019
0.042,0.019
0.039,0.020
0.042,0.020
0.041,0.023
0.039,0.025
0.043,0.024
0.040,0.028
0.043,0.025
0.043,0.028
0.044,0.026
0.043,0.030
0.046,0.028
0.044,0.032
0.042,0.030
0.041,0.035
0.039,0.034
0.039,0.036
0.039,0.034
0.041,0.037
0.038,0.036
0.042,0.036
0.041,0.036
0.042,0.035
0.041,0.038
0.044,0.039
0.042,0.040
0.046,0.038
0.042,0.037
0.044,0.039
0.041,0.039
0.042,0.039
0.044,0.041
0.044,0.042
0.041,0.042
0.044,0.042
0.044,0.043
0.045,0.042
0.043,0.042
0.045,0.043
0.044,0.042
0.045,0.042
0.047,0.038
0.047,0.042
0.046,0.039
0.043,0.040
0.043,0.044
0.042,0.043
0.040,0.045
0.044,0.045
0.043,0.045
0.044,0.043
0.045,0.045
0.045,0.041
0.047,0.042
0.048,0.041
0.047,0.041
0.043,0.040
0.046,0.040
0.044,0.043
0.047,0.040
0.044,0.039
0.045,0.035
0.043,0.036
0.043,0.033
0.044,0.035
0.045,0.033
0.046,0.033
0.045,0.034
0.045,0.033
0.040,0.033
0.043,0.032
0.043,0.032
0.047,0.028
0.046,0.028
0.049,0.028
0.046,0.026
0.048,0.031
0.049,0.028
0.047,0.028
0.049,0.026
0.045,0.030
0.045,0.026
0.046,0.026
0.048,0.023
0.046,0.022
0.046,0.021
0.050,0.021
0.046,0.019
0.047,0.015
0.046,0.015
0.047,0.013
0.045,0.012
0.044,0.014
0.045,0.011
0.046,0.011
0.044,0.009
0.047,0.009
0.048,0.008
0.045,0.008
0.048,0.005
0.047,0.005
0.048,0.006
0.047,0.003
0.048,0.004
0.045,0.003
0.046,0.001
0.047,-0.001
0.047,-0.002
0.045,-0.002
0.048,0.002
0.045,0.002
0.048,0.002
0.046,0.002
0.045,-0.001
0.048,-0.001
0.046,-0.003
0.052,-0.004
0.052,-0.006
0.048,-0.006
0.049,-0.004
0.047,-0.006
0.047,-0.002
0.046,-0.004
0.047,-0.003
0.045,-0.005
0.048,-0.006
0.049,-0.006
0.046,-0.006
0.049,-0.007
0.047,-0.006
0.049,-0.001
0.045,-0.002
0.045,0.000
0.042,-0.001
0.041,-0.001
0.043,-0.002
0.045,-0.004
0.041,-0.005
0.047,-0.001
0.044,-0.002
0.046,0.001
0.042,0.002
0.045,0.003
0.042,0.007
0.046,0.003
0.042,0.008
0.045,0.003
0.045,0.006
0.044,0.004
0.045,0.007
0.046,0.007
0.049,0.005
0.043,0.010
0.046,0.011
0.042,0.014
0.046,0.013
0.043,0.014
0.044,0.014
0.045,0.015
0.044,0.015
0.047,0.014
0.045,0.013
0.045,0.013
0.044,0.017
0.046,0.016
0.046,0.014
0.045,0.017
0.045,0.018
0.042,0.017
0.043,0.021
0.043,0.022
0.044,0.023
0.043,0.028
0.045,0.028
0.043,0.030
0.043,0.032
0.045,0.031
0.045,0.031
0.047,0.029
0.045,0.030
0.048,0.031
0.045,0.034
0.046,0.032
0.042,0.034
0.044,0.035
0.042,0.036
0.046,0.037
0.046,0.037
0.043,0.036
0.048,0.038
0.046,0.035
0.047,0.035
0.046,0.035
0.046,0.034
0.046,0.036
0.043,0.036
0.043,0.040
0.040,0.040
0.045,0.040
0.043,0.040
0.045,0.040
0.043,0.041
0.044,0.040
0.047,0.043
0.046,0.040
0.047,0.044
0.046,0.041
0.044,0.045
0.043,0.043
0.043,0.041
0.044,0.039
0.046,0.040
0.040,0.041
0.043,0.043
0.042,0.045
0.044,0.046
0.041,0.045
0.046,0.043
0.039,0.044
0.040,0.042
0.046,0.042
0.047,0.040
0.046,0.037
0.045,0.040
0.046,0.039
0.043,0.040
0.044,0.037
0.045,0.041
0.044,0.037
0.046,0.035
0.041,0.033
0.045,0.034
0.047,0.034
0.047,0.033
0.047,0.033
0.047,0.032
0.046,0.036
0.043,0.032
0.045,0.033
0.045,0.032
0.047,0.032
0.043,0.030
0.047,0.029
0.044,0.027
0.048,0.025
0.046,0.027
0.047,0.024
0.046,0.025
0.048,0.022
0.045,0.024
0.050,0.021
0.047,0.019
0.049,0.020
0.047,0.020
0.049,0.018
0.046,0.017
0.049,0.017
0.045,0.014
0.048,0.013
0.044,0.012
0.046,0.011
0.045,0.011
0.047,0.011
0.046,0.013
0.046,0.007
0.050,0.010
0.047,0.005
0.050,0.004
0.049,0.004
0.052,0.004
0.048,0.004
0.050,0.006
0.045,0.006
0.049,0.001
0.048,0.004
0.049,0.004
0.048,0.004
0.047,0.003
0.050,0.000
0.049,0.002
0.051,-0.003
0.048,-0.000
0.048,-0.003
0.049,0.000
0.048,-0.003
0.049,-0.002
0.046,-0.004
0.048,-0.003
0.045,-0.004
0.046,-0.005
0.045,-0.003
0.047,-0.003
0.045,0.000
0.047,-0.004
0.046,-0.000
0.048,-0.002
0.048,-0.002
0.048,-0.004
0.048,-0.002
0.046,-0.006
0.047,-0.004
0.043,-0.002
0.044,-0.003
0.041,0.001
0.041,0.000
0.040,0.003
0.041,0.000
0.041,0.001
0.042,-0.000
0.044,0.000
0.043,0.004
0.042,0.003
0.045,0.005
0.042,0.003
0.041,0.010
0.041,0.008
0.040,0.007
0.042,0.006
0.044,0.005
0.042,0.008
0.042,0.007
0.044,0.009
0.043,0.009
0.043,0.010
0.039,0.010
0.040,0.013
0.040,0.013
0.038,0.011
0.040,0.012
0.042,0.015
0.041,0.015
0.044,0.019
0.043,0.017
0.044,0.019
0.042,0.018
0.045,0.020
0.043,0.020
0.043,0.022
0.039,0.023
0.042,0.024
0.040,0.023
0.041,0.025
0.038,0.028
0.041,0.027
0.040,0.028
0.041,0.026
0.041,0.030
0.042,0.028
0.043,0.030
0.042,0.030
0.041,0.032
0.041,0.035
0.041,0.034
0.040,0.034
0.040,0.036
0.042,0.036
0.044,0.037
0.041,0.034
0.046,0.036
0.047,0.034
0.049,0.038
0.045,0.038
0.046,0.037
0.040,0.039
0.043,0.040
0.040,0.042
0.040,0.042
0.043,0.044
0.041,0.041
0.046,0.041
0.043,0.042
0.045,0.041
0.040,0.045
0.042,0.041
0.040,0.043
0.044,0.041
0.039,0.044
0.040,0.042
0.042,0.045
0.041,0.042
0.045,0.043
0.045,0.043
0.043,0.043
0.043,0.047
0.043,0.043
0.042,0.048
0.043,0.043
0.043,0.045
0.043,0.040
0.045,0.043
0.045,0.039
0.048,0.038
0.046,0.037
0.049,0.035
0.043,0.040
0.046,0.035
0.042,0.038
0.045,0.036
0.049,0.036
0.043,0.032
0.048,0.034
0.045,0.033
0.046,0.035
0.045,0.039
0.048,0.034
0.044,0.035
0.046,0.032
0.044,0.032
0.044,0.032
0.047,0.031
0.048,0.028
0.048,0.027
0.047,0.028
0.049,0.027
0.049,0.024
0.049,0.024
0.050,0.024
0.047,0.019
0.050,0.019
0.052,0.018
0.052,0.018
0.050,0.014
0.049,0.014
0.052,0.013
0.049,0.013
0.049,0.010
0.049,0.013
0.048,0.011
0.048,0.015
0.050,0.013
0.048,0.013
0.050,0.011
0.049,0.010
0.049,0.008
0.051,0.008
0.053,0.007
0.051,0.005
0.050,0.010
0.051,0.006
0.049,0.007
0.048,0.005
0.049,0.005
0.046,0.004
0.050,0.006
0.047,0.004
0.050,0.006
0.051,0.006
0.050,0.003
0.052,0.006
0.051,0.000
0.049,0.005
0.049,0.002
0.049,0.000
0.049,0.001
0.052,0.001
0.047,0.002
0.048,-0.002
0.048,0.001
0.046,-0.001
0.046,0.003
0.049,0.001
0.048,-0.002
0.047,-0.001
0.049,-0.001
0.049,-0.003
0.048,0.000
0.046,0.002
0.048,0.002
0.048,0.006
0.046,0.003
0.043,0.006
0.042,0.008
0.045,0.009
0.043,0.008
0.044,0.005
0.047,0.005
0.044,0.006
0.047,0.008
0.044,0.006
0.047,0.008
0.046,0.008
0.046,0.011
0.045,0.011
0.046,0.014
0.043,0.010
0.047,0.012
0.046,0.010
0.045,0.010
0.049,0.010
0.047,0.012
0.044,0.016
0.048,0.014
0.046,0.016
0.048,0.014
0.049,0.018
0.049,0.014
0.050,0.018
0.048,0.015
0.047,0.018
0.045,0.015
0.048,0.017
0.044,0.018
0.046,0.022
0.040,0.025
0.043,0.030
0.040,0.028
0.040,0.029
0.038,0.029
0.041,0.031
0.039,0.028
0.045,0.031
0.042,0.028
0.041,0.032
0.041,0.031
0.044,0.033
0.042,0.035
0.041,0.033
0.042,0.037
0.044,0.036
0.043,0.039
0.043,0.038
0.042,0.041
0.043,0.037
0.043,0.039
0.042,0.037
0.046,0.041
0.045,0.037
0.045,0.039
0.042,0.041
0.044,0.042
0.040,0.043
0.043,0.042
0.041,0.046
0.041,0.044
0.044,0.044
0.044,0.043
0.044,0.043
0.045,0.045
0.042,0.044
0.044,0.047
0.041,0.043
0.041,0.045
0.041,0.046
0.041,0.045
0.038,0.045
0.041,0.046
0.042,0.044
0.041,0.044
0.044,0.046
0.044,0.044
0.043,0.047
0.044,0.045
0.041,0.047
0.043,0.045
0.045,0.042
0.042,0.042
0.049,0.041
0.046,0.042
0.047,0.039
0.048,0.039
0.045,0.039
0.046,0.041
0.048,0.042
0.047,0.039
0.045,0.040
0.048,0.039
0.047,0.038
0.048,0.036
0.050,0.038
0.047,0.035
0.047,0.038
0.047,0.035
0.046,0.032
0.045,0.032
0.048,0.031
0.046,0.029
0.048,0.029
0.047,0.028
0.048,0.026
0.047,0.027
0.045,0.026
0.047,0.029
0.045,0.026
0.046,0.026
0.046,0.024
0.046,0.025
0.048,0.020
0.049,0.023
0.048,0.018
0.049,0.020
0.047,0.016
0.047,0.016
0.044,0.012
0.045,0.012
0.045,0.012
0.046,0.012
0.044,0.011
0.047,0.008
0.047,0.007
0.049,0.008
0.047,0.007
0.046,0.008
0.047,0.009
0.047,0.010
0.048,0.009
0.044,0.005
0.049,0.006
0.046,0.004
0.052,0.005
0.049,0.002
0.050,0.002
0.050,0.004
0.050,0.003
0.047,0.006
0.050,0.003
0.047,0.001
0.048,-0.002
0.047,0.000
0.047,-0.000
0.048,-0.001
0.049,-0.003
0.048,-0.002
0.049,0.000
0.048,-0.001
0.048,0.001
0.047,0.004
0.048,0.004
0.050,0.002
0.049,0.001
0.049,-0.000
0.047,-0.001
0.048,-0.000
0.046,-0.002
0.047,0.001
0.044,0.000
0.043,0.001
0.043,0.001
0.042,0.003
0.043,0.003
0.047,0.006
0.043,0.001
0.047,0.004
0.045,0.005
0.045,0.003
0.040,0.007
0.044,0.006
0.042,0.009
0.043,0.008
0.040,0.010
0.043,0.006
0.046,0.010
0.045,0.008
0.046,0.010
0.045,0.009
0.045,0.012
0.044,0.014
0.046,0.011
0.041,0.014
0.044,0.015
0.041,0.019
0.042,0.016
0.043,0.015
0.043,0.017
0.044,0.017
0.044,0.016
0.045,0.019
0.045,0.015
0.042,0.021
0.042,0.019
0.044,0.022
0.041,0.024
0.042,0.025
0.040,0.027
0.043,0.029
0.043,0.031
0.044,0.033
0.044,0.030
0.045,0.031
0.046,0.030
0.045,0.033
0.044,0.031
0.043,0.033
0.043,0.032
0.043,0.035
0.041,0.037
0.041,0.034
0.041,0.037
0.040,0.037
0.043,0.038
0.044,0.036
0.043,0.038
0.044,0.036
0.045,0.037
0.044,0.036
0.046,0.036
0.043,0.040
0.044,0.038
0.041,0.043
0.040,0.043
0.040,0.044
0.041,0.041
0.044,0.043
0.043,0.042
0.044,0.043
0.045,0.043
0.046,0.041
0.044,0.043
0.044,0.040
0.043,0.042
0.043,0.040
0.043,0.043
0.041,0.041
0.045,0.043
0.044,0.041
0.046,0.042
0.044,0.046
0.046,0.045
0.042,0.047
0.044,0.045
0.042,0.045
0.043,0.045
0.045,0.043
0.045,0.042
0.046,0.040
0.046,0.040
0.047,0.039
0.045,0.040
0.046,0.035
0.046,0.039
0.046,0.038
0.047,0.037
0.043,0.036
0.049,0.035
0.045,0.034
0.048,0.035
0.047,0.033
0.049,0.030
0.046,0.032
0.046,0.027
0.045,0.031
0.046,0.026
0.048,0.031
0.043,0.027
0.048,0.026
0.044,0.024
0.047,0.023
0.047,0.019
0.049,0.018
0.046,0.019
0.049,0.017
0.047,0.019
0.052,0.018
0.048,0.017
0.049,0.014
0.046,0.014
0.051,0.013
0.049,0.011
0.051,0.010
0.046,0.010
0.050,0.006
0.048,0.008
0.051,0.006
0.046,0.009
0.051,0.010
0.050,0.009
0.050,0.006
0.050,0.008
0.049,0.003
0.051,0.004
0.049,0.002
0.051,0.000
0.049,0.002
0.052,0.001
0.048,0.003
0.048,0.003
0.046,0.001
0.048,0.001
0.048,0.000
0.049,-0.002
0.051,-0.002
0.052,-0.002
0.052,-0.003
0.050,-0.001
0.051,-0.002
0.052,-0.002
0.050,-0.008
0.051,-0.003
0.049,-0.006
0.049,-0.003
0.050,-0.008
0.051,-0.007
0.049,-0.006
0.049,-0.006
0.045,-0.002
0.047,-0.006
0.045,-0.004
0.047,-0.006
0.048,-0.003
0.048,-0.006
0.050,-0.004
0.047,-0.008
0.050,-0.007
0.045,0.000
0.048,-0.002
0.044,-0.001
0.049,-0.001
0.046,0.001
0.047,-0.002
0.048,-0.002
0.047,-0.003
0.048,-0.002
0.046,-0.002
0.049,-0.001
0.045,0.004
0.045,0.001
0.043,0.006
0.044,0.002
0.045,0.005
0.043,0.004
0.047,0.007
0.046,0.006
0.049,0.008
0.044,0.010
0.046,0.007
0.045,0.012
0.044,0.010
0.043,0.011
0.041,0.012
0.045,0.014
0.044,0.011
0.044,0.013
0.041,0.013
0.046,0.014
0.042,0.012
0.046,0.015
0.042,0.014
0.045,0.018
0.041,0.019
0.045,0.021
0.046,0.019
0.044,0.024
0.043,0.023
0.044,0.026
0.044,0.024
0.045,0.026
0.044,0.024
0.045,0.028
0.044,0.027
0.045,0.027
0.041,0.031
0.042,0.030
0.042,0.034
0.042,0.032
0.043,0.034
0.043,0.036
0.045,0.039
0.043,0.036
0.047,0.036
0.047,0.034
0.048,0.034
0.046,0.036
0.047,0.035
0.046,0.037
0.046,0.036
0.043,0.040
0.041,0.042
0.044,0.042
0.044,0.041
0.045,0.039
0.044,0.037
0.046,0.039
0.047,0.041
0.045,0.039
0.044,0.040
0.046,0.037
0.045,0.039
0.040,0.037
0.040,0.041
0.041,0.042
0.044,0.041
0.043,0.043
0.045,0.041
0.043,0.040
0.042,0.039
0.045,0.043
0.045,0.040
0.045,0.041
0.044,0.040
0.048,0.041
0.045,0.038
0.049,0.038
0.047,0.036
0.050,0.036
0.047,0.035
0.049,0.034
0.049,0.034
0.047,0.033
0.045,0.035
0.047,0.034
0.047,0.031
0.047,0.029
0.047,0.032
0.047,0.027
0.048,0.030
0.048,0.026
0.049,0.025
0.047,0.029
0.048,0.024
0.046,0.026
0.046,0.024
0.046,0.026
0.047,0.024
0.048,0.025
0.048,0.023
0.049,0.024
0.048,0.020
0.048,0.021
0.049,0.017
0.050,0.016
0.050,0.014
0.052,0.015
0.052,0.014
0.051,0.011
0.049,0.010
0.049,0.009
0.049,0.009
0.048,0.009
0.049,0.011
0.048,0.010
0.051,0.010
0.049,0.009
0.049,0.010
0.051,0.006
0.050,0.005
0.052,0.004
0.053,0.002
0.051,-0.001
0.052,-0.001
0.051,-0.001
0.052,-0.000
0.050,-0.000
0.051,0.000
0.048,0.002
0.049,0.000
0.049,0.000
0.047,-0.001
0.050,0.000
0.049,-0.004
0.053,-0.003
0.051,-0.006
0.051,-0.005
0.051,-0.004
0.050,-0.004
0.047,-0.002
0.047,-0.003
0.047,-0.001
0.047,-0.004
0.049,-0.003
0.047,-0.005
0.050,-0.003
0.049,-0.005
0.052,-0.005
0.050,-0.003
0.052,-0.004
0.048,-0.005
0.049,-0.006
0.047,-0.002
0.047,-0.004
0.045,-0.003
0.046,-0.002
0.047,-0.003
0.046,0.001
0.047,-0.001
0.046,0.004
0.048,0.000
0.047,0.004
0.047,0.001
0.048,0.001
0.047,0.002
0.050,0.003
0.046,0.002
0.047,0.006
0.047,0.007
0.045,0.007
0.044,0.011
0.046,0.010
0.045,0.010
0.045,0.010
0.046,0.010
0.045,0.012
0.048,0.014
0.044,0.013
0.047,0.012
0.046,0.011
0.048,0.014
0.048,0.013
0.047,0.017
0.046,0.016
0.048,0.017
0.045,0.015
0.045,0.015
0.041,0.018
0.046,0.017
0.044,0.023
0.044,0.026
0.041,0.028
0.044,0.026
0.040,0.028
0.042,0.025
0.041,0.030
0.046,0.025
0.045,0.030
0.045,0.027
0.043,0.029
0.043,0.028
0.043,0.032
0.042,0.030
0.046,0.032
0.043,0.031
0.046,0.035
0.041,0.033
0.044,0.031
0.042,0.034
0.045,0.032
0.041,0.036
0.042,0.037
0.041,0.037
0.042,0.035
0.044,0.036
0.041,0.036
0.043,0.037
0.042,0.039
0.042,0.039
0.042,0.041
0.041,0.043
0.042,0.045
0.041,0.042
0.041,0.043
0.041,0.041
0.043,0.040
0.041,0.039
0.044,0.039
0.043,0.040
0.042,0.039
0.042,0.042
0.041,0.040
0.042,0.043
0.039,0.041
0.041,0.044
0.041,0.044
0.043,0.043
0.042,0.043
0.045,0.043
0.045,0.043
0.049,0.041
0.045,0.043
0.047,0.043
0.044,0.043
0.045,0.042
0.045,0.042
0.045,0.038
0.047,0.037
0.045,0.036
0.048,0.033
0.048,0.034
0.047,0.031
0.050,0.034
0.048,0.031
0.049,0.036
0.045,0.035
0.049,0.034
0.046,0.030
0.049,0.028
0.047,0.030
0.048,0.027
0.050,0.030
0.046,0.025
0.046,0.029
0.047,0.024
0.047,0.025
0.046,0.023
0.050,0.022
0.045,0.020
0.047,0.023
0.046,0.019
0.049,0.020
0.048,0.017
0.050,0.018
0.049,0.015
0.051,0.015
0.049,0.010
0.052,0.011
0.048,0.008
0.050,0.010
0.048,0.010
0.053,0.008
0.047,0.009
0.048,0.005
0.046,0.007
0.048,0.005
0.048,0.007
0.048,0.003
0.047,0.004
0.045,0.001
0.050,0.003
0.047,0.001
0.047,0.000
0.049,0.003
0.051,-0.002
0.048,0.004
0.047,-0.000
0.043,0.002
0.047,0.001
0.048,0.001
0.049,-0.003
0.049,-0.006
0.049,-0.007
0.049,-0.008
0.052,-0.006
0.050,-0.009
0.048,-0.003
0.049,-0.005
0.049,-0.003
0.048,-0.002
0.048,-0.002
0.049,-0.005
0.049,-0.004
0.049,-0.004
0.050,-0.006
0.047,-0.002
0.048,-0.005
0.048,-0.002
0.048,-0.004
0.049,0.002
0.048,-0.002
0.049,-0.001
0.044,-0.002
0.048,0.000
0.045,-0.000
0.044,-0.000
0.042,-0.001
0.045,-0.000
0.041,0.003
0.045,0.004
0.042,0.005
0.043,0.002
0.044,0.004
0.045,0.001
0.045,0.003
0.045,0.002
0.045,0.006
0.044,0.007
0.045,0.006
0.042,0.010
0.044,0.009
0.041,0.010
0.041,0.010
0.043,0.013
0.044,0.009
0.043,0.011
0.042,0.010
0.043,0.010
0.043,0.015
0.047,0.012
0.044,0.016
0.044,0.013
0.045,0.018
0.044,0.016
0.042,0.021
0.042,0.020
0.045,0.023
0.044,0.023
0.042,0.026
0.041,0.027
0.041,0.028
0.045,0.028
0.044,0.030
0.044,0.028
0.043,0.030
0.042,0.028
0.039,0.030
0.044,0.029
0.040,0.033
0.042,0.031
0.044,0.034
0.045,0.033
0.043,0.035
0.044,0.034
0.044,0.033
0.046,0.032
0.046,0.034
0.046,0.038
0.045,0.036
0.044,0.039
0.044,0.039
0.043,0.037
0.040,0.035
0.043,0.039
0.040,0.037
0.044,0.038
0.041,0.040
0.044,0.038
0.042,0.042
0.045,0.041
0.042,0.042
0.044,0.040
0.045,0.043
0.044,0.038
0.047,0.040
0.044,0.037
0.044,0.040
0.042,0.041
0.044,0.042
0.040,0.047
0.043,0.042
0.041,0.042
0.041,0.038
0.045,0.040
0.042,0.043
0.045,0.041
0.047,0.044
0.045,0.040
0.045,0.042
0.043,0.041
0.045,0.043
0.045,0.038
0.045,0.039
0.045,0.038
0.047,0.037
0.046,0.037
0.045,0.035
0.043,0.039
0.046,0.035
0.044,0.039
0.044,0.033
0.044,0.035
0.042,0.032
0.047,0.034
0.045,0.030
0.048,0.029
0.044,0.029
0.049,0.025
0.046,0.029
0.046,0.027
0.044,0.028
0.045,0.026
0.043,0.026
0.044,0.023
0.044,0.023
0.044,0.024
0.046,0.024
0.049,0.023
0.049,0.020
0.048,0.019
0.048,0.017
0.049,0.013
0.049,0.014
0.049,0.009
0.049,0.011
0.046,0.009
0.050,0.007
0.046,0.007
0.049,0.008
0.046,0.008
0.049,0.006
0.048,0.007
0.050,0.004
0.049,0.007
0.048,0.004
0.045,0.005
0.049,0.003
0.045,0.005
0.044,0.003
0.047,0.001
0.046,-0.001
0.046,-0.002
0.045,-0.003
0.046,-0.001
0.048,0.001
0.048,-0.001
0.048,0.000
0.045,-0.001
0.048,-0.001
0.046,-0.004
0.048,-0.005
0.047,-0.003
0.046,-0.005
0.046,-0.003
0.046,-0.006
0.045,-0.003
0.047,-0.004
0.045,-0.003
0.043,-0.005
0.046,-0.004
0.046,-0.005
0.049,-0.002
0.049,-0.005
0.047,-0.004
0.047,-0.002
0.047,-0.001
0.044,0.000
0.046,-0.003
0.046,0.000
0.047,-0.002
0.046,0.001
0.045,-0.003
0.044,0.003
0.047,0.002
0.046,0.001
0.044,0.003
0.046,0.004
0.046,0.006
0.045,0.004
0.044,0.009
0.044,0.005
0.048,0.007
0.045,0.005
0.049,0.006
0.049,0.007
0.045,0.005
0.045,0.010
0.044,0.009
0.041,0.013
0.041,0.011
0.043,0.012
0.041,0.011
0.043,0.013
0.044,0.011
0.048,0.015
0.045,0.014
0.047,0.013
0.044,0.015
0.046,0.017
0.042,0.019
0.045,0.018
0.043,0.018
0.044,0.020
0.040,0.022
0.041,0.023
0.042,0.023
0.040,0.025
0.043,0.028
0.042,0.029
0.041,0.028
0.040,0.029
0.040,0.031
0.039,0.031
0.038,0.033
0.042,0.029
0.040,0.035
0.041,0.032
0.040,0.037
0.040,0.036
0.041,0.038
0.041,0.036
0.042,0.036
0.040,0.036
0.041,0.037
0.042,0.041
0.043,0.041
0.041,0.039
0.043,0.037
0.039,0.037
0.039,0.039
0.042,0.040
0.039,0.037
0.040,0.041
0.037,0.039
0.040,0.042
0.039,0.044
0.041,0.040
0.037,0.044
0.040,0.041
0.037,0.043
0.040,0.041
0.040,0.044
0.040,0.040
0.040,0.040
