File Version,253.000000
# of Channels,2.000000
Samples/Channel,10300.000000
Scan Rate (Hz),10000.000000
Timestamp,3807793388.744080
Operating Mode,1.000000
Trial #,41.000000
Session #,26.000000
Subject code 1,82.000000
Subject code 2,88.000000
Feedback Window,0.000000
Feedback Ch,0.000000
Ch B,0.000000
Pre-Stim Acq. time (ms),100.000000
Post-Stim Acq. time (ms),900.000000
EMG Hi Limit,50.000000
EMG Lo Limit,0.000250
Target Value (V),5.000000
Stimulus Value (V),1.157343
Stimulus duration (ms),1.000000
EMG conditions time limit (sec),0.200000
M-response Start (ms),2.000000
M-response Duration (ms),2.000000
H-response Duration (ms),2.000000
H-response Start (ms),5.000000
Proportioanl gain,0.003000
Channel to monitor,0.000000
SIU gain,20.000000
FB Monitor value,1.021361
Inter-Stim delay (sec),5.000000
M-Window Mean,1.015213
H-Window Mean,0.014035
Stimulus paradigm,2.000000
# of Pulses in cond train,1.000000
Cond duration (ms),1.000000
Cond Train pulse period (ms),30.000000
Cond Value (V),1.157343
Start Delay (ms),0.000000
# of Pulses in stim train,1.000000
Stim Train pulse period (ms),30.000000
EMG amp gain ch 1,500.000000
EMG amp gain ch 2,500.000000
EMG amp gain ch 3,1000.000000
EMG amp gain ch 4,1000.000000
EMG amp gain ch 5,1000.000000
EMG amp gain ch 6,1000.000000
Stim Type 1,2.000000
Stim/Cond 1,0.000000
Stim Type 2,3.000000
Stim/Cond 2,0.000000
Stim Type 3,3.000000
Stim/Cond 3,0.000000
Stim Type 4,3.000000
Stim/Cond 4,0.000000
Stim Value 1,1.157343
Stim Value 2,0.000000
Stim Value 3,0.000000
Stim Value 4,0.000000
1st PP Channel,-1.000000
Pressure (g),0.000000
Speed (mm/sec),0.000000
Dwell (ms),0.000000
Pressure limit (g),0.000000
Travel limit (mm),0.000000
Amp gain,0.000000
Wait Trig?,0.000000
Move Timeout (ms),0.000000
Time Taken (ms),0.000000
Actual Travel (mm),0.000000
Recorded Data (mV),
0.045,0.044
0.044,0.047
0.043,0.050
0.044,0.047
0.041,0.047
0.047,0.045
0.046,0.046
0.047,0.042
0.046,0.040
0.044,0.038
0.046,0.040
0.047,0.039
0.047,0.036
0.044,0.041
0.044,0.038
0.045,0.039
0.043,0.034
0.049,0.036
0.043,0.034
0.045,0.032
0.042,0.036
0.046,0.035
0.044,0.036
0.046,0.032
0.044,0.034
0.043,0.030
0.046,0.032
0.045,0.029
0.046,0.030
0.045,0.026
0.046,0.028
0.042,0.030
0.046,0.026
0.044,0.027
0.045,0.024
0.045,0.026
0.049,0.024
0.047,0.022
0.049,0.020
0.046,0.017
0.048,0.015
0.045,0.015
0.049,0.014
0.044,0.012
0.048,0.012
0.046,0.015
0.044,0.012
0.047,0.013
0.043,0.011
0.048,0.011
0.045,0.007
0.048,0.008
0.046,0.004
0.049,0.006
0.046,0.006
0.048,0.005
0.045,0.006
0.046,0.003
0.044,0.005
0.044,0.006
0.043,0.004
0.045,0.003
0.045,0.002
0.048,-0.001
0.047,0.003
0.047,0.004
0.046,0.001
0.048,0.003
0.046,0.002
0.046,-0.002
0.046,-0.005
0.048,-0.004
0.046,-0.003
0.044,-0.002
0.045,-0.002
0.043,-0.002
0.044,0.001
0.044,0.003
0.044,0.002
0.043,0.001
0.046,-0.000
0.042,-0.003
0.047,-0.003
0.043,-0.003
0.045,-0.001
0.044,0.002
0.044,-0.001
0.042,0.003
0.042,-0.001
0.045,0.000
0.042,0.001
0.044,0.001
0.043,-0.001
0.046,0.001
0.045,0.002
0.045,0.003
0.043,0.004
0.046,0.004
0.041,0.005
0.041,0.005
0.042,0.007
0.042,0.004
0.044,0.006
0.047,0.004
0.043,0.006
0.044,0.007
0.044,0.008
0.040,0.009
0.042,0.010
0.039,0.012
0.041,0.013
0.041,0.013
0.042,0.013
0.041,0.012
0.042,0.013
0.043,0.015
0.039,0.016
0.042,0.018
0.040,0.018
0.040,0.017
0.039,0.018
0.040,0.020
0.039,0.021
0.043,0.024
0.040,0.027
0.038,0.027
0.037,0.028
0.039,0.030
0.040,0.029
0.042,0.033
0.043,0.031
0.042,0.030
0.042,0.029
0.040,0.032
0.039,0.034
0.041,0.034
0.039,0.037
0.041,0.036
0.037,0.036
0.041,0.035
0.041,0.036
0.042,0.036
0.042,0.036
0.041,0.037
0.042,0.036
0.041,0.038
0.043,0.035
0.043,0.039
0.040,0.040
0.039,0.041
0.038,0.042
0.039,0.043
0.038,0.041
0.042,0.041
0.043,0.040
0.042,0.040
0.042,0.044
0.040,0.042
0.041,0.046
0.041,0.043
0.040,0.042
0.040,0.038
0.042,0.039
0.041,0.041
0.041,0.043
0.042,0.040
0.041,0.044
0.041,0.045
0.043,0.044
0.041,0.043
0.043,0.042
0.044,0.043
0.044,0.041
0.046,0.040
0.047,0.039
0.045,0.039
0.043,0.039
0.044,0.038
0.039,0.041
0.044,0.038
0.043,0.038
0.043,0.036
0.046,0.037
0.044,0.037
0.045,0.034
0.043,0.038
0.042,0.036
0.042,0.037
0.042,0.036
0.044,0.037
0.044,0.033
0.046,0.033
0.043,0.030
0.043,0.032
0.044,0.033
0.044,0.029
0.046,0.031
0.048,0.028
0.044,0.029
0.048,0.028
0.046,0.026
0.047,0.026
0.048,0.026
0.047,0.023
0.047,0.023
0.047,0.018
0.047,0.021
0.047,0.017
0.047,0.018
0.043,0.017
0.044,0.018
0.043,0.010
0.048,0.017
0.043,0.012
0.048,0.012
0.048,0.010
0.049,0.011
0.046,0.010
0.048,0.008
0.046,0.008
0.044,0.007
0.046,0.007
0.044,0.005
0.043,0.005
0.043,0.005
0.044,0.004
0.043,0.003
0.044,0.002
0.041,0.001
0.043,0.003
0.042,0.006
0.044,0.005
0.041,0.007
0.043,0.004
0.042,0.004
0.043,-0.001
0.043,0.000
0.044,-0.004
0.046,-0.002
0.043,-0.003
0.045,-0.004
0.042,-0.000
0.044,-0.002
0.041,0.002
0.045,-0.000
0.043,0.001
0.043,-0.003
0.046,-0.002
0.043,-0.001
0.042,-0.002
0.042,0.004
0.043,0.000
0.042,0.006
0.041,0.001
0.043,0.003
0.042,0.001
0.045,0.002
0.043,0.002
0.045,0.002
0.043,0.004
0.044,0.003
0.038,0.006
0.042,0.008
0.039,0.007
0.040,0.008
0.043,0.010
0.042,0.010
0.044,0.010
0.041,0.007
0.042,0.010
0.041,0.008
0.042,0.011
0.039,0.012
0.042,0.014
0.036,0.015
0.038,0.014
0.039,0.013
0.038,0.012
0.039,0.013
0.041,0.012
0.039,0.015
0.042,0.014
0.039,0.014
0.043,0.017
0.042,0.018
0.040,0.019
0.040,0.017
0.038,0.020
0.039,0.024
0.038,0.025
0.038,0.026
0.038,0.028
0.037,0.028
0.037,0.032
0.039,0.031
0.036,0.031
0.041,0.030
0.038,0.031
0.041,0.031
0.038,0.034
0.042,0.031
0.037,0.034
0.040,0.036
0.035,0.037
0.038,0.038
0.040,0.040
0.037,0.039
0.043,0.040
0.038,0.036
0.044,0.038
0.045,0.040
0.043,0.038
0.042,0.039
0.041,0.040
0.039,0.043
0.036,0.040
0.037,0.041
0.039,0.045
0.038,0.047
0.039,0.046
0.041,0.049
0.042,0.047
0.041,0.046
0.042,0.046
0.042,0.046
0.040,0.046
0.042,0.046
0.037,0.044
0.037,0.043
0.036,0.044
0.037,0.041
0.038,0.042
0.038,0.045
0.039,0.044
0.037,0.048
0.038,0.046
0.039,0.048
0.040,0.047
0.042,0.048
0.042,0.045
0.042,0.047
0.039,0.043
0.041,0.046
0.039,0.048
0.038,0.046
0.038,0.046
0.039,0.044
0.039,0.043
0.042,0.041
0.042,0.041
0.042,0.041
0.042,0.040
0.042,0.042
0.045,0.037
0.041,0.040
0.042,0.037
0.040,0.036
0.043,0.037
0.046,0.032
0.045,0.031
0.046,0.029
0.046,0.031
0.043,0.028
0.043,0.031
0.042,0.029
0.042,0.028
0.042,0.026
0.041,0.026
0.045,0.025
0.044,0.023
0.047,0.022
0.045,0.022
0.047,0.021
0.046,0.018
0.047,0.016
0.044,0.015
0.046,0.014
0.044,0.014
0.044,0.013
0.042,0.015
0.043,0.012
0.045,0.012
0.042,0.009
0.044,0.010
0.044,0.008
0.045,0.006
0.046,0.008
0.044,0.008
0.044,0.009
0.043,0.004
0.042,0.008
0.041,0.006
0.045,0.004
0.043,0.003
0.046,0.005
0.045,0.005
0.048,0.004
0.045,0.005
0.045,0.003
0.044,0.006
0.045,0.004
0.046,0.002
0.044,0.001
0.048,-0.000
0.048,-0.006
0.050,-0.002
0.046,-0.002
0.045,-0.003
0.045,0.001
0.046,0.000
0.041,-0.001
0.044,0.000
0.046,-0.000
0.046,-0.002
0.046,-0.002
0.048,-0.001
0.046,-0.001
0.043,0.001
0.043,-0.001
0.042,0.000
0.042,0.000
0.042,0.000
0.042,0.000
0.041,0.002
0.042,0.002
0.041,0.001
0.040,0.002
0.042,0.003
0.041,0.007
0.039,0.008
0.038,0.009
0.041,0.009
0.041,0.007
0.041,0.004
0.042,0.009
0.040,0.008
0.043,0.009
0.042,0.011
0.043,0.009
0.040,0.012
0.042,0.010
0.039,0.014
0.039,0.015
0.041,0.017
0.039,0.015
0.043,0.017
0.039,0.014
0.043,0.017
0.041,0.014
0.044,0.017
0.046,0.016
0.044,0.017
0.042,0.016
0.043,0.019
0.038,0.020
0.042,0.023
0.039,0.022
0.041,0.023
0.041,0.028
0.042,0.028
0.042,0.030
0.045,0.029
0.047,0.032
0.043,0.034
0.042,0.035
0.043,0.034
0.041,0.034
0.042,0.035
0.039,0.037
0.040,0.036
0.041,0.039
0.042,0.037
0.046,0.040
0.044,0.036
0.044,0.038
0.042,0.036
0.044,0.036
0.041,0.039
0.044,0.038
0.041,0.039
0.043,0.036
0.042,0.039
0.041,0.037
0.043,0.041
0.040,0.040
0.041,0.040
0.040,0.044
0.042,0.042
0.041,0.047
0.044,0.044
0.044,0.047
0.042,0.045
0.043,0.042
0.043,0.041
0.044,0.041
0.044,0.041
0.042,0.039
0.042,0.041
0.042,0.044
0.042,0.047
0.042,0.045
0.044,0.047
0.043,0.044
0.047,0.046
0.045,0.044
0.048,0.044
0.048,0.045
0.044,0.041
0.046,0.044
0.044,0.040
0.045,0.041
0.041,0.038
0.043,0.038
0.044,0.038
0.049,0.037
0.046,0.036
0.049,0.038
0.048,0.038
0.047,0.037
0.045,0.037
0.047,0.034
0.043,0.032
0.047,0.031
0.045,0.034
0.046,0.029
0.048,0.030
0.046,0.026
0.046,0.028
0.045,0.030
0.048,0.026
0.045,0.030
0.045,0.024
0.046,0.026
0.048,0.025
0.047,0.025
0.051,0.026
0.047,0.023
0.050,0.021
0.049,0.020
0.049,0.017
0.049,0.014
0.050,0.012
0.049,0.013
0.045,0.010
0.050,0.013
0.048,0.011
0.049,0.010
0.049,0.009
0.050,0.011
0.049,0.010
0.052,0.008
0.051,0.008
0.051,0.007
0.047,0.007
0.049,0.008
0.047,0.006
0.046,0.004
0.049,0.002
0.050,0.003
0.049,0.001
0.049,-0.000
0.051,0.002
0.050,0.003
0.049,-0.000
0.046,0.003
0.046,0.002
0.045,0.000
0.047,-0.002
0.047,-0.003
0.048,-0.006
0.046,-0.008
0.049,-0.007
0.047,-0.004
0.045,-0.000
0.047,-0.002
0.047,-0.002
0.045,-0.004
0.046,-0.000
0.045,-0.003
0.049,-0.002
0.047,-0.001
0.047,-0.001
0.045,0.000
0.044,-0.001
0.045,0.000
0.044,-0.002
0.045,-0.001
0.043,-0.001
0.047,0.001
0.048,-0.001
0.046,-0.003
0.044,0.000
0.047,0.000
0.043,0.003
0.045,0.003
0.044,0.003
0.045,0.005
0.044,0.005
0.046,0.006
0.044,0.008
0.044,0.005
0.043,0.007
0.042,0.004
0.044,0.006
0.041,0.008
0.045,0.010
0.039,0.013
0.042,0.012
0.041,0.014
0.042,0.012
0.044,0.014
0.044,0.013
0.045,0.013
0.045,0.012
0.043,0.013
0.040,0.018
0.042,0.013
0.042,0.018
0.041,0.016
0.042,0.021
0.040,0.019
0.042,0.023
0.040,0.023
0.040,0.028
0.040,0.027
0.038,0.029
0.043,0.029
0.041,0.034
0.041,0.032
0.039,0.034
0.043,0.034
0.040,0.037
0.043,0.034
0.039,0.035
0.042,0.035
0.040,0.034
0.039,0.034
0.044,0.036
0.040,0.034
0.044,0.036
0.044,0.036
0.043,0.036
0.043,0.040
0.045,0.039
0.042,0.038
0.043,0.038
0.044,0.038
0.042,0.038
0.044,0.041
0.042,0.037
0.042,0.042
0.042,0.040
0.040,0.042
0.041,0.045
0.043,0.043
0.045,0.045
0.044,0.042
0.042,0.043
0.043,0.040
0.043,0.043
0.042,0.041
0.047,0.042
0.043,0.040
0.046,0.039
0.040,0.043
0.043,0.040
0.039,0.045
0.043,0.041
0.043,0.046
0.040,0.043
0.043,0.045
0.043,0.040
0.043,0.042
0.044,0.041
0.045,0.040
0.041,0.047
0.042,0.040
0.043,0.042
0.044,0.039
0.046,0.038
0.045,0.039
0.045,0.035
0.044,0.036
0.045,0.033
0.044,0.036
0.045,0.034
0.043,0.037
0.042,0.035
0.045,0.033
0.045,0.032
0.048,0.035
0.046,0.032
0.048,0.029
0.043,0.031
0.047,0.027
0.045,0.030
0.045,0.028
0.047,0.029
0.045,0.025
0.049,0.026
0.046,0.024
0.052,0.025
0.051,0.022
0.050,0.022
0.049,0.017
0.051,0.019
0.049,0.013
0.052,0.016
0.049,0.010
0.052,0.013
0.047,0.010
0.050,0.007
0.047,0.010
0.052,0.008
0.050,0.011
0.048,0.009
0.049,0.011
0.048,0.008
0.049,0.009
0.048,0.006
0.047,0.007
0.047,0.006
0.047,0.004
0.048,0.003
0.048,0.002
0.045,0.002
0.047,0.002
0.047,0.001
0.047,0.003
0.046,0.005
0.045,0.006
0.046,0.002
0.045,0.001
0.047,-0.001
0.049,-0.003
0.048,-0.005
0.050,-0.003
0.048,-0.004
0.047,-0.001
0.045,-0.001
0.044,-0.003
0.043,-0.003
0.046,0.001
0.046,0.000
0.049,-0.001
0.048,-0.002
0.047,-0.002
0.047,0.001
0.045,-0.000
0.042,0.002
0.046,-0.001
0.046,-0.001
0.045,-0.006
0.047,-0.004
0.047,-0.006
0.047,-0.003
0.046,0.001
0.048,-0.000
0.044,0.004
0.045,0.004
0.042,0.004
0.043,0.005
0.046,0.006
0.044,0.003
0.046,0.006
0.045,0.006
0.048,0.006
0.043,0.008
0.045,0.008
0.042,0.008
0.042,0.010
0.044,0.010
0.044,0.011
0.045,0.011
0.043,0.009
0.040,0.010
0.042,0.010
0.039,0.012
0.041,0.014
0.042,0.012
0.041,0.016
0.041,0.016
0.040,0.017
0.037,0.018
0.038,0.016
0.040,0.017
0.040,0.018
0.038,0.019
0.039,0.019
0.040,0.023
0.038,0.026
0.039,0.024
0.039,0.026
0.042,0.027
0.039,0.026
0.039,0.029
0.041,0.030
0.040,0.027
0.039,0.030
0.038,0.028
0.040,0.033
0.038,0.031
0.040,0.036
0.040,0.032
0.038,0.031
0.037,0.031
0.040,0.035
0.036,0.038
0.040,0.036
0.038,0.038
0.041,0.037
0.039,0.037
0.037,0.036
0.039,0.036
0.038,0.038
0.040,0.037
0.038,0.040
0.037,0.038
0.036,0.041
0.038,0.042
0.038,0.045
0.037,0.044
0.042,0.043
0.040,0.041
0.044,0.043
0.042,0.040
0.043,0.041
0.042,0.038
0.041,0.039
0.041,0.043
0.039,0.039
0.039,0.041
0.037,0.039
0.041,0.042
0.039,0.036
0.039,0.040
0.036,0.041
0.039,0.042
0.038,0.042
0.042,0.040
0.038,0.039
0.041,0.039
0.040,0.039
0.043,0.036
0.044,0.038
0.041,0.036
0.042,0.038
0.041,0.035
0.044,0.036
0.038,0.036
0.041,0.035
0.039,0.036
0.039,0.033
0.043,0.035
0.039,0.033
0.042,0.032
0.043,0.033
0.043,0.028
0.042,0.031
0.042,0.028
0.042,0.029
0.042,0.027
0.045,0.028
0.042,0.024
0.049,0.024
0.043,0.024
0.048,0.022
0.046,0.023
0.045,0.022
0.048,0.019
0.046,0.018
0.047,0.019
0.047,0.014
0.049,0.013
0.047,0.013
0.048,0.014
0.047,0.012
0.046,0.011
0.045,0.011
0.043,0.013
0.044,0.009
0.043,0.013
0.045,0.010
0.045,0.011
0.045,0.007
0.043,0.008
0.044,0.003
0.046,0.004
0.042,-0.000
0.048,0.001
0.046,0.001
0.044,-0.000
0.043,0.003
0.043,0.002
0.042,0.004
0.043,0.002
0.043,0.003
0.041,0.000
0.045,0.002
0.045,-0.002
0.046,-0.004
0.045,-0.005
0.045,-0.004
0.044,-0.005
0.044,-0.005
0.041,-0.004
0.043,-0.002
0.041,-0.006
0.043,-0.007
0.044,-0.006
0.044,-0.005
0.043,-0.006
0.046,-0.002
0.045,-0.002
0.042,-0.003
0.042,-0.002
0.043,-0.005
0.041,-0.002
0.045,-0.003
0.047,-0.003
0.044,-0.003
0.046,-0.004
0.043,0.000
0.044,0.003
0.043,0.004
0.043,0.005
0.042,0.001
0.043,0.004
0.044,0.001
0.046,0.004
0.045,0.004
0.044,0.002
0.044,0.007
0.046,0.006
0.043,0.011
0.042,0.008
0.041,0.010
0.040,0.009
0.044,0.010
0.040,0.009
0.043,0.011
0.039,0.010
0.041,0.011
0.041,0.014
0.042,0.013
0.041,0.016
0.043,0.017
0.043,0.016
0.043,0.014
0.039,0.016
0.040,0.015
0.039,0.018
0.041,0.017
0.038,0.019
0.039,0.019
0.037,0.023
0.038,0.022
0.038,0.028
0.039,0.025
0.041,0.028
0.038,0.029
0.038,0.030
0.037,0.028
0.039,0.030
0.038,0.032
0.037,0.032
0.039,0.033
0.039,0.034
0.036,0.030
0.041,0.033
0.039,0.027
0.042,0.030
0.042,0.034
0.041,0.032
0.038,0.038
0.041,0.036
0.042,0.036
0.042,0.034
0.043,0.035
0.041,0.032
0.042,0.036
0.040,0.036
0.040,0.035
0.037,0.038
0.039,0.037
0.035,0.039
0.038,0.038
0.036,0.040
0.039,0.040
0.040,0.042
0.043,0.037
0.041,0.038
0.042,0.039
0.041,0.038
0.040,0.042
0.041,0.037
0.037,0.039
0.040,0.041
0.038,0.042
0.038,0.039
0.040,0.044
-0.030,0.016
-0.038,0.020
-0.036,0.023
-0.030,0.023
-0.027,0.031
-0.015,0.030
-0.013,0.032
-0.008,0.030
0.044,0.035
0.264,0.029
0.953,0.030
2.223,-0.107
3.740,-0.481
4.623,-1.049
4.275,-1.434
2.806,-1.007
0.888,0.548
-0.593,2.588
-1.797,4.002
-2.643,4.763
-2.994,4.923
-2.968,3.290
-2.613,0.720
-2.180,-1.771
-1.772,-3.417
-1.395,-4.167
-1.009,-3.747
-0.619,-2.506
-0.247,-1.225
0.051,-0.431
0.231,-0.074
0.299,0.027
0.293,0.030
0.252,0.008
0.206,-0.014
0.171,-0.025
0.140,-0.023
0.117,-0.021
0.104,-0.019
0.095,-0.018
0.075,-0.015
0.057,-0.013
0.025,-0.013
0.011,-0.015
0.010,-0.013
0.026,-0.016
0.045,-0.013
0.058,-0.019
0.069,-0.021
0.065,-0.028
0.063,-0.029
0.055,-0.032
0.047,-0.034
0.035,-0.034
0.028,-0.033
0.033,-0.032
0.050,-0.034
0.075,-0.035
0.086,-0.035
0.081,-0.036
0.074,-0.033
0.061,-0.031
0.054,-0.033
0.045,-0.029
0.043,-0.029
0.042,-0.030
0.043,-0.031
0.040,-0.035
0.039,-0.036
0.042,-0.035
0.041,-0.040
0.039,-0.035
0.038,-0.037
0.036,-0.034
0.037,-0.034
0.039,-0.034
0.037,-0.033
0.039,-0.032
0.041,-0.035
0.040,-0.033
0.038,-0.030
0.035,-0.032
0.033,-0.028
0.033,-0.028
0.032,-0.026
0.030,-0.026
0.032,-0.022
0.033,-0.024
0.036,-0.024
0.034,-0.023
0.037,-0.020
0.038,-0.020
0.037,-0.016
0.037,-0.016
0.036,-0.019
0.034,-0.015
0.037,-0.015
0.034,-0.014
0.034,-0.016
0.037,-0.013
0.038,-0.015
0.038,-0.011
0.038,-0.010
0.036,-0.010
0.037,-0.008
0.038,-0.009
0.033,-0.008
0.037,-0.008
0.035,-0.006
0.035,-0.006
0.036,-0.002
0.037,-0.000
0.038,-0.002
0.036,-0.000
0.038,0.002
0.037,0.001
0.036,0.004
0.036,0.005
0.036,0.006
0.036,0.009
0.036,0.010
0.035,0.010
0.037,0.013
0.035,0.010
0.037,0.018
0.036,0.018
0.038,0.016
0.037,0.020
0.039,0.019
0.036,0.020
0.038,0.019
0.037,0.022
0.038,0.024
0.037,0.025
0.037,0.028
0.036,0.030
0.038,0.029
0.035,0.029
0.034,0.029
0.037,0.032
0.037,0.033
0.040,0.033
0.040,0.031
0.039,0.033
0.040,0.032
0.039,0.032
0.038,0.036
0.039,0.033
0.036,0.039
0.036,0.037
0.032,0.038
0.034,0.037
0.038,0.039
0.038,0.039
0.038,0.038
0.040,0.041
0.039,0.039
0.039,0.042
0.040,0.039
0.041,0.040
0.038,0.040
0.038,0.040
0.038,0.042
0.039,0.042
0.039,0.041
0.038,0.044
0.040,0.045
0.038,0.045
0.039,0.047
0.037,0.046
0.039,0.044
0.037,0.045
0.041,0.044
0.040,0.041
0.042,0.042
0.042,0.039
0.038,0.041
0.039,0.041
0.041,0.038
0.036,0.040
0.039,0.037
0.041,0.041
0.040,0.036
0.045,0.036
0.044,0.034
0.045,0.033
0.043,0.036
0.045,0.035
0.041,0.036
0.045,0.034
0.040,0.035
0.042,0.031
0.043,0.028
0.043,0.028
0.045,0.026
0.047,0.028
0.047,0.028
0.047,0.029
0.047,0.024
0.046,0.028
0.044,0.023
0.048,0.025
0.044,0.023
0.046,0.023
0.045,0.021
0.046,0.019
0.047,0.019
0.043,0.019
0.048,0.019
0.043,0.017
0.044,0.015
0.043,0.013
0.046,0.010
0.047,0.010
0.046,0.010
0.048,0.008
0.046,0.000
0.047,-0.002
0.048,0.001
0.046,-0.002
0.049,0.002
0.048,-0.002
0.048,0.000
0.048,-0.002
0.047,0.003
0.047,0.002
0.051,0.003
0.047,0.002
0.051,0.000
0.048,0.001
0.050,-0.001
0.048,0.004
0.049,0.001
0.051,0.001
0.050,-0.004
0.050,-0.004
0.048,-0.006
0.051,-0.006
0.051,-0.006
0.051,-0.006
0.051,-0.006
0.050,-0.003
0.048,-0.003
0.050,-0.002
0.051,-0.003
0.051,-0.003
0.049,-0.004
0.049,-0.007
0.045,-0.005
0.049,-0.006
0.049,-0.004
0.048,-0.003
0.050,-0.002
0.046,-0.002
0.048,-0.003
0.047,-0.001
0.049,-0.001
0.050,-0.001
0.051,-0.002
0.052,-0.003
0.049,-0.001
0.049,-0.001
0.045,0.002
0.048,0.001
0.045,0.004
0.045,0.003
0.047,0.008
0.043,0.004
0.049,0.008
0.044,0.006
0.049,0.007
0.048,0.008
0.048,0.009
0.046,0.012
0.047,0.009
0.045,0.012
0.044,0.009
0.046,0.012
0.046,0.012
0.048,0.011
0.045,0.012
0.049,0.012
0.045,0.010
0.047,0.015
0.043,0.014
0.044,0.013
0.044,0.016
0.045,0.018
0.046,0.019
0.045,0.020
0.046,0.022
0.046,0.024
0.047,0.024
0.049,0.024
0.046,0.029
0.049,0.026
0.048,0.028
0.047,0.027
0.047,0.031
0.044,0.027
0.045,0.028
0.043,0.030
0.045,0.032
0.045,0.031
0.047,0.034
0.046,0.034
0.049,0.031
0.049,0.033
0.050,0.034
0.047,0.036
0.045,0.033
0.046,0.036
0.048,0.035
0.043,0.037
0.045,0.037
0.045,0.036
0.043,0.037
0.044,0.038
0.045,0.038
0.045,0.038
0.046,0.041
0.044,0.039
0.046,0.040
0.044,0.040
0.045,0.041
0.044,0.040
0.044,0.039
0.044,0.037
0.046,0.039
0.045,0.036
0.043,0.036
0.047,0.039
0.047,0.041
0.045,0.042
0.045,0.039
0.043,0.043
0.041,0.040
0.045,0.041
0.045,0.039
0.046,0.039
0.046,0.038
0.045,0.036
0.045,0.039
0.048,0.036
0.044,0.038
0.046,0.036
0.047,0.037
0.046,0.034
0.047,0.035
0.047,0.031
0.049,0.033
0.047,0.032
0.048,0.030
0.044,0.035
0.047,0.032
0.046,0.034
0.049,0.031
0.052,0.029
0.050,0.026
0.048,0.026
0.046,0.029
0.047,0.024
0.048,0.027
0.047,0.025
0.046,0.026
0.046,0.022
0.047,0.026
0.047,0.022
0.047,0.022
0.046,0.021
0.049,0.017
0.047,0.016
0.050,0.013
0.047,0.010
0.050,0.010
0.048,0.011
0.049,0.009
0.049,0.006
0.049,0.007
0.046,0.004
0.048,0.007
0.049,0.005
0.050,0.005
0.049,0.003
0.048,0.004
0.046,0.003
0.047,0.002
0.043,0.004
0.044,0.000
0.045,0.002
0.043,0.000
0.048,0.000
0.048,0.000
0.047,0.001
0.045,0.001
0.049,-0.001
0.047,0.000
0.049,-0.004
0.046,0.000
0.047,-0.002
0.047,-0.002
0.047,-0.004
0.047,-0.003
0.046,-0.011
0.046,-0.007
0.045,-0.006
0.046,-0.006
0.045,-0.003
0.047,-0.004
0.041,-0.002
0.044,-0.003
0.044,-0.002
0.044,-0.003
0.047,-0.002
0.045,-0.005
0.045,-0.004
0.043,-0.003
0.043,-0.003
0.043,0.001
0.039,-0.004
0.042,-0.004
0.042,-0.002
0.042,-0.003
0.042,-0.001
0.043,-0.000
0.043,0.005
0.040,0.004
0.042,0.009
0.041,0.005
0.041,0.008
0.040,0.004
0.043,0.006
0.043,0.004
0.047,0.006
0.043,0.005
0.045,0.008
0.043,0.009
0.045,0.006
0.043,0.010
0.045,0.009
0.042,0.011
0.042,0.010
0.043,0.014
0.042,0.013
0.043,0.014
0.044,0.011
0.044,0.012
0.043,0.013
0.045,0.015
0.044,0.014
0.042,0.016
0.043,0.016
0.042,0.017
0.041,0.018
0.039,0.021
0.041,0.020
0.041,0.023
0.039,0.023
0.041,0.026
0.039,0.025
0.042,0.026
0.041,0.029
0.043,0.031
0.043,0.029
0.045,0.028
0.043,0.031
0.041,0.030
0.041,0.036
0.041,0.033
0.040,0.037
0.040,0.037
0.038,0.036
0.039,0.037
0.045,0.037
0.045,0.039
0.043,0.037
0.044,0.038
0.044,0.038
0.042,0.039
0.038,0.038
0.041,0.039
0.037,0.041
0.039,0.041
0.038,0.040
0.041,0.041
0.040,0.041
0.041,0.040
0.041,0.042
0.042,0.042
0.041,0.043
0.041,0.043
0.041,0.044
0.041,0.040
0.044,0.043
0.038,0.041
0.042,0.044
0.042,0.041
0.041,0.041
0.040,0.044
0.040,0.043
0.040,0.045
0.039,0.045
0.038,0.043
0.041,0.041
0.041,0.043
0.043,0.041
0.043,0.042
0.046,0.039
0.042,0.040
0.044,0.040
0.042,0.040
0.041,0.040
0.043,0.040
0.040,0.037
0.045,0.036
0.044,0.034
0.048,0.033
0.048,0.032
0.048,0.031
0.045,0.027
0.045,0.033
0.048,0.031
0.047,0.035
0.045,0.030
0.048,0.029
0.046,0.025
0.048,0.024
0.045,0.027
0.047,0.025
0.046,0.030
0.046,0.025
0.045,0.029
0.045,0.024
0.045,0.027
0.046,0.023
0.047,0.023
0.047,0.022
0.047,0.022
0.048,0.021
0.049,0.018
0.049,0.014
0.047,0.013
0.046,0.012
0.047,0.011
0.045,0.010
0.048,0.010
0.049,0.007
0.050,0.008
0.050,0.005
0.051,0.009
0.050,0.004
0.049,0.005
0.048,0.002
0.049,0.002
0.045,0.002
0.047,0.001
0.045,0.002
0.045,-0.002
0.048,-0.001
0.046,-0.004
0.048,-0.003
0.043,-0.001
0.047,-0.002
0.043,0.002
0.047,-0.002
0.045,0.001
0.048,-0.001
0.047,-0.003
0.046,-0.004
0.051,-0.005
0.048,-0.009
0.049,-0.009
0.047,-0.005
0.046,-0.008
0.044,-0.002
0.043,-0.006
0.046,-0.002
0.043,-0.005
0.048,-0.003
0.044,-0.005
0.047,-0.007
0.045,-0.005
0.045,-0.006
0.042,-0.003
0.046,-0.005
0.043,-0.003
0.043,-0.004
0.043,-0.003
0.043,-0.003
0.047,0.000
0.044,-0.001
0.047,-0.002
0.043,0.004
0.044,-0.000
0.042,0.005
0.044,0.001
0.039,0.006
0.043,0.007
0.041,0.004
0.041,0.006
0.045,0.005
0.046,0.006
0.047,0.006
0.048,0.008
0.046,0.008
0.045,0.011
0.043,0.011
0.041,0.010
0.042,0.012
0.041,0.008
0.042,0.010
0.044,0.012
0.043,0.010
0.041,0.010
0.041,0.012
0.040,0.011
0.041,0.012
0.040,0.014
0.041,0.017
0.041,0.017
0.039,0.016
0.040,0.019
0.039,0.022
0.041,0.023
0.041,0.025
0.043,0.025
0.042,0.027
0.043,0.025
0.041,0.027
0.041,0.025
0.041,0.029
0.039,0.029
0.038,0.033
0.036,0.030
0.040,0.033
0.037,0.033
0.040,0.033
0.037,0.033
0.041,0.036
0.038,0.036
0.041,0.036
0.042,0.036
0.042,0.036
0.042,0.037
0.040,0.036
0.041,0.036
0.039,0.038
0.042,0.040
0.040,0.038
0.041,0.037
0.039,0.037
0.041,0.038
0.041,0.036
0.043,0.039
0.040,0.041
0.043,0.042
0.040,0.043
0.043,0.044
0.040,0.046
0.041,0.043
0.043,0.043
0.040,0.042
0.041,0.043
0.040,0.041
0.043,0.044
0.042,0.046
0.041,0.045
0.037,0.047
0.040,0.047
0.039,0.048
0.042,0.045
0.044,0.046
0.047,0.039
0.047,0.039
0.046,0.039
0.047,0.039
0.046,0.039
0.045,0.036
0.045,0.040
0.046,0.036
0.047,0.039
0.044,0.036
0.049,0.036
0.045,0.034
0.049,0.034
0.045,0.033
0.048,0.032
0.042,0.035
0.046,0.031
0.044,0.032
0.047,0.029
0.048,0.031
0.045,0.025
0.048,0.030
0.044,0.028
0.047,0.026
0.042,0.025
0.047,0.021
0.045,0.023
0.044,0.021
0.044,0.024
0.047,0.023
0.045,0.022
0.046,0.021
0.045,0.018
0.047,0.016
0.045,0.015
0.048,0.013
0.046,0.015
0.049,0.012
0.046,0.014
0.047,0.012
0.047,0.013
0.045,0.009
0.047,0.010
0.047,0.008
0.050,0.008
0.046,0.005
0.050,0.003
0.046,0.001
0.047,0.002
0.046,-0.000
0.045,0.000
0.043,0.001
0.046,0.001
0.040,0.004
0.042,0.002
0.043,0.005
0.044,0.004
0.045,0.003
0.044,0.002
0.045,0.000
0.048,0.000
0.046,-0.002
0.047,0.000
0.045,-0.004
0.046,-0.004
0.044,-0.005
0.048,-0.005
0.048,-0.005
0.047,-0.007
0.047,-0.002
0.046,-0.004
0.046,-0.003
0.045,-0.004
0.046,-0.002
0.043,-0.006
0.047,-0.003
0.045,-0.006
0.047,-0.005
0.044,-0.005
0.043,-0.004
0.044,-0.003
0.046,0.002
0.042,-0.000
0.043,0.000
0.043,0.000
0.044,-0.001
0.043,0.002
0.042,-0.000
0.044,0.001
0.044,0.002
0.042,0.002
0.043,0.004
0.042,0.002
0.043,0.006
0.041,0.006
0.042,0.004
0.041,0.007
0.044,0.010
0.043,0.007
0.043,0.007
0.041,0.010
0.040,0.010
0.040,0.013
0.040,0.013
0.041,0.015
0.039,0.012
0.038,0.017
0.039,0.013
0.043,0.017
0.042,0.016
0.042,0.017
0.040,0.018
0.044,0.018
0.040,0.016
0.043,0.019
0.039,0.018
0.042,0.022
0.036,0.023
0.042,0.025
0.039,0.026
0.040,0.027
0.040,0.028
0.042,0.029
0.040,0.028
0.041,0.031
0.044,0.033
0.043,0.032
0.043,0.035
0.043,0.035
0.040,0.036
0.039,0.034
0.038,0.036
0.039,0.037
0.042,0.038
0.041,0.035
0.043,0.037
0.041,0.034
0.043,0.038
0.039,0.036
0.041,0.036
0.040,0.038
0.039,0.036
0.036,0.041
0.040,0.039
0.037,0.041
0.038,0.039
0.039,0.043
0.040,0.039
0.043,0.042
0.040,0.042
0.042,0.043
0.039,0.044
0.039,0.042
0.036,0.046
0.038,0.041
0.038,0.042
0.038,0.041
0.039,0.043
0.038,0.045
0.043,0.045
0.042,0.041
0.042,0.042
0.045,0.044
0.043,0.044
0.042,0.048
0.042,0.044
0.041,0.046
0.040,0.044
0.042,0.043
0.041,0.042
0.044,0.042
0.042,0.041
0.043,0.039
0.042,0.043
0.040,0.039
0.041,0.043
0.039,0.042
0.041,0.041
0.038,0.039
0.043,0.038
0.040,0.036
0.047,0.038
0.044,0.036
0.044,0.036
0.043,0.035
0.047,0.031
0.041,0.032
0.044,0.029
0.043,0.029
0.043,0.030
0.047,0.028
0.046,0.025
0.047,0.023
0.045,0.023
0.044,0.024
0.045,0.025
0.044,0.024
0.044,0.022
0.044,0.020
0.047,0.017
0.048,0.016
0.046,0.017
0.048,0.011
0.047,0.013
0.045,0.010
0.044,0.012
0.047,0.010
0.047,0.012
0.046,0.013
0.045,0.014
0.046,0.011
0.047,0.010
0.045,0.008
0.047,0.008
0.048,0.007
0.046,0.005
0.049,0.004
0.048,0.003
0.049,0.002
0.049,0.001
0.047,0.002
0.043,0.004
0.044,0.001
0.041,0.002
0.046,0.001
0.045,-0.000
0.047,-0.004
0.049,-0.001
0.047,-0.005
0.049,-0.001
0.047,-0.003
0.045,-0.004
0.045,-0.002
0.045,-0.003
0.043,-0.004
0.047,-0.002
0.044,-0.004
0.045,-0.004
0.044,-0.002
0.044,-0.001
0.043,0.001
0.043,-0.001
0.041,-0.002
0.043,-0.004
0.044,-0.003
0.047,-0.003
0.045,0.000
0.044,0.001
0.045,0.001
0.041,0.000
0.045,0.000
0.041,0.003
0.044,0.000
0.041,0.003
0.039,0.004
0.043,0.006
0.043,0.003
0.042,0.006
0.043,0.006
0.043,0.004
0.041,0.010
0.042,0.008
0.041,0.010
0.042,0.009
0.042,0.010
0.042,0.009
0.046,0.010
0.045,0.010
0.046,0.013
0.044,0.015
0.045,0.012
0.042,0.017
0.041,0.015
0.039,0.017
0.041,0.015
0.042,0.019
0.042,0.019
0.043,0.019
0.038,0.018
0.041,0.018
0.040,0.020
0.041,0.022
0.041,0.024
0.040,0.027
0.040,0.026
0.042,0.030
0.040,0.027
0.045,0.030
0.039,0.028
0.044,0.031
0.041,0.030
0.039,0.030
0.038,0.031
0.041,0.032
0.040,0.032
0.039,0.033
0.039,0.033
0.039,0.031
0.039,0.034
0.041,0.035
0.040,0.038
0.040,0.037
0.039,0.037
0.039,0.037
0.041,0.037
0.040,0.037
0.045,0.039
0.045,0.036
0.044,0.038
0.042,0.038
0.042,0.038
0.039,0.042
0.039,0.042
0.037,0.044
0.040,0.042
0.041,0.045
0.042,0.042
0.042,0.044
0.042,0.040
0.041,0.043
0.041,0.041
0.042,0.040
0.038,0.041
0.040,0.043
0.039,0.043
0.038,0.041
0.039,0.043
0.041,0.043
0.042,0.045
0.044,0.044
0.042,0.043
0.045,0.043
0.044,0.042
0.042,0.043
0.044,0.044
0.044,0.043
0.041,0.041
0.047,0.043
0.045,0.040
0.047,0.038
0.047,0.039
0.045,0.037
0.044,0.042
0.044,0.040
0.044,0.038
0.047,0.035
0.047,0.035
0.044,0.032
0.048,0.031
0.044,0.033
0.045,0.032
0.044,0.033
0.047,0.031
0.042,0.034
0.044,0.031
0.043,0.029
0.044,0.028
0.048,0.027
0.047,0.024
0.049,0.023
0.049,0.023
0.048,0.019
0.049,0.022
0.047,0.020
0.047,0.020
0.046,0.019
0.047,0.020
0.046,0.015
0.045,0.017
0.047,0.012
0.047,0.010
0.048,0.011
0.045,0.013
0.046,0.009
0.044,0.012
0.047,0.012
0.045,0.010
0.047,0.011
0.045,0.008
0.045,0.006
0.046,0.006
0.047,0.002
0.046,0.005
0.047,0.004
0.045,0.003
0.046,0.004
0.044,0.005
0.043,0.002
0.043,0.003
0.043,0.005
0.045,0.003
0.044,0.002
0.046,0.000
0.046,-0.001
0.050,-0.001
0.047,-0.003
0.048,-0.002
0.045,-0.004
0.046,-0.005
0.042,-0.007
0.049,-0.005
0.044,-0.009
0.047,-0.005
0.048,-0.004
0.045,-0.003
0.043,-0.001
0.047,-0.001
0.046,0.000
0.044,-0.003
0.043,-0.003
0.044,-0.003
0.045,-0.002
0.044,-0.005
0.047,-0.001
0.049,-0.001
0.047,-0.002
0.045,0.002
0.043,0.001
0.042,0.001
0.041,0.002
0.041,0.000
0.043,0.000
0.043,0.004
0.042,0.000
0.042,0.000
0.043,0.006
0.042,0.004
0.041,0.007
0.040,0.006
0.042,0.007
0.039,0.005
0.041,0.008
0.041,0.008
0.043,0.009
0.041,0.004
0.042,0.008
0.039,0.008
0.042,0.009
0.041,0.014
0.043,0.011
0.041,0.012
0.043,0.016
0.040,0.016
0.042,0.013
0.041,0.017
0.039,0.013
0.039,0.016
0.038,0.015
0.040,0.020
0.038,0.023
0.038,0.025
0.038,0.024
0.041,0.025
0.039,0.028
0.042,0.030
0.038,0.027
0.040,0.031
0.040,0.030
0.042,0.032
0.040,0.028
0.043,0.032
0.043,0.032
0.042,0.033
0.041,0.036
0.043,0.036
0.039,0.035
0.043,0.035
0.041,0.037
0.042,0.033
0.039,0.036
0.042,0.035
0.043,0.037
0.043,0.035
0.044,0.036
0.041,0.036
0.043,0.037
0.041,0.041
0.043,0.040
0.040,0.043
0.042,0.042
0.040,0.044
0.042,0.045
0.045,0.047
0.044,0.042
0.046,0.044
0.046,0.044
0.044,0.040
0.042,0.044
0.042,0.041
0.040,0.044
0.039,0.042
0.040,0.045
0.040,0.043
0.044,0.045
0.039,0.046
0.042,0.044
0.039,0.046
0.043,0.043
0.041,0.047
0.044,0.046
0.043,0.046
0.041,0.044
0.046,0.042
0.046,0.042
0.046,0.040
0.047,0.040
0.046,0.042
0.044,0.042
0.045,0.040
0.041,0.041
0.043,0.040
0.043,0.038
0.044,0.036
0.045,0.035
0.047,0.035
0.042,0.035
0.045,0.036
0.045,0.035
0.045,0.036
0.044,0.033
0.048,0.030
0.046,0.029
0.049,0.027
0.047,0.029
0.047,0.029
0.047,0.027
0.047,0.024
0.047,0.026
0.046,0.026
0.049,0.024
0.047,0.023
0.045,0.021
0.048,0.020
0.047,0.018
0.048,0.018
0.048,0.018
0.046,0.016
0.049,0.016
0.046,0.013
0.046,0.016
0.046,0.009
0.048,0.010
0.046,0.008
0.047,0.011
0.047,0.009
0.049,0.009
0.046,0.007
0.051,0.006
0.048,0.000
0.049,0.004
0.049,0.006
0.044,0.002
0.044,0.006
0.044,0.004
0.044,0.006
0.043,0.004
0.046,0.002
0.045,0.003
0.046,0.002
0.046,0.000
0.049,0.001
0.048,0.001
0.045,-0.001
0.042,-0.001
0.042,-0.002
0.043,-0.003
0.043,-0.004
0.045,-0.002
0.045,-0.003
0.044,-0.005
0.044,-0.002
0.043,-0.001
0.041,-0.001
0.042,0.000
0.042,-0.000
0.043,0.001
0.044,0.001
0.043,-0.000
0.045,-0.002
0.042,-0.001
0.042,-0.003
0.040,0.000
0.038,-0.001
0.038,0.002
0.037,0.003
0.041,0.006
0.039,0.006
0.043,0.006
0.040,0.003
0.041,0.007
0.042,0.006
0.043,0.006
0.041,0.007
0.044,0.009
0.039,0.010
0.042,0.010
0.044,0.014
0.042,0.007
0.042,0.011
0.040,0.012
0.041,0.012
0.040,0.015
0.041,0.016
0.039,0.017
0.041,0.011
0.041,0.015
0.041,0.016
0.041,0.015
0.040,0.015
0.040,0.016
0.041,0.016
0.040,0.016
0.039,0.016
0.041,0.019
0.040,0.018
0.039,0.020
0.040,0.023
0.039,0.023
0.040,0.025
0.039,0.029
0.039,0.027
0.041,0.030
0.044,0.030
0.042,0.032
0.041,0.029
0.041,0.031
0.039,0.034
0.042,0.034
0.041,0.036
0.041,0.034
0.040,0.039
0.041,0.040
0.039,0.040
0.038,0.040
0.036,0.040
0.037,0.040
0.038,0.039
0.040,0.040
0.040,0.039
0.040,0.042
0.040,0.039
0.040,0.042
0.038,0.042
0.038,0.041
0.034,0.042
0.036,0.041
0.035,0.041
0.038,0.043
0.036,0.044
0.039,0.045
0.039,0.048
0.039,0.045
0.040,0.048
0.039,0.046
0.038,0.047
0.039,0.042
0.042,0.044
0.039,0.042
0.039,0.042
0.039,0.043
0.043,0.044
0.040,0.048
0.039,0.047
0.038,0.045
0.040,0.046
0.041,0.045
0.041,0.044
0.042,0.045
0.042,0.045
0.041,0.046
0.042,0.045
0.040,0.043
0.041,0.044
0.038,0.042
0.039,0.042
0.043,0.038
0.043,0.040
0.043,0.038
0.042,0.038
0.043,0.038
0.043,0.035
0.042,0.037
0.043,0.036
0.041,0.038
0.044,0.035
0.046,0.036
0.041,0.031
0.043,0.031
0.045,0.029
0.046,0.028
0.043,0.026
0.044,0.024
0.043,0.027
0.042,0.025
0.044,0.026
0.045,0.023
0.046,0.024
0.044,0.023
0.045,0.022
0.045,0.017
0.044,0.020
0.045,0.017
0.046,0.017
0.047,0.015
0.045,0.015
0.043,0.012
0.047,0.014
0.043,0.014
0.044,0.014
0.044,0.013
0.046,0.012
0.043,0.011
0.046,0.010
0.046,0.009
0.048,0.005
0.048,0.007
0.049,0.006
0.047,0.005
0.047,0.004
0.047,0.005
0.046,0.003
0.047,0.006
0.046,0.002
0.047,0.003
0.047,0.004
0.049,0.003
0.047,0.005
0.049,0.003
0.048,0.002
0.049,0.001
0.046,0.001
0.048,-0.003
0.048,0.002
0.046,-0.001
0.047,-0.002
0.045,-0.000
0.047,-0.002
0.041,0.001
0.044,0.001
0.042,0.001
0.047,-0.002
0.046,-0.001
0.046,-0.004
0.047,-0.002
0.046,-0.003
0.044,-0.003
0.046,0.000
0.046,-0.001
0.043,0.006
0.042,0.004
0.043,0.005
0.041,0.005
0.042,0.006
0.041,0.003
0.046,0.007
0.042,0.006
0.044,0.006
0.040,0.009
0.043,0.007
0.041,0.010
0.041,0.009
0.041,0.012
0.042,0.010
0.045,0.012
0.043,0.009
0.043,0.008
0.042,0.011
0.043,0.010
0.040,0.016
0.040,0.013
0.040,0.015
0.041,0.016
0.041,0.015
0.040,0.016
0.043,0.014
0.042,0.015
0.044,0.017
0.044,0.016
0.045,0.017
0.047,0.017
0.044,0.017
0.043,0.018
0.040,0.022
0.040,0.020
0.039,0.024
0.040,0.022
0.039,0.027
0.043,0.027
0.044,0.030
0.040,0.028
0.043,0.030
0.041,0.031
0.045,0.033
0.041,0.034
0.043,0.032
0.042,0.033
0.042,0.035
0.038,0.037
0.040,0.036
0.038,0.039
0.038,0.038
0.042,0.039
0.043,0.039
0.040,0.038
0.038,0.037
0.039,0.035
0.039,0.038
0.039,0.038
0.038,0.042
0.036,0.039
0.039,0.039
0.039,0.041
0.038,0.041
0.037,0.038
0.039,0.041
0.039,0.041
0.039,0.041
0.040,0.043
0.040,0.042
0.037,0.044
0.039,0.042
0.041,0.041
0.039,0.037
0.039,0.040
0.038,0.039
0.040,0.042
0.036,0.043
0.035,0.043
0.038,0.047
0.038,0.044
0.037,0.048
0.040,0.044
0.041,0.046
0.038,0.045
0.043,0.044
0.041,0.040
0.044,0.039
0.043,0.040
0.042,0.039
0.040,0.040
0.042,0.041
0.041,0.041
0.041,0.037
0.042,0.038
0.042,0.035
0.041,0.036
0.043,0.037
0.043,0.036
0.042,0.035
0.042,0.035
0.041,0.036
0.041,0.031
0.042,0.032
0.041,0.031
0.046,0.029
0.044,0.028
0.046,0.025
0.045,0.027
0.042,0.026
0.043,0.028
0.042,0.026
0.043,0.026
0.042,0.024
0.044,0.024
0.045,0.021
0.044,0.023
0.046,0.020
0.046,0.021
0.044,0.017
0.043,0.019
0.044,0.015
0.043,0.015
0.043,0.015
0.043,0.015
0.042,0.010
0.042,0.011
0.041,0.011
0.043,0.009
0.042,0.009
0.043,0.010
0.043,0.010
0.043,0.008
0.047,0.007
0.046,0.008
0.043,0.007
0.041,0.004
0.044,0.005
0.043,0.003
0.043,0.003
0.043,0.002
0.047,0.003
0.045,-0.001
0.045,0.000
0.045,-0.001
0.048,-0.000
0.047,-0.002
0.049,-0.002
0.045,-0.001
0.046,-0.004
0.043,-0.002
0.046,-0.006
0.047,-0.003
0.045,-0.003
0.045,-0.003
0.041,-0.000
0.041,-0.001
0.043,0.001
0.042,-0.001
0.045,-0.002
0.044,-0.004
0.048,-0.003
0.042,-0.002
0.044,-0.002
0.041,0.003
0.041,-0.001
0.040,0.004
0.038,0.001
0.038,0.004
0.038,0.004
0.041,0.005
0.038,0.003
0.041,0.004
0.037,0.004
0.040,0.004
0.042,0.010
0.039,0.007
0.040,0.008
0.038,0.007
0.039,0.007
0.039,0.009
0.041,0.010
0.040,0.009
0.042,0.010
0.040,0.012
0.040,0.013
0.041,0.014
0.040,0.015
0.038,0.016
0.040,0.018
0.039,0.016
0.038,0.017
0.040,0.021
0.038,0.018
0.039,0.018
0.040,0.017
0.043,0.019
0.039,0.015
0.040,0.022
0.037,0.019
0.039,0.024
0.040,0.023
0.041,0.026
0.039,0.027
0.040,0.030
0.039,0.029
0.038,0.032
0.038,0.030
0.039,0.029
0.041,0.031
0.039,0.032
0.037,0.033
0.037,0.034
0.033,0.037
0.038,0.036
0.037,0.041
0.039,0.036
0.037,0.038
0.036,0.036
0.038,0.038
0.036,0.033
0.038,0.036
0.039,0.037
0.040,0.037
0.038,0.042
0.039,0.039
0.036,0.042
0.036,0.037
0.036,0.039
0.036,0.041
0.038,0.042
0.037,0.042
0.038,0.043
0.039,0.045
0.040,0.042
0.039,0.048
0.040,0.043
0.039,0.049
0.039,0.043
0.042,0.045
0.039,0.043
0.042,0.044
0.039,0.043
0.040,0.044
0.038,0.047
0.040,0.043
0.040,0.047
0.037,0.047
0.038,0.047
0.038,0.047
0.040,0.045
0.039,0.045
0.040,0.045
0.040,0.042
0.039,0.042
0.039,0.041
0.041,0.043
0.039,0.042
0.043,0.040
0.041,0.040
0.042,0.041
0.043,0.041
0.043,0.036
0.043,0.038
0.044,0.036
0.043,0.037
0.041,0.039
0.041,0.033
0.039,0.036
0.045,0.033
0.043,0.034
0.043,0.030
0.044,0.029
0.044,0.027
0.045,0.030
0.045,0.028
0.041,0.025
0.041,0.028
0.042,0.025
0.039,0.027
0.042,0.021
0.042,0.023
0.040,0.021
0.043,0.020
0.041,0.017
0.043,0.016
0.045,0.016
0.040,0.016
0.041,0.014
0.042,0.013
0.041,0.013
0.041,0.015
0.044,0.011
0.043,0.010
0.045,0.008
0.045,0.010
0.045,0.007
0.046,0.007
0.044,0.009
0.045,0.004
0.043,0.008
0.043,0.002
0.041,0.006
0.043,0.006
0.045,0.006
0.042,0.000
0.045,0.002
0.044,0.003
0.047,0.000
0.044,0.003
0.046,0.001
0.043,0.003
0.046,0.001
0.045,0.004
0.043,-0.002
0.048,0.002
0.044,-0.003
0.047,-0.003
0.042,-0.003
0.045,-0.003
0.041,-0.003
0.044,-0.002
0.040,0.002
0.043,0.000
0.042,0.001
0.043,-0.002
0.045,-0.002
0.044,-0.003
0.045,-0.003
0.046,0.000
0.045,-0.003
0.043,0.000
0.043,-0.001
0.043,0.001
0.040,-0.001
0.045,0.003
0.044,0.002
0.044,0.003
0.042,0.006
0.042,0.003
0.042,0.008
0.042,0.006
0.041,0.006
0.040,0.007
0.044,0.008
0.042,0.006
0.046,0.008
0.043,0.009
0.041,0.009
0.041,0.012
0.043,0.011
0.043,0.016
0.042,0.015
0.042,0.015
0.041,0.015
0.043,0.015
0.043,0.014
0.046,0.014
0.041,0.016
0.044,0.015
0.044,0.018
0.044,0.019
0.042,0.017
0.041,0.017
0.042,0.019
0.040,0.018
0.041,0.020
0.041,0.022
0.039,0.024
0.041,0.025
0.039,0.028
0.040,0.028
0.038,0.031
0.043,0.030
0.044,0.033
0.044,0.030
0.041,0.034
0.043,0.032
0.040,0.034
0.039,0.034
0.037,0.034
0.038,0.036
0.040,0.036
0.041,0.036
0.043,0.036
0.043,0.037
0.041,0.036
0.044,0.037
0.042,0.039
0.042,0.039
0.039,0.038
0.038,0.039
0.040,0.039
0.038,0.039
0.039,0.038
0.039,0.038
0.041,0.041
0.037,0.040
0.041,0.046
0.041,0.044
0.039,0.047
0.039,0.044
0.039,0.047
0.042,0.044
0.042,0.043
0.042,0.040
0.044,0.043
0.040,0.040
0.042,0.044
0.042,0.044
0.043,0.042
0.040,0.047
0.042,0.045
0.041,0.047
0.042,0.043
0.044,0.048
0.042,0.044
0.045,0.044
0.040,0.046
0.046,0.044
0.041,0.048
0.043,0.043
0.041,0.044
0.043,0.043
0.044,0.043
0.043,0.040
0.047,0.041
0.044,0.041
0.044,0.038
0.046,0.039
0.045,0.037
0.044,0.039
0.044,0.039
0.045,0.037
0.044,0.033
0.047,0.034
0.047,0.032
0.045,0.031
0.047,0.033
0.045,0.032
0.046,0.033
0.046,0.031
0.043,0.031
0.047,0.028
0.044,0.027
0.045,0.028
0.046,0.027
0.044,0.024
0.049,0.024
0.050,0.019
0.051,0.018
0.048,0.015
0.050,0.017
0.047,0.013
0.051,0.015
0.049,0.010
0.049,0.013
0.047,0.011
0.049,0.010
0.048,0.011
0.049,0.010
0.048,0.011
0.050,0.011
0.047,0.012
0.048,0.006
0.047,0.008
0.046,0.006
0.047,0.003
0.043,0.004
0.047,0.002
0.045,0.002
0.047,0.000
0.046,-0.001
0.046,-0.000
0.046,0.003
0.047,0.004
0.045,0.005
0.049,0.001
0.049,0.001
0.051,-0.003
0.049,-0.002
0.051,-0.004
0.050,-0.003
0.050,-0.003
0.047,-0.003
0.046,-0.001
0.049,-0.001
0.046,-0.001
0.047,-0.003
0.049,-0.003
0.049,-0.005
0.048,-0.003
0.048,-0.003
0.049,-0.006
0.046,-0.001
0.045,-0.003
0.044,0.000
0.045,-0.001
0.048,0.001
0.046,-0.003
0.046,-0.001
0.046,-0.002
0.047,-0.000
0.045,0.001
0.045,-0.000
0.042,0.003
0.047,0.001
0.045,0.005
0.044,0.002
0.046,0.005
0.043,0.001
0.046,0.004
0.043,0.005
0.045,0.006
0.046,0.010
0.048,0.009
0.042,0.012
0.043,0.010
0.045,0.010
0.043,0.012
0.042,0.012
0.043,0.011
0.044,0.013
0.046,0.013
0.045,0.012
0.045,0.016
0.044,0.013
0.045,0.015
0.044,0.018
0.042,0.017
0.045,0.018
0.043,0.022
0.042,0.020
0.043,0.023
0.044,0.024
0.038,0.026
0.042,0.023
0.041,0.028
0.043,0.027
0.041,0.031
0.044,0.030
0.039,0.034
0.042,0.032
0.043,0.031
0.040,0.032
0.042,0.034
0.041,0.037
0.042,0.038
0.042,0.035
0.042,0.036
0.042,0.038
0.043,0.036
0.043,0.036
0.042,0.037
0.041,0.040
0.042,0.037
0.039,0.043
0.039,0.038
0.041,0.041
0.042,0.037
0.041,0.038
0.041,0.037
0.043,0.039
0.041,0.044
0.041,0.041
0.039,0.048
0.042,0.045
0.040,0.045
0.040,0.042
0.045,0.041
0.041,0.042
0.045,0.041
0.044,0.041
0.044,0.038
0.043,0.044
0.043,0.040
0.041,0.045
0.040,0.046
0.043,0.046
0.042,0.044
0.045,0.046
0.043,0.045
0.047,0.045
0.045,0.047
0.045,0.045
0.044,0.046
0.046,0.045
0.043,0.044
0.044,0.044
0.044,0.042
0.043,0.041
0.046,0.042
0.046,0.041
0.044,0.036
0.046,0.038
0.044,0.036
0.043,0.038
0.041,0.037
0.043,0.039
0.042,0.036
0.046,0.036
0.045,0.033
0.047,0.032
0.047,0.032
0.045,0.029
0.047,0.031
0.044,0.030
0.042,0.028
0.043,0.027
0.044,0.029
0.043,0.027
0.047,0.028
0.046,0.030
0.049,0.028
0.049,0.022
0.050,0.023
0.048,0.017
0.053,0.017
0.051,0.013
0.053,0.014
0.051,0.011
0.052,0.012
0.050,0.011
0.049,0.010
0.049,0.010
0.050,0.009
0.049,0.008
0.050,0.009
0.052,0.006
0.049,0.007
0.051,0.008
0.049,0.004
0.050,0.004
0.049,0.002
0.049,0.004
0.048,0.002
0.050,0.000
0.049,0.000
0.049,0.001
0.049,0.002
0.049,0.003
0.046,0.005
0.049,0.003
0.046,0.001
0.046,-0.000
0.050,-0.003
0.051,-0.006
0.048,-0.005
0.052,-0.005
0.049,-0.005
0.046,-0.002
0.048,-0.004
0.043,-0.002
0.043,-0.004
0.045,-0.003
0.046,-0.003
0.050,-0.001
0.049,-0.002
0.048,-0.004
0.043,-0.001
0.045,-0.003
0.045,-0.001
0.043,-0.003
0.045,0.002
0.045,0.001
0.048,0.001
0.046,0.002
0.048,0.001
0.045,0.003
0.048,0.000
0.045,0.007
0.048,0.004
0.045,0.008
0.045,0.006
0.045,0.007
0.044,0.005
0.047,0.006
0.044,0.007
0.044,0.007
0.045,0.010
0.046,0.008
0.041,0.010
0.045,0.010
0.042,0.012
0.043,0.010
0.042,0.014
0.042,0.011
0.045,0.015
0.042,0.014
0.049,0.014
0.045,0.017
0.045,0.014
0.047,0.017
0.043,0.016
0.045,0.018
0.045,0.017
0.043,0.020
0.043,0.020
0.043,0.022
0.042,0.022
0.041,0.024
0.042,0.025
0.039,0.028
0.041,0.030
0.039,0.031
0.040,0.030
0.039,0.030
0.044,0.032
0.041,0.033
0.042,0.034
0.040,0.033
0.040,0.032
0.040,0.036
0.040,0.033
0.039,0.032
0.039,0.034
0.040,0.035
0.042,0.037
0.041,0.037
0.039,0.039
0.042,0.038
0.043,0.043
0.039,0.038
0.040,0.041
0.038,0.043
0.039,0.042
0.037,0.042
0.041,0.043
0.039,0.040
0.038,0.041
0.040,0.045
0.039,0.046
0.041,0.050
0.038,0.048
0.040,0.051
0.039,0.047
0.041,0.047
0.040,0.045
0.042,0.045
0.041,0.043
0.042,0.042
0.041,0.043
0.040,0.046
0.037,0.048
0.039,0.048
0.038,0.050
0.040,0.047
0.040,0.049
0.042,0.043
0.045,0.045
0.043,0.042
0.045,0.043
0.044,0.043
0.047,0.041
0.043,0.044
0.042,0.041
0.039,0.040
0.041,0.041
0.046,0.041
0.047,0.040
0.048,0.036
0.048,0.037
0.045,0.036
0.046,0.039
0.045,0.036
0.045,0.037
0.046,0.036
0.047,0.035
0.045,0.033
0.049,0.031
0.047,0.028
0.049,0.026
0.046,0.030
0.044,0.028
0.046,0.030
0.045,0.028
0.045,0.026
0.043,0.024
0.043,0.024
0.042,0.023
0.046,0.023
0.045,0.021
0.047,0.022
0.046,0.019
0.049,0.019
0.046,0.015
0.049,0.014
0.046,0.010
0.048,0.012
0.046,0.010
0.046,0.010
0.045,0.010
0.044,0.009
0.048,0.008
0.045,0.010
0.049,0.007
0.048,0.003
0.048,0.008
0.047,0.004
0.045,0.005
0.046,0.004
0.046,0.004
0.045,0.001
0.050,0.003
0.046,-0.002
0.048,-0.001
0.048,0.001
0.047,0.001
0.044,0.002
0.048,0.001
0.044,-0.001
0.047,0.000
0.045,0.000
0.048,-0.004
0.049,-0.004
0.048,-0.006
0.047,-0.005
0.045,-0.003
0.045,-0.007
0.044,-0.004
0.045,-0.003
0.045,-0.003
0.046,-0.003
0.048,-0.004
0.047,-0.004
0.046,-0.006
0.045,-0.002
0.042,-0.006
0.045,-0.001
0.040,-0.005
0.042,-0.004
0.042,-0.003
0.045,-0.005
0.043,-0.002
0.044,-0.003
0.043,-0.001
0.041,-0.000
0.044,0.003
0.042,0.002
0.040,0.004
0.040,0.003
0.041,0.005
0.041,0.003
0.042,0.005
0.043,0.000
0.045,0.004
0.042,0.006
0.043,0.004
0.042,0.007
0.042,0.010
0.040,0.010
0.041,0.008
0.041,0.010
0.039,0.010
0.040,0.011
0.042,0.012
0.041,0.011
0.042,0.014
0.040,0.015
0.039,0.016
0.041,0.016
0.040,0.016
0.040,0.016
0.038,0.019
0.041,0.021
0.038,0.022
0.043,0.022
0.036,0.024
0.040,0.024
0.039,0.027
0.041,0.028
0.041,0.029
0.041,0.032
0.041,0.032
0.043,0.030
0.039,0.030
0.041,0.031
0.039,0.031
0.040,0.030
0.040,0.034
0.041,0.032
0.043,0.034
0.043,0.033
0.043,0.037
0.043,0.038
0.045,0.037
0.043,0.038
0.045,0.038
0.041,0.040
0.042,0.039
0.043,0.040
0.043,0.038
0.044,0.040
0.042,0.036
0.040,0.038
0.042,0.040
0.040,0.039
0.040,0.044
0.040,0.043
0.040,0.045
0.041,0.043
0.042,0.046
0.040,0.041
0.044,0.040
0.043,0.043
0.044,0.038
0.044,0.045
0.042,0.040
0.039,0.043
0.036,0.039
0.041,0.042
0.037,0.043
0.041,0.043
0.038,0.043
0.044,0.041
0.041,0.044
0.045,0.045
0.042,0.045
0.042,0.045
0.042,0.045
0.044,0.045
0.044,0.043
0.046,0.043
0.046,0.042
0.046,0.039
0.046,0.039
0.048,0.039
0.046,0.037
0.044,0.039
0.046,0.037
0.046,0.036
0.043,0.035
0.046,0.035
0.047,0.034
0.047,0.032
0.050,0.033
0.048,0.032
0.049,0.036
0.047,0.032
0.048,0.032
0.048,0.030
0.049,0.031
0.047,0.028
0.051,0.029
0.046,0.024
0.050,0.025
0.048,0.021
0.051,0.022
0.049,0.019
0.051,0.021
0.047,0.017
0.052,0.018
0.049,0.014
0.049,0.014
0.048,0.014
0.048,0.013
0.048,0.011
0.051,0.007
0.047,0.013
0.048,0.010
0.047,0.013
0.049,0.008
0.048,0.011
0.047,0.009
0.044,0.008
0.045,0.006
0.045,0.006
0.046,0.002
0.050,0.003
0.047,0.000
0.048,0.003
0.046,0.003
0.045,0.004
0.044,0.002
0.048,0.002
0.046,0.003
0.047,0.000
0.049,-0.001
0.049,-0.002
0.050,-0.002
0.049,-0.004
0.050,-0.004
0.048,-0.003
0.050,-0.004
0.046,-0.003
0.049,-0.004
0.047,-0.002
0.048,-0.006
0.047,-0.003
0.049,-0.003
0.048,-0.003
0.048,-0.003
0.048,-0.003
0.046,0.000
0.046,-0.003
0.043,-0.002
0.043,-0.005
0.045,-0.003
0.044,-0.005
0.045,-0.001
0.044,-0.000
0.045,-0.003
0.043,0.002
0.046,0.000
0.045,0.005
0.044,0.004
0.046,0.007
0.042,0.001
0.047,0.004
0.044,0.002
0.047,0.004
0.045,0.004
0.044,0.005
0.043,0.006
0.043,0.006
0.043,0.010
0.045,0.010
0.043,0.009
0.043,0.009
0.044,0.009
0.045,0.006
0.043,0.010
0.043,0.010
0.044,0.010
0.039,0.013
0.043,0.013
0.040,0.014
0.042,0.013
0.041,0.014
0.042,0.015
0.043,0.019
0.041,0.018
0.040,0.020
0.040,0.020
0.042,0.024
0.040,0.023
0.043,0.025
0.042,0.028
0.042,0.028
0.041,0.027
0.041,0.025
0.042,0.025
0.045,0.027
0.044,0.025
0.044,0.030
0.042,0.025
0.043,0.030
0.043,0.029
0.042,0.030
0.040,0.032
0.044,0.034
0.042,0.036
0.044,0.033
0.042,0.034
0.042,0.033
0.043,0.036
0.042,0.037
0.045,0.037
0.044,0.037
0.046,0.037
0.043,0.037
0.042,0.037
0.042,0.043
0.041,0.041
0.039,0.043
0.038,0.042
0.039,0.043
0.040,0.044
0.043,0.041
0.043,0.041
0.041,0.041
0.045,0.042
0.042,0.044
0.042,0.045
0.043,0.046
0.043,0.044
0.042,0.045
0.043,0.046
0.042,0.043
0.043,0.042
0.041,0.041
0.042,0.043
0.040,0.044
0.043,0.045
0.040,0.046
0.043,0.042
0.042,0.044
0.043,0.039
0.044,0.041
0.044,0.038
0.047,0.043
0.044,0.039
0.045,0.039
0.042,0.041
0.044,0.039
0.042,0.041
0.045,0.037
0.044,0.039
0.042,0.035
0.048,0.035
0.047,0.032
0.046,0.033
0.045,0.034
0.048,0.032
0.048,0.034
0.047,0.027
0.046,0.030
0.047,0.029
0.048,0.027
0.045,0.029
0.049,0.029
0.047,0.027
0.047,0.027
0.049,0.024
0.052,0.025
0.050,0.023
0.049,0.021
0.048,0.019
0.047,0.017
0.047,0.017
0.048,0.014
0.046,0.012
0.047,0.013
0.047,0.014
0.044,0.012
0.045,0.015
0.044,0.011
0.044,0.014
0.049,0.009
0.046,0.012
0.044,0.006
0.046,0.012
0.044,0.007
0.046,0.008
0.045,0.008
0.048,0.007
0.044,0.005
0.045,0.004
0.044,0.006
0.044,0.004
0.046,0.004
0.044,0.006
0.046,0.006
0.046,0.003
0.047,0.003
0.046,-0.000
0.049,0.001
0.048,-0.002
0.049,-0.005
0.046,-0.003
0.048,-0.001
0.044,-0.001
0.047,-0.003
0.047,-0.003
0.049,-0.003
0.047,-0.003
0.047,-0.004
0.046,-0.002
0.047,-0.001
0.047,-0.002
0.044,-0.001
0.046,-0.000
0.043,-0.002
0.043,-0.002
0.043,-0.002
0.044,-0.003
0.046,-0.001
0.045,-0.000
0.044,-0.000
0.042,0.003
0.040,0.002
0.041,0.005
0.040,0.003
0.043,0.006
0.040,0.003
0.046,0.005
0.042,0.005
0.044,0.006
0.041,0.011
0.042,0.010
0.041,0.011
0.043,0.009
0.043,0.014
0.041,0.012
0.044,0.010
0.041,0.012
0.043,0.012
0.040,0.016
0.044,0.016
0.044,0.016
0.043,0.017
0.041,0.017
0.043,0.020
0.041,0.019
0.044,0.017
0.041,0.019
0.043,0.018
0.041,0.022
0.042,0.020
0.039,0.024
0.041,0.023
0.038,0.025
0.038,0.026
0.039,0.030
0.039,0.029
0.042,0.031
0.039,0.029
0.044,0.029
0.042,0.030
0.045,0.035
0.045,0.031
0.046,0.034
0.042,0.031
0.043,0.035
0.041,0.034
0.041,0.034
0.037,0.037
0.038,0.036
0.038,0.039
0.042,0.039
0.039,0.041
0.040,0.040
0.043,0.041
0.040,0.040
0.043,0.038
0.042,0.040
0.043,0.041
0.042,0.043
0.041,0.042
0.037,0.046
0.039,0.046
0.037,0.046
0.039,0.044
0.040,0.046
0.039,0.044
0.041,0.043
0.042,0.042
0.041,0.042
0.042,0.043
0.041,0.043
0.040,0.044
0.039,0.044
0.043,0.044
0.041,0.045
0.044,0.045
0.045,0.047
0.042,0.046
0.041,0.051
0.042,0.049
0.043,0.049
0.043,0.047
0.045,0.047
0.042,0.047
0.046,0.043
0.042,0.042
0.047,0.042
0.045,0.041
0.044,0.040
0.041,0.044
0.043,0.042
0.037,0.041
0.042,0.038
0.043,0.039
0.043,0.037
0.047,0.038
0.046,0.036
0.049,0.035
0.046,0.033
0.047,0.032
0.047,0.034
0.044,0.031
0.045,0.030
0.044,0.030
0.045,0.027
0.045,0.029
0.049,0.030
0.050,0.028
0.052,0.027
0.054,0.025
0.052,0.023
0.055,0.027
0.051,0.023
0.049,0.024
0.048,0.021
0.045,0.023
0.047,0.017
0.045,0.018
0.047,0.011
0.048,0.012
0.047,0.014
0.049,0.014
0.045,0.011
0.045,0.014
0.043,0.014
0.043,0.012
0.044,0.011
0.045,0.009
0.045,0.007
0.048,0.004
0.048,0.003
0.048,0.001
0.046,0.004
0.045,0.003
0.044,0.007
0.042,0.004
0.043,0.007
0.041,0.003
0.044,0.006
0.045,-0.000
0.047,0.002
0.043,-0.003
0.044,-0.003
0.045,-0.000
0.048,-0.001
0.042,-0.002
0.047,-0.003
0.045,-0.002
0.045,-0.006
0.048,-0.005
0.048,-0.002
0.048,-0.003
0.046,-0.001
0.047,-0.001
0.045,0.002
0.046,-0.002
0.045,-0.003
0.044,-0.003
0.044,-0.004
0.041,-0.005
0.039,-0.003
0.037,-0.006
0.036,-0.003
0.040,0.000
0.044,0.001
0.047,0.002
0.046,-0.000
0.045,0.001
0.045,0.003
0.046,0.002
0.043,0.000
0.047,0.002
0.046,0.001
0.046,0.001
0.048,0.007
0.046,0.004
0.045,0.007
0.043,0.008
0.041,0.008
0.037,0.007
0.038,0.008
0.034,0.006
0.036,0.006
0.036,0.008
0.040,0.010
0.041,0.010
0.043,0.013
0.044,0.015
0.047,0.015
0.044,0.017
0.045,0.017
0.042,0.018
0.041,0.017
0.043,0.021
0.041,0.020
0.041,0.021
0.039,0.020
0.041,0.024
0.041,0.023
0.045,0.025
0.043,0.023
0.048,0.026
0.045,0.026
0.049,0.028
0.044,0.027
0.046,0.030
0.040,0.028
0.041,0.032
0.038,0.028
0.043,0.031
0.045,0.030
0.046,0.031
0.048,0.030
0.048,0.034
0.046,0.037
0.045,0.035
0.038,0.037
0.038,0.037
0.037,0.041
0.041,0.038
0.043,0.038
0.047,0.037
0.046,0.040
0.044,0.041
0.041,0.041
0.039,0.043
0.042,0.041
0.039,0.043
0.042,0.042
0.049,0.044
0.053,0.041
0.056,0.042
0.057,0.044
0.052,0.044
0.045,0.048
0.039,0.047
0.033,0.052
0.023,0.049
0.017,0.050
0.016,0.044
0.027,0.041
0.041,0.039
0.051,0.038
0.054,0.042
0.052,0.039
0.053,0.047
0.052,0.044
0.051,0.048
0.052,0.046
0.052,0.043
0.049,0.041
0.052,0.039
0.048,0.039
0.045,0.038
0.037,0.040
0.033,0.039
0.029,0.039
0.025,0.039
0.026,0.036
0.028,0.033
0.037,0.031
0.050,0.027
0.062,0.029
0.068,0.032
0.069,0.035
0.060,0.043
0.045,0.046
0.034,0.052
0.028,0.050
0.038,0.045
0.040,0.049
0.050,0.062
0.049,0.071
0.049,0.080
0.049,0.086
0.048,0.069
0.046,0.048
0.044,0.010
0.045,-0.013
0.041,-0.019
0.041,-0.016
0.041,-0.010
0.040,-0.001
0.039,0.004
0.040,0.010
0.041,0.015
0.045,0.019
0.043,0.015
0.049,0.016
0.046,0.013
0.049,0.016
0.047,0.022
0.050,0.033
0.048,0.042
0.046,0.046
0.049,0.051
0.047,0.042
0.048,0.028
0.051,0.006
0.049,-0.013
0.048,-0.027
0.048,-0.030
0.045,-0.027
0.046,-0.019
0.044,-0.016
0.045,-0.009
0.040,-0.011
0.042,-0.008
0.046,-0.004
0.053,-0.004
0.056,-0.005
0.062,-0.006
0.061,-0.006
0.063,-0.007
0.062,-0.007
0.057,-0.003
0.047,-0.004
0.040,0.002
0.034,0.001
0.031,0.003
0.032,0.007
0.036,0.006
0.040,0.008
0.044,0.012
0.045,0.020
0.047,0.020
0.050,0.000
0.048,-0.020
0.047,-0.025
0.050,-0.029
0.050,-0.025
0.052,-0.021
0.056,-0.014
0.054,-0.011
0.054,-0.007
0.050,-0.002
0.048,-0.000
0.039,0.005
0.038,0.006
0.037,0.010
0.037,0.008
0.036,0.012
0.035,0.009
0.037,0.012
0.037,0.012
0.040,0.017
0.037,0.023
0.042,0.030
0.039,0.037
0.043,0.023
0.040,0.008
0.045,-0.007
0.043,-0.009
0.037,-0.008
0.037,-0.007
0.034,-0.003
0.034,0.003
0.032,0.005
0.036,0.009
0.045,0.012
0.059,0.011
0.068,0.015
0.067,0.014
0.063,0.015
0.056,0.015
0.049,0.019
0.036,0.022
0.031,0.031
0.030,0.030
0.037,0.034
0.045,0.033
0.053,0.033
0.056,0.029
0.054,0.030
0.053,0.029
0.046,0.029
0.040,0.028
0.036,0.029
0.035,0.031
0.035,0.035
0.040,0.037
0.046,0.037
0.051,0.039
0.053,0.037
0.053,0.038
0.052,0.040
0.050,0.041
0.044,0.039
0.037,0.042
0.035,0.040
0.030,0.034
0.031,0.029
0.033,0.030
0.033,0.031
0.035,0.035
0.036,0.037
0.039,0.036
0.040,0.041
0.042,0.047
0.044,0.049
0.045,0.048
0.047,0.045
0.047,0.043
0.048,0.044
0.043,0.041
0.042,0.041
0.038,0.041
0.038,0.042
0.036,0.043
0.041,0.040
0.038,0.036
0.045,0.035
0.044,0.035
0.048,0.036
0.048,0.039
0.045,0.037
0.043,0.042
0.039,0.045
0.035,0.047
0.034,0.049
0.036,0.048
0.035,0.052
0.041,0.049
0.044,0.049
0.047,0.047
0.047,0.047
0.046,0.043
0.046,0.035
0.047,0.035
0.045,0.028
0.043,0.031
0.044,0.029
0.043,0.033
0.042,0.032
0.045,0.038
0.040,0.032
0.039,0.032
0.035,0.036
0.035,0.043
0.030,0.058
0.036,0.068
0.041,0.070
0.054,0.058
0.060,0.033
0.064,0.008
0.064,-0.008
0.057,-0.013
0.058,-0.009
0.051,-0.004
0.047,0.003
0.039,0.007
0.044,0.009
0.048,0.008
0.057,0.010
0.055,0.005
0.053,0.006
0.050,0.006
0.047,0.008
0.040,0.008
0.040,0.009
0.039,0.008
0.045,0.006
0.042,0.006
0.046,0.002
0.042,0.007
0.046,0.003
0.049,0.004
0.054,0.003
0.061,0.003
0.059,-0.005
0.058,-0.009
0.051,-0.013
0.044,-0.012
0.026,-0.007
0.014,-0.006
0.010,-0.001
0.024,-0.002
0.047,0.000
0.053,-0.007
0.055,-0.008
0.050,-0.012
0.047,-0.014
0.044,-0.014
0.041,-0.011
0.040,-0.002
0.037,-0.000
0.037,0.002
0.039,0.001
0.041,-0.001
0.047,-0.003
0.047,-0.002
0.048,-0.005
0.049,-0.004
0.046,-0.005
0.046,-0.005
0.048,-0.004
0.044,-0.003
0.042,-0.005
0.039,-0.002
0.043,-0.003
0.044,-0.003
0.045,-0.004
0.047,-0.002
0.050,0.000
0.056,0.000
0.057,0.002
0.051,0.004
0.037,0.007
0.034,0.013
0.031,0.011
0.034,0.014
0.042,0.013
0.048,0.012
0.049,0.014
0.046,0.019
0.046,0.031
0.044,0.043
0.042,0.052
0.040,0.047
0.042,0.031
0.041,0.007
0.041,-0.009
0.041,-0.017
0.042,-0.012
0.039,-0.004
0.039,-0.001
0.039,0.003
0.043,0.007
0.041,0.014
0.047,0.013
0.047,0.018
0.045,0.017
0.046,0.029
0.049,0.033
0.046,0.043
0.050,0.048
0.049,0.044
0.044,0.020
0.045,0.005
0.040,-0.000
0.035,0.003
0.028,0.009
0.031,0.019
0.040,0.023
0.045,0.028
0.041,0.027
0.034,0.031
0.025,0.032
0.017,0.035
0.010,0.033
0.016,0.037
0.031,0.037
0.060,0.034
0.069,0.034
0.068,0.036
0.061,0.035
0.051,0.028
0.047,0.035
0.041,0.039
0.042,0.043
0.038,0.043
0.040,0.045
0.033,0.044
0.031,0.044
0.028,0.045
0.030,0.043
0.035,0.045
0.038,0.045
0.038,0.044
0.040,0.042
0.041,0.043
0.045,0.043
0.044,0.039
0.045,0.042
0.039,0.044
0.039,0.049
0.037,0.051
0.032,0.050
0.033,0.049
0.033,0.055
0.032,0.062
0.033,0.072
0.039,0.073
0.043,0.063
0.047,0.046
0.045,0.023
0.044,0.010
0.043,0.002
0.044,0.011
0.045,0.017
0.045,0.026
0.042,0.031
0.045,0.039
0.041,0.036
0.043,0.037
0.043,0.036
0.044,0.032
0.041,0.033
0.045,0.031
0.045,0.034
0.046,0.031
0.047,0.034
0.044,0.032
0.045,0.033
0.040,0.030
0.044,0.033
0.043,0.030
0.045,0.028
0.040,0.028
0.037,0.024
0.031,0.021
0.027,0.023
0.022,0.021
0.022,0.019
0.023,0.018
0.033,0.018
0.040,0.017
0.048,0.015
0.050,0.013
0.051,0.011
0.049,0.012
0.049,0.010
0.048,0.012
0.044,0.007
0.051,0.010
0.046,0.008
0.049,0.003
0.049,0.002
0.049,0.003
0.044,0.002
0.046,0.002
0.043,0.007
0.047,0.005
0.048,0.003
0.045,-0.000
0.043,-0.002
0.039,-0.004
0.038,-0.004
0.035,-0.002
0.034,-0.001
0.039,0.005
0.043,0.003
0.046,0.003
0.048,0.004
0.049,0.000
0.050,0.000
0.050,-0.000
0.049,-0.004
0.046,-0.003
0.049,-0.005
0.047,-0.004
0.047,-0.005
0.046,-0.005
0.044,-0.002
0.045,-0.003
0.044,-0.002
0.043,-0.004
0.045,-0.001
0.042,-0.004
0.041,-0.001
0.040,-0.002
0.044,-0.001
0.040,0.000
0.043,0.001
0.038,0.004
0.039,-0.001
0.043,0.003
0.045,-0.000
0.051,0.003
0.050,0.004
0.054,0.004
0.049,0.010
0.051,0.007
0.046,0.010
0.048,0.013
0.046,0.025
0.039,0.033
0.041,0.029
0.040,0.007
0.041,-0.004
0.038,-0.008
0.037,-0.010
0.032,-0.006
0.027,-0.003
0.032,0.006
0.034,0.005
0.039,0.006
0.041,0.006
0.047,0.010
0.047,0.010
0.051,0.008
0.046,0.013
0.039,0.011
0.032,0.014
0.024,0.012
0.013,0.016
0.010,0.016
0.017,0.020
0.034,0.023
0.057,0.025
0.059,0.024
0.055,0.024
0.048,0.023
0.046,0.025
0.043,0.025
0.043,0.027
0.044,0.028
0.045,0.031
0.048,0.028
0.051,0.032
0.050,0.027
0.048,0.029
0.044,0.026
0.038,0.026
0.032,0.026
0.033,0.026
0.035,0.028
0.041,0.032
0.041,0.035
0.042,0.037
0.043,0.044
0.039,0.045
0.039,0.050
0.037,0.047
0.039,0.046
0.039,0.043
0.041,0.046
0.038,0.044
0.040,0.046
0.039,0.043
0.039,0.045
0.040,0.044
0.042,0.047
0.038,0.047
0.039,0.046
0.037,0.045
0.037,0.042
0.040,0.044
0.038,0.038
0.040,0.040
0.039,0.045
0.039,0.046
0.036,0.049
0.039,0.052
0.036,0.058
0.038,0.058
0.040,0.054
0.042,0.051
0.045,0.052
0.042,0.059
0.043,0.066
0.045,0.080
0.042,0.077
0.042,0.063
0.043,0.040
0.040,0.015
0.043,0.007
0.046,0.009
0.048,0.011
0.052,0.017
0.054,0.023
0.055,0.026
0.053,0.031
0.052,0.034
0.043,0.035
0.040,0.032
0.034,0.031
0.034,0.028
0.035,0.030
0.039,0.030
0.044,0.029
0.049,0.028
0.053,0.025
0.051,0.029
0.052,0.024
0.046,0.025
0.045,0.023
0.041,0.022
0.043,0.023
0.043,0.020
0.045,0.022
0.047,0.019
0.045,0.018
0.044,0.015
0.043,0.011
0.045,0.012
0.046,0.011
0.045,0.010
0.042,0.008
0.045,0.009
0.040,0.006
0.044,0.007
0.041,0.006
0.044,0.007
0.041,0.010
0.039,0.009
0.034,0.012
0.037,0.010
0.036,0.008
0.041,0.006
0.045,0.001
0.049,-0.003
0.053,-0.005
0.054,-0.005
0.054,-0.005
0.052,-0.002
0.048,0.001
0.045,0.004
0.044,0.006
0.044,0.005
0.040,0.002
0.047,0.000
0.045,-0.001
0.046,-0.003
0.042,-0.001
0.044,-0.002
0.046,0.000
0.046,-0.004
0.044,-0.003
0.047,-0.002
0.046,-0.003
0.045,-0.007
0.044,-0.001
0.042,-0.004
0.042,-0.003
0.042,-0.003
0.044,0.001
0.043,0.002
0.045,0.001
0.044,0.001
0.045,-0.002
0.040,0.000
0.040,0.000
0.043,0.002
0.039,0.001
0.041,0.001
0.045,0.003
0.046,-0.001
0.043,0.000
0.043,-0.001
0.037,-0.001
0.037,0.002
0.038,0.009
0.039,0.009
0.040,0.008
0.043,0.010
0.042,0.009
0.043,0.011
0.044,0.010
0.041,0.011
0.039,0.012
0.043,0.015
0.036,0.012
0.042,0.014
0.038,0.012
0.042,0.012
0.039,0.017
0.039,0.013
0.039,0.020
0.039,0.017
0.041,0.018
0.039,0.016
0.040,0.021
0.042,0.018
0.041,0.023
0.038,0.023
0.039,0.025
0.041,0.025
0.040,0.026
0.043,0.025
0.041,0.029
0.042,0.027
0.040,0.030
0.038,0.029
0.041,0.033
0.038,0.030
0.041,0.030
0.041,0.032
0.039,0.032
0.039,0.032
0.039,0.034
0.041,0.036
0.041,0.036
0.041,0.035
0.040,0.039
0.041,0.037
0.042,0.038
0.043,0.038
0.039,0.037
0.038,0.040
0.039,0.039
0.036,0.037
0.038,0.040
0.039,0.040
0.037,0.041
0.041,0.043
0.039,0.038
0.039,0.041
0.039,0.041
0.042,0.043
0.039,0.044
0.039,0.043
0.039,0.042
0.040,0.043
0.042,0.042
0.042,0.037
0.042,0.041
0.038,0.039
0.037,0.042
0.037,0.042
0.038,0.043
0.034,0.044
0.038,0.044
0.036,0.047
0.039,0.044
0.042,0.047
0.041,0.043
0.042,0.041
0.042,0.041
0.041,0.037
0.041,0.040
0.041,0.036
0.040,0.042
0.037,0.039
0.041,0.039
0.038,0.037
0.041,0.035
0.041,0.036
0.041,0.036
0.042,0.035
0.040,0.033
0.043,0.034
0.040,0.035
0.044,0.036
0.039,0.032
0.043,0.033
0.042,0.030
0.047,0.032
0.043,0.028
0.044,0.027
0.044,0.025
0.043,0.026
0.043,0.027
0.047,0.025
0.043,0.025
0.047,0.022
0.044,0.025
0.048,0.022
0.044,0.021
0.046,0.017
0.041,0.018
0.044,0.015
0.043,0.015
0.043,0.012
0.042,0.014
0.042,0.010
0.044,0.012
0.041,0.011
0.046,0.014
0.042,0.009
0.046,0.010
0.045,0.009
0.046,0.007
0.045,0.010
0.044,0.009
0.041,0.008
0.043,0.006
0.041,0.005
0.043,0.003
0.045,0.003
0.043,0.001
0.045,0.001
0.045,0.003
0.043,0.002
0.043,0.005
0.042,0.001
0.043,0.004
0.043,0.002
0.045,0.001
0.043,-0.001
0.047,-0.003
0.047,-0.005
0.047,-0.007
0.046,-0.005
0.045,-0.006
0.046,-0.004
0.046,-0.004
0.046,-0.001
0.043,-0.002
0.047,-0.005
0.044,-0.007
0.048,-0.004
0.046,-0.003
0.047,-0.002
0.045,-0.003
0.044,-0.002
0.042,0.000
0.043,-0.002
0.041,0.004
0.041,0.001
0.042,0.004
0.042,0.003
0.047,0.004
0.040,0.001
0.044,0.005
0.042,0.006
0.043,0.005
0.040,0.011
0.041,0.008
0.040,0.008
0.040,0.006
0.041,0.007
0.040,0.007
0.041,0.005
0.039,0.008
0.039,0.007
0.040,0.013
0.037,0.010
0.038,0.013
0.037,0.014
0.037,0.013
0.036,0.014
0.041,0.015
0.038,0.015
0.040,0.013
0.040,0.015
0.044,0.015
0.041,0.015
0.040,0.016
0.039,0.019
0.038,0.018
0.039,0.021
0.038,0.021
0.040,0.023
0.038,0.023
0.041,0.025
0.037,0.027
0.038,0.027
0.039,0.030
0.039,0.033
0.039,0.031
0.041,0.035
0.040,0.031
0.040,0.034
0.039,0.035
0.038,0.039
0.040,0.036
0.039,0.037
0.039,0.038
0.038,0.035
0.039,0.036
0.040,0.036
0.042,0.034
0.041,0.035
0.042,0.037
0.039,0.036
0.039,0.037
0.038,0.038
0.039,0.040
0.039,0.040
0.042,0.042
0.040,0.039
0.044,0.042
0.044,0.042
0.044,0.043
0.041,0.044
0.041,0.041
0.038,0.045
0.043,0.040
0.042,0.041
0.043,0.038
0.044,0.040
0.040,0.039
0.041,0.040
0.041,0.041
0.040,0.041
0.039,0.046
0.040,0.045
0.036,0.047
0.038,0.047
0.039,0.047
0.037,0.045
0.042,0.045
0.042,0.044
0.044,0.042
0.044,0.044
0.044,0.042
0.043,0.042
0.042,0.039
0.041,0.042
0.040,0.041
0.043,0.037
0.041,0.037
0.044,0.037
0.042,0.037
0.045,0.034
0.045,0.034
0.043,0.030
0.043,0.035
0.045,0.032
0.043,0.032
0.044,0.030
0.048,0.030
0.046,0.023
0.047,0.025
0.047,0.025
0.047,0.025
0.047,0.025
0.048,0.026
0.045,0.026
0.047,0.025
0.045,0.024
0.048,0.023
0.044,0.025
0.046,0.020
0.045,0.020
0.045,0.016
0.045,0.018
0.043,0.013
0.044,0.014
0.040,0.012
0.043,0.013
0.040,0.011
0.045,0.014
0.041,0.010
0.044,0.010
0.043,0.010
0.044,0.010
0.042,0.007
0.047,0.008
0.044,0.005
0.045,0.005
0.042,0.006
0.045,0.005
0.043,0.007
0.044,0.005
0.043,0.006
0.045,0.000
0.045,-0.001
0.045,0.000
0.045,0.000
0.043,0.001
0.044,0.001
0.041,0.000
0.044,-0.000
0.043,-0.001
0.045,-0.001
0.048,-0.005
0.046,-0.006
0.047,-0.006
0.045,-0.003
0.043,-0.005
0.041,0.001
0.042,0.000
0.039,0.002
0.041,-0.000
0.042,0.000
0.039,-0.003
0.043,-0.003
0.040,-0.003
0.043,-0.003
0.042,0.001
0.042,-0.001
0.043,0.000
0.041,-0.001
0.041,0.003
0.038,0.002
0.040,0.002
0.036,-0.000
0.041,0.002
0.039,0.003
0.042,0.003
0.040,0.006
0.041,0.005
0.040,0.008
0.041,0.006
0.037,0.008
0.040,0.008
0.041,0.007
0.042,0.005
0.042,0.008
0.043,0.008
0.039,0.009
0.040,0.013
0.039,0.012
0.037,0.013
0.041,0.014
0.040,0.015
0.040,0.013
0.038,0.015
0.039,0.014
0.039,0.014
0.038,0.012
0.040,0.015
0.039,0.015
0.040,0.014
0.038,0.016
0.040,0.020
0.036,0.021
0.039,0.023
0.036,0.025
0.035,0.025
0.037,0.027
0.037,0.028
0.039,0.030
0.040,0.032
0.040,0.028
0.041,0.030
0.039,0.029
0.039,0.032
0.038,0.029
0.039,0.033
0.038,0.035
0.042,0.035
0.037,0.038
0.039,0.036
0.039,0.038
0.039,0.036
0.040,0.038
0.039,0.037
0.042,0.036
0.041,0.037
0.039,0.036
0.041,0.039
0.040,0.036
0.039,0.040
0.037,0.041
0.038,0.041
0.038,0.042
0.037,0.043
0.038,0.042
0.039,0.042
0.038,0.044
0.037,0.044
0.037,0.046
0.036,0.044
0.036,0.048
0.036,0.045
0.034,0.046
0.034,0.043
0.036,0.046
0.036,0.043
0.036,0.046
0.036,0.045
0.034,0.046
0.036,0.046
0.037,0.046
0.032,0.048
0.036,0.045
0.036,0.042
0.040,0.042
0.041,0.041
0.040,0.039
0.041,0.041
0.040,0.041
0.040,0.042
0.040,0.043
0.041,0.039
0.038,0.038
0.039,0.037
0.041,0.039
0.043,0.035
0.043,0.036
0.042,0.035
0.042,0.034
0.043,0.037
0.043,0.033
0.043,0.036
0.045,0.029
0.045,0.031
0.042,0.026
0.046,0.028
0.043,0.027
0.048,0.028
0.045,0.028
0.046,0.027
0.041,0.027
0.042,0.024
0.041,0.025
0.043,0.024
0.045,0.026
0.044,0.024
0.044,0.024
0.043,0.021
0.045,0.019
0.044,0.017
0.044,0.017
0.045,0.015
0.044,0.016
0.044,0.012
0.041,0.013
0.042,0.012
0.045,0.014
0.044,0.011
0.046,0.010
0.043,0.007
0.043,0.007
0.043,0.006
0.045,0.004
0.042,0.007
0.044,0.004
0.041,0.006
0.040,0.005
0.040,0.004
0.040,0.003
0.045,0.006
0.042,0.003
0.043,0.006
0.043,0.006
0.045,0.004
0.043,0.005
0.045,0.001
0.043,-0.001
0.045,0.001
0.045,-0.002
0.042,-0.003
0.043,-0.002
0.043,-0.002
0.043,0.001
0.044,0.002
0.044,-0.001
0.043,-0.001
0.042,-0.003
0.043,0.000
0.043,0.000
0.045,-0.000
0.044,-0.002
0.045,-0.001
0.044,-0.002
0.043,-0.003
0.043,0.002
0.043,-0.000
0.041,0.006
0.041,0.004
0.042,0.005
0.040,0.002
0.044,0.003
0.042,0.002
0.045,0.004
0.042,0.005
0.044,0.004
0.041,0.010
0.043,0.007
0.040,0.009
0.039,0.006
0.039,0.008
0.037,0.008
0.041,0.010
0.039,0.009
0.041,0.009
0.040,0.011
0.042,0.012
0.039,0.013
0.041,0.014
0.040,0.015
0.041,0.017
0.040,0.015
0.041,0.017
0.039,0.017
0.040,0.015
0.038,0.019
0.039,0.019
0.040,0.016
0.039,0.016
0.038,0.020
0.037,0.021
0.038,0.024
0.037,0.026
0.040,0.025
0.036,0.029
0.041,0.032
0.038,0.035
0.040,0.033
0.038,0.032
0.037,0.031
0.039,0.033
0.040,0.033
0.036,0.037
0.038,0.036
0.036,0.038
0.035,0.037
0.037,0.041
0.036,0.038
0.040,0.039
0.041,0.040
0.040,0.038
0.041,0.041
0.041,0.039
0.043,0.038
0.042,0.037
0.040,0.037
0.040,0.038
0.039,0.039
0.036,0.039
0.037,0.043
0.036,0.040
0.037,0.041
0.040,0.042
0.039,0.043
0.041,0.047
0.040,0.044
0.038,0.046
0.038,0.045
0.039,0.045
0.038,0.041
0.041,0.043
0.038,0.042
0.041,0.041
0.039,0.043
0.039,0.042
0.035,0.046
0.036,0.045
0.036,0.046
0.037,0.045
0.039,0.046
0.039,0.045
0.043,0.046
0.041,0.041
0.041,0.042
0.040,0.044
0.040,0.041
0.039,0.042
0.041,0.042
0.039,0.040
0.041,0.040
0.041,0.040
0.040,0.036
0.043,0.037
0.044,0.037
0.041,0.036
0.041,0.038
0.041,0.036
0.040,0.040
0.042,0.034
0.040,0.036
0.040,0.031
0.045,0.031
0.043,0.029
0.047,0.029
0.044,0.032
0.043,0.027
0.042,0.032
0.044,0.027
0.043,0.029
0.043,0.024
0.042,0.024
0.044,0.025
0.047,0.025
0.047,0.021
0.045,0.020
0.047,0.017
0.048,0.018
0.045,0.013
0.045,0.016
0.043,0.013
0.044,0.013
0.044,0.013
0.046,0.010
0.043,0.012
0.045,0.010
0.045,0.010
0.046,0.007
0.046,0.008
0.045,0.008
0.045,0.010
0.045,0.005
0.044,0.008
0.044,0.007
0.045,0.007
0.042,0.006
0.046,0.006
0.043,0.004
0.046,0.004
0.044,0.005
0.044,0.004
0.043,0.006
0.042,0.003
0.042,0.001
0.044,-0.001
0.045,0.000
0.045,-0.005
0.049,-0.003
0.046,-0.003
0.043,-0.001
0.044,0.002
0.046,-0.002
0.039,-0.001
0.042,-0.002
0.043,-0.001
0.041,-0.001
0.043,-0.000
0.043,-0.003
0.044,-0.001
0.045,-0.001
0.044,-0.000
0.041,0.004
0.042,0.002
0.042,0.003
0.040,-0.000
0.046,0.004
0.043,0.001
0.049,0.002
0.043,-0.001
0.046,0.001
0.042,0.006
0.044,0.004
0.040,0.007
0.042,0.004
0.039,0.008
0.039,0.007
0.041,0.008
0.039,0.006
0.043,0.008
0.038,0.005
0.042,0.008
0.040,0.011
0.042,0.008
0.037,0.013
0.039,0.012
0.038,0.016
0.036,0.015
0.039,0.017
0.038,0.016
0.040,0.014
0.041,0.017
0.041,0.018
0.041,0.019
0.040,0.018
0.038,0.019
0.036,0.017
0.040,0.021
0.038,0.020
0.039,0.022
0.036,0.022
0.036,0.025
0.037,0.026
0.036,0.026
0.038,0.030
0.038,0.031
0.037,0.030
0.036,0.031
0.038,0.029
0.036,0.032
0.039,0.034
0.036,0.037
0.038,0.034
0.036,0.037
0.037,0.036
0.036,0.039
0.035,0.037
0.039,0.036
0.037,0.037
0.039,0.036
0.037,0.041
0.036,0.036
0.038,0.040
0.036,0.037
0.037,0.040
0.034,0.036
0.034,0.040
0.034,0.040
0.038,0.041
0.036,0.042
0.039,0.042
0.035,0.044
0.036,0.045
0.036,0.047
0.037,0.046
0.034,0.047
0.035,0.045
0.038,0.044
0.036,0.042
0.037,0.042
0.036,0.042
0.036,0.041
0.037,0.045
0.040,0.044
0.036,0.044
0.037,0.045
0.036,0.043
0.039,0.043
0.040,0.045
0.039,0.041
0.039,0.045
0.041,0.042
0.040,0.043
0.039,0.044
0.041,0.041
0.038,0.042
0.040,0.040
0.040,0.040
0.041,0.036
0.041,0.037
0.041,0.037
0.041,0.033
0.041,0.036
0.041,0.035
0.039,0.039
0.039,0.035
0.041,0.034
0.043,0.030
0.045,0.032
0.040,0.027
0.042,0.028
0.041,0.029
0.044,0.028
0.040,0.030
0.044,0.026
0.042,0.030
0.042,0.026
0.041,0.026
0.042,0.023
0.043,0.030
0.041,0.023
0.042,0.022
0.044,0.018
0.043,0.017
0.043,0.017
0.045,0.015
0.046,0.013
0.046,0.015
0.043,0.013
0.047,0.014
0.041,0.012
0.045,0.012
0.040,0.010
0.045,0.009
0.045,0.006
0.046,0.007
0.047,0.005
0.047,0.004
0.045,0.007
0.045,0.004
0.045,0.006
0.045,0.004
0.047,0.004
0.045,0.001
0.045,0.003
0.043,-0.002
0.042,-0.001
0.044,0.001
0.044,0.001
0.042,0.004
0.046,-0.002
0.043,0.002
0.047,-0.000
0.046,0.001
0.046,-0.004
0.045,-0.004
0.042,-0.005
0.045,-0.004
0.041,0.000
0.044,-0.000
0.043,-0.001
0.044,-0.001
0.045,-0.002
0.043,-0.004
0.044,-0.003
0.045,-0.004
0.045,-0.004
0.044,-0.003
0.043,-0.003
0.043,-0.002
0.041,-0.002
0.045,-0.001
0.042,0.000
0.045,0.003
0.043,0.002
0.044,0.002
0.044,0.006
0.042,0.003
0.044,0.006
0.043,0.002
0.041,0.006
0.042,0.005
0.043,0.008
0.042,0.005
0.046,0.009
0.044,0.007
0.046,0.008
0.043,0.012
0.044,0.009
0.042,0.010
0.043,0.012
0.042,0.014
0.042,0.012
0.044,0.013
0.045,0.013
0.043,0.014
0.045,0.015
0.047,0.014
0.043,0.016
0.042,0.015
0.040,0.017
0.043,0.018
0.039,0.020
0.044,0.018
0.041,0.021
0.042,0.023
0.037,0.025
0.037,0.025
0.036,0.027
0.040,0.026
0.037,0.031
0.039,0.031
0.039,0.030
0.040,0.033
0.038,0.032
0.043,0.032
0.038,0.032
0.040,0.028
0.038,0.033
0.041,0.032
0.040,0.035
0.038,0.033
0.043,0.036
0.043,0.037
0.042,0.037
0.042,0.041
0.041,0.037
0.039,0.039
0.041,0.040
0.041,0.038
0.040,0.037
0.042,0.038
0.042,0.036
0.041,0.036
0.038,0.038
0.039,0.039
0.041,0.042
0.038,0.040
0.041,0.040
0.039,0.042
0.044,0.042
0.042,0.042
0.045,0.041
0.043,0.042
0.043,0.041
0.042,0.043
0.041,0.042
0.039,0.045
0.041,0.046
0.039,0.046
0.039,0.048
0.040,0.046
0.039,0.041
0.044,0.044
0.043,0.043
0.044,0.045
0.043,0.045
0.045,0.044
0.042,0.044
0.044,0.042
0.041,0.042
0.042,0.038
0.042,0.041
0.045,0.039
0.043,0.038
0.041,0.039
0.043,0.037
0.043,0.039
0.042,0.039
0.037,0.039
0.039,0.039
0.042,0.035
0.044,0.032
0.047,0.032
0.045,0.034
0.043,0.034
0.043,0.035
0.042,0.033
0.043,0.032
0.041,0.034
0.043,0.032
0.043,0.030
0.047,0.031
0.043,0.030
0.047,0.026
0.047,0.023
0.049,0.025
0.045,0.020
0.045,0.022
0.045,0.019
0.047,0.021
0.049,0.016
0.048,0.017
0.048,0.017
0.046,0.015
0.046,0.015
0.048,0.013
0.047,0.014
0.047,0.012
0.046,0.013
0.047,0.010
0.049,0.010
0.047,0.009
0.046,0.009
0.045,0.007
0.046,0.006
0.043,0.005
0.046,0.004
0.046,0.004
0.042,0.004
0.046,0.007
0.046,0.002
0.045,0.006
0.045,0.004
0.046,0.006
0.046,0.003
0.048,0.002
0.047,-0.002
0.049,0.000
0.046,-0.002
0.045,-0.003
0.045,-0.001
0.048,-0.000
0.042,0.003
0.044,0.002
0.045,0.003
0.046,0.003
0.049,0.002
0.044,0.003
0.047,0.001
0.048,0.002
0.049,0.001
0.047,-0.002
0.048,-0.001
0.046,-0.000
0.045,-0.002
0.047,0.002
0.048,-0.001
0.048,0.001
0.048,0.001
0.046,0.001
0.046,0.005
0.044,0.002
0.046,0.006
0.043,0.006
0.046,0.006
0.043,0.006
0.047,0.004
0.045,0.004
0.046,0.006
0.049,0.006
0.045,0.005
0.046,0.009
0.042,0.009
0.041,0.010
0.041,0.010
0.042,0.013
0.041,0.012
0.043,0.015
0.043,0.012
0.044,0.017
0.044,0.016
0.045,0.017
0.042,0.021
0.044,0.019
0.040,0.021
0.044,0.020
0.040,0.023
0.042,0.022
0.040,0.024
0.042,0.023
0.036,0.027
0.038,0.025
0.040,0.028
0.040,0.027
0.039,0.030
0.038,0.028
0.040,0.032
0.039,0.032
0.041,0.032
0.041,0.032
0.042,0.033
0.041,0.031
0.040,0.034
0.042,0.035
0.044,0.038
0.040,0.033
0.046,0.033
0.043,0.035
0.044,0.036
0.042,0.039
0.042,0.038
0.041,0.042
0.039,0.040
0.044,0.039
0.042,0.039
0.043,0.040
0.043,0.039
0.045,0.039
0.044,0.040
0.045,0.041
0.040,0.042
0.042,0.044
0.039,0.044
0.042,0.045
0.040,0.046
0.043,0.044
0.048,0.046
0.045,0.040
0.046,0.043
0.043,0.045
0.043,0.045
0.042,0.048
0.043,0.048
0.039,0.049
0.042,0.048
0.043,0.048
0.043,0.048
0.045,0.049
0.045,0.046
0.044,0.045
0.044,0.049
0.042,0.047
0.042,0.049
0.041,0.046
0.046,0.049
0.044,0.044
0.047,0.043
0.043,0.043
0.046,0.041
0.045,0.040
0.045,0.039
0.046,0.039
0.046,0.037
0.047,0.040
0.046,0.038
0.046,0.038
0.044,0.036
0.049,0.034
0.047,0.033
0.047,0.034
0.047,0.036
0.045,0.034
0.045,0.033
0.045,0.034
0.046,0.034
0.047,0.028
0.046,0.030
0.045,0.024
0.046,0.027
0.043,0.023
0.046,0.028
0.045,0.024
0.047,0.026
0.046,0.020
0.049,0.022
0.048,0.016
0.051,0.013
0.049,0.014
0.049,0.014
0.046,0.014
0.047,0.012
0.045,0.011
0.047,0.011
0.044,0.010
0.044,0.011
0.043,0.014
0.047,0.012
0.044,0.012
0.048,0.010
0.045,0.011
0.043,0.007
0.045,0.008
0.048,0.004
0.048,0.006
0.047,0.003
0.047,0.005
0.045,0.005
0.045,0.006
0.043,0.007
0.045,0.004
0.047,0.004
0.046,0.004
0.049,0.006
0.049,0.002
0.046,-0.001
0.046,0.000
0.047,-0.002
0.047,0.002
0.045,0.001
0.043,0.001
0.046,-0.000
0.044,-0.003
0.043,-0.003
0.042,-0.003
0.044,0.000
0.043,-0.001
0.043,0.001
0.044,-0.001
0.045,-0.003
0.044,-0.003
0.045,-0.003
0.042,-0.001
0.045,-0.003
0.044,0.000
0.044,0.002
0.044,-0.000
0.044,0.003
0.042,0.003
0.043,0.003
0.041,0.006
0.043,0.002
0.042,0.004
0.043,0.004
0.042,0.006
0.040,0.003
0.044,0.005
0.042,0.009
0.045,0.006
0.041,0.010
0.043,0.007
0.042,0.008
0.044,0.008
0.043,0.010
0.043,0.009
0.044,0.012
0.045,0.011
0.042,0.011
0.040,0.017
0.040,0.014
0.037,0.014
0.039,0.016
0.039,0.017
0.041,0.017
0.041,0.016
0.041,0.016
0.038,0.018
0.040,0.018
0.038,0.021
0.040,0.023
0.038,0.025
0.040,0.024
0.037,0.026
0.039,0.028
0.041,0.030
0.042,0.031
0.043,0.031
0.041,0.031
0.041,0.030
0.039,0.032
0.039,0.032
0.040,0.030
0.041,0.032
0.040,0.032
0.037,0.033
0.041,0.034
0.039,0.035
0.039,0.037
0.038,0.037
0.038,0.037
0.040,0.037
0.041,0.039
0.042,0.039
0.040,0.038
0.043,0.039
0.042,0.039
0.043,0.041
0.040,0.040
0.040,0.045
0.037,0.044
0.039,0.048
0.038,0.045
0.041,0.046
0.039,0.044
0.042,0.046
0.039,0.045
0.042,0.043
0.044,0.043
0.044,0.041
0.043,0.045
0.042,0.045
0.041,0.048
0.041,0.046
0.041,0.047
0.041,0.045
0.044,0.045
0.042,0.047
0.045,0.046
0.042,0.049
0.044,0.047
0.045,0.046
0.044,0.045
0.042,0.044
0.046,0.042
0.044,0.041
0.045,0.041
0.045,0.039
0.045,0.038
0.044,0.037
0.044,0.039
0.044,0.038
0.043,0.039
0.041,0.041
0.042,0.037
0.041,0.036
0.044,0.034
0.044,0.032
0.044,0.032
0.046,0.034
0.046,0.030
0.045,0.034
0.045,0.031
0.046,0.030
0.045,0.028
0.046,0.032
0.045,0.028
0.047,0.029
0.045,0.027
0.049,0.026
0.046,0.023
0.047,0.021
0.048,0.022
0.047,0.019
0.048,0.019
0.050,0.018
0.049,0.013
0.049,0.016
0.050,0.014
0.049,0.012
0.047,0.013
0.047,0.010
0.045,0.015
0.046,0.011
0.045,0.014
0.046,0.010
0.046,0.010
0.046,0.008
0.049,0.007
0.046,0.005
0.050,0.006
0.049,0.007
0.047,0.004
0.047,0.008
0.046,0.003
0.044,0.005
0.044,0.005
0.045,0.003
0.043,0.003
0.049,0.001
0.049,-0.000
0.052,0.000
0.050,0.000
0.049,0.000
0.045,0.001
0.047,-0.002
0.043,-0.001
0.045,-0.004
0.043,-0.003
0.045,-0.006
0.045,-0.003
0.043,-0.004
0.046,-0.003
0.044,0.002
0.046,-0.000
0.041,-0.000
0.045,-0.003
0.043,-0.002
0.041,-0.004
0.044,-0.002
0.045,-0.005
0.045,-0.003
0.043,-0.002
0.042,-0.002
0.042,0.002
0.040,0.003
0.040,0.005
0.039,0.004
0.044,0.004
0.042,0.004
0.046,0.004
0.043,0.007
0.043,0.006
0.045,0.010
0.044,0.008
0.042,0.010
0.042,0.008
0.044,0.010
0.042,0.011
0.045,0.012
0.044,0.012
0.043,0.013
0.043,0.016
0.041,0.016
0.038,0.018
0.039,0.018
0.039,0.017
0.042,0.019
0.042,0.016
0.044,0.017
0.047,0.018
0.044,0.018
0.043,0.020
0.042,0.020
0.043,0.023
0.042,0.022
0.041,0.024
0.038,0.022
0.039,0.026
0.037,0.024
0.042,0.029
0.036,0.029
0.038,0.030
0.038,0.030
0.041,0.032
0.040,0.030
0.042,0.032
0.041,0.030
0.039,0.034
0.037,0.032
0.038,0.034
0.038,0.037
0.041,0.039
0.040,0.040
0.042,0.039
0.038,0.040
0.039,0.038
0.038,0.041
0.041,0.035
0.040,0.040
0.041,0.036
0.041,0.035
0.040,0.038
0.040,0.040
0.036,0.041
0.036,0.039
0.035,0.042
0.036,0.041
0.038,0.046
0.037,0.043
0.039,0.047
0.038,0.043
0.040,0.044
0.039,0.044
0.039,0.040
0.038,0.042
0.040,0.041
0.037,0.044
0.038,0.044
0.041,0.044
0.037,0.040
0.043,0.043
0.039,0.043
0.041,0.042
0.038,0.048
0.040,0.046
0.037,0.050
0.040,0.044
0.040,0.045
0.041,0.042
0.045,0.040
0.043,0.038
0.045,0.038
0.042,0.040
0.044,0.040
0.042,0.042
0.040,0.039
0.038,0.039
0.039,0.036
0.044,0.035
0.044,0.035
0.044,0.033
0.044,0.039
0.041,0.033
0.043,0.036
0.043,0.031
0.044,0.033
0.042,0.030
0.043,0.030
0.040,0.029
0.044,0.025
0.041,0.025
0.043,0.023
0.044,0.026
0.041,0.023
0.045,0.025
0.045,0.023
0.046,0.021
0.045,0.021
0.046,0.022
0.045,0.018
0.047,0.017
0.046,0.015
0.043,0.017
0.045,0.014
0.042,0.015
0.042,0.014
0.043,0.017
0.043,0.013
0.042,0.014
0.043,0.011
0.047,0.011
0.046,0.010
0.048,0.009
0.045,0.005
0.049,0.006
0.046,0.006
0.046,0.003
0.047,0.008
0.045,0.004
0.043,0.007
0.044,0.005
0.047,0.004
0.043,0.001
0.048,0.004
0.045,0.002
0.047,0.002
0.046,0.002
0.047,0.002
0.047,0.002
0.045,-0.000
0.044,0.000
0.044,0.001
0.044,-0.003
0.044,-0.003
0.045,-0.001
0.046,-0.003
0.044,-0.000
0.044,0.002
0.041,0.001
0.044,0.000
0.043,0.001
0.044,-0.000
0.044,-0.000
0.045,-0.001
0.046,-0.003
0.045,-0.002
0.047,0.000
0.044,0.000
0.047,0.001
0.043,0.000
0.042,0.003
0.044,0.001
0.045,0.004
0.043,0.001
0.045,0.005
0.044,0.005
0.045,0.004
0.042,0.007
0.043,0.006
0.042,0.009
0.041,0.006
0.041,0.010
0.041,0.011
0.042,0.010
0.041,0.010
0.044,0.010
0.042,0.009
0.043,0.011
0.043,0.014
0.042,0.014
0.039,0.017
0.043,0.015
0.039,0.013
0.042,0.013
0.044,0.017
0.045,0.018
0.046,0.017
0.044,0.018
0.041,0.019
0.041,0.018
0.042,0.019
0.041,0.021
0.042,0.023
0.040,0.023
0.044,0.027
0.042,0.025
0.044,0.030
0.043,0.028
0.044,0.028
0.042,0.028
0.045,0.030
0.043,0.032
0.044,0.029
0.042,0.031
0.041,0.031
0.037,0.032
0.038,0.035
0.037,0.035
0.039,0.036
0.038,0.036
0.039,0.035
0.041,0.036
0.040,0.036
0.040,0.037
0.040,0.036
0.042,0.040
0.041,0.039
0.041,0.042
0.036,0.041
0.038,0.038
0.039,0.044
0.040,0.043
0.040,0.046
0.038,0.044
0.039,0.045
0.041,0.047
0.040,0.045
0.042,0.047
0.040,0.047
0.039,0.049
0.038,0.044
0.040,0.042
0.040,0.043
0.043,0.041
0.041,0.041
0.042,0.044
0.042,0.045
0.042,0.045
0.040,0.049
0.041,0.047
0.040,0.047
0.041,0.047
0.041,0.046
0.043,0.044
0.043,0.044
0.045,0.041
0.042,0.039
0.042,0.041
0.040,0.041
0.038,0.044
0.041,0.041
0.039,0.042
0.041,0.039
0.043,0.038
0.044,0.035
0.045,0.037
0.043,0.034
0.043,0.034
0.041,0.036
0.046,0.031
0.042,0.035
0.044,0.033
0.045,0.035
0.044,0.032
0.047,0.032
0.044,0.030
0.045,0.030
0.043,0.027
0.044,0.026
0.043,0.028
0.046,0.025
0.042,0.026
0.046,0.021
0.042,0.022
0.045,0.020
0.045,0.019
0.046,0.019
0.048,0.018
0.044,0.016
0.049,0.016
0.046,0.016
0.047,0.014
0.045,0.013
0.048,0.012
0.042,0.012
0.045,0.011
0.046,0.008
0.049,0.008
0.049,0.006
0.048,0.008
0.046,0.007
0.048,0.005
0.042,0.006
0.047,0.006
0.040,0.003
0.044,0.003
0.042,0.002
0.043,0.001
0.046,0.004
0.046,0.000
0.049,0.001
0.046,0.004
0.047,0.004
0.045,0.006
0.045,0.002
0.045,-0.001
0.044,-0.002
0.045,-0.001
0.045,-0.004
0.047,-0.003
0.044,-0.004
0.046,-0.005
0.047,-0.001
0.046,-0.004
0.042,-0.001
0.041,-0.002
0.044,-0.002
0.042,-0.004
0.046,-0.003
0.044,-0.004
0.045,-0.004
0.045,-0.000
0.046,-0.002
0.044,0.003
0.041,0.001
0.041,0.002
0.040,0.001
0.046,0.003
0.042,0.001
0.046,0.002
0.044,0.003
0.046,0.002
0.042,0.007
0.043,0.004
0.038,0.007
0.039,0.008
0.039,0.007
0.039,0.008
0.042,0.007
0.040,0.009
0.043,0.010
0.041,0.009
0.040,0.009
0.043,0.013
0.039,0.013
0.037,0.014
0.038,0.017
0.039,0.016
0.038,0.017
0.040,0.015
0.041,0.015
0.043,0.016
0.043,0.015
0.040,0.018
0.042,0.015
0.040,0.019
0.041,0.017
0.038,0.019
0.039,0.019
0.037,0.020
0.039,0.023
0.039,0.026
0.039,0.030
0.042,0.030
0.040,0.034
0.041,0.031
0.043,0.032
0.041,0.031
0.042,0.033
0.038,0.034
0.041,0.036
0.039,0.035
0.038,0.035
0.041,0.037
0.040,0.038
0.040,0.037
0.040,0.038
0.043,0.038
0.042,0.040
0.042,0.040
0.041,0.037
0.043,0.042
0.040,0.038
0.039,0.040
0.041,0.039
0.041,0.040
0.040,0.038
0.043,0.041
0.041,0.041
0.040,0.042
0.039,0.047
0.041,0.047
0.037,0.048
0.039,0.046
0.043,0.049
0.041,0.047
0.044,0.047
0.042,0.043
0.046,0.043
0.044,0.041
0.044,0.043
0.041,0.047
0.044,0.045
0.043,0.049
0.042,0.047
0.042,0.049
0.041,0.047
0.042,0.046
0.044,0.046
0.039,0.045
0.041,0.047
0.039,0.042
0.043,0.046
0.041,0.044
0.043,0.042
0.041,0.041
0.044,0.040
0.041,0.041
0.045,0.037
0.042,0.039
0.043,0.039
0.041,0.037
0.041,0.038
0.041,0.040
0.041,0.036
0.043,0.036
0.043,0.034
0.046,0.036
0.045,0.034
0.047,0.033
0.047,0.029
0.044,0.032
0.042,0.033
0.044,0.028
0.040,0.031
0.044,0.026
0.042,0.027
0.045,0.026
0.043,0.026
0.044,0.024
0.045,0.026
0.043,0.023
0.048,0.023
0.045,0.022
0.049,0.017
0.046,0.017
0.049,0.018
0.048,0.013
0.049,0.015
0.049,0.013
0.049,0.013
0.049,0.011
0.050,0.013
0.050,0.011
0.050,0.013
0.047,0.013
0.049,0.012
0.045,0.010
0.049,0.007
0.047,0.009
0.047,0.005
0.048,0.005
0.047,0.005
0.047,0.007
0.046,0.005
0.045,0.006
0.046,0.008
0.044,0.005
0.040,0.007
0.044,0.007
0.045,0.006
0.048,0.003
0.049,0.003
0.046,0.001
0.046,0.002
0.045,0.002
0.045,0.004
0.043,0.003
0.047,0.002
0.043,0.001
0.043,-0.001
0.046,0.003
0.045,-0.001
0.048,0.001
0.047,0.001
0.045,0.000
0.041,0.004
0.044,0.003
0.046,0.007
0.044,0.005
0.048,0.004
0.046,0.002
0.048,0.002
0.044,0.006
0.045,0.004
0.043,0.006
0.047,0.004
0.044,0.008
0.044,0.009
0.042,0.010
0.045,0.008
0.047,0.009
0.047,0.011
0.046,0.010
0.044,0.012
0.046,0.011
0.043,0.013
0.046,0.012
0.047,0.014
0.044,0.014
0.046,0.014
0.043,0.014
0.045,0.015
0.044,0.016
0.045,0.016
0.043,0.017
0.045,0.016
0.043,0.021
0.043,0.017
0.047,0.023
0.043,0.022
0.042,0.024
0.039,0.022
0.038,0.023
0.038,0.021
0.039,0.024
0.038,0.024
0.038,0.029
0.039,0.029
0.039,0.033
0.040,0.030
0.039,0.033
0.039,0.032
0.041,0.033
0.039,0.033
0.041,0.034
0.039,0.035
0.041,0.036
0.039,0.036
0.042,0.038
0.041,0.038
0.041,0.039
0.040,0.039
0.041,0.038
0.040,0.041
0.042,0.038
0.041,0.040
0.039,0.040
0.041,0.041
0.038,0.039
0.041,0.042
0.038,0.042
0.040,0.039
0.037,0.041
0.039,0.044
0.035,0.047
0.039,0.046
0.036,0.049
0.038,0.048
0.040,0.047
0.040,0.047
0.043,0.049
0.042,0.048
0.041,0.047
0.043,0.045
0.040,0.045
0.041,0.046
0.040,0.048
0.037,0.048
0.042,0.047
0.041,0.048
0.041,0.044
0.043,0.049
0.045,0.047
0.045,0.047
0.046,0.049
0.046,0.049
0.046,0.050
0.044,0.046
0.043,0.049
0.044,0.045
0.045,0.044
0.044,0.041
0.046,0.045
0.045,0.040
0.045,0.042
0.044,0.041
0.047,0.040
0.043,0.041
0.046,0.038
0.045,0.038
0.044,0.036
0.045,0.037
0.046,0.034
0.045,0.034
0.046,0.035
0.047,0.033
0.043,0.032
0.047,0.030
0.044,0.031
0.046,0.031
0.047,0.032
0.045,0.028
0.044,0.027
0.042,0.027
0.046,0.027
0.043,0.025
0.044,0.024
0.045,0.024
0.045,0.020
0.046,0.017
0.045,0.017
0.048,0.017
0.044,0.016
0.045,0.017
0.047,0.015
0.043,0.017
0.049,0.014
0.044,0.013
0.048,0.013
0.042,0.014
0.044,0.012
0.041,0.010
0.047,0.012
0.044,0.012
0.043,0.010
0.045,0.008
0.046,0.008
0.045,0.007
0.043,0.009
0.043,0.007
0.043,0.008
0.044,0.005
0.045,0.006
0.044,0.002
0.049,0.004
0.048,0.002
0.049,0.005
0.048,0.004
0.050,0.001
0.044,0.002
0.048,-0.001
0.046,-0.001
0.045,-0.005
0.048,-0.001
0.047,-0.003
0.046,0.001
0.047,0.001
0.047,0.001
0.045,0.002
0.045,0.004
0.042,0.003
0.045,0.000
0.047,0.001
0.047,-0.000
0.049,0.002
0.046,0.005
0.047,0.002
0.045,0.005
0.042,0.003
0.043,0.005
0.043,0.007
0.046,0.006
0.043,0.005
0.047,0.006
0.045,0.008
0.044,0.008
0.044,0.010
0.043,0.009
0.041,0.014
0.040,0.011
0.041,0.015
0.039,0.015
0.043,0.014
0.041,0.014
0.047,0.015
0.045,0.014
0.044,0.015
0.043,0.016
0.043,0.015
0.042,0.018
0.047,0.018
0.043,0.019
0.043,0.017
0.045,0.019
0.043,0.019
0.045,0.020
0.044,0.023
0.043,0.021
0.043,0.023
0.042,0.024
0.042,0.027
0.042,0.030
0.042,0.028
0.040,0.030
0.040,0.031
0.040,0.034
0.039,0.033
0.041,0.035
0.041,0.032
0.043,0.033
0.040,0.033
0.044,0.034
0.040,0.034
0.044,0.036
0.044,0.036
0.044,0.037
0.043,0.035
0.042,0.036
0.040,0.040
0.042,0.042
0.039,0.042
0.042,0.040
0.041,0.043
0.042,0.041
0.044,0.044
0.043,0.042
0.042,0.043
0.038,0.042
0.042,0.043
0.040,0.045
0.042,0.044
0.040,0.045
0.040,0.045
0.043,0.046
0.043,0.044
0.042,0.047
0.041,0.046
0.041,0.048
0.042,0.049
0.041,0.045
0.040,0.048
0.041,0.044
0.038,0.047
0.039,0.045
0.042,0.048
0.039,0.049
0.042,0.049
0.041,0.046
0.041,0.049
0.038,0.051
0.041,0.049
0.040,0.053
0.042,0.046
0.041,0.049
0.041,0.045
0.044,0.045
0.040,0.043
0.044,0.042
0.042,0.043
0.045,0.042
0.045,0.043
0.043,0.041
0.041,0.040
0.043,0.042
0.043,0.043
0.043,0.040
0.043,0.038
0.045,0.038
0.043,0.036
0.046,0.035
0.045,0.034
0.043,0.036
0.042,0.033
0.043,0.035
0.044,0.032
0.047,0.030
0.044,0.030
0.045,0.028
0.046,0.028
0.045,0.028
0.047,0.030
0.045,0.029
0.049,0.028
0.046,0.023
0.049,0.023
0.050,0.021
0.050,0.021
0.047,0.018
0.048,0.021
0.046,0.019
0.043,0.020
0.044,0.016
0.045,0.017
0.047,0.013
0.045,0.015
0.042,0.013
0.045,0.013
0.043,0.013
0.047,0.010
0.049,0.009
0.045,0.009
0.046,0.009
0.045,0.009
0.046,0.011
0.045,0.010
0.044,0.010
0.045,0.009
0.044,0.009
0.044,0.006
0.048,0.007
0.046,0.005
0.046,0.006
0.044,0.008
0.047,0.006
0.043,0.007
0.046,0.006
0.045,0.003
0.044,0.000
0.045,-0.000
0.049,-0.002
0.046,-0.002
0.046,-0.001
0.045,-0.001
0.045,0.003
0.046,0.000
0.045,0.002
0.043,-0.001
0.044,-0.002
0.043,-0.003
0.045,-0.001
0.044,-0.000
0.044,0.000
0.045,0.002
0.044,0.003
0.042,0.002
0.043,0.004
0.040,0.005
0.042,0.005
0.043,0.004
0.043,0.003
0.044,0.008
0.040,0.008
0.042,0.008
0.041,0.009
0.044,0.008
0.039,0.011
0.039,0.008
0.038,0.010
0.038,0.009
0.041,0.012
0.039,0.010
0.044,0.011
0.043,0.013
0.043,0.013
0.042,0.018
0.042,0.016
0.040,0.018
0.041,0.018
0.043,0.018
0.041,0.016
0.045,0.018
0.041,0.019
0.042,0.019
0.041,0.020
0.044,0.019
0.044,0.020
0.044,0.020
0.043,0.022
0.042,0.026
0.041,0.024
0.041,0.026
0.043,0.028
0.041,0.033
0.042,0.030
0.043,0.032
0.042,0.032
0.044,0.033
0.042,0.032
0.045,0.034
0.040,0.037
0.044,0.036
0.041,0.039
0.043,0.037
0.040,0.041
0.039,0.041
0.043,0.041
0.042,0.040
0.047,0.039
0.047,0.039
0.045,0.037
0.046,0.043
0.049,0.040
0.046,0.042
0.045,0.043
0.045,0.043
0.045,0.044
0.046,0.044
0.044,0.043
0.046,0.044
0.042,0.045
0.044,0.047
0.044,0.048
0.045,0.046
0.045,0.048
0.043,0.045
0.044,0.049
0.044,0.046
0.046,0.047
0.046,0.046
0.045,0.047
0.044,0.045
0.047,0.047
0.043,0.048
0.046,0.049
0.040,0.050
0.045,0.050
0.044,0.049
0.045,0.046
0.046,0.049
0.047,0.044
0.046,0.048
0.046,0.046
0.047,0.046
0.047,0.046
0.045,0.046
0.041,0.049
0.047,0.047
0.040,0.046
0.043,0.042
0.047,0.042
0.044,0.040
0.049,0.039
0.049,0.040
0.046,0.037
0.044,0.041
0.045,0.037
0.047,0.039
0.047,0.037
0.050,0.035
0.047,0.032
0.051,0.031
0.047,0.034
0.049,0.029
0.048,0.034
0.048,0.030
0.045,0.031
0.045,0.028
0.046,0.030
0.044,0.024
0.047,0.025
0.047,0.024
0.048,0.023
0.049,0.022
0.051,0.023
0.050,0.020
0.050,0.021
0.052,0.016
0.049,0.018
0.049,0.014
0.049,0.017
0.048,0.013
0.050,0.013
0.048,0.015
0.050,0.013
0.046,0.014
0.048,0.012
0.047,0.015
0.046,0.010
0.047,0.012
0.045,0.008
0.048,0.008
0.047,0.006
0.048,0.007
0.049,0.007
0.049,0.005
0.048,0.007
0.048,0.006
0.046,0.007
0.049,0.005
0.047,0.006
0.049,0.003
0.050,0.005
0.048,-0.000
0.049,0.004
0.049,0.000
0.047,0.002
0.045,0.004
0.047,0.004
0.044,0.004
0.045,0.003
0.046,0.003
0.043,0.002
0.046,0.003
0.048,0.002
0.049,-0.001
0.048,0.000
0.047,-0.002
0.047,0.002
0.047,0.001
0.046,0.001
0.047,0.001
0.046,0.003
0.047,-0.000
0.049,0.004
0.048,0.004
0.049,0.002
0.045,0.008
0.045,0.006
0.043,0.009
0.044,0.009
0.044,0.011
0.041,0.010
0.045,0.012
0.045,0.009
0.047,0.011
0.045,0.012
0.046,0.009
0.044,0.012
0.041,0.012
0.039,0.015
0.041,0.015
0.041,0.017
0.043,0.017
0.045,0.017
0.046,0.019
0.044,0.017
0.047,0.018
0.046,0.018
0.045,0.019
0.045,0.020
0.041,0.023
0.044,0.022
0.041,0.026
0.044,0.023
0.041,0.026
0.042,0.024
0.040,0.030
0.041,0.027
0.039,0.032
0.039,0.031
0.039,0.034
0.040,0.036
0.041,0.033
0.041,0.034
0.043,0.036
0.044,0.032
0.043,0.033
0.044,0.032
0.043,0.035
0.043,0.035
0.043,0.037
0.042,0.036
0.042,0.038
0.041,0.041
0.043,0.041
0.040,0.040
0.043,0.037
0.039,0.041
0.041,0.039
0.042,0.039
0.043,0.039
0.044,0.041
0.042,0.041
0.042,0.041
0.041,0.047
0.041,0.043
0.043,0.049
0.042,0.046
0.045,0.047
0.043,0.046
0.047,0.044
0.043,0.043
0.048,0.043
0.043,0.043
0.043,0.040
0.040,0.045
0.040,0.044
0.038,0.047
0.037,0.046
0.040,0.047
0.038,0.047
0.043,0.045
0.040,0.046
0.041,0.046
0.041,0.048
0.043,0.046
0.040,0.049
0.042,0.045
0.041,0.047
0.041,0.046
0.046,0.044
0.044,0.041
0.047,0.040
0.044,0.042
0.044,0.042
0.043,0.043
0.043,0.042
0.045,0.041
0.045,0.042
0.047,0.037
0.046,0.040
0.047,0.039
0.046,0.038
0.045,0.037
0.047,0.037
0.045,0.034
0.043,0.034
0.042,0.034
0.044,0.036
0.042,0.034
0.047,0.033
0.047,0.026
0.051,0.028
0.049,0.024
0.051,0.023
0.047,0.023
0.049,0.021
0.052,0.023
0.051,0.019
0.049,0.020
0.047,0.017
0.048,0.016
0.046,0.012
0.049,0.014
0.047,0.012
0.047,0.014
0.045,0.014
0.047,0.015
0.046,0.012
0.047,0.015
0.047,0.013
0.049,0.010
0.048,0.012
0.048,0.010
0.047,0.008
0.049,0.008
0.048,0.004
0.048,0.006
0.046,0.006
0.046,0.005
0.044,0.008
0.045,0.006
0.047,0.006
0.044,0.007
0.047,0.008
0.048,0.005
0.047,0.004
0.049,0.005
0.046,0.002
0.047,0.005
0.046,0.001
0.046,0.002
0.043,0.001
0.046,0.000
0.041,0.000
0.045,0.001
0.045,0.000
0.043,-0.001
0.045,0.004
0.042,0.004
0.043,0.005
0.042,0.006
0.043,0.004
0.044,0.002
0.046,0.002
0.045,0.003
0.044,0.004
0.044,0.006
0.044,0.005
0.043,0.007
0.042,0.008
0.040,0.010
0.042,0.008
0.044,0.009
0.041,0.006
0.044,0.008
0.044,0.006
0.045,0.008
0.045,0.009
0.045,0.009
0.040,0.012
0.043,0.010
0.041,0.012
0.040,0.009
0.040,0.012
0.041,0.010
0.044,0.012
0.041,0.014
0.042,0.014
0.041,0.017
0.040,0.018
0.040,0.021
0.041,0.016
0.039,0.020
0.040,0.017
0.040,0.019
0.039,0.022
0.041,0.021
0.038,0.020
0.041,0.019
0.034,0.022
0.034,0.024
0.035,0.025
0.036,0.031
0.035,0.027
0.038,0.031
0.039,0.030
0.039,0.033
0.039,0.032
0.036,0.033
0.036,0.032
0.039,0.031
0.036,0.033
0.038,0.034
0.038,0.034
0.037,0.034
0.041,0.037
0.036,0.034
0.036,0.038
0.037,0.036
0.038,0.038
0.038,0.039
0.036,0.039
0.037,0.038
0.040,0.040
0.036,0.039
0.040,0.040
0.039,0.037
0.038,0.038
0.039,0.042
0.036,0.043
0.036,0.046
0.036,0.046
0.036,0.045
0.036,0.046
0.040,0.047
0.041,0.046
0.040,0.045
0.041,0.045
0.039,0.047
0.038,0.047
0.044,0.047
0.037,0.047
0.041,0.045
0.042,0.046
0.039,0.043
0.041,0.046
0.039,0.045
0.037,0.042
0.038,0.046
0.040,0.046
0.038,0.047
0.043,0.047
0.040,0.047
0.040,0.044
0.039,0.046
0.041,0.043
0.045,0.041
0.042,0.041
0.045,0.040
0.043,0.041
0.042,0.037
0.040,0.040
0.043,0.037
0.044,0.037
0.041,0.033
0.043,0.036
0.042,0.031
0.042,0.031
0.043,0.032
0.044,0.032
0.040,0.034
0.041,0.031
0.043,0.033
0.042,0.029
0.048,0.030
0.045,0.029
0.045,0.026
0.045,0.026
0.046,0.027
0.043,0.027
0.045,0.027
0.047,0.024
0.046,0.024
0.046,0.023
0.049,0.020
0.045,0.021
0.046,0.015
0.047,0.017
0.047,0.013
0.045,0.016
0.046,0.013
0.045,0.013
0.044,0.010
0.046,0.010
0.043,0.008
0.046,0.007
0.044,0.007
0.048,0.006
0.046,0.006
0.047,0.006
0.049,0.003
0.047,0.003
0.046,0.006
0.047,0.004
0.046,0.005
0.046,0.003
0.043,0.003
0.045,0.002
0.044,0.002
0.047,0.000
0.050,0.002
0.048,0.002
0.049,0.001
0.047,0.002
0.047,0.001
0.045,0.001
0.045,0.000
0.043,-0.001
0.043,-0.003
0.044,0.000
0.044,-0.002
0.046,0.001
0.043,0.002
0.044,-0.000
0.043,0.003
0.043,-0.001
0.041,0.002
0.042,-0.001
0.042,0.002
0.042,-0.001
0.046,0.000
0.043,0.000
0.045,0.003
0.040,0.003
0.042,0.001
0.038,0.006
0.041,0.002
0.040,0.006
0.040,0.005
0.043,0.006
0.039,0.006
0.046,0.006
0.042,0.003
0.047,0.006
0.043,0.008
0.045,0.008
0.043,0.012
0.045,0.011
0.043,0.013
0.043,0.011
0.047,0.011
0.045,0.013
0.047,0.012
0.045,0.013
0.042,0.013
0.043,0.016
0.043,0.016
0.042,0.019
0.043,0.017
0.043,0.018
0.039,0.017
0.041,0.019
0.040,0.020
0.043,0.018
0.040,0.023
0.041,0.024
0.042,0.024
0.041,0.025
0.042,0.028
0.040,0.030
0.040,0.030
0.041,0.031
0.040,0.031
0.043,0.032
0.040,0.032
0.044,0.033
0.040,0.033
0.042,0.033
0.042,0.033
0.041,0.035
0.042,0.033
0.040,0.036
0.041,0.039
0.042,0.039
0.038,0.039
0.039,0.038
0.039,0.038
0.038,0.039
0.041,0.040
0.039,0.036
0.041,0.042
0.044,0.040
0.042,0.041
0.043,0.045
0.040,0.043
0.039,0.047
0.038,0.048
0.036,0.047
0.038,0.045
0.041,0.047
0.041,0.045
0.043,0.047
0.042,0.045
0.044,0.046
0.039,0.046
0.043,0.045
0.039,0.047
0.042,0.046
0.040,0.047
0.038,0.043
0.041,0.047
0.039,0.042
0.041,0.043
0.041,0.043
0.041,0.042
0.040,0.045
0.043,0.045
0.042,0.047
0.041,0.045
0.042,0.043
0.041,0.041
0.044,0.040
0.044,0.039
0.045,0.038
0.045,0.042
0.043,0.038
0.044,0.040
0.044,0.040
0.045,0.039
0.043,0.038
0.047,0.038
0.046,0.036
0.045,0.035
0.045,0.034
0.046,0.033
0.046,0.035
0.043,0.032
0.041,0.031
0.040,0.028
0.043,0.030
0.043,0.026
0.045,0.029
0.046,0.026
0.046,0.028
0.045,0.026
0.044,0.024
0.044,0.024
0.046,0.024
0.044,0.025
0.047,0.021
0.044,0.023
0.047,0.018
0.045,0.017
0.051,0.013
0.047,0.014
0.050,0.011
0.047,0.014
0.049,0.011
0.049,0.013
0.045,0.012
0.045,0.013
0.047,0.010
0.049,0.009
0.046,0.008
0.050,0.006
0.050,0.005
0.053,0.006
0.050,0.003
0.051,0.006
0.049,0.005
0.052,0.006
0.046,0.006
0.048,0.004
0.047,0.003
0.047,-0.001
0.046,0.004
0.046,0.000
0.045,0.000
0.049,0.001
0.048,0.000
0.048,0.002
0.048,-0.003
0.047,-0.002
0.049,-0.003
0.047,-0.004
0.047,-0.006
0.049,-0.003
0.050,-0.002
0.051,-0.003
0.049,0.001
0.047,-0.002
0.045,-0.003
0.045,-0.003
0.044,-0.004
0.046,-0.007
0.046,-0.003
0.046,-0.005
0.048,-0.003
0.046,-0.002
0.046,-0.002
0.042,0.001
0.045,0.000
0.042,0.002
0.044,0.001
0.044,0.004
0.042,0.001
0.045,0.004
0.043,0.002
0.045,0.004
0.044,0.006
0.044,0.006
0.041,0.008
0.043,0.006
0.042,0.008
0.045,0.009
0.045,0.012
0.044,0.010
0.045,0.010
0.047,0.010
0.046,0.010
0.045,0.015
0.045,0.012
0.044,0.017
0.043,0.013
0.043,0.014
0.041,0.013
0.043,0.013
0.044,0.015
0.046,0.015
0.045,0.014
0.045,0.017
0.045,0.017
0.043,0.020
0.043,0.017
0.043,0.021
0.043,0.022
0.044,0.025
0.042,0.027
0.043,0.028
0.040,0.028
0.044,0.029
0.042,0.029
0.043,0.029
0.042,0.034
0.042,0.032
0.043,0.034
0.040,0.032
0.043,0.032
0.039,0.034
0.041,0.039
0.040,0.038
0.039,0.036
0.040,0.038
0.043,0.038
0.044,0.037
0.041,0.040
0.041,0.037
0.042,0.038
0.041,0.038
0.040,0.038
0.039,0.043
0.041,0.039
0.039,0.043
0.039,0.039
0.044,0.043
0.041,0.044
0.042,0.046
0.040,0.045
0.042,0.046
0.042,0.045
0.045,0.044
0.042,0.045
0.044,0.045
0.040,0.043
0.043,0.044
0.041,0.046
0.044,0.043
0.043,0.048
0.043,0.043
0.042,0.045
0.043,0.047
0.042,0.046
0.041,0.045
0.042,0.043
0.041,0.044
0.041,0.040
0.044,0.040
0.043,0.038
0.044,0.040
0.044,0.041
0.043,0.039
0.043,0.043
0.043,0.040
0.039,0.043
0.042,0.038
0.044,0.037
0.043,0.036
0.047,0.037
0.047,0.034
0.045,0.033
0.046,0.037
0.044,0.033
0.042,0.033
0.045,0.033
0.047,0.030
0.046,0.030
0.047,0.030
0.046,0.028
0.047,0.028
0.045,0.029
0.046,0.028
0.046,0.026
0.049,0.023
0.046,0.027
0.049,0.023
0.044,0.025
0.048,0.021
0.045,0.022
0.048,0.016
0.046,0.021
0.046,0.013
0.045,0.016
0.047,0.015
0.046,0.014
0.045,0.011
0.045,0.011
0.044,0.012
0.044,0.012
0.045,0.011
0.049,0.011
0.044,0.007
0.049,0.008
0.047,0.006
0.046,0.003
0.045,0.004
0.047,0.005
0.043,0.005
0.046,0.001
0.046,0.005
0.046,0.004
0.046,0.004
0.049,0.000
0.047,0.002
0.047,-0.001
0.047,0.001
0.046,0.004
0.049,0.002
0.043,0.001
0.047,-0.003
0.046,-0.002
0.047,-0.003
0.049,-0.003
0.047,-0.005
0.048,-0.003
0.049,-0.003
0.049,-0.002
0.045,0.001
0.047,-0.002
0.048,0.002
0.045,-0.002
0.049,-0.000
0.047,-0.003
0.050,-0.003
0.048,0.001
0.049,-0.001
0.046,0.003
0.049,0.001
0.046,0.006
0.045,0.003
0.044,0.006
0.043,0.003
0.046,0.008
0.041,0.006
0.044,0.008
0.042,0.006
0.047,0.005
0.041,0.008
0.046,0.008
0.042,0.010
0.046,0.010
0.043,0.013
0.042,0.009
0.045,0.012
0.045,0.012
0.045,0.014
0.045,0.016
0.043,0.014
0.043,0.018
0.044,0.016
0.045,0.018
0.044,0.017
0.046,0.017
0.043,0.014
0.045,0.016
0.043,0.016
0.043,0.020
0.044,0.019
0.043,0.021
0.044,0.020
0.042,0.021
0.042,0.021
0.044,0.025
0.040,0.026
0.041,0.027
0.042,0.028
0.043,0.031
0.042,0.030
0.043,0.029
0.041,0.030
0.043,0.029
0.045,0.033
0.039,0.032
0.042,0.034
0.040,0.031
0.043,0.035
0.042,0.034
0.042,0.035
0.043,0.037
0.043,0.037
0.044,0.039
0.044,0.038
0.043,0.036
0.043,0.036
0.044,0.038
0.041,0.038
0.044,0.038
0.042,0.038
0.041,0.038
0.041,0.039
0.040,0.043
0.040,0.040
0.040,0.044
0.040,0.040
0.043,0.041
0.044,0.044
0.046,0.045
0.041,0.045
0.045,0.044
0.040,0.045
0.042,0.043
0.040,0.043
0.039,0.041
0.041,0.041
0.037,0.040
0.042,0.040
0.040,0.042
0.042,0.042
0.042,0.046
0.042,0.046
0.042,0.048
0.044,0.046
0.043,0.044
0.042,0.044
0.045,0.041
0.042,0.041
0.046,0.039
0.044,0.040
0.045,0.036
0.045,0.041
0.043,0.038
0.045,0.040
0.044,0.037
0.046,0.036
0.046,0.034
0.045,0.034
0.045,0.037
0.045,0.034
0.045,0.035
0.047,0.032
0.049,0.035
0.046,0.030
0.051,0.032
0.049,0.028
0.051,0.030
0.049,0.029
0.050,0.026
0.048,0.025
0.045,0.027
0.045,0.027
0.046,0.026
0.045,0.025
0.046,0.024
0.044,0.023
0.047,0.020
0.046,0.023
0.051,0.019
0.047,0.019
0.049,0.014
0.047,0.014
0.045,0.011
0.046,0.014
0.045,0.013
0.045,0.012
0.043,0.010
0.047,0.010
0.045,0.010
0.047,0.011
0.044,0.008
0.047,0.008
0.048,0.005
0.047,0.006
0.048,0.006
0.048,0.006
0.045,0.005
0.048,0.005
0.045,0.003
0.046,0.002
0.046,0.006
0.046,0.002
0.047,0.003
0.045,0.006
0.047,0.003
0.046,0.003
0.050,0.003
0.047,-0.000
0.048,0.000
0.048,-0.001
0.047,-0.003
0.046,-0.001
0.046,-0.002
0.044,0.000
0.047,0.001
0.046,-0.002
0.045,0.003
0.045,0.000
0.045,0.000
0.045,-0.002
0.048,-0.001
0.046,-0.005
0.045,-0.003
0.045,-0.001
0.042,-0.001
0.045,0.003
0.044,0.001
0.044,0.003
0.045,0.001
0.047,0.001
0.043,0.003
0.045,0.004
0.044,0.005
0.045,0.002
0.043,0.006
0.044,0.004
0.042,0.007
0.043,0.006
0.043,0.009
0.043,0.008
0.044,0.009
0.044,0.010
0.045,0.010
0.042,0.011
0.042,0.011
0.044,0.013
0.040,0.013
0.042,0.013
0.038,0.013
0.041,0.018
0.039,0.014
0.041,0.015
0.043,0.014
0.042,0.014
0.042,0.016
0.043,0.016
0.042,0.016
0.041,0.016
0.040,0.018
0.040,0.018
0.040,0.023
0.039,0.022
0.040,0.026
0.040,0.026
0.043,0.027
0.041,0.027
0.043,0.027
0.043,0.030
0.044,0.029
0.043,0.029
0.042,0.031
0.043,0.030
0.039,0.036
0.038,0.032
0.037,0.038
0.041,0.036
0.039,0.037
0.040,0.037
0.039,0.037
0.041,0.037
0.043,0.036
0.044,0.038
0.043,0.038
0.043,0.041
0.039,0.038
0.039,0.038
0.039,0.040
0.040,0.039
0.036,0.039
0.039,0.041
0.039,0.042
0.039,0.043
0.042,0.046
0.041,0.043
0.042,0.046
0.041,0.043
0.040,0.045
0.039,0.043
0.040,0.044
0.040,0.042
0.041,0.041
0.038,0.040
0.040,0.043
0.041,0.045
0.040,0.045
0.037,0.046
0.039,0.045
0.038,0.048
0.038,0.043
0.039,0.046
0.041,0.041
0.040,0.045
0.041,0.041
0.042,0.041
0.039,0.042
0.041,0.041
0.039,0.044
0.043,0.044
0.039,0.041
0.040,0.039
0.040,0.040
0.041,0.036
0.042,0.038
0.042,0.037
0.041,0.037
0.042,0.039
0.045,0.036
0.040,0.037
0.041,0.035
0.042,0.036
0.042,0.031
0.046,0.031
0.044,0.028
0.047,0.028
0.045,0.027
0.046,0.023
0.042,0.027
0.043,0.023
0.042,0.028
0.045,0.026
0.046,0.025
0.047,0.022
0.046,0.023
0.047,0.017
0.046,0.017
0.045,0.019
0.046,0.016
0.044,0.014
0.044,0.012
0.045,0.011
0.046,0.012
0.043,0.009
0.047,0.011
0.045,0.007
0.048,0.007
0.044,0.004
0.048,0.004
0.046,0.006
0.047,0.002
0.047,0.005
0.048,0.001
0.045,0.006
0.046,0.005
0.047,0.005
0.044,0.003
0.048,0.002
0.046,0.002
0.046,0.001
0.045,-0.001
0.045,-0.001
0.045,0.005
0.049,0.003
0.045,0.005
0.048,0.002
0.049,0.002
0.046,-0.001
0.048,-0.003
0.046,-0.002
0.047,-0.006
0.045,-0.002
0.045,-0.005
0.046,-0.003
0.043,-0.003
0.045,0.000
0.044,-0.000
0.049,-0.001
0.045,-0.003
0.046,-0.004
0.047,-0.002
0.044,-0.003
0.045,-0.001
0.045,-0.005
0.047,-0.002
0.043,-0.002
0.046,-0.003
0.044,-0.001
0.045,0.003
0.043,0.002
0.045,0.001
0.042,0.005
0.045,0.004
0.042,0.007
0.046,0.007
0.044,0.008
0.046,0.007
0.043,0.008
0.043,0.007
0.044,0.010
0.043,0.005
0.044,0.009
0.041,0.010
0.043,0.011
0.040,0.014
0.044,0.015
0.041,0.017
0.042,0.016
0.041,0.016
0.043,0.015
0.043,0.016
0.043,0.015
0.042,0.019
0.046,0.017
0.041,0.018
0.042,0.015
0.042,0.018
0.040,0.018
0.040,0.021
0.039,0.020
0.039,0.023
0.040,0.025
0.040,0.026
0.039,0.026
0.039,0.027
0.037,0.027
0.041,0.029
0.040,0.026
0.039,0.030
0.042,0.030
0.039,0.029
0.040,0.033
0.040,0.034
0.039,0.036
0.040,0.036
0.037,0.037
0.039,0.037
0.039,0.038
0.038,0.037
0.040,0.037
0.040,0.037
0.039,0.040
0.040,0.039
0.040,0.041
0.039,0.043
0.037,0.037
0.037,0.043
0.037,0.040
0.038,0.041
0.037,0.040
0.043,0.043
0.039,0.043
0.042,0.043
0.042,0.046
0.045,0.042
0.040,0.045
0.044,0.040
0.041,0.044
0.043,0.043
0.041,0.043
0.041,0.042
0.044,0.044
0.042,0.044
0.044,0.044
0.038,0.045
0.038,0.045
0.038,0.048
0.038,0.047
0.039,0.046
0.040,0.045
0.042,0.044
0.041,0.044
0.041,0.040
0.043,0.041
0.042,0.041
0.043,0.042
0.042,0.041
0.044,0.042
0.044,0.041
0.043,0.039
0.042,0.038
0.046,0.038
0.042,0.034
0.042,0.036
0.043,0.036
0.040,0.035
0.040,0.033
0.042,0.032
0.043,0.033
0.042,0.030
0.048,0.031
0.044,0.030
0.049,0.027
0.047,0.025
0.048,0.027
0.046,0.024
0.044,0.026
0.044,0.027
0.048,0.026
0.047,0.025
0.049,0.020
0.044,0.022
0.047,0.021
0.045,0.020
0.049,0.017
0.045,0.016
0.046,0.011
0.045,0.016
0.045,0.014
0.042,0.012
0.043,0.010
0.046,0.011
0.045,0.011
0.047,0.010
0.047,0.007
0.050,0.004
0.049,0.002
0.050,0.003
0.048,0.005
0.050,0.004
0.048,0.006
0.048,0.004
0.047,0.005
0.047,0.001
0.049,0.006
0.047,0.003
0.048,0.004
0.047,0.004
0.048,0.001
0.046,0.005
0.049,0.004
0.047,0.002
0.047,-0.001
0.047,-0.002
0.048,-0.003
0.048,-0.003
0.045,-0.004
0.047,-0.003
0.046,0.000
0.046,-0.002
0.045,0.003
0.043,-0.002
0.045,-0.002
0.044,-0.005
0.045,-0.001
0.045,-0.004
0.045,-0.004
0.042,-0.003
0.045,-0.004
0.043,-0.002
0.045,-0.003
0.041,0.002
0.039,-0.000
0.045,0.001
0.039,0.000
0.045,0.003
0.040,0.003
0.041,0.002
0.042,0.006
0.042,0.005
0.042,0.007
0.041,0.008
0.041,0.010
0.041,0.010
0.042,0.008
0.044,0.007
0.044,0.007
0.045,0.007
0.044,0.009
0.046,0.012
0.045,0.012
0.042,0.013
0.043,0.013
0.047,0.015
0.043,0.013
0.046,0.016
0.045,0.015
0.047,0.013
0.045,0.015
0.043,0.017
0.044,0.017
0.043,0.021
0.044,0.017
0.042,0.020
0.041,0.019
0.042,0.021
0.041,0.022
0.039,0.023
0.039,0.028
0.039,0.027
0.042,0.030
0.043,0.031
0.045,0.035
0.041,0.034
0.042,0.037
0.041,0.033
0.042,0.034
0.041,0.035
0.040,0.038
0.041,0.036
0.037,0.036
0.039,0.035
0.039,0.038
0.041,0.037
0.041,0.037
0.041,0.039
0.041,0.039
0.040,0.039
0.041,0.039
0.039,0.043
0.041,0.039
0.039,0.039
0.040,0.039
0.044,0.041
0.041,0.040
0.043,0.043
0.043,0.043
0.044,0.042
0.043,0.045
0.042,0.044
0.040,0.049
0.041,0.044
0.043,0.047
0.041,0.046
0.043,0.049
0.039,0.045
0.047,0.046
0.042,0.046
0.043,0.045
0.041,0.048
0.040,0.047
0.038,0.048
0.040,0.049
0.042,0.046
0.041,0.049
0.045,0.047
0.045,0.044
0.045,0.044
0.048,0.044
0.046,0.041
0.045,0.045
0.045,0.043
0.044,0.039
0.044,0.041
0.045,0.039
0.046,0.038
0.045,0.040
0.048,0.040
0.047,0.039
0.046,0.036
0.045,0.037
0.043,0.039
0.043,0.034
0.041,0.036
0.042,0.032
0.046,0.033
0.044,0.031
0.047,0.034
0.045,0.030
0.045,0.027
0.042,0.033
0.045,0.028
0.042,0.032
0.043,0.030
0.040,0.028
0.043,0.026
0.045,0.028
0.044,0.023
0.045,0.024
0.044,0.023
0.049,0.020
0.044,0.016
0.047,0.017
0.045,0.015
0.047,0.014
0.042,0.011
0.047,0.012
0.045,0.011
0.047,0.016
0.044,0.012
0.047,0.012
0.046,0.007
0.050,0.008
0.046,0.007
0.048,0.003
0.046,0.008
0.049,0.005
0.046,0.005
0.044,0.001
0.047,0.002
0.045,0.002
0.050,0.002
0.046,0.003
0.046,0.001
0.047,0.004
0.046,0.003
0.045,0.005
0.047,0.005
0.047,0.003
0.048,0.001
0.048,0.001
0.047,-0.004
0.047,-0.003
0.046,-0.005
0.044,-0.003
0.043,-0.002
0.043,0.000
0.043,0.000
0.041,0.000
0.045,0.001
0.047,-0.003
0.046,-0.003
0.046,-0.003
0.047,-0.002
0.046,0.001
0.046,0.002
0.046,0.003
0.045,0.001
0.047,0.003
0.042,0.000
0.047,0.002
0.046,0.000
0.047,0.002
0.045,0.004
0.044,0.008
0.041,0.007
0.041,0.006
0.040,0.008
0.041,0.006
0.042,0.008
0.045,0.007
0.044,0.009
0.048,0.010
0.047,0.010
0.043,0.010
0.046,0.012
0.047,0.014
0.045,0.014
0.043,0.015
0.044,0.013
0.041,0.015
0.040,0.017
0.044,0.017
0.044,0.015
0.046,0.017
0.044,0.017
0.042,0.016
0.045,0.018
0.045,0.017
0.043,0.018
0.042,0.022
0.043,0.022
0.041,0.023
0.040,0.022
0.040,0.025
0.037,0.026
0.040,0.029
0.039,0.030
0.041,0.030
0.038,0.031
0.042,0.033
0.038,0.033
0.039,0.032
0.038,0.034
0.041,0.033
0.038,0.037
0.041,0.036
0.041,0.038
0.039,0.039
0.042,0.038
0.041,0.040
0.041,0.038
0.038,0.042
0.041,0.043
0.040,0.045
0.040,0.043
0.040,0.045
0.040,0.040
0.041,0.042
0.041,0.039
0.041,0.039
0.037,0.041
0.044,0.041
0.039,0.046
0.041,0.042
0.036,0.049
0.041,0.046
0.039,0.047
0.038,0.045
0.040,0.047
0.039,0.043
0.043,0.042
0.041,0.045
0.042,0.045
0.040,0.047
0.039,0.045
0.036,0.048
0.042,0.047
0.043,0.047
0.042,0.047
0.043,0.048
0.044,0.049
0.045,0.047
0.044,0.047
0.044,0.044
0.043,0.046
0.043,0.044
0.045,0.044
0.043,0.041
0.046,0.041
0.043,0.040
0.046,0.039
0.043,0.039
0.044,0.039
0.046,0.043
0.046,0.037
0.044,0.041
0.043,0.039
0.044,0.039
0.041,0.037
0.045,0.036
0.046,0.035
0.048,0.033
0.047,0.032
0.049,0.032
0.049,0.035
0.046,0.034
0.043,0.031
0.044,0.030
0.042,0.029
0.046,0.026
0.043,0.027
0.047,0.026
0.046,0.030
0.049,0.026
0.049,0.025
0.046,0.023
0.050,0.024
0.046,0.021
0.051,0.019
0.049,0.018
0.050,0.017
0.047,0.014
0.047,0.015
0.047,0.013
0.048,0.012
0.046,0.011
0.047,0.011
0.042,0.011
0.045,0.013
0.043,0.013
0.046,0.010
0.044,0.010
0.046,0.008
0.044,0.010
0.043,0.006
0.046,0.007
0.043,0.008
0.049,0.008
0.042,0.009
0.046,0.011
0.042,0.011
0.045,0.008
0.044,0.006
0.047,0.003
0.049,0.002
0.049,0.000
0.046,-0.001
0.045,0.002
0.047,0.000
0.045,0.004
0.048,0.001
0.047,0.001
0.043,-0.001
0.047,-0.000
0.046,-0.001
0.049,-0.001
0.047,0.004
0.047,0.000
0.045,0.003
0.046,0.002
0.045,0.004
0.045,0.000
0.046,0.003
0.044,0.002
0.045,0.002
0.043,0.004
0.044,0.003
0.043,0.007
0.043,0.005
0.040,0.007
0.041,0.007
0.041,0.008
0.040,0.007
0.043,0.010
0.043,0.006
0.043,0.008
0.044,0.010
0.043,0.009
0.040,0.013
0.041,0.010
0.039,0.016
0.040,0.013
0.040,0.017
0.040,0.012
0.043,0.013
0.044,0.012
0.045,0.013
0.041,0.012
0.042,0.011
0.041,0.017
0.041,0.015
0.040,0.020
0.041,0.019
0.038,0.023
0.040,0.020
0.040,0.023
0.039,0.022
0.039,0.024
0.039,0.025
0.038,0.028
0.039,0.028
0.038,0.032
0.039,0.028
0.036,0.034
0.041,0.034
0.039,0.035
0.040,0.032
0.041,0.034
0.039,0.032
0.040,0.034
0.039,0.035
0.040,0.036
0.039,0.036
0.041,0.035
0.041,0.037
0.041,0.038
0.041,0.039
0.039,0.037
0.039,0.041
0.040,0.039
0.040,0.042
0.042,0.039
0.040,0.041
0.041,0.041
0.041,0.041
0.038,0.039
0.042,0.039
0.042,0.040
0.044,0.042
0.042,0.046
0.043,0.046
0.041,0.049
0.043,0.047
0.039,0.049
0.041,0.045
0.042,0.046
0.044,0.042
0.043,0.044
0.044,0.044
0.040,0.044
0.041,0.046
0.044,0.044
0.040,0.046
0.041,0.045
0.041,0.045
0.043,0.043
0.045,0.046
0.044,0.042
0.045,0.045
0.045,0.045
0.043,0.041
0.043,0.042
0.043,0.040
0.042,0.041
0.045,0.041
0.046,0.040
0.043,0.038
0.046,0.037
0.044,0.036
0.047,0.036
0.043,0.041
0.044,0.037
0.045,0.040
0.043,0.037
0.045,0.037
0.043,0.034
0.046,0.033
0.047,0.033
0.049,0.033
0.048,0.032
0.049,0.031
0.047,0.030
0.045,0.029
0.046,0.031
0.047,0.026
0.046,0.027
0.047,0.027
0.048,0.027
0.047,0.025
0.049,0.023
0.049,0.022
0.050,0.022
0.051,0.019
0.052,0.018
0.050,0.011
0.049,0.014
0.051,0.010
0.050,0.009
0.049,0.007
0.051,0.011
0.047,0.009
0.052,0.009
0.053,0.009
0.052,0.006
0.051,0.010
0.051,0.006
0.047,0.005
0.047,0.007
0.046,0.006
0.048,0.004
0.047,0.006
0.048,0.003
0.050,0.006
0.049,0.004
0.047,0.002
0.045,0.006
0.047,0.004
0.048,0.006
0.050,0.005
0.048,0.006
0.050,0.002
0.050,0.002
0.050,-0.002
0.050,-0.002
0.046,-0.000
0.047,-0.004
0.046,-0.000
0.046,-0.002
0.049,0.000
0.047,-0.003
0.052,-0.001
0.049,-0.002
0.048,-0.001
0.045,0.000
0.048,-0.002
0.043,0.000
0.045,0.000
0.042,0.003
0.043,-0.001
0.048,0.002
0.048,-0.001
0.048,0.000
0.046,0.000
0.048,0.001
0.044,0.007
0.046,0.004
0.043,0.006
0.045,0.004
0.044,0.005
0.045,0.008
0.045,0.005
0.044,0.007
0.046,0.008
0.046,0.008
0.046,0.006
0.045,0.010
0.046,0.009
0.045,0.012
0.043,0.013
0.043,0.011
0.043,0.014
0.044,0.015
0.045,0.011
0.045,0.013
0.044,0.015
0.043,0.014
0.044,0.018
0.042,0.016
0.042,0.018
0.043,0.018
0.043,0.020
0.040,0.019
0.040,0.020
0.038,0.020
0.036,0.024
0.038,0.022
0.038,0.027
0.039,0.029
0.038,0.031
0.040,0.028
0.037,0.032
0.037,0.030
0.037,0.034
0.040,0.033
0.040,0.034
0.039,0.031
0.040,0.031
0.038,0.031
0.042,0.035
0.039,0.036
0.038,0.037
0.040,0.036
0.040,0.039
0.042,0.038
0.040,0.039
0.041,0.040
0.042,0.038
0.040,0.041
0.039,0.039
0.038,0.041
0.038,0.038
0.041,0.040
0.040,0.038
0.041,0.040
0.038,0.040
0.039,0.041
0.037,0.045
0.039,0.044
0.038,0.046
0.041,0.044
0.041,0.045
0.043,0.043
0.041,0.043
0.040,0.039
0.041,0.042
0.040,0.040
0.040,0.041
0.040,0.044
0.041,0.043
0.037,0.046
0.039,0.045
0.036,0.045
0.039,0.043
0.043,0.046
0.043,0.044
0.045,0.044
0.043,0.044
0.043,0.041
0.043,0.045
0.043,0.040
0.043,0.043
0.042,0.038
0.045,0.039
0.043,0.039
0.048,0.039
0.046,0.036
0.046,0.039
0.045,0.039
0.043,0.036
0.043,0.038
0.042,0.036
0.042,0.035
0.040,0.035
0.047,0.034
0.043,0.031
0.047,0.031
0.046,0.032
0.044,0.031
0.043,0.032
0.045,0.031
0.041,0.028
0.046,0.028
0.046,0.026
0.043,0.027
0.045,0.028
0.048,0.025
0.048,0.023
0.047,0.021
0.049,0.022
0.049,0.018
0.049,0.020
0.047,0.015
0.049,0.017
0.049,0.013
0.049,0.013
0.047,0.012
0.050,0.014
0.046,0.012
0.046,0.010
0.045,0.011
0.046,0.008
0.047,0.010
0.045,0.007
0.045,0.012
0.048,0.008
0.047,0.005
0.047,0.005
0.050,0.006
0.049,0.004
0.047,0.002
0.049,0.006
0.047,0.004
0.045,0.008
0.047,0.009
0.047,0.010
0.046,0.007
0.048,0.007
0.046,0.003
0.048,0.003
0.049,-0.000
0.050,-0.001
0.046,0.004
0.047,0.002
0.045,0.002
0.042,0.000
0.046,0.003
0.046,-0.000
0.046,0.002
0.043,-0.001
0.044,0.001
0.043,0.001
0.045,0.001
0.042,-0.001
0.044,0.000
0.041,0.001
0.043,-0.002
0.046,-0.001
0.044,-0.001
0.044,0.002
0.042,0.002
0.043,0.000
0.039,0.007
0.042,0.005
0.040,0.006
0.041,0.004
0.042,0.007
0.042,0.004
0.044,0.007
0.043,0.010
0.043,0.008
0.043,0.011
0.043,0.009
0.040,0.015
0.041,0.011
0.043,0.013
0.043,0.010
0.044,0.009
0.040,0.011
0.043,0.012
0.042,0.012
0.042,0.015
0.040,0.016
0.039,0.015
0.040,0.018
0.042,0.018
0.040,0.020
0.042,0.017
0.040,0.022
0.040,0.021
0.039,0.021
0.041,0.023
0.039,0.024
0.038,0.025
0.041,0.026
0.038,0.025
0.039,0.029
0.038,0.028
0.040,0.029
0.040,0.029
0.041,0.031
0.043,0.028
0.043,0.030
0.041,0.030
0.045,0.032
0.038,0.031
0.040,0.033
0.039,0.032
0.040,0.033
0.039,0.035
0.037,0.035
0.037,0.037
0.039,0.037
0.040,0.038
0.037,0.041
0.040,0.038
0.039,0.036
0.043,0.040
0.039,0.036
0.041,0.036
0.040,0.040
0.042,0.038
0.035,0.041
0.037,0.039
0.035,0.044
0.039,0.042
0.039,0.044
0.039,0.039
0.042,0.042
0.043,0.040
0.042,0.039
0.040,0.040
0.043,0.039
0.037,0.043
0.039,0.041
0.038,0.043
0.038,0.042
0.041,0.043
0.039,0.040
0.044,0.042
0.042,0.043
0.044,0.045
0.042,0.046
0.041,0.045
0.039,0.044
0.040,0.042
0.041,0.041
0.040,0.036
0.044,0.039
0.040,0.036
0.043,0.037
0.043,0.038
0.045,0.037
0.041,0.037
0.044,0.037
0.040,0.037
0.039,0.037
0.042,0.037
0.041,0.033
0.045,0.032
0.043,0.029
0.049,0.028
0.048,0.031
0.049,0.028
0.046,0.032
0.045,0.029
0.043,0.031
0.044,0.030
0.044,0.029
0.043,0.025
0.046,0.024
0.045,0.022
0.046,0.020
0.045,0.019
0.045,0.021
0.046,0.018
0.047,0.017
0.048,0.015
0.047,0.014
0.049,0.012
0.045,0.012
0.046,0.011
0.047,0.009
0.045,0.012
0.046,0.009
0.042,0.010
0.045,0.010
0.043,0.012
0.045,0.009
0.043,0.009
0.042,0.006
0.044,0.007
0.045,0.002
0.046,0.001
0.045,0.002
0.045,-0.001
0.045,0.004
0.043,-0.001
0.042,0.002
0.041,0.002
0.044,0.002
0.043,-0.001
0.047,-0.000
0.044,-0.001
0.048,-0.003
0.045,-0.002
0.047,-0.003
0.046,-0.002
0.045,-0.006
0.043,-0.004
0.042,-0.004
0.042,-0.000
0.041,-0.003
0.045,-0.002
0.044,-0.003
0.047,-0.002
0.045,-0.001
0.047,-0.002
0.045,-0.003
0.045,-0.002
0.042,-0.003
0.041,-0.004
0.043,-0.002
0.044,-0.001
0.048,-0.001
0.046,0.000
0.044,-0.000
0.043,0.001
0.041,0.002
0.042,0.002
0.039,0.003
0.041,0.006
0.039,0.005
0.042,0.003
0.041,0.004
0.043,0.004
0.043,0.009
0.040,0.006
0.037,0.008
0.040,0.008
0.040,0.010
0.039,0.011
0.040,0.013
0.040,0.012
0.043,0.013
0.039,0.013
0.042,0.014
0.042,0.012
0.043,0.013
0.039,0.015
0.043,0.015
0.038,0.020
0.041,0.017
0.040,0.021
0.041,0.018
0.040,0.023
0.040,0.021
0.039,0.020
0.038,0.021
0.040,0.024
0.037,0.026
0.037,0.026
0.037,0.026
0.036,0.030
0.037,0.027
0.039,0.032
0.039,0.031
0.041,0.034
0.039,0.032
0.042,0.032
0.039,0.032
0.042,0.032
0.040,0.032
0.043,0.031
0.041,0.033
0.040,0.035
0.040,0.038
0.040,0.036
0.041,0.041
0.039,0.037
0.039,0.037
0.037,0.037
0.042,0.041
0.039,0.036
0.044,0.037
0.039,0.036
0.041,0.037
0.039,0.037
0.038,0.040
0.037,0.043
0.041,0.044
0.041,0.043
0.042,0.043
0.044,0.047
0.043,0.044
0.043,0.045
0.045,0.043
0.039,0.044
0.042,0.045
0.041,0.043
0.038,0.043
0.039,0.044
0.039,0.044
0.040,0.044
0.039,0.046
0.041,0.046
0.041,0.047
0.042,0.046
0.041,0.046
0.043,0.048
0.042,0.045
0.042,0.049
0.044,0.047
0.042,0.045
0.041,0.041
0.041,0.040
0.043,0.039
0.044,0.039
0.046,0.039
0.046,0.039
0.043,0.038
0.043,0.038
0.043,0.038
0.045,0.034
0.041,0.036
0.044,0.031
0.044,0.031
0.043,0.033
0.045,0.035
0.044,0.036
0.044,0.035
0.040,0.032
0.044,0.028
0.044,0.030
0.045,0.026
0.046,0.027
0.044,0.026
0.045,0.025
0.045,0.025
0.046,0.022
0.047,0.022
0.046,0.019
0.052,0.023
0.050,0.018
0.052,0.018
0.049,0.015
0.047,0.015
0.047,0.012
0.046,0.013
0.044,0.012
0.045,0.013
0.046,0.011
0.041,0.013
0.043,0.010
0.041,0.010
0.044,0.008
0.042,0.008
0.045,0.009
0.046,0.007
0.046,0.005
0.048,0.004
0.046,0.002
0.047,0.002
0.047,0.007
0.047,0.004
0.044,0.005
0.044,0.003
0.044,0.004
0.042,0.002
0.047,0.002
0.044,-0.000
0.044,-0.002
0.043,0.002
0.049,-0.002
0.043,-0.002
0.045,-0.003
0.042,-0.002
0.041,-0.003
0.046,-0.000
0.043,-0.005
0.046,-0.003
0.043,-0.002
0.048,-0.004
0.047,-0.001
0.047,-0.002
0.046,-0.002
0.045,-0.001
0.044,-0.002
0.045,-0.002
0.047,-0.002
0.045,-0.001
0.045,-0.002
0.046,0.001
0.043,0.001
0.045,0.004
0.043,0.004
0.045,0.006
0.047,0.005
0.048,0.007
0.049,0.003
0.049,0.003
0.046,0.004
0.045,0.006
0.045,0.008
0.046,0.008
0.042,0.009
0.044,0.010
0.042,0.009
0.041,0.010
0.045,0.009
0.041,0.006
0.044,0.009
0.041,0.012
0.042,0.014
0.041,0.017
0.043,0.012
0.042,0.017
0.045,0.014
0.040,0.020
0.042,0.018
0.042,0.020
0.043,0.017
0.042,0.021
0.041,0.021
0.041,0.023
0.041,0.021
0.042,0.023
0.040,0.023
0.042,0.025
0.040,0.026
0.040,0.028
0.038,0.027
0.041,0.027
0.040,0.031
0.041,0.031
0.040,0.030
0.042,0.034
0.042,0.030
0.043,0.033
0.041,0.036
0.044,0.035
0.039,0.040
0.042,0.037
0.039,0.042
0.039,0.038
0.040,0.038
0.040,0.037
0.044,0.039
0.042,0.038
0.049,0.037
0.044,0.034
0.046,0.036
0.044,0.039
0.043,0.036
0.039,0.041
0.040,0.042
0.039,0.046
0.040,0.045
0.044,0.043
0.046,0.043
0.045,0.043
0.043,0.044
0.043,0.044
0.043,0.043
0.040,0.042
0.039,0.044
0.040,0.044
0.039,0.042
0.041,0.046
0.040,0.047
0.042,0.045
0.044,0.044
0.042,0.046
0.043,0.045
0.044,0.046
0.043,0.042
0.041,0.044
0.041,0.041
0.041,0.042
0.041,0.039
0.046,0.041
0.045,0.038
0.048,0.039
0.045,0.039
0.046,0.038
0.043,0.038
0.046,0.039
0.044,0.038
0.045,0.036
0.045,0.037
0.046,0.036
0.046,0.035
0.045,0.033
0.045,0.034
0.043,0.034
0.046,0.033
0.043,0.034
0.045,0.030
0.046,0.029
0.046,0.029
0.046,0.029
0.045,0.025
0.047,0.024
0.045,0.023
0.046,0.022
0.045,0.021
0.044,0.020
0.048,0.023
0.048,0.019
0.049,0.023
0.049,0.019
0.051,0.021
0.049,0.014
0.050,0.015
0.048,0.012
0.049,0.014
0.050,0.012
0.047,0.012
0.046,0.011
0.045,0.011
0.047,0.010
0.045,0.010
0.049,0.008
0.046,0.007
0.048,0.007
0.051,0.004
0.049,0.004
0.049,0.002
0.049,0.004
0.047,0.000
0.047,0.004
0.045,0.003
0.045,0.002
0.042,0.001
0.044,0.002
0.041,0.004
0.047,0.003
0.047,0.001
0.049,-0.003
0.049,0.000
0.047,-0.003
0.046,0.003
0.043,-0.001
0.046,-0.001
0.045,-0.003
0.048,-0.001
0.045,-0.002
0.046,-0.004
0.044,0.000
0.046,0.000
0.045,0.001
0.044,0.000
0.042,0.001
0.043,-0.001
0.043,-0.000
0.043,-0.003
0.044,-0.002
0.044,-0.001
0.045,0.000
0.043,0.003
0.040,0.000
0.040,0.001
0.041,0.001
0.044,0.001
0.044,0.000
0.046,0.003
0.048,0.001
0.045,0.001
0.046,0.003
0.046,0.001
0.045,0.009
0.046,0.003
0.045,0.008
0.046,0.009
0.045,0.010
0.044,0.006
0.047,0.008
0.043,0.007
0.043,0.009
0.040,0.010
0.043,0.010
0.040,0.011
0.042,0.011
0.039,0.012
0.039,0.012
0.044,0.014
0.043,0.013
0.044,0.017
0.041,0.014
0.044,0.016
0.040,0.017
0.043,0.020
0.040,0.020
0.041,0.021
0.041,0.024
0.042,0.024
0.039,0.027
0.042,0.028
0.038,0.027
0.042,0.030
0.038,0.027
0.041,0.029
0.039,0.027
0.044,0.031
0.040,0.031
0.043,0.030
0.041,0.033
0.040,0.031
0.038,0.039
0.041,0.037
0.039,0.039
0.036,0.037
0.039,0.038
0.039,0.036
0.044,0.037
0.038,0.038
0.042,0.038
0.041,0.039
0.039,0.040
0.040,0.043
0.043,0.044
0.037,0.044
0.039,0.044
0.039,0.043
0.039,0.043
0.042,0.045
0.045,0.044
0.042,0.046
0.045,0.046
0.042,0.044
0.043,0.045
0.043,0.044
0.043,0.043
0.044,0.044
0.042,0.045
0.041,0.045
0.042,0.045
0.043,0.042
0.045,0.044
0.046,0.044
0.045,0.044
0.044,0.047
0.046,0.043
0.044,0.045
0.045,0.044
0.047,0.045
0.043,0.041
0.044,0.042
0.045,0.038
0.047,0.040
0.046,0.039
0.046,0.037
0.043,0.041
0.043,0.038
0.044,0.041
0.045,0.039
0.045,0.038
0.043,0.036
0.047,0.034
0.045,0.032
0.046,0.032
0.044,0.034
0.044,0.033
0.041,0.032
0.044,0.031
0.047,0.030
0.046,0.028
0.047,0.027
0.048,0.026
0.046,0.023
0.048,0.026
0.046,0.023
0.049,0.026
0.048,0.024
0.050,0.023
0.049,0.022
0.051,0.020
0.049,0.016
0.050,0.014
0.048,0.012
0.047,0.014
0.047,0.012
0.043,0.012
0.048,0.010
0.043,0.015
0.047,0.013
0.044,0.014
0.045,0.010
0.045,0.011
0.044,0.006
0.047,0.005
0.046,0.005
0.049,0.004
0.050,0.004
0.047,0.004
0.048,0.005
0.043,0.004
0.045,0.003
0.045,0.003
0.043,0.003
0.045,0.003
0.045,0.000
0.047,-0.000
0.047,0.001
0.047,0.001
0.047,-0.001
0.046,0.001
0.044,-0.004
0.044,-0.002
0.043,-0.003
0.045,-0.003
0.044,-0.005
0.046,-0.003
0.046,-0.001
0.046,-0.002
0.045,0.003
0.046,0.000
0.043,-0.001
0.041,-0.002
0.045,-0.000
0.039,-0.003
0.046,-0.001
0.045,-0.001
0.045,-0.001
0.044,0.000
0.042,0.002
0.041,0.003
0.041,0.001
0.041,0.006
0.039,0.005
0.041,0.006
0.039,0.004
0.041,0.008
0.041,0.006
0.040,0.005
0.041,0.008
0.040,0.010
0.040,0.008
0.042,0.009
0.043,0.008
0.043,0.010
0.042,0.012
0.045,0.010
0.045,0.010
0.044,0.010
0.043,0.010
0.042,0.017
0.040,0.015
0.041,0.015
0.042,0.016
0.041,0.014
0.042,0.015
0.042,0.018
0.042,0.017
0.042,0.020
0.039,0.017
0.044,0.022
0.041,0.021
0.043,0.024
0.037,0.023
0.041,0.026
0.038,0.026
0.041,0.027
0.040,0.030
0.040,0.028
0.039,0.030
0.039,0.031
0.042,0.033
0.043,0.033
0.044,0.033
0.042,0.033
0.043,0.034
0.042,0.036
0.043,0.037
0.042,0.036
0.041,0.040
0.040,0.038
0.039,0.039
0.041,0.037
0.039,0.040
0.041,0.036
0.043,0.040
0.041,0.036
0.044,0.039
0.043,0.040
0.044,0.038
0.041,0.039
0.043,0.039
0.039,0.042
0.041,0.039
0.039,0.042
0.039,0.043
0.042,0.044
0.037,0.042
0.044,0.042
0.043,0.041
0.045,0.041
0.043,0.044
0.044,0.042
0.043,0.044
0.042,0.044
0.040,0.045
0.041,0.044
0.045,0.045
0.044,0.043
0.044,0.042
0.045,0.042
0.043,0.041
0.044,0.043
0.043,0.043
0.043,0.044
0.041,0.046
0.043,0.042
0.044,0.041
0.046,0.043
0.045,0.039
0.047,0.039
0.048,0.040
0.046,0.037
0.045,0.041
0.045,0.039
0.042,0.039
0.044,0.035
0.046,0.037
0.042,0.034
0.048,0.036
0.046,0.035
0.048,0.034
0.044,0.033
0.045,0.029
0.043,0.033
0.044,0.029
0.045,0.029
0.043,0.027
0.048,0.030
0.044,0.026
0.047,0.022
0.045,0.023
0.044,0.023
0.044,0.024
0.045,0.020
0.045,0.022
0.046,0.019
0.045,0.020
0.047,0.015
0.048,0.017
0.045,0.017
0.046,0.015
0.047,0.012
0.045,0.014
0.050,0.011
0.047,0.010
0.049,0.011
0.045,0.010
0.047,0.008
0.045,0.009
0.049,0.006
0.049,0.007
0.047,0.001
0.050,0.006
0.049,0.000
0.050,0.000
0.049,0.002
0.049,0.001
0.046,0.006
0.048,0.003
0.045,0.005
0.047,0.001
0.047,0.003
0.046,0.001
0.051,0.001
0.049,0.001
0.049,-0.001
0.049,0.001
0.047,-0.002
0.045,-0.003
0.042,-0.004
0.043,-0.003
0.041,-0.004
0.045,-0.003
0.043,-0.003
0.043,-0.003
0.044,-0.002
0.043,-0.005
0.041,0.000
0.042,-0.002
0.042,-0.002
0.042,-0.004
0.045,-0.001
0.041,-0.003
0.045,-0.003
0.046,-0.005
0.045,-0.005
0.041,-0.002
0.043,-0.003
0.040,-0.000
0.040,0.003
0.037,0.000
0.040,0.002
0.041,0.002
0.040,0.001
0.041,0.003
0.042,0.005
0.042,0.003
0.040,0.005
0.042,0.006
0.040,0.011
0.043,0.007
0.044,0.007
0.046,0.005
0.044,0.010
0.045,0.008
0.044,0.008
0.044,0.012
0.044,0.010
0.042,0.015
0.041,0.010
0.042,0.015
0.041,0.013
0.044,0.014
0.042,0.017
0.041,0.017
0.039,0.019
0.041,0.019
0.043,0.021
0.039,0.021
0.038,0.024
0.037,0.024
0.037,0.025
0.037,0.028
0.037,0.025
0.036,0.029
0.038,0.028
0.041,0.030
0.041,0.026
0.042,0.028
0.039,0.026
0.044,0.029
0.045,0.030
0.043,0.031
0.043,0.031
0.042,0.031
0.040,0.036
0.037,0.034
0.039,0.039
0.036,0.038
0.042,0.037
0.037,0.037
0.041,0.036
0.040,0.037
0.043,0.037
0.043,0.036
0.042,0.038
0.041,0.041
0.038,0.039
0.039,0.044
0.037,0.043
0.037,0.044
0.038,0.044
0.039,0.045
0.039,0.044
0.044,0.044
0.042,0.043
0.040,0.040
0.042,0.042
0.043,0.041
0.037,0.042
0.041,0.042
0.040,0.041
0.041,0.039
0.042,0.043
0.043,0.042
0.043,0.043
0.042,0.044
0.044,0.043
0.041,0.049
0.045,0.043
0.042,0.046
0.044,0.045
0.043,0.043
0.042,0.038
0.044,0.039
0.043,0.041
0.042,0.036
0.044,0.041
0.045,0.040
0.043,0.041
0.042,0.038
0.045,0.038
0.043,0.035
0.049,0.036
0.045,0.034
0.049,0.036
0.046,0.034
0.045,0.031
0.039,0.036
0.044,0.031
0.043,0.031
0.044,0.027
0.045,0.030
0.046,0.026
0.048,0.028
0.044,0.027
0.049,0.027
0.046,0.028
0.047,0.023
0.047,0.024
0.048,0.022
0.045,0.021
0.047,0.020
0.048,0.019
0.046,0.017
0.046,0.019
0.048,0.017
0.043,0.015
0.048,0.011
0.045,0.013
0.045,0.011
0.047,0.010
0.047,0.007
0.051,0.008
0.049,0.005
0.054,0.007
0.048,0.005
0.052,0.005
0.045,0.003
0.045,0.002
0.044,0.008
0.046,0.009
0.040,0.009
0.042,0.006
0.041,0.006
0.042,0.007
0.045,0.007
0.046,0.005
0.047,0.003
0.048,0.001
0.047,0.000
0.046,-0.001
0.049,0.002
0.049,0.002
0.050,-0.002
0.046,-0.003
0.047,-0.005
0.044,-0.003
0.045,-0.005
0.043,-0.003
0.042,-0.000
0.042,-0.001
0.042,0.002
0.041,-0.001
0.042,0.003
0.041,-0.000
0.044,0.001
0.041,-0.003
0.046,-0.002
0.041,-0.002
0.045,-0.003
0.041,-0.001
0.043,0.001
0.040,0.006
0.042,0.004
0.042,0.006
0.042,0.004
0.045,0.007
0.048,0.001
0.052,0.003
0.053,0.001
0.054,0.002
0.052,0.004
0.052,0.004
0.048,0.007
0.047,0.007
0.038,0.011
0.035,0.010
0.032,0.010
0.033,0.012
0.035,0.014
0.039,0.015
0.038,0.015
0.035,0.019
0.032,0.019
0.033,0.021
0.037,0.018
0.040,0.014
0.042,0.012
0.042,0.013
0.044,0.011
0.042,0.015
0.042,0.017
0.040,0.019
0.041,0.018
0.038,0.022
0.042,0.021
0.044,0.022
0.044,0.024
0.046,0.024
0.046,0.025
0.049,0.025
0.045,0.026
0.046,0.027
0.045,0.028
0.040,0.030
0.036,0.028
0.033,0.033
0.032,0.032
0.037,0.032
0.041,0.034
0.046,0.032
0.047,0.033
0.049,0.034
0.042,0.038
0.044,0.037
0.041,0.037
0.043,0.036
0.045,0.036
0.046,0.033
0.045,0.036
0.046,0.038
0.048,0.035
0.048,0.040
0.048,0.041
0.043,0.042
0.041,0.043
0.044,0.047
0.041,0.045
0.045,0.047
0.045,0.042
0.050,0.041
0.048,0.042
0.053,0.041
0.050,0.042
0.047,0.037
0.044,0.040
0.036,0.040
0.036,0.043
0.031,0.043
0.037,0.044
0.041,0.046
0.050,0.045
0.055,0.046
0.059,0.044
0.057,0.043
0.054,0.043
0.051,0.042
0.049,0.042
0.044,0.041
0.040,0.040
0.040,0.043
0.043,0.040
0.047,0.036
0.047,0.040
0.043,0.039
0.039,0.040
0.033,0.037
0.031,0.039
0.028,0.036
0.030,0.037
0.033,0.036
0.039,0.034
0.049,0.035
0.063,0.030
0.067,0.032
0.068,0.029
0.062,0.030
0.056,0.030
0.052,0.034
0.044,0.032
0.043,0.032
0.038,0.030
0.042,0.025
0.041,0.027
0.041,0.024
0.042,0.027
0.040,0.023
0.042,0.024
0.041,0.019
0.046,0.019
0.047,0.016
0.049,0.015
0.053,0.013
0.052,0.011
0.057,0.009
0.059,0.011
0.059,0.008
0.058,0.009
0.052,0.007
0.052,0.011
0.043,0.008
0.043,0.008
0.036,0.008
0.034,0.009
0.032,0.011
0.033,0.013
0.038,0.015
0.044,0.013
0.045,0.013
0.052,0.011
0.059,0.009
0.060,0.003
0.066,-0.001
0.066,-0.000
0.070,-0.002
0.070,-0.005
0.069,-0.005
0.059,-0.005
0.049,-0.003
0.039,-0.002
0.032,0.002
0.024,0.005
0.015,0.008
0.011,0.010
0.022,0.011
0.039,0.010
0.050,0.007
0.046,0.002
0.041,-0.000
0.036,0.005
0.036,0.003
0.039,-0.000
