File Version,253.000000
# of Channels,2.000000
Samples/Channel,10300.000000
Scan Rate (Hz),10000.000000
Timestamp,3807793589.806360
Operating Mode,1.000000
Trial #,29.000000
Session #,27.000000
Subject code 1,82.000000
Subject code 2,88.000000
Feedback Window,0.000000
Feedback Ch,0.000000
Ch B,0.000000
Pre-Stim Acq. time (ms),100.000000
Post-Stim Acq. time (ms),900.000000
EMG Hi Limit,50.000000
EMG Lo Limit,0.000250
Target Value (V),5.000000
Stimulus Value (V),1.016235
Stimulus duration (ms),1.000000
EMG conditions time limit (sec),0.200000
M-response Start (ms),2.000000
M-response Duration (ms),2.000000
H-response Duration (ms),2.000000
H-response Start (ms),5.000000
Proportioanl gain,0.003000
Channel to monitor,0.000000
SIU gain,20.000000
FB Monitor value,0.546023
Inter-Stim delay (sec),5.000000
M-Window Mean,0.816766
H-Window Mean,0.020665
Stimulus paradigm,2.000000
# of Pulses in cond train,1.000000
Cond duration (ms),1.000000
Cond Train pulse period (ms),30.000000
Cond Value (V),1.016235
Start Delay (ms),0.000000
# of Pulses in stim train,1.000000
Stim Train pulse period (ms),30.000000
EMG amp gain ch 1,500.000000
EMG amp gain ch 2,500.000000
EMG amp gain ch 3,1000.000000
EMG amp gain ch 4,1000.000000
EMG amp gain ch 5,1000.000000
EMG amp gain ch 6,1000.000000
Stim Type 1,2.000000
Stim/Cond 1,0.000000
Stim Type 2,3.000000
Stim/Cond 2,0.000000
Stim Type 3,3.000000
Stim/Cond 3,0.000000
Stim Type 4,3.000000
Stim/Cond 4,0.000000
Stim Value 1,1.016235
Stim Value 2,0.000000
Stim Value 3,0.000000
Stim Value 4,0.000000
1st PP Channel,-1.000000
Pressure (g),0.000000
Speed (mm/sec),0.000000
Dwell (ms),0.000000
Pressure limit (g),0.000000
Travel limit (mm),0.000000
Amp gain,0.000000
Wait Trig?,0.000000
Move Timeout (ms),0.000000
Time Taken (ms),0.000000
Actual Travel (mm),0.000000
Recorded Data (mV),
0.043,0.041
0.044,0.043
0.047,0.044
0.044,0.049
0.047,0.043
0.042,0.045
0.043,0.043
0.044,0.045
0.043,0.042
0.043,0.043
0.044,0.043
0.042,0.042
0.038,0.046
0.044,0.046
0.040,0.047
0.044,0.045
0.046,0.045
0.045,0.042
0.047,0.043
0.048,0.045
0.049,0.043
0.047,0.045
0.047,0.045
0.047,0.042
0.045,0.043
0.049,0.043
0.046,0.039
0.048,0.038
0.045,0.041
0.047,0.038
0.044,0.042
0.045,0.037
0.044,0.037
0.043,0.035
0.047,0.034
0.046,0.034
0.047,0.034
0.043,0.032
0.046,0.033
0.042,0.032
0.045,0.029
0.045,0.030
0.045,0.027
0.048,0.028
0.046,0.028
0.044,0.026
0.048,0.029
0.048,0.026
0.046,0.029
0.047,0.023
0.046,0.026
0.046,0.024
0.046,0.023
0.047,0.019
0.045,0.018
0.045,0.019
0.045,0.016
0.043,0.014
0.045,0.014
0.046,0.015
0.045,0.012
0.046,0.011
0.048,0.011
0.049,0.009
0.049,0.010
0.052,0.008
0.049,0.003
0.051,0.006
0.047,0.006
0.048,0.005
0.048,0.003
0.048,0.006
0.046,0.004
0.049,0.005
0.047,0.003
0.047,0.004
0.045,0.004
0.050,0.005
0.046,0.004
0.049,0.004
0.050,0.002
0.051,0.001
0.049,-0.002
0.050,-0.001
0.048,-0.003
0.047,-0.003
0.045,-0.003
0.049,-0.003
0.046,-0.004
0.051,-0.004
0.049,-0.005
0.051,-0.003
0.049,-0.002
0.047,-0.006
0.046,0.001
0.048,-0.004
0.047,-0.000
0.044,-0.004
0.049,-0.002
0.043,-0.005
0.046,-0.004
0.042,0.000
0.047,0.000
0.044,-0.001
0.045,-0.001
0.045,0.002
0.047,0.000
0.045,0.001
0.046,0.003
0.045,0.002
0.046,0.007
0.047,0.004
0.043,0.008
0.044,0.005
0.045,0.008
0.042,0.006
0.047,0.008
0.043,0.007
0.048,0.007
0.044,0.010
0.047,0.011
0.043,0.014
0.045,0.011
0.042,0.017
0.043,0.011
0.043,0.012
0.044,0.010
0.046,0.013
0.043,0.015
0.043,0.013
0.046,0.017
0.046,0.017
0.042,0.017
0.043,0.015
0.041,0.022
0.043,0.020
0.038,0.025
0.043,0.026
0.041,0.027
0.039,0.027
0.040,0.030
0.039,0.030
0.040,0.032
0.040,0.033
0.041,0.032
0.041,0.033
0.037,0.034
0.039,0.033
0.040,0.036
0.040,0.031
0.040,0.036
0.039,0.034
0.044,0.035
0.042,0.038
0.045,0.036
0.040,0.038
0.043,0.037
0.042,0.037
0.043,0.037
0.047,0.037
0.044,0.039
0.045,0.039
0.041,0.043
0.038,0.041
0.038,0.045
0.035,0.042
0.040,0.043
0.037,0.044
0.043,0.044
0.043,0.044
0.043,0.044
0.042,0.047
0.042,0.043
0.039,0.047
0.040,0.043
0.038,0.043
0.037,0.043
0.039,0.044
0.036,0.043
0.041,0.045
0.039,0.047
0.041,0.047
0.038,0.048
0.040,0.048
0.040,0.048
0.040,0.046
0.044,0.044
0.045,0.043
0.044,0.040
0.046,0.040
0.046,0.037
0.043,0.039
0.044,0.038
0.044,0.039
0.044,0.037
0.045,0.037
0.045,0.035
0.045,0.036
0.046,0.035
0.044,0.037
0.045,0.039
0.047,0.035
0.047,0.034
0.049,0.032
0.048,0.032
0.047,0.030
0.046,0.030
0.045,0.032
0.045,0.030
0.043,0.031
0.045,0.030
0.043,0.028
0.044,0.025
0.046,0.025
0.045,0.023
0.048,0.022
0.047,0.020
0.048,0.020
0.049,0.019
0.049,0.018
0.049,0.011
0.050,0.013
0.048,0.012
0.048,0.011
0.048,0.011
0.048,0.009
0.047,0.012
0.046,0.010
0.046,0.013
0.047,0.010
0.043,0.014
0.047,0.011
0.049,0.010
0.050,0.007
0.049,0.004
0.048,0.005
0.047,0.000
0.047,0.006
0.047,0.002
0.045,0.005
0.047,0.004
0.044,0.002
0.045,0.002
0.047,0.004
0.045,-0.002
0.046,-0.001
0.049,0.002
0.049,0.002
0.048,0.004
0.048,0.002
0.048,-0.001
0.045,-0.005
0.049,-0.005
0.049,-0.003
0.045,-0.003
0.045,-0.000
0.045,-0.002
0.042,0.001
0.046,-0.001
0.047,-0.002
0.048,-0.004
0.050,-0.005
0.049,-0.006
0.050,-0.007
0.050,-0.003
0.046,0.000
0.046,-0.001
0.045,0.000
0.045,-0.001
0.045,-0.001
0.048,-0.001
0.045,0.001
0.045,0.000
0.045,0.006
0.044,0.005
0.042,0.008
0.042,0.004
0.044,0.006
0.043,0.007
0.045,0.007
0.043,0.007
0.044,0.006
0.045,0.009
0.046,0.007
0.043,0.010
0.047,0.009
0.043,0.008
0.044,0.008
0.045,0.010
0.043,0.008
0.043,0.008
0.041,0.011
0.043,0.015
0.043,0.014
0.045,0.015
0.041,0.016
0.043,0.017
0.041,0.015
0.042,0.018
0.040,0.018
0.039,0.019
0.039,0.023
0.038,0.024
0.041,0.026
0.041,0.026
0.040,0.028
0.041,0.026
0.041,0.030
0.042,0.028
0.043,0.030
0.042,0.028
0.040,0.028
0.044,0.030
0.041,0.032
0.041,0.032
0.042,0.033
0.041,0.033
0.039,0.034
0.038,0.036
0.039,0.036
0.038,0.038
0.038,0.036
0.040,0.038
0.039,0.037
0.041,0.037
0.041,0.038
0.042,0.035
0.037,0.040
0.039,0.039
0.040,0.042
0.037,0.040
0.041,0.040
0.041,0.043
0.043,0.040
0.041,0.047
0.043,0.047
0.041,0.046
0.043,0.042
0.045,0.042
0.046,0.042
0.045,0.042
0.045,0.045
0.045,0.041
0.038,0.046
0.042,0.044
0.042,0.045
0.042,0.045
0.044,0.045
0.040,0.041
0.043,0.042
0.042,0.045
0.045,0.044
0.044,0.048
0.045,0.042
0.044,0.046
0.043,0.043
0.046,0.044
0.045,0.042
0.047,0.042
0.046,0.040
0.048,0.042
0.043,0.042
0.045,0.039
0.042,0.040
0.044,0.037
0.044,0.036
0.047,0.032
0.048,0.032
0.048,0.032
0.049,0.031
0.049,0.034
0.049,0.028
0.050,0.031
0.046,0.029
0.051,0.030
0.050,0.026
0.050,0.028
0.048,0.026
0.050,0.026
0.049,0.030
0.048,0.024
0.046,0.026
0.049,0.023
0.049,0.023
0.050,0.023
0.050,0.020
0.048,0.017
0.048,0.018
0.049,0.016
0.048,0.015
0.048,0.013
0.052,0.012
0.049,0.009
0.049,0.010
0.049,0.007
0.051,0.007
0.049,0.007
0.053,0.008
0.049,0.009
0.050,0.008
0.049,0.008
0.052,0.004
0.047,0.002
0.047,0.004
0.049,0.002
0.048,-0.002
0.050,0.001
0.050,0.002
0.047,0.001
0.045,0.002
0.049,0.002
0.049,0.003
0.049,0.000
0.051,0.002
0.052,-0.000
0.050,-0.002
0.049,-0.004
0.048,-0.004
0.048,-0.002
0.048,-0.005
0.050,-0.003
0.050,-0.006
0.052,-0.002
0.047,-0.003
0.051,-0.003
0.048,-0.000
0.049,-0.002
0.045,0.001
0.048,-0.001
0.048,-0.002
0.047,-0.006
0.049,-0.000
0.049,-0.002
0.048,-0.001
0.046,-0.000
0.047,-0.000
0.043,0.003
0.045,0.001
0.046,0.003
0.047,0.002
0.049,0.001
0.048,0.004
0.048,0.004
0.050,0.006
0.047,0.007
0.045,0.010
0.046,0.009
0.046,0.011
0.043,0.009
0.046,0.010
0.045,0.009
0.049,0.010
0.045,0.009
0.047,0.011
0.045,0.014
0.045,0.013
0.043,0.014
0.045,0.014
0.047,0.015
0.045,0.011
0.047,0.014
0.046,0.014
0.047,0.013
0.045,0.016
0.046,0.018
0.043,0.020
0.047,0.019
0.043,0.023
0.047,0.023
0.042,0.025
0.045,0.027
0.042,0.029
0.044,0.029
0.041,0.031
0.043,0.032
0.041,0.032
0.044,0.035
0.044,0.035
0.045,0.034
0.044,0.032
0.043,0.034
0.047,0.037
0.044,0.034
0.045,0.033
0.044,0.035
0.043,0.036
0.044,0.038
0.046,0.035
0.047,0.036
0.044,0.034
0.047,0.037
0.045,0.035
0.048,0.034
0.045,0.037
0.047,0.037
0.044,0.041
0.042,0.040
0.042,0.043
0.039,0.042
0.043,0.047
0.041,0.042
0.048,0.043
0.046,0.043
0.049,0.045
0.046,0.045
0.048,0.044
0.045,0.044
0.045,0.043
0.042,0.043
0.044,0.042
0.044,0.043
0.044,0.042
0.044,0.042
0.044,0.045
0.043,0.043
0.043,0.045
0.042,0.049
0.045,0.048
0.045,0.046
0.045,0.045
0.046,0.045
0.045,0.043
0.046,0.043
0.044,0.044
0.045,0.043
0.043,0.042
0.047,0.039
0.044,0.038
0.049,0.038
0.046,0.036
0.047,0.036
0.044,0.038
0.047,0.037
0.046,0.037
0.047,0.035
0.049,0.034
0.046,0.033
0.047,0.033
0.047,0.035
0.046,0.029
0.047,0.032
0.045,0.029
0.046,0.027
0.044,0.024
0.046,0.026
0.043,0.024
0.048,0.024
0.047,0.021
0.049,0.021
0.049,0.021
0.049,0.018
0.051,0.015
0.050,0.016
0.051,0.014
0.051,0.010
0.052,0.012
0.052,0.006
0.052,0.011
0.051,0.008
0.048,0.011
0.049,0.008
0.050,0.010
0.050,0.010
0.050,0.009
0.048,0.006
0.053,0.006
0.049,0.005
0.051,0.003
0.049,0.004
0.048,0.001
0.045,0.003
0.047,-0.001
0.048,0.002
0.047,-0.001
0.049,-0.001
0.048,0.000
0.052,-0.001
0.049,0.001
0.052,0.001
0.048,-0.001
0.050,0.000
0.046,0.000
0.049,-0.002
0.051,-0.003
0.051,-0.009
0.050,-0.007
0.049,-0.003
0.049,-0.006
0.051,-0.000
0.046,-0.002
0.049,-0.003
0.046,-0.004
0.048,-0.005
0.047,-0.006
0.048,-0.009
0.046,-0.005
0.046,-0.005
0.044,-0.002
0.043,-0.003
0.047,-0.002
0.046,-0.002
0.046,-0.001
0.043,-0.001
0.047,0.001
0.044,0.003
0.044,0.002
0.042,0.004
0.044,0.005
0.045,0.004
0.043,0.002
0.046,0.002
0.043,0.005
0.045,0.003
0.045,0.007
0.044,0.006
0.043,0.010
0.042,0.008
0.043,0.009
0.043,0.007
0.045,0.008
0.045,0.005
0.046,0.006
0.044,0.010
0.045,0.008
0.042,0.014
0.043,0.011
0.045,0.013
0.040,0.013
0.044,0.015
0.042,0.014
0.044,0.017
0.041,0.017
0.042,0.020
0.043,0.016
0.043,0.021
0.042,0.019
0.045,0.022
0.043,0.023
0.045,0.024
0.043,0.025
0.050,0.028
0.045,0.026
0.045,0.026
0.045,0.030
0.045,0.027
0.044,0.031
0.041,0.032
0.042,0.031
0.042,0.032
0.044,0.034
0.042,0.034
0.043,0.036
0.044,0.035
0.047,0.037
0.047,0.036
0.046,0.038
0.045,0.040
0.045,0.041
0.046,0.041
0.045,0.039
0.044,0.038
0.046,0.039
0.045,0.037
0.046,0.038
0.044,0.039
0.046,0.039
0.043,0.039
0.048,0.044
0.045,0.042
0.047,0.044
0.045,0.045
0.047,0.044
0.045,0.045
0.047,0.043
0.048,0.047
0.046,0.045
0.043,0.045
0.042,0.046
0.041,0.048
0.039,0.045
0.042,0.048
0.042,0.045
0.043,0.047
0.043,0.045
0.045,0.046
0.044,0.047
0.044,0.045
0.044,0.047
0.043,0.044
0.044,0.046
0.046,0.041
0.049,0.043
0.046,0.041
0.047,0.041
0.044,0.043
0.046,0.040
0.045,0.039
0.045,0.036
0.047,0.037
0.046,0.039
0.046,0.036
0.045,0.038
0.046,0.037
0.045,0.038
0.046,0.035
0.046,0.035
0.044,0.032
0.047,0.035
0.046,0.029
0.049,0.031
0.046,0.029
0.050,0.028
0.045,0.028
0.049,0.024
0.046,0.029
0.048,0.025
0.046,0.025
0.050,0.022
0.049,0.021
0.049,0.016
0.050,0.019
0.048,0.013
0.053,0.015
0.048,0.010
0.052,0.012
0.048,0.011
0.050,0.013
0.048,0.012
0.049,0.012
0.049,0.010
0.049,0.010
0.050,0.011
0.050,0.010
0.049,0.010
0.053,0.010
0.051,0.008
0.051,0.005
0.052,0.003
0.052,0.003
0.049,0.003
0.049,0.003
0.049,0.004
0.047,0.006
0.046,0.006
0.046,0.003
0.045,0.002
0.050,0.002
0.050,-0.001
0.050,-0.002
0.051,-0.003
0.049,-0.003
0.047,-0.001
0.045,-0.002
0.048,0.001
0.046,-0.003
0.048,-0.002
0.046,-0.000
0.051,-0.000
0.046,0.001
0.045,-0.000
0.045,0.001
0.045,-0.003
0.047,-0.002
0.047,-0.004
0.047,-0.002
0.046,0.002
0.045,-0.000
0.045,-0.000
0.041,-0.002
0.046,-0.002
0.044,-0.002
0.046,-0.002
0.043,-0.001
0.045,-0.001
0.044,0.005
0.044,0.002
0.044,0.008
0.041,0.004
0.042,0.005
0.042,0.005
0.045,0.007
0.041,0.007
0.044,0.009
0.044,0.010
0.044,0.010
0.041,0.013
0.044,0.012
0.042,0.015
0.040,0.016
0.042,0.015
0.044,0.015
0.043,0.015
0.043,0.017
0.043,0.015
0.046,0.020
0.043,0.018
0.042,0.019
0.041,0.018
0.042,0.023
0.041,0.023
0.042,0.023
0.042,0.025
0.038,0.025
0.043,0.026
0.039,0.029
0.042,0.028
0.043,0.029
0.042,0.029
0.042,0.027
0.043,0.028
0.043,0.030
0.043,0.029
0.043,0.032
0.044,0.032
0.044,0.032
0.043,0.034
0.046,0.034
0.044,0.038
0.041,0.038
0.043,0.041
0.040,0.041
0.044,0.039
0.044,0.038
0.045,0.039
0.046,0.041
0.045,0.037
0.043,0.041
0.043,0.040
0.044,0.040
0.044,0.041
0.044,0.039
0.040,0.041
0.043,0.043
0.041,0.042
0.043,0.045
0.043,0.045
0.046,0.044
0.043,0.045
0.046,0.044
0.044,0.043
0.043,0.041
0.044,0.040
0.045,0.040
0.042,0.043
0.045,0.044
0.044,0.046
0.043,0.047
0.042,0.047
0.041,0.046
0.041,0.048
0.043,0.046
0.042,0.044
0.043,0.045
0.045,0.044
0.045,0.045
0.043,0.045
0.042,0.042
0.044,0.045
0.045,0.041
0.049,0.041
0.045,0.040
0.045,0.040
0.042,0.041
0.043,0.041
0.041,0.040
0.045,0.040
0.046,0.038
0.047,0.035
0.046,0.033
0.049,0.033
0.048,0.034
0.047,0.034
0.045,0.033
0.046,0.033
0.046,0.032
0.047,0.033
0.047,0.029
0.047,0.030
0.050,0.027
0.049,0.028
0.049,0.028
0.047,0.028
0.049,0.028
0.049,0.023
0.050,0.024
0.051,0.022
0.052,0.022
0.052,0.017
0.049,0.017
0.049,0.010
0.051,0.011
0.048,0.010
0.051,0.013
0.047,0.010
0.051,0.012
0.049,0.009
0.053,0.010
0.051,0.008
0.052,0.006
0.052,0.008
0.050,0.006
0.050,0.006
0.049,0.008
0.050,0.005
0.048,0.004
0.050,0.005
0.049,0.002
0.054,0.004
0.051,0.005
0.051,0.003
0.049,0.002
0.050,0.002
0.051,0.002
0.051,-0.001
0.053,-0.002
0.054,-0.002
0.051,-0.004
0.051,-0.004
0.048,-0.006
0.048,-0.002
0.046,-0.003
0.045,-0.002
0.046,-0.004
0.048,-0.003
0.047,-0.003
0.049,-0.003
0.047,-0.001
0.048,-0.004
0.047,-0.001
0.045,-0.003
0.049,-0.003
0.046,-0.004
0.049,-0.003
0.046,-0.003
0.048,-0.002
0.047,0.002
0.049,0.000
0.045,0.002
0.047,0.001
0.046,0.002
0.045,0.003
0.049,0.004
0.044,0.002
0.047,0.002
0.047,0.006
0.046,0.005
0.045,0.009
0.044,0.006
0.044,0.008
0.042,0.007
0.047,0.008
0.046,0.008
0.048,0.008
0.047,0.007
0.045,0.010
0.046,0.014
0.044,0.014
0.044,0.016
0.045,0.015
0.048,0.017
0.044,0.014
0.048,0.013
0.048,0.011
0.049,0.013
0.047,0.014
0.046,0.016
0.044,0.014
0.047,0.019
0.042,0.017
0.042,0.023
0.043,0.023
0.045,0.028
0.043,0.025
0.045,0.027
0.044,0.028
0.046,0.027
0.043,0.029
0.044,0.026
0.041,0.032
0.044,0.029
0.042,0.034
0.045,0.034
0.040,0.036
0.041,0.032
0.043,0.035
0.042,0.034
0.042,0.035
0.041,0.036
0.042,0.036
0.041,0.037
0.044,0.036
0.042,0.037
0.045,0.035
0.043,0.036
0.045,0.037
0.047,0.036
0.045,0.036
0.044,0.040
0.044,0.043
0.041,0.043
0.040,0.047
-0.016,0.021
-0.016,0.027
-0.019,0.024
-0.010,0.028
-0.010,0.033
0.002,0.034
0.002,0.036
0.001,0.034
0.027,0.041
0.131,0.040
0.437,0.066
0.972,0.013
1.461,-0.231
1.645,-0.678
1.462,-1.105
0.713,-0.981
-0.290,0.182
-1.167,2.086
-1.845,3.732
-2.183,4.615
-1.866,5.058
-0.844,3.785
0.513,1.251
1.558,-1.460
1.887,-3.417
1.743,-4.414
1.279,-4.219
0.710,-3.032
0.048,-1.673
-0.438,-0.695
-0.668,-0.173
-0.688,0.042
-0.590,0.113
-0.451,0.119
-0.304,0.104
-0.186,0.084
-0.090,0.066
-0.027,0.049
0.009,0.040
0.028,0.029
0.039,0.026
0.036,0.021
0.033,0.019
0.028,0.015
0.025,0.009
0.025,0.009
0.023,0.004
0.024,0.004
0.023,-0.001
0.023,0.001
0.022,0.000
0.023,0.000
0.022,-0.002
0.021,-0.005
0.023,-0.006
0.023,-0.010
0.025,-0.009
0.027,-0.013
0.032,-0.012
0.030,-0.013
0.032,-0.016
0.029,-0.017
0.028,-0.017
0.024,-0.015
0.022,-0.018
0.020,-0.016
0.022,-0.021
0.024,-0.018
0.025,-0.019
0.026,-0.019
0.020,-0.020
0.019,-0.019
0.017,-0.016
0.021,-0.017
0.020,-0.015
0.025,-0.018
0.027,-0.015
0.028,-0.017
0.031,-0.016
0.029,-0.019
0.032,-0.020
0.028,-0.021
0.030,-0.021
0.025,-0.017
0.028,-0.020
0.026,-0.017
0.028,-0.018
0.026,-0.016
0.027,-0.017
0.028,-0.015
0.027,-0.018
0.029,-0.018
0.031,-0.017
0.032,-0.017
0.035,-0.013
0.037,-0.013
0.038,-0.012
0.037,-0.012
0.038,-0.010
0.036,-0.012
0.035,-0.013
0.035,-0.009
0.034,-0.009
0.032,-0.003
0.034,-0.007
0.034,-0.005
0.028,-0.002
0.035,-0.004
0.034,-0.003
0.036,-0.003
0.032,-0.002
0.035,-0.002
0.034,0.001
0.034,0.000
0.033,0.000
0.033,-0.001
0.036,0.001
0.034,0.000
0.037,0.001
0.035,0.004
0.036,0.003
0.032,0.010
0.031,0.008
0.032,0.012
0.034,0.011
0.033,0.012
0.031,0.010
0.038,0.010
0.036,0.010
0.036,0.011
0.034,0.013
0.035,0.013
0.033,0.015
0.034,0.017
0.035,0.018
0.035,0.019
0.036,0.024
0.036,0.023
0.037,0.026
0.037,0.027
0.040,0.029
0.037,0.029
0.037,0.031
0.035,0.028
0.037,0.032
0.035,0.033
0.035,0.037
0.036,0.033
0.033,0.039
0.034,0.035
0.036,0.037
0.034,0.034
0.038,0.038
0.036,0.036
0.038,0.039
0.038,0.042
0.039,0.041
0.035,0.042
0.038,0.040
0.037,0.043
0.039,0.039
0.041,0.042
0.039,0.042
0.038,0.046
0.037,0.048
0.039,0.048
0.036,0.048
0.038,0.049
0.039,0.050
0.036,0.046
0.041,0.046
0.039,0.044
0.041,0.042
0.038,0.046
0.039,0.044
0.036,0.048
0.038,0.045
0.037,0.046
0.038,0.047
0.041,0.048
0.039,0.044
0.041,0.045
0.039,0.048
0.042,0.045
0.039,0.048
0.041,0.048
0.039,0.046
0.041,0.044
0.043,0.046
0.040,0.041
0.043,0.044
0.043,0.041
0.045,0.039
0.043,0.041
0.044,0.039
0.041,0.040
0.043,0.039
0.044,0.040
0.047,0.038
0.045,0.039
0.047,0.039
0.044,0.036
0.045,0.039
0.045,0.036
0.045,0.034
0.044,0.031
0.048,0.033
0.047,0.029
0.045,0.030
0.045,0.030
0.046,0.028
0.043,0.028
0.046,0.030
0.043,0.031
0.045,0.028
0.043,0.030
0.046,0.024
0.047,0.024
0.046,0.020
0.050,0.020
0.046,0.017
0.050,0.018
0.045,0.014
0.049,0.014
0.047,0.014
0.047,0.014
0.044,0.012
0.047,0.012
0.048,0.010
0.049,0.010
0.047,0.010
0.048,0.008
0.046,0.010
0.047,0.008
0.045,0.009
0.046,0.009
0.051,0.009
0.049,0.008
0.049,0.005
0.049,0.009
0.046,0.006
0.045,0.007
0.045,0.004
0.047,0.004
0.047,0.002
0.051,0.002
0.049,-0.000
0.052,-0.001
0.052,0.004
0.051,-0.002
0.047,0.003
0.048,0.001
0.049,0.002
0.046,-0.001
0.049,0.001
0.045,0.000
0.048,-0.000
0.048,0.001
0.049,0.002
0.049,-0.001
0.049,0.000
0.049,-0.001
0.049,-0.003
0.051,-0.002
0.055,-0.003
0.050,-0.002
0.049,0.001
0.049,-0.000
0.047,0.001
0.049,0.001
0.049,0.005
0.047,0.001
0.047,0.002
0.049,0.004
0.047,0.002
0.048,0.007
0.048,0.007
0.046,0.009
0.047,0.008
0.049,0.009
0.048,0.008
0.051,0.008
0.049,0.007
0.049,0.012
0.051,0.013
0.048,0.012
0.045,0.015
0.044,0.014
0.047,0.012
0.048,0.013
0.049,0.012
0.049,0.016
0.049,0.013
0.049,0.017
0.047,0.016
0.049,0.019
0.048,0.016
0.048,0.020
0.046,0.019
0.049,0.022
0.046,0.024
0.042,0.027
0.046,0.028
0.041,0.031
0.041,0.030
0.038,0.031
0.043,0.031
0.044,0.031
0.045,0.029
0.045,0.031
0.047,0.030
0.048,0.030
0.045,0.032
0.047,0.032
0.047,0.032
0.046,0.035
0.045,0.039
0.045,0.036
0.046,0.040
0.045,0.036
0.046,0.040
0.044,0.039
0.046,0.039
0.047,0.042
0.049,0.037
0.048,0.042
0.048,0.042
0.047,0.044
0.046,0.042
0.044,0.046
0.044,0.043
0.044,0.046
0.045,0.044
0.049,0.047
0.047,0.048
0.048,0.048
0.045,0.049
0.049,0.048
0.043,0.049
0.049,0.046
0.045,0.049
0.046,0.046
0.045,0.047
0.046,0.047
0.045,0.049
0.045,0.049
0.045,0.048
0.044,0.052
0.047,0.051
0.048,0.049
0.045,0.044
0.049,0.044
0.046,0.047
0.050,0.043
0.048,0.046
0.052,0.043
0.047,0.044
0.048,0.040
0.050,0.040
0.048,0.040
0.051,0.040
0.049,0.041
0.052,0.038
0.049,0.041
0.049,0.040
0.049,0.040
0.049,0.037
0.051,0.039
0.049,0.034
0.051,0.034
0.049,0.035
0.052,0.033
0.049,0.034
0.050,0.029
0.051,0.032
0.051,0.028
0.053,0.029
0.051,0.026
0.052,0.027
0.052,0.026
0.056,0.023
0.051,0.024
0.056,0.019
0.055,0.022
0.056,0.016
0.055,0.019
0.056,0.014
0.053,0.016
0.052,0.013
0.053,0.015
0.050,0.011
0.050,0.013
0.049,0.012
0.050,0.013
0.048,0.009
0.052,0.009
0.050,0.008
0.051,0.006
0.049,0.003
0.052,0.005
0.052,0.002
0.053,0.002
0.051,0.003
0.052,0.003
0.049,0.003
0.052,-0.000
0.052,0.001
0.054,-0.002
0.050,-0.000
0.052,0.001
0.051,0.001
0.047,0.001
0.050,-0.001
0.050,-0.002
0.049,-0.005
0.048,-0.006
0.050,-0.004
0.049,-0.007
0.049,-0.006
0.049,-0.005
0.049,-0.003
0.047,-0.003
0.049,-0.006
0.048,-0.004
0.052,-0.002
0.051,-0.005
0.053,-0.003
0.050,-0.003
0.052,-0.004
0.050,-0.003
0.049,-0.003
0.046,-0.002
0.047,-0.003
0.048,-0.003
0.050,-0.004
0.049,-0.002
0.049,0.001
0.049,0.001
0.047,0.004
0.047,0.002
0.045,0.005
0.047,0.004
0.048,0.005
0.048,0.004
0.049,0.004
0.050,0.004
0.050,0.003
0.046,0.008
0.049,0.006
0.048,0.010
0.048,0.004
0.049,0.011
0.047,0.005
0.053,0.008
0.046,0.007
0.048,0.009
0.045,0.014
0.046,0.015
0.044,0.018
0.046,0.015
0.046,0.018
0.046,0.012
0.049,0.016
0.045,0.013
0.047,0.018
0.045,0.016
0.048,0.021
0.044,0.021
0.047,0.026
0.045,0.024
0.049,0.028
0.043,0.027
0.047,0.028
0.047,0.027
0.049,0.027
0.049,0.028
0.047,0.029
0.047,0.030
0.046,0.032
0.046,0.036
0.048,0.035
0.044,0.037
0.045,0.036
0.043,0.037
0.043,0.036
0.045,0.037
0.046,0.035
0.047,0.037
0.045,0.036
0.047,0.036
0.045,0.039
0.046,0.039
0.046,0.039
0.044,0.040
0.046,0.043
0.047,0.043
0.048,0.043
0.048,0.043
0.049,0.044
0.047,0.046
0.048,0.046
0.045,0.047
0.044,0.044
0.050,0.045
0.046,0.042
0.050,0.046
0.046,0.043
0.046,0.045
0.042,0.045
0.041,0.042
0.043,0.043
0.044,0.046
0.046,0.044
0.046,0.044
0.044,0.045
0.045,0.046
0.043,0.045
0.045,0.047
0.045,0.046
0.044,0.043
0.044,0.045
0.044,0.042
0.045,0.040
0.045,0.040
0.046,0.040
0.044,0.039
0.042,0.041
0.043,0.041
0.042,0.039
0.042,0.039
0.046,0.038
0.042,0.037
0.044,0.038
0.043,0.037
0.046,0.035
0.041,0.036
0.047,0.035
0.047,0.034
0.045,0.028
0.047,0.031
0.047,0.030
0.047,0.028
0.046,0.028
0.049,0.027
0.046,0.029
0.046,0.028
0.046,0.029
0.049,0.026
0.045,0.025
0.047,0.024
0.046,0.023
0.047,0.019
0.048,0.019
0.048,0.015
0.049,0.015
0.048,0.012
0.049,0.013
0.050,0.014
0.049,0.012
0.049,0.014
0.046,0.011
0.046,0.015
0.047,0.010
0.047,0.011
0.046,0.007
0.048,0.008
0.046,0.004
0.050,0.008
0.048,0.001
0.050,0.000
0.045,0.003
0.046,0.003
0.043,0.004
0.045,0.002
0.045,0.006
0.047,0.006
0.051,0.005
0.049,0.002
0.052,0.004
0.050,0.001
0.052,-0.000
0.045,-0.000
0.048,-0.002
0.049,-0.000
0.049,-0.004
0.049,-0.003
0.050,-0.005
0.049,-0.001
0.051,0.001
0.050,-0.001
0.047,0.001
0.047,-0.004
0.049,-0.002
0.049,-0.005
0.051,-0.001
0.050,-0.003
0.049,-0.002
0.044,0.000
0.046,0.000
0.044,0.002
0.044,0.002
0.045,-0.001
0.047,-0.002
0.047,-0.000
0.047,-0.000
0.045,-0.001
0.047,0.002
0.047,0.004
0.045,0.007
0.044,0.006
0.044,0.006
0.043,0.006
0.045,0.007
0.046,0.008
0.045,0.008
0.046,0.012
0.045,0.010
0.045,0.010
0.046,0.011
0.047,0.013
0.044,0.010
0.045,0.012
0.043,0.010
0.044,0.011
0.045,0.014
0.049,0.015
0.041,0.017
0.043,0.015
0.044,0.015
0.046,0.014
0.044,0.019
0.043,0.018
0.044,0.021
0.045,0.020
0.043,0.023
0.040,0.022
0.044,0.025
0.041,0.024
0.045,0.026
0.043,0.024
0.044,0.029
0.040,0.027
0.045,0.029
0.043,0.029
0.045,0.030
0.043,0.030
0.045,0.029
0.043,0.036
0.045,0.035
0.042,0.036
0.043,0.037
0.043,0.037
0.043,0.040
0.047,0.039
0.045,0.038
0.048,0.040
0.048,0.042
0.044,0.037
0.044,0.041
0.042,0.040
0.040,0.042
0.040,0.038
0.041,0.041
0.039,0.038
0.043,0.042
0.042,0.045
0.043,0.044
0.041,0.049
0.045,0.045
0.042,0.045
0.044,0.042
0.046,0.044
0.045,0.044
0.046,0.044
0.042,0.045
0.043,0.044
0.041,0.049
0.041,0.047
0.040,0.049
0.041,0.048
0.045,0.047
0.045,0.048
0.045,0.049
0.046,0.051
0.047,0.045
0.047,0.049
0.046,0.045
0.045,0.047
0.045,0.042
0.046,0.044
0.045,0.040
0.048,0.041
0.047,0.041
0.048,0.038
0.045,0.042
0.047,0.038
0.049,0.040
0.047,0.036
0.048,0.038
0.047,0.039
0.048,0.038
0.047,0.038
0.048,0.036
0.046,0.035
0.046,0.033
0.047,0.031
0.047,0.029
0.048,0.029
0.048,0.027
0.049,0.030
0.050,0.030
0.050,0.026
0.048,0.026
0.048,0.024
0.049,0.025
0.048,0.021
0.046,0.022
0.048,0.021
0.048,0.020
0.049,0.016
0.049,0.017
0.045,0.015
0.052,0.016
0.045,0.012
0.048,0.014
0.045,0.010
0.047,0.010
0.047,0.010
0.048,0.010
0.049,0.011
0.046,0.007
0.047,0.009
0.048,0.004
0.048,0.003
0.048,0.005
0.049,0.005
0.046,0.004
0.049,0.003
0.048,-0.000
0.048,0.004
0.047,0.003
0.047,0.002
0.046,0.005
0.048,0.004
0.047,0.003
0.050,0.002
0.048,0.001
0.048,-0.001
0.047,-0.002
0.047,-0.002
0.047,-0.003
0.046,-0.002
0.042,-0.002
0.044,-0.004
0.041,-0.003
0.046,-0.003
0.043,-0.003
0.047,-0.004
0.044,-0.002
0.047,-0.002
0.043,-0.000
0.044,-0.002
0.046,-0.001
0.045,-0.005
0.047,-0.000
0.045,0.002
0.045,0.000
0.041,0.001
0.046,-0.001
0.042,0.003
0.045,0.001
0.041,0.005
0.042,0.004
0.042,0.003
0.043,0.003
0.044,0.004
0.043,0.008
0.042,0.006
0.042,0.009
0.041,0.006
0.047,0.009
0.043,0.008
0.044,0.009
0.043,0.011
0.047,0.011
0.040,0.015
0.042,0.013
0.039,0.017
0.041,0.013
0.042,0.016
0.038,0.012
0.043,0.016
0.040,0.014
0.044,0.019
0.041,0.018
0.044,0.017
0.041,0.020
0.042,0.017
0.039,0.022
0.040,0.021
0.039,0.025
0.039,0.025
0.039,0.029
0.040,0.028
0.038,0.032
0.041,0.031
0.038,0.031
0.043,0.034
0.042,0.034
0.043,0.032
0.037,0.034
0.041,0.035
0.039,0.040
0.037,0.037
0.039,0.039
0.039,0.036
0.043,0.040
0.040,0.042
0.044,0.041
0.040,0.041
0.044,0.041
0.040,0.042
0.044,0.039
0.042,0.040
0.043,0.040
0.046,0.041
0.045,0.038
0.044,0.042
0.042,0.045
0.040,0.046
0.041,0.046
0.041,0.046
0.043,0.047
0.041,0.046
0.046,0.049
0.043,0.046
0.044,0.047
0.043,0.046
0.043,0.047
0.041,0.046
0.042,0.044
0.041,0.045
0.040,0.040
0.041,0.042
0.043,0.045
0.042,0.047
0.039,0.048
0.040,0.046
0.034,0.048
0.042,0.046
0.045,0.047
0.042,0.045
0.045,0.047
0.043,0.046
0.044,0.044
0.043,0.045
0.046,0.044
0.041,0.044
0.041,0.041
0.047,0.041
0.043,0.038
0.047,0.041
0.045,0.041
0.045,0.038
0.042,0.040
0.045,0.039
0.040,0.037
0.045,0.037
0.045,0.036
0.047,0.033
0.047,0.034
0.046,0.034
0.046,0.034
0.045,0.033
0.046,0.032
0.047,0.032
0.046,0.027
0.047,0.029
0.046,0.026
0.049,0.025
0.048,0.023
0.047,0.023
0.049,0.022
0.049,0.019
0.048,0.021
0.049,0.015
0.049,0.015
0.048,0.014
0.047,0.015
0.047,0.013
0.047,0.014
0.047,0.013
0.046,0.010
0.049,0.007
0.046,0.009
0.050,0.008
0.049,0.009
0.049,0.006
0.052,0.006
0.050,0.002
0.050,0.001
0.050,0.003
0.048,0.003
0.048,0.007
0.046,0.003
0.048,0.003
0.046,0.000
0.050,0.004
0.049,0.001
0.052,0.003
0.049,0.001
0.051,-0.001
0.047,0.003
0.052,-0.002
0.052,-0.001
0.052,-0.005
0.052,-0.003
0.049,-0.004
0.050,-0.003
0.049,-0.000
0.050,-0.002
0.046,-0.002
0.048,-0.002
0.050,-0.002
0.050,-0.003
0.048,-0.004
0.050,-0.003
0.046,-0.002
0.044,-0.002
0.045,-0.002
0.047,0.001
0.046,-0.002
0.050,0.002
0.045,0.000
0.050,-0.002
0.046,0.002
0.046,0.001
0.044,0.004
0.041,0.003
0.044,0.007
0.042,0.003
0.044,0.005
0.043,0.003
0.049,0.004
0.044,0.004
0.045,0.006
0.044,0.008
0.044,0.009
0.044,0.010
0.045,0.009
0.045,0.011
0.044,0.010
0.046,0.010
0.045,0.013
0.045,0.011
0.044,0.013
0.041,0.013
0.043,0.014
0.043,0.014
0.044,0.018
0.042,0.018
0.045,0.020
0.043,0.021
0.045,0.019
0.043,0.021
0.043,0.021
0.041,0.024
0.042,0.024
0.042,0.023
0.042,0.027
0.042,0.027
0.041,0.027
0.043,0.030
0.042,0.029
0.043,0.030
0.044,0.029
0.042,0.032
0.046,0.030
0.046,0.032
0.045,0.032
0.045,0.036
0.047,0.036
0.045,0.039
0.044,0.035
0.048,0.037
0.045,0.036
0.049,0.037
0.046,0.039
0.047,0.037
0.046,0.043
0.043,0.041
0.043,0.042
0.041,0.039
0.045,0.041
0.044,0.038
0.046,0.039
0.043,0.044
0.044,0.042
0.041,0.046
0.045,0.045
0.043,0.046
0.042,0.044
0.044,0.044
0.045,0.042
0.048,0.042
0.044,0.041
0.045,0.040
0.046,0.046
0.044,0.042
0.042,0.046
0.039,0.043
0.046,0.045
0.043,0.042
0.049,0.044
0.046,0.048
0.046,0.047
0.044,0.050
0.047,0.046
0.042,0.045
0.042,0.044
0.047,0.043
0.044,0.039
0.047,0.038
0.046,0.041
0.048,0.040
0.046,0.043
0.046,0.042
0.048,0.039
0.047,0.039
0.050,0.037
0.049,0.039
0.050,0.036
0.046,0.039
0.047,0.035
0.045,0.036
0.046,0.034
0.050,0.032
0.048,0.030
0.049,0.029
0.047,0.031
0.047,0.029
0.046,0.031
0.049,0.027
0.044,0.028
0.049,0.027
0.049,0.026
0.047,0.024
0.049,0.025
0.048,0.023
0.052,0.022
0.049,0.019
0.053,0.018
0.050,0.015
0.051,0.013
0.049,0.012
0.052,0.010
0.050,0.008
0.050,0.009
0.048,0.009
0.049,0.008
0.047,0.008
0.050,0.008
0.049,0.010
0.050,0.010
0.049,0.009
0.051,0.005
0.051,0.006
0.051,0.001
0.050,0.002
0.048,-0.001
0.051,-0.002
0.047,0.002
0.047,0.003
0.045,0.004
0.047,0.003
0.049,0.004
0.048,-0.000
0.051,0.000
0.054,-0.003
0.051,-0.005
0.052,-0.002
0.049,-0.006
0.046,-0.004
0.047,-0.007
0.050,-0.004
0.048,-0.007
0.050,-0.003
0.046,-0.003
0.049,-0.006
0.046,-0.002
0.049,-0.005
0.046,-0.004
0.047,-0.006
0.047,-0.003
0.047,-0.007
0.047,-0.005
0.046,-0.003
0.046,-0.003
0.043,-0.003
0.045,-0.003
0.042,-0.004
0.046,-0.003
0.044,-0.002
0.045,-0.002
0.043,-0.001
0.044,0.002
0.045,0.002
0.043,0.005
0.042,0.005
0.041,0.005
0.041,0.003
0.044,0.005
0.042,0.004
0.044,0.003
0.043,0.007
0.042,0.006
0.041,0.008
0.043,0.010
0.043,0.011
0.043,0.011
0.044,0.013
0.044,0.013
0.043,0.009
0.044,0.015
0.043,0.014
0.044,0.016
0.040,0.015
0.040,0.015
0.042,0.017
0.040,0.017
0.039,0.019
0.039,0.018
0.041,0.017
0.037,0.020
0.037,0.019
0.038,0.020
0.039,0.023
0.039,0.026
0.040,0.028
0.041,0.029
0.039,0.029
0.041,0.033
0.041,0.032
0.041,0.030
0.040,0.033
0.043,0.032
0.042,0.032
0.040,0.033
0.039,0.036
0.038,0.036
0.039,0.038
0.037,0.036
0.040,0.039
0.040,0.037
0.042,0.039
0.041,0.037
0.044,0.039
0.039,0.039
0.041,0.038
0.037,0.041
0.040,0.037
0.038,0.041
0.040,0.040
0.040,0.043
0.041,0.043
0.039,0.044
0.042,0.045
0.042,0.045
0.042,0.045
0.045,0.045
0.047,0.049
0.043,0.043
0.045,0.045
0.042,0.044
0.039,0.040
0.043,0.045
0.041,0.045
0.039,0.048
0.039,0.046
0.041,0.047
0.041,0.045
0.043,0.047
0.045,0.045
0.044,0.047
0.042,0.049
0.044,0.045
0.042,0.045
0.044,0.044
0.043,0.043
0.045,0.042
0.048,0.043
0.044,0.042
0.044,0.042
0.042,0.043
0.041,0.039
0.040,0.041
0.042,0.037
0.045,0.039
0.043,0.038
0.045,0.036
0.043,0.037
0.045,0.032
0.043,0.035
0.045,0.031
0.045,0.031
0.048,0.028
0.049,0.028
0.045,0.026
0.049,0.027
0.046,0.029
0.047,0.028
0.044,0.029
0.046,0.026
0.045,0.028
0.048,0.024
0.046,0.025
0.047,0.023
0.046,0.019
0.046,0.020
0.047,0.017
0.047,0.015
0.048,0.013
0.049,0.012
0.050,0.012
0.049,0.011
0.050,0.011
0.048,0.013
0.051,0.012
0.050,0.010
0.048,0.006
0.050,0.008
0.047,0.007
0.044,0.008
0.044,0.007
0.045,0.005
0.046,0.005
0.045,0.004
0.046,0.002
0.046,0.004
0.045,0.004
0.045,0.001
0.045,0.005
0.045,0.002
0.046,0.003
0.046,0.001
0.048,0.002
0.048,0.002
0.047,0.000
0.045,0.002
0.047,-0.000
0.043,-0.002
0.046,-0.003
0.046,-0.001
0.045,-0.004
0.043,-0.003
0.045,-0.003
0.043,-0.003
0.042,-0.002
0.043,-0.000
0.044,-0.003
0.044,-0.004
0.045,-0.003
0.046,-0.003
0.044,-0.001
0.046,0.000
0.044,0.001
0.043,0.003
0.041,0.000
0.041,0.001
0.041,0.000
0.045,0.003
0.044,0.003
0.045,0.003
0.044,0.005
0.043,0.005
0.043,0.008
0.042,0.008
0.042,0.007
0.043,0.007
0.045,0.007
0.045,0.006
0.044,0.008
0.044,0.008
0.043,0.006
0.046,0.008
0.043,0.008
0.042,0.010
0.043,0.010
0.041,0.010
0.042,0.010
0.045,0.010
0.043,0.011
0.043,0.013
0.045,0.014
0.044,0.013
0.043,0.016
0.041,0.015
0.043,0.019
0.041,0.017
0.042,0.022
0.041,0.023
0.040,0.026
0.042,0.022
0.040,0.029
0.043,0.026
0.039,0.028
0.041,0.027
0.041,0.028
0.044,0.025
0.043,0.030
0.039,0.027
0.040,0.030
0.037,0.028
0.042,0.030
0.041,0.031
0.043,0.032
0.041,0.032
0.044,0.032
0.040,0.037
0.044,0.035
0.044,0.036
0.042,0.035
0.044,0.036
0.043,0.035
0.043,0.036
0.041,0.035
0.043,0.035
0.038,0.038
0.042,0.039
0.036,0.043
0.040,0.042
0.042,0.041
0.044,0.040
0.045,0.041
0.044,0.044
0.045,0.042
0.044,0.045
0.045,0.043
0.045,0.045
0.043,0.039
0.045,0.043
0.043,0.042
0.047,0.042
0.042,0.045
0.044,0.043
0.041,0.049
0.043,0.043
0.042,0.047
0.043,0.044
0.044,0.046
0.042,0.041
0.046,0.042
0.042,0.040
0.044,0.041
0.041,0.044
0.045,0.039
0.042,0.040
0.044,0.037
0.043,0.037
0.047,0.033
0.048,0.036
0.049,0.036
0.046,0.036
0.045,0.038
0.045,0.035
0.046,0.039
0.046,0.036
0.046,0.036
0.048,0.033
0.050,0.032
0.048,0.032
0.048,0.029
0.043,0.028
0.047,0.028
0.046,0.028
0.049,0.025
0.046,0.024
0.046,0.021
0.048,0.023
0.046,0.023
0.049,0.023
0.049,0.021
0.049,0.019
0.048,0.019
0.050,0.014
0.048,0.012
0.048,0.011
0.047,0.011
0.048,0.010
0.045,0.013
0.048,0.013
0.047,0.011
0.047,0.010
0.049,0.010
0.048,0.006
0.047,0.008
0.047,0.006
0.047,0.004
0.047,0.002
0.045,0.001
0.044,0.002
0.047,0.002
0.045,0.003
0.047,0.000
0.048,0.001
0.047,-0.001
0.048,0.000
0.048,0.001
0.047,0.001
0.048,0.001
0.048,-0.000
0.048,0.004
0.048,-0.003
0.047,-0.003
0.047,-0.007
0.050,-0.004
0.048,-0.005
0.047,-0.003
0.046,-0.004
0.047,-0.003
0.045,-0.003
0.046,-0.006
0.044,-0.005
0.049,-0.008
0.047,-0.004
0.046,-0.009
0.044,-0.005
0.043,-0.005
0.045,-0.006
0.041,-0.004
0.047,-0.005
0.042,-0.005
0.044,-0.006
0.045,-0.003
0.044,-0.001
0.045,-0.002
0.044,0.004
0.043,0.000
0.042,0.003
0.043,0.000
0.044,0.004
0.042,0.000
0.046,0.004
0.044,0.002
0.045,0.005
0.039,0.007
0.044,0.007
0.041,0.006
0.044,0.008
0.045,0.008
0.044,0.006
0.045,0.010
0.045,0.010
0.044,0.011
0.040,0.012
0.040,0.014
0.041,0.013
0.042,0.015
0.042,0.014
0.042,0.014
0.041,0.016
0.041,0.014
0.040,0.017
0.041,0.014
0.040,0.018
0.039,0.019
0.038,0.019
0.037,0.019
0.038,0.022
0.039,0.023
0.043,0.024
0.041,0.028
0.040,0.029
0.041,0.032
0.041,0.030
0.040,0.033
0.041,0.033
0.038,0.036
0.038,0.034
0.042,0.037
0.038,0.036
0.041,0.038
0.040,0.041
0.043,0.040
0.039,0.036
0.040,0.036
0.039,0.039
0.039,0.038
0.039,0.037
0.041,0.037
0.039,0.040
0.037,0.037
0.041,0.037
0.039,0.040
0.043,0.040
0.042,0.042
0.044,0.041
0.042,0.043
0.040,0.045
0.036,0.050
0.040,0.046
0.039,0.048
0.041,0.045
0.045,0.046
0.045,0.045
0.044,0.045
0.046,0.047
0.045,0.046
0.043,0.052
0.041,0.050
0.043,0.050
0.041,0.049
0.046,0.049
0.045,0.049
0.047,0.046
0.046,0.049
0.046,0.043
0.042,0.049
0.043,0.045
0.048,0.047
0.048,0.043
0.053,0.045
0.047,0.042
0.049,0.044
0.047,0.045
0.048,0.044
0.046,0.045
0.047,0.043
0.048,0.043
0.048,0.039
0.051,0.037
0.052,0.039
0.050,0.039
0.050,0.041
0.046,0.038
0.047,0.035
0.048,0.034
0.050,0.033
0.050,0.031
0.052,0.031
0.050,0.034
0.049,0.032
0.049,0.034
0.051,0.031
0.048,0.029
0.051,0.031
0.047,0.029
0.049,0.030
0.050,0.028
0.051,0.027
0.052,0.024
0.053,0.020
0.052,0.021
0.051,0.014
0.050,0.014
0.050,0.010
0.051,0.013
0.048,0.010
0.050,0.009
0.046,0.010
0.049,0.007
0.048,0.009
0.049,0.008
0.046,0.006
0.048,0.007
0.049,0.004
0.048,0.004
0.049,0.003
0.050,0.002
0.047,-0.001
0.048,0.003
0.048,0.003
0.047,0.002
0.045,0.003
0.046,0.005
0.047,0.005
0.050,0.003
0.046,0.001
0.051,-0.001
0.049,0.002
0.050,-0.003
0.048,-0.002
0.049,-0.004
0.048,-0.003
0.047,-0.006
0.047,-0.004
0.044,-0.005
0.048,-0.006
0.046,-0.001
0.046,-0.003
0.044,-0.003
0.044,-0.004
0.044,-0.002
0.046,-0.006
0.045,-0.003
0.047,-0.004
0.047,-0.003
0.046,-0.005
0.046,-0.001
0.043,0.001
0.046,-0.001
0.046,0.002
0.043,-0.001
0.044,0.003
0.046,0.001
0.049,0.001
0.046,0.002
0.048,0.004
0.044,0.006
0.047,0.004
0.045,0.007
0.045,0.004
0.049,0.006
0.048,0.005
0.045,0.006
0.045,0.007
0.045,0.007
0.041,0.011
0.045,0.010
0.043,0.011
0.046,0.009
0.044,0.010
0.045,0.011
0.043,0.011
0.046,0.014
0.046,0.013
0.042,0.017
0.044,0.017
0.044,0.017
0.045,0.015
0.045,0.017
0.044,0.013
0.044,0.021
0.041,0.022
0.045,0.022
0.042,0.022
0.043,0.026
0.043,0.025
0.042,0.026
0.043,0.031
0.042,0.031
0.042,0.029
0.043,0.029
0.042,0.028
0.044,0.029
0.046,0.030
0.043,0.032
0.044,0.035
0.042,0.035
0.041,0.038
0.039,0.034
0.039,0.036
0.038,0.034
0.042,0.036
0.042,0.034
0.047,0.037
0.045,0.037
0.047,0.037
0.044,0.042
0.045,0.039
0.042,0.042
0.041,0.041
0.042,0.043
0.040,0.046
0.043,0.046
0.041,0.048
0.044,0.045
0.041,0.048
0.041,0.047
0.041,0.045
0.040,0.048
0.039,0.045
0.042,0.045
0.044,0.045
0.044,0.043
0.043,0.042
0.043,0.046
0.042,0.045
0.040,0.048
0.040,0.048
0.043,0.050
0.043,0.046
0.046,0.049
0.045,0.047
0.044,0.048
0.044,0.047
0.042,0.043
0.042,0.043
0.044,0.045
0.046,0.042
0.045,0.040
0.045,0.041
0.047,0.040
0.046,0.041
0.047,0.041
0.045,0.038
0.047,0.039
0.046,0.038
0.046,0.034
0.045,0.035
0.047,0.035
0.048,0.034
0.045,0.033
0.047,0.034
0.046,0.031
0.046,0.032
0.046,0.030
0.048,0.030
0.044,0.028
0.046,0.028
0.044,0.028
0.046,0.024
0.044,0.025
0.048,0.024
0.047,0.024
0.048,0.024
0.049,0.022
0.050,0.023
0.048,0.021
0.050,0.020
0.047,0.018
0.047,0.015
0.045,0.014
0.047,0.013
0.046,0.015
0.046,0.011
0.049,0.013
0.047,0.010
0.050,0.011
0.048,0.007
0.050,0.006
0.048,0.009
0.048,0.006
0.047,0.008
0.047,0.003
0.044,0.005
0.045,0.001
0.048,0.003
0.044,0.001
0.045,-0.001
0.045,0.003
0.046,0.001
0.045,0.004
0.045,-0.000
0.045,0.001
0.046,0.001
0.050,0.001
0.046,-0.001
0.049,-0.002
0.047,-0.002
0.049,-0.006
0.044,-0.002
0.045,-0.003
0.045,0.001
0.043,-0.000
0.048,0.001
0.047,-0.005
0.047,-0.004
0.047,-0.004
0.049,-0.004
0.049,-0.001
0.048,-0.000
0.045,0.000
0.044,-0.000
0.046,-0.002
0.047,0.000
0.046,-0.002
0.045,0.003
0.046,0.000
0.046,0.004
0.042,0.004
0.045,0.005
0.043,0.002
0.046,0.004
0.042,0.003
0.045,0.002
0.041,0.006
0.042,0.004
0.042,0.008
0.040,0.007
0.041,0.006
0.041,0.005
0.048,0.009
0.044,0.009
0.045,0.009
0.042,0.014
0.044,0.011
0.041,0.013
0.041,0.014
0.042,0.015
0.043,0.013
0.045,0.013
0.044,0.014
0.045,0.014
0.045,0.012
0.045,0.013
0.045,0.019
0.043,0.016
0.044,0.019
0.040,0.021
0.041,0.024
0.042,0.026
0.042,0.027
0.040,0.027
0.043,0.029
0.042,0.031
0.041,0.034
0.042,0.034
0.039,0.035
0.042,0.032
0.037,0.034
0.038,0.034
0.038,0.036
0.039,0.035
0.041,0.036
0.040,0.036
0.043,0.036
0.042,0.036
0.043,0.036
0.042,0.040
0.042,0.039
0.040,0.042
0.042,0.039
0.039,0.039
0.038,0.039
0.042,0.040
0.038,0.038
0.044,0.038
0.045,0.039
0.042,0.040
0.042,0.044
0.042,0.043
0.043,0.047
0.041,0.046
0.043,0.048
0.041,0.045
0.046,0.044
0.043,0.042
0.047,0.045
0.045,0.046
0.043,0.046
0.042,0.046
0.042,0.045
0.042,0.045
0.043,0.045
0.043,0.047
0.040,0.049
0.044,0.047
0.043,0.051
0.044,0.046
0.043,0.047
0.040,0.045
0.043,0.047
0.043,0.041
0.048,0.041
0.042,0.041
0.045,0.039
0.043,0.043
0.046,0.042
0.043,0.041
0.046,0.038
0.047,0.040
0.046,0.037
0.048,0.039
0.045,0.037
0.048,0.035
0.046,0.037
0.049,0.037
0.045,0.036
0.046,0.031
0.047,0.034
0.046,0.033
0.049,0.031
0.048,0.029
0.048,0.029
0.049,0.029
0.047,0.025
0.048,0.028
0.046,0.024
0.046,0.024
0.046,0.022
0.047,0.024
0.045,0.023
0.044,0.023
0.045,0.022
0.046,0.021
0.047,0.018
0.047,0.017
0.047,0.017
0.047,0.013
0.046,0.011
0.049,0.012
0.049,0.011
0.048,0.010
0.049,0.013
0.047,0.012
0.048,0.009
0.050,0.006
0.047,0.009
0.046,0.005
0.046,0.009
0.046,0.006
0.050,0.007
0.049,0.003
0.049,0.005
0.050,0.004
0.049,0.003
0.048,0.003
0.046,0.002
0.047,-0.000
0.049,-0.002
0.049,0.001
0.052,-0.002
0.050,-0.001
0.050,-0.002
0.049,-0.002
0.045,-0.003
0.049,-0.002
0.046,-0.000
0.049,-0.002
0.050,-0.001
0.049,-0.004
0.048,-0.005
0.050,-0.003
0.048,-0.003
0.049,-0.001
0.049,0.000
0.051,0.001
0.049,-0.003
0.049,-0.000
0.047,-0.002
0.049,-0.002
0.044,0.001
0.049,0.002
0.044,0.002
0.045,0.001
0.046,0.001
0.046,-0.000
0.049,0.004
0.047,0.003
0.045,0.004
0.044,0.006
0.047,0.006
0.045,0.007
0.047,0.008
0.044,0.008
0.045,0.006
0.041,0.007
0.046,0.009
0.045,0.009
0.045,0.013
0.046,0.011
0.043,0.013
0.042,0.011
0.045,0.015
0.042,0.013
0.047,0.013
0.044,0.012
0.045,0.014
0.045,0.014
0.046,0.015
0.043,0.017
0.043,0.017
0.042,0.019
0.044,0.019
0.038,0.022
0.042,0.022
0.040,0.024
0.041,0.024
0.039,0.029
0.040,0.028
0.041,0.031
0.042,0.029
0.043,0.030
0.041,0.029
0.045,0.033
0.043,0.030
0.042,0.033
0.042,0.031
0.044,0.032
0.042,0.032
0.046,0.033
0.043,0.038
0.044,0.037
0.041,0.039
0.043,0.041
0.045,0.042
0.044,0.040
0.044,0.040
0.044,0.038
0.045,0.039
0.045,0.039
0.045,0.040
0.044,0.043
0.042,0.039
0.039,0.045
0.041,0.043
0.044,0.044
0.038,0.044
0.045,0.043
0.042,0.044
0.044,0.043
0.043,0.046
0.044,0.044
0.041,0.044
0.044,0.042
0.047,0.045
0.045,0.040
0.044,0.044
0.044,0.043
0.045,0.044
0.040,0.047
0.042,0.045
0.040,0.047
0.043,0.045
0.046,0.046
0.048,0.044
0.046,0.045
0.044,0.048
0.043,0.045
0.041,0.045
0.045,0.043
0.043,0.044
0.046,0.040
0.047,0.041
0.045,0.039
0.047,0.040
0.046,0.040
0.048,0.037
0.045,0.039
0.047,0.037
0.046,0.037
0.045,0.032
0.049,0.033
0.049,0.034
0.049,0.032
0.047,0.035
0.049,0.035
0.045,0.033
0.047,0.029
0.046,0.029
0.045,0.026
0.049,0.028
0.047,0.026
0.047,0.026
0.047,0.026
0.050,0.022
0.047,0.022
0.047,0.017
0.047,0.021
0.048,0.019
0.050,0.018
0.049,0.014
0.050,0.016
0.050,0.011
0.051,0.014
0.049,0.013
0.049,0.013
0.049,0.011
0.050,0.010
0.047,0.010
0.050,0.009
0.048,0.007
0.049,0.008
0.050,0.005
0.047,0.003
0.049,0.006
0.050,0.004
0.048,0.003
0.047,0.002
0.048,0.002
0.045,-0.001
0.050,0.002
0.048,0.001
0.049,0.001
0.046,0.003
0.047,0.003
0.047,0.001
0.048,-0.003
0.053,-0.003
0.052,-0.003
0.051,-0.007
0.050,-0.004
0.047,-0.007
0.048,-0.003
0.046,-0.003
0.044,-0.003
0.045,-0.005
0.046,-0.003
0.046,-0.003
0.048,-0.006
0.047,-0.003
0.050,-0.004
0.049,-0.002
0.047,-0.003
0.045,-0.003
0.045,-0.003
0.048,-0.000
0.046,-0.005
0.049,-0.004
0.046,-0.002
0.046,0.000
0.046,0.002
0.046,0.001
0.044,0.002
0.047,0.001
0.045,0.005
0.047,-0.000
0.045,0.003
0.046,0.001
0.044,0.003
0.047,0.006
0.045,0.007
0.043,0.006
0.046,0.008
0.048,0.006
0.048,0.006
0.047,0.008
0.048,0.010
0.044,0.011
0.045,0.013
0.044,0.012
0.046,0.015
0.044,0.013
0.049,0.014
0.047,0.014
0.047,0.015
0.047,0.015
0.047,0.016
0.045,0.015
0.045,0.016
0.044,0.018
0.045,0.018
0.045,0.021
0.047,0.022
0.042,0.026
0.045,0.025
0.043,0.029
0.044,0.026
0.043,0.031
0.043,0.026
0.041,0.031
0.043,0.029
0.044,0.033
0.043,0.033
0.042,0.034
0.041,0.033
0.042,0.035
0.042,0.036
0.043,0.035
0.042,0.035
0.046,0.038
0.044,0.040
0.044,0.039
0.044,0.041
0.044,0.041
0.045,0.042
0.041,0.039
0.045,0.040
0.045,0.039
0.041,0.037
0.042,0.044
0.043,0.042
0.041,0.045
0.039,0.043
0.042,0.046
0.040,0.047
0.044,0.045
0.044,0.045
0.047,0.043
0.043,0.048
0.045,0.046
0.042,0.047
0.041,0.044
0.044,0.045
0.042,0.044
0.044,0.045
0.042,0.046
0.041,0.045
0.036,0.046
0.040,0.047
0.040,0.046
0.039,0.045
0.042,0.043
0.043,0.043
0.046,0.043
0.047,0.043
0.046,0.041
0.045,0.043
0.042,0.041
0.043,0.042
0.041,0.041
0.044,0.038
0.043,0.037
0.047,0.035
0.046,0.038
0.045,0.036
0.043,0.040
0.043,0.038
0.045,0.040
0.043,0.037
0.048,0.036
0.046,0.035
0.047,0.032
0.046,0.033
0.048,0.030
0.045,0.033
0.049,0.030
0.045,0.031
0.045,0.029
0.046,0.028
0.046,0.026
0.047,0.031
0.046,0.026
0.047,0.024
0.050,0.023
0.049,0.020
0.050,0.018
0.050,0.017
0.049,0.017
0.049,0.015
0.048,0.015
0.049,0.012
0.048,0.015
0.046,0.010
0.045,0.018
0.045,0.012
0.047,0.012
0.046,0.009
0.049,0.008
0.048,0.007
0.049,0.009
0.048,0.007
0.048,0.007
0.050,0.007
0.047,0.002
0.047,0.004
0.045,0.005
0.049,0.003
0.049,0.002
0.053,0.004
0.049,0.004
0.049,0.002
0.050,0.003
0.051,0.003
0.050,0.002
0.050,-0.002
0.052,-0.001
0.052,-0.003
0.053,-0.003
0.051,-0.001
0.050,-0.003
0.048,-0.002
0.047,-0.002
0.047,-0.003
0.045,-0.002
0.049,0.002
0.047,-0.001
0.049,-0.001
0.048,0.003
0.048,0.000
0.045,0.000
0.044,-0.002
0.047,0.001
0.045,-0.000
0.050,0.002
0.045,0.002
0.046,0.003
0.045,0.002
0.048,0.004
0.043,0.007
0.045,0.007
0.042,0.005
0.045,0.006
0.047,0.008
0.045,0.008
0.045,0.008
0.047,0.010
0.045,0.008
0.043,0.009
0.044,0.010
0.042,0.012
0.043,0.010
0.046,0.011
0.045,0.014
0.043,0.013
0.041,0.018
0.042,0.016
0.039,0.016
0.039,0.015
0.039,0.017
0.041,0.016
0.043,0.017
0.040,0.016
0.040,0.019
0.038,0.019
0.043,0.020
0.039,0.018
0.042,0.023
0.037,0.024
0.042,0.024
0.039,0.026
0.042,0.029
0.037,0.029
0.041,0.033
0.041,0.031
0.043,0.032
0.042,0.030
0.044,0.034
0.043,0.033
0.043,0.035
0.042,0.037
0.045,0.036
0.040,0.038
0.042,0.038
0.040,0.042
0.042,0.040
0.046,0.043
0.044,0.041
0.047,0.042
0.043,0.043
0.046,0.041
0.041,0.044
0.043,0.043
0.042,0.043
0.043,0.041
0.043,0.043
0.044,0.044
0.045,0.043
0.045,0.043
0.045,0.045
0.044,0.048
0.045,0.045
0.042,0.048
0.044,0.046
0.044,0.048
0.046,0.046
0.049,0.048
0.045,0.043
0.049,0.044
0.045,0.045
0.045,0.044
0.043,0.048
0.047,0.048
0.044,0.051
0.047,0.046
0.046,0.048
0.046,0.046
0.048,0.049
0.047,0.049
0.049,0.048
0.044,0.049
0.046,0.046
0.047,0.046
0.046,0.047
0.046,0.043
0.046,0.041
0.046,0.041
0.047,0.041
0.049,0.038
0.047,0.041
0.045,0.041
0.047,0.043
0.046,0.038
0.049,0.037
0.051,0.033
0.051,0.035
0.049,0.035
0.049,0.033
0.045,0.034
0.049,0.031
0.049,0.032
0.049,0.027
0.047,0.030
0.047,0.029
0.046,0.028
0.049,0.030
0.047,0.028
0.047,0.029
0.045,0.026
0.047,0.027
0.049,0.024
0.046,0.022
0.051,0.021
0.048,0.019
0.051,0.016
0.049,0.017
0.049,0.016
0.048,0.014
0.049,0.011
0.050,0.011
0.049,0.010
0.051,0.011
0.050,0.010
0.049,0.008
0.050,0.008
0.050,0.004
0.048,0.009
0.046,0.005
0.043,0.007
0.045,0.004
0.044,0.003
0.043,0.004
0.048,0.002
0.045,0.002
0.047,0.002
0.046,0.003
0.047,0.002
0.046,0.005
0.044,0.003
0.047,0.004
0.047,0.001
0.049,0.000
0.050,-0.002
0.048,-0.003
0.048,-0.001
0.047,-0.002
0.045,-0.001
0.046,-0.001
0.045,-0.002
0.043,-0.001
0.047,-0.001
0.047,-0.003
0.044,-0.003
0.047,0.000
0.046,-0.001
0.046,-0.001
0.044,-0.001
0.048,-0.002
0.046,-0.002
0.046,-0.002
0.045,0.000
0.046,-0.000
0.043,0.005
0.041,0.003
0.043,0.003
0.042,0.003
0.047,0.003
0.043,0.002
0.046,0.003
0.044,0.006
0.046,0.004
0.041,0.010
0.044,0.008
0.045,0.008
0.045,0.009
0.046,0.009
0.041,0.007
0.044,0.008
0.043,0.011
0.045,0.009
0.043,0.014
0.042,0.013
0.043,0.017
0.043,0.014
0.044,0.017
0.043,0.014
0.046,0.017
0.044,0.012
0.047,0.013
0.046,0.016
0.048,0.016
0.045,0.017
0.046,0.017
0.045,0.020
0.046,0.018
0.043,0.027
0.043,0.022
0.041,0.030
0.041,0.027
0.042,0.033
0.042,0.030
0.043,0.032
0.040,0.031
0.044,0.034
0.042,0.034
0.044,0.033
0.042,0.033
0.043,0.037
0.041,0.033
0.045,0.037
0.041,0.036
0.045,0.039
0.044,0.040
0.044,0.040
0.043,0.041
0.043,0.042
0.043,0.041
0.044,0.040
0.045,0.040
0.046,0.039
0.046,0.041
0.045,0.043
0.044,0.043
0.043,0.042
0.044,0.044
0.045,0.044
0.044,0.043
0.045,0.045
0.047,0.045
0.047,0.046
0.046,0.048
0.048,0.045
0.044,0.048
0.044,0.046
0.048,0.045
0.045,0.043
0.048,0.043
0.045,0.044
0.045,0.045
0.042,0.048
0.044,0.046
0.041,0.051
0.043,0.050
0.041,0.049
0.042,0.049
0.045,0.046
0.043,0.046
0.047,0.046
0.043,0.044
0.045,0.042
0.045,0.046
0.043,0.044
0.045,0.046
0.045,0.042
0.047,0.044
0.044,0.041
0.047,0.042
0.045,0.043
0.045,0.041
0.043,0.042
0.045,0.039
0.045,0.038
0.044,0.036
0.049,0.036
0.048,0.033
0.051,0.035
0.048,0.036
0.049,0.033
0.045,0.034
0.049,0.032
0.049,0.030
0.049,0.027
0.049,0.029
0.046,0.026
0.048,0.025
0.048,0.024
0.047,0.023
0.048,0.023
0.046,0.024
0.049,0.024
0.050,0.016
0.050,0.019
0.052,0.016
0.050,0.018
0.049,0.017
0.047,0.015
0.048,0.014
0.047,0.015
0.047,0.015
0.045,0.013
0.045,0.011
0.045,0.010
0.046,0.010
0.048,0.010
0.049,0.006
0.049,0.007
0.049,0.005
0.047,0.006
0.046,0.005
0.047,0.005
0.045,0.006
0.045,0.002
0.048,0.004
0.046,0.002
0.046,0.008
0.045,0.005
0.048,0.005
0.044,0.003
0.048,0.003
0.048,0.001
0.046,-0.003
0.049,-0.001
0.049,-0.004
0.048,-0.004
0.045,-0.003
0.046,-0.003
0.046,0.000
0.047,0.001
0.046,0.001
0.049,-0.002
0.047,-0.001
0.048,-0.001
0.046,-0.000
0.048,0.000
0.046,-0.000
0.046,0.004
0.045,0.002
0.045,0.003
0.045,0.000
0.047,0.001
0.046,0.000
0.047,0.004
0.045,0.005
0.044,0.006
0.041,0.007
0.043,0.005
0.040,0.007
0.041,0.006
0.047,0.007
0.046,0.006
0.045,0.007
0.044,0.009
0.044,0.009
0.044,0.010
0.044,0.011
0.043,0.013
0.045,0.015
0.045,0.017
0.045,0.016
0.045,0.016
0.047,0.016
0.045,0.019
0.044,0.019
0.044,0.019
0.045,0.019
0.044,0.018
0.044,0.021
0.044,0.019
0.045,0.023
0.041,0.020
0.040,0.025
0.038,0.023
0.039,0.026
0.038,0.025
0.041,0.030
0.040,0.031
0.041,0.031
0.041,0.032
0.044,0.032
0.040,0.033
0.042,0.031
0.040,0.033
0.041,0.035
0.042,0.036
0.039,0.036
0.039,0.039
0.040,0.038
0.039,0.041
0.039,0.040
0.041,0.041
0.039,0.040
0.042,0.041
0.042,0.040
0.044,0.040
0.044,0.041
0.041,0.042
0.041,0.045
0.043,0.044
0.043,0.043
0.040,0.043
0.043,0.045
0.043,0.045
0.044,0.048
0.044,0.048
0.044,0.047
0.044,0.048
0.041,0.048
0.043,0.050
0.042,0.051
0.044,0.049
0.044,0.049
0.047,0.049
0.045,0.047
0.041,0.044
0.043,0.050
0.041,0.051
0.041,0.050
0.042,0.049
0.044,0.049
0.041,0.049
0.047,0.052
0.047,0.048
0.047,0.049
0.046,0.049
0.047,0.047
0.044,0.048
0.044,0.048
0.042,0.047
0.044,0.046
0.046,0.046
0.047,0.045
0.046,0.042
0.047,0.046
0.047,0.045
0.046,0.045
0.047,0.043
0.047,0.041
0.046,0.039
0.050,0.039
0.049,0.038
0.049,0.039
0.045,0.040
0.049,0.040
0.045,0.039
0.047,0.034
0.047,0.036
0.045,0.031
0.048,0.034
0.046,0.031
0.048,0.031
0.047,0.030
0.050,0.029
0.047,0.031
0.049,0.029
0.043,0.028
0.050,0.023
0.049,0.023
0.050,0.022
0.049,0.020
0.048,0.017
0.047,0.015
0.047,0.017
0.047,0.014
0.047,0.016
0.049,0.016
0.049,0.013
0.051,0.013
0.051,0.010
0.050,0.011
0.052,0.010
0.049,0.010
0.049,0.010
0.050,0.009
0.048,0.009
0.051,0.010
0.049,0.008
0.049,0.004
0.050,0.005
0.051,0.006
0.048,0.003
0.049,0.007
0.049,0.007
0.050,0.007
0.050,0.004
0.050,0.004
0.049,-0.001
0.050,0.001
0.051,-0.001
0.048,0.000
0.049,0.001
0.047,0.000
0.043,-0.000
0.045,0.001
0.047,-0.000
0.048,-0.003
0.045,-0.002
0.046,-0.001
0.045,-0.001
0.045,0.000
0.045,0.002
0.045,0.003
0.046,0.003
0.045,0.006
0.045,0.005
0.046,0.005
0.046,0.004
0.045,0.002
0.048,0.004
0.044,0.004
0.045,0.008
0.045,0.007
0.047,0.008
0.046,0.008
0.046,0.008
0.044,0.010
0.047,0.009
0.045,0.012
0.047,0.011
0.045,0.010
0.046,0.010
0.047,0.011
0.045,0.012
0.049,0.013
0.044,0.012
0.047,0.010
0.044,0.014
0.046,0.013
0.045,0.016
0.043,0.012
0.046,0.018
0.045,0.015
0.048,0.017
0.044,0.017
0.046,0.019
0.044,0.017
0.045,0.018
0.041,0.022
0.042,0.023
0.043,0.021
0.043,0.026
0.045,0.028
0.042,0.029
0.043,0.031
0.042,0.029
0.043,0.031
0.044,0.029
0.044,0.035
0.045,0.030
0.045,0.034
0.043,0.032
0.043,0.036
0.041,0.036
0.044,0.038
0.042,0.037
0.044,0.036
0.043,0.037
0.043,0.037
0.044,0.039
0.044,0.036
0.044,0.042
0.044,0.041
0.043,0.041
0.045,0.039
0.043,0.040
0.042,0.040
0.047,0.041
0.043,0.040
0.045,0.042
0.043,0.044
0.043,0.043
0.041,0.046
0.042,0.048
0.043,0.047
0.044,0.044
0.045,0.042
0.045,0.045
0.047,0.043
0.047,0.047
0.044,0.045
0.044,0.047
0.043,0.046
0.044,0.045
0.041,0.044
0.047,0.046
0.041,0.047
0.042,0.045
0.044,0.048
0.045,0.044
0.043,0.047
0.044,0.044
0.047,0.045
0.045,0.044
0.047,0.045
0.045,0.040
0.048,0.039
0.045,0.040
0.047,0.042
0.044,0.040
0.046,0.041
0.047,0.043
0.047,0.037
0.046,0.037
0.045,0.033
0.047,0.035
0.047,0.036
0.046,0.034
0.046,0.035
0.046,0.036
0.050,0.035
0.047,0.034
0.046,0.032
0.050,0.032
0.051,0.031
0.051,0.031
0.048,0.029
0.048,0.030
0.049,0.029
0.050,0.028
0.049,0.025
0.050,0.023
0.048,0.023
0.050,0.023
0.049,0.019
0.051,0.019
0.050,0.013
0.049,0.017
0.047,0.015
0.049,0.013
0.048,0.013
0.049,0.010
0.047,0.010
0.048,0.009
0.046,0.011
0.049,0.010
0.049,0.012
0.050,0.007
0.049,0.008
0.048,0.005
0.050,0.003
0.049,0.003
0.051,0.002
0.046,0.004
0.050,0.004
0.048,0.004
0.050,0.002
0.048,0.003
0.050,0.002
0.052,0.004
0.051,0.002
0.051,0.000
0.049,0.003
0.052,0.001
0.049,-0.002
0.049,-0.002
0.048,-0.001
0.050,-0.004
0.050,-0.002
0.050,-0.005
0.051,-0.002
0.048,-0.003
0.050,-0.002
0.048,0.000
0.047,-0.003
0.048,-0.004
0.049,-0.004
0.048,-0.003
0.046,-0.004
0.047,-0.004
0.047,-0.003
0.046,-0.003
0.044,-0.002
0.045,-0.002
0.048,0.000
0.046,-0.000
0.048,0.002
0.046,0.000
0.045,0.001
0.047,0.003
0.045,0.004
0.041,0.004
0.042,0.004
0.044,0.005
0.044,0.005
0.045,0.007
0.044,0.006
0.045,0.008
0.043,0.009
0.043,0.009
0.042,0.011
0.041,0.011
0.045,0.012
0.045,0.012
0.044,0.013
0.043,0.012
0.043,0.012
0.044,0.014
0.043,0.015
0.044,0.018
0.041,0.017
0.041,0.019
0.042,0.017
0.040,0.018
0.043,0.019
0.041,0.019
0.042,0.023
0.041,0.025
0.039,0.025
0.039,0.029
0.039,0.030
0.041,0.032
0.042,0.033
0.040,0.034
0.043,0.033
0.043,0.033
0.042,0.033
0.044,0.033
0.041,0.033
0.041,0.034
0.039,0.038
0.040,0.036
0.040,0.041
0.040,0.038
0.040,0.041
0.038,0.039
0.041,0.041
0.038,0.037
0.045,0.039
0.040,0.040
0.044,0.039
0.042,0.043
0.042,0.040
0.039,0.041
0.041,0.042
0.041,0.043
0.039,0.042
0.042,0.046
0.041,0.043
0.043,0.046
0.043,0.049
0.041,0.049
0.042,0.052
0.043,0.051
0.044,0.050
0.043,0.048
0.045,0.047
0.043,0.044
0.045,0.047
0.046,0.046
0.042,0.044
0.045,0.047
0.046,0.045
0.045,0.044
0.041,0.044
0.047,0.042
0.048,0.044
0.049,0.043
0.048,0.048
0.045,0.046
0.046,0.048
0.044,0.044
0.045,0.046
0.043,0.045
0.046,0.045
0.046,0.041
0.045,0.040
0.043,0.042
0.045,0.041
0.044,0.042
0.045,0.039
0.046,0.041
0.047,0.037
0.048,0.038
0.048,0.038
0.050,0.035
0.049,0.037
0.049,0.033
0.048,0.035
0.049,0.031
0.051,0.031
0.050,0.029
0.052,0.028
0.050,0.028
0.049,0.024
0.048,0.031
0.050,0.026
0.047,0.028
0.049,0.023
0.048,0.024
0.046,0.022
0.048,0.023
0.045,0.018
0.046,0.018
0.044,0.017
0.046,0.017
0.045,0.014
0.045,0.013
0.043,0.013
0.049,0.011
0.046,0.010
0.051,0.014
0.049,0.010
0.051,0.009
0.049,0.007
0.050,0.007
0.047,0.008
0.048,0.007
0.047,0.006
0.047,0.005
0.047,0.004
0.047,0.003
0.045,0.004
0.043,0.006
0.045,0.004
0.041,0.006
0.047,0.004
0.046,0.002
0.046,0.000
0.047,0.000
0.046,-0.002
0.047,-0.002
0.045,-0.000
0.046,-0.003
0.045,-0.002
0.045,-0.004
0.045,-0.003
0.044,-0.007
0.047,-0.005
0.046,-0.006
0.047,-0.007
0.048,-0.001
0.048,-0.003
0.046,-0.002
0.045,-0.002
0.046,-0.004
0.045,-0.004
0.048,-0.003
0.046,-0.003
0.046,-0.004
0.045,0.000
0.044,-0.001
0.044,-0.002
0.042,0.001
0.044,0.001
0.043,0.001
0.045,0.001
0.045,0.003
0.043,0.000
0.043,0.004
0.043,0.004
0.040,0.007
0.041,0.006
0.044,0.007
0.041,0.006
0.044,0.007
0.043,0.008
0.042,0.009
0.043,0.012
0.042,0.010
0.041,0.013
0.043,0.015
0.042,0.012
0.040,0.013
0.042,0.013
0.042,0.014
0.043,0.014
0.043,0.012
0.042,0.018
0.043,0.013
0.041,0.014
0.042,0.017
0.043,0.020
0.041,0.018
0.043,0.019
0.040,0.023
0.040,0.023
0.038,0.027
0.043,0.028
0.040,0.035
0.045,0.033
0.041,0.034
0.041,0.033
0.042,0.033
0.041,0.033
0.043,0.032
0.041,0.030
0.042,0.033
0.044,0.033
0.043,0.036
0.043,0.037
0.042,0.036
0.043,0.038
0.042,0.038
0.044,0.041
0.042,0.041
0.043,0.039
0.041,0.041
0.044,0.039
0.044,0.039
0.043,0.038
0.043,0.041
0.040,0.039
0.041,0.045
0.042,0.044
0.041,0.045
0.040,0.043
0.043,0.047
0.044,0.042
0.047,0.045
0.044,0.045
0.045,0.043
0.041,0.045
0.042,0.046
0.038,0.047
0.040,0.045
0.042,0.047
0.043,0.042
0.043,0.045
0.043,0.047
0.042,0.046
0.041,0.047
0.042,0.049
0.043,0.045
0.045,0.044
0.046,0.043
0.047,0.043
0.045,0.041
0.048,0.046
0.046,0.045
0.044,0.044
0.045,0.042
0.046,0.042
0.047,0.039
0.048,0.041
0.045,0.038
0.046,0.040
0.043,0.039
0.044,0.038
0.044,0.039
0.046,0.036
0.045,0.035
0.046,0.032
0.048,0.032
0.048,0.032
0.047,0.032
0.045,0.031
0.047,0.033
0.046,0.030
0.045,0.031
0.047,0.028
0.049,0.026
0.046,0.029
0.047,0.026
0.047,0.027
0.047,0.023
0.048,0.021
0.049,0.020
0.048,0.015
0.046,0.018
0.047,0.012
0.048,0.013
0.047,0.013
0.048,0.017
0.047,0.014
0.046,0.011
0.047,0.015
0.048,0.014
0.045,0.013
0.047,0.011
0.044,0.008
0.048,0.008
0.044,0.006
0.045,0.006
0.047,0.008
0.042,0.004
0.043,0.007
0.042,0.005
0.043,0.004
0.043,0.002
0.047,0.002
0.045,-0.002
0.047,0.000
0.046,0.001
0.046,0.001
0.043,0.002
0.048,-0.002
0.046,-0.004
0.048,-0.004
0.047,-0.005
0.046,-0.008
0.045,-0.006
0.045,-0.006
0.043,-0.005
0.042,-0.006
0.048,-0.002
0.046,-0.004
0.048,-0.006
0.048,-0.003
0.050,-0.005
0.047,-0.004
0.045,-0.000
0.046,-0.003
0.043,-0.002
0.045,-0.006
0.046,-0.001
0.044,-0.004
0.045,-0.002
0.042,-0.002
0.044,-0.000
0.044,0.003
0.043,0.002
0.042,0.002
0.043,0.005
0.042,0.004
0.041,0.003
0.041,0.007
0.045,0.007
0.044,0.004
0.041,0.006
0.040,0.008
0.039,0.007
0.039,0.006
0.042,0.008
0.039,0.006
0.042,0.008
0.042,0.008
0.040,0.009
0.041,0.013
0.041,0.011
0.042,0.016
0.040,0.016
0.041,0.019
0.041,0.018
0.043,0.020
0.039,0.016
0.042,0.019
0.040,0.016
0.041,0.021
0.040,0.022
0.041,0.024
0.037,0.023
0.041,0.025
0.039,0.028
0.040,0.029
0.040,0.029
0.041,0.030
0.044,0.027
0.041,0.030
0.043,0.029
0.039,0.030
0.042,0.033
0.040,0.033
0.039,0.036
0.039,0.036
0.036,0.039
0.036,0.037
0.040,0.040
0.039,0.037
0.044,0.040
0.042,0.037
0.045,0.040
0.043,0.039
0.043,0.042
0.042,0.043
0.044,0.038
0.040,0.040
0.042,0.038
0.040,0.041
0.039,0.041
0.042,0.044
0.041,0.042
0.043,0.045
0.039,0.049
0.042,0.046
0.038,0.046
0.042,0.043
0.041,0.043
0.042,0.041
0.046,0.045
0.044,0.045
0.043,0.043
0.042,0.047
0.040,0.046
0.041,0.048
0.041,0.046
0.043,0.049
0.040,0.044
0.043,0.047
0.041,0.047
0.046,0.044
0.042,0.047
0.044,0.044
0.043,0.046
0.041,0.044
0.041,0.043
0.041,0.040
0.045,0.039
0.045,0.040
0.047,0.039
0.044,0.041
0.045,0.036
0.043,0.039
0.049,0.042
0.045,0.039
0.046,0.038
0.049,0.034
0.048,0.035
0.048,0.033
0.047,0.036
0.047,0.035
0.049,0.034
0.045,0.029
0.051,0.031
0.048,0.028
0.049,0.027
0.046,0.026
0.047,0.025
0.047,0.030
0.049,0.026
0.046,0.030
0.048,0.025
0.046,0.027
0.045,0.022
0.047,0.021
0.047,0.020
0.047,0.017
0.046,0.012
0.045,0.015
0.045,0.013
0.046,0.013
0.046,0.012
0.046,0.015
0.046,0.010
0.049,0.012
0.046,0.008
0.048,0.007
0.047,0.009
0.049,0.006
0.045,0.006
0.046,0.002
0.047,0.003
0.048,0.001
0.047,0.001
0.047,0.003
0.048,0.003
0.045,0.003
0.044,0.004
0.044,0.003
0.044,0.002
0.046,0.000
0.048,0.000
0.049,-0.001
0.050,-0.005
0.050,-0.006
0.050,-0.005
0.049,-0.006
0.048,-0.004
0.046,-0.008
0.048,-0.007
0.048,-0.011
0.050,-0.008
0.049,-0.007
0.049,-0.006
0.049,-0.005
0.049,-0.005
0.047,-0.007
0.050,-0.006
0.049,-0.003
0.046,-0.006
0.049,-0.005
0.044,-0.003
0.049,-0.003
0.041,-0.000
0.044,-0.003
0.045,-0.001
0.044,-0.002
0.048,-0.002
0.047,0.000
0.046,0.000
0.046,0.005
0.045,0.001
0.044,0.004
0.042,0.004
0.044,0.005
0.042,0.005
0.045,0.006
0.041,0.004
0.044,0.004
0.044,0.008
0.045,0.008
0.042,0.011
0.043,0.009
0.041,0.014
0.039,0.013
0.045,0.015
0.042,0.009
0.043,0.011
0.041,0.014
0.045,0.013
0.039,0.017
0.044,0.017
0.041,0.018
0.044,0.017
0.042,0.023
0.044,0.021
0.040,0.023
0.043,0.023
0.040,0.026
0.042,0.026
0.041,0.027
0.040,0.028
0.038,0.031
0.041,0.030
0.039,0.036
0.041,0.029
0.041,0.033
0.040,0.033
0.041,0.034
0.040,0.034
0.043,0.034
0.038,0.034
0.042,0.035
0.042,0.036
0.044,0.039
0.039,0.041
0.044,0.038
0.042,0.039
0.040,0.036
0.045,0.039
0.045,0.037
0.046,0.036
0.046,0.039
0.044,0.040
0.044,0.044
0.039,0.042
0.041,0.045
0.040,0.045
0.042,0.045
0.042,0.046
0.046,0.047
0.043,0.045
0.045,0.043
0.045,0.048
0.045,0.044
0.044,0.043
0.047,0.042
0.045,0.043
0.044,0.040
0.042,0.043
0.042,0.044
0.045,0.049
0.043,0.049
0.044,0.048
0.041,0.050
0.045,0.046
0.046,0.047
0.046,0.045
0.045,0.046
0.043,0.044
0.043,0.045
0.043,0.047
0.044,0.046
0.043,0.048
0.047,0.042
0.045,0.044
0.045,0.040
0.049,0.038
0.045,0.039
0.047,0.039
0.043,0.042
0.046,0.037
0.046,0.040
0.047,0.038
0.047,0.038
0.046,0.034
0.049,0.034
0.047,0.034
0.049,0.033
0.046,0.034
0.048,0.030
0.047,0.030
0.049,0.027
0.048,0.027
0.046,0.023
0.047,0.025
0.047,0.023
0.047,0.021
0.049,0.023
0.049,0.019
0.050,0.022
0.049,0.018
0.050,0.020
0.050,0.016
0.050,0.017
0.049,0.013
0.047,0.015
0.045,0.012
0.045,0.010
0.046,0.011
0.044,0.010
0.045,0.011
0.046,0.009
0.045,0.006
0.048,0.009
0.048,0.004
0.046,0.004
0.049,0.004
0.048,0.002
0.048,0.003
0.047,0.000
0.046,0.000
0.045,0.000
0.045,0.003
0.044,0.004
0.045,0.003
0.044,0.002
0.045,0.000
0.045,0.000
0.047,-0.002
0.048,-0.001
0.050,-0.005
0.047,-0.006
0.049,-0.006
0.046,-0.006
0.047,-0.003
0.045,-0.003
0.044,-0.003
0.046,-0.001
0.049,-0.003
0.048,-0.005
0.047,-0.009
0.047,-0.004
0.047,-0.005
0.046,-0.003
0.046,-0.008
0.045,-0.003
0.042,-0.003
0.049,-0.002
0.046,-0.004
0.045,-0.001
0.045,0.000
0.046,-0.001
0.041,0.003
0.043,0.001
0.043,0.002
0.044,0.001
0.046,0.002
0.045,0.002
0.046,0.002
0.042,0.005
0.044,0.003
0.041,0.008
0.042,0.005
0.042,0.007
0.039,0.007
0.045,0.008
0.042,0.008
0.047,0.008
0.042,0.010
0.041,0.009
0.042,0.012
0.044,0.009
0.043,0.014
0.044,0.013
0.046,0.015
0.043,0.015
0.047,0.013
0.043,0.013
0.045,0.018
0.044,0.016
0.044,0.019
0.043,0.020
0.042,0.020
0.041,0.021
0.041,0.023
0.042,0.026
0.042,0.027
0.041,0.029
0.041,0.026
0.041,0.030
0.042,0.029
0.041,0.029
0.041,0.028
0.040,0.032
0.043,0.031
0.039,0.035
0.043,0.032
0.040,0.035
0.039,0.035
0.040,0.036
0.040,0.035
0.041,0.037
0.040,0.036
0.043,0.037
0.039,0.039
0.041,0.039
0.037,0.040
0.040,0.039
0.042,0.038
0.041,0.038
0.040,0.039
0.040,0.042
0.041,0.043
0.040,0.046
0.041,0.044
0.041,0.046
0.041,0.045
0.042,0.043
0.041,0.042
0.049,0.042
0.044,0.044
0.044,0.041
0.040,0.043
0.044,0.043
0.039,0.045
0.042,0.042
0.041,0.046
0.041,0.044
0.043,0.045
0.042,0.042
0.043,0.046
0.041,0.046
0.045,0.046
0.042,0.045
0.044,0.041
0.042,0.043
0.045,0.039
0.046,0.039
0.047,0.041
0.045,0.036
0.044,0.038
0.043,0.037
0.044,0.038
0.043,0.038
0.046,0.040
0.046,0.036
0.047,0.037
0.046,0.035
0.045,0.032
0.044,0.036
0.045,0.034
0.042,0.033
0.046,0.026
0.046,0.030
0.048,0.027
0.049,0.027
0.046,0.027
0.047,0.029
0.043,0.026
0.044,0.024
0.042,0.024
0.043,0.023
0.041,0.023
0.043,0.021
0.043,0.023
0.044,0.018
0.044,0.019
0.049,0.016
0.041,0.015
0.047,0.013
0.046,0.015
0.046,0.011
0.046,0.011
0.045,0.009
0.047,0.010
0.044,0.009
0.046,0.008
0.047,0.009
0.044,0.007
0.046,0.008
0.048,0.005
0.047,0.008
0.044,0.004
0.046,0.004
0.044,0.001
0.050,-0.002
0.049,0.001
0.047,-0.001
0.044,0.004
0.045,0.002
0.045,0.005
0.044,-0.001
0.046,0.001
0.044,-0.002
0.047,-0.001
0.044,-0.002
0.044,-0.003
0.043,-0.002
0.042,-0.003
0.040,-0.003
0.043,-0.003
0.044,-0.001
0.044,-0.003
0.044,-0.005
0.045,-0.003
0.043,-0.004
0.041,-0.003
0.043,-0.004
0.042,-0.003
0.042,-0.005
0.044,-0.005
0.041,-0.008
0.043,-0.006
0.044,-0.005
0.046,-0.006
0.041,-0.002
0.043,-0.003
0.038,-0.000
0.041,-0.003
0.043,-0.001
0.044,-0.001
0.045,-0.000
0.043,-0.001
0.045,0.001
0.039,0.006
0.042,0.005
0.039,0.007
0.042,0.003
0.041,0.006
0.041,0.007
0.042,0.008
0.041,0.008
0.043,0.008
0.041,0.012
0.040,0.008
0.040,0.011
0.039,0.009
0.039,0.013
0.040,0.012
0.046,0.012
0.042,0.012
0.043,0.010
0.043,0.013
0.044,0.011
0.043,0.014
0.043,0.013
0.040,0.018
0.040,0.016
0.041,0.018
0.041,0.019
0.041,0.022
0.039,0.025
0.041,0.027
0.041,0.027
0.040,0.028
0.041,0.028
0.040,0.029
0.040,0.026
0.040,0.031
0.038,0.028
0.041,0.032
0.039,0.029
0.041,0.032
0.039,0.031
0.041,0.033
0.041,0.031
0.041,0.034
0.040,0.035
0.040,0.036
0.037,0.038
0.040,0.036
0.041,0.038
0.040,0.036
0.043,0.037
0.040,0.036
0.043,0.036
0.040,0.040
0.039,0.040
0.038,0.043
0.039,0.041
0.043,0.042
0.042,0.041
0.044,0.044
0.043,0.043
0.041,0.043
0.040,0.047
0.039,0.043
0.039,0.045
0.041,0.043
0.042,0.041
0.038,0.037
0.041,0.044
0.039,0.045
0.040,0.042
0.039,0.044
0.039,0.043
0.036,0.045
0.037,0.045
0.039,0.045
0.038,0.043
0.042,0.042
0.041,0.043
0.046,0.043
0.042,0.042
0.044,0.043
0.041,0.044
0.041,0.042
0.042,0.044
0.043,0.039
0.046,0.039
0.044,0.036
0.045,0.035
0.043,0.037
0.043,0.034
0.042,0.036
0.043,0.033
0.045,0.034
0.044,0.033
0.046,0.033
0.046,0.029
0.044,0.030
0.044,0.031
0.042,0.032
0.040,0.031
0.042,0.030
0.045,0.030
0.045,0.026
0.045,0.027
0.044,0.023
0.046,0.025
0.046,0.024
0.048,0.022
0.048,0.022
0.047,0.017
0.048,0.017
0.047,0.014
0.048,0.011
0.049,0.008
0.047,0.011
0.048,0.010
0.046,0.013
0.046,0.012
0.044,0.012
0.048,0.012
0.046,0.010
0.049,0.008
0.045,0.006
0.048,0.006
0.046,0.004
0.047,0.001
0.046,0.004
0.045,0.001
0.047,0.000
0.045,0.002
0.045,0.003
0.045,0.002
0.046,-0.001
0.047,0.001
0.049,0.003
0.050,0.002
0.049,0.002
0.049,-0.002
0.048,-0.001
0.045,-0.003
0.049,-0.004
0.046,-0.008
0.046,-0.006
0.046,-0.007
0.045,-0.004
0.041,-0.000
0.044,-0.003
0.041,0.000
0.045,-0.004
0.045,-0.001
0.050,-0.004
0.046,-0.001
0.048,-0.001
0.049,-0.001
0.043,0.001
0.047,0.000
0.043,0.000
0.044,-0.001
0.044,0.000
0.045,-0.001
0.044,0.001
0.044,0.000
0.044,0.001
0.041,0.003
0.045,0.008
0.044,0.006
0.042,0.004
0.044,0.004
0.043,0.000
0.043,0.003
0.043,0.009
0.044,0.008
0.042,0.010
0.044,0.011
0.041,0.009
0.043,0.010
0.042,0.010
0.044,0.008
0.043,0.008
0.041,0.009
0.044,0.011
0.042,0.013
0.040,0.016
0.041,0.016
0.041,0.013
0.039,0.016
0.042,0.018
0.041,0.018
0.041,0.016
0.040,0.020
0.041,0.016
0.039,0.024
0.041,0.023
0.040,0.026
0.042,0.025
0.041,0.026
0.039,0.028
0.041,0.028
0.040,0.029
0.041,0.029
0.042,0.031
0.042,0.028
0.043,0.028
0.042,0.030
0.042,0.032
0.043,0.033
0.043,0.036
0.040,0.036
0.041,0.037
0.040,0.035
0.043,0.036
0.041,0.035
0.043,0.036
0.044,0.039
0.042,0.038
0.041,0.041
0.042,0.039
0.042,0.039
0.042,0.036
0.043,0.039
0.042,0.040
0.044,0.041
0.043,0.042
0.043,0.042
0.041,0.047
0.043,0.045
0.045,0.044
0.042,0.044
0.045,0.044
0.045,0.043
0.048,0.043
0.046,0.047
0.043,0.044
0.042,0.047
0.041,0.044
0.043,0.044
0.040,0.045
0.044,0.047
0.042,0.046
0.046,0.044
0.041,0.048
0.043,0.044
0.043,0.047
0.042,0.045
0.048,0.046
0.044,0.041
0.049,0.042
0.048,0.040
0.049,0.040
0.047,0.041
0.049,0.040
0.045,0.039
0.046,0.038
0.049,0.038
0.049,0.037
0.049,0.040
0.049,0.036
0.049,0.036
0.046,0.038
0.045,0.037
0.046,0.035
0.048,0.033
0.050,0.034
0.048,0.030
0.051,0.031
0.050,0.031
0.049,0.030
0.046,0.029
0.047,0.029
0.044,0.029
0.047,0.029
0.044,0.027
0.046,0.024
0.045,0.024
0.047,0.022
0.049,0.023
0.047,0.019
0.048,0.021
0.048,0.017
0.049,0.017
0.044,0.015
0.049,0.015
0.044,0.011
0.049,0.014
0.046,0.012
0.049,0.012
0.049,0.012
0.048,0.010
0.046,0.011
0.047,0.007
0.045,0.009
0.046,0.008
0.046,0.006
0.046,0.004
0.048,0.005
0.048,0.005
0.047,0.003
0.050,0.004
0.045,0.006
0.046,0.009
0.045,0.007
0.048,0.005
0.046,0.003
0.049,-0.001
0.048,-0.001
0.048,-0.001
0.046,-0.002
0.046,-0.003
0.047,-0.002
0.044,-0.004
0.047,-0.003
0.043,-0.003
0.046,-0.004
0.043,0.002
0.045,-0.000
0.042,0.002
0.044,-0.004
0.046,0.001
0.045,-0.001
0.044,0.000
0.043,0.002
0.043,0.000
0.043,0.003
0.042,0.003
0.042,0.004
0.040,0.002
0.044,0.004
0.042,0.003
0.043,0.006
0.042,0.004
0.044,0.008
0.042,0.010
0.043,0.008
0.042,0.010
0.043,0.006
0.047,0.008
0.047,0.006
0.047,0.009
0.044,0.010
0.043,0.013
0.044,0.011
0.042,0.013
0.041,0.014
0.041,0.012
0.042,0.014
0.041,0.015
0.044,0.014
0.043,0.014
0.042,0.012
0.041,0.015
0.038,0.015
0.039,0.020
0.040,0.019
0.042,0.023
0.040,0.020
0.043,0.023
0.040,0.017
0.041,0.021
0.038,0.024
0.041,0.027
0.038,0.026
0.042,0.029
0.041,0.028
0.042,0.029
0.039,0.027
0.041,0.030
0.041,0.028
0.043,0.032
0.040,0.029
0.043,0.034
0.041,0.030
0.041,0.032
0.040,0.033
0.041,0.031
0.039,0.037
0.040,0.036
0.042,0.039
0.039,0.037
0.042,0.040
0.039,0.040
0.044,0.040
0.042,0.040
0.043,0.037
0.042,0.039
0.045,0.039
0.039,0.039
0.045,0.040
0.042,0.042
0.040,0.043
0.043,0.047
0.043,0.043
0.043,0.043
0.042,0.046
0.041,0.043
0.039,0.045
0.040,0.042
0.045,0.045
0.042,0.041
0.044,0.044
0.041,0.042
0.042,0.044
0.040,0.045
0.041,0.047
0.041,0.047
0.042,0.047
0.041,0.047
0.040,0.046
0.043,0.047
0.041,0.048
0.043,0.046
0.044,0.049
0.044,0.046
0.041,0.046
0.042,0.042
0.044,0.041
0.041,0.041
0.046,0.042
0.043,0.042
0.041,0.041
0.042,0.041
0.041,0.039
0.043,0.041
0.040,0.038
0.044,0.040
0.043,0.036
0.047,0.035
0.045,0.035
0.045,0.033
0.045,0.035
0.045,0.033
0.042,0.032
0.044,0.031
0.042,0.029
0.041,0.030
0.044,0.030
0.041,0.030
0.044,0.027
0.045,0.030
0.044,0.024
0.044,0.027
0.042,0.024
0.043,0.025
0.045,0.020
0.045,0.019
0.045,0.019
0.045,0.016
0.047,0.013
0.043,0.012
0.044,0.014
0.042,0.015
0.045,0.013
0.040,0.013
0.045,0.012
0.047,0.013
0.044,0.010
0.046,0.009
0.046,0.008
0.043,0.006
0.044,0.010
0.046,0.006
0.042,0.008
0.042,0.007
0.042,0.008
0.040,0.004
0.047,0.004
0.042,0.004
0.046,0.003
0.042,0.007
0.044,0.005
0.042,0.007
0.044,0.003
0.045,0.003
0.045,-0.002
0.046,0.000
0.045,-0.004
0.045,-0.005
0.042,-0.001
0.044,-0.002
0.041,0.001
0.043,-0.001
0.040,0.002
0.044,-0.001
0.045,-0.002
0.048,-0.000
0.045,-0.002
0.044,0.001
0.043,0.000
0.042,-0.000
0.041,0.000
0.043,0.003
0.043,-0.001
0.044,0.002
0.044,0.000
0.044,0.001
0.042,0.004
0.043,0.003
0.040,0.006
0.042,0.004
0.043,0.007
0.042,0.003
0.041,0.006
0.041,0.003
0.043,0.006
0.040,0.008
0.041,0.009
0.041,0.010
0.041,0.010
0.038,0.010
0.042,0.007
0.042,0.011
0.041,0.010
0.042,0.011
0.040,0.014
0.042,0.012
0.039,0.014
0.039,0.013
0.042,0.014
0.038,0.014
0.044,0.016
0.042,0.013
0.043,0.016
0.041,0.017
0.045,0.020
0.041,0.020
0.043,0.022
0.042,0.022
0.042,0.023
0.037,0.024
0.039,0.026
0.039,0.028
0.041,0.029
0.040,0.030
0.041,0.028
0.039,0.030
0.045,0.029
0.039,0.032
0.043,0.031
0.037,0.036
0.041,0.033
0.040,0.035
0.037,0.033
0.040,0.036
0.039,0.035
0.043,0.034
0.043,0.036
0.043,0.037
0.039,0.041
0.041,0.038
0.042,0.038
0.039,0.036
0.043,0.036
0.042,0.038
0.042,0.039
0.041,0.039
0.038,0.039
0.037,0.046
0.040,0.043
0.038,0.047
0.037,0.044
0.039,0.045
0.039,0.043
0.042,0.042
0.040,0.040
0.042,0.039
0.040,0.044
0.042,0.042
0.038,0.043
0.039,0.042
0.040,0.042
0.037,0.044
0.041,0.042
0.037,0.042
0.041,0.043
0.041,0.045
0.041,0.041
0.039,0.045
0.040,0.044
0.041,0.043
0.042,0.042
0.045,0.040
0.045,0.041
0.045,0.039
0.046,0.043
0.044,0.039
0.045,0.041
0.043,0.040
0.043,0.039
0.040,0.036
0.047,0.035
0.045,0.036
0.043,0.034
0.044,0.038
0.044,0.036
0.044,0.037
0.043,0.032
0.046,0.032
0.045,0.029
0.047,0.030
0.042,0.028
0.045,0.025
0.041,0.028
0.045,0.028
0.040,0.029
0.043,0.028
0.040,0.026
0.044,0.023
0.042,0.024
0.047,0.020
0.046,0.021
0.047,0.016
0.050,0.016
0.048,0.013
0.049,0.014
0.046,0.010
0.049,0.010
0.046,0.009
0.050,0.004
0.047,0.007
0.049,0.008
0.049,0.010
0.047,0.006
0.047,0.007
0.047,0.009
0.045,0.007
0.049,0.009
0.046,0.005
0.045,0.004
0.049,0.004
0.046,0.002
0.046,0.000
0.044,-0.001
0.046,0.002
0.042,0.004
0.044,0.001
0.044,-0.001
0.047,-0.001
0.047,-0.003
0.047,-0.005
0.046,-0.005
0.046,-0.003
0.046,-0.004
0.042,-0.002
0.042,-0.006
0.043,-0.003
0.042,-0.004
0.043,-0.002
0.045,-0.004
0.045,-0.003
0.042,-0.002
0.044,-0.001
0.044,-0.003
0.045,-0.004
0.042,-0.005
0.044,-0.006
0.046,-0.003
0.046,-0.002
0.045,-0.002
0.043,-0.000
0.043,-0.002
0.041,-0.002
0.043,-0.001
0.044,0.000
0.045,-0.002
0.046,0.002
0.045,0.004
0.043,0.005
0.042,0.006
0.044,0.008
0.046,0.010
0.043,0.009
0.044,0.007
0.044,0.005
0.046,0.009
0.047,0.008
0.047,0.011
0.046,0.011
0.046,0.012
0.043,0.012
0.046,0.013
0.043,0.013
0.042,0.009
0.045,0.010
0.046,0.009
0.044,0.010
0.043,0.013
0.046,0.013
0.044,0.016
0.047,0.013
0.044,0.017
0.044,0.015
0.042,0.020
0.042,0.021
0.040,0.023
0.040,0.025
0.039,0.027
0.039,0.025
0.041,0.030
0.043,0.029
0.041,0.030
0.045,0.028
0.040,0.030
0.043,0.030
0.042,0.029
0.045,0.028
0.043,0.033
0.043,0.031
0.043,0.034
0.043,0.032
0.043,0.034
0.041,0.034
0.043,0.036
0.041,0.039
0.045,0.035
0.041,0.036
0.042,0.036
0.045,0.039
0.042,0.038
0.043,0.037
0.046,0.040
0.043,0.040
0.042,0.043
0.042,0.043
0.044,0.043
0.043,0.042
0.043,0.044
0.041,0.040
0.042,0.043
0.040,0.041
0.042,0.040
0.041,0.042
0.043,0.041
0.041,0.044
0.039,0.041
0.043,0.042
0.039,0.042
0.041,0.042
0.041,0.045
0.041,0.043
0.039,0.049
0.043,0.046
0.041,0.047
0.044,0.047
0.044,0.046
0.042,0.044
0.046,0.044
0.042,0.042
0.044,0.042
0.044,0.045
0.045,0.042
0.043,0.043
0.041,0.040
0.044,0.041
0.040,0.037
0.043,0.035
0.042,0.034
0.043,0.032
0.040,0.037
0.045,0.033
0.040,0.034
0.045,0.032
0.044,0.033
0.045,0.028
0.046,0.027
0.045,0.028
0.045,0.030
0.041,0.030
0.044,0.029
0.041,0.030
0.043,0.029
0.043,0.029
0.043,0.024
0.045,0.026
0.048,0.023
0.050,0.021
0.046,0.018
0.049,0.017
0.047,0.016
0.048,0.014
0.050,0.015
0.048,0.010
0.047,0.011
0.043,0.011
0.046,0.012
0.047,0.010
0.042,0.008
0.045,0.008
0.041,0.009
0.046,0.006
0.043,0.006
0.045,0.004
0.046,0.008
0.045,0.002
0.047,0.001
0.046,0.002
0.045,0.001
0.045,0.004
0.045,-0.001
0.044,0.004
0.044,0.001
0.047,0.000
0.044,-0.002
0.046,-0.001
0.045,-0.002
0.047,-0.004
0.043,-0.001
0.045,-0.003
0.043,-0.000
0.045,-0.003
0.046,-0.002
0.044,-0.006
0.046,-0.003
0.044,-0.003
0.046,-0.003
0.042,-0.003
0.045,-0.004
0.041,-0.003
0.045,-0.003
0.045,-0.000
0.045,-0.007
0.047,-0.005
0.048,-0.005
0.045,-0.004
0.045,-0.000
0.044,-0.004
0.041,-0.003
0.041,-0.003
0.045,0.000
0.044,-0.004
0.044,-0.002
0.045,0.002
0.046,0.001
0.041,0.005
0.043,0.002
0.041,0.004
0.042,0.002
0.045,0.005
0.044,0.003
0.044,0.005
0.045,0.008
0.043,0.006
0.041,0.005
0.041,0.009
0.038,0.009
0.040,0.009
0.042,0.009
0.043,0.008
0.042,0.013
0.044,0.013
0.044,0.012
0.044,0.013
0.044,0.015
0.041,0.017
0.041,0.015
0.042,0.018
0.041,0.015
0.043,0.020
0.040,0.018
0.041,0.020
0.039,0.019
0.043,0.022
0.040,0.020
0.043,0.025
0.042,0.026
0.044,0.029
0.044,0.027
0.045,0.030
0.046,0.026
0.045,0.030
0.041,0.028
0.044,0.029
0.043,0.030
0.043,0.029
0.042,0.034
0.041,0.031
0.043,0.037
0.041,0.033
0.042,0.037
0.043,0.036
0.047,0.036
0.044,0.034
0.043,0.037
0.043,0.040
0.044,0.040
0.040,0.040
0.043,0.042
0.041,0.041
0.043,0.043
0.042,0.045
0.040,0.042
0.043,0.045
0.044,0.042
0.041,0.045
0.043,0.046
0.043,0.048
0.043,0.048
0.044,0.045
0.042,0.047
0.045,0.045
0.046,0.044
0.045,0.043
0.046,0.043
0.044,0.045
0.043,0.043
0.039,0.048
0.042,0.047
0.039,0.049
0.039,0.044
0.042,0.047
0.043,0.045
0.045,0.046
0.044,0.045
0.046,0.045
0.041,0.044
0.046,0.041
0.040,0.043
0.044,0.038
0.044,0.039
0.044,0.038
0.045,0.039
0.043,0.038
0.045,0.038
0.042,0.041
0.042,0.038
0.041,0.037
0.043,0.035
0.046,0.035
0.046,0.033
0.045,0.032
0.044,0.034
0.045,0.030
0.043,0.033
0.044,0.029
0.046,0.030
0.046,0.025
0.045,0.026
0.044,0.023
0.047,0.024
0.046,0.022
0.049,0.021
0.047,0.022
0.050,0.021
0.046,0.022
0.050,0.019
0.047,0.019
0.048,0.016
0.046,0.018
0.047,0.013
0.045,0.013
0.047,0.010
0.047,0.010
0.044,0.009
0.047,0.012
0.046,0.010
0.050,0.010
0.046,0.007
0.050,0.006
0.046,0.004
0.047,0.004
0.049,0.007
0.047,0.004
0.048,0.004
0.047,0.004
0.047,0.003
0.048,0.002
0.048,0.001
0.047,-0.001
0.048,-0.005
0.049,0.001
0.048,-0.000
0.046,0.003
0.048,-0.001
0.051,-0.000
0.047,-0.003
0.052,-0.004
0.048,-0.004
0.049,-0.005
0.047,-0.001
0.050,-0.004
0.048,-0.001
0.049,-0.003
0.047,-0.001
0.047,-0.003
0.049,-0.002
0.049,-0.006
0.049,-0.003
0.045,-0.004
0.047,-0.003
0.042,-0.003
0.046,-0.003
0.045,-0.002
0.045,-0.004
0.043,-0.003
0.046,-0.000
0.045,-0.003
0.045,0.002
0.044,0.002
0.046,0.005
0.043,0.003
0.047,0.007
0.044,0.003
0.047,0.006
0.044,0.007
0.046,0.006
0.044,0.008
0.045,0.010
0.041,0.012
0.045,0.009
0.043,0.012
0.046,0.009
0.046,0.010
0.045,0.010
0.043,0.012
0.043,0.016
0.045,0.015
0.039,0.016
0.045,0.018
0.043,0.019
0.044,0.019
0.045,0.019
0.044,0.018
0.045,0.018
0.045,0.017
0.043,0.019
0.045,0.021
0.044,0.020
0.041,0.022
0.041,0.025
0.043,0.029
0.043,0.027
0.042,0.032
0.042,0.029
0.043,0.029
0.043,0.027
0.045,0.031
0.045,0.029
0.045,0.033
0.042,0.033
0.039,0.036
0.040,0.035
0.039,0.036
0.039,0.039
0.042,0.038
0.040,0.039
0.042,0.039
0.043,0.039
0.043,0.040
0.044,0.042
0.044,0.039
0.043,0.040
0.042,0.041
0.044,0.040
0.041,0.041
0.043,0.039
0.043,0.043
0.044,0.044
0.044,0.047
0.042,0.045
0.041,0.045
0.041,0.048
0.047,0.045
0.041,0.045
0.043,0.043
0.045,0.048
0.046,0.045
0.043,0.047
0.043,0.044
0.042,0.042
0.041,0.041
0.047,0.042
0.042,0.041
0.047,0.044
0.045,0.046
0.048,0.043
0.044,0.046
0.047,0.045
0.045,0.048
0.043,0.044
0.046,0.044
0.045,0.040
0.049,0.039
0.048,0.040
0.049,0.039
0.045,0.041
0.047,0.041
0.045,0.040
0.046,0.039
0.047,0.038
0.047,0.036
0.050,0.036
0.049,0.038
0.050,0.034
0.047,0.035
0.045,0.032
0.049,0.036
0.048,0.032
0.051,0.033
0.047,0.028
0.051,0.027
0.047,0.028
0.049,0.026
0.047,0.029
0.047,0.026
0.046,0.026
0.048,0.022
0.048,0.024
0.049,0.023
0.049,0.022
0.046,0.018
0.050,0.019
0.047,0.020
0.052,0.016
0.050,0.015
0.052,0.014
0.047,0.009
0.050,0.010
0.049,0.010
0.050,0.009
0.047,0.009
0.049,0.007
0.047,0.007
0.049,0.006
0.047,0.006
0.047,0.003
0.049,0.005
0.049,0.005
0.051,0.003
0.050,0.004
0.049,0.002
0.050,0.005
0.048,0.001
0.049,0.003
0.047,0.002
0.049,0.003
0.047,0.002
0.050,0.001
0.051,0.002
0.051,-0.001
0.051,0.002
0.051,-0.004
0.050,-0.004
0.048,-0.004
0.050,-0.004
0.046,-0.005
0.050,-0.006
0.049,-0.005
0.049,-0.006
0.047,-0.003
0.047,-0.003
0.046,-0.002
0.048,-0.003
0.051,-0.005
0.051,-0.004
0.052,-0.004
0.049,-0.004
0.047,-0.005
0.049,-0.003
0.048,-0.006
0.049,-0.003
0.046,-0.005
0.049,-0.004
0.047,-0.002
0.049,-0.000
0.049,-0.000
0.048,-0.004
0.049,0.001
0.047,0.000
0.048,0.001
0.047,-0.000
0.049,0.003
0.046,0.001
0.049,0.003
0.046,0.003
0.048,0.003
0.044,0.006
0.046,0.006
0.044,0.009
0.046,0.006
0.044,0.009
0.047,0.006
0.047,0.008
0.048,0.008
0.049,0.010
0.048,0.013
0.046,0.012
0.043,0.014
0.043,0.015
0.045,0.014
0.044,0.014
0.043,0.015
0.044,0.015
0.044,0.015
0.041,0.017
0.041,0.020
0.041,0.021
0.044,0.023
0.043,0.026
0.044,0.025
0.044,0.025
0.043,0.023
0.045,0.026
0.045,0.027
0.045,0.030
0.045,0.030
0.045,0.032
0.043,0.030
0.042,0.034
0.041,0.031
0.041,0.033
0.042,0.032
0.043,0.036
0.042,0.034
0.047,0.036
0.044,0.034
0.045,0.033
0.042,0.035
0.045,0.032
0.043,0.036
0.044,0.034
0.044,0.038
0.037,0.037
0.042,0.036
0.038,0.038
0.041,0.037
0.040,0.040
0.040,0.040
0.039,0.044
0.041,0.044
0.044,0.041
0.043,0.040
0.046,0.042
0.045,0.040
0.044,0.037
0.043,0.042
0.045,0.039
0.042,0.043
0.042,0.042
0.043,0.042
0.042,0.042
0.047,0.043
0.044,0.040
0.046,0.043
0.044,0.044
0.046,0.043
0.042,0.044
0.044,0.042
0.044,0.040
0.044,0.038
0.045,0.038
0.047,0.036
0.050,0.036
0.048,0.037
0.046,0.037
0.043,0.037
0.047,0.039
0.045,0.037
0.047,0.035
0.047,0.034
0.048,0.032
0.047,0.033
0.047,0.032
0.048,0.033
0.043,0.037
0.043,0.032
0.045,0.032
0.045,0.029
0.047,0.031
0.047,0.026
0.049,0.027
0.048,0.027
0.050,0.024
0.048,0.024
0.048,0.021
0.047,0.023
0.048,0.018
0.047,0.021
0.050,0.016
0.051,0.019
0.051,0.016
0.050,0.015
0.049,0.012
0.050,0.010
0.047,0.009
0.049,0.012
0.047,0.010
0.048,0.009
0.048,0.007
0.052,0.007
0.049,0.006
0.049,0.006
0.047,0.005
0.051,0.005
0.048,0.003
0.048,-0.000
0.047,0.001
0.048,0.001
0.049,0.001
0.050,0.000
0.050,0.000
0.049,0.003
0.047,0.001
0.049,0.001
0.048,-0.001
0.050,-0.003
0.047,-0.004
0.050,-0.006
0.048,-0.004
0.049,-0.009
0.049,-0.008
0.045,-0.009
0.047,-0.007
0.045,-0.007
0.050,-0.005
0.047,-0.008
0.049,-0.007
0.049,-0.005
0.049,-0.005
0.047,-0.004
0.047,-0.005
0.046,-0.006
0.047,-0.005
0.049,-0.006
0.048,-0.005
0.048,-0.004
0.048,-0.005
0.048,-0.003
0.049,-0.003
0.045,-0.002
0.047,0.000
0.044,-0.001
0.046,0.001
0.044,-0.001
0.050,-0.001
0.047,-0.001
0.049,0.000
0.046,0.002
0.046,0.001
0.043,0.006
0.046,0.003
0.043,0.003
0.042,0.002
0.047,0.004
0.041,0.001
0.046,0.007
0.043,0.007
0.045,0.005
0.045,0.009
0.046,0.010
0.043,0.012
0.045,0.011
0.044,0.010
0.044,0.011
0.045,0.010
0.046,0.012
0.044,0.012
0.042,0.013
0.043,0.014
0.041,0.014
0.041,0.017
0.040,0.017
0.041,0.021
0.039,0.023
0.041,0.024
0.039,0.024
0.042,0.025
0.040,0.026
0.043,0.025
0.044,0.028
0.045,0.024
0.043,0.029
0.045,0.028
0.044,0.032
0.044,0.030
0.042,0.032
0.043,0.034
0.043,0.034
0.043,0.033
0.046,0.032
0.044,0.032
0.042,0.034
0.044,0.035
0.041,0.033
0.042,0.036
0.043,0.034
0.043,0.035
0.042,0.033
0.045,0.034
0.043,0.035
0.043,0.035
0.041,0.038
0.042,0.038
0.042,0.044
0.041,0.041
0.043,0.043
0.043,0.042
0.047,0.042
0.046,0.040
0.046,0.041
0.045,0.042
0.044,0.041
0.041,0.045
0.044,0.045
0.041,0.044
0.039,0.045
0.041,0.045
0.043,0.043
0.042,0.043
0.045,0.045
0.042,0.045
0.043,0.045
0.044,0.046
0.047,0.045
0.046,0.043
0.050,0.043
0.046,0.042
0.049,0.040
0.046,0.043
0.047,0.039
0.048,0.039
0.047,0.038
0.049,0.039
0.044,0.036
0.049,0.036
0.044,0.033
0.047,0.032
0.044,0.036
0.046,0.032
0.044,0.033
0.046,0.030
0.049,0.030
0.048,0.027
0.049,0.025
0.048,0.027
0.047,0.024
0.045,0.027
0.044,0.024
0.043,0.023
0.044,0.024
0.044,0.024
0.047,0.024
0.047,0.021
0.048,0.021
0.047,0.020
0.047,0.016
0.048,0.015
0.048,0.015
0.047,0.015
0.046,0.011
0.048,0.013
0.047,0.009
0.049,0.010
0.047,0.008
0.047,0.008
0.045,0.010
0.046,0.007
0.045,0.007
0.045,0.003
0.047,0.004
0.046,0.002
0.048,0.001
0.047,-0.001
0.048,-0.002
0.047,0.000
0.047,-0.003
0.043,0.002
0.045,-0.001
0.043,0.004
0.043,0.002
0.047,0.002
0.045,-0.000
0.046,-0.001
0.045,-0.003
0.049,-0.004
0.045,-0.003
0.047,-0.004
0.045,-0.003
0.047,-0.008
0.049,-0.009
0.046,-0.008
0.049,-0.007
0.045,-0.007
0.046,-0.007
0.045,-0.003
0.045,-0.006
0.046,-0.004
0.047,-0.007
0.046,-0.006
0.046,-0.007
0.046,-0.006
0.044,-0.005
0.043,-0.008
0.043,-0.003
0.044,-0.002
0.042,0.000
0.041,-0.000
0.043,-0.002
0.044,-0.002
0.046,-0.001
0.044,0.000
0.044,-0.000
0.044,0.003
0.045,0.003
0.042,0.005
0.042,0.006
0.045,0.004
0.045,0.003
0.045,0.004
0.047,0.004
0.045,0.006
0.046,0.011
0.042,0.008
0.041,0.010
0.040,0.013
0.045,0.012
0.044,0.011
0.048,0.011
0.045,0.014
0.045,0.010
0.042,0.016
0.044,0.015
0.043,0.018
0.044,0.015
0.043,0.019
0.040,0.017
0.041,0.020
0.041,0.020
0.039,0.021
0.038,0.022
0.039,0.024
0.040,0.024
0.036,0.024
0.038,0.028
0.042,0.030
0.039,0.027
0.041,0.032
0.040,0.028
0.043,0.029
0.040,0.029
0.043,0.032
0.041,0.032
0.042,0.033
0.041,0.036
0.043,0.034
0.038,0.037
0.039,0.036
0.039,0.039
0.039,0.036
0.040,0.036
0.040,0.034
0.046,0.035
0.042,0.036
0.045,0.036
0.040,0.040
0.041,0.040
0.040,0.042
0.041,0.041
0.042,0.042
0.041,0.042
0.043,0.045
0.041,0.048
0.043,0.045
0.043,0.048
0.044,0.045
0.041,0.047
0.044,0.045
0.043,0.047
0.043,0.043
0.045,0.045
0.043,0.039
0.044,0.043
0.043,0.048
0.045,0.044
0.038,0.049
0.042,0.045
0.042,0.046
0.044,0.044
0.045,0.043
0.043,0.046
0.045,0.041
0.042,0.045
0.047,0.045
0.043,0.043
0.045,0.042
0.046,0.042
0.046,0.042
0.045,0.040
0.043,0.042
0.045,0.040
0.046,0.041
0.044,0.038
0.044,0.037
0.045,0.036
0.048,0.033
0.046,0.033
0.049,0.033
0.047,0.034
0.049,0.030
0.044,0.035
0.046,0.030
0.046,0.029
0.046,0.026
0.049,0.029
0.048,0.024
0.051,0.026
0.047,0.024
0.049,0.024
0.048,0.024
0.049,0.020
0.049,0.020
0.052,0.019
0.049,0.019
0.050,0.015
0.048,0.017
0.049,0.014
0.050,0.013
0.049,0.012
0.048,0.011
0.047,0.014
0.045,0.014
0.045,0.011
0.047,0.014
0.047,0.010
0.047,0.008
0.046,0.006
0.047,0.006
0.044,0.008
0.048,0.004
0.044,0.007
0.046,0.004
0.044,0.003
0.043,0.001
0.047,0.002
0.047,0.002
0.046,0.001
0.049,0.001
0.047,-0.003
0.045,-0.001
0.048,-0.001
0.049,-0.000
0.049,-0.003
0.051,-0.003
0.048,-0.006
0.045,-0.006
0.047,-0.002
0.045,-0.003
0.043,-0.003
0.044,-0.004
0.046,-0.003
0.046,-0.004
0.046,-0.004
0.049,-0.002
0.046,-0.000
0.043,-0.002
0.045,0.000
0.045,-0.006
0.044,-0.004
0.047,-0.003
0.048,-0.004
0.046,-0.001
0.045,0.001
0.046,0.001
0.043,0.003
0.043,0.001
0.043,0.005
0.042,0.004
0.044,0.005
0.043,-0.001
0.048,0.001
0.046,0.001
0.047,0.003
0.045,0.007
0.046,0.004
0.045,0.011
0.044,0.007
0.044,0.009
0.044,0.009
0.046,0.008
0.043,0.009
0.044,0.008
0.042,0.010
0.044,0.010
0.040,0.013
0.044,0.012
0.042,0.014
0.041,0.015
0.044,0.017
0.041,0.017
0.044,0.017
0.042,0.016
0.045,0.018
0.043,0.020
0.042,0.019
0.041,0.021
0.044,0.022
0.043,0.024
0.044,0.025
0.044,0.026
0.045,0.027
0.045,0.027
0.045,0.029
0.045,0.028
0.042,0.030
0.044,0.031
0.042,0.029
0.041,0.034
0.043,0.035
0.038,0.036
0.042,0.036
0.039,0.035
0.043,0.034
0.044,0.034
0.044,0.037
0.045,0.034
0.045,0.038
0.047,0.037
0.045,0.041
0.045,0.037
0.047,0.038
0.049,0.037
0.050,0.038
0.043,0.038
0.041,0.042
0.036,0.043
0.039,0.042
0.036,0.045
0.040,0.043
0.042,0.044
0.042,0.038
0.045,0.042
0.042,0.040
0.045,0.042
0.044,0.041
0.043,0.039
0.044,0.042
0.047,0.042
0.044,0.042
0.046,0.043
0.047,0.045
0.047,0.043
0.049,0.044
0.048,0.043
0.044,0.042
0.040,0.046
0.040,0.045
0.037,0.047
0.038,0.043
0.043,0.041
0.043,0.038
0.044,0.039
0.044,0.037
0.047,0.036
0.042,0.036
0.047,0.035
0.045,0.037
0.048,0.034
0.049,0.036
0.048,0.032
0.048,0.034
0.044,0.032
0.046,0.032
0.044,0.034
0.044,0.031
0.044,0.030
0.045,0.030
0.045,0.026
0.045,0.025
0.047,0.024
0.049,0.024
0.048,0.022
0.048,0.024
0.047,0.023
0.047,0.024
0.046,0.023
0.047,0.020
0.048,0.020
0.049,0.020
0.050,0.017
0.049,0.014
0.049,0.014
0.047,0.013
0.050,0.010
0.050,0.013
0.049,0.011
0.049,0.013
0.049,0.010
0.049,0.008
0.050,0.008
0.050,0.006
0.048,0.008
0.046,0.005
0.045,0.008
0.047,0.002
0.048,0.004
0.045,0.001
0.050,0.003
0.047,-0.001
0.049,-0.001
0.048,0.001
0.049,-0.002
0.046,0.001
0.046,-0.001
0.045,-0.000
0.045,-0.002
0.049,-0.001
0.049,-0.002
0.051,-0.005
0.048,-0.002
0.050,-0.003
0.049,-0.001
0.047,-0.002
0.047,-0.005
0.046,-0.004
0.050,-0.003
0.047,-0.004
0.049,-0.003
0.048,0.001
0.049,-0.002
0.048,-0.001
0.046,-0.003
0.047,-0.004
0.046,-0.003
0.048,-0.004
0.044,-0.003
0.046,-0.004
0.042,-0.002
0.044,-0.001
0.043,0.002
0.044,-0.000
0.042,0.002
0.044,0.000
0.048,0.003
0.046,0.001
0.043,0.001
0.044,0.002
0.046,0.002
0.044,0.006
0.046,0.004
0.045,0.007
0.046,0.005
0.046,0.010
0.048,0.006
0.048,0.007
0.048,0.010
0.048,0.011
0.045,0.011
0.049,0.009
0.049,0.013
0.045,0.012
0.046,0.012
0.042,0.013
0.044,0.015
0.042,0.018
0.039,0.016
0.040,0.019
0.040,0.015
0.041,0.016
0.043,0.017
0.044,0.019
0.045,0.019
0.047,0.022
0.046,0.020
0.045,0.026
0.044,0.026
0.040,0.030
0.040,0.030
0.039,0.033
0.039,0.030
0.039,0.034
0.040,0.032
0.041,0.032
0.038,0.031
0.040,0.031
0.039,0.034
0.046,0.034
0.041,0.035
0.045,0.034
0.042,0.038
0.043,0.036
0.043,0.039
0.043,0.036
0.047,0.038
0.048,0.035
0.054,0.037
0.051,0.036
0.050,0.036
0.045,0.038
0.041,0.036
0.039,0.044
0.037,0.043
0.039,0.045
0.041,0.045
0.046,0.045
0.046,0.045
0.045,0.044
0.041,0.049
0.036,0.046
0.035,0.049
0.032,0.046
0.032,0.043
0.036,0.044
0.044,0.044
0.047,0.044
0.054,0.044
0.056,0.045
0.056,0.040
0.055,0.046
0.052,0.044
0.052,0.045
0.047,0.043
0.044,0.048
0.038,0.045
0.038,0.044
0.036,0.047
0.039,0.043
0.040,0.044
0.041,0.045
0.043,0.042
0.042,0.040
0.043,0.038
0.043,0.040
0.046,0.039
0.051,0.044
0.053,0.038
0.053,0.041
0.053,0.037
0.058,0.038
0.055,0.034
0.058,0.034
0.056,0.029
0.056,0.028
0.048,0.029
0.041,0.027
0.034,0.028
0.030,0.030
0.024,0.031
0.022,0.028
0.026,0.028
0.038,0.026
0.048,0.028
0.053,0.026
0.060,0.025
0.059,0.025
0.062,0.022
0.059,0.022
0.059,0.017
0.057,0.016
0.052,0.013
0.048,0.012
0.047,0.014
0.041,0.014
0.043,0.012
0.043,0.012
0.047,0.011
0.049,0.010
0.053,0.009
0.055,0.009
0.058,0.005
0.060,0.008
0.056,0.004
0.053,0.006
0.047,0.009
0.044,0.010
0.040,0.009
0.039,0.010
0.040,0.010
0.042,0.007
0.044,0.003
0.048,-0.001
0.047,-0.004
0.048,-0.001
0.046,-0.002
0.046,0.001
0.047,-0.002
0.050,-0.000
0.049,-0.004
0.048,-0.006
0.042,-0.003
0.040,-0.003
0.034,-0.001
0.033,-0.004
0.031,-0.005
0.033,-0.006
0.036,-0.004
0.045,-0.007
0.052,-0.004
0.058,-0.001
0.058,0.001
0.051,0.006
0.054,0.008
0.054,0.010
0.060,0.009
0.063,0.012
0.064,0.008
0.059,0.009
0.056,0.012
0.047,0.019
0.042,0.031
0.034,0.037
0.032,0.045
0.038,0.038
0.052,0.025
0.057,-0.001
0.062,-0.024
0.059,-0.033
0.055,-0.029
0.046,-0.019
0.041,-0.007
0.039,0.002
0.039,0.010
0.040,0.015
0.043,0.018
0.043,0.022
0.045,0.024
0.047,0.024
0.043,0.024
0.046,0.027
0.045,0.032
0.045,0.038
0.048,0.043
0.051,0.050
0.054,0.050
0.057,0.035
0.055,0.025
0.049,0.001
0.040,-0.013
0.036,-0.018
0.028,-0.012
0.023,0.000
0.023,0.020
0.030,0.046
0.041,0.060
0.052,0.053
0.057,0.027
0.060,0.013
0.047,0.010
0.039,0.020
0.036,0.033
0.035,0.050
0.041,0.063
0.042,0.068
0.042,0.063
0.050,0.054
0.049,0.040
0.051,0.025
0.045,0.014
0.040,0.007
0.036,0.013
0.029,0.015
0.028,0.026
0.025,0.035
0.033,0.047
0.038,0.052
0.047,0.043
0.043,0.024
0.037,0.013
0.030,0.015
0.023,0.015
0.010,0.024
0.007,0.030
0.008,0.039
0.023,0.045
0.049,0.043
0.065,0.043
0.070,0.043
0.071,0.044
0.065,0.043
0.066,0.045
0.063,0.015
0.058,-0.037
0.053,-0.055
0.045,0.027
0.039,0.108
0.028,0.166
0.020,0.197
0.019,0.179
0.025,0.146
0.034,0.079
0.037,0.017
0.040,-0.025
0.041,-0.032
0.040,-0.022
0.044,-0.007
0.045,0.003
0.048,0.014
0.045,0.030
0.048,0.039
0.047,0.045
0.045,0.042
0.046,0.039
0.045,0.035
0.047,0.032
0.045,0.030
0.043,0.030
0.039,0.033
0.044,0.031
0.043,0.030
0.045,0.025
0.044,0.023
0.051,0.017
0.051,0.014
0.053,0.014
0.052,0.013
0.052,0.017
0.057,0.017
0.055,0.024
0.050,0.030
0.051,0.035
0.052,0.037
0.050,0.037
0.043,0.035
0.036,0.026
0.022,0.022
0.014,0.015
0.005,0.012
0.013,0.013
0.032,0.004
0.060,-0.001
0.077,-0.003
0.077,-0.000
0.071,0.003
0.060,0.002
0.054,0.003
0.048,-0.001
0.041,0.001
0.039,0.004
0.038,0.011
0.041,0.013
0.048,0.016
0.048,0.012
0.051,0.012
0.050,0.009
0.054,0.004
0.049,0.004
0.043,0.002
0.036,0.006
0.031,0.005
0.026,0.008
0.018,0.009
0.018,0.008
0.033,0.006
0.058,0.001
0.080,-0.002
0.084,-0.008
0.075,-0.012
0.061,-0.016
0.053,-0.013
0.049,-0.014
0.041,-0.010
0.036,-0.005
0.035,-0.005
0.038,-0.001
0.043,-0.002
0.048,-0.001
0.048,-0.002
0.048,0.000
0.043,0.002
0.041,0.005
0.040,0.010
0.043,0.014
0.042,0.023
0.045,0.028
0.045,0.010
0.045,-0.014
0.044,-0.020
0.044,-0.024
0.043,-0.019
0.039,-0.011
0.043,-0.009
0.039,0.000
0.041,0.001
0.047,0.001
0.049,0.002
0.051,0.003
0.049,0.001
0.043,-0.001
0.036,0.002
0.029,0.004
0.023,0.012
0.021,0.013
0.036,0.021
0.056,0.021
0.071,0.020
0.067,0.021
0.066,0.027
0.056,0.032
0.048,0.031
0.042,0.023
0.036,0.013
0.036,0.012
0.035,0.004
0.036,0.003
0.036,0.003
0.040,0.010
0.039,0.013
0.040,0.019
0.043,0.016
0.043,0.023
0.044,0.026
0.042,0.033
0.042,0.034
0.037,0.036
0.033,0.037
0.031,0.050
0.027,0.065
0.028,0.081
0.033,0.099
0.044,0.101
0.053,0.089
0.057,0.050
0.059,0.014
0.056,-0.017
0.051,-0.023
0.050,-0.017
0.049,0.001
0.043,0.017
0.037,0.031
0.035,0.036
0.037,0.039
0.037,0.040
0.035,0.037
0.034,0.038
0.038,0.035
0.037,0.034
0.041,0.034
0.042,0.037
0.044,0.037
0.048,0.039
0.051,0.036
0.049,0.039
0.054,0.038
0.051,0.037
0.047,0.039
0.046,0.038
0.036,0.037
0.036,0.041
0.037,0.046
0.046,0.045
0.048,0.045
0.045,0.047
0.039,0.051
0.035,0.063
0.030,0.075
0.026,0.087
0.023,0.089
0.023,0.082
0.034,0.060
0.054,0.035
0.067,0.013
0.066,0.005
0.055,0.010
0.050,0.013
0.045,0.020
0.046,0.023
0.046,0.027
0.044,0.026
0.044,0.027
0.045,0.030
0.045,0.030
0.041,0.031
0.046,0.028
0.046,0.027
0.051,0.023
0.054,0.020
0.054,0.017
0.056,0.018
0.051,0.015
0.042,0.016
0.035,0.022
0.025,0.024
0.027,0.027
0.027,0.028
0.029,0.032
0.038,0.031
0.048,0.030
0.052,0.025
0.055,0.023
0.058,0.018
0.057,0.015
0.055,0.010
0.055,0.009
0.050,0.006
0.051,0.005
0.049,0.008
0.049,0.006
0.045,0.008
0.045,0.007
0.046,0.013
0.049,0.010
0.049,0.012
0.051,0.008
0.048,0.006
0.045,0.003
0.048,0.002
0.049,-0.004
0.054,-0.004
0.052,-0.005
0.050,-0.003
0.046,0.001
0.045,0.001
0.045,0.000
0.045,-0.000
0.048,-0.001
0.049,-0.007
0.050,-0.011
0.052,-0.012
0.051,-0.015
0.053,-0.013
0.055,-0.016
0.056,-0.014
0.051,-0.010
0.047,-0.006
0.036,-0.008
0.031,-0.004
0.017,0.001
0.021,0.002
0.029,0.007
0.054,0.003
0.065,0.001
0.067,-0.002
0.059,-0.002
0.054,-0.007
0.053,-0.004
0.049,-0.005
0.047,-0.003
0.043,-0.002
0.046,-0.001
0.043,-0.002
0.045,-0.000
0.045,0.000
0.046,-0.001
0.051,0.001
0.054,0.000
0.059,-0.003
0.062,0.002
0.064,-0.003
0.063,0.002
0.057,-0.002
0.048,0.002
0.034,0.004
0.030,0.011
0.019,0.015
0.021,0.016
0.025,0.022
0.042,0.017
0.058,0.015
0.061,0.007
0.061,0.008
0.050,0.006
0.050,0.007
0.046,0.012
0.046,0.012
0.043,0.015
0.044,0.014
0.038,0.017
0.037,0.012
0.034,0.019
0.035,0.019
0.034,0.022
0.034,0.023
0.032,0.024
0.034,0.026
0.033,0.028
0.035,0.031
0.035,0.031
0.037,0.031
0.036,0.029
0.041,0.030
0.041,0.031
0.043,0.031
0.044,0.034
0.044,0.030
0.046,0.035
0.045,0.035
0.047,0.038
0.043,0.040
0.045,0.051
0.042,0.061
0.041,0.050
0.037,0.033
0.040,0.020
0.037,0.017
0.039,0.014
0.040,0.022
0.041,0.028
0.042,0.033
0.042,0.036
0.042,0.037
0.042,0.040
0.041,0.041
0.043,0.044
0.041,0.043
0.047,0.045
0.040,0.045
0.041,0.043
0.041,0.045
0.042,0.044
0.044,0.045
0.044,0.042
0.042,0.045
0.041,0.042
0.042,0.043
0.041,0.042
0.040,0.044
0.039,0.045
0.042,0.047
0.040,0.050
0.039,0.048
0.039,0.050
0.042,0.047
0.042,0.048
0.044,0.046
0.045,0.044
0.044,0.046
0.046,0.043
0.045,0.043
0.046,0.041
0.045,0.044
0.046,0.041
0.046,0.040
0.041,0.038
0.043,0.041
0.041,0.040
0.043,0.039
0.039,0.041
0.043,0.041
0.044,0.040
0.043,0.037
0.047,0.036
0.043,0.033
0.044,0.034
0.043,0.035
0.043,0.032
0.042,0.033
0.044,0.030
0.044,0.028
0.045,0.027
0.043,0.027
0.045,0.027
0.046,0.027
0.048,0.023
0.049,0.024
0.047,0.021
0.044,0.019
0.041,0.013
0.039,0.014
0.035,0.016
0.033,0.011
0.036,0.015
0.040,0.011
0.048,0.015
0.055,0.012
0.054,0.014
0.052,0.015
0.051,0.012
0.047,0.013
0.046,0.012
0.044,0.008
0.045,0.009
0.046,0.006
0.044,0.002
0.045,0.004
0.041,0.002
0.039,0.008
0.039,0.008
0.042,0.005
0.041,0.004
0.045,0.005
0.047,-0.000
0.048,0.004
0.047,0.003
0.047,-0.001
0.045,0.004
0.046,-0.002
0.046,-0.001
0.048,-0.006
0.047,-0.003
0.046,-0.003
0.047,-0.004
0.045,-0.001
0.044,-0.001
0.043,-0.001
0.045,-0.003
0.047,-0.003
0.050,-0.006
0.050,-0.006
0.050,-0.003
0.051,-0.005
0.049,-0.001
0.049,-0.003
0.045,-0.003
0.045,-0.003
0.049,0.002
0.042,-0.002
0.043,0.000
0.044,0.000
0.046,0.001
0.043,0.003
0.046,0.004
0.044,0.004
0.045,0.002
0.046,0.002
0.046,0.005
0.047,0.004
0.047,0.008
0.046,0.008
0.047,0.013
0.044,0.010
0.046,0.010
0.044,0.011
0.047,0.010
0.045,0.009
0.047,0.007
0.045,0.012
0.046,0.009
0.046,0.011
0.046,0.012
0.043,0.016
0.042,0.016
0.042,0.016
0.039,0.018
0.040,0.019
0.039,0.021
0.040,0.023
0.039,0.019
0.042,0.025
0.041,0.022
0.043,0.028
0.041,0.024
0.040,0.027
0.041,0.028
0.042,0.027
0.040,0.028
0.044,0.029
0.040,0.028
0.043,0.029
0.041,0.030
0.042,0.029
0.040,0.032
0.037,0.030
0.039,0.035
0.040,0.036
0.039,0.040
0.039,0.040
0.038,0.040
0.039,0.037
0.041,0.036
0.042,0.040
0.042,0.041
0.042,0.041
0.040,0.040
0.041,0.041
0.041,0.039
0.042,0.039
0.040,0.038
0.042,0.040
0.041,0.038
0.041,0.041
0.042,0.048
0.040,0.045
0.037,0.046
0.041,0.046
0.038,0.044
0.039,0.044
0.042,0.045
0.041,0.047
0.039,0.046
0.040,0.046
0.040,0.046
0.037,0.047
0.040,0.047
0.040,0.048
0.038,0.045
0.042,0.047
0.041,0.047
0.042,0.045
0.039,0.048
0.042,0.045
0.039,0.046
0.041,0.045
0.040,0.044
0.039,0.043
0.042,0.040
0.042,0.042
0.043,0.040
0.042,0.043
0.042,0.040
0.042,0.039
0.043,0.040
0.043,0.040
0.041,0.035
0.044,0.038
0.046,0.033
0.045,0.035
0.044,0.036
0.044,0.033
0.044,0.032
0.047,0.027
0.044,0.030
0.045,0.027
0.046,0.027
0.043,0.026
0.047,0.029
0.045,0.027
0.047,0.026
0.043,0.026
0.046,0.023
0.042,0.027
0.044,0.022
0.045,0.023
0.046,0.021
0.046,0.019
0.047,0.016
0.047,0.015
0.046,0.013
0.047,0.012
0.045,0.010
0.047,0.011
0.050,0.008
0.049,0.008
0.050,0.007
0.049,0.006
0.050,0.005
0.047,0.006
0.049,0.008
0.044,0.006
0.048,0.007
0.048,0.005
0.049,0.001
0.049,0.000
0.049,0.000
0.049,0.002
0.044,0.001
0.043,0.004
0.040,0.004
0.040,0.005
0.038,0.004
0.044,0.003
0.046,-0.000
0.048,-0.002
0.047,-0.002
0.048,-0.003
0.046,-0.003
0.047,-0.005
0.046,-0.004
0.047,-0.005
0.048,-0.005
0.048,-0.006
0.045,-0.007
0.045,-0.003
0.044,-0.004
0.044,-0.003
0.046,-0.003
0.047,-0.002
0.044,-0.001
0.046,-0.003
0.045,-0.003
0.046,-0.005
0.043,-0.003
0.042,-0.005
0.045,-0.002
0.041,-0.005
0.044,0.001
0.041,-0.000
0.046,0.000
0.040,0.000
0.041,-0.001
0.040,0.002
0.041,-0.001
0.038,0.005
0.040,0.004
0.040,0.006
0.040,0.007
0.043,0.007
0.041,0.007
0.042,0.006
0.042,0.012
0.041,0.008
0.038,0.011
0.040,0.012
0.041,0.012
0.040,0.008
0.045,0.010
0.040,0.010
0.045,0.013
0.041,0.012
0.046,0.014
0.043,0.015
0.043,0.014
0.043,0.015
0.043,0.013
0.040,0.017
0.038,0.016
0.038,0.021
0.037,0.019
0.037,0.026
0.037,0.027
0.036,0.031
0.036,0.032
0.037,0.032
0.041,0.030
0.037,0.034
0.041,0.031
0.038,0.033
0.040,0.031
0.037,0.033
0.039,0.030
0.043,0.034
0.039,0.032
0.044,0.035
0.041,0.035
0.043,0.037
0.041,0.040
0.043,0.039
0.040,0.039
0.042,0.037
0.040,0.040
0.041,0.038
0.043,0.040
0.041,0.038
0.042,0.040
0.039,0.044
0.041,0.044
0.038,0.045
0.041,0.045
0.040,0.044
0.041,0.043
0.041,0.045
0.042,0.045
0.039,0.046
0.043,0.048
0.040,0.043
0.041,0.046
0.041,0.045
0.040,0.048
0.038,0.046
0.039,0.048
0.041,0.047
0.043,0.049
0.041,0.049
0.045,0.047
0.042,0.048
0.042,0.047
0.038,0.046
0.043,0.043
0.044,0.045
0.040,0.038
0.044,0.042
0.043,0.041
0.045,0.043
0.043,0.046
0.046,0.043
0.039,0.040
0.040,0.037
0.042,0.040
0.043,0.037
0.044,0.037
0.044,0.035
0.044,0.036
0.044,0.036
0.043,0.032
0.044,0.036
0.044,0.032
0.046,0.034
0.043,0.030
0.046,0.030
0.044,0.030
0.043,0.027
0.041,0.030
0.045,0.029
0.043,0.029
0.047,0.024
0.044,0.025
0.045,0.024
0.045,0.025
0.045,0.019
0.047,0.019
0.047,0.016
0.047,0.015
0.044,0.012
0.049,0.012
0.046,0.009
0.048,0.013
0.046,0.009
0.048,0.010
0.046,0.009
0.047,0.007
0.046,0.009
0.046,0.007
0.046,0.006
0.049,0.004
0.045,0.003
0.048,0.001
0.049,0.001
0.050,-0.002
0.050,-0.001
0.050,-0.002
0.047,-0.001
0.049,0.001
0.047,-0.003
0.045,0.001
0.046,-0.001
0.046,0.001
0.045,-0.001
0.047,-0.003
0.048,-0.003
0.047,-0.007
0.048,-0.003
0.045,-0.005
0.043,-0.005
0.043,-0.006
0.046,-0.007
0.044,-0.006
0.048,-0.007
0.044,-0.002
0.045,-0.004
0.042,-0.003
0.044,-0.005
0.046,-0.004
0.045,-0.007
0.049,-0.006
0.048,-0.007
0.046,-0.006
0.044,-0.004
0.042,-0.004
0.043,-0.002
0.040,-0.001
0.042,-0.001
0.043,-0.003
0.043,0.000
0.043,-0.001
0.042,-0.002
0.041,0.001
0.039,0.000
0.040,0.005
0.041,0.003
0.039,0.002
0.040,0.003
0.042,0.004
0.042,0.001
0.046,0.004
0.043,0.004
0.044,0.005
0.040,0.005
0.040,0.008
0.038,0.009
0.039,0.009
0.041,0.010
0.039,0.011
0.041,0.011
0.042,0.013
0.038,0.011
0.040,0.015
0.040,0.010
0.041,0.015
0.039,0.013
0.040,0.016
0.039,0.017
0.039,0.017
0.039,0.017
0.037,0.021
0.038,0.021
0.035,0.026
0.039,0.024
0.036,0.026
0.040,0.027
0.037,0.032
0.040,0.030
0.039,0.031
0.039,0.029
0.040,0.032
0.039,0.033
0.038,0.037
0.039,0.036
0.039,0.036
0.038,0.037
0.038,0.032
0.039,0.038
0.039,0.036
0.037,0.042
0.038,0.037
0.037,0.040
0.038,0.037
0.043,0.037
0.040,0.036
0.044,0.036
0.040,0.038
0.040,0.034
0.038,0.041
0.039,0.040
0.036,0.046
0.038,0.044
0.040,0.047
0.037,0.042
0.044,0.044
0.041,0.041
0.042,0.041
0.040,0.043
0.040,0.042
0.039,0.045
0.042,0.043
0.041,0.043
0.042,0.040
0.041,0.042
0.045,0.043
0.044,0.043
0.044,0.045
0.042,0.042
0.041,0.045
0.044,0.043
0.043,0.043
0.042,0.041
0.045,0.042
0.042,0.039
0.046,0.040
0.043,0.040
0.043,0.037
0.041,0.041
0.040,0.038
0.042,0.040
0.040,0.036
0.043,0.038
0.041,0.036
0.042,0.035
0.039,0.037
0.043,0.036
0.042,0.036
0.043,0.034
0.044,0.032
0.046,0.030
0.047,0.029
0.047,0.028
0.046,0.026
0.044,0.029
0.043,0.028
0.041,0.030
0.041,0.024
0.043,0.025
0.039,0.022
0.043,0.024
0.041,0.021
0.045,0.022
0.041,0.019
0.049,0.017
0.044,0.015
0.046,0.014
0.044,0.014
0.045,0.012
0.045,0.010
0.047,0.010
0.044,0.010
0.042,0.009
0.043,0.011
0.044,0.011
0.042,0.011
0.042,0.007
0.041,0.010
0.042,0.006
0.046,0.006
0.045,0.003
0.046,0.005
0.043,0.002
0.044,0.001
0.043,0.003
0.044,0.002
0.040,0.004
0.040,0.005
0.039,0.002
0.040,-0.001
0.047,0.001
0.044,-0.002
0.046,-0.002
0.046,0.001
0.048,-0.002
0.045,-0.001
0.046,-0.003
0.046,-0.004
0.048,-0.007
0.045,-0.005
0.044,-0.004
0.047,-0.008
0.043,-0.002
0.043,-0.005
0.044,-0.003
0.046,-0.006
0.047,-0.005
0.046,-0.007
0.046,-0.007
0.043,-0.006
0.044,-0.007
0.042,-0.003
0.043,-0.004
0.039,-0.001
0.040,-0.003
0.043,-0.004
0.041,-0.007
0.047,-0.002
0.044,0.001
0.044,0.001
0.043,0.003
0.041,0.003
0.039,0.006
0.043,0.007
0.041,0.008
0.039,0.006
0.040,0.006
0.042,0.005
0.040,0.006
0.042,0.009
0.038,0.006
0.039,0.010
0.039,0.009
0.038,0.009
0.038,0.009
0.042,0.009
0.041,0.011
0.040,0.010
0.039,0.013
0.038,0.010
0.039,0.013
0.038,0.014
0.039,0.017
0.037,0.013
0.038,0.018
0.039,0.018
0.039,0.021
0.038,0.022
0.040,0.023
0.037,0.024
0.037,0.028
0.036,0.027
0.039,0.029
0.036,0.027
0.039,0.027
0.039,0.027
0.040,0.030
0.038,0.030
0.041,0.030
0.039,0.030
0.039,0.032
0.039,0.028
0.040,0.031
0.037,0.030
0.040,0.032
0.039,0.034
0.039,0.032
0.037,0.035
0.039,0.033
0.039,0.038
0.036,0.034
0.040,0.038
0.040,0.036
0.041,0.036
0.038,0.042
0.037,0.040
0.035,0.042
0.036,0.039
0.036,0.041
0.036,0.041
0.037,0.042
0.039,0.040
0.039,0.040
0.039,0.043
0.039,0.040
0.039,0.044
0.037,0.042
0.041,0.043
0.041,0.041
0.041,0.041
0.037,0.040
0.040,0.041
0.040,0.046
0.040,0.046
0.036,0.046
0.041,0.045
0.038,0.042
0.041,0.041
0.042,0.041
0.042,0.039
0.045,0.039
0.043,0.037
0.046,0.039
0.042,0.039
0.042,0.037
0.042,0.038
0.041,0.038
0.042,0.037
0.042,0.036
0.043,0.037
0.043,0.038
0.043,0.037
0.043,0.039
0.043,0.037
0.044,0.035
0.042,0.032
0.044,0.032
0.043,0.029
0.043,0.030
0.041,0.030
0.041,0.028
0.038,0.029
0.041,0.025
0.042,0.026
0.042,0.026
0.042,0.026
0.040,0.023
0.047,0.025
0.042,0.023
0.046,0.018
0.047,0.017
0.048,0.017
0.049,0.014
0.049,0.014
0.049,0.012
0.049,0.012
0.048,0.008
0.045,0.009
0.045,0.011
0.046,0.009
0.041,0.009
0.044,0.009
0.042,0.010
0.045,0.008
0.043,0.008
0.047,0.006
0.042,0.005
0.044,0.001
0.046,0.002
0.045,0.002
0.045,0.000
0.043,0.001
0.045,0.001
0.046,0.000
0.046,-0.003
0.047,0.000
0.046,-0.001
0.047,-0.002
0.049,0.001
0.048,-0.003
0.048,-0.003
0.047,-0.003
0.046,-0.002
0.047,-0.004
0.049,-0.004
0.045,-0.007
0.048,-0.007
0.045,-0.003
0.044,-0.003
0.043,-0.002
0.043,-0.004
0.044,-0.002
0.041,-0.006
0.048,-0.005
0.041,-0.005
0.042,-0.005
0.040,-0.003
0.041,-0.002
0.041,-0.002
0.038,-0.001
0.040,-0.003
0.041,-0.001
0.045,0.000
0.045,-0.001
0.044,0.001
0.044,0.005
0.043,0.001
0.041,0.006
0.042,0.003
0.041,0.004
0.039,0.004
0.044,0.006
0.041,0.006
0.044,0.003
0.042,0.007
0.042,0.007
0.043,0.009
0.043,0.007
0.043,0.008
0.042,0.008
0.041,0.009
0.041,0.009
0.042,0.010
0.042,0.011
0.043,0.011
0.040,0.015
0.042,0.014
0.040,0.014
0.039,0.014
0.038,0.014
0.043,0.016
0.039,0.017
0.042,0.018
0.040,0.018
0.040,0.019
0.036,0.021
0.039,0.023
0.036,0.026
0.036,0.024
0.037,0.028
0.039,0.027
0.041,0.035
0.036,0.029
0.041,0.027
0.041,0.027
0.043,0.030
0.038,0.028
0.043,0.032
0.039,0.031
0.041,0.032
0.038,0.036
0.041,0.037
0.039,0.041
0.041,0.039
0.036,0.040
0.039,0.037
0.041,0.038
0.039,0.037
0.044,0.034
0.041,0.036
0.044,0.036
0.042,0.039
0.041,0.038
0.040,0.043
0.040,0.041
0.043,0.042
0.042,0.043
0.046,0.043
0.043,0.044
0.043,0.041
0.041,0.043
0.040,0.043
0.041,0.045
0.039,0.043
0.043,0.042
0.041,0.039
0.042,0.041
0.041,0.040
0.041,0.043
0.041,0.045
0.042,0.043
0.038,0.043
0.038,0.042
0.042,0.042
0.040,0.041
0.042,0.038
0.044,0.039
0.044,0.040
0.046,0.039
0.044,0.037
0.047,0.041
0.045,0.037
0.045,0.037
0.045,0.034
0.048,0.035
0.044,0.035
0.044,0.033
0.043,0.036
0.041,0.033
0.043,0.036
0.044,0.033
0.045,0.032
0.041,0.028
0.046,0.029
0.045,0.029
0.046,0.029
0.042,0.028
0.044,0.027
0.044,0.028
0.044,0.025
0.043,0.024
0.044,0.023
0.046,0.023
0.047,0.022
0.047,0.020
0.047,0.016
0.047,0.018
0.049,0.013
0.047,0.016
0.047,0.014
0.048,0.012
0.047,0.013
0.048,0.010
0.046,0.010
0.047,0.007
0.042,0.010
0.046,0.008
0.043,0.010
0.045,0.007
0.045,0.010
0.043,0.004
0.046,0.008
0.043,0.005
0.048,0.004
0.049,-0.001
0.048,-0.001
0.047,0.001
0.049,-0.001
0.046,0.001
0.047,-0.004
0.049,-0.002
0.047,-0.005
0.049,-0.001
0.047,-0.003
0.048,-0.004
0.046,-0.003
0.045,-0.005
0.043,-0.003
0.046,-0.005
0.049,-0.007
0.048,-0.009
0.051,-0.007
0.048,-0.011
0.046,-0.009
0.046,-0.007
0.049,-0.005
0.045,-0.005
0.048,-0.005
0.046,-0.005
0.046,-0.009
0.048,-0.007
0.046,-0.006
0.046,-0.007
0.043,-0.001
0.041,-0.007
0.043,-0.002
0.040,-0.005
0.045,-0.001
0.043,-0.004
0.045,-0.002
0.043,-0.003
0.042,-0.005
0.041,0.000
0.041,-0.001
0.042,-0.001
0.042,0.000
0.043,0.002
0.040,0.001
0.046,0.004
0.041,0.004
0.044,0.003
0.042,0.007
0.041,0.006
0.041,0.007
0.041,0.008
0.042,0.010
0.043,0.006
0.045,0.009
0.044,0.010
0.045,0.010
0.042,0.014
0.042,0.014
0.043,0.018
0.042,0.013
0.038,0.016
0.038,0.014
0.041,0.017
0.041,0.015
0.042,0.017
0.039,0.021
0.038,0.019
0.039,0.022
0.039,0.023
0.040,0.026
0.039,0.028
0.039,0.025
0.040,0.030
0.041,0.028
0.039,0.026
0.041,0.031
0.039,0.030
0.039,0.031
0.040,0.031
0.039,0.033
0.038,0.029
0.038,0.034
0.039,0.033
0.040,0.039
0.036,0.038
0.043,0.036
0.038,0.036
0.041,0.032
0.041,0.037
0.043,0.036
0.042,0.039
0.042,0.038
0.042,0.040
0.041,0.036
0.045,0.040
0.040,0.038
0.041,0.040
0.038,0.043
0.040,0.044
0.040,0.046
0.039,0.046
0.037,0.045
0.040,0.042
0.038,0.041
0.037,0.043
0.040,0.043
0.039,0.042
0.040,0.039
0.039,0.046
0.040,0.046
0.038,0.050
0.041,0.045
0.044,0.047
0.045,0.045
0.047,0.044
0.045,0.043
0.047,0.042
0.047,0.046
0.047,0.042
0.045,0.045
0.045,0.042
0.046,0.044
0.046,0.041
0.049,0.043
0.045,0.039
0.050,0.037
0.048,0.039
0.049,0.035
0.045,0.036
0.045,0.036
0.046,0.036
0.045,0.035
0.044,0.036
0.045,0.035
0.044,0.033
0.044,0.038
0.046,0.033
0.045,0.034
0.045,0.032
0.045,0.032
0.045,0.026
0.048,0.027
0.046,0.026
0.047,0.025
0.046,0.023
0.047,0.023
0.046,0.026
0.046,0.024
0.050,0.025
0.047,0.020
0.048,0.020
0.049,0.017
0.046,0.014
0.047,0.012
0.045,0.015
0.045,0.011
0.045,0.013
0.044,0.010
0.046,0.012
0.042,0.009
0.047,0.010
0.046,0.004
0.049,0.005
0.050,0.002
0.050,0.004
0.049,0.007
0.047,0.002
0.047,0.003
0.045,-0.001
0.048,0.001
0.046,-0.001
0.049,0.001
0.046,-0.002
0.048,-0.001
0.045,0.001
0.047,-0.001
0.045,0.003
0.046,0.001
0.047,-0.002
0.048,-0.001
0.049,-0.002
0.048,-0.005
0.048,-0.007
0.048,-0.003
0.044,-0.006
0.045,-0.003
0.044,-0.003
0.046,-0.003
0.046,-0.005
0.048,-0.007
0.047,-0.005
0.045,-0.007
0.046,-0.005
0.045,-0.005
0.044,-0.001
0.043,-0.004
0.046,-0.003
0.043,-0.006
0.046,-0.004
0.043,-0.003
0.044,-0.004
0.043,-0.001
0.043,-0.002
0.038,-0.002
0.039,-0.001
0.040,-0.000
0.042,-0.001
0.043,0.000
0.044,0.001
0.043,0.002
0.042,0.005
0.039,0.004
0.040,0.006
0.040,0.007
0.044,0.009
0.043,0.005
0.044,0.007
0.043,0.009
0.042,0.007
0.042,0.012
0.039,0.011
0.039,0.012
0.040,0.013
0.043,0.014
0.042,0.011
0.046,0.011
0.044,0.012
0.046,0.015
0.042,0.011
0.043,0.014
0.041,0.017
0.040,0.016
0.037,0.021
0.038,0.021
0.036,0.023
0.038,0.025
0.039,0.025
0.043,0.027
0.042,0.029
0.044,0.029
0.043,0.031
0.046,0.029
0.041,0.031
0.043,0.030
0.041,0.034
0.037,0.033
0.036,0.035
0.033,0.035
0.030,0.036
0.030,0.036
0.037,0.037
0.044,0.038
0.050,0.036
0.050,0.036
0.055,0.038
0.051,0.037
0.048,0.038
0.046,0.036
0.044,0.033
0.045,0.036
0.045,0.039
0.041,0.038
0.039,0.042
0.039,0.043
0.038,0.044
0.039,0.044
0.043,0.046
0.041,0.043
0.044,0.044
0.041,0.043
0.041,0.043
0.038,0.042
0.038,0.043
0.032,0.045
0.030,0.043
0.031,0.044
0.032,0.041
0.042,0.044
0.056,0.043
0.076,0.043
0.089,0.047
0.105,0.044
0.112,0.049
0.111,0.046
0.100,0.047
0.087,0.045
0.072,0.043
0.054,0.044
0.026,0.041
0.008,0.044
0.002,0.039
0.007,0.040
0.015,0.036
0.028,0.037
0.033,0.036
0.037,0.035
0.038,0.034
0.045,0.033
0.052,0.035
0.065,0.033
0.073,0.032
0.081,0.029
0.093,0.028
0.093,0.029
0.094,0.029
0.084,0.033
0.074,0.029
0.062,0.030
0.053,0.029
0.045,0.028
0.030,0.026
0.015,0.025
0.003,0.026
-0.001,0.027
0.004,0.020
0.011,0.021
0.021,0.017
0.029,0.018
0.035,0.014
0.039,0.013
0.042,0.011
0.040,0.010
0.043,0.010
0.041,0.010
0.039,0.013
0.041,0.013
0.037,0.015
0.040,0.010
0.036,0.010
0.041,0.009
0.037,0.008
0.033,0.007
0.007,0.007
-0.022,0.004
-0.048,0.006
-0.076,0.007
-0.080,0.004
-0.065,0.009
-0.032,0.005
0.006,0.009
0.036,0.004
0.062,0.003
0.075,0.002
0.087,-0.000
0.088,0.003
0.095,-0.001
0.091,0.000
0.095,-0.003
0.093,-0.002
0.089,-0.003
0.086,-0.002
0.077,-0.005
0.073,-0.003
0.064,-0.003
0.055,-0.003
0.036,0.000
0.019,-0.001
-0.001,-0.003
-0.020,-0.006
-0.039,-0.004
-0.053,-0.005
-0.051,-0.002
-0.034,-0.002
-0.013,-0.004
0.006,-0.003
0.026,-0.005
0.041,0.000
0.055,-0.000
0.065,0.002
0.072,0.001
0.079,0.001
0.080,0.002
0.083,0.001
0.083,0.004
0.084,0.002
0.087,0.006
0.085,0.001
0.088,0.002
0.080,0.002
0.076,0.003
0.069,0.004
0.062,0.004
0.055,0.007
0.050,0.008
0.044,0.008
0.043,0.011
0.037,0.010
0.038,0.010
0.038,0.011
0.042,0.012
0.046,0.012
0.048,0.016
0.049,0.015
0.046,0.015
0.045,0.014
0.042,0.017
0.043,0.017
0.041,0.017
0.042,0.018
0.040,0.019
0.038,0.020
0.037,0.025
0.038,0.025
0.037,0.028
0.038,0.026
0.038,0.031
0.039,0.029
0.042,0.031
0.042,0.027
0.041,0.028
0.040,0.030
0.041,0.032
0.039,0.030
0.041,0.029
0.039,0.031
0.036,0.030
0.037,0.035
0.033,0.035
0.034,0.037
0.034,0.037
0.035,0.040
0.034,0.038
0.038,0.039
0.038,0.038
0.039,0.035
0.037,0.039
0.035,0.035
0.035,0.039
0.037,0.039
0.039,0.040
0.036,0.040
0.044,0.043
0.043,0.040
0.049,0.044
0.050,0.045
0.049,0.044
0.049,0.044
0.046,0.043
0.043,0.043
0.043,0.044
0.043,0.044
0.045,0.043
0.043,0.043
0.046,0.044
0.043,0.045
0.042,0.046
0.040,0.043
0.043,0.045
0.044,0.046
0.045,0.046
0.044,0.043
0.048,0.042
0.047,0.043
0.048,0.041
0.043,0.043
0.045,0.039
0.045,0.039
0.040,0.037
0.036,0.041
0.024,0.037
0.022,0.038
0.019,0.040
0.019,0.038
0.019,0.038
0.030,0.036
0.033,0.034
0.034,0.032
0.040,0.032
0.042,0.030
0.044,0.029
0.049,0.031
0.057,0.028
0.061,0.030
0.063,0.030
0.065,0.028
0.064,0.026
0.065,0.026
0.061,0.025
0.056,0.024
0.048,0.024
0.042,0.021
0.035,0.020
0.033,0.016
0.031,0.017
0.032,0.016
0.033,0.013
0.033,0.013
0.035,0.013
0.036,0.012
0.037,0.010
0.040,0.011
0.037,0.013
0.039,0.008
0.040,0.013
0.041,0.007
0.044,0.009
0.048,0.006
0.056,0.008
0.066,0.002
0.073,0.005
0.073,0.001
0.075,0.002
0.070,0.003
0.069,0.001
0.061,0.002
0.060,0.001
0.057,0.002
0.056,-0.000
0.054,0.002
0.052,-0.001
0.050,-0.001
0.045,0.002
0.040,-0.001
0.035,-0.003
0.039,-0.005
0.042,-0.007
0.052,-0.011
0.055,-0.010
0.059,-0.009
0.058,-0.009
0.056,-0.003
0.054,-0.004
0.047,-0.001
0.040,-0.003
0.032,-0.002
0.029,-0.004
0.046,-0.001
0.049,-0.003
0.030,0.000
0.002,0.002
-0.003,-0.002
0.002,0.001
0.017,-0.003
0.029,-0.002
0.034,-0.006
0.045,-0.003
0.055,-0.003
0.068,-0.002
0.077,0.001
0.086,0.000
0.080,0.001
0.077,0.003
0.071,0.004
0.065,-0.000
0.061,0.002
0.056,0.000
0.051,0.003
0.046,0.003
0.044,0.001
0.041,0.006
0.040,0.004
0.052,0.008
0.060,0.006
0.052,0.006
0.026,0.006
0.008,0.008
0.004,0.010
0.012,0.009
0.019,0.011
0.028,0.008
0.030,0.013
0.038,0.010
0.041,0.012
0.053,0.012
0.060,0.017
0.068,0.017
0.070,0.017
0.071,0.019
0.070,0.021
0.061,0.020
0.059,0.023
0.053,0.023
0.053,0.022
0.047,0.021
0.049,0.024
0.044,0.024
0.041,0.024
0.039,0.023
0.037,0.027
0.038,0.027
0.039,0.028
0.038,0.031
0.040,0.031
0.039,0.034
0.042,0.033
0.040,0.034
0.041,0.032
0.042,0.033
0.043,0.034
0.043,0.033
0.042,0.036
0.040,0.032
0.039,0.038
0.031,0.036
0.019,0.036
0.008,0.037
-0.005,0.038
-0.035,0.039
-0.037,0.041
-0.037,0.041
-0.027,0.040
-0.006,0.043
0.012,0.043
0.034,0.043
0.055,0.041
0.070,0.041
0.064,0.043
0.056,0.041
0.026,0.041
-0.019,0.042
-0.041,0.042
-0.042,0.042
-0.017,0.043
0.022,0.043
0.055,0.042
0.085,0.042
0.102,0.042
0.111,0.042
0.117,0.041
0.117,0.041
0.114,0.040
0.112,0.045
0.106,0.040
0.101,0.041
0.090,0.038
0.083,0.037
0.074,0.037
0.069,0.038
0.061,0.039
0.054,0.039
0.039,0.040
0.027,0.035
0.014,0.034
-0.021,0.032
-0.043,0.033
-0.055,0.034
-0.052,0.034
-0.039,0.032
-0.010,0.029
0.026,0.030
0.066,0.025
0.102,0.025
0.135,0.021
0.157,0.021
0.166,0.024
0.161,0.021
0.150,0.023
0.134,0.019
0.116,0.021
0.091,0.019
0.067,0.019
0.051,0.019
0.047,0.017
0.048,0.015
0.057,0.015
0.067,0.016
0.055,0.011
0.039,0.013
0.034,0.012
0.034,0.011
0.039,0.009
0.045,0.008
0.056,0.009
0.067,0.008
0.072,0.006
0.081,0.008
0.086,0.006
0.093,0.008
0.094,0.001
0.092,0.001
0.082,-0.001
0.071,0.001
0.052,0.002
0.032,0.002
0.015,0.004
0.011,0.002
0.011,0.002
0.019,0.000
0.026,-0.001
0.032,-0.003
0.036,-0.003
0.038,-0.002
0.039,-0.003
0.039,-0.003
0.037,-0.004
0.041,-0.005
0.037,-0.005
0.041,-0.007
0.038,-0.004
0.037,-0.006
0.037,-0.002
0.039,-0.003
0.038,-0.002
0.036,-0.003
0.038,0.000
0.037,-0.002
0.022,-0.004
-0.008,-0.006
-0.037,-0.003
-0.064,-0.003
-0.075,0.001
-0.068,0.002
-0.039,0.003
-0.007,0.003
0.030,0.001
0.054,0.004
0.073,0.001
0.084,0.003
0.092,0.005
0.091,0.007
0.096,0.008
0.101,0.008
0.097,0.006
0.095,0.008
0.090,0.007
0.080,0.008
0.072,0.009
0.067,0.007
0.060,0.009
0.058,0.011
0.051,0.011
0.038,0.014
0.017,0.013
0.002,0.017
-0.021,0.013
-0.036,0.016
-0.053,0.014
-0.055,0.018
-0.045,0.017
-0.025,0.017
-0.001,0.019
0.040,0.020
0.082,0.023
0.089,0.020
0.085,0.025
0.075,0.023
0.067,0.029
0.060,0.025
0.060,0.029
0.059,0.030
0.062,0.035
0.062,0.030
0.062,0.034
0.071,0.030
0.078,0.033
0.082,0.034
0.083,0.034
0.077,0.036
0.073,0.038
0.063,0.038
0.062,0.038
0.056,0.039
0.058,0.036
0.062,0.041
0.075,0.038
0.081,0.041
0.083,0.036
0.078,0.038
0.073,0.038
0.066,0.041
0.054,0.043
0.048,0.040
0.038,0.045
0.035,0.044
0.024,0.049
0.014,0.045
0.002,0.049
-0.005,0.047
-0.003,0.046
0.005,0.048
0.013,0.046
0.017,0.048
0.021,0.043
0.019,0.046
0.019,0.046
0.020,0.047
0.023,0.044
0.032,0.045
0.039,0.046
0.048,0.044
0.060,0.047
0.065,0.044
0.071,0.045
0.070,0.046
0.071,0.045
0.065,0.045
0.061,0.045
0.055,0.042
0.047,0.042
0.036,0.043
0.037,0.042
0.037,0.041
0.037,0.039
0.042,0.037
0.032,0.036
0.019,0.035
-0.018,0.036
-0.095,0.036
-0.129,0.036
-0.142,0.035
-0.114,0.033
-0.066,0.030
-0.001,0.030
0.043,0.028
0.080,0.027
0.098,0.027
0.110,0.026
0.121,0.029
0.132,0.027
0.139,0.030
0.141,0.026
0.139,0.026
0.136,0.023
0.133,0.023
0.109,0.017
0.089,0.017
0.062,0.013
0.038,0.016
-0.002,0.012
-0.042,0.011
-0.073,0.011
-0.085,0.009
-0.078,0.010
-0.052,0.009
-0.017,0.011
0.016,0.009
0.042,0.010
0.059,0.009
0.062,0.010
0.067,0.005
0.072,0.006
0.088,0.004
0.109,0.006
0.121,0.003
0.134,0.002
0.138,0.003
0.130,0.000
0.104,0.004
0.091,0.001
0.075,0.000
0.075,-0.000
0.083,-0.002
0.085,0.000
0.083,-0.003
0.066,-0.000
0.051,-0.003
0.032,-0.003
0.010,-0.003
-0.007,-0.004
-0.029,-0.008
-0.039,-0.006
-0.054,-0.008
-0.055,-0.007
-0.042,-0.003
-0.009,-0.005
0.022,-0.001
0.064,-0.005
0.106,-0.002
0.157,-0.004
0.192,-0.004
0.206,-0.008
0.197,-0.002
0.167,-0.003
0.134,-0.003
0.099,-0.002
0.074,-0.001
0.047,0.000
0.026,-0.000
0.021,-0.001
0.023,0.006
0.028,0.002
0.036,0.006
0.040,0.004
0.042,0.004
0.043,0.003
0.043,0.004
0.042,0.004
0.041,0.003
0.039,0.009
0.042,0.007
0.034,0.010
0.036,0.009
0.039,0.010
0.055,0.007
0.062,0.007
0.033,0.008
0.008,0.008
-0.007,0.011
-0.003,0.009
0.003,0.011
0.015,0.010
0.024,0.013
0.039,0.013
0.054,0.014
0.071,0.015
0.076,0.018
0.079,0.017
0.075,0.019
0.067,0.018
0.062,0.020
0.054,0.019
0.052,0.021
0.045,0.020
0.045,0.025
0.044,0.024
0.048,0.028
0.059,0.027
0.059,0.028
0.041,0.026
0.017,0.026
0.005,0.030
0.001,0.029
0.016,0.033
0.020,0.032
0.017,0.033
-0.014,0.037
-0.033,0.036
-0.026,0.037
-0.011,0.039
0.005,0.036
0.013,0.037
0.019,0.033
0.021,0.035
0.024,0.039
0.016,0.038
-0.002,0.041
-0.039,0.039
-0.067,0.040
-0.072,0.038
-0.065,0.041
-0.023,0.040
0.049,0.041
0.109,0.041
0.140,0.041
0.137,0.042
0.118,0.043
0.102,0.042
0.102,0.045
0.093,0.046
0.087,0.044
0.083,0.043
0.082,0.041
0.094,0.044
0.099,0.046
0.104,0.045
0.107,0.045
0.106,0.046
0.102,0.045
0.093,0.045
0.087,0.047
0.086,0.048
0.081,0.046
0.073,0.047
0.062,0.044
0.049,0.042
0.001,0.036
-0.050,0.037
-0.094,0.037
-0.123,0.037
-0.151,0.036
-0.198,0.035
-0.195,0.036
-0.152,0.036
-0.101,0.036
-0.047,0.033
-0.004,0.033
0.023,0.032
-0.003,0.035
-0.033,0.028
-0.050,0.032
-0.024,0.032
0.017,0.030
0.064,0.029
0.110,0.028
0.151,0.030
0.179,0.028
0.176,0.030
0.162,0.029
0.150,0.028
0.135,0.026
0.119,0.025
0.088,0.021
0.056,0.020
0.054,0.017
0.064,0.016
0.075,0.019
0.081,0.017
0.089,0.018
0.095,0.017
0.096,0.018
0.088,0.011
0.087,0.014
0.096,0.012
0.111,0.009
0.120,0.008
0.141,0.010
0.145,0.005
0.150,0.006
0.142,0.005
0.138,0.001
0.121,0.003
0.115,0.000
0.114,-0.002
0.112,-0.003
0.116,-0.004
0.114,-0.001
0.118,0.000
0.114,0.003
0.117,0.001
0.122,0.004
0.132,0.002
0.134,0.002
0.130,-0.002
0.119,-0.002
0.093,0.000
0.050,-0.006
-0.010,-0.003
-0.059,-0.004
-0.086,-0.003
-0.089,-0.004
-0.066,-0.005
-0.031,-0.006
0.011,-0.004
0.046,-0.005
0.072,-0.003
0.084,-0.005
0.100,-0.005
0.116,-0.003
0.135,-0.005
0.145,-0.006
0.144,-0.007
0.129,-0.004
0.104,-0.005
0.069,-0.002
0.044,-0.000
0.003,-0.000
-0.033,0.001
-0.057,0.003
-0.067,0.001
-0.063,-0.001
-0.038,-0.000
-0.001,0.005
0.037,0.002
0.069,0.006
0.089,0.005
0.106,0.005
0.126,0.005
0.179,0.007
0.214,0.008
0.227,0.006
0.204,0.010
0.164,0.010
0.109,0.010
0.069,0.010
0.024,0.010
-0.022,0.012
-0.052,0.011
-0.066,0.012
-0.063,0.013
-0.044,0.016
-0.030,0.013
-0.019,0.015
-0.024,0.017
-0.033,0.017
-0.044,0.018
-0.055,0.021
-0.055,0.022
-0.057,0.026
-0.070,0.025
-0.071,0.028
-0.054,0.030
-0.040,0.030
-0.017,0.030
-0.002,0.030
0.019,0.030
0.033,0.030
0.046,0.030
0.060,0.032
0.081,0.031
0.092,0.032
0.108,0.032
0.109,0.035
0.111,0.034
0.109,0.035
0.099,0.033
0.086,0.037
0.077,0.036
0.064,0.037
0.057,0.039
0.054,0.037
0.052,0.039
0.046,0.037
0.037,0.040
0.034,0.039
0.031,0.037
0.030,0.041
0.032,0.040
0.030,0.045
0.032,0.042
0.032,0.042
0.032,0.042
0.037,0.043
0.035,0.040
0.035,0.040
0.035,0.043
0.036,0.044
0.035,0.047
0.034,0.045
0.032,0.046
0.030,0.045
0.032,0.045
0.031,0.043
0.028,0.045
0.028,0.042
0.027,0.043
0.027,0.046
0.029,0.041
0.033,0.045
0.032,0.041
0.035,0.040
0.034,0.040
0.034,0.040
0.032,0.040
0.031,0.040
0.029,0.041
0.033,0.039
0.029,0.036
0.034,0.035
0.038,0.036
0.042,0.034
0.051,0.035
0.062,0.033
0.050,0.032
0.026,0.034
0.019,0.030
0.011,0.032
0.008,0.029
0.003,0.030
0.004,0.026
0.009,0.026
0.014,0.026
0.022,0.025
0.030,0.029
0.042,0.024
0.051,0.027
0.057,0.021
0.057,0.024
0.057,0.019
0.056,0.021
0.058,0.021
0.074,0.020
0.085,0.019
0.095,0.017
0.086,0.016
0.072,0.013
0.042,0.013
0.017,0.010
-0.002,0.012
-0.009,0.010
-0.008,0.010
0.002,0.008
0.018,0.008
0.035,0.005
0.041,0.005
0.043,0.003
0.038,0.004
0.029,0.003
0.027,-0.001
0.027,-0.001
0.033,0.001
0.035,-0.002
0.042,0.001
0.058,0.001
0.091,0.001
0.121,0.003
0.142,0.003
0.141,-0.001
0.122,-0.005
0.098,-0.005
0.073,-0.008
0.038,-0.008
0.006,-0.007
-0.007,-0.010
-0.011,-0.008
-0.001,-0.009
0.012,-0.007
0.019,-0.007
0.029,-0.007
0.032,-0.008
0.034,-0.010
0.036,-0.007
0.038,-0.008
0.043,-0.005
0.042,-0.006
0.044,-0.006
0.040,-0.005
0.037,-0.002
0.032,-0.005
0.031,-0.003
0.028,-0.004
0.024,-0.001
0.016,-0.001
0.016,0.000
0.009,0.002
0.013,0.000
0.015,0.001
0.025,-0.003
0.047,-0.002
0.082,-0.000
0.111,0.002
0.133,0.004
0.136,0.005
0.114,0.006
0.078,0.006
0.042,0.006
0.009,0.007
-0.020,0.007
-0.054,0.009
-0.081,0.006
-0.116,0.011
-0.169,0.009
-0.174,0.011
-0.151,0.009
-0.097,0.007
-0.034,0.003
0.035,0.005
0.076,0.002
0.107,0.005
0.121,0.005
0.131,0.012
0.134,0.017
0.136,0.018
0.130,0.022
0.117,0.025
0.096,0.028
0.073,0.029
0.050,0.032
0.031,0.033
0.018,0.033
0.012,0.031
0.015,0.031
0.021,0.029
0.034,0.030
0.058,0.031
0.076,0.033
0.092,0.032
0.093,0.031
0.080,0.032
0.050,0.032
0.016,0.034
-0.016,0.034
-0.075,0.033
-0.113,0.036
-0.133,0.037
-0.111,0.037
-0.059,0.037
-0.001,0.037
0.023,0.038
0.035,0.038
0.049,0.038
0.062,0.038
0.073,0.041
0.084,0.041
0.095,0.042
0.112,0.045
0.132,0.046
0.142,0.044
0.149,0.046
0.147,0.046
0.136,0.043
0.128,0.043
0.121,0.042
0.107,0.042
0.092,0.041
0.079,0.041
0.071,0.041
0.063,0.041
0.062,0.044
0.061,0.045
0.058,0.044
0.056,0.044
0.059,0.046
0.058,0.044
0.059,0.045
0.054,0.043
0.049,0.044
0.045,0.040
0.044,0.043
0.045,0.041
0.041,0.042
0.043,0.039
0.045,0.040
0.045,0.040
0.045,0.037
0.043,0.037
0.040,0.036
0.039,0.038
0.036,0.035
0.038,0.035
0.038,0.035
0.045,0.032
0.043,0.029
0.049,0.027
0.050,0.026
0.053,0.026
0.050,0.026
0.051,0.029
0.048,0.031
0.047,0.028
0.049,0.027
0.046,0.025
0.053,0.024
0.065,0.022
0.087,0.018
0.104,0.016
0.114,0.011
0.114,0.014
0.104,0.014
0.088,0.013
0.071,0.011
0.054,0.013
0.026,0.014
0.009,0.015
0.004,0.013
0.005,0.011
0.016,0.010
0.022,0.009
0.031,0.007
0.036,0.005
0.041,0.005
0.042,0.004
0.040,0.000
0.038,0.003
0.036,0.003
0.039,0.003
0.041,0.004
0.045,0.001
0.047,-0.001
0.053,-0.002
0.060,-0.003
0.061,-0.002
0.062,-0.004
0.060,-0.003
0.076,-0.002
0.105,-0.002
0.137,-0.004
0.148,-0.003
0.142,-0.005
0.114,-0.005
0.077,-0.006
0.036,-0.007
-0.021,-0.005
-0.065,-0.004
-0.088,-0.005
-0.080,-0.004
-0.063,-0.005
-0.032,-0.007
-0.003,-0.006
0.019,-0.007
0.039,-0.008
0.051,-0.007
0.064,-0.012
0.077,-0.009
0.097,-0.013
0.108,-0.009
0.109,-0.011
0.116,-0.007
0.121,-0.006
0.119,-0.003
0.108,0.001
0.094,0.001
0.063,0.006
0.032,0.008
0.008,0.011
-0.009,0.005
-0.012,0.007
-0.013,0.006
-0.005,0.003
0.006,0.004
0.019,0.003
0.021,0.004
0.034,0.004
0.045,0.005
0.059,0.006
0.068,0.009
0.076,0.006
0.074,0.007
0.062,0.008
0.042,0.009
0.029,0.010
0.019,0.008
0.002,0.011
-0.012,0.011
-0.018,0.011
-0.016,0.013
-0.006,0.015
0.001,0.014
0.011,0.018
0.015,0.019
0.030,0.025
0.038,0.023
0.055,0.026
0.063,0.024
0.070,0.026
0.062,0.025
0.062,0.026
0.055,0.028
0.055,0.029
0.053,0.029
0.048,0.026
0.044,0.030
0.039,0.028
0.036,0.031
0.032,0.030
0.034,0.034
0.039,0.034
0.048,0.036
0.075,0.032
0.112,0.035
0.134,0.032
0.140,0.037
0.125,0.037
0.093,0.039
0.060,0.038
0.033,0.037
0.008,0.038
0.007,0.036
0.019,0.038
0.039,0.041
0.054,0.043
0.057,0.044
0.043,0.042
0.031,0.043
0.035,0.044
0.042,0.043
0.019,0.044
-0.017,0.041
-0.028,0.043
-0.028,0.041
-0.017,0.043
-0.003,0.042
0.013,0.046
0.030,0.042
0.043,0.045
0.053,0.044
0.062,0.046
0.063,0.044
0.062,0.044
0.060,0.049
0.057,0.045
0.049,0.046
0.044,0.044
0.037,0.047
0.030,0.043
0.027,0.043
0.017,0.041
0.020,0.042
0.019,0.044
0.024,0.039
0.025,0.041
0.028,0.040
0.032,0.039
0.034,0.037
0.043,0.037
0.043,0.037
0.046,0.033
0.045,0.035
0.045,0.033
0.044,0.034
0.043,0.031
0.047,0.032
0.042,0.028
0.045,0.029
0.042,0.028
0.046,0.026
0.045,0.029
0.051,0.027
0.049,0.028
0.049,0.025
0.044,0.025
0.046,0.022
0.045,0.020
0.041,0.019
0.026,0.019
-0.008,0.012
-0.028,0.014
-0.030,0.008
-0.024,0.010
-0.023,0.008
0.006,0.007
0.023,0.007
0.044,0.005
0.053,0.005
0.067,0.006
0.080,0.003
0.095,0.002
0.103,0.002
0.111,0.001
0.107,0.003
0.099,0.001
0.084,-0.001
0.076,-0.001
0.068,0.001
0.063,-0.003
0.060,-0.001
0.056,-0.001
0.054,-0.002
0.049,-0.003
0.049,-0.003
0.050,-0.003
0.045,-0.004
0.045,-0.003
0.045,-0.001
0.035,-0.004
0.029,-0.004
0.022,-0.005
0.002,-0.006
-0.020,-0.007
-0.026,-0.004
-0.017,-0.008
0.001,-0.008
0.021,-0.004
0.040,-0.004
0.054,-0.003
0.071,-0.004
0.082,-0.004
0.090,-0.008
0.095,-0.004
0.110,-0.006
0.139,-0.005
0.167,-0.005
0.182,-0.004
0.173,-0.005
0.140,-0.006
0.102,-0.006
0.062,-0.007
0.019,0.000
-0.017,0.001
-0.034,0.001
-0.033,0.004
-0.020,0.002
-0.004,0.004
0.009,0.003
0.020,0.004
0.025,0.001
0.028,0.004
0.029,0.004
0.033,0.004
0.031,0.010
0.032,0.004
0.028,0.009
0.030,0.009
0.032,0.010
0.035,0.007
0.040,0.010
0.040,0.007
0.044,0.012
0.044,0.014
0.048,0.012
0.046,0.016
0.051,0.016
0.047,0.019
0.046,0.014
0.042,0.015
0.042,0.018
0.038,0.020
0.036,0.021
0.034,0.024
0.034,0.025
0.031,0.027
0.031,0.029
0.031,0.028
0.031,0.028
0.032,0.030
0.032,0.029
0.035,0.030
0.038,0.029
0.045,0.032
0.050,0.031
0.053,0.031
0.052,0.033
0.049,0.034
0.048,0.036
0.047,0.038
0.042,0.037
0.038,0.038
0.039,0.037
0.036,0.035
0.036,0.038
0.035,0.037
0.037,0.036
0.036,0.041
0.037,0.037
0.036,0.043
0.036,0.040
0.037,0.045
0.034,0.039
0.041,0.042
0.039,0.042
0.043,0.041
0.041,0.044
0.043,0.042
0.039,0.044
0.039,0.045
0.043,0.048
0.041,0.042
0.042,0.043
0.041,0.040
0.040,0.041
0.038,0.045
0.038,0.045
0.037,0.046
0.038,0.046
0.040,0.045
0.039,0.044
0.035,0.043
0.036,0.046
0.033,0.045
0.038,0.044
0.038,0.045
0.039,0.045
0.040,0.043
0.042,0.041
0.040,0.041
0.040,0.040
0.038,0.040
0.038,0.039
0.037,0.039
0.036,0.038
0.035,0.035
0.034,0.039
0.035,0.038
0.039,0.033
0.043,0.031
0.045,0.031
0.049,0.028
0.050,0.032
0.051,0.030
0.049,0.029
0.051,0.029
0.050,0.026
0.049,0.026
0.047,0.025
