[Parameters]
Operating Mode, Feedback
Subject  AA..ZZ, WT
Session  0..99, 43
No. Trials (1..9999), 500
Mouse Number, 1
Pressure Probe Serial Port, \00\00\00\04COM4
Save additional csv file, TRUE
Save using mouse number, FALSE
A/D Monitor Rate (Hz), 30000.000000
A/D Stimulate Rate (Hz), 30000.000000
A/D input range (+/- V), 5
No. Channels to acquire (N), 2
Pre-Stim Acq. time (ms), 100.000000
Post-Stim Acq. time (ms), 900.000000
Analysis window parameters.M-response Start (ms), 1.100000
Analysis window parameters.M-response Duration (ms), 5.500000
Analysis window parameters.H-response Duration (ms), 6.000000
Analysis window parameters.H-response Start (ms), 6.500000
Feedback window, H response
Proportional gain, 0.100000
Target value, 6.700000
Feedback Ch., 1
Stim Channel to Control (1-4), 4
Trial, 32
Wait for EMG Conditions, FALSE
Channel to monitor (0 - N-1), 1
EMG Hi Limit, 2.000000
EMG Lo Limit, 0.001000
Inter-Stim delay (sec), 10.000000
EMG Monitor Mode, Mean
Time to run Long Stim.(sec), 30
Save Long Stim Data?, OFF
BURST Save time (ms), 1000
BURST Save Interval (x above), 10
Long-Stim. Rep. Rate (Hz), 10.000000
Stim type cluster array.<size(s)>, 4
Stim type cluster array 0.Stimulus Output, Electrical
Stim type cluster array 1.Stimulus Output, OFF
Stim type cluster array 2.Stimulus Output, OFF
Stim type cluster array 3.Stimulus Output, Motor Length
Stim specs cluster array.<size(s)>, 4
Stim specs cluster array 0.Initial Stimulus ampl., 0.300000
Stim specs cluster array 0.Maximum Stimulus, 1.120000
Stim specs cluster array 0.#Pulses in train, 4
Stim specs cluster array 0.Peak Level time (ms), 1.000000
Stim specs cluster array 0.Total pulse period (ms), 150.000000
Stim specs cluster array 0.Start Delay (ms), -50.000000
Stim specs cluster array 0.Pulse Shape, Square
Stim specs cluster array 0.Ramp/Rel. time (ms), 0.100000
Stim specs cluster array 0.Peak Amplitude (V), 0.120000
Stim specs cluster array 1.Initial Stimulus ampl., 0.000000
Stim specs cluster array 1.Maximum Stimulus, 0.000000
Stim specs cluster array 1.#Pulses in train, 3
Stim specs cluster array 1.Peak Level time (ms), 29.000000
Stim specs cluster array 1.Total pulse period (ms), 200.000000
Stim specs cluster array 1.Start Delay (ms), 0.000000
Stim specs cluster array 1.Pulse Shape, Square
Stim specs cluster array 1.Ramp/Rel. time (ms), 0.000000
Stim specs cluster array 1.Peak Amplitude (V), 2.000000
Stim specs cluster array 2.Initial Stimulus ampl., 0.000000
Stim specs cluster array 2.Maximum Stimulus, 0.000000
Stim specs cluster array 2.#Pulses in train, 1
Stim specs cluster array 2.Peak Level time (ms), 25.000000
Stim specs cluster array 2.Total pulse period (ms), 200.000000
Stim specs cluster array 2.Start Delay (ms), 0.000000
Stim specs cluster array 2.Pulse Shape, Square
Stim specs cluster array 2.Ramp/Rel. time (ms), 20.000000
Stim specs cluster array 2.Peak Amplitude (V), 10.000000
Stim specs cluster array 3.Initial Stimulus ampl., 0.000000
Stim specs cluster array 3.Maximum Stimulus, 20.000000
Stim specs cluster array 3.#Pulses in train, 25
Stim specs cluster array 3.Peak Level time (ms), 0.100000
Stim specs cluster array 3.Total pulse period (ms), 4.000000
Stim specs cluster array 3.Start Delay (ms), 205.000000
Stim specs cluster array 3.Pulse Shape, Triangle
Stim specs cluster array 3.Ramp/Rel. time (ms), 3.000000
Stim specs cluster array 3.Peak Amplitude (V), 0.500000
Force cal. (mN/Volt), 100.000000
Force Range (mN), 100.000000
Length cal. (mm/Volt), 10.000000
Length Range (mm), 10.000000
Stim. 1, 0.300000
Stim. 2, 0.000000
Stim. 3, 0.000000
Stim. 4, 0.000000
Monitor acquire time (ms), 100.000000
EMG graph Ymax, 0.100000
Travel limit (mm), 20.000000
Use Pressure Probe, FALSE
Pressure goal (g), 100
Speed (mm/sec), 5.000000
Dwell time (ms), 100.000000
Pressure limit (g), 500.000000
Channel amplitude offset, 0.000000

[DATA]

0.368,0.052,0.315,-5.337
0.306,0.054,0.313,-5.337
0.283,0.055,0.313,-5.337
0.301,0.052,0.312,-5.337
0.291,0.050,0.312,-5.337
0.284,0.050,0.311,-5.337
0.259,0.049,0.312,-5.337
0.211,0.051,0.314,-5.337
0.162,0.050,0.318,-5.337
0.171,0.047,0.317,-5.337
0.219,0.045,0.316,-5.337
0.183,0.045,0.315,-5.337
0.159,0.045,0.313,-5.337
0.214,0.045,0.315,-5.337
0.291,0.045,0.314,-5.337
0.273,0.049,0.312,-5.337
0.215,0.051,0.312,-5.337
0.189,0.049,0.315,-5.337
0.095,0.052,0.318,-5.337
0.095,0.051,0.318,-5.337
0.159,0.050,0.311,-5.337
0.206,0.051,0.308,-5.337
0.220,0.051,0.308,-5.337
0.232,0.047,0.315,-5.337
0.248,0.045,0.318,-5.337
0.196,0.046,0.316,-5.337
0.135,0.048,0.312,-5.337
0.119,0.048,0.311,-5.337
0.150,0.048,0.308,-5.337
0.169,0.049,0.307,-5.337
0.144,0.050,0.311,-5.337
0.161,0.049,0.317,-5.337
0.189,0.048,0.322,-5.337
0.233,0.046,0.317,-5.337
0.229,0.049,0.316,-5.337
0.178,0.050,0.318,-5.337
0.204,0.046,0.316,-5.337
0.244,0.043,0.314,-5.337
0.234,0.044,0.313,-5.337
0.197,0.047,0.313,-5.337
0.167,0.049,0.312,-5.337
0.180,0.046,0.314,-5.337
0.203,0.041,0.315,-5.337
0.228,0.041,0.315,-5.337
0.191,0.045,0.313,-5.337
0.146,0.047,0.315,-5.337
0.173,0.046,0.319,-5.337
0.213,0.049,0.317,-5.337
0.198,0.047,0.317,-5.337
0.238,0.046,0.312,-5.337
0.295,0.046,0.309,-5.337
0.295,0.046,0.312,-5.337
0.271,0.047,0.313,-5.337
0.238,0.046,0.313,-5.337
0.224,0.047,0.312,-5.337
0.240,0.044,0.311,-5.337
0.270,0.042,0.312,-5.337
0.213,0.044,0.314,-5.337
0.183,0.044,0.312,-5.337
0.232,0.044,0.310,-5.337
0.244,0.046,0.309,-5.337
0.214,0.043,0.311,-5.337
0.191,0.042,0.312,-5.337
0.191,0.043,0.314,-5.337
0.144,0.045,0.315,-5.337
0.140,0.042,0.315,-5.337
0.181,0.039,0.316,-5.337
0.191,0.040,0.321,-5.337
0.156,0.043,0.320,-5.337
0.172,0.044,0.320,-5.337
0.233,0.046,0.319,-5.337
0.215,0.047,0.317,-5.337
0.187,0.044,0.315,-5.337
0.234,0.042,0.311,-5.337
0.259,0.043,0.310,-5.337
0.225,0.045,0.314,-5.337
0.170,0.046,0.317,-5.337
0.155,0.047,0.317,-5.337
0.180,0.046,0.312,-5.337
0.213,0.045,0.311,-5.337
0.247,0.043,0.313,-5.337
0.221,0.046,0.315,-5.337
0.153,0.049,0.316,-5.337
0.168,0.047,0.314,-5.337
0.206,0.042,0.311,-5.337
0.210,0.040,0.308,-5.337
0.252,0.043,0.308,-5.337
0.247,0.047,0.313,-5.337
0.141,0.047,0.318,-5.337
0.146,0.047,0.316,-5.337
0.196,0.044,0.313,-5.337
0.275,0.045,0.311,-5.337
0.260,0.046,0.315,-5.337
0.172,0.045,0.317,-5.337
0.191,0.044,0.318,-5.337
0.230,0.046,0.319,-5.337
0.254,0.045,0.319,-5.337
0.239,0.042,0.314,-5.337
0.179,0.044,0.310,-5.337
0.172,0.044,0.310,-5.337
0.142,0.043,0.313,-5.337
0.125,0.042,0.317,-5.337
0.127,0.045,0.319,-5.337
0.204,0.042,0.319,-5.337
0.220,0.043,0.322,-5.337
0.143,0.045,0.321,-5.337
0.192,0.045,0.317,-5.337
0.194,0.046,0.316,-5.337
0.183,0.043,0.312,-5.337
0.202,0.040,0.307,-5.337
0.224,0.043,0.307,-5.337
0.225,0.040,0.312,-5.337
0.232,0.036,0.317,-5.337
0.234,0.039,0.319,-5.337
0.217,0.042,0.315,-5.337
0.177,0.044,0.311,-5.337
0.166,0.045,0.310,-5.337
0.186,0.046,0.315,-5.337
0.133,0.044,0.314,-5.337
0.108,0.040,0.315,-5.337
0.136,0.039,0.314,-5.337
0.175,0.041,0.313,-5.337
0.193,0.038,0.313,-5.337
0.247,0.036,0.311,-5.337
0.249,0.042,0.310,-5.337
0.192,0.044,0.311,-5.337
0.182,0.040,0.312,-5.337
0.169,0.040,0.311,-5.337
0.216,0.037,0.310,-5.337
0.260,0.036,0.315,-5.337
0.280,0.038,0.317,-5.337
0.265,0.038,0.313,-5.337
0.186,0.043,0.310,-5.337
0.118,0.044,0.312,-5.337
0.123,0.040,0.319,-5.337
0.172,0.036,0.320,-5.337
0.219,0.038,0.317,-5.337
0.194,0.040,0.312,-5.337
0.125,0.046,0.311,-5.337
0.176,0.043,0.310,-5.337
0.220,0.041,0.312,-5.337
0.225,0.041,0.309,-5.337
0.224,0.039,0.310,-5.337
0.166,0.038,0.311,-5.337
0.112,0.040,0.316,-5.337
0.133,0.037,0.321,-5.337
0.217,0.037,0.320,-5.337
0.211,0.039,0.315,-5.337
0.157,0.038,0.312,-5.337
0.126,0.035,0.309,-5.337
0.192,0.035,0.308,-5.337
0.179,0.038,0.305,-5.337
0.158,0.040,0.308,-5.337
0.176,0.037,0.312,-5.337
0.212,0.035,0.316,-5.337
0.222,0.034,0.318,-5.337
0.254,0.036,0.315,-5.337
0.199,0.034,0.315,-5.337
0.190,0.032,0.313,-5.337
0.195,0.029,0.314,-5.337
0.213,0.032,0.315,-5.337
0.256,0.037,0.316,-5.337
0.218,0.039,0.317,-5.337
0.143,0.037,0.319,-5.337
0.147,0.036,0.314,-5.337
0.178,0.033,0.312,-5.337
0.189,0.034,0.309,-5.337
0.237,0.037,0.308,-5.337
0.209,0.037,0.309,-5.337
0.182,0.037,0.315,-5.337
0.154,0.036,0.315,-5.337
0.181,0.037,0.311,-5.337
0.208,0.039,0.306,-5.337
0.201,0.037,0.310,-5.337
0.228,0.032,0.313,-5.337
0.260,0.036,0.317,-5.337
0.274,0.035,0.316,-5.337
0.187,0.035,0.314,-5.337
0.151,0.032,0.310,-5.337
0.228,0.029,0.309,-5.337
0.229,0.030,0.310,-5.337
0.155,0.038,0.312,-5.337
0.162,0.035,0.314,-5.337
0.183,0.033,0.313,-5.337
0.151,0.030,0.313,-5.337
0.143,0.029,0.314,-5.337
0.119,0.034,0.315,-5.337
0.097,0.035,0.314,-5.337
0.096,0.035,0.312,-5.337
0.132,0.033,0.311,-5.337
0.155,0.035,0.313,-5.337
0.143,0.037,0.310,-5.337
0.152,0.036,0.310,-5.337
0.189,0.033,0.313,-5.337
0.205,0.035,0.318,-5.337
0.193,0.035,0.320,-5.337
0.170,0.036,0.319,-5.337
0.180,0.034,0.311,-5.337
0.195,0.032,0.306,-5.337
0.195,0.031,0.309,-5.337
0.175,0.032,0.313,-5.337
0.160,0.033,0.315,-5.337
0.146,0.037,0.314,-5.337
0.222,0.034,0.313,-5.337
0.248,0.031,0.313,-5.337
0.168,0.034,0.312,-5.337
0.151,0.035,0.313,-5.337
0.213,0.031,0.312,-5.337
0.226,0.031,0.311,-5.337
0.206,0.033,0.311,-5.337
0.178,0.033,0.309,-5.337
0.190,0.033,0.315,-5.337
0.197,0.034,0.315,-5.337
0.165,0.036,0.311,-5.337
0.178,0.034,0.309,-5.337
0.236,0.029,0.312,-5.337
0.219,0.026,0.315,-5.337
0.179,0.030,0.316,-5.337
0.193,0.030,0.313,-5.337
0.152,0.031,0.314,-5.337
0.155,0.026,0.317,-5.337
0.224,0.024,0.319,-5.337
0.280,0.025,0.316,-5.337
0.221,0.025,0.312,-5.337
0.222,0.022,0.310,-5.337
0.230,0.023,0.311,-5.337
0.245,0.026,0.312,-5.337
0.244,0.028,0.312,-5.337
0.192,0.026,0.311,-5.337
0.169,0.025,0.311,-5.337
0.134,0.027,0.316,-5.337
0.127,0.032,0.317,-5.337
0.112,0.030,0.313,-5.337
0.112,0.032,0.309,-5.337
0.048,0.035,0.310,-5.337
0.081,0.031,0.313,-5.337
0.181,0.024,0.315,-5.337
0.228,0.023,0.311,-5.337
0.203,0.029,0.312,-5.337
0.129,0.032,0.316,-5.337
0.093,0.030,0.318,-5.337
0.147,0.024,0.315,-5.337
0.206,0.026,0.311,-5.337
0.290,0.029,0.311,-5.337
0.281,0.029,0.315,-5.337
0.171,0.031,0.320,-5.337
0.067,0.033,0.321,-5.337
0.090,0.032,0.319,-5.337
0.150,0.030,0.315,-5.337
0.131,0.029,0.309,-5.337
0.137,0.032,0.309,-5.337
0.135,0.035,0.311,-5.337
0.134,0.031,0.312,-5.337
0.185,0.023,0.313,-5.337
0.198,0.024,0.311,-5.337
0.186,0.030,0.310,-5.337
0.201,0.031,0.310,-5.337
0.212,0.029,0.313,-5.337
0.172,0.028,0.314,-5.337
0.167,0.031,0.313,-5.337
0.210,0.031,0.312,-5.337
0.195,0.032,0.314,-5.337
0.191,0.030,0.315,-5.337
0.193,0.032,0.311,-5.337
0.170,0.037,0.309,-5.337
0.123,0.043,0.315,-5.337
0.146,0.037,0.318,-5.337
0.189,0.034,0.318,-5.337
0.209,0.037,0.316,-5.337
0.177,0.039,0.315,-5.337
0.128,0.040,0.312,-5.337
0.149,0.041,0.312,-5.337
0.160,0.039,0.314,-5.337
0.162,0.045,0.313,-5.337
0.172,0.044,0.312,-5.337
0.200,0.043,0.315,-5.337
0.243,0.038,0.318,-5.337
0.250,0.038,0.313,-5.337
0.178,0.037,0.310,-5.337
0.193,0.037,0.311,-5.337
0.226,0.040,0.313,-5.337
0.163,0.042,0.312,-5.337
0.167,0.039,0.314,-5.337
0.239,0.037,0.315,-5.337
0.230,0.039,0.316,-5.337
0.175,0.038,0.313,-5.337
0.121,0.037,0.316,-5.337
0.153,0.038,0.317,-5.337
0.197,0.038,0.315,-5.337
0.140,0.039,0.314,-5.337
0.130,0.037,0.315,-5.337
0.129,0.036,0.314,-5.337
0.115,0.039,0.313,-5.337
0.132,0.040,0.311,-5.337
0.108,0.039,0.313,-5.337
0.105,0.038,0.314,-5.337
0.142,0.038,0.312,-5.337
0.192,0.037,0.311,-5.337
0.224,0.038,0.311,-5.337
0.250,0.040,0.311,-5.337
0.208,0.041,0.312,-5.337
0.235,0.039,0.316,-5.337
0.198,0.038,0.315,-5.337
0.103,0.040,0.316,-5.337
0.094,0.041,0.316,-5.337
0.061,0.046,0.316,-5.337
0.034,0.047,0.313,-5.337
0.069,0.046,0.312,-5.337
0.116,0.043,0.309,-5.337
0.138,0.039,0.313,-5.337
0.107,0.041,0.314,-5.337
0.139,0.043,0.320,-5.337
0.236,0.043,0.320,-5.337
0.264,0.042,0.314,-5.337
0.185,0.046,0.308,-5.337
0.148,0.047,0.307,-5.337
0.148,0.045,0.311,-5.337
0.178,0.043,0.313,-5.337
0.186,0.045,0.313,-5.337
0.192,0.042,0.313,-5.337
0.167,0.041,0.312,-5.337
0.148,0.046,0.311,-5.337
0.162,0.047,0.312,-5.337
0.202,0.044,0.314,-5.337
0.229,0.042,0.312,-5.337
0.234,0.043,0.309,-5.337
0.205,0.044,0.312,-5.337
0.166,0.042,0.314,-5.337
0.144,0.040,0.315,-5.337
0.155,0.038,0.315,-5.337
0.211,0.037,0.317,-5.337
0.219,0.035,0.315,-5.337
0.163,0.039,0.313,-5.337
0.129,0.042,0.313,-5.337
0.129,0.043,0.312,-5.337
0.132,0.039,0.316,-5.337
0.126,0.039,0.317,-5.337
0.116,0.042,0.315,-5.337
0.144,0.044,0.313,-5.337
0.216,0.044,0.313,-5.337
0.240,0.044,0.313,-5.337
0.217,0.043,0.312,-5.337
0.196,0.043,0.316,-5.337
0.220,0.044,0.316,-5.337
0.196,0.044,0.315,-5.337
0.141,0.049,0.312,-5.337
0.118,0.050,0.308,-5.337
0.123,0.051,0.308,-5.337
0.102,0.052,0.309,-5.337
0.158,0.046,0.312,-5.337
0.212,0.044,0.310,-5.337
0.174,0.046,0.313,-5.337
0.171,0.047,0.318,-5.337
0.168,0.048,0.321,-5.337
0.160,0.045,0.319,-5.337
0.261,0.042,0.314,-5.337
0.297,0.041,0.310,-5.337
0.195,0.045,0.308,-5.337
0.086,0.048,0.310,-5.337
0.102,0.048,0.315,-5.337
0.130,0.050,0.317,-5.337
0.195,0.051,0.317,-5.337
0.215,0.052,0.315,-5.337
0.138,0.054,0.313,-5.337
0.113,0.053,0.314,-5.337
0.087,0.055,0.317,-5.337
0.124,0.057,0.321,-5.337
0.226,0.053,0.320,-5.337
0.208,0.054,0.317,-5.337
0.175,0.051,0.312,-5.337
0.165,0.052,0.312,-5.337
0.154,0.051,0.312,-5.337
0.160,0.052,0.314,-5.337
0.173,0.050,0.316,-5.337
0.187,0.051,0.320,-5.337
0.167,0.051,0.319,-5.337
0.164,0.052,0.317,-5.337
0.203,0.049,0.315,-5.337
0.206,0.050,0.313,-5.337
0.170,0.049,0.310,-5.337
0.217,0.048,0.312,-5.337
0.252,0.044,0.315,-5.337
0.194,0.046,0.315,-5.337
0.105,0.052,0.311,-5.337
0.149,0.053,0.309,-5.337
0.225,0.050,0.308,-5.337
0.252,0.051,0.309,-5.337
0.209,0.050,0.313,-5.337
0.186,0.050,0.316,-5.337
0.232,0.045,0.316,-5.337
0.248,0.047,0.312,-5.337
0.182,0.049,0.314,-5.337
0.124,0.050,0.317,-5.337
0.066,0.052,0.317,-5.337
0.101,0.052,0.313,-5.337
0.161,0.050,0.314,-5.337
0.147,0.052,0.314,-5.337
0.082,0.057,0.313,-5.337
0.074,0.057,0.308,-5.337
0.148,0.052,0.309,-5.337
0.198,0.051,0.312,-5.337
0.201,0.053,0.316,-5.337
0.203,0.052,0.313,-5.337
0.180,0.051,0.311,-5.337
0.208,0.050,0.311,-5.337
0.248,0.050,0.313,-5.337
0.231,0.053,0.313,-5.337
0.229,0.052,0.309,-5.337
0.247,0.053,0.311,-5.337
0.217,0.055,0.313,-5.337
0.221,0.053,0.310,-5.337
0.196,0.051,0.305,-5.337
0.146,0.052,0.306,-5.337
0.124,0.053,0.309,-5.337
0.151,0.051,0.310,-5.337
0.189,0.050,0.308,-5.337
0.231,0.049,0.309,-5.337
0.209,0.049,0.312,-5.337
0.204,0.055,0.317,-5.337
0.188,0.053,0.317,-5.337
0.170,0.055,0.313,-5.337
0.165,0.054,0.312,-5.337
0.194,0.055,0.316,-5.337
0.183,0.056,0.316,-5.337
0.211,0.054,0.314,-5.337
0.251,0.052,0.308,-5.337
0.222,0.055,0.308,-5.337
0.156,0.056,0.309,-5.337
0.155,0.055,0.310,-5.337
0.169,0.051,0.312,-5.337
0.108,0.050,0.309,-5.337
0.139,0.052,0.307,-5.337
0.180,0.054,0.308,-5.337
0.161,0.057,0.312,-5.337
0.149,0.060,0.315,-5.337
0.137,0.060,0.312,-5.337
0.157,0.057,0.310,-5.337
0.228,0.053,0.306,-5.337
0.296,0.048,0.304,-5.337
0.263,0.051,0.308,-5.337
0.223,0.054,0.310,-5.337
0.257,0.053,0.311,-5.337
0.217,0.051,0.311,-5.337
0.201,0.049,0.307,-5.337
0.232,0.050,0.306,-5.337
0.280,0.051,0.309,-5.337
0.260,0.053,0.311,-5.337
0.229,0.055,0.314,-5.337
0.209,0.059,0.315,-5.337
0.077,0.061,0.314,-5.337
0.077,0.060,0.312,-5.337
0.176,0.062,0.309,-5.337
0.193,0.061,0.307,-5.337
0.184,0.062,0.305,-5.337
0.252,0.055,0.307,-5.337
0.300,0.053,0.311,-5.337
0.166,0.060,0.310,-5.337
0.107,0.060,0.311,-5.337
0.166,0.057,0.311,-5.337
0.252,0.057,0.310,-5.337
0.217,0.060,0.308,-5.337
0.166,0.060,0.309,-5.337
0.193,0.058,0.310,-5.337
0.214,0.055,0.310,-5.337
0.219,0.055,0.312,-5.337
0.206,0.058,0.308,-5.337
0.208,0.055,0.306,-5.337
0.195,0.058,0.309,-5.337
0.199,0.056,0.312,-5.337
0.270,0.051,0.309,-5.337
0.317,0.052,0.310,-5.337
0.280,0.056,0.310,-5.337
0.272,0.055,0.310,-5.337
0.265,0.057,0.308,-5.337
0.242,0.060,0.308,-5.337
0.257,0.059,0.305,-5.337
0.322,0.057,0.302,-5.337
0.370,0.056,0.303,-5.337
0.277,0.057,0.307,-5.337
0.160,0.054,0.311,-5.337
0.099,0.055,0.312,-5.337
0.167,0.054,0.309,-5.337
0.256,0.051,0.309,-5.337
0.244,0.050,0.309,-5.337
0.192,0.052,0.308,-5.337
0.206,0.052,0.306,-5.337
0.271,0.052,0.308,-5.337
0.245,0.053,0.314,-5.337
0.189,0.051,0.317,-5.337
0.199,0.049,0.317,-5.337
0.167,0.051,0.309,-5.337
0.111,0.052,0.305,-5.337
0.111,0.050,0.305,-5.337
0.190,0.054,0.308,-5.337
0.186,0.054,0.307,-5.337
0.201,0.053,0.306,-5.337
0.282,0.050,0.308,-5.337
0.268,0.054,0.313,-5.337
0.204,0.052,0.314,-5.337
0.183,0.052,0.315,-5.337
0.199,0.049,0.308,-5.337
0.262,0.050,0.301,-5.337
0.230,0.052,0.303,-5.337
0.180,0.055,0.309,-5.337
0.206,0.052,0.311,-5.337
0.196,0.054,0.309,-5.337
0.163,0.056,0.307,-5.337
0.157,0.055,0.309,-5.337
0.194,0.056,0.311,-5.337
0.212,0.058,0.312,-5.337
0.186,0.057,0.311,-5.337
0.146,0.057,0.310,-5.337
0.155,0.061,0.309,-5.337
0.202,0.058,0.308,-5.337
0.259,0.054,0.312,-5.337
0.266,0.051,0.315,-5.337
0.228,0.050,0.312,-5.337
0.245,0.049,0.308,-5.337
0.233,0.050,0.308,-5.337
0.205,0.049,0.311,-5.337
0.221,0.050,0.314,-5.337
0.186,0.051,0.312,-5.337
0.152,0.050,0.309,-5.337
0.212,0.048,0.306,-5.337
0.217,0.046,0.305,-5.337
0.251,0.043,0.305,-5.337
0.283,0.047,0.305,-5.337
0.284,0.048,0.306,-5.337
0.265,0.049,0.309,-5.337
0.282,0.046,0.313,-5.337
0.261,0.044,0.312,-5.337
0.205,0.044,0.312,-5.337
0.157,0.048,0.311,-5.337
0.210,0.047,0.310,-5.337
0.263,0.047,0.309,-5.337
0.154,0.049,0.310,-5.337
0.100,0.052,0.308,-5.337
0.093,0.053,0.307,-5.337
0.125,0.047,0.312,-5.337
0.163,0.046,0.316,-5.337
0.179,0.047,0.310,-5.337
0.203,0.045,0.308,-5.337
0.240,0.046,0.311,-5.337
0.234,0.046,0.314,-5.337
0.240,0.042,0.316,-5.337
0.236,0.048,0.312,-5.337
0.202,0.051,0.310,-5.337
0.149,0.049,0.311,-5.337
0.209,0.046,0.307,-5.337
0.227,0.044,0.306,-5.337
0.163,0.048,0.310,-5.337
0.145,0.047,0.312,-5.337
0.169,0.044,0.310,-5.337
0.223,0.040,0.307,-5.337
0.234,0.040,0.304,-5.337
0.269,0.042,0.306,-5.337
0.292,0.042,0.315,-5.337
0.245,0.043,0.316,-5.337
0.195,0.040,0.312,-5.337
0.169,0.042,0.309,-5.337
0.145,0.038,0.310,-5.337
0.231,0.037,0.310,-5.337
0.306,0.037,0.313,-5.337
0.231,0.039,0.311,-5.337
0.190,0.040,0.311,-5.337
0.240,0.039,0.311,-5.337
0.297,0.043,0.311,-5.337
0.231,0.043,0.306,-5.337
0.204,0.042,0.301,-5.337
0.224,0.040,0.302,-5.337
0.240,0.041,0.308,-5.337
0.221,0.041,0.311,-5.337
0.174,0.042,0.313,-5.337
0.162,0.044,0.312,-5.337
0.164,0.043,0.308,-5.337
0.227,0.039,0.307,-5.337
0.261,0.038,0.309,-5.337
0.208,0.042,0.312,-5.337
0.126,0.045,0.314,-5.337
0.173,0.046,0.314,-5.337
0.184,0.044,0.311,-5.337
0.164,0.039,0.313,-5.337
0.207,0.040,0.310,-5.337
0.190,0.045,0.311,-5.337
0.196,0.043,0.314,-5.337
0.233,0.041,0.315,-5.337
0.203,0.041,0.309,-5.337
0.162,0.043,0.309,-5.337
0.151,0.043,0.309,-5.337
0.221,0.040,0.307,-5.337
0.282,0.035,0.302,-5.337
0.212,0.036,0.305,-5.337
0.134,0.037,0.309,-5.337
0.057,0.042,0.311,-5.337
0.069,0.041,0.313,-5.337
0.168,0.036,0.313,-5.337
0.277,0.029,0.310,-5.337
0.232,0.034,0.310,-5.337
0.157,0.037,0.312,-5.337
0.167,0.037,0.311,-5.337
0.163,0.039,0.313,-5.337
0.190,0.039,0.312,-5.337
0.252,0.036,0.312,-5.337
0.229,0.039,0.310,-5.337
0.234,0.038,0.311,-5.337
0.226,0.035,0.311,-5.337
0.188,0.035,0.311,-5.337
0.190,0.034,0.308,-5.337
0.229,0.035,0.312,-5.337
0.223,0.033,0.311,-5.337
0.167,0.036,0.310,-5.337
0.184,0.036,0.307,-5.337
0.250,0.035,0.309,-5.337
0.264,0.033,0.311,-5.337
0.196,0.035,0.312,-5.337
0.134,0.035,0.312,-5.337
0.083,0.038,0.309,-5.337
0.091,0.037,0.309,-5.337
0.205,0.035,0.309,-5.337
0.224,0.038,0.305,-5.337
0.167,0.037,0.306,-5.337
0.131,0.038,0.311,-5.337
0.124,0.036,0.314,-5.337
0.152,0.036,0.313,-5.337
0.187,0.036,0.312,-5.337
0.194,0.036,0.310,-5.337
0.166,0.040,0.312,-5.337
0.162,0.040,0.315,-5.337
0.182,0.040,0.317,-5.337
0.162,0.037,0.316,-5.337
0.141,0.037,0.311,-5.337
0.173,0.038,0.307,-5.337
0.169,0.038,0.306,-5.337
0.139,0.035,0.309,-5.337
0.165,0.037,0.312,-5.337
0.129,0.040,0.316,-5.337
0.195,0.033,0.317,-5.337
0.194,0.032,0.316,-5.337
0.157,0.031,0.316,-5.337
0.193,0.034,0.312,-5.337
0.229,0.031,0.307,-5.337
0.239,0.033,0.305,-5.337
0.253,0.030,0.307,-5.337
0.277,0.029,0.314,-5.337
0.255,0.029,0.314,-5.337
0.243,0.027,0.310,-5.337
0.247,0.030,0.311,-5.337
0.220,0.032,0.314,-5.337
0.167,0.033,0.317,-5.337
0.116,0.031,0.316,-5.337
0.120,0.027,0.312,-5.337
0.179,0.030,0.309,-5.337
0.214,0.034,0.307,-5.337
0.222,0.035,0.306,-5.337
0.210,0.034,0.313,-5.337
0.166,0.035,0.313,-5.337
0.165,0.033,0.312,-5.337
0.147,0.032,0.312,-5.337
0.194,0.031,0.315,-5.337
0.228,0.030,0.313,-5.337
0.246,0.034,0.309,-5.337
0.276,0.033,0.308,-5.337
0.253,0.030,0.310,-5.337
0.199,0.031,0.309,-5.337
0.183,0.033,0.310,-5.337
0.225,0.032,0.308,-5.337
0.236,0.033,0.314,-5.337
0.193,0.034,0.316,-5.337
0.151,0.039,0.313,-5.337
0.179,0.035,0.310,-5.337
0.256,0.031,0.308,-5.337
0.219,0.031,0.308,-5.337
0.133,0.033,0.306,-5.337
0.136,0.032,0.305,-5.337
0.140,0.031,0.307,-5.337
0.176,0.030,0.311,-5.337
0.199,0.031,0.313,-5.337
0.145,0.032,0.312,-5.337
0.107,0.031,0.312,-5.337
0.122,0.032,0.313,-5.337
0.202,0.029,0.312,-5.337
0.244,0.030,0.313,-5.337
0.182,0.035,0.312,-5.337
0.111,0.037,0.313,-5.337
0.128,0.035,0.314,-5.337
0.171,0.035,0.314,-5.337
0.135,0.034,0.311,-5.337
0.237,0.030,0.306,-5.337
0.271,0.033,0.307,-5.337
0.265,0.033,0.311,-5.337
0.275,0.032,0.312,-5.337
0.241,0.034,0.310,-5.337
0.246,0.035,0.308,-5.337
0.261,0.034,0.308,-5.337
0.228,0.032,0.308,-5.337
0.103,0.038,0.305,-5.337
0.054,0.038,0.310,-5.337
0.144,0.032,0.316,-5.337
0.190,0.033,0.315,-5.337
0.216,0.032,0.310,-5.337
0.204,0.031,0.305,-5.337
0.158,0.034,0.303,-5.337
0.090,0.040,0.306,-5.337
0.066,0.039,0.310,-5.337
0.156,0.038,0.312,-5.337
0.217,0.034,0.309,-5.337
0.158,0.037,0.309,-5.337
0.106,0.037,0.309,-5.337
0.122,0.036,0.310,-5.337
0.218,0.033,0.313,-5.337
0.268,0.030,0.310,-5.337
0.233,0.029,0.304,-5.337
0.185,0.032,0.302,-5.337
0.173,0.031,0.305,-5.337
0.224,0.031,0.310,-5.337
0.246,0.032,0.314,-5.337
0.168,0.034,0.314,-5.337
0.135,0.032,0.311,-5.337
0.210,0.032,0.309,-5.337
0.218,0.032,0.308,-5.337
0.221,0.030,0.308,-5.337
0.187,0.035,0.309,-5.337
0.184,0.033,0.310,-5.337
0.219,0.034,0.311,-5.337
0.229,0.037,0.313,-5.337
0.155,0.039,0.316,-5.337
0.091,0.036,0.311,-5.337
0.143,0.034,0.309,-5.337
0.201,0.035,0.307,-5.337
0.222,0.032,0.309,-5.337
0.146,0.035,0.308,-5.337
0.094,0.035,0.305,-5.337
0.102,0.037,0.306,-5.337
0.106,0.038,0.311,-5.337
0.134,0.035,0.313,-5.337
0.140,0.037,0.308,-5.337
0.152,0.036,0.304,-5.337
0.149,0.034,0.304,-5.337
0.207,0.031,0.305,-5.337
0.227,0.034,0.308,-5.337
0.242,0.033,0.311,-5.337
0.209,0.040,0.311,-5.337
0.083,0.042,0.312,-5.337
0.128,0.039,0.312,-5.337
0.189,0.040,0.310,-5.337
0.128,0.040,0.306,-5.337
0.131,0.037,0.309,-5.337
0.157,0.033,0.312,-5.337
0.190,0.034,0.313,-5.337
0.217,0.038,0.311,-5.337
0.140,0.042,0.312,-5.337
0.127,0.044,0.312,-5.337
0.163,0.044,0.310,-5.337
0.183,0.042,0.309,-5.337
0.279,0.040,0.306,-5.337
0.290,0.040,0.306,-5.337
0.193,0.041,0.307,-5.337
0.100,0.042,0.309,-5.337
0.154,0.039,0.309,-5.337
0.186,0.038,0.308,-5.337
0.147,0.039,0.311,-5.337
0.170,0.038,0.311,-5.337
0.162,0.036,0.310,-5.337
0.061,0.040,0.311,-5.337
0.055,0.039,0.308,-5.337
0.132,0.036,0.305,-5.337
0.217,0.038,0.311,-5.337
0.238,0.043,0.315,-5.337
0.184,0.043,0.312,-5.337
0.197,0.042,0.309,-5.337
0.150,0.039,0.306,-5.337
0.096,0.036,0.306,-5.337
0.123,0.039,0.304,-5.337
0.138,0.041,0.302,-5.337
0.182,0.040,0.303,-5.337
0.233,0.042,0.311,-5.337
0.203,0.041,0.315,-5.337
0.206,0.042,0.314,-5.337
0.209,0.039,0.314,-5.337
0.211,0.041,0.315,-5.337
0.200,0.040,0.311,-5.337
0.213,0.041,0.306,-5.337
0.158,0.043,0.307,-5.337
0.083,0.043,0.310,-5.337
0.077,0.040,0.312,-5.337
0.130,0.036,0.316,-5.337
0.216,0.037,0.316,-5.337
0.215,0.042,0.312,-5.337
0.140,0.041,0.310,-5.337
0.120,0.039,0.313,-5.337
0.146,0.040,0.311,-5.337
0.155,0.040,0.308,-5.337
0.195,0.037,0.312,-5.337
0.232,0.038,0.312,-5.337
0.211,0.041,0.312,-5.337
0.194,0.041,0.314,-5.337
0.242,0.042,0.315,-5.337
0.235,0.040,0.310,-5.337
0.173,0.040,0.308,-5.337
0.142,0.041,0.310,-5.337
0.101,0.044,0.311,-5.337
0.138,0.040,0.306,-5.337
0.171,0.041,0.307,-5.337
0.151,0.046,0.311,-5.337
0.137,0.046,0.310,-5.337
0.159,0.043,0.310,-5.337
0.169,0.046,0.316,-5.337
0.196,0.044,0.317,-5.337
0.224,0.042,0.316,-5.337
0.178,0.045,0.310,-5.337
0.135,0.046,0.310,-5.337
0.162,0.043,0.311,-5.337
0.197,0.040,0.314,-5.337
0.180,0.037,0.315,-5.337
0.230,0.038,0.314,-5.337
0.280,0.040,0.314,-5.337
0.239,0.043,0.310,-5.337
0.150,0.048,0.309,-5.337
0.092,0.050,0.307,-5.337
0.089,0.050,0.307,-5.337
0.185,0.046,0.306,-5.337
0.206,0.046,0.309,-5.337
0.186,0.046,0.311,-5.337
0.203,0.047,0.311,-5.337
0.190,0.049,0.306,-5.337
0.127,0.053,0.304,-5.337
0.091,0.052,0.310,-5.337
0.108,0.050,0.315,-5.337
0.169,0.053,0.313,-5.337
0.213,0.051,0.313,-5.337
0.199,0.046,0.314,-5.337
0.153,0.047,0.313,-5.337
0.177,0.046,0.312,-5.337
0.150,0.046,0.311,-5.337
0.142,0.046,0.306,-5.337
0.174,0.045,0.308,-5.337
0.188,0.047,0.309,-5.337
0.142,0.050,0.311,-5.337
0.111,0.047,0.313,-5.337
0.160,0.045,0.314,-5.337
0.220,0.045,0.313,-5.337
0.203,0.044,0.310,-5.337
0.220,0.043,0.310,-5.337
0.215,0.043,0.308,-5.337
0.201,0.041,0.311,-5.337
0.213,0.043,0.315,-5.337
0.255,0.045,0.315,-5.337
0.268,0.046,0.315,-5.337
0.258,0.045,0.317,-5.337
0.242,0.045,0.316,-5.337
0.259,0.047,0.312,-5.337
0.280,0.046,0.310,-5.337
0.186,0.048,0.307,-5.337
0.104,0.047,0.306,-5.337
0.156,0.049,0.308,-5.337
0.212,0.048,0.311,-5.337
0.203,0.048,0.309,-5.337
0.160,0.051,0.308,-5.337
0.182,0.052,0.311,-5.337
0.179,0.054,0.312,-5.337
0.195,0.055,0.313,-5.337
0.207,0.054,0.313,-5.337
0.184,0.051,0.308,-5.337
0.185,0.052,0.308,-5.337
0.215,0.053,0.311,-5.337
0.197,0.054,0.316,-5.337
0.216,0.052,0.313,-5.337
0.221,0.056,0.312,-5.337
0.203,0.054,0.306,-5.337
0.167,0.052,0.305,-5.337
0.150,0.054,0.307,-5.337
0.139,0.056,0.309,-5.337
0.097,0.056,0.312,-5.337
0.133,0.052,0.313,-5.337
0.220,0.048,0.313,-5.337
0.233,0.046,0.314,-5.337
0.167,0.048,0.314,-5.337
0.134,0.050,0.314,-5.337
0.191,0.048,0.315,-5.337
0.195,0.050,0.312,-5.337
0.143,0.053,0.308,-5.337
0.121,0.054,0.309,-5.337
0.175,0.054,0.308,-5.337
0.209,0.054,0.306,-5.337
0.209,0.053,0.308,-5.337
0.131,0.056,0.308,-5.337
0.117,0.057,0.309,-5.337
0.206,0.052,0.314,-5.337
0.282,0.051,0.321,-5.337
0.253,0.052,0.318,-5.337
0.187,0.052,0.310,-5.337
0.182,0.052,0.311,-5.337
0.183,0.055,0.315,-5.337
0.202,0.057,0.316,-5.337
0.191,0.056,0.318,-5.337
0.191,0.053,0.316,-5.337
0.222,0.052,0.317,-5.337
0.243,0.051,0.316,-5.337
0.217,0.049,0.314,-5.337
0.165,0.051,0.313,-5.337
0.146,0.055,0.313,-5.337
0.214,0.057,0.311,-5.337
0.189,0.061,0.311,-5.337
0.157,0.057,0.314,-5.337
0.186,0.059,0.316,-5.337
0.191,0.061,0.315,-5.337
0.131,0.060,0.315,-5.337
0.140,0.062,0.314,-5.337
0.133,0.062,0.313,-5.337
0.105,0.057,0.314,-5.337
0.169,0.051,0.313,-5.337
0.251,0.056,0.310,-5.337
0.244,0.058,0.311,-5.337
0.232,0.057,0.315,-5.337
0.230,0.053,0.315,-5.337
0.233,0.052,0.317,-5.337
0.255,0.053,0.319,-5.337
0.192,0.055,0.314,-5.337
0.172,0.053,0.308,-5.337
0.225,0.053,0.309,-5.337
0.248,0.053,0.315,-5.337
0.211,0.054,0.319,-5.337
0.208,0.055,0.318,-5.337
0.197,0.056,0.315,-5.337
0.159,0.055,0.314,-5.337
0.134,0.058,0.311,-5.337
0.229,0.055,0.310,-5.337
0.224,0.060,0.312,-5.337
0.179,0.058,0.315,-5.337
0.229,0.055,0.313,-5.337
0.205,0.059,0.313,-5.337
0.166,0.060,0.313,-5.337
0.177,0.059,0.314,-5.337
0.205,0.056,0.313,-5.337
0.270,0.056,0.313,-5.337
0.291,0.057,0.313,-5.337
0.228,0.061,0.317,-5.337
0.164,0.061,0.319,-5.337
0.188,0.057,0.318,-5.337
0.190,0.054,0.316,-5.337
0.164,0.055,0.317,-5.337
0.114,0.059,0.316,-5.337
0.127,0.062,0.317,-5.337
0.167,0.061,0.317,-5.337
0.181,0.061,0.315,-5.337
0.149,0.061,0.311,-5.337
0.152,0.057,0.311,-5.337
0.206,0.055,0.312,-5.337
0.211,0.058,0.314,-5.337
0.217,0.062,0.315,-5.337
0.220,0.062,0.312,-5.337
0.265,0.060,0.311,-5.337
0.303,0.058,0.313,-5.337
0.288,0.058,0.314,-5.337
0.223,0.063,0.311,-5.337
0.177,0.063,0.311,-5.337
0.175,0.062,0.310,-5.337
0.210,0.063,0.312,-5.337
0.223,0.061,0.315,-5.337
0.244,0.058,0.317,-5.337
0.243,0.057,0.316,-5.337
0.192,0.059,0.316,-5.337
0.195,0.058,0.313,-5.337
0.174,0.058,0.314,-5.337
0.210,0.056,0.319,-5.337
0.287,0.056,0.315,-5.337
0.302,0.055,0.311,-5.337
0.190,0.060,0.311,-5.337
0.161,0.063,0.312,-5.337
0.232,0.062,0.312,-5.337
0.229,0.061,0.311,-5.337
0.169,0.062,0.310,-5.337
0.192,0.061,0.314,-5.337
0.180,0.059,0.316,-5.337
0.171,0.063,0.316,-5.337
0.204,0.066,0.313,-5.337
0.209,0.064,0.311,-5.337
0.233,0.064,0.313,-5.337
0.197,0.065,0.316,-5.337
0.187,0.064,0.316,-5.337
0.168,0.065,0.313,-5.337
0.167,0.062,0.312,-5.337
0.181,0.060,0.313,-5.337
0.232,0.058,0.312,-5.337
0.250,0.060,0.315,-5.337
0.161,0.060,0.315,-5.337
0.136,0.062,0.315,-5.337
0.155,0.063,0.313,-5.337
0.148,0.067,0.308,-5.337
0.105,0.064,0.308,-5.337
0.085,0.066,0.310,-5.337
0.090,0.065,0.309,-5.337
0.186,0.062,0.312,-5.337
0.217,0.061,0.314,-5.337
0.169,0.062,0.317,-5.337
0.172,0.059,0.315,-5.337
0.201,0.061,0.313,-5.337
0.242,0.059,0.310,-5.337
0.247,0.060,0.310,-5.337
0.249,0.061,0.314,-5.337
0.260,0.063,0.316,-5.337
0.221,0.063,0.316,-5.337
0.227,0.062,0.312,-5.337
0.238,0.058,0.311,-5.337
0.238,0.058,0.314,-5.337
0.210,0.060,0.316,-5.337
0.188,0.058,0.314,-5.337
0.194,0.058,0.315,-5.337
0.243,0.057,0.318,-5.337
0.202,0.058,0.317,-5.337
0.098,0.056,0.315,-5.337
0.161,0.054,0.314,-5.337
0.293,0.050,0.313,-5.337
0.262,0.052,0.308,-5.337
0.210,0.057,0.309,-5.337
0.250,0.058,0.315,-5.337
0.279,0.056,0.313,-5.337
0.196,0.055,0.308,-5.337
0.120,0.052,0.310,-5.337
0.133,0.051,0.317,-5.337
0.249,0.048,0.317,-5.337
0.264,0.050,0.313,-5.337
0.306,0.049,0.313,-5.337
0.327,0.048,0.312,-5.337
0.277,0.050,0.316,-5.337
0.239,0.048,0.316,-5.337
0.194,0.049,0.315,-5.337
0.170,0.046,0.313,-5.337
0.247,0.046,0.312,-5.337
0.259,0.049,0.309,-5.337
0.219,0.052,0.312,-5.337
0.193,0.050,0.315,-5.337
0.181,0.049,0.315,-5.337
0.180,0.047,0.313,-5.337
0.221,0.047,0.315,-5.337
0.252,0.046,0.315,-5.337
0.208,0.046,0.311,-5.337
0.205,0.045,0.306,-5.337
0.262,0.044,0.312,-5.337
0.343,0.038,0.319,-5.337
0.261,0.043,0.318,-5.337
0.201,0.045,0.315,-5.337
0.205,0.045,0.316,-5.337
0.260,0.043,0.316,-5.337
0.215,0.048,0.316,-5.337
0.163,0.048,0.319,-5.337
0.160,0.048,0.319,-5.337
0.219,0.044,0.318,-5.337
0.261,0.039,0.316,-5.337
0.253,0.043,0.316,-5.337
0.232,0.045,0.311,-5.337
0.184,0.045,0.310,-5.337
0.172,0.043,0.306,-5.337
0.199,0.040,0.305,-5.337
0.158,0.045,0.310,-5.337
0.183,0.048,0.317,-5.337
0.180,0.048,0.320,-5.337
0.180,0.046,0.318,-5.337
0.192,0.047,0.316,-5.337
0.204,0.049,0.317,-5.337
0.161,0.049,0.316,-5.337
0.196,0.048,0.315,-5.337
0.300,0.044,0.316,-5.337
0.303,0.043,0.312,-5.337
0.230,0.045,0.310,-5.337
0.170,0.043,0.314,-5.337
0.163,0.044,0.317,-5.337
0.178,0.044,0.317,-5.337
0.202,0.042,0.319,-5.337
0.173,0.041,0.317,-5.337
0.170,0.043,0.318,-5.337
0.242,0.040,0.316,-5.337
0.299,0.040,0.315,-5.337
0.266,0.040,0.316,-5.337
0.210,0.044,0.318,-5.337
0.184,0.045,0.315,-5.337
0.254,0.043,0.315,-5.337
0.213,0.039,0.312,-5.337
0.141,0.039,0.311,-5.337
0.205,0.039,0.310,-5.337
0.270,0.043,0.315,-5.337
0.272,0.044,0.321,-5.337
0.251,0.045,0.322,-5.337
0.237,0.042,0.320,-5.337
0.192,0.043,0.322,-5.337
0.133,0.044,0.319,-5.337
0.190,0.044,0.317,-5.337
0.230,0.042,0.313,-5.337
0.241,0.041,0.310,-5.337
0.221,0.043,0.309,-5.337
0.176,0.043,0.311,-5.337
0.200,0.040,0.314,-5.337
0.195,0.041,0.315,-5.337
0.145,0.045,0.319,-5.337
0.143,0.044,0.317,-5.337
0.129,0.042,0.312,-5.337
0.135,0.039,0.309,-5.337
0.194,0.037,0.310,-5.337
0.211,0.035,0.313,-5.337
0.220,0.036,0.317,-5.337
0.185,0.037,0.316,-5.337
0.133,0.040,0.313,-5.337
0.154,0.040,0.314,-5.337
0.214,0.039,0.317,-5.337
0.287,0.033,0.318,-5.337
0.237,0.036,0.315,-5.337
0.181,0.038,0.313,-5.337
0.216,0.035,0.313,-5.337
0.203,0.036,0.315,-5.337
0.177,0.040,0.317,-5.337
0.141,0.041,0.314,-5.337
0.153,0.037,0.312,-5.337
0.261,0.033,0.315,-5.337
0.269,0.037,0.317,-5.337
0.218,0.035,0.317,-5.337
0.216,0.034,0.319,-5.337
0.193,0.035,0.316,-5.337
0.243,0.033,0.310,-5.337
0.279,0.033,0.309,-5.337
0.236,0.036,0.312,-5.337
0.165,0.034,0.315,-5.337
0.136,0.037,0.314,-5.337
0.193,0.036,0.314,-5.337
0.192,0.034,0.313,-5.337
0.151,0.034,0.315,-5.337
0.170,0.033,0.315,-5.337
0.222,0.034,0.315,-5.337
0.241,0.033,0.313,-5.337
0.244,0.032,0.313,-5.337
0.207,0.032,0.317,-5.337
0.138,0.035,0.321,-5.337
0.182,0.033,0.315,-5.337
0.209,0.032,0.312,-5.337
0.270,0.030,0.314,-5.337
0.231,0.031,0.316,-5.337
0.211,0.035,0.316,-5.337
0.208,0.041,0.314,-5.337
0.215,0.041,0.309,-5.337
0.236,0.035,0.308,-5.337
0.195,0.034,0.311,-5.337
0.202,0.035,0.311,-5.337
0.148,0.036,0.312,-5.337
0.169,0.032,0.314,-5.337
0.268,0.027,0.314,-5.337
0.267,0.029,0.314,-5.337
0.216,0.031,0.314,-5.337
0.163,0.030,0.313,-5.337
0.133,0.032,0.313,-5.337
0.131,0.031,0.311,-5.337
0.117,0.033,0.310,-5.337
0.078,0.032,0.310,-5.337
0.112,0.030,0.311,-5.337
0.195,0.026,0.314,-5.337
0.219,0.032,0.317,-5.337
0.246,0.034,0.316,-5.337
0.257,0.033,0.313,-5.337
0.249,0.031,0.311,-5.337
0.226,0.030,0.310,-5.337
0.144,0.034,0.314,-5.337
0.057,0.035,0.318,-5.337
0.133,0.032,0.314,-5.337
0.215,0.034,0.312,-5.337
0.235,0.030,0.317,-5.337
0.245,0.029,0.318,-5.337
0.185,0.033,0.317,-5.337
0.147,0.036,0.315,-5.337
0.186,0.034,0.316,-5.337
0.185,0.033,0.317,-5.337
0.155,0.034,0.319,-5.337
0.175,0.036,0.318,-5.337
0.178,0.040,0.313,-5.337
0.203,0.037,0.308,-5.337
0.223,0.036,0.312,-5.337
0.193,0.035,0.315,-5.337
0.156,0.035,0.316,-5.337
0.180,0.030,0.318,-5.337
0.204,0.030,0.319,-5.337
0.148,0.029,0.317,-5.337
0.143,0.030,0.315,-5.337
0.155,0.027,0.314,-5.337
0.196,0.030,0.312,-5.337
0.260,0.033,0.313,-5.337
0.239,0.032,0.315,-5.337
0.205,0.030,0.315,-5.337
0.212,0.029,0.314,-5.337
0.175,0.030,0.315,-5.337
0.117,0.033,0.317,-5.337
0.143,0.034,0.316,-5.337
0.192,0.032,0.312,-5.337
0.183,0.034,0.313,-5.337
0.137,0.032,0.313,-5.337
0.171,0.033,0.313,-5.337
0.210,0.029,0.317,-5.337
0.241,0.028,0.321,-5.337
0.209,0.028,0.319,-5.337
0.208,0.026,0.319,-5.337
0.252,0.024,0.317,-5.337
0.244,0.027,0.315,-5.337
0.103,0.029,0.316,-5.337
0.116,0.034,0.318,-5.337
0.196,0.037,0.315,-5.337
0.230,0.035,0.313,-5.337
0.271,0.031,0.311,-5.337
0.270,0.032,0.310,-5.337
0.236,0.032,0.309,-5.337
0.261,0.033,0.313,-5.337
0.227,0.037,0.316,-5.337
0.147,0.038,0.310,-5.337
0.145,0.033,0.307,-5.337
0.176,0.035,0.311,-5.337
0.150,0.040,0.316,-5.337
0.128,0.034,0.316,-5.337
0.171,0.029,0.317,-5.337
0.212,0.034,0.315,-5.337
0.168,0.041,0.312,-5.337
0.129,0.039,0.311,-5.337
0.173,0.034,0.313,-5.337
0.216,0.032,0.313,-5.337
0.196,0.033,0.310,-5.337
0.247,0.030,0.310,-5.337
0.263,0.031,0.314,-5.337
0.183,0.031,0.314,-5.337
0.134,0.037,0.317,-5.337
0.225,0.032,0.318,-5.337
0.225,0.032,0.313,-5.337
0.238,0.032,0.310,-5.337
0.234,0.035,0.313,-5.337
0.175,0.037,0.314,-5.337
0.195,0.034,0.313,-5.337
0.234,0.032,0.312,-5.337
0.262,0.029,0.312,-5.337
0.207,0.030,0.311,-5.337
0.174,0.029,0.311,-5.337
0.146,0.032,0.313,-5.337
0.201,0.030,0.313,-5.337
0.192,0.034,0.314,-5.337
0.136,0.034,0.308,-5.337
0.131,0.032,0.304,-5.337
0.158,0.031,0.305,-5.337
0.189,0.030,0.312,-5.337
0.215,0.026,0.316,-5.337
0.280,0.026,0.318,-5.337
0.219,0.033,0.314,-5.337
0.146,0.035,0.314,-5.337
0.220,0.027,0.312,-5.337
0.248,0.028,0.313,-5.337
0.269,0.028,0.313,-5.337
0.240,0.028,0.315,-5.337
0.158,0.027,0.313,-5.337
0.145,0.029,0.308,-5.337
0.164,0.027,0.310,-5.337
0.235,0.029,0.315,-5.337
0.255,0.027,0.315,-5.337
0.250,0.026,0.315,-5.337
0.236,0.025,0.314,-5.337
0.238,0.029,0.314,-5.337
0.186,0.032,0.311,-5.337
0.178,0.032,0.314,-5.337
0.179,0.030,0.317,-5.337
0.119,0.036,0.316,-5.337
0.129,0.035,0.310,-5.337
0.192,0.033,0.305,-5.337
0.144,0.034,0.305,-5.337
0.197,0.034,0.308,-5.337
0.236,0.036,0.310,-5.337
0.185,0.037,0.309,-5.337
0.150,0.037,0.314,-5.337
0.202,0.035,0.319,-5.337
0.206,0.038,0.317,-5.337
0.129,0.036,0.312,-5.337
0.127,0.037,0.308,-5.337
0.128,0.037,0.307,-5.337
0.099,0.042,0.308,-5.337
0.088,0.044,0.314,-5.337
0.177,0.040,0.315,-5.337
0.196,0.036,0.315,-5.337
0.204,0.032,0.317,-5.337
0.169,0.033,0.320,-5.337
0.090,0.037,0.318,-5.337
0.105,0.035,0.318,-5.337
0.181,0.037,0.315,-5.337
0.262,0.030,0.313,-5.337
0.319,0.029,0.311,-5.337
0.234,0.037,0.313,-5.337
0.179,0.037,0.312,-5.337
0.208,0.037,0.315,-5.337
0.189,0.041,0.315,-5.337
0.141,0.043,0.313,-5.337
0.113,0.042,0.308,-5.337
0.157,0.039,0.309,-5.337
0.254,0.040,0.312,-5.337
0.248,0.045,0.312,-5.337
0.168,0.044,0.314,-5.337
0.121,0.047,0.314,-5.337
0.138,0.046,0.311,-5.337
0.189,0.045,0.309,-5.337
0.178,0.046,0.309,-5.337
0.236,0.043,0.310,-5.337
0.186,0.045,0.310,-5.337
0.128,0.050,0.314,-5.337
0.118,0.052,0.314,-5.337
0.079,0.050,0.312,-5.337
0.092,0.047,0.313,-5.337
0.197,0.045,0.313,-5.337
0.241,0.043,0.315,-5.337
0.233,0.045,0.315,-5.337
0.180,0.046,0.316,-5.337
0.151,0.047,0.313,-5.337
0.175,0.044,0.312,-5.337
0.251,0.040,0.315,-5.337
0.258,0.042,0.319,-5.337
0.162,0.043,0.319,-5.337
0.116,0.048,0.317,-5.337
0.150,0.046,0.317,-5.337
0.140,0.051,0.314,-5.337
0.083,0.053,0.310,-5.337
0.139,0.050,0.313,-5.337
0.179,0.046,0.315,-5.337
0.182,0.050,0.317,-5.337
0.123,0.048,0.313,-5.337
0.154,0.044,0.310,-5.337
0.184,0.045,0.307,-5.337
0.181,0.044,0.309,-5.337
0.185,0.045,0.312,-5.337
0.198,0.049,0.314,-5.337
0.171,0.050,0.316,-5.337
0.146,0.053,0.316,-5.337
0.111,0.050,0.316,-5.337
0.177,0.046,0.314,-5.337
0.309,0.043,0.317,-5.337
0.351,0.047,0.314,-5.337
0.273,0.046,0.316,-5.337
0.241,0.044,0.317,-5.337
0.188,0.048,0.318,-5.337
0.135,0.047,0.316,-5.337
0.147,0.045,0.314,-5.337
0.183,0.038,0.315,-5.337
0.191,0.042,0.317,-5.337
0.196,0.043,0.318,-5.337
0.241,0.043,0.319,-5.337
0.261,0.043,0.317,-5.337
0.204,0.048,0.313,-5.337
0.129,0.050,0.311,-5.337
0.193,0.051,0.315,-5.337
0.237,0.048,0.314,-5.337
0.236,0.047,0.312,-5.337
0.254,0.048,0.314,-5.337
0.256,0.047,0.317,-5.337
0.265,0.045,0.318,-5.337
0.248,0.047,0.316,-5.337
0.207,0.047,0.311,-5.337
0.221,0.045,0.309,-5.337
0.212,0.048,0.314,-5.337
0.170,0.050,0.314,-5.337
0.153,0.048,0.312,-5.337
0.163,0.050,0.312,-5.337
0.170,0.051,0.314,-5.337
0.131,0.053,0.316,-5.337
0.116,0.053,0.318,-5.337
0.162,0.051,0.318,-5.337
0.167,0.050,0.313,-5.337
0.156,0.049,0.309,-5.337
0.181,0.047,0.308,-5.337
0.214,0.047,0.311,-5.337
0.237,0.048,0.314,-5.337
0.222,0.051,0.317,-5.337
0.237,0.050,0.316,-5.337
0.276,0.050,0.314,-5.337
0.222,0.054,0.309,-5.337
0.162,0.053,0.308,-5.337
0.138,0.053,0.311,-5.337
0.172,0.050,0.312,-5.337
0.155,0.052,0.312,-5.337
0.149,0.051,0.313,-5.337
0.184,0.053,0.310,-5.337
0.121,0.058,0.310,-5.337
0.090,0.059,0.311,-5.337
0.181,0.052,0.311,-5.337
0.280,0.051,0.308,-5.337
0.215,0.054,0.308,-5.337
0.191,0.054,0.308,-5.337
0.180,0.054,0.312,-5.337
0.210,0.047,0.313,-5.337
0.277,0.049,0.312,-5.337
0.264,0.052,0.310,-5.337
0.216,0.057,0.309,-5.337
0.195,0.057,0.311,-5.337
0.182,0.061,0.313,-5.337
0.154,0.058,0.312,-5.337
0.142,0.056,0.314,-5.337
0.130,0.054,0.315,-5.337
0.124,0.057,0.314,-5.337
0.144,0.056,0.310,-5.337
0.240,0.052,0.309,-5.337
0.204,0.055,0.309,-5.337
0.131,0.057,0.310,-5.337
0.159,0.056,0.310,-5.337
0.201,0.057,0.310,-5.337
0.176,0.058,0.311,-5.337
0.154,0.058,0.313,-5.337
0.247,0.056,0.319,-5.337
0.280,0.051,0.317,-5.337
0.231,0.048,0.313,-5.337
0.189,0.050,0.309,-5.337
0.160,0.055,0.310,-5.337
0.126,0.061,0.310,-5.337
0.089,0.062,0.308,-5.337
0.151,0.054,0.306,-5.337
0.227,0.053,0.310,-5.337
0.242,0.054,0.313,-5.337
0.244,0.054,0.309,-5.337
0.215,0.057,0.307,-5.337
0.187,0.058,0.308,-5.337
0.091,0.061,0.309,-5.337
0.091,0.061,0.309,-5.337
0.155,0.060,0.312,-5.337
0.131,0.061,0.312,-5.337
0.109,0.061,0.313,-5.337
0.181,0.058,0.312,-5.337
0.210,0.055,0.313,-5.337
0.222,0.054,0.314,-5.337
0.236,0.057,0.319,-5.337
0.207,0.059,0.319,-5.337
0.212,0.059,0.313,-5.337
0.164,0.057,0.308,-5.337
0.168,0.055,0.310,-5.337
0.199,0.055,0.313,-5.337
0.211,0.053,0.312,-5.337
0.235,0.054,0.312,-5.337
0.276,0.055,0.313,-5.337
0.258,0.055,0.312,-5.337
0.194,0.057,0.312,-5.337
0.116,0.057,0.309,-5.337
0.103,0.056,0.306,-5.337
0.149,0.054,0.307,-5.337
0.204,0.054,0.308,-5.337
0.170,0.057,0.311,-5.337
0.115,0.060,0.312,-5.337
0.123,0.059,0.309,-5.337
0.159,0.061,0.309,-5.337
0.215,0.057,0.311,-5.337
0.242,0.056,0.308,-5.337
0.234,0.057,0.307,-5.337
0.262,0.058,0.310,-5.337
0.224,0.056,0.315,-5.337
0.156,0.056,0.314,-5.337
0.211,0.060,0.313,-5.337
0.274,0.061,0.310,-5.337
0.264,0.061,0.312,-5.337
0.254,0.058,0.314,-5.337
0.215,0.059,0.313,-5.337
0.205,0.060,0.310,-5.337
0.226,0.059,0.309,-5.337
0.210,0.059,0.309,-5.337
0.202,0.063,0.315,-5.337
0.187,0.060,0.316,-5.337
0.128,0.061,0.317,-5.337
0.101,0.055,0.316,-5.337
0.079,0.054,0.311,-5.337
0.079,0.056,0.305,-5.337
0.104,0.057,0.306,-5.337
0.161,0.056,0.307,-5.337
0.198,0.058,0.308,-5.337
0.195,0.061,0.312,-5.337
0.167,0.062,0.312,-5.337
0.145,0.061,0.315,-5.337
0.142,0.059,0.314,-5.337
0.121,0.060,0.314,-5.337
0.155,0.060,0.309,-5.337
0.214,0.058,0.303,-5.337
0.239,0.056,0.304,-5.337
0.260,0.058,0.310,-5.337
0.265,0.058,0.312,-5.337
0.259,0.057,0.313,-5.337
0.380,0.056,0.310,-5.337
0.384,0.056,0.309,-5.337
0.262,0.060,0.312,-5.337
0.179,0.061,0.312,-5.337
0.199,0.057,0.313,-5.337
0.240,0.055,0.311,-5.337
0.237,0.059,0.311,-5.337
0.190,0.060,0.312,-5.337
0.193,0.058,0.313,-5.337
0.233,0.056,0.309,-5.337
0.321,0.054,0.306,-5.337
0.296,0.057,0.304,-5.337
0.201,0.058,0.306,-5.337
0.217,0.053,0.310,-5.337
0.211,0.051,0.312,-5.337
0.192,0.050,0.312,-5.337
0.174,0.059,0.311,-5.337
0.157,0.064,0.307,-5.337
0.177,0.058,0.307,-5.337
0.171,0.056,0.307,-5.337
0.116,0.055,0.309,-5.337
0.157,0.055,0.304,-5.337
0.215,0.059,0.306,-5.337
0.195,0.057,0.311,-5.337
0.172,0.056,0.311,-5.337
0.183,0.055,0.307,-5.337
0.197,0.058,0.306,-5.337
0.228,0.058,0.310,-5.337
0.231,0.055,0.313,-5.337
0.249,0.053,0.316,-5.337
0.291,0.055,0.314,-5.337
0.203,0.056,0.312,-5.337
0.147,0.058,0.310,-5.337
0.201,0.061,0.308,-5.337
0.213,0.061,0.309,-5.337
0.188,0.058,0.309,-5.337
0.171,0.054,0.309,-5.337
0.169,0.054,0.311,-5.337
0.185,0.054,0.311,-5.337
0.186,0.050,0.310,-5.337
0.224,0.047,0.310,-5.337
0.222,0.047,0.310,-5.337
0.221,0.047,0.303,-5.337
0.256,0.053,0.305,-5.337
0.215,0.055,0.308,-5.337
0.219,0.053,0.309,-5.337
0.260,0.049,0.307,-5.337
0.272,0.049,0.307,-5.337
0.329,0.046,0.309,-5.337
0.349,0.047,0.309,-5.337
0.272,0.046,0.305,-5.337
0.235,0.044,0.305,-5.337
0.257,0.042,0.307,-5.337
0.241,0.044,0.310,-5.337
0.223,0.044,0.312,-5.337
0.296,0.042,0.309,-5.337
0.327,0.046,0.307,-5.337
0.280,0.048,0.309,-5.337
0.269,0.041,0.313,-5.337
0.262,0.042,0.313,-5.337
0.250,0.047,0.310,-5.337
0.215,0.052,0.308,-5.337
0.191,0.051,0.311,-5.337
0.185,0.052,0.311,-5.337
0.126,0.053,0.308,-5.337
0.124,0.053,0.307,-5.337
0.185,0.052,0.308,-5.337
0.248,0.049,0.308,-5.337
0.209,0.052,0.311,-5.337
0.126,0.053,0.310,-5.337
0.103,0.053,0.313,-5.337
0.166,0.052,0.316,-5.337
0.207,0.050,0.315,-5.337
0.190,0.048,0.311,-5.337
0.216,0.050,0.309,-5.337
0.209,0.049,0.309,-5.337
0.242,0.050,0.312,-5.337
0.211,0.048,0.308,-5.337
0.183,0.049,0.304,-5.337
0.262,0.046,0.304,-5.337
0.266,0.045,0.308,-5.337
0.219,0.046,0.308,-5.337
0.211,0.045,0.305,-5.337
0.223,0.044,0.303,-5.337
0.222,0.047,0.307,-5.337
0.249,0.043,0.314,-5.337
0.264,0.038,0.316,-5.337
0.257,0.040,0.316,-5.337
0.214,0.042,0.313,-5.337
0.207,0.042,0.310,-5.337
0.195,0.043,0.308,-5.337
0.171,0.042,0.309,-5.337
0.159,0.041,0.309,-5.337
0.232,0.038,0.312,-5.337
0.244,0.036,0.311,-5.337
0.157,0.041,0.312,-5.337
0.150,0.041,0.313,-5.337
0.259,0.041,0.312,-5.337
0.272,0.040,0.312,-5.337
0.236,0.039,0.311,-5.337
0.215,0.039,0.311,-5.337
0.243,0.038,0.314,-5.337
0.255,0.037,0.313,-5.337
0.204,0.037,0.309,-5.337
0.187,0.040,0.306,-5.337
0.208,0.042,0.305,-5.337
0.183,0.042,0.310,-5.337
0.142,0.041,0.315,-5.337
0.236,0.037,0.318,-5.337
0.334,0.034,0.316,-5.337
0.332,0.036,0.312,-5.337
0.219,0.039,0.307,-5.337
0.208,0.033,0.305,-5.337
0.231,0.030,0.305,-5.337
0.188,0.035,0.308,-5.337
0.149,0.038,0.311,-5.337
0.169,0.034,0.313,-5.337
0.149,0.035,0.313,-5.337
0.191,0.036,0.312,-5.337
0.197,0.039,0.310,-5.337
0.201,0.040,0.314,-5.337
0.221,0.040,0.318,-5.337
0.205,0.038,0.316,-5.337
0.192,0.034,0.312,-5.337
0.223,0.032,0.311,-5.337
0.189,0.037,0.311,-5.337
0.165,0.034,0.310,-5.337
0.205,0.033,0.310,-5.337
0.230,0.037,0.309,-5.337
0.159,0.036,0.310,-5.337
0.189,0.035,0.311,-5.337
0.206,0.036,0.312,-5.337
0.224,0.034,0.313,-5.337
0.251,0.031,0.312,-5.337
0.196,0.031,0.310,-5.337
0.173,0.033,0.314,-5.337
0.130,0.035,0.313,-5.337
0.196,0.033,0.312,-5.337
0.282,0.030,0.308,-5.337
0.245,0.032,0.309,-5.337
0.164,0.036,0.308,-5.337
0.133,0.033,0.308,-5.337
0.195,0.028,0.312,-5.337
0.257,0.028,0.317,-5.337
0.265,0.027,0.316,-5.337
0.304,0.031,0.311,-5.337
0.265,0.034,0.308,-5.337
0.187,0.032,0.309,-5.337
0.220,0.031,0.311,-5.337
0.209,0.037,0.314,-5.337
0.116,0.039,0.314,-5.337
0.103,0.037,0.309,-5.337
0.185,0.032,0.309,-5.337
0.247,0.029,0.313,-5.337
0.244,0.035,0.318,-5.337
0.212,0.040,0.316,-5.337
0.097,0.040,0.310,-5.337
0.106,0.037,0.309,-5.337
0.176,0.036,0.314,-5.337
0.142,0.033,0.319,-5.337
0.211,0.031,0.320,-5.337
0.358,0.033,0.314,-5.337
0.314,0.034,0.307,-5.337
0.217,0.036,0.305,-5.337
0.163,0.035,0.304,-5.337
0.208,0.031,0.306,-5.337
0.201,0.033,0.308,-5.337
0.167,0.036,0.308,-5.337
0.153,0.036,0.312,-5.337
0.180,0.032,0.315,-5.337
0.257,0.036,0.314,-5.337
0.272,0.037,0.311,-5.337
0.299,0.034,0.310,-5.337
0.247,0.036,0.307,-5.337
0.228,0.038,0.305,-5.337
0.227,0.035,0.308,-5.337
0.171,0.035,0.310,-5.337
0.128,0.035,0.313,-5.337
0.137,0.034,0.316,-5.337
0.141,0.033,0.316,-5.337
0.166,0.032,0.314,-5.337
0.137,0.031,0.310,-5.337
0.165,0.028,0.309,-5.337
0.219,0.026,0.308,-5.337
0.175,0.031,0.310,-5.337
0.178,0.031,0.312,-5.337
0.185,0.036,0.312,-5.337
0.167,0.037,0.313,-5.337
0.237,0.032,0.313,-5.337
0.287,0.029,0.312,-5.337
0.292,0.028,0.311,-5.337
0.223,0.029,0.309,-5.337
0.124,0.031,0.309,-5.337
0.141,0.032,0.309,-5.337
0.211,0.029,0.306,-5.337
0.222,0.033,0.306,-5.337
0.152,0.038,0.309,-5.337
0.142,0.034,0.309,-5.337
0.182,0.031,0.310,-5.337
0.190,0.031,0.311,-5.337
0.193,0.036,0.311,-5.337
0.200,0.038,0.313,-5.337
0.192,0.038,0.314,-5.337
0.196,0.035,0.312,-5.337
0.189,0.032,0.312,-5.337
0.191,0.032,0.313,-5.337
0.192,0.035,0.316,-5.337
0.215,0.035,0.313,-5.337
0.230,0.036,0.310,-5.337
0.247,0.035,0.305,-5.337
0.211,0.040,0.306,-5.337
0.169,0.040,0.309,-5.337
0.200,0.036,0.315,-5.337
0.218,0.031,0.318,-5.337
0.175,0.036,0.313,-5.337
0.110,0.036,0.310,-5.337
0.086,0.033,0.312,-5.337
0.126,0.033,0.311,-5.337
0.158,0.036,0.312,-5.337
0.222,0.032,0.314,-5.337
0.224,0.028,0.313,-5.337
0.247,0.029,0.308,-5.337
0.272,0.029,0.307,-5.337
0.232,0.030,0.309,-5.337
0.181,0.032,0.310,-5.337
0.154,0.030,0.311,-5.337
0.124,0.027,0.310,-5.337
0.176,0.025,0.312,-5.337
0.213,0.028,0.312,-5.337
0.174,0.031,0.314,-5.337
0.176,0.030,0.312,-5.337
0.228,0.030,0.310,-5.337
0.217,0.031,0.308,-5.337
0.164,0.030,0.308,-5.337
0.201,0.025,0.310,-5.337
0.259,0.027,0.313,-5.337
0.251,0.029,0.313,-5.337
0.223,0.031,0.313,-5.337
0.203,0.033,0.314,-5.337
0.136,0.036,0.313,-5.337
0.089,0.037,0.309,-5.337
0.126,0.037,0.306,-5.337
0.111,0.035,0.308,-5.337
0.188,0.031,0.313,-5.337
0.243,0.032,0.317,-5.337
0.188,0.034,0.318,-5.337
0.135,0.034,0.316,-5.337
0.113,0.033,0.314,-5.337
0.155,0.030,0.313,-5.337
0.241,0.030,0.310,-5.337
0.189,0.032,0.311,-5.337
0.114,0.032,0.311,-5.337
0.092,0.034,0.310,-5.337
0.105,0.034,0.308,-5.337
0.114,0.034,0.308,-5.337
0.170,0.031,0.308,-5.337
0.216,0.030,0.308,-5.337
0.249,0.034,0.307,-5.337
0.232,0.035,0.312,-5.337
0.172,0.031,0.313,-5.337
0.164,0.029,0.311,-5.337
0.205,0.029,0.310,-5.337
0.305,0.027,0.315,-5.337
0.291,0.030,0.315,-5.337
0.192,0.034,0.315,-5.337
0.188,0.035,0.317,-5.337
0.225,0.032,0.316,-5.337
0.252,0.027,0.314,-5.337
0.227,0.032,0.313,-5.337
0.183,0.034,0.311,-5.337
0.167,0.037,0.309,-5.337
0.162,0.039,0.305,-5.337
0.195,0.037,0.305,-5.337
0.151,0.038,0.310,-5.337
0.176,0.036,0.312,-5.337
0.201,0.035,0.312,-5.337
0.187,0.036,0.311,-5.337
0.111,0.041,0.312,-5.337
0.041,0.043,0.312,-5.337
0.125,0.042,0.311,-5.337
0.192,0.039,0.308,-5.337
0.196,0.037,0.305,-5.337
0.212,0.036,0.305,-5.337
0.175,0.034,0.307,-5.337
0.123,0.033,0.311,-5.337
0.112,0.035,0.313,-5.337
0.151,0.035,0.309,-5.337
0.192,0.035,0.308,-5.337
0.243,0.033,0.307,-5.337
0.285,0.030,0.307,-5.337
0.273,0.033,0.309,-5.337
0.255,0.036,0.307,-5.337
0.213,0.035,0.305,-5.337
0.171,0.037,0.303,-5.337
0.169,0.039,0.305,-5.337
0.216,0.037,0.310,-5.337
0.274,0.033,0.316,-5.337
0.263,0.031,0.314,-5.337
0.236,0.034,0.309,-5.337
0.143,0.037,0.307,-5.337
0.112,0.039,0.308,-5.337
0.151,0.039,0.310,-5.337
0.160,0.040,0.311,-5.337
0.106,0.042,0.308,-5.337
0.120,0.044,0.306,-5.337
0.165,0.043,0.304,-5.337
0.182,0.039,0.306,-5.337
0.161,0.035,0.309,-5.337
0.086,0.039,0.309,-5.337
0.082,0.038,0.309,-5.337
0.071,0.042,0.312,-5.337
0.132,0.040,0.312,-5.337
0.217,0.038,0.311,-5.337
0.216,0.040,0.308,-5.337
0.183,0.041,0.309,-5.337
0.204,0.039,0.308,-5.337
0.181,0.040,0.309,-5.337
0.135,0.040,0.310,-5.337
0.215,0.037,0.311,-5.337
0.180,0.041,0.311,-5.337
0.149,0.044,0.313,-5.337
0.190,0.044,0.312,-5.337
0.215,0.044,0.312,-5.337
0.117,0.045,0.312,-5.337
0.120,0.045,0.313,-5.337
0.106,0.048,0.310,-5.337
0.082,0.046,0.305,-5.337
0.097,0.045,0.307,-5.337
0.169,0.043,0.310,-5.337
0.184,0.044,0.314,-5.337
0.164,0.048,0.313,-5.337
0.152,0.049,0.309,-5.337
0.180,0.040,0.306,-5.337
0.168,0.040,0.308,-5.337
0.179,0.041,0.311,-5.337
0.245,0.044,0.312,-5.337
0.235,0.044,0.313,-5.337
0.161,0.043,0.312,-5.337
0.172,0.040,0.313,-5.337
0.208,0.037,0.311,-5.337
0.258,0.037,0.308,-5.337
0.284,0.037,0.308,-5.337
0.249,0.041,0.308,-5.337
0.177,0.045,0.305,-5.337
0.125,0.049,0.307,-5.337
0.084,0.049,0.311,-5.337
0.104,0.047,0.315,-5.337
0.118,0.048,0.314,-5.337
0.160,0.046,0.314,-5.337
0.165,0.042,0.311,-5.337
0.152,0.046,0.309,-5.337
0.200,0.046,0.308,-5.337
0.277,0.045,0.308,-5.337
0.211,0.047,0.309,-5.337
0.174,0.049,0.312,-5.337
0.189,0.046,0.311,-5.337
0.192,0.047,0.309,-5.337
0.180,0.044,0.308,-5.337
0.179,0.045,0.308,-5.337
0.151,0.048,0.310,-5.337
0.153,0.049,0.312,-5.337
0.166,0.050,0.314,-5.337
0.187,0.053,0.319,-5.337
0.236,0.050,0.319,-5.337
0.303,0.052,0.310,-5.337
0.323,0.053,0.309,-5.337
0.269,0.053,0.311,-5.337
0.188,0.051,0.312,-5.337
0.171,0.049,0.306,-5.337
0.196,0.048,0.306,-5.337
0.227,0.049,0.309,-5.337
0.229,0.055,0.314,-5.337
0.157,0.060,0.312,-5.337
0.135,0.057,0.309,-5.337
0.179,0.052,0.308,-5.337
0.142,0.055,0.308,-5.337
0.084,0.056,0.311,-5.337
0.152,0.049,0.316,-5.337
0.230,0.044,0.315,-5.337
0.201,0.047,0.312,-5.337
0.159,0.051,0.308,-5.337
0.131,0.050,0.310,-5.337
0.107,0.053,0.310,-5.337
0.161,0.052,0.309,-5.337
0.195,0.055,0.308,-5.337
0.193,0.055,0.310,-5.337
0.277,0.054,0.309,-5.337
0.289,0.052,0.309,-5.337
0.217,0.054,0.312,-5.337
0.142,0.055,0.316,-5.337
0.174,0.054,0.318,-5.337
0.200,0.051,0.314,-5.337
0.248,0.052,0.310,-5.337
0.272,0.056,0.303,-5.337
0.251,0.057,0.305,-5.337
0.213,0.054,0.312,-5.337
0.151,0.058,0.314,-5.337
0.178,0.054,0.312,-5.337
0.257,0.052,0.309,-5.337
0.223,0.050,0.310,-5.337
0.237,0.053,0.312,-5.337
0.236,0.052,0.309,-5.337
0.208,0.054,0.306,-5.337
0.174,0.054,0.311,-5.337
0.116,0.054,0.317,-5.337
0.135,0.053,0.317,-5.337
0.113,0.054,0.310,-5.337
0.116,0.057,0.306,-5.337
0.151,0.055,0.309,-5.337
0.174,0.052,0.314,-5.337
0.312,0.043,0.313,-5.337
0.309,0.045,0.313,-5.337
0.204,0.046,0.314,-5.337
0.206,0.047,0.315,-5.337
0.226,0.049,0.316,-5.337
0.203,0.055,0.312,-5.337
0.148,0.054,0.307,-5.337
0.181,0.052,0.309,-5.337
0.189,0.055,0.313,-5.337
0.123,0.057,0.314,-5.337
0.137,0.056,0.315,-5.337
0.151,0.052,0.314,-5.337
0.165,0.049,0.314,-5.337
0.207,0.053,0.316,-5.337
0.185,0.053,0.314,-5.337
0.186,0.054,0.311,-5.337
0.205,0.050,0.307,-5.337
0.238,0.051,0.308,-5.337
0.225,0.049,0.310,-5.337
0.250,0.050,0.313,-5.337
0.177,0.055,0.311,-5.337
0.151,0.054,0.309,-5.337
0.221,0.054,0.309,-5.337
0.238,0.055,0.310,-5.337
0.219,0.058,0.309,-5.337
0.204,0.060,0.308,-5.337
0.165,0.057,0.310,-5.337
0.201,0.054,0.311,-5.337
0.243,0.053,0.311,-5.337
0.188,0.056,0.310,-5.337
0.218,0.052,0.309,-5.337
0.268,0.052,0.308,-5.337
0.263,0.055,0.308,-5.337
0.250,0.057,0.311,-5.337
0.213,0.060,0.314,-5.337
0.182,0.060,0.312,-5.337
0.202,0.057,0.308,-5.337
0.207,0.055,0.308,-5.337
0.209,0.055,0.310,-5.337
0.261,0.056,0.310,-5.337
0.221,0.058,0.310,-5.337
0.207,0.056,0.312,-5.337
0.205,0.058,0.313,-5.337
0.171,0.060,0.312,-5.337
0.154,0.061,0.310,-5.337
0.117,0.060,0.308,-5.337
0.152,0.058,0.307,-5.337
0.233,0.058,0.306,-5.337
0.274,0.058,0.305,-5.337
0.231,0.058,0.309,-5.337
0.248,0.056,0.317,-5.337
0.245,0.054,0.316,-5.337
0.219,0.057,0.308,-5.337
0.216,0.060,0.303,-5.337
0.290,0.057,0.300,-5.337
0.347,0.058,0.307,-5.337
0.250,0.058,0.313,-5.337
0.180,0.060,0.312,-5.337
0.276,0.060,0.309,-5.337
0.297,0.060,0.314,-5.337
0.230,0.054,0.318,-5.337
0.203,0.058,0.317,-5.337
0.230,0.059,0.314,-5.337
0.243,0.058,0.314,-5.337
0.204,0.057,0.312,-5.337
0.176,0.058,0.311,-5.337
0.218,0.057,0.309,-5.337
0.210,0.056,0.309,-5.337
0.174,0.055,0.309,-5.337
0.174,0.056,0.310,-5.337
0.205,0.057,0.311,-5.337
0.228,0.058,0.310,-5.337
0.228,0.057,0.310,-5.337
0.235,0.056,0.307,-5.337
0.224,0.056,0.308,-5.337
0.181,0.054,0.310,-5.337
0.212,0.057,0.315,-5.337
0.235,0.058,0.315,-5.337
0.217,0.058,0.313,-5.337
0.202,0.057,0.310,-5.337
0.238,0.056,0.309,-5.337
0.264,0.054,0.308,-5.337
0.152,0.058,0.312,-5.337
0.213,0.054,0.314,-5.337
0.286,0.053,0.313,-5.337
0.261,0.054,0.311,-5.337
0.214,0.055,0.308,-5.337
0.200,0.054,0.306,-5.337
0.195,0.056,0.309,-5.337
0.131,0.056,0.309,-5.337
0.150,0.053,0.308,-5.337
0.244,0.052,0.311,-5.337
0.275,0.055,0.311,-5.337
0.242,0.053,0.312,-5.337
0.243,0.050,0.314,-5.337
0.300,0.048,0.315,-5.337
0.286,0.052,0.315,-5.337
0.207,0.054,0.314,-5.337
0.192,0.054,0.311,-5.337
0.197,0.056,0.312,-5.337
0.247,0.055,0.310,-5.337
0.183,0.058,0.312,-5.337
0.116,0.061,0.316,-5.337
0.143,0.060,0.316,-5.337
0.195,0.055,0.312,-5.337
0.164,0.054,0.312,-5.337
0.159,0.056,0.310,-5.337
0.193,0.055,0.308,-5.337
0.192,0.056,0.309,-5.337
0.173,0.057,0.310,-5.337
0.153,0.053,0.309,-5.337
0.155,0.053,0.310,-5.337
0.178,0.051,0.310,-5.337
0.266,0.050,0.312,-5.337
0.278,0.050,0.312,-5.337
0.253,0.054,0.313,-5.337
0.230,0.052,0.315,-5.337
0.175,0.053,0.315,-5.337
0.126,0.053,0.312,-5.337
0.206,0.048,0.308,-5.337
0.200,0.049,0.307,-5.337
0.187,0.050,0.306,-5.337
0.211,0.050,0.308,-5.337
0.200,0.051,0.313,-5.337
0.217,0.050,0.318,-5.337
0.197,0.048,0.312,-5.337
0.248,0.048,0.305,-5.337
0.312,0.048,0.304,-5.337
0.251,0.053,0.309,-5.337
0.176,0.054,0.311,-5.337
0.172,0.051,0.313,-5.337
0.254,0.049,0.313,-5.337
0.264,0.050,0.315,-5.337
0.197,0.053,0.317,-5.337
0.153,0.056,0.317,-5.337
0.178,0.053,0.315,-5.337
0.240,0.050,0.308,-5.337
0.328,0.050,0.305,-5.337
0.320,0.051,0.306,-5.337
0.290,0.050,0.309,-5.337
0.296,0.047,0.310,-5.337
0.271,0.048,0.311,-5.337
0.218,0.052,0.311,-5.337
0.288,0.051,0.311,-5.337
0.321,0.047,0.309,-5.337
0.297,0.047,0.311,-5.337
0.250,0.046,0.311,-5.337
0.266,0.042,0.316,-5.337
0.271,0.045,0.316,-5.337
0.214,0.048,0.311,-5.337
0.219,0.048,0.305,-5.337
0.226,0.051,0.306,-5.337
0.196,0.049,0.307,-5.337
0.162,0.048,0.314,-5.337
0.144,0.049,0.317,-5.337
0.119,0.049,0.315,-5.337
0.178,0.047,0.313,-5.337
0.171,0.050,0.309,-5.337
0.120,0.049,0.306,-5.337
0.179,0.046,0.311,-5.337
0.217,0.050,0.314,-5.337
0.189,0.054,0.313,-5.337
0.109,0.054,0.312,-5.337
0.094,0.052,0.311,-5.337
0.179,0.048,0.310,-5.337
0.270,0.048,0.312,-5.337
0.257,0.049,0.312,-5.337
0.271,0.049,0.307,-5.337
0.234,0.051,0.310,-5.337
0.195,0.050,0.309,-5.337
0.186,0.049,0.306,-5.337
0.142,0.047,0.306,-5.337
0.162,0.046,0.310,-5.337
0.298,0.044,0.311,-5.337
0.319,0.047,0.315,-5.337
0.215,0.045,0.315,-5.337
0.214,0.041,0.311,-5.337
0.272,0.042,0.306,-5.337
0.267,0.041,0.306,-5.337
0.259,0.041,0.309,-5.337
0.260,0.041,0.310,-5.337
0.249,0.044,0.307,-5.337
0.223,0.043,0.308,-5.337
0.291,0.040,0.316,-5.337
0.342,0.039,0.319,-5.337
0.316,0.037,0.314,-5.337
0.238,0.039,0.310,-5.337
0.214,0.041,0.312,-5.337
0.216,0.045,0.311,-5.337
0.163,0.043,0.313,-5.337
0.145,0.042,0.311,-5.337
0.182,0.042,0.312,-5.337
0.228,0.040,0.313,-5.337
0.195,0.042,0.312,-5.337
0.186,0.044,0.309,-5.337
0.150,0.046,0.310,-5.337
0.159,0.041,0.310,-5.337
0.182,0.041,0.309,-5.337
0.167,0.042,0.309,-5.337
0.231,0.040,0.314,-5.337
0.266,0.037,0.311,-5.337
0.222,0.039,0.308,-5.337
0.219,0.037,0.308,-5.337
0.193,0.041,0.307,-5.337
0.174,0.042,0.307,-5.337
0.180,0.042,0.310,-5.337
0.209,0.039,0.307,-5.337
0.224,0.039,0.306,-5.337
0.202,0.041,0.312,-5.337
0.164,0.042,0.319,-5.337
0.167,0.042,0.318,-5.337
0.153,0.045,0.312,-5.337
0.203,0.042,0.308,-5.337
0.187,0.038,0.312,-5.337
0.252,0.037,0.316,-5.337
0.301,0.040,0.315,-5.337
0.250,0.042,0.311,-5.337
0.248,0.042,0.308,-5.337
0.214,0.045,0.310,-5.337
0.227,0.043,0.312,-5.337
0.211,0.040,0.310,-5.337
0.211,0.036,0.306,-5.337
0.198,0.039,0.306,-5.337
0.196,0.040,0.310,-5.337
0.224,0.041,0.311,-5.337
0.243,0.040,0.310,-5.337
0.209,0.041,0.311,-5.337
0.204,0.041,0.311,-5.337
0.256,0.042,0.311,-5.337
0.237,0.043,0.314,-5.337
0.170,0.039,0.313,-5.337
0.158,0.040,0.313,-5.337
0.171,0.040,0.312,-5.337
0.157,0.039,0.312,-5.337
0.165,0.038,0.311,-5.337
0.199,0.039,0.311,-5.337
0.179,0.039,0.307,-5.337
0.174,0.042,0.307,-5.337
0.176,0.039,0.309,-5.337
0.220,0.034,0.313,-5.337
0.248,0.033,0.311,-5.337
0.154,0.040,0.311,-5.337
0.097,0.044,0.310,-5.337
0.150,0.044,0.312,-5.337
0.193,0.041,0.315,-5.337
0.199,0.042,0.319,-5.337
0.167,0.046,0.315,-5.337
0.102,0.045,0.311,-5.337
0.148,0.040,0.308,-5.337
0.249,0.039,0.307,-5.337
0.223,0.043,0.308,-5.337
0.102,0.042,0.312,-5.337
0.196,0.037,0.313,-5.337
0.300,0.037,0.311,-5.337
0.256,0.038,0.308,-5.337
0.253,0.038,0.311,-5.337
0.216,0.037,0.311,-5.337
0.190,0.038,0.310,-5.337
0.233,0.036,0.310,-5.337
0.247,0.037,0.311,-5.337
0.224,0.039,0.308,-5.337
0.216,0.039,0.307,-5.337
0.203,0.041,0.313,-5.337
0.116,0.045,0.319,-5.337
0.091,0.045,0.321,-5.337
0.131,0.043,0.317,-5.337
0.188,0.039,0.314,-5.337
0.285,0.035,0.313,-5.337
0.296,0.034,0.313,-5.337
0.265,0.032,0.314,-5.337
0.216,0.034,0.311,-5.337
0.231,0.035,0.309,-5.337
0.150,0.037,0.312,-5.337
0.097,0.033,0.316,-5.337
0.172,0.032,0.315,-5.337
0.227,0.033,0.314,-5.337
0.171,0.035,0.314,-5.337
0.100,0.034,0.314,-5.337
0.106,0.033,0.309,-5.337
0.172,0.034,0.307,-5.337
0.171,0.036,0.308,-5.337
0.195,0.038,0.311,-5.337
0.252,0.035,0.311,-5.337
0.237,0.034,0.312,-5.337
0.262,0.035,0.311,-5.337
0.236,0.038,0.312,-5.337
0.193,0.039,0.309,-5.337
0.195,0.037,0.309,-5.337
0.185,0.037,0.311,-5.337
0.165,0.038,0.312,-5.337
0.163,0.040,0.311,-5.337
0.226,0.042,0.313,-5.337
0.208,0.044,0.313,-5.337
0.145,0.045,0.309,-5.337
0.179,0.040,0.308,-5.337
0.210,0.036,0.306,-5.337
0.231,0.034,0.305,-5.337
0.257,0.036,0.308,-5.337
0.263,0.037,0.313,-5.337
0.204,0.036,0.316,-5.337
0.197,0.035,0.317,-5.337
0.226,0.030,0.315,-5.337
0.226,0.031,0.310,-5.337
0.230,0.033,0.308,-5.337
0.190,0.035,0.313,-5.337
0.194,0.036,0.318,-5.337
0.218,0.034,0.316,-5.337
0.198,0.033,0.308,-5.337
0.182,0.034,0.309,-5.337
0.213,0.033,0.309,-5.337
0.254,0.034,0.309,-5.337
0.198,0.035,0.309,-5.337
0.177,0.036,0.309,-5.337
0.183,0.032,0.310,-5.337
0.207,0.034,0.310,-5.337
0.248,0.035,0.309,-5.337
0.233,0.035,0.309,-5.337
0.166,0.033,0.310,-5.337
0.146,0.033,0.308,-5.337
0.209,0.030,0.306,-5.337
0.278,0.028,0.305,-5.337
0.217,0.029,0.304,-5.337
0.149,0.034,0.308,-5.337
0.123,0.039,0.312,-5.337
0.118,0.037,0.315,-5.337
0.190,0.038,0.315,-5.337
0.225,0.035,0.314,-5.337
0.208,0.033,0.318,-5.337
0.232,0.032,0.321,-5.337
0.204,0.034,0.320,-5.337
0.169,0.037,0.315,-5.337
0.176,0.036,0.311,-5.337
0.233,0.034,0.307,-5.337
0.267,0.033,0.307,-5.337
0.214,0.038,0.302,-5.337
0.127,0.045,0.301,-5.337
0.117,0.040,0.306,-5.337
0.098,0.039,0.313,-5.337
0.151,0.039,0.314,-5.337
0.250,0.037,0.311,-5.337
0.301,0.031,0.310,-5.337
0.248,0.034,0.307,-5.337
0.159,0.034,0.304,-5.337
0.182,0.033,0.305,-5.337
0.233,0.032,0.309,-5.337
0.159,0.034,0.314,-5.337
0.103,0.034,0.316,-5.337
0.178,0.032,0.315,-5.337
0.260,0.030,0.310,-5.337
0.249,0.031,0.308,-5.337
0.155,0.029,0.308,-5.337
0.171,0.027,0.310,-5.337
0.223,0.029,0.312,-5.337
0.225,0.034,0.312,-5.337
0.204,0.034,0.312,-5.337
0.195,0.031,0.310,-5.337
0.219,0.033,0.310,-5.337
0.184,0.035,0.308,-5.337
0.185,0.037,0.310,-5.337
0.230,0.035,0.312,-5.337
0.171,0.033,0.313,-5.337
0.143,0.034,0.312,-5.337
0.066,0.042,0.308,-5.337
0.111,0.035,0.307,-5.337
0.203,0.029,0.307,-5.337
0.192,0.031,0.306,-5.337
0.148,0.035,0.309,-5.337
0.194,0.034,0.309,-5.337
0.243,0.034,0.312,-5.337
0.232,0.035,0.315,-5.337
0.215,0.038,0.315,-5.337
0.216,0.036,0.311,-5.337
0.246,0.033,0.310,-5.337
0.266,0.031,0.308,-5.337
0.202,0.038,0.309,-5.337
0.171,0.036,0.310,-5.337
0.218,0.034,0.313,-5.337
0.208,0.034,0.316,-5.337
0.183,0.031,0.313,-5.337
0.180,0.032,0.308,-5.337
0.177,0.034,0.305,-5.337
0.229,0.035,0.309,-5.337
0.280,0.034,0.312,-5.337
0.248,0.035,0.316,-5.337
0.230,0.037,0.314,-5.337
0.239,0.038,0.311,-5.337
0.200,0.036,0.309,-5.337
0.119,0.042,0.311,-5.337
0.075,0.043,0.314,-5.337
0.123,0.040,0.312,-5.337
0.160,0.037,0.309,-5.337
0.219,0.039,0.309,-5.337
0.154,0.042,0.309,-5.337
0.120,0.041,0.308,-5.337
0.211,0.035,0.310,-5.337
0.290,0.034,0.313,-5.337
0.223,0.041,0.316,-5.337
0.194,0.040,0.315,-5.337
0.215,0.036,0.314,-5.337
0.265,0.034,0.312,-5.337
0.215,0.038,0.311,-5.337
0.167,0.039,0.307,-5.337
0.177,0.037,0.309,-5.337
0.219,0.037,0.313,-5.337
0.209,0.041,0.316,-5.337
0.216,0.039,0.315,-5.337
0.151,0.041,0.311,-5.337
0.073,0.043,0.307,-5.337
0.108,0.041,0.307,-5.337
0.200,0.038,0.309,-5.337
0.147,0.042,0.312,-5.337
0.078,0.044,0.313,-5.337
0.138,0.047,0.315,-5.337
0.148,0.041,0.312,-5.337
0.215,0.037,0.312,-5.337
0.227,0.041,0.312,-5.337
0.169,0.044,0.311,-5.337
0.149,0.046,0.310,-5.337
0.117,0.047,0.311,-5.337
0.085,0.047,0.312,-5.337
0.094,0.047,0.311,-5.337
0.192,0.043,0.311,-5.337
0.182,0.043,0.315,-5.337
0.145,0.046,0.313,-5.337
0.139,0.048,0.310,-5.337
0.155,0.048,0.310,-5.337
0.231,0.045,0.311,-5.337
0.277,0.045,0.313,-5.337
0.218,0.042,0.311,-5.337
0.191,0.042,0.309,-5.337
0.266,0.042,0.306,-5.337
0.280,0.044,0.308,-5.337
0.191,0.050,0.308,-5.337
0.110,0.051,0.309,-5.337
0.165,0.047,0.310,-5.337
0.166,0.049,0.311,-5.337
0.116,0.047,0.314,-5.337
0.134,0.046,0.314,-5.337
0.216,0.041,0.309,-5.337
0.154,0.046,0.310,-5.337
0.083,0.049,0.312,-5.337
0.056,0.053,0.310,-5.337
0.085,0.052,0.307,-5.337
0.185,0.045,0.308,-5.337
0.286,0.042,0.311,-5.337
0.270,0.044,0.312,-5.337
0.191,0.047,0.316,-5.337
0.219,0.048,0.313,-5.337
0.251,0.043,0.308,-5.337
0.221,0.047,0.310,-5.337
0.161,0.049,0.316,-5.337
0.149,0.045,0.312,-5.337
0.178,0.043,0.308,-5.337
0.173,0.047,0.308,-5.337
0.139,0.051,0.309,-5.337
0.118,0.052,0.307,-5.337
0.095,0.051,0.310,-5.337
0.053,0.051,0.311,-5.337
0.075,0.050,0.310,-5.337
0.104,0.051,0.311,-5.337
0.223,0.047,0.316,-5.337
0.235,0.046,0.312,-5.337
0.188,0.048,0.311,-5.337
0.204,0.047,0.311,-5.337
0.245,0.045,0.311,-5.337
0.236,0.047,0.310,-5.337
0.206,0.048,0.310,-5.337
0.200,0.050,0.309,-5.337
0.224,0.048,0.305,-5.337
0.228,0.046,0.307,-5.337
0.218,0.048,0.309,-5.337
0.211,0.048,0.310,-5.337
0.228,0.047,0.309,-5.337
0.207,0.050,0.313,-5.337
0.212,0.049,0.313,-5.337
0.148,0.052,0.312,-5.337
0.132,0.053,0.308,-5.337
0.146,0.056,0.309,-5.337
0.151,0.055,0.311,-5.337
0.139,0.054,0.313,-5.337
0.144,0.050,0.312,-5.337
0.135,0.055,0.311,-5.337
0.101,0.053,0.311,-5.337
0.133,0.051,0.312,-5.337
0.180,0.051,0.308,-5.337
0.201,0.049,0.308,-5.337
0.197,0.049,0.306,-5.337
0.141,0.049,0.304,-5.337
0.130,0.049,0.306,-5.337
0.140,0.053,0.314,-5.337
0.151,0.053,0.319,-5.337
0.179,0.048,0.312,-5.337
0.226,0.045,0.308,-5.337
0.254,0.045,0.303,-5.337
0.216,0.050,0.306,-5.337
0.184,0.049,0.310,-5.337
0.209,0.048,0.315,-5.337
0.188,0.049,0.310,-5.337
0.242,0.050,0.307,-5.337
0.284,0.049,0.310,-5.337
0.246,0.049,0.313,-5.337
0.218,0.046,0.312,-5.337
0.164,0.049,0.313,-5.337
0.130,0.051,0.313,-5.337
0.186,0.051,0.312,-5.337
0.210,0.050,0.312,-5.337
0.159,0.054,0.312,-5.337
0.106,0.057,0.310,-5.337
0.152,0.056,0.309,-5.337
0.181,0.053,0.308,-5.337
0.226,0.051,0.310,-5.337
0.226,0.053,0.311,-5.337
0.239,0.053,0.311,-5.337
0.284,0.052,0.310,-5.337
0.208,0.055,0.304,-5.337
0.132,0.053,0.305,-5.337
0.170,0.050,0.312,-5.337
0.243,0.049,0.321,-5.337
0.178,0.051,0.323,-5.337
0.182,0.052,0.319,-5.337
0.217,0.053,0.312,-5.337
0.206,0.056,0.307,-5.337
0.145,0.056,0.306,-5.337
0.196,0.054,0.307,-5.337
0.227,0.054,0.309,-5.337
0.243,0.054,0.309,-5.337
0.262,0.048,0.310,-5.337
0.223,0.049,0.312,-5.337
0.229,0.050,0.314,-5.337
0.277,0.051,0.315,-5.337
0.263,0.050,0.313,-5.337
0.250,0.053,0.313,-5.337
0.204,0.054,0.309,-5.337
0.174,0.053,0.306,-5.337
0.138,0.056,0.310,-5.337
0.123,0.057,0.316,-5.337
0.181,0.055,0.315,-5.337
0.243,0.053,0.315,-5.337
0.225,0.053,0.317,-5.337
0.143,0.055,0.314,-5.337
0.159,0.055,0.311,-5.337
0.173,0.056,0.309,-5.337
0.113,0.060,0.312,-5.337
0.127,0.060,0.309,-5.337
0.206,0.058,0.312,-5.337
0.189,0.062,0.313,-5.337
0.182,0.062,0.310,-5.337
0.177,0.060,0.308,-5.337
0.156,0.059,0.309,-5.337
0.191,0.058,0.308,-5.337
0.221,0.059,0.308,-5.337
0.216,0.059,0.307,-5.337
0.221,0.057,0.309,-5.337
0.189,0.059,0.313,-5.337
0.213,0.058,0.316,-5.337
0.265,0.058,0.317,-5.337
0.214,0.060,0.315,-5.337
0.175,0.060,0.310,-5.337
0.263,0.058,0.308,-5.337
0.326,0.061,0.311,-5.337
0.293,0.060,0.309,-5.337
0.213,0.060,0.310,-5.337
0.177,0.060,0.311,-5.337
0.269,0.058,0.312,-5.337
0.296,0.060,0.309,-5.337
0.213,0.059,0.310,-5.337
0.220,0.056,0.311,-5.337
0.233,0.054,0.310,-5.337
0.194,0.054,0.309,-5.337
0.181,0.056,0.309,-5.337
0.215,0.051,0.307,-5.337
0.268,0.049,0.307,-5.337
0.221,0.052,0.308,-5.337
0.159,0.056,0.311,-5.337
0.172,0.055,0.315,-5.337
0.199,0.056,0.316,-5.337
0.156,0.058,0.314,-5.337
0.124,0.059,0.311,-5.337
0.110,0.056,0.313,-5.337
0.156,0.055,0.313,-5.337
0.241,0.055,0.311,-5.337
0.242,0.057,0.309,-5.337
0.183,0.053,0.310,-5.337
0.157,0.055,0.307,-5.337
0.154,0.055,0.305,-5.337
0.218,0.050,0.302,-5.337
0.286,0.048,0.303,-5.337
0.254,0.054,0.306,-5.337
0.201,0.058,0.309,-5.337
0.201,0.052,0.309,-5.337
0.274,0.050,0.314,-5.337
0.228,0.054,0.317,-5.337
0.186,0.057,0.315,-5.337
0.190,0.054,0.312,-5.337
0.268,0.051,0.312,-5.337
0.285,0.052,0.313,-5.337
0.224,0.054,0.313,-5.337
0.195,0.053,0.311,-5.337
0.262,0.051,0.312,-5.337
0.251,0.050,0.313,-5.337
0.182,0.056,0.309,-5.337
0.150,0.052,0.308,-5.337
0.200,0.048,0.312,-5.337
0.240,0.044,0.314,-5.337
0.253,0.043,0.309,-5.337
0.252,0.044,0.307,-5.337
0.222,0.046,0.307,-5.337
0.213,0.050,0.307,-5.337
0.266,0.045,0.307,-5.337
0.254,0.046,0.310,-5.337
0.216,0.048,0.312,-5.337
0.183,0.053,0.315,-5.337
0.195,0.051,0.315,-5.337
0.202,0.050,0.311,-5.337
0.196,0.049,0.306,-5.337
0.242,0.045,0.306,-5.337
0.268,0.046,0.307,-5.337
0.242,0.048,0.312,-5.337
0.213,0.047,0.315,-5.337
0.178,0.050,0.315,-5.337
0.174,0.046,0.312,-5.337
0.247,0.041,0.312,-5.337
0.279,0.043,0.313,-5.337
0.257,0.047,0.312,-5.337
0.221,0.045,0.311,-5.337
0.236,0.041,0.310,-5.337
0.229,0.042,0.308,-5.337
0.203,0.045,0.311,-5.337
0.152,0.046,0.313,-5.337
0.141,0.047,0.309,-5.337
0.200,0.048,0.308,-5.337
0.242,0.047,0.310,-5.337
0.267,0.048,0.314,-5.337
0.292,0.048,0.314,-5.337
0.282,0.047,0.311,-5.337
0.277,0.049,0.307,-5.337
0.255,0.047,0.309,-5.337
0.267,0.046,0.315,-5.337
0.245,0.045,0.317,-5.337
0.199,0.044,0.316,-5.337
0.161,0.041,0.317,-5.337
0.213,0.038,0.317,-5.337
0.214,0.039,0.314,-5.337
0.172,0.043,0.309,-5.337
0.239,0.039,0.308,-5.337
0.289,0.039,0.305,-5.337
0.241,0.044,0.306,-5.337
0.223,0.046,0.306,-5.337
0.273,0.046,0.311,-5.337
0.224,0.045,0.316,-5.337
0.220,0.042,0.318,-5.337
0.240,0.038,0.316,-5.337
0.176,0.039,0.315,-5.337
0.202,0.043,0.313,-5.337
0.255,0.044,0.311,-5.337
0.220,0.045,0.309,-5.337
0.206,0.042,0.309,-5.337
0.261,0.043,0.314,-5.337
0.230,0.045,0.316,-5.337
0.258,0.042,0.316,-5.337
0.243,0.042,0.312,-5.337
0.157,0.043,0.309,-5.337
0.142,0.043,0.309,-5.337
0.215,0.045,0.310,-5.337
0.266,0.037,0.311,-5.337
0.289,0.036,0.314,-5.337
0.247,0.037,0.315,-5.337
0.216,0.040,0.314,-5.337
0.217,0.038,0.310,-5.337
0.194,0.037,0.312,-5.337
0.146,0.034,0.313,-5.337
0.139,0.034,0.316,-5.337
0.195,0.037,0.316,-5.337
0.190,0.037,0.314,-5.337
0.171,0.034,0.314,-5.337
0.189,0.037,0.311,-5.337
0.212,0.039,0.311,-5.337
0.179,0.038,0.312,-5.337
0.180,0.038,0.316,-5.337
0.160,0.039,0.315,-5.337
0.142,0.039,0.317,-5.337
0.184,0.038,0.317,-5.337
0.222,0.039,0.316,-5.337
0.222,0.041,0.311,-5.337
0.224,0.039,0.309,-5.337
0.283,0.033,0.310,-5.337
0.251,0.036,0.313,-5.337
0.194,0.040,0.313,-5.337
0.188,0.039,0.312,-5.337
0.216,0.036,0.315,-5.337
0.204,0.037,0.318,-5.337
0.263,0.035,0.316,-5.337
0.316,0.033,0.313,-5.337
0.263,0.033,0.312,-5.337
0.167,0.036,0.312,-5.337
0.179,0.039,0.309,-5.337
0.229,0.038,0.305,-5.337
0.209,0.038,0.307,-5.337
0.172,0.041,0.313,-5.337
0.213,0.039,0.312,-5.337
0.205,0.042,0.309,-5.337
0.134,0.043,0.310,-5.337
0.168,0.039,0.313,-5.337
0.247,0.034,0.315,-5.337
0.213,0.038,0.314,-5.337
0.188,0.040,0.314,-5.337
0.167,0.039,0.311,-5.337
0.171,0.041,0.315,-5.337
0.165,0.044,0.315,-5.337
0.132,0.046,0.314,-5.337
0.124,0.043,0.309,-5.337
0.208,0.039,0.306,-5.337
0.236,0.039,0.305,-5.337
0.210,0.042,0.311,-5.337
0.213,0.039,0.314,-5.337
0.206,0.039,0.316,-5.337
0.208,0.038,0.312,-5.337
0.236,0.039,0.311,-5.337
0.305,0.033,0.312,-5.337
0.274,0.034,0.313,-5.337
0.179,0.038,0.309,-5.337
0.194,0.039,0.310,-5.337
0.188,0.037,0.307,-5.337
0.113,0.038,0.305,-5.337
0.136,0.037,0.304,-5.337
0.177,0.037,0.309,-5.337
0.224,0.033,0.313,-5.337
0.203,0.035,0.315,-5.337
0.194,0.035,0.316,-5.337
0.186,0.036,0.312,-5.337
0.186,0.036,0.311,-5.337
0.273,0.030,0.310,-5.337
0.243,0.034,0.310,-5.337
0.237,0.037,0.314,-5.337
0.317,0.035,0.313,-5.337
0.295,0.030,0.311,-5.337
0.201,0.029,0.311,-5.337
0.182,0.029,0.313,-5.337
0.228,0.027,0.314,-5.337
0.191,0.029,0.313,-5.337
0.134,0.033,0.311,-5.337
0.072,0.035,0.309,-5.337
0.067,0.034,0.311,-5.337
0.140,0.034,0.313,-5.337
0.214,0.030,0.312,-5.337
0.255,0.026,0.313,-5.337
0.241,0.026,0.316,-5.337
0.209,0.025,0.316,-5.337
0.164,0.029,0.309,-5.337
0.155,0.028,0.306,-5.337
0.230,0.025,0.306,-5.337
0.244,0.024,0.311,-5.337
0.222,0.025,0.311,-5.337
0.199,0.028,0.311,-5.337
0.132,0.028,0.309,-5.337
0.185,0.027,0.311,-5.337
0.241,0.027,0.312,-5.337
0.317,0.024,0.314,-5.337
0.351,0.021,0.311,-5.337
0.297,0.023,0.310,-5.337
0.194,0.027,0.310,-5.337
0.167,0.027,0.309,-5.337
0.217,0.023,0.312,-5.337
0.241,0.025,0.313,-5.337
0.275,0.027,0.315,-5.337
0.280,0.028,0.316,-5.337
0.226,0.028,0.316,-5.337
0.180,0.027,0.314,-5.337
0.183,0.027,0.310,-5.337
0.207,0.025,0.308,-5.337
0.212,0.025,0.311,-5.337
0.195,0.027,0.312,-5.337
0.223,0.025,0.317,-5.337
0.272,0.023,0.318,-5.337
0.242,0.028,0.315,-5.337
0.142,0.029,0.311,-5.337
0.150,0.031,0.312,-5.337
0.230,0.028,0.311,-5.337
0.230,0.029,0.312,-5.337
0.119,0.031,0.311,-5.337
0.077,0.029,0.312,-5.337
0.219,0.025,0.311,-5.337
0.269,0.027,0.308,-5.337
0.191,0.029,0.307,-5.337
0.174,0.029,0.310,-5.337
0.204,0.028,0.309,-5.337
0.241,0.026,0.309,-5.337
0.241,0.022,0.311,-5.337
0.171,0.026,0.311,-5.337
0.140,0.028,0.312,-5.337
0.203,0.026,0.314,-5.337
0.270,0.022,0.314,-5.337
0.305,0.024,0.311,-5.337
0.286,0.028,0.313,-5.337
0.297,0.024,0.317,-5.337
0.286,0.023,0.317,-5.337
0.249,0.022,0.316,-5.337
0.159,0.023,0.314,-5.337
0.215,0.020,0.311,-5.337
0.223,0.025,0.311,-5.337
0.195,0.028,0.313,-5.337
0.186,0.027,0.315,-5.337
0.148,0.027,0.314,-5.337
0.127,0.026,0.312,-5.337
0.170,0.026,0.312,-5.337
0.208,0.024,0.313,-5.337
0.249,0.018,0.316,-5.337
0.258,0.019,0.317,-5.337
0.222,0.023,0.314,-5.337
0.190,0.027,0.308,-5.337
0.246,0.025,0.304,-5.337
0.226,0.023,0.307,-5.337
0.137,0.029,0.312,-5.337
0.123,0.030,0.312,-5.337
0.205,0.028,0.311,-5.337
0.188,0.029,0.312,-5.337
0.187,0.029,0.313,-5.337
0.228,0.030,0.314,-5.337
0.191,0.028,0.315,-5.337
0.180,0.028,0.316,-5.337
0.189,0.027,0.316,-5.337
0.188,0.026,0.310,-5.337
0.173,0.027,0.305,-5.337
0.156,0.026,0.304,-5.337
0.164,0.025,0.307,-5.337
0.164,0.028,0.310,-5.337
0.154,0.028,0.314,-5.337
0.220,0.025,0.316,-5.337
0.205,0.028,0.319,-5.337
0.160,0.029,0.320,-5.337
0.224,0.025,0.313,-5.337
0.200,0.024,0.306,-5.337
0.116,0.029,0.304,-5.337
0.120,0.028,0.306,-5.337
0.187,0.028,0.311,-5.337
0.210,0.027,0.313,-5.337
0.169,0.027,0.313,-5.337
0.167,0.030,0.312,-5.337
0.171,0.029,0.310,-5.337
0.207,0.025,0.305,-5.337
0.219,0.025,0.302,-5.337
0.210,0.025,0.304,-5.337
0.176,0.029,0.308,-5.337
0.144,0.029,0.313,-5.337
0.173,0.029,0.311,-5.337
0.229,0.026,0.311,-5.337
0.205,0.026,0.311,-5.337
0.212,0.022,0.312,-5.337
0.249,0.024,0.313,-5.337
0.210,0.027,0.313,-5.337
0.172,0.027,0.308,-5.337
0.177,0.032,0.305,-5.337
0.153,0.036,0.307,-5.337
0.192,0.034,0.311,-5.337
0.218,0.030,0.310,-5.337
0.150,0.033,0.307,-5.337
0.118,0.032,0.305,-5.337
0.186,0.029,0.308,-5.337
0.225,0.025,0.313,-5.337
0.162,0.026,0.318,-5.337
0.112,0.029,0.318,-5.337
0.127,0.026,0.316,-5.337
0.158,0.026,0.314,-5.337
0.155,0.026,0.312,-5.337
0.222,0.027,0.308,-5.337
0.258,0.030,0.306,-5.337
0.233,0.029,0.309,-5.337
0.201,0.029,0.308,-5.337
0.232,0.032,0.312,-5.337
0.222,0.034,0.311,-5.337
0.228,0.030,0.308,-5.337
0.268,0.026,0.307,-5.337
0.288,0.029,0.311,-5.337
0.251,0.035,0.311,-5.337
0.233,0.035,0.310,-5.337
0.226,0.035,0.311,-5.337
0.230,0.037,0.310,-5.337
0.209,0.039,0.307,-5.337
0.150,0.039,0.305,-5.337
0.118,0.043,0.307,-5.337
0.047,0.043,0.313,-5.337
0.113,0.039,0.313,-5.337
0.203,0.037,0.315,-5.337
0.206,0.037,0.314,-5.337
0.157,0.040,0.310,-5.337
0.116,0.041,0.307,-5.337
0.144,0.038,0.309,-5.337
0.144,0.040,0.312,-5.337
0.139,0.042,0.312,-5.337
0.148,0.039,0.314,-5.337
0.145,0.041,0.311,-5.337
0.158,0.039,0.312,-5.337
0.198,0.035,0.313,-5.337
0.155,0.038,0.312,-5.337
0.127,0.039,0.311,-5.337
0.089,0.043,0.314,-5.337
0.067,0.040,0.313,-5.337
0.184,0.040,0.311,-5.337
0.246,0.040,0.311,-5.337
0.184,0.040,0.311,-5.337
0.170,0.042,0.309,-5.337
0.190,0.043,0.308,-5.337
0.228,0.042,0.306,-5.337
0.176,0.045,0.306,-5.337
0.121,0.044,0.307,-5.337
0.183,0.046,0.311,-5.337
0.220,0.046,0.314,-5.337
0.199,0.046,0.315,-5.337
0.176,0.045,0.312,-5.337
0.205,0.045,0.311,-5.337
0.236,0.042,0.312,-5.337
0.234,0.043,0.311,-5.337
0.184,0.042,0.311,-5.337
0.165,0.043,0.312,-5.337
0.127,0.047,0.317,-5.337
0.164,0.046,0.316,-5.337
0.201,0.046,0.313,-5.337
0.217,0.046,0.310,-5.337
0.195,0.045,0.311,-5.337
0.217,0.043,0.312,-5.337
0.241,0.045,0.310,-5.337
0.250,0.046,0.305,-5.337
0.225,0.045,0.304,-5.337
0.164,0.046,0.310,-5.337
0.118,0.051,0.313,-5.337
0.111,0.052,0.312,-5.337
0.196,0.050,0.312,-5.337
0.260,0.045,0.311,-5.337
0.237,0.047,0.309,-5.337
0.169,0.048,0.303,-5.337
0.213,0.050,0.302,-5.337
0.228,0.048,0.308,-5.337
0.177,0.045,0.312,-5.337
0.163,0.042,0.312,-5.337
0.170,0.043,0.311,-5.337
0.184,0.042,0.315,-5.337
0.201,0.042,0.316,-5.337
0.164,0.044,0.311,-5.337
0.069,0.047,0.306,-5.337
0.120,0.048,0.306,-5.337
0.208,0.046,0.310,-5.337
0.229,0.044,0.314,-5.337
0.241,0.045,0.313,-5.337
0.281,0.043,0.311,-5.337
0.279,0.042,0.310,-5.337
0.241,0.045,0.311,-5.337
0.225,0.046,0.314,-5.337
0.220,0.047,0.316,-5.337
0.184,0.052,0.314,-5.337
0.138,0.052,0.311,-5.337
0.120,0.053,0.307,-5.337
0.142,0.055,0.308,-5.337
0.195,0.049,0.309,-5.337
0.199,0.049,0.310,-5.337
0.162,0.048,0.311,-5.337
0.222,0.048,0.311,-5.337
0.249,0.048,0.312,-5.337
0.196,0.048,0.310,-5.337
0.147,0.050,0.308,-5.337
0.170,0.049,0.306,-5.337
0.212,0.051,0.311,-5.337
0.252,0.049,0.310,-5.337
0.244,0.048,0.309,-5.337
0.209,0.050,0.308,-5.337
0.229,0.051,0.311,-5.337
0.232,0.049,0.310,-5.337
0.205,0.050,0.309,-5.337
0.205,0.046,0.307,-5.337
0.229,0.049,0.311,-5.337
0.186,0.051,0.312,-5.337
0.185,0.050,0.312,-5.337
0.208,0.047,0.311,-5.337
0.188,0.052,0.309,-5.337
0.180,0.051,0.311,-5.337
0.128,0.048,0.314,-5.337
0.105,0.052,0.310,-5.337
0.164,0.051,0.303,-5.337
0.203,0.052,0.303,-5.337
0.187,0.056,0.309,-5.337
0.173,0.055,0.310,-5.337
0.203,0.055,0.308,-5.337
0.205,0.055,0.307,-5.337
0.170,0.056,0.307,-5.337
0.204,0.053,0.311,-5.337
0.242,0.054,0.309,-5.337
0.205,0.057,0.309,-5.337
0.179,0.057,0.307,-5.337
0.157,0.056,0.304,-5.337
0.205,0.056,0.305,-5.337
0.255,0.053,0.312,-5.337
0.261,0.051,0.314,-5.337
0.236,0.055,0.316,-5.337
0.246,0.056,0.310,-5.337
0.202,0.056,0.307,-5.337
0.182,0.052,0.306,-5.337
0.186,0.051,0.308,-5.337
0.154,0.050,0.311,-5.337
0.098,0.054,0.313,-5.337
0.100,0.056,0.311,-5.337
0.142,0.056,0.307,-5.337
0.137,0.056,0.305,-5.337
0.146,0.058,0.305,-5.337
0.169,0.055,0.306,-5.337
0.179,0.053,0.309,-5.337
0.182,0.055,0.309,-5.337
0.208,0.056,0.311,-5.337
0.259,0.058,0.311,-5.337
0.265,0.057,0.307,-5.337
0.183,0.053,0.306,-5.337
0.127,0.054,0.311,-5.337
0.134,0.054,0.315,-5.337
0.214,0.053,0.311,-5.337
0.216,0.053,0.307,-5.337
0.201,0.051,0.302,-5.337
0.171,0.054,0.301,-5.337
0.158,0.057,0.304,-5.337
0.173,0.055,0.310,-5.337
0.188,0.052,0.314,-5.337
0.228,0.055,0.313,-5.337
0.234,0.059,0.312,-5.337
0.204,0.059,0.312,-5.337
0.247,0.054,0.308,-5.337
0.252,0.054,0.305,-5.337
0.189,0.058,0.307,-5.337
0.178,0.059,0.311,-5.337
0.217,0.056,0.311,-5.337
0.293,0.054,0.309,-5.337
0.246,0.060,0.310,-5.337
0.180,0.061,0.310,-5.337
0.200,0.059,0.311,-5.337
0.228,0.058,0.311,-5.337
0.239,0.059,0.313,-5.337
0.197,0.057,0.312,-5.337
0.182,0.059,0.311,-5.337
0.106,0.064,0.308,-5.337
0.149,0.060,0.308,-5.337
0.223,0.055,0.309,-5.337
0.251,0.055,0.310,-5.337
0.208,0.057,0.307,-5.337
0.177,0.057,0.303,-5.337
0.167,0.056,0.305,-5.337
0.218,0.053,0.309,-5.337
0.201,0.056,0.312,-5.337
0.183,0.060,0.314,-5.337
0.143,0.060,0.313,-5.337
0.169,0.058,0.314,-5.337
0.235,0.058,0.311,-5.337
0.268,0.057,0.310,-5.337
0.266,0.057,0.308,-5.337
0.184,0.058,0.307,-5.337
0.154,0.060,0.309,-5.337
0.181,0.063,0.309,-5.337
0.231,0.058,0.311,-5.337
0.235,0.054,0.312,-5.337
0.258,0.053,0.311,-5.337
0.279,0.052,0.309,-5.337
0.230,0.056,0.307,-5.337
0.229,0.058,0.308,-5.337
0.289,0.054,0.309,-5.337
0.318,0.052,0.315,-5.337
0.311,0.055,0.319,-5.337
0.282,0.057,0.320,-5.337
0.247,0.061,0.316,-5.337
0.253,0.061,0.315,-5.337
0.237,0.062,0.314,-5.337
0.171,0.060,0.314,-5.337
0.165,0.059,0.311,-5.337
0.161,0.061,0.308,-5.337
0.192,0.057,0.306,-5.337
0.273,0.056,0.306,-5.337
0.273,0.062,0.306,-5.337
0.175,0.065,0.305,-5.337
0.174,0.061,0.304,-5.337
0.180,0.059,0.305,-5.337
0.142,0.063,0.302,-5.337
0.099,0.067,0.305,-5.337
0.141,0.062,0.307,-5.337
0.152,0.059,0.309,-5.337
0.222,0.058,0.312,-5.337
0.231,0.060,0.314,-5.337
0.233,0.059,0.311,-5.337
0.205,0.060,0.311,-5.337
0.209,0.055,0.308,-5.337
0.238,0.054,0.309,-5.337
0.283,0.055,0.310,-5.337
0.281,0.052,0.308,-5.337
0.217,0.057,0.306,-5.337
0.177,0.061,0.310,-5.337
0.200,0.059,0.313,-5.337
0.228,0.060,0.312,-5.337
0.186,0.060,0.309,-5.337
0.139,0.062,0.310,-5.337
0.158,0.063,0.310,-5.337
0.247,0.062,0.306,-5.337
0.299,0.056,0.304,-5.337
0.277,0.059,0.306,-5.337
0.205,0.060,0.309,-5.337
0.191,0.059,0.308,-5.337
0.165,0.061,0.306,-5.337
0.185,0.059,0.309,-5.337
0.266,0.058,0.313,-5.337
0.261,0.057,0.311,-5.337
0.215,0.062,0.310,-5.337
0.218,0.060,0.307,-5.337
0.205,0.062,0.304,-5.337
0.235,0.057,0.302,-5.337
0.276,0.057,0.309,-5.337
0.290,0.057,0.313,-5.337
0.222,0.061,0.310,-5.337
0.137,0.063,0.308,-5.337
0.139,0.064,0.312,-5.337
0.232,0.063,0.311,-5.337
0.228,0.065,0.309,-5.337
0.197,0.059,0.309,-5.337
0.246,0.054,0.309,-5.337
0.240,0.054,0.312,-5.337
0.237,0.049,0.315,-5.337
0.263,0.052,0.312,-5.337
0.309,0.053,0.307,-5.337
0.310,0.056,0.311,-5.337
0.269,0.056,0.311,-5.337
0.303,0.054,0.307,-5.337
0.252,0.054,0.305,-5.337
0.160,0.057,0.306,-5.337
0.174,0.057,0.304,-5.337
0.204,0.055,0.306,-5.337
0.179,0.055,0.309,-5.337
0.132,0.053,0.313,-5.337
0.144,0.057,0.313,-5.337
0.153,0.056,0.311,-5.337
0.223,0.047,0.311,-5.337
0.214,0.050,0.313,-5.337
0.244,0.050,0.314,-5.337
0.288,0.050,0.311,-5.337
0.253,0.053,0.308,-5.337
0.254,0.048,0.306,-5.337
0.319,0.043,0.307,-5.337
0.343,0.045,0.311,-5.337
0.261,0.046,0.311,-5.337
0.200,0.047,0.307,-5.337
0.145,0.052,0.303,-5.337
0.105,0.050,0.304,-5.337
0.185,0.048,0.305,-5.337
0.242,0.050,0.308,-5.337
0.257,0.050,0.312,-5.337
0.231,0.049,0.311,-5.337
0.237,0.047,0.314,-5.337
0.185,0.051,0.313,-5.337
0.130,0.053,0.309,-5.337
0.182,0.051,0.305,-5.337
0.247,0.049,0.308,-5.337
0.320,0.045,0.311,-5.337
0.310,0.046,0.315,-5.337
0.259,0.047,0.314,-5.337
0.179,0.048,0.311,-5.337
0.183,0.045,0.310,-5.337
0.168,0.048,0.308,-5.337
0.117,0.051,0.309,-5.337
0.126,0.046,0.314,-5.337
0.201,0.044,0.314,-5.337
0.252,0.045,0.313,-5.337
0.239,0.045,0.310,-5.337
0.275,0.042,0.309,-5.337
0.290,0.042,0.309,-5.337
0.269,0.047,0.307,-5.337
0.225,0.047,0.310,-5.337
0.239,0.045,0.309,-5.337
0.209,0.044,0.309,-5.337
0.160,0.044,0.307,-5.337
0.207,0.044,0.309,-5.337
0.231,0.045,0.313,-5.337
0.285,0.044,0.317,-5.337
0.306,0.041,0.317,-5.337
0.243,0.040,0.316,-5.337
0.225,0.039,0.309,-5.337
0.191,0.046,0.306,-5.337
0.138,0.045,0.306,-5.337
0.157,0.043,0.309,-5.337
0.209,0.038,0.310,-5.337
0.234,0.036,0.313,-5.337
0.170,0.039,0.311,-5.337
0.226,0.038,0.313,-5.337
0.327,0.039,0.313,-5.337
0.207,0.040,0.309,-5.337
0.195,0.036,0.307,-5.337
0.237,0.035,0.309,-5.337
0.208,0.037,0.315,-5.337
0.216,0.040,0.315,-5.337
0.207,0.041,0.313,-5.337
0.154,0.042,0.311,-5.337
0.217,0.038,0.311,-5.337
0.259,0.038,0.307,-5.337
0.225,0.041,0.305,-5.337
0.151,0.043,0.303,-5.337
0.176,0.041,0.308,-5.337
0.190,0.041,0.312,-5.337
0.226,0.038,0.316,-5.337
0.242,0.040,0.315,-5.337
0.211,0.040,0.314,-5.337
0.206,0.038,0.312,-5.337
0.208,0.039,0.309,-5.337
0.205,0.038,0.308,-5.337
0.259,0.038,0.306,-5.337
0.330,0.034,0.309,-5.337
0.342,0.032,0.313,-5.337
0.256,0.035,0.319,-5.337
0.187,0.038,0.317,-5.337
0.182,0.038,0.313,-5.337
0.237,0.034,0.312,-5.337
0.300,0.035,0.311,-5.337
0.211,0.036,0.307,-5.337
0.132,0.037,0.304,-5.337
0.194,0.037,0.300,-5.337
0.222,0.036,0.302,-5.337
0.202,0.038,0.306,-5.337
0.230,0.040,0.311,-5.337
0.203,0.036,0.310,-5.337
0.142,0.034,0.313,-5.337
0.118,0.036,0.316,-5.337
0.165,0.032,0.315,-5.337
0.224,0.032,0.309,-5.337
0.229,0.034,0.307,-5.337
0.210,0.033,0.305,-5.337
0.228,0.033,0.308,-5.337
0.206,0.034,0.309,-5.337
0.218,0.035,0.315,-5.337
0.217,0.036,0.315,-5.337
0.225,0.036,0.313,-5.337
0.176,0.033,0.314,-5.337
0.135,0.038,0.312,-5.337
0.147,0.034,0.305,-5.337
0.186,0.032,0.303,-5.337
0.164,0.031,0.306,-5.337
0.193,0.032,0.308,-5.337
0.205,0.027,0.308,-5.337
0.189,0.026,0.310,-5.337
0.212,0.028,0.310,-5.337
0.194,0.028,0.311,-5.337
0.227,0.025,0.315,-5.337
0.272,0.026,0.311,-5.337
0.236,0.029,0.309,-5.337
0.216,0.031,0.310,-5.337
0.232,0.032,0.310,-5.337
0.244,0.029,0.307,-5.337
0.200,0.030,0.310,-5.337
0.172,0.034,0.315,-5.337
0.155,0.034,0.316,-5.337
0.154,0.030,0.312,-5.337
0.205,0.028,0.309,-5.337
0.184,0.027,0.305,-5.337
0.179,0.029,0.306,-5.337
0.208,0.031,0.311,-5.337
0.177,0.032,0.315,-5.337
0.217,0.028,0.315,-5.337
0.239,0.026,0.309,-5.337
0.180,0.028,0.300,-5.337
0.161,0.028,0.300,-5.337
0.144,0.031,0.306,-5.337
0.096,0.029,0.310,-5.337
0.193,0.027,0.313,-5.337
0.235,0.029,0.310,-5.337
0.207,0.032,0.307,-5.337
0.208,0.030,0.309,-5.337
0.204,0.030,0.313,-5.337
0.177,0.029,0.309,-5.337
0.170,0.031,0.308,-5.337
0.148,0.032,0.311,-5.337
0.113,0.035,0.313,-5.337
0.126,0.034,0.316,-5.337
0.126,0.037,0.318,-5.337
0.121,0.035,0.314,-5.337
0.204,0.030,0.308,-5.337
0.253,0.028,0.305,-5.337
0.203,0.029,0.305,-5.337
0.181,0.034,0.305,-5.337
0.225,0.036,0.307,-5.337
0.211,0.037,0.309,-5.337
0.168,0.036,0.309,-5.337
0.188,0.032,0.308,-5.337
0.278,0.032,0.307,-5.337
0.314,0.033,0.308,-5.337
0.264,0.035,0.305,-5.337
0.203,0.041,0.307,-5.337
0.187,0.041,0.311,-5.337
0.228,0.036,0.312,-5.337
0.208,0.037,0.310,-5.337
0.161,0.038,0.308,-5.337
0.174,0.034,0.305,-5.337
0.218,0.030,0.307,-5.337
0.206,0.029,0.307,-5.337
0.178,0.032,0.311,-5.337
0.129,0.036,0.311,-5.337
0.083,0.034,0.314,-5.337
0.187,0.026,0.314,-5.337
0.229,0.028,0.314,-5.337
0.158,0.032,0.311,-5.337
0.200,0.032,0.310,-5.337
0.207,0.032,0.309,-5.337
0.171,0.029,0.311,-5.337
0.175,0.027,0.313,-5.337
0.205,0.027,0.312,-5.337
0.189,0.031,0.310,-5.337
0.201,0.030,0.310,-5.337
0.240,0.027,0.309,-5.337
0.250,0.028,0.309,-5.337
0.204,0.034,0.312,-5.337
0.186,0.032,0.313,-5.337
0.176,0.030,0.314,-5.337
0.209,0.030,0.312,-5.337
0.197,0.029,0.310,-5.337
0.241,0.024,0.309,-5.337
0.267,0.024,0.312,-5.337
0.178,0.027,0.308,-5.337
0.103,0.030,0.308,-5.337
0.085,0.029,0.309,-5.337
0.155,0.026,0.314,-5.337
0.212,0.031,0.314,-5.337
0.210,0.034,0.311,-5.337
0.193,0.030,0.309,-5.337
0.186,0.030,0.313,-5.337
0.158,0.028,0.316,-5.337
0.169,0.028,0.312,-5.337
0.254,0.027,0.308,-5.337
0.242,0.032,0.306,-5.337
0.254,0.029,0.306,-5.337
0.202,0.026,0.308,-5.337
0.109,0.027,0.313,-5.337
0.039,0.031,0.315,-5.337
0.077,0.031,0.314,-5.337
0.216,0.031,0.312,-5.337
0.184,0.037,0.314,-5.337
0.154,0.037,0.311,-5.337
0.186,0.032,0.311,-5.337
0.222,0.031,0.312,-5.337
0.191,0.031,0.312,-5.337
0.199,0.031,0.310,-5.337
0.270,0.030,0.311,-5.337
0.292,0.034,0.311,-5.337
0.222,0.035,0.313,-5.337
0.181,0.032,0.312,-5.337
0.172,0.032,0.309,-5.337
0.228,0.030,0.307,-5.337
0.256,0.031,0.308,-5.337
0.199,0.030,0.308,-5.337
0.179,0.028,0.312,-5.337
0.199,0.026,0.314,-5.337
0.222,0.026,0.314,-5.337
0.212,0.029,0.311,-5.337
0.215,0.028,0.307,-5.337
0.195,0.029,0.306,-5.337
0.174,0.034,0.309,-5.337
0.135,0.036,0.311,-5.337
0.121,0.033,0.309,-5.337
0.105,0.032,0.310,-5.337
0.155,0.029,0.310,-5.337
0.239,0.026,0.313,-5.337
0.266,0.027,0.312,-5.337
0.184,0.030,0.310,-5.337
0.172,0.029,0.310,-5.337
0.228,0.025,0.315,-5.337
0.309,0.022,0.316,-5.337
0.302,0.025,0.318,-5.337
0.226,0.026,0.313,-5.337
0.217,0.029,0.308,-5.337
0.179,0.032,0.308,-5.337
0.115,0.033,0.308,-5.337
0.151,0.028,0.308,-5.337
0.225,0.027,0.307,-5.337
0.170,0.031,0.307,-5.337
0.165,0.031,0.310,-5.337
0.293,0.027,0.310,-5.337
0.341,0.027,0.310,-5.337
0.269,0.032,0.308,-5.337
0.202,0.034,0.308,-5.337
0.165,0.032,0.307,-5.337
0.207,0.032,0.306,-5.337
0.282,0.030,0.309,-5.337
0.275,0.032,0.313,-5.337
0.178,0.036,0.317,-5.337
0.162,0.037,0.314,-5.337
0.192,0.035,0.311,-5.337
0.216,0.033,0.306,-5.337
0.246,0.032,0.309,-5.337
0.265,0.034,0.312,-5.337
0.200,0.035,0.312,-5.337
0.161,0.035,0.310,-5.337
0.182,0.035,0.310,-5.337
0.127,0.037,0.311,-5.337
0.073,0.038,0.313,-5.337
0.092,0.034,0.310,-5.337
0.134,0.033,0.304,-5.337
0.112,0.035,0.304,-5.337
0.125,0.036,0.309,-5.337
0.147,0.034,0.309,-5.337
0.117,0.034,0.309,-5.337
0.154,0.032,0.313,-5.337
0.207,0.032,0.313,-5.337
0.227,0.033,0.310,-5.337
0.217,0.035,0.311,-5.337
0.178,0.034,0.316,-5.337
0.142,0.035,0.311,-5.337
0.204,0.034,0.305,-5.337
0.276,0.030,0.304,-5.337
0.237,0.033,0.308,-5.337
0.204,0.032,0.307,-5.337
0.176,0.037,0.310,-5.337
0.169,0.039,0.314,-5.337
0.210,0.038,0.313,-5.337
0.216,0.039,0.312,-5.337
0.263,0.041,0.313,-5.337
0.248,0.039,0.314,-5.337
0.205,0.037,0.311,-5.337
0.169,0.039,0.310,-5.337
0.176,0.037,0.311,-5.337
0.195,0.037,0.313,-5.337
0.208,0.042,0.311,-5.337
0.191,0.039,0.310,-5.337
0.217,0.038,0.314,-5.337
0.155,0.039,0.315,-5.337
0.165,0.040,0.310,-5.337
0.181,0.042,0.310,-5.337
0.223,0.040,0.309,-5.337
0.211,0.042,0.307,-5.337
0.108,0.044,0.306,-5.337
0.078,0.048,0.308,-5.337
0.097,0.049,0.308,-5.337
0.147,0.045,0.311,-5.337
0.176,0.043,0.311,-5.337
0.212,0.044,0.311,-5.337
0.203,0.043,0.310,-5.337
0.183,0.043,0.314,-5.337
0.149,0.044,0.312,-5.337
0.177,0.042,0.308,-5.337
0.177,0.045,0.304,-5.337
0.199,0.046,0.304,-5.337
0.195,0.044,0.307,-5.337
0.244,0.042,0.311,-5.337
0.275,0.046,0.312,-5.337
0.204,0.045,0.310,-5.337
0.160,0.044,0.309,-5.337
0.140,0.044,0.312,-5.337
0.138,0.043,0.316,-5.337
0.124,0.044,0.316,-5.337
0.189,0.042,0.312,-5.337
0.248,0.042,0.310,-5.337
0.266,0.041,0.310,-5.337
0.212,0.043,0.308,-5.337
0.209,0.041,0.310,-5.337
0.245,0.041,0.311,-5.337
0.232,0.043,0.314,-5.337
0.258,0.041,0.314,-5.337
0.232,0.043,0.310,-5.337
0.223,0.043,0.308,-5.337
0.186,0.044,0.308,-5.337
0.142,0.048,0.307,-5.337
0.085,0.049,0.305,-5.337
0.136,0.048,0.307,-5.337
0.180,0.051,0.311,-5.337
0.081,0.054,0.313,-5.337
0.107,0.052,0.315,-5.337
0.167,0.047,0.320,-5.337
0.149,0.043,0.321,-5.337
0.166,0.043,0.316,-5.337
0.143,0.045,0.308,-5.337
0.166,0.046,0.302,-5.337
0.180,0.047,0.302,-5.337
0.217,0.050,0.305,-5.337
0.233,0.049,0.309,-5.337
0.209,0.050,0.311,-5.337
0.145,0.050,0.310,-5.337
0.190,0.046,0.311,-5.337
0.173,0.054,0.314,-5.337
0.126,0.055,0.315,-5.337
0.114,0.051,0.312,-5.337
0.153,0.049,0.310,-5.337
0.225,0.049,0.308,-5.337
0.275,0.049,0.310,-5.337
0.260,0.049,0.309,-5.337
0.251,0.049,0.310,-5.337
0.235,0.049,0.313,-5.337
0.209,0.052,0.316,-5.337
0.139,0.050,0.311,-5.337
0.123,0.047,0.304,-5.337
0.199,0.042,0.300,-5.337
0.255,0.046,0.303,-5.337
0.270,0.048,0.310,-5.337
0.230,0.045,0.316,-5.337
0.198,0.041,0.316,-5.337
0.162,0.042,0.313,-5.337
0.123,0.047,0.310,-5.337
0.117,0.048,0.309,-5.337
0.140,0.048,0.312,-5.337
0.186,0.047,0.312,-5.337
0.157,0.045,0.312,-5.337
0.196,0.042,0.311,-5.337
0.190,0.046,0.311,-5.337
0.230,0.046,0.307,-5.337
0.208,0.048,0.308,-5.337
0.174,0.049,0.311,-5.337
0.175,0.052,0.314,-5.337
0.196,0.052,0.314,-5.337
0.220,0.053,0.314,-5.337
0.199,0.054,0.310,-5.337
0.159,0.053,0.312,-5.337
0.171,0.054,0.313,-5.337
0.216,0.053,0.309,-5.337
0.226,0.054,0.309,-5.337
0.192,0.059,0.312,-5.337
0.203,0.057,0.313,-5.337
0.199,0.056,0.312,-5.337
0.237,0.055,0.312,-5.337
0.227,0.057,0.308,-5.337
0.179,0.058,0.305,-5.337
0.172,0.056,0.310,-5.337
0.213,0.052,0.310,-5.337
0.235,0.052,0.311,-5.337
0.204,0.055,0.313,-5.337
0.156,0.057,0.313,-5.337
0.191,0.055,0.308,-5.337
0.295,0.053,0.302,-5.337
0.227,0.057,0.306,-5.337
0.147,0.059,0.313,-5.337
0.177,0.054,0.316,-5.337
0.232,0.051,0.315,-5.337
0.190,0.054,0.313,-5.337
0.178,0.056,0.308,-5.337
0.226,0.054,0.305,-5.337
0.294,0.053,0.306,-5.337
0.232,0.054,0.313,-5.337
0.123,0.058,0.314,-5.337
0.110,0.059,0.310,-5.337
0.124,0.056,0.310,-5.337
0.178,0.054,0.312,-5.337
0.217,0.052,0.308,-5.337
0.205,0.055,0.307,-5.337
0.201,0.055,0.306,-5.337
0.196,0.054,0.306,-5.337
0.207,0.050,0.307,-5.337
0.223,0.050,0.308,-5.337
0.238,0.051,0.308,-5.337
0.274,0.051,0.311,-5.337
0.210,0.055,0.315,-5.337
0.201,0.054,0.313,-5.337
0.253,0.051,0.311,-5.337
0.234,0.052,0.311,-5.337
0.174,0.054,0.313,-5.337
0.148,0.059,0.311,-5.337
0.222,0.057,0.311,-5.337
0.291,0.054,0.310,-5.337
0.280,0.054,0.309,-5.337
0.250,0.049,0.305,-5.337
0.227,0.052,0.303,-5.337
0.170,0.054,0.304,-5.337
0.169,0.055,0.305,-5.337
0.209,0.054,0.306,-5.337
0.208,0.057,0.308,-5.337
0.164,0.057,0.309,-5.337
0.213,0.054,0.312,-5.337
0.267,0.054,0.312,-5.337
0.226,0.053,0.309,-5.337
0.196,0.055,0.311,-5.337
0.171,0.058,0.311,-5.337
0.155,0.055,0.309,-5.337
0.207,0.051,0.309,-5.337
0.207,0.050,0.309,-5.337
0.229,0.056,0.305,-5.337
0.223,0.058,0.305,-5.337
0.198,0.057,0.305,-5.337
0.145,0.059,0.312,-5.337
0.184,0.059,0.313,-5.337
0.172,0.057,0.313,-5.337
0.229,0.054,0.311,-5.337
0.235,0.057,0.311,-5.337
0.171,0.058,0.312,-5.337
0.117,0.059,0.311,-5.337
0.106,0.057,0.306,-5.337
0.112,0.057,0.304,-5.337
0.189,0.055,0.307,-5.337
0.193,0.053,0.313,-5.337
0.187,0.054,0.313,-5.337
0.179,0.052,0.311,-5.337
0.242,0.050,0.309,-5.337
0.228,0.053,0.311,-5.337
0.211,0.055,0.310,-5.337
0.223,0.058,0.311,-5.337
0.228,0.055,0.314,-5.337
0.206,0.054,0.313,-5.337
0.184,0.055,0.314,-5.337
0.219,0.054,0.312,-5.337
0.218,0.052,0.306,-5.337
0.247,0.049,0.305,-5.337
0.288,0.048,0.311,-5.337
0.196,0.051,0.314,-5.337
0.153,0.052,0.315,-5.337
0.194,0.051,0.312,-5.337
0.253,0.051,0.308,-5.337
0.236,0.054,0.311,-5.337
0.127,0.057,0.318,-5.337
0.178,0.051,0.317,-5.337
0.222,0.047,0.307,-5.337
0.221,0.049,0.304,-5.337
0.193,0.050,0.307,-5.337
0.235,0.055,0.311,-5.337
0.230,0.058,0.311,-5.337
0.172,0.057,0.311,-5.337
0.200,0.055,0.311,-5.337
0.188,0.056,0.307,-5.337
0.239,0.054,0.304,-5.337
0.243,0.055,0.306,-5.337
0.191,0.054,0.309,-5.337
0.217,0.051,0.310,-5.337
0.279,0.049,0.308,-5.337
0.273,0.048,0.311,-5.337
0.251,0.050,0.312,-5.337
0.233,0.053,0.312,-5.337
0.225,0.053,0.310,-5.337
0.209,0.054,0.310,-5.337
0.187,0.050,0.312,-5.337
0.169,0.054,0.311,-5.337
0.209,0.055,0.312,-5.337
0.207,0.054,0.313,-5.337
0.209,0.053,0.311,-5.337
0.222,0.053,0.308,-5.337
0.202,0.048,0.307,-5.337
0.217,0.049,0.309,-5.337
0.186,0.053,0.311,-5.337
0.218,0.052,0.311,-5.337
0.246,0.049,0.307,-5.337
0.214,0.050,0.307,-5.337
0.199,0.049,0.310,-5.337
0.246,0.049,0.310,-5.337
0.224,0.049,0.307,-5.337
0.177,0.050,0.305,-5.337
0.165,0.049,0.310,-5.337
0.190,0.049,0.313,-5.337
0.198,0.050,0.315,-5.337
0.181,0.049,0.312,-5.337
0.173,0.048,0.309,-5.337
0.156,0.046,0.305,-5.337
0.170,0.043,0.306,-5.337
0.193,0.042,0.308,-5.337
0.205,0.045,0.308,-5.337
0.211,0.046,0.308,-5.337
0.268,0.045,0.311,-5.337
0.297,0.043,0.311,-5.337
0.265,0.042,0.311,-5.337
0.217,0.037,0.312,-5.337
0.180,0.039,0.310,-5.337
0.196,0.040,0.311,-5.337
0.230,0.042,0.311,-5.337
0.205,0.040,0.309,-5.337
0.190,0.040,0.310,-5.337
0.208,0.039,0.312,-5.337
0.192,0.036,0.310,-5.337
0.200,0.037,0.309,-5.337
0.241,0.036,0.310,-5.337
0.262,0.035,0.314,-5.337
0.252,0.037,0.315,-5.337
0.211,0.040,0.312,-5.337
0.164,0.041,0.310,-5.337
0.215,0.038,0.308,-5.337
0.230,0.038,0.304,-5.337
0.153,0.039,0.304,-5.337
0.202,0.038,0.306,-5.337
0.212,0.038,0.314,-5.337
0.241,0.034,0.318,-5.337
0.225,0.039,0.314,-5.337
0.212,0.040,0.306,-5.337
0.231,0.040,0.303,-5.337
0.231,0.036,0.305,-5.337
0.216,0.037,0.310,-5.337
0.129,0.039,0.310,-5.337
0.154,0.036,0.311,-5.337
0.300,0.031,0.314,-5.337
0.400,0.032,0.316,-5.337
0.326,0.036,0.310,-5.337
0.197,0.036,0.307,-5.337
0.253,0.030,0.308,-5.337
0.292,0.030,0.311,-5.337
0.273,0.032,0.313,-5.337
0.196,0.035,0.312,-5.337
0.158,0.035,0.312,-5.337
0.179,0.032,0.310,-5.337
0.163,0.033,0.312,-5.337
0.100,0.032,0.311,-5.337
0.103,0.033,0.313,-5.337
0.163,0.032,0.311,-5.337
0.177,0.036,0.312,-5.337
0.125,0.039,0.308,-5.337
0.136,0.039,0.307,-5.337
0.148,0.035,0.308,-5.337
0.169,0.036,0.309,-5.337
0.119,0.037,0.311,-5.337
0.113,0.037,0.314,-5.337
0.217,0.032,0.314,-5.337
0.257,0.033,0.314,-5.337
0.241,0.030,0.311,-5.337
0.313,0.029,0.309,-5.337
0.293,0.032,0.309,-5.337
0.221,0.042,0.310,-5.337
0.235,0.042,0.308,-5.337
0.227,0.042,0.308,-5.337
0.193,0.039,0.312,-5.337
0.165,0.039,0.314,-5.337
0.171,0.037,0.312,-5.337
0.199,0.040,0.310,-5.337
0.165,0.041,0.310,-5.337
0.172,0.040,0.313,-5.337
0.209,0.035,0.314,-5.337
0.285,0.035,0.312,-5.337
0.275,0.036,0.314,-5.337
0.203,0.038,0.308,-5.337
0.167,0.038,0.305,-5.337
0.182,0.038,0.303,-5.337
0.204,0.035,0.305,-5.337
0.272,0.028,0.309,-5.337
0.239,0.031,0.313,-5.337
0.214,0.033,0.310,-5.337
0.242,0.036,0.308,-5.337
0.205,0.035,0.308,-5.337
0.187,0.034,0.308,-5.337
0.191,0.033,0.307,-5.337
0.185,0.034,0.308,-5.337
0.209,0.035,0.308,-5.337
0.122,0.035,0.307,-5.337
0.202,0.034,0.308,-5.337
0.278,0.035,0.311,-5.337
0.280,0.035,0.311,-5.337
0.261,0.031,0.309,-5.337
0.256,0.031,0.306,-5.337
0.241,0.033,0.305,-5.337
0.249,0.037,0.308,-5.337
0.206,0.037,0.310,-5.337
0.210,0.036,0.309,-5.337
0.213,0.038,0.311,-5.337
0.157,0.038,0.307,-5.337
0.119,0.031,0.306,-5.337
0.169,0.031,0.311,-5.337
0.148,0.036,0.312,-5.337
0.143,0.035,0.311,-5.337
0.129,0.035,0.312,-5.337
0.077,0.034,0.312,-5.337
0.111,0.032,0.311,-5.337
0.251,0.031,0.309,-5.337
0.249,0.035,0.309,-5.337
0.231,0.033,0.309,-5.337
0.195,0.029,0.310,-5.337
0.198,0.032,0.310,-5.337
0.197,0.032,0.308,-5.337
0.237,0.033,0.306,-5.337
0.204,0.033,0.308,-5.337
0.200,0.034,0.308,-5.337
0.224,0.038,0.310,-5.337
0.189,0.038,0.310,-5.337
0.233,0.034,0.312,-5.337
0.266,0.033,0.314,-5.337
0.201,0.031,0.313,-5.337
0.230,0.027,0.307,-5.337
0.283,0.033,0.305,-5.337
0.252,0.037,0.306,-5.337
0.232,0.037,0.308,-5.337
0.250,0.031,0.309,-5.337
0.251,0.029,0.311,-5.337
0.205,0.030,0.313,-5.337
0.228,0.028,0.315,-5.337
0.240,0.027,0.312,-5.337
0.214,0.028,0.310,-5.337
0.186,0.027,0.308,-5.337
0.162,0.026,0.306,-5.337
0.126,0.026,0.307,-5.337
0.126,0.026,0.309,-5.337
0.182,0.026,0.313,-5.337
0.205,0.028,0.312,-5.337
0.218,0.025,0.310,-5.337
0.190,0.028,0.307,-5.337
0.156,0.031,0.309,-5.337
0.177,0.028,0.311,-5.337
0.145,0.028,0.315,-5.337
0.095,0.029,0.313,-5.337
0.131,0.029,0.310,-5.337
0.182,0.028,0.309,-5.337
0.182,0.028,0.312,-5.337
0.181,0.027,0.310,-5.337
0.190,0.031,0.309,-5.337
0.223,0.028,0.310,-5.337
0.168,0.030,0.311,-5.337
0.124,0.030,0.309,-5.337
0.167,0.033,0.308,-5.337
0.181,0.032,0.306,-5.337
0.215,0.030,0.306,-5.337
0.247,0.026,0.309,-5.337
0.211,0.028,0.312,-5.337
0.189,0.029,0.310,-5.337
0.234,0.034,0.308,-5.337
0.268,0.029,0.310,-5.337
0.256,0.029,0.312,-5.337
0.240,0.028,0.314,-5.337
0.227,0.029,0.312,-5.337
0.219,0.028,0.309,-5.337
0.121,0.031,0.307,-5.337
0.112,0.031,0.306,-5.337
0.147,0.030,0.305,-5.337
0.190,0.029,0.307,-5.337
0.224,0.029,0.309,-5.337
0.231,0.031,0.312,-5.337
0.167,0.034,0.310,-5.337
0.154,0.032,0.308,-5.337
0.166,0.031,0.304,-5.337
0.193,0.029,0.309,-5.337
0.212,0.026,0.310,-5.337
0.242,0.025,0.312,-5.337
0.226,0.027,0.313,-5.337
0.186,0.027,0.311,-5.337
0.215,0.026,0.307,-5.337
0.195,0.028,0.306,-5.337
0.108,0.029,0.306,-5.337
0.035,0.029,0.309,-5.337
0.058,0.027,0.313,-5.337
0.203,0.025,0.311,-5.337
0.241,0.028,0.305,-5.337
0.231,0.025,0.303,-5.337
0.208,0.024,0.304,-5.337
0.165,0.026,0.307,-5.337
0.172,0.027,0.311,-5.337
0.181,0.027,0.313,-5.337
0.153,0.028,0.316,-5.337
0.221,0.026,0.311,-5.337
0.247,0.031,0.307,-5.337
0.252,0.031,0.306,-5.337
0.218,0.032,0.310,-5.337
0.139,0.034,0.311,-5.337
0.113,0.037,0.312,-5.337
0.150,0.029,0.313,-5.337
0.197,0.027,0.315,-5.337
0.185,0.024,0.314,-5.337
0.139,0.029,0.311,-5.337
0.128,0.030,0.305,-5.337
0.085,0.029,0.303,-5.337
0.164,0.023,0.308,-5.337
0.209,0.022,0.310,-5.337
0.263,0.025,0.305,-5.337
0.239,0.028,0.306,-5.337
0.204,0.029,0.309,-5.337
0.169,0.028,0.308,-5.337
0.132,0.027,0.308,-5.337
0.170,0.026,0.310,-5.337
0.191,0.021,0.314,-5.337
0.197,0.022,0.314,-5.337
0.117,0.024,0.312,-5.337
0.068,0.026,0.310,-5.337
0.057,0.027,0.314,-5.337
0.081,0.025,0.315,-5.337
0.111,0.025,0.312,-5.337
0.134,0.025,0.309,-5.337
0.170,0.028,0.312,-5.337
0.142,0.028,0.314,-5.337
0.126,0.030,0.312,-5.337
0.142,0.031,0.309,-5.337
0.154,0.026,0.310,-5.337
0.170,0.025,0.307,-5.337
0.160,0.026,0.305,-5.337
0.179,0.030,0.307,-5.337
0.236,0.027,0.308,-5.337
0.254,0.026,0.312,-5.337
0.212,0.031,0.311,-5.337
0.151,0.029,0.313,-5.337
0.126,0.026,0.312,-5.337
0.169,0.025,0.309,-5.337
0.188,0.029,0.305,-5.337
0.182,0.030,0.307,-5.337
0.183,0.031,0.306,-5.337
0.215,0.031,0.310,-5.337
0.195,0.031,0.312,-5.337
0.117,0.036,0.313,-5.337
0.069,0.039,0.311,-5.337
0.092,0.037,0.311,-5.337
0.109,0.033,0.309,-5.337
0.156,0.031,0.306,-5.337
0.202,0.030,0.307,-5.337
0.194,0.035,0.312,-5.337
0.125,0.035,0.313,-5.337
0.062,0.032,0.311,-5.337
0.074,0.029,0.309,-5.337
0.116,0.032,0.308,-5.337
0.168,0.035,0.308,-5.337
0.150,0.034,0.307,-5.337
0.097,0.031,0.309,-5.337
0.087,0.032,0.311,-5.337
0.125,0.032,0.312,-5.337
0.170,0.036,0.308,-5.337
0.174,0.038,0.306,-5.337
0.195,0.032,0.304,-5.337
0.162,0.031,0.305,-5.337
0.095,0.034,0.307,-5.337
0.150,0.036,0.307,-5.337
0.250,0.032,0.306,-5.337
0.230,0.031,0.308,-5.337
0.202,0.028,0.309,-5.337
0.138,0.032,0.311,-5.337
0.105,0.035,0.313,-5.337
0.142,0.034,0.316,-5.337
0.128,0.035,0.313,-5.337
0.190,0.031,0.308,-5.337
0.250,0.029,0.305,-5.337
0.215,0.037,0.307,-5.337
0.166,0.036,0.306,-5.337
0.190,0.037,0.307,-5.337
0.166,0.037,0.310,-5.337
0.177,0.036,0.311,-5.337
0.183,0.038,0.307,-5.337
0.181,0.039,0.305,-5.337
0.117,0.039,0.307,-5.337
0.134,0.039,0.310,-5.337
0.198,0.036,0.313,-5.337
0.184,0.036,0.313,-5.337
0.122,0.037,0.312,-5.337
0.121,0.034,0.310,-5.337
0.096,0.036,0.310,-5.337
0.041,0.039,0.306,-5.337
0.052,0.040,0.305,-5.337
0.159,0.038,0.308,-5.337
0.192,0.035,0.310,-5.337
0.119,0.035,0.307,-5.337
0.121,0.040,0.309,-5.337
0.159,0.043,0.311,-5.337
0.187,0.042,0.311,-5.337
0.191,0.042,0.308,-5.337
0.153,0.043,0.307,-5.337
0.144,0.041,0.311,-5.337
0.214,0.038,0.314,-5.337
0.235,0.037,0.314,-5.337
0.198,0.038,0.314,-5.337
0.141,0.037,0.309,-5.337
0.159,0.040,0.303,-5.337
0.154,0.042,0.305,-5.337
0.182,0.040,0.308,-5.337
0.179,0.038,0.309,-5.337
0.187,0.037,0.309,-5.337
0.242,0.037,0.311,-5.337
0.218,0.041,0.311,-5.337
0.151,0.043,0.309,-5.337
0.094,0.043,0.308,-5.337
0.148,0.040,0.309,-5.337
0.226,0.041,0.307,-5.337
0.216,0.041,0.311,-5.337
0.134,0.040,0.311,-5.337
0.117,0.040,0.310,-5.337
0.132,0.042,0.311,-5.337
0.158,0.045,0.312,-5.337
0.184,0.042,0.314,-5.337
0.199,0.040,0.312,-5.337
0.220,0.035,0.306,-5.337
0.196,0.040,0.306,-5.337
0.165,0.044,0.308,-5.337
0.181,0.045,0.312,-5.337
0.204,0.044,0.310,-5.337
0.202,0.042,0.309,-5.337
0.199,0.040,0.310,-5.337
0.182,0.043,0.312,-5.337
0.192,0.045,0.314,-5.337
0.236,0.046,0.315,-5.337
0.233,0.046,0.314,-5.337
0.200,0.047,0.310,-5.337
0.154,0.048,0.308,-5.337
0.117,0.050,0.307,-5.337
0.109,0.050,0.309,-5.337
0.176,0.048,0.307,-5.337
0.223,0.049,0.307,-5.337
0.212,0.047,0.309,-5.337
0.185,0.048,0.311,-5.337
0.190,0.043,0.309,-5.337
0.287,0.044,0.305,-5.337
0.253,0.044,0.305,-5.337
0.193,0.044,0.308,-5.337
0.147,0.048,0.312,-5.337
0.145,0.051,0.312,-5.337
0.213,0.044,0.314,-5.337
0.294,0.043,0.314,-5.337
0.252,0.045,0.312,-5.337
0.175,0.048,0.307,-5.337
0.143,0.051,0.301,-5.337
0.178,0.051,0.303,-5.337
0.204,0.051,0.306,-5.337
0.197,0.051,0.307,-5.337
0.202,0.051,0.309,-5.337
0.182,0.054,0.311,-5.337
0.176,0.052,0.315,-5.337
0.204,0.049,0.312,-5.337
0.165,0.052,0.313,-5.337
0.118,0.052,0.311,-5.337
0.126,0.051,0.311,-5.337
0.164,0.047,0.306,-5.337
0.139,0.048,0.304,-5.337
0.160,0.047,0.303,-5.337
0.218,0.044,0.306,-5.337
0.251,0.045,0.311,-5.337
0.241,0.046,0.313,-5.337
0.232,0.044,0.309,-5.337
0.187,0.046,0.304,-5.337
0.198,0.048,0.305,-5.337
0.213,0.046,0.308,-5.337
0.176,0.050,0.311,-5.337
0.110,0.052,0.312,-5.337
0.108,0.049,0.313,-5.337
0.174,0.049,0.313,-5.337
0.150,0.051,0.314,-5.337
0.096,0.051,0.310,-5.337
0.113,0.054,0.306,-5.337
0.109,0.057,0.305,-5.337
0.042,0.056,0.305,-5.337
0.083,0.053,0.308,-5.337
0.190,0.050,0.311,-5.337
0.189,0.051,0.309,-5.337
0.119,0.050,0.310,-5.337
0.157,0.049,0.310,-5.337
0.264,0.049,0.311,-5.337
0.280,0.052,0.308,-5.337
0.233,0.055,0.309,-5.337
0.224,0.053,0.309,-5.337
0.265,0.052,0.310,-5.337
0.277,0.048,0.311,-5.337
0.289,0.051,0.310,-5.337
0.273,0.053,0.309,-5.337
0.213,0.052,0.312,-5.337
0.224,0.054,0.314,-5.337
0.279,0.053,0.314,-5.337
0.286,0.051,0.311,-5.337
0.202,0.054,0.308,-5.337
0.154,0.057,0.306,-5.337
0.143,0.056,0.305,-5.337
0.147,0.059,0.307,-5.337
0.143,0.061,0.312,-5.337
0.123,0.059,0.317,-5.337
0.182,0.058,0.316,-5.337
0.190,0.058,0.311,-5.337
0.141,0.064,0.307,-5.337
0.125,0.063,0.306,-5.337
0.153,0.055,0.305,-5.337
0.234,0.055,0.313,-5.337
0.252,0.060,0.317,-5.337
0.229,0.061,0.315,-5.337
0.240,0.058,0.308,-5.337
0.199,0.058,0.308,-5.337
0.230,0.055,0.311,-5.337
0.218,0.060,0.311,-5.337
0.094,0.061,0.308,-5.337
0.055,0.060,0.307,-5.337
0.108,0.058,0.307,-5.337
0.205,0.055,0.309,-5.337
0.222,0.057,0.308,-5.337
0.165,0.057,0.310,-5.337
0.225,0.051,0.311,-5.337
0.248,0.055,0.310,-5.337
0.125,0.060,0.307,-5.337
0.113,0.060,0.307,-5.337
0.157,0.059,0.309,-5.337
0.179,0.060,0.310,-5.337
0.249,0.060,0.311,-5.337
0.222,0.059,0.311,-5.337
0.216,0.057,0.314,-5.337
0.176,0.057,0.314,-5.337
0.160,0.058,0.311,-5.337
0.193,0.058,0.305,-5.337
0.216,0.061,0.303,-5.337
0.197,0.063,0.307,-5.337
0.182,0.065,0.310,-5.337
0.203,0.062,0.311,-5.337
0.195,0.061,0.310,-5.337
0.241,0.059,0.309,-5.337
0.250,0.062,0.311,-5.337
0.219,0.062,0.310,-5.337
0.126,0.063,0.311,-5.337
0.079,0.064,0.311,-5.337
0.108,0.067,0.309,-5.337
0.151,0.065,0.311,-5.337
0.182,0.061,0.310,-5.337
0.266,0.056,0.309,-5.337
0.242,0.057,0.304,-5.337
0.164,0.061,0.302,-5.337
0.148,0.062,0.306,-5.337
0.197,0.060,0.315,-5.337
0.243,0.057,0.314,-5.337
0.223,0.057,0.308,-5.337
0.181,0.057,0.303,-5.337
0.187,0.060,0.307,-5.337
0.146,0.059,0.309,-5.337
0.194,0.058,0.308,-5.337
0.247,0.058,0.309,-5.337
0.214,0.060,0.309,-5.337
0.198,0.059,0.309,-5.337
0.194,0.057,0.308,-5.337
0.242,0.056,0.305,-5.337
0.247,0.059,0.305,-5.337
0.225,0.060,0.306,-5.337
0.198,0.062,0.307,-5.337
0.174,0.060,0.310,-5.337
0.219,0.056,0.316,-5.337
0.249,0.056,0.314,-5.337
0.270,0.056,0.304,-5.337
0.212,0.058,0.300,-5.337
0.194,0.061,0.304,-5.337
0.204,0.058,0.309,-5.337
0.224,0.056,0.310,-5.337
0.192,0.058,0.310,-5.337
0.161,0.057,0.307,-5.337
0.155,0.058,0.310,-5.337
0.156,0.055,0.311,-5.337
0.129,0.056,0.314,-5.337
0.157,0.053,0.315,-5.337
0.225,0.052,0.316,-5.337
0.289,0.051,0.316,-5.337
0.292,0.052,0.314,-5.337
0.237,0.053,0.307,-5.337
0.165,0.055,0.304,-5.337
0.192,0.050,0.308,-5.337
0.247,0.050,0.314,-5.337
0.230,0.054,0.312,-5.337
0.181,0.054,0.306,-5.337
0.202,0.048,0.306,-5.337
0.251,0.051,0.307,-5.337
0.216,0.055,0.310,-5.337
0.131,0.054,0.313,-5.337
0.171,0.049,0.316,-5.337
0.285,0.045,0.311,-5.337
0.235,0.048,0.308,-5.337
0.189,0.050,0.307,-5.337
0.138,0.051,0.311,-5.337
0.119,0.050,0.308,-5.337
0.195,0.053,0.307,-5.337
0.206,0.051,0.305,-5.337
0.215,0.050,0.305,-5.337
0.184,0.050,0.308,-5.337
0.187,0.051,0.314,-5.337
0.225,0.052,0.318,-5.337
0.176,0.055,0.318,-5.337
0.147,0.053,0.312,-5.337
0.202,0.051,0.310,-5.337
0.240,0.049,0.311,-5.337
0.277,0.044,0.312,-5.337
0.300,0.045,0.310,-5.337
0.327,0.048,0.308,-5.337
0.371,0.045,0.309,-5.337
0.285,0.044,0.310,-5.337
0.246,0.045,0.312,-5.337
0.294,0.048,0.313,-5.337
0.256,0.048,0.314,-5.337
0.262,0.046,0.311,-5.337
0.234,0.045,0.310,-5.337
0.147,0.046,0.311,-5.337
0.145,0.042,0.317,-5.337
0.159,0.040,0.315,-5.337
0.140,0.044,0.311,-5.337
0.234,0.044,0.304,-5.337
0.260,0.046,0.303,-5.337
0.220,0.043,0.305,-5.337
0.192,0.043,0.311,-5.337
0.145,0.042,0.314,-5.337
0.186,0.042,0.314,-5.337
0.181,0.043,0.312,-5.337
0.156,0.044,0.310,-5.337
0.199,0.041,0.305,-5.337
0.249,0.038,0.305,-5.337
0.241,0.038,0.305,-5.337
0.192,0.039,0.304,-5.337
0.188,0.043,0.308,-5.337
0.213,0.041,0.315,-5.337
0.177,0.043,0.315,-5.337
0.195,0.045,0.314,-5.337
0.208,0.045,0.314,-5.337
0.195,0.044,0.311,-5.337
0.194,0.040,0.308,-5.337
0.205,0.039,0.306,-5.337
0.209,0.040,0.308,-5.337
0.174,0.042,0.308,-5.337
0.190,0.042,0.309,-5.337
0.262,0.040,0.309,-5.337
0.228,0.044,0.311,-5.337
0.109,0.046,0.310,-5.337
0.118,0.043,0.308,-5.337
0.204,0.039,0.308,-5.337
0.227,0.039,0.307,-5.337
0.197,0.039,0.307,-5.337
0.145,0.042,0.308,-5.337
0.201,0.041,0.307,-5.337
0.190,0.042,0.309,-5.337
0.118,0.041,0.311,-5.337
0.128,0.040,0.309,-5.337
0.184,0.037,0.307,-5.337
0.150,0.040,0.309,-5.337
0.118,0.039,0.312,-5.337
0.142,0.038,0.312,-5.337
0.181,0.038,0.311,-5.337
0.189,0.041,0.308,-5.337
0.204,0.038,0.306,-5.337
0.273,0.039,0.306,-5.337
0.296,0.038,0.309,-5.337
0.217,0.042,0.311,-5.337
0.208,0.042,0.308,-5.337
0.246,0.039,0.307,-5.337
0.237,0.038,0.309,-5.337
0.170,0.042,0.309,-5.337
0.190,0.043,0.310,-5.337
0.225,0.040,0.308,-5.337
0.243,0.039,0.310,-5.337
0.271,0.037,0.311,-5.337
0.249,0.038,0.309,-5.337
0.238,0.039,0.310,-5.337
0.233,0.040,0.314,-5.337
0.235,0.037,0.312,-5.337
0.256,0.036,0.309,-5.337
0.230,0.035,0.309,-5.337
0.182,0.038,0.308,-5.337
0.108,0.039,0.311,-5.337
0.084,0.036,0.312,-5.337
0.117,0.038,0.311,-5.337
0.138,0.043,0.311,-5.337
0.212,0.044,0.312,-5.337
0.232,0.042,0.311,-5.337
0.222,0.035,0.309,-5.337
0.231,0.033,0.307,-5.337
0.221,0.038,0.309,-5.337
0.199,0.039,0.312,-5.337
0.173,0.038,0.313,-5.337
0.249,0.035,0.307,-5.337
0.256,0.036,0.306,-5.337
0.203,0.040,0.310,-5.337
0.195,0.041,0.315,-5.337
0.126,0.040,0.312,-5.337
0.130,0.037,0.308,-5.337
0.161,0.036,0.306,-5.337
0.173,0.037,0.308,-5.337
0.213,0.035,0.311,-5.337
0.258,0.038,0.315,-5.337
0.213,0.037,0.317,-5.337
0.157,0.035,0.313,-5.337
0.147,0.032,0.309,-5.337
0.241,0.034,0.308,-5.337
0.266,0.036,0.311,-5.337
0.256,0.038,0.312,-5.337
0.174,0.038,0.306,-5.337
0.214,0.033,0.299,-5.337
0.265,0.034,0.304,-5.337
0.222,0.039,0.310,-5.337
0.191,0.039,0.313,-5.337
0.235,0.037,0.310,-5.337
0.247,0.038,0.308,-5.337
0.174,0.039,0.308,-5.337
0.149,0.039,0.312,-5.337
0.174,0.039,0.311,-5.337
0.183,0.042,0.309,-5.337
0.185,0.040,0.309,-5.337
0.218,0.038,0.310,-5.337
0.230,0.036,0.311,-5.337
0.178,0.036,0.311,-5.337
0.134,0.039,0.310,-5.337
0.187,0.039,0.311,-5.337
0.209,0.039,0.314,-5.337
0.188,0.039,0.314,-5.337
0.200,0.039,0.309,-5.337
0.265,0.036,0.305,-5.337
0.297,0.036,0.306,-5.337
0.269,0.037,0.311,-5.337
0.229,0.037,0.315,-5.337
0.211,0.035,0.311,-5.337
0.271,0.037,0.307,-5.337
0.244,0.039,0.304,-5.337
0.212,0.036,0.303,-5.337
0.207,0.035,0.304,-5.337
0.194,0.035,0.310,-5.337
0.226,0.034,0.314,-5.337
0.286,0.035,0.314,-5.337
0.292,0.033,0.310,-5.337
0.200,0.035,0.310,-5.337
0.129,0.037,0.307,-5.337
0.154,0.039,0.302,-5.337
0.258,0.036,0.300,-5.337
0.234,0.036,0.302,-5.337
0.145,0.037,0.307,-5.337
0.161,0.033,0.313,-5.337
0.217,0.032,0.311,-5.337
0.167,0.035,0.313,-5.337
0.134,0.032,0.314,-5.337
0.140,0.032,0.313,-5.337
0.165,0.033,0.311,-5.337
0.218,0.033,0.308,-5.337
0.178,0.034,0.311,-5.337
0.145,0.036,0.309,-5.337
0.194,0.032,0.309,-5.337
0.206,0.035,0.310,-5.337
0.197,0.037,0.311,-5.337
0.226,0.035,0.312,-5.337
0.200,0.030,0.311,-5.337
0.185,0.030,0.309,-5.337
0.168,0.033,0.310,-5.337
0.224,0.035,0.309,-5.337
0.216,0.035,0.311,-5.337
0.143,0.038,0.314,-5.337
0.182,0.039,0.314,-5.337
0.195,0.039,0.309,-5.337
0.235,0.035,0.307,-5.337
0.255,0.033,0.308,-5.337
0.247,0.036,0.307,-5.337
0.191,0.036,0.308,-5.337
0.157,0.035,0.309,-5.337
0.153,0.034,0.310,-5.337
0.101,0.036,0.312,-5.337
0.079,0.037,0.313,-5.337
0.188,0.034,0.308,-5.337
0.220,0.033,0.306,-5.337
0.190,0.030,0.311,-5.337
0.185,0.030,0.315,-5.337
0.211,0.032,0.312,-5.337
0.135,0.036,0.310,-5.337
0.120,0.034,0.308,-5.337
0.153,0.029,0.311,-5.337
0.161,0.029,0.312,-5.337
0.207,0.031,0.309,-5.337
0.225,0.031,0.308,-5.337
0.132,0.035,0.313,-5.337
0.091,0.034,0.314,-5.337
0.159,0.033,0.314,-5.337
0.202,0.032,0.312,-5.337
0.182,0.036,0.308,-5.337
0.189,0.031,0.309,-5.337
0.201,0.033,0.307,-5.337
0.216,0.034,0.307,-5.337
0.246,0.036,0.307,-5.337
0.187,0.038,0.308,-5.337
0.150,0.038,0.310,-5.337
0.182,0.035,0.309,-5.337
0.197,0.033,0.308,-5.337
0.174,0.033,0.311,-5.337
0.137,0.036,0.317,-5.337
0.144,0.036,0.314,-5.337
0.165,0.035,0.308,-5.337
0.155,0.036,0.307,-5.337
0.181,0.038,0.308,-5.337
0.191,0.036,0.313,-5.337
0.165,0.037,0.314,-5.337
0.193,0.035,0.313,-5.337
0.261,0.034,0.310,-5.337
0.284,0.034,0.306,-5.337
0.205,0.031,0.304,-5.337
0.157,0.034,0.307,-5.337
0.210,0.029,0.310,-5.337
0.221,0.026,0.313,-5.337
0.226,0.023,0.314,-5.337
0.199,0.029,0.311,-5.337
0.086,0.034,0.309,-5.337
0.029,0.034,0.309,-5.337
0.105,0.026,0.307,-5.337
0.218,0.023,0.307,-5.337
0.174,0.025,0.306,-5.337
0.186,0.025,0.307,-5.337
0.189,0.027,0.308,-5.337
0.165,0.027,0.311,-5.337
0.191,0.025,0.311,-5.337
0.214,0.025,0.310,-5.337
0.208,0.026,0.310,-5.337
0.162,0.029,0.310,-5.337
0.142,0.029,0.313,-5.337
0.210,0.027,0.313,-5.337
0.213,0.033,0.314,-5.337
0.165,0.034,0.313,-5.337
0.167,0.034,0.312,-5.337
0.149,0.029,0.308,-5.337
0.154,0.029,0.308,-5.337
0.229,0.029,0.306,-5.337
0.187,0.035,0.304,-5.337
0.173,0.032,0.304,-5.337
0.196,0.030,0.308,-5.337
0.234,0.030,0.309,-5.337
0.248,0.035,0.309,-5.337
0.184,0.036,0.307,-5.337
0.150,0.033,0.306,-5.337
0.222,0.032,0.306,-5.337
0.225,0.032,0.308,-5.337
0.212,0.032,0.310,-5.337
0.257,0.033,0.312,-5.337
0.218,0.035,0.313,-5.337
0.193,0.034,0.315,-5.337
0.171,0.034,0.312,-5.337
0.165,0.033,0.307,-5.337
0.185,0.029,0.309,-5.337
0.239,0.024,0.313,-5.337
0.267,0.028,0.314,-5.337
0.199,0.032,0.311,-5.337
0.176,0.038,0.312,-5.337
0.189,0.035,0.310,-5.337
0.184,0.034,0.307,-5.337
0.205,0.037,0.305,-5.337
0.182,0.041,0.305,-5.337
0.159,0.037,0.309,-5.337
0.165,0.035,0.311,-5.337
0.224,0.031,0.311,-5.337
0.201,0.034,0.308,-5.337
0.138,0.038,0.307,-5.337
0.149,0.035,0.305,-5.337
0.163,0.034,0.302,-5.337
0.173,0.037,0.306,-5.337
0.208,0.039,0.312,-5.337
0.208,0.042,0.314,-5.337
0.178,0.039,0.314,-5.337
0.171,0.039,0.307,-5.337
0.165,0.038,0.304,-5.337
0.157,0.042,0.306,-5.337
0.197,0.043,0.312,-5.337
0.167,0.041,0.313,-5.337
0.082,0.044,0.315,-5.337
0.101,0.046,0.310,-5.337
0.137,0.046,0.305,-5.337
0.171,0.040,0.306,-5.337
0.080,0.040,0.313,-5.337
0.094,0.040,0.313,-5.337
0.154,0.039,0.310,-5.337
0.156,0.037,0.308,-5.337
0.129,0.040,0.309,-5.337
0.180,0.042,0.308,-5.337
0.179,0.040,0.308,-5.337
0.122,0.040,0.307,-5.337
0.169,0.035,0.310,-5.337
0.262,0.035,0.311,-5.337
0.231,0.037,0.313,-5.337
0.204,0.040,0.313,-5.337
0.176,0.041,0.309,-5.337
0.230,0.037,0.307,-5.337
0.291,0.040,0.307,-5.337
0.258,0.043,0.307,-5.337
0.227,0.041,0.308,-5.337
0.267,0.041,0.307,-5.337
0.230,0.045,0.307,-5.337
0.161,0.048,0.310,-5.337
0.068,0.049,0.308,-5.337
0.099,0.048,0.307,-5.337
0.160,0.045,0.305,-5.337
0.194,0.043,0.305,-5.337
0.234,0.041,0.306,-5.337
0.222,0.044,0.307,-5.337
0.178,0.044,0.305,-5.337
0.163,0.046,0.304,-5.337
0.153,0.046,0.307,-5.337
0.195,0.048,0.311,-5.337
0.192,0.049,0.312,-5.337
0.161,0.050,0.308,-5.337
0.141,0.051,0.308,-5.337
0.129,0.054,0.311,-5.337
0.087,0.052,0.312,-5.337
0.133,0.048,0.309,-5.337
0.164,0.045,0.308,-5.337
0.167,0.044,0.307,-5.337
0.119,0.048,0.309,-5.337
0.147,0.046,0.311,-5.337
0.179,0.045,0.310,-5.337
0.231,0.045,0.306,-5.337
0.244,0.046,0.305,-5.337
0.142,0.049,0.306,-5.337
0.160,0.049,0.306,-5.337
0.204,0.050,0.301,-5.337
0.197,0.046,0.304,-5.337
0.235,0.045,0.308,-5.337
0.189,0.053,0.310,-5.337
0.121,0.057,0.307,-5.337
0.088,0.055,0.308,-5.337
0.160,0.051,0.308,-5.337
0.210,0.052,0.308,-5.337
0.242,0.050,0.308,-5.337
0.227,0.046,0.309,-5.337
0.218,0.048,0.309,-5.337
0.266,0.050,0.309,-5.337
0.299,0.049,0.307,-5.337
0.283,0.050,0.308,-5.337
0.216,0.052,0.309,-5.337
0.185,0.051,0.310,-5.337
0.138,0.056,0.309,-5.337
0.113,0.056,0.307,-5.337
0.107,0.057,0.310,-5.337
0.120,0.054,0.312,-5.337
0.164,0.050,0.311,-5.337
0.126,0.052,0.312,-5.337
0.060,0.054,0.313,-5.337
0.048,0.055,0.307,-5.337
0.145,0.053,0.306,-5.337
0.256,0.050,0.307,-5.337
0.243,0.055,0.309,-5.337
0.091,0.059,0.309,-5.337
0.069,0.061,0.308,-5.337
0.217,0.054,0.307,-5.337
0.245,0.052,0.307,-5.337
0.219,0.050,0.309,-5.337
0.188,0.054,0.308,-5.337
0.173,0.058,0.307,-5.337
0.133,0.060,0.311,-5.337
0.154,0.057,0.313,-5.337
0.165,0.059,0.310,-5.337
0.130,0.061,0.305,-5.337
0.147,0.063,0.304,-5.337
0.197,0.060,0.308,-5.337
0.154,0.058,0.312,-5.337
0.155,0.057,0.313,-5.337
0.192,0.055,0.312,-5.337
0.261,0.054,0.314,-5.337
0.329,0.051,0.312,-5.337
0.337,0.051,0.311,-5.337
0.293,0.055,0.308,-5.337
0.242,0.057,0.307,-5.337
0.193,0.057,0.307,-5.337
0.190,0.058,0.308,-5.337
0.217,0.057,0.305,-5.337
0.196,0.062,0.303,-5.337
0.167,0.062,0.301,-5.337
0.153,0.060,0.306,-5.337
0.174,0.057,0.309,-5.337
0.142,0.065,0.312,-5.337
0.104,0.060,0.310,-5.337
0.186,0.054,0.305,-5.337
0.279,0.055,0.305,-5.337
0.264,0.057,0.305,-5.337
0.196,0.057,0.308,-5.337
0.199,0.057,0.309,-5.337
0.179,0.058,0.309,-5.337
0.121,0.059,0.310,-5.337
0.162,0.058,0.313,-5.337
0.198,0.055,0.314,-5.337
0.183,0.059,0.313,-5.337
0.189,0.058,0.309,-5.337
0.253,0.055,0.308,-5.337
0.266,0.058,0.308,-5.337
0.187,0.059,0.310,-5.337
0.154,0.057,0.310,-5.337
0.172,0.057,0.309,-5.337
0.178,0.056,0.312,-5.337
0.211,0.056,0.313,-5.337
0.204,0.056,0.309,-5.337
0.204,0.055,0.307,-5.337
0.229,0.054,0.309,-5.337
0.236,0.053,0.311,-5.337
0.210,0.057,0.307,-5.337
0.208,0.062,0.302,-5.337
0.227,0.061,0.302,-5.337
0.237,0.058,0.306,-5.337
0.186,0.057,0.308,-5.337
0.144,0.057,0.310,-5.337
0.210,0.057,0.311,-5.337
0.192,0.059,0.306,-5.337
0.148,0.059,0.304,-5.337
0.202,0.055,0.305,-5.337
0.219,0.054,0.310,-5.337
0.255,0.055,0.308,-5.337
0.273,0.060,0.306,-5.337
0.187,0.058,0.303,-5.337
0.086,0.059,0.308,-5.337
0.184,0.058,0.311,-5.337
0.260,0.059,0.311,-5.337
0.266,0.062,0.310,-5.337
0.190,0.064,0.309,-5.337
0.178,0.058,0.307,-5.337
0.185,0.062,0.307,-5.337
0.204,0.062,0.311,-5.337
0.227,0.061,0.314,-5.337
0.238,0.062,0.312,-5.337
0.191,0.063,0.312,-5.337
0.212,0.062,0.312,-5.337
0.266,0.062,0.310,-5.337
0.285,0.062,0.309,-5.337
0.260,0.065,0.306,-5.337
0.156,0.067,0.305,-5.337
0.106,0.064,0.307,-5.337
0.197,0.062,0.311,-5.337
0.259,0.061,0.309,-5.337
0.259,0.058,0.308,-5.337
0.225,0.059,0.307,-5.337
0.181,0.061,0.306,-5.337
0.166,0.059,0.306,-5.337
0.195,0.057,0.308,-5.337
0.166,0.055,0.308,-5.337
0.172,0.058,0.309,-5.337
0.168,0.057,0.307,-5.337
0.224,0.057,0.306,-5.337
0.286,0.056,0.310,-5.337
0.277,0.056,0.315,-5.337
0.213,0.056,0.314,-5.337
0.269,0.057,0.309,-5.337
0.334,0.057,0.306,-5.337
0.238,0.062,0.307,-5.337
0.122,0.065,0.311,-5.337
0.128,0.064,0.311,-5.337
0.207,0.063,0.311,-5.337
0.238,0.061,0.311,-5.337
0.245,0.060,0.312,-5.337
0.146,0.065,0.312,-5.337
0.109,0.065,0.311,-5.337
0.209,0.064,0.311,-5.337
0.276,0.059,0.312,-5.337
0.265,0.056,0.309,-5.337
0.262,0.053,0.309,-5.337
0.239,0.056,0.309,-5.337
0.156,0.060,0.310,-5.337
0.142,0.060,0.312,-5.337
0.147,0.061,0.313,-5.337
0.141,0.058,0.311,-5.337
0.157,0.059,0.310,-5.337
0.181,0.062,0.308,-5.337
0.213,0.060,0.309,-5.337
0.261,0.060,0.310,-5.337
0.235,0.062,0.307,-5.337
0.201,0.063,0.306,-5.337
0.224,0.063,0.307,-5.337
0.266,0.063,0.307,-5.337
0.259,0.061,0.310,-5.337
0.214,0.062,0.309,-5.337
0.150,0.060,0.310,-5.337
0.171,0.055,0.309,-5.337
0.226,0.056,0.306,-5.337
0.256,0.057,0.309,-5.337
0.264,0.057,0.307,-5.337
0.244,0.054,0.304,-5.337
0.281,0.051,0.305,-5.337
0.324,0.050,0.311,-5.337
0.306,0.053,0.310,-5.337
0.280,0.059,0.310,-5.337
0.252,0.060,0.312,-5.337
0.231,0.059,0.314,-5.337
0.207,0.057,0.308,-5.337
0.243,0.052,0.306,-5.337
0.212,0.052,0.307,-5.337
0.167,0.056,0.308,-5.337
0.179,0.057,0.309,-5.337
0.192,0.056,0.310,-5.337
0.245,0.050,0.314,-5.337
0.275,0.052,0.314,-5.337
0.199,0.054,0.310,-5.337
0.211,0.054,0.311,-5.337
0.220,0.056,0.310,-5.337
0.215,0.056,0.307,-5.337
0.172,0.052,0.308,-5.337
0.210,0.049,0.314,-5.337
0.210,0.050,0.314,-5.337
0.139,0.051,0.309,-5.337
0.139,0.052,0.308,-5.337
0.189,0.054,0.309,-5.337
0.240,0.052,0.307,-5.337
0.312,0.051,0.301,-5.337
0.280,0.054,0.302,-5.337
0.235,0.054,0.305,-5.337
0.251,0.053,0.310,-5.337
0.225,0.051,0.312,-5.337
0.216,0.050,0.311,-5.337
0.166,0.054,0.313,-5.337
0.150,0.054,0.315,-5.337
0.186,0.049,0.314,-5.337
0.208,0.047,0.314,-5.337
0.226,0.042,0.310,-5.337
0.264,0.044,0.306,-5.337
0.254,0.049,0.303,-5.337
0.258,0.049,0.304,-5.337
0.229,0.048,0.306,-5.337
0.189,0.048,0.309,-5.337
0.253,0.045,0.313,-5.337
0.280,0.046,0.315,-5.337
0.227,0.051,0.313,-5.337
0.232,0.053,0.310,-5.337
0.218,0.053,0.312,-5.337
0.195,0.050,0.310,-5.337
0.201,0.045,0.305,-5.337
0.183,0.045,0.305,-5.337
0.208,0.047,0.309,-5.337
0.211,0.047,0.307,-5.337
0.247,0.045,0.309,-5.337
0.223,0.048,0.313,-5.337
0.164,0.051,0.316,-5.337
0.220,0.046,0.315,-5.337
0.261,0.047,0.311,-5.337
0.222,0.049,0.309,-5.337
0.245,0.046,0.310,-5.337
0.305,0.045,0.310,-5.337
0.243,0.049,0.311,-5.337
0.129,0.050,0.313,-5.337
0.146,0.044,0.311,-5.337
0.231,0.040,0.311,-5.337
0.177,0.047,0.312,-5.337
0.120,0.050,0.309,-5.337
0.202,0.044,0.309,-5.337
0.231,0.046,0.312,-5.337
0.189,0.046,0.312,-5.337
0.169,0.041,0.311,-5.337
0.224,0.038,0.307,-5.337
0.304,0.036,0.308,-5.337
0.332,0.040,0.307,-5.337
0.287,0.046,0.306,-5.337
0.318,0.048,0.307,-5.337
0.327,0.044,0.310,-5.337
0.258,0.043,0.309,-5.337
0.185,0.045,0.308,-5.337
0.196,0.043,0.310,-5.337
0.229,0.041,0.310,-5.337
0.206,0.040,0.310,-5.337
0.211,0.040,0.308,-5.337
0.218,0.041,0.307,-5.337
0.218,0.043,0.306,-5.337
0.193,0.043,0.308,-5.337
0.206,0.042,0.310,-5.337
0.230,0.040,0.311,-5.337
0.216,0.039,0.310,-5.337
0.160,0.042,0.309,-5.337
0.168,0.039,0.309,-5.337
0.226,0.038,0.305,-5.337
0.217,0.042,0.303,-5.337
0.184,0.043,0.306,-5.337
0.179,0.045,0.310,-5.337
0.197,0.043,0.313,-5.337
0.192,0.041,0.312,-5.337
0.199,0.041,0.309,-5.337
0.215,0.041,0.305,-5.337
0.274,0.040,0.304,-5.337
0.264,0.039,0.307,-5.337
0.242,0.038,0.309,-5.337
0.243,0.041,0.307,-5.337
0.236,0.042,0.309,-5.337
0.192,0.039,0.308,-5.337
0.221,0.037,0.305,-5.337
0.197,0.037,0.306,-5.337
0.158,0.039,0.309,-5.337
0.203,0.036,0.309,-5.337
0.275,0.036,0.307,-5.337
0.264,0.037,0.305,-5.337
0.228,0.038,0.306,-5.337
0.182,0.040,0.309,-5.337
0.143,0.043,0.311,-5.337
0.136,0.037,0.310,-5.337
0.201,0.034,0.311,-5.337
0.231,0.036,0.314,-5.337
0.287,0.035,0.312,-5.337
0.242,0.036,0.310,-5.337
0.161,0.038,0.309,-5.337
0.146,0.038,0.307,-5.337
0.180,0.036,0.304,-5.337
0.186,0.036,0.304,-5.337
0.154,0.035,0.308,-5.337
0.144,0.036,0.308,-5.337
0.151,0.037,0.306,-5.337
0.177,0.035,0.307,-5.337
0.254,0.029,0.308,-5.337
0.240,0.031,0.309,-5.337
0.130,0.035,0.311,-5.337
0.132,0.036,0.310,-5.337
0.233,0.036,0.310,-5.337
0.250,0.036,0.307,-5.337
0.233,0.035,0.305,-5.337
0.162,0.039,0.307,-5.337
0.124,0.040,0.313,-5.337
0.149,0.038,0.315,-5.337
0.251,0.032,0.313,-5.337
0.296,0.035,0.311,-5.337
0.159,0.038,0.306,-5.337
0.142,0.034,0.302,-5.337
0.192,0.035,0.305,-5.337
0.162,0.038,0.307,-5.337
0.173,0.039,0.311,-5.337
0.287,0.036,0.311,-5.337
0.280,0.038,0.314,-5.337
0.166,0.040,0.314,-5.337
