[Parameters]
Operating Mode, Feedback
Subject  AA..ZZ, WT
Session  0..99, 43
No. Trials (1..9999), 500
Mouse Number, 1
Pressure Probe Serial Port, \00\00\00\04COM4
Save additional csv file, TRUE
Save using mouse number, FALSE
A/D Monitor Rate (Hz), 30000.000000
A/D Stimulate Rate (Hz), 30000.000000
A/D input range (+/- V), 5
No. Channels to acquire (N), 2
Pre-Stim Acq. time (ms), 100.000000
Post-Stim Acq. time (ms), 900.000000
Analysis window parameters.M-response Start (ms), 1.100000
Analysis window parameters.M-response Duration (ms), 5.500000
Analysis window parameters.H-response Duration (ms), 6.000000
Analysis window parameters.H-response Start (ms), 6.500000
Feedback window, H response
Proportional gain, 0.100000
Target value, 6.700000
Feedback Ch., 1
Stim Channel to Control (1-4), 4
Trial, 32
Wait for EMG Conditions, FALSE
Channel to monitor (0 - N-1), 1
EMG Hi Limit, 2.000000
EMG Lo Limit, 0.001000
Inter-Stim delay (sec), 10.000000
EMG Monitor Mode, Mean
Time to run Long Stim.(sec), 30
Save Long Stim Data?, OFF
BURST Save time (ms), 1000
BURST Save Interval (x above), 10
Long-Stim. Rep. Rate (Hz), 10.000000
Stim type cluster array.<size(s)>, 4
Stim type cluster array 0.Stimulus Output, Electrical
Stim type cluster array 1.Stimulus Output, OFF
Stim type cluster array 2.Stimulus Output, OFF
Stim type cluster array 3.Stimulus Output, Motor Length
Stim specs cluster array.<size(s)>, 4
Stim specs cluster array 0.Initial Stimulus ampl., 0.300000
Stim specs cluster array 0.Maximum Stimulus, 1.120000
Stim specs cluster array 0.#Pulses in train, 4
Stim specs cluster array 0.Peak Level time (ms), 1.000000
Stim specs cluster array 0.Total pulse period (ms), 150.000000
Stim specs cluster array 0.Start Delay (ms), -50.000000
Stim specs cluster array 0.Pulse Shape, Square
Stim specs cluster array 0.Ramp/Rel. time (ms), 0.100000
Stim specs cluster array 0.Peak Amplitude (V), 0.120000
Stim specs cluster array 1.Initial Stimulus ampl., 0.000000
Stim specs cluster array 1.Maximum Stimulus, 0.000000
Stim specs cluster array 1.#Pulses in train, 3
Stim specs cluster array 1.Peak Level time (ms), 29.000000
Stim specs cluster array 1.Total pulse period (ms), 200.000000
Stim specs cluster array 1.Start Delay (ms), 0.000000
Stim specs cluster array 1.Pulse Shape, Square
Stim specs cluster array 1.Ramp/Rel. time (ms), 0.000000
Stim specs cluster array 1.Peak Amplitude (V), 2.000000
Stim specs cluster array 2.Initial Stimulus ampl., 0.000000
Stim specs cluster array 2.Maximum Stimulus, 0.000000
Stim specs cluster array 2.#Pulses in train, 1
Stim specs cluster array 2.Peak Level time (ms), 25.000000
Stim specs cluster array 2.Total pulse period (ms), 200.000000
Stim specs cluster array 2.Start Delay (ms), 0.000000
Stim specs cluster array 2.Pulse Shape, Square
Stim specs cluster array 2.Ramp/Rel. time (ms), 20.000000
Stim specs cluster array 2.Peak Amplitude (V), 10.000000
Stim specs cluster array 3.Initial Stimulus ampl., 0.000000
Stim specs cluster array 3.Maximum Stimulus, 20.000000
Stim specs cluster array 3.#Pulses in train, 25
Stim specs cluster array 3.Peak Level time (ms), 0.100000
Stim specs cluster array 3.Total pulse period (ms), 4.000000
Stim specs cluster array 3.Start Delay (ms), 205.000000
Stim specs cluster array 3.Pulse Shape, Triangle
Stim specs cluster array 3.Ramp/Rel. time (ms), 3.000000
Stim specs cluster array 3.Peak Amplitude (V), 0.500000
Force cal. (mN/Volt), 100.000000
Force Range (mN), 100.000000
Length cal. (mm/Volt), 10.000000
Length Range (mm), 10.000000
Stim. 1, 0.300000
Stim. 2, 0.000000
Stim. 3, 0.000000
Stim. 4, 0.000000
Monitor acquire time (ms), 100.000000
EMG graph Ymax, 0.100000
Travel limit (mm), 20.000000
Use Pressure Probe, FALSE
Pressure goal (g), 100
Speed (mm/sec), 5.000000
Dwell time (ms), 100.000000
Pressure limit (g), 500.000000
Channel amplitude offset, 0.000000

[DATA]

0.215,0.038,0.281,-5.337
0.244,0.037,0.283,-5.337
0.280,0.036,0.284,-5.337
0.194,0.040,0.279,-5.337
0.086,0.041,0.281,-5.337
0.023,0.041,0.283,-5.337
0.035,0.043,0.284,-5.337
0.105,0.041,0.281,-5.337
0.174,0.041,0.282,-5.337
0.169,0.040,0.282,-5.337
0.155,0.039,0.284,-5.337
0.127,0.041,0.286,-5.337
0.124,0.044,0.284,-5.337
0.197,0.044,0.280,-5.337
0.154,0.045,0.279,-5.337
0.061,0.048,0.280,-5.337
0.112,0.047,0.281,-5.337
0.172,0.042,0.282,-5.337
0.167,0.042,0.282,-5.337
0.170,0.041,0.277,-5.337
0.155,0.044,0.275,-5.337
0.153,0.045,0.278,-5.337
0.169,0.044,0.282,-5.337
0.189,0.043,0.283,-5.337
0.239,0.042,0.282,-5.337
0.220,0.044,0.285,-5.337
0.166,0.043,0.286,-5.337
0.159,0.042,0.282,-5.337
0.168,0.042,0.281,-5.337
0.088,0.043,0.285,-5.337
0.098,0.040,0.287,-5.337
0.150,0.040,0.285,-5.337
0.182,0.039,0.281,-5.337
0.222,0.037,0.279,-5.337
0.219,0.037,0.276,-5.337
0.181,0.037,0.278,-5.337
0.171,0.039,0.280,-5.337
0.214,0.037,0.282,-5.337
0.295,0.035,0.283,-5.337
0.255,0.038,0.283,-5.337
0.102,0.042,0.282,-5.337
0.094,0.042,0.283,-5.337
0.160,0.038,0.282,-5.337
0.238,0.038,0.279,-5.337
0.191,0.041,0.280,-5.337
0.158,0.041,0.279,-5.337
0.195,0.041,0.279,-5.337
0.218,0.041,0.279,-5.337
0.260,0.041,0.283,-5.337
0.288,0.037,0.280,-5.337
0.194,0.036,0.279,-5.337
0.118,0.036,0.278,-5.337
0.117,0.039,0.281,-5.337
0.191,0.039,0.284,-5.337
0.246,0.037,0.289,-5.337
0.261,0.035,0.290,-5.337
0.181,0.042,0.290,-5.337
0.145,0.042,0.286,-5.337
0.193,0.038,0.281,-5.337
0.196,0.036,0.277,-5.337
0.218,0.037,0.275,-5.337
0.228,0.038,0.276,-5.337
0.207,0.040,0.280,-5.337
0.182,0.044,0.284,-5.337
0.190,0.045,0.284,-5.337
0.171,0.044,0.278,-5.337
0.081,0.047,0.273,-5.337
0.065,0.048,0.275,-5.337
0.133,0.046,0.279,-5.337
0.139,0.043,0.282,-5.337
0.163,0.042,0.282,-5.337
0.164,0.046,0.281,-5.337
0.174,0.049,0.276,-5.337
0.156,0.053,0.279,-5.337
0.130,0.049,0.284,-5.337
0.161,0.043,0.284,-5.337
0.247,0.041,0.278,-5.337
0.250,0.041,0.280,-5.337
0.190,0.046,0.284,-5.337
0.172,0.047,0.287,-5.337
0.126,0.044,0.287,-5.337
0.131,0.042,0.282,-5.337
0.177,0.040,0.276,-5.337
0.228,0.043,0.277,-5.337
0.261,0.045,0.280,-5.337
0.241,0.044,0.280,-5.337
0.186,0.042,0.279,-5.337
0.232,0.044,0.279,-5.337
0.254,0.045,0.280,-5.337
0.166,0.048,0.281,-5.337
0.092,0.046,0.282,-5.337
0.065,0.043,0.280,-5.337
0.104,0.042,0.279,-5.337
0.175,0.043,0.282,-5.337
0.223,0.042,0.286,-5.337
0.247,0.039,0.283,-5.337
0.234,0.040,0.282,-5.337
0.180,0.044,0.279,-5.337
0.179,0.045,0.280,-5.337
0.186,0.044,0.283,-5.337
0.125,0.047,0.283,-5.337
0.085,0.047,0.277,-5.337
0.107,0.048,0.278,-5.337
0.123,0.048,0.280,-5.337
0.182,0.044,0.284,-5.337
0.261,0.043,0.283,-5.337
0.323,0.045,0.282,-5.337
0.215,0.048,0.282,-5.337
0.106,0.050,0.281,-5.337
0.069,0.049,0.279,-5.337
0.147,0.047,0.277,-5.337
0.202,0.047,0.277,-5.337
0.151,0.048,0.283,-5.337
0.195,0.047,0.283,-5.337
0.279,0.045,0.279,-5.337
0.231,0.048,0.276,-5.337
0.164,0.049,0.276,-5.337
0.210,0.048,0.281,-5.337
0.165,0.050,0.284,-5.337
0.070,0.047,0.288,-5.337
0.124,0.042,0.283,-5.337
0.202,0.041,0.281,-5.337
0.226,0.043,0.281,-5.337
0.205,0.047,0.283,-5.337
0.179,0.045,0.283,-5.337
0.167,0.044,0.283,-5.337
0.264,0.046,0.281,-5.337
0.221,0.049,0.286,-5.337
0.199,0.045,0.290,-5.337
0.133,0.043,0.289,-5.337
0.174,0.041,0.285,-5.337
0.284,0.041,0.278,-5.337
0.275,0.042,0.276,-5.337
0.287,0.041,0.275,-5.337
0.292,0.042,0.276,-5.337
0.287,0.042,0.276,-5.337
0.199,0.048,0.276,-5.337
0.173,0.049,0.278,-5.337
0.242,0.048,0.284,-5.337
0.225,0.047,0.287,-5.337
0.202,0.047,0.284,-5.337
0.221,0.045,0.279,-5.337
0.273,0.045,0.276,-5.337
0.282,0.045,0.280,-5.337
0.283,0.045,0.285,-5.337
0.230,0.046,0.285,-5.337
0.210,0.050,0.282,-5.337
0.198,0.051,0.281,-5.337
0.210,0.051,0.281,-5.337
0.213,0.051,0.283,-5.337
0.171,0.056,0.285,-5.337
0.195,0.054,0.285,-5.337
0.264,0.050,0.280,-5.337
0.295,0.050,0.278,-5.337
0.254,0.051,0.280,-5.337
0.201,0.049,0.282,-5.337
0.126,0.051,0.284,-5.337
0.139,0.051,0.282,-5.337
0.177,0.051,0.279,-5.337
0.180,0.052,0.278,-5.337
0.168,0.052,0.279,-5.337
0.175,0.052,0.283,-5.337
0.150,0.052,0.284,-5.337
0.213,0.051,0.284,-5.337
0.285,0.051,0.278,-5.337
0.229,0.052,0.275,-5.337
0.209,0.053,0.276,-5.337
0.270,0.054,0.284,-5.337
0.334,0.056,0.286,-5.337
0.321,0.055,0.285,-5.337
0.281,0.051,0.287,-5.337
0.228,0.053,0.288,-5.337
0.169,0.053,0.285,-5.337
0.200,0.054,0.280,-5.337
0.258,0.052,0.279,-5.337
0.255,0.050,0.281,-5.337
0.234,0.049,0.281,-5.337
0.231,0.049,0.285,-5.337
0.257,0.051,0.288,-5.337
0.295,0.046,0.289,-5.337
0.262,0.045,0.285,-5.337
0.224,0.051,0.280,-5.337
0.215,0.054,0.279,-5.337
0.217,0.054,0.281,-5.337
0.197,0.052,0.286,-5.337
0.195,0.051,0.288,-5.337
0.150,0.050,0.286,-5.337
0.179,0.051,0.286,-5.337
0.215,0.045,0.287,-5.337
0.282,0.044,0.285,-5.337
0.270,0.046,0.281,-5.337
0.164,0.052,0.280,-5.337
0.127,0.057,0.282,-5.337
0.209,0.054,0.282,-5.337
0.238,0.050,0.284,-5.337
0.239,0.049,0.287,-5.337
0.228,0.055,0.288,-5.337
0.262,0.053,0.288,-5.337
0.277,0.054,0.286,-5.337
0.265,0.053,0.284,-5.337
0.259,0.053,0.279,-5.337
0.247,0.054,0.278,-5.337
0.215,0.057,0.280,-5.337
0.166,0.056,0.280,-5.337
0.163,0.052,0.282,-5.337
0.189,0.050,0.285,-5.337
0.240,0.049,0.284,-5.337
0.180,0.053,0.284,-5.337
0.127,0.055,0.281,-5.337
0.166,0.057,0.287,-5.337
0.232,0.056,0.288,-5.337
0.241,0.054,0.285,-5.337
0.192,0.056,0.284,-5.337
0.257,0.058,0.286,-5.337
0.306,0.055,0.286,-5.337
0.262,0.059,0.286,-5.337
0.235,0.059,0.285,-5.337
0.248,0.061,0.285,-5.337
0.299,0.058,0.285,-5.337
0.298,0.058,0.286,-5.337
0.259,0.058,0.286,-5.337
0.268,0.058,0.289,-5.337
0.231,0.056,0.288,-5.337
0.160,0.060,0.283,-5.337
0.117,0.060,0.278,-5.337
0.222,0.055,0.277,-5.337
0.229,0.055,0.281,-5.337
0.218,0.055,0.285,-5.337
0.228,0.054,0.287,-5.337
0.265,0.058,0.287,-5.337
0.255,0.058,0.285,-5.337
0.247,0.057,0.285,-5.337
0.257,0.060,0.288,-5.337
0.205,0.062,0.290,-5.337
0.200,0.064,0.287,-5.337
0.236,0.063,0.281,-5.337
0.298,0.056,0.281,-5.337
0.297,0.061,0.282,-5.337
0.197,0.060,0.280,-5.337
0.184,0.058,0.283,-5.337
0.203,0.062,0.282,-5.337
0.232,0.061,0.280,-5.337
0.208,0.062,0.285,-5.337
0.248,0.060,0.290,-5.337
0.304,0.060,0.289,-5.337
0.232,0.059,0.283,-5.337
0.190,0.057,0.277,-5.337
0.177,0.058,0.278,-5.337
0.183,0.063,0.281,-5.337
0.166,0.064,0.284,-5.337
0.230,0.058,0.286,-5.337
0.275,0.054,0.287,-5.337
0.315,0.052,0.285,-5.337
0.349,0.058,0.283,-5.337
0.295,0.063,0.281,-5.337
0.233,0.062,0.280,-5.337
0.277,0.054,0.281,-5.337
0.279,0.058,0.285,-5.337
0.261,0.057,0.287,-5.337
0.274,0.058,0.288,-5.337
0.259,0.057,0.286,-5.337
0.255,0.058,0.281,-5.337
0.267,0.060,0.281,-5.337
0.287,0.062,0.280,-5.337
0.291,0.061,0.281,-5.337
0.284,0.059,0.281,-5.337
0.268,0.057,0.282,-5.337
0.292,0.058,0.282,-5.337
0.305,0.058,0.281,-5.337
0.290,0.061,0.282,-5.337
0.213,0.063,0.284,-5.337
0.182,0.059,0.282,-5.337
0.215,0.060,0.282,-5.337
0.232,0.056,0.280,-5.337
0.189,0.054,0.282,-5.337
0.207,0.054,0.287,-5.337
0.298,0.055,0.286,-5.337
0.334,0.054,0.285,-5.337
0.301,0.054,0.282,-5.337
0.226,0.058,0.276,-5.337
0.214,0.062,0.277,-5.337
0.174,0.065,0.280,-5.337
0.237,0.063,0.284,-5.337
0.270,0.058,0.285,-5.337
0.166,0.062,0.283,-5.337
0.117,0.060,0.277,-5.337
0.192,0.059,0.280,-5.337
0.282,0.058,0.284,-5.337
0.255,0.060,0.286,-5.337
0.172,0.063,0.285,-5.337
0.200,0.061,0.285,-5.337
0.243,0.059,0.280,-5.337
0.338,0.053,0.279,-5.337
0.355,0.052,0.278,-5.337
0.314,0.053,0.280,-5.337
0.236,0.056,0.283,-5.337
0.248,0.055,0.282,-5.337
0.229,0.052,0.284,-5.337
0.158,0.056,0.285,-5.337
0.189,0.060,0.288,-5.337
0.205,0.060,0.284,-5.337
0.186,0.058,0.281,-5.337
0.277,0.052,0.279,-5.337
0.348,0.053,0.283,-5.337
0.323,0.050,0.282,-5.337
0.231,0.054,0.277,-5.337
0.219,0.055,0.277,-5.337
0.195,0.054,0.284,-5.337
0.139,0.053,0.288,-5.337
0.142,0.053,0.287,-5.337
0.240,0.050,0.284,-5.337
0.343,0.049,0.287,-5.337
0.342,0.049,0.286,-5.337
0.261,0.050,0.283,-5.337
0.204,0.051,0.282,-5.337
0.247,0.046,0.284,-5.337
0.288,0.047,0.286,-5.337
0.304,0.050,0.286,-5.337
0.243,0.052,0.285,-5.337
0.188,0.051,0.281,-5.337
0.162,0.051,0.281,-5.337
0.198,0.051,0.281,-5.337
0.225,0.049,0.284,-5.337
0.205,0.050,0.283,-5.337
0.211,0.050,0.285,-5.337
0.244,0.050,0.284,-5.337
0.254,0.052,0.281,-5.337
0.227,0.052,0.280,-5.337
0.267,0.053,0.276,-5.337
0.263,0.052,0.278,-5.337
0.248,0.051,0.280,-5.337
0.273,0.049,0.279,-5.337
0.270,0.050,0.278,-5.337
0.186,0.053,0.280,-5.337
0.177,0.051,0.284,-5.337
0.214,0.050,0.286,-5.337
0.239,0.054,0.287,-5.337
0.229,0.054,0.288,-5.337
0.262,0.052,0.285,-5.337
0.286,0.053,0.283,-5.337
0.228,0.054,0.284,-5.337
0.231,0.054,0.287,-5.337
0.237,0.050,0.287,-5.337
0.222,0.050,0.286,-5.337
0.194,0.051,0.282,-5.337
0.189,0.050,0.280,-5.337
0.231,0.047,0.280,-5.337
0.267,0.050,0.283,-5.337
0.245,0.051,0.285,-5.337
0.160,0.049,0.287,-5.337
0.222,0.045,0.286,-5.337
0.287,0.043,0.286,-5.337
0.297,0.044,0.282,-5.337
0.235,0.046,0.278,-5.337
0.199,0.046,0.276,-5.337
0.182,0.048,0.275,-5.337
0.253,0.045,0.279,-5.337
0.265,0.047,0.281,-5.337
0.167,0.050,0.283,-5.337
0.186,0.046,0.280,-5.337
0.298,0.044,0.280,-5.337
0.265,0.050,0.284,-5.337
0.236,0.047,0.284,-5.337
0.255,0.047,0.282,-5.337
0.289,0.047,0.287,-5.337
0.231,0.047,0.289,-5.337
0.176,0.046,0.287,-5.337
0.190,0.047,0.283,-5.337
0.246,0.046,0.283,-5.337
0.274,0.046,0.284,-5.337
0.191,0.049,0.282,-5.337
0.251,0.048,0.283,-5.337
0.322,0.047,0.281,-5.337
0.289,0.047,0.278,-5.337
0.207,0.044,0.276,-5.337
0.202,0.046,0.281,-5.337
0.201,0.048,0.287,-5.337
0.185,0.051,0.286,-5.337
0.215,0.048,0.281,-5.337
0.280,0.045,0.278,-5.337
0.263,0.045,0.276,-5.337
0.246,0.045,0.282,-5.337
0.264,0.046,0.287,-5.337
0.267,0.043,0.287,-5.337
0.312,0.041,0.283,-5.337
0.296,0.040,0.282,-5.337
0.259,0.042,0.283,-5.337
0.183,0.043,0.288,-5.337
0.196,0.043,0.289,-5.337
0.231,0.041,0.289,-5.337
0.261,0.043,0.287,-5.337
0.277,0.046,0.285,-5.337
0.237,0.046,0.281,-5.337
0.136,0.048,0.281,-5.337
0.178,0.040,0.281,-5.337
0.255,0.037,0.282,-5.337
0.283,0.040,0.283,-5.337
0.189,0.046,0.283,-5.337
0.154,0.043,0.286,-5.337
0.163,0.040,0.289,-5.337
0.155,0.041,0.286,-5.337
0.186,0.042,0.280,-5.337
0.239,0.042,0.278,-5.337
0.210,0.041,0.280,-5.337
0.219,0.041,0.281,-5.337
0.253,0.041,0.281,-5.337
0.263,0.040,0.282,-5.337
0.219,0.040,0.285,-5.337
0.136,0.039,0.288,-5.337
0.141,0.039,0.285,-5.337
0.204,0.040,0.283,-5.337
0.240,0.039,0.282,-5.337
0.180,0.042,0.285,-5.337
0.123,0.042,0.286,-5.337
0.168,0.038,0.286,-5.337
0.145,0.038,0.286,-5.337
0.160,0.037,0.284,-5.337
0.113,0.039,0.280,-5.337
0.098,0.038,0.278,-5.337
0.189,0.040,0.280,-5.337
0.243,0.036,0.283,-5.337
0.257,0.034,0.286,-5.337
0.222,0.035,0.287,-5.337
0.177,0.036,0.284,-5.337
0.216,0.034,0.281,-5.337
0.240,0.036,0.279,-5.337
0.199,0.036,0.282,-5.337
0.234,0.032,0.285,-5.337
0.303,0.032,0.284,-5.337
0.285,0.035,0.284,-5.337
0.196,0.037,0.281,-5.337
0.167,0.037,0.284,-5.337
0.278,0.033,0.284,-5.337
0.311,0.034,0.285,-5.337
0.209,0.036,0.281,-5.337
0.120,0.038,0.279,-5.337
0.198,0.033,0.280,-5.337
0.263,0.030,0.282,-5.337
0.232,0.031,0.284,-5.337
0.190,0.032,0.289,-5.337
0.242,0.032,0.289,-5.337
0.305,0.029,0.287,-5.337
0.191,0.036,0.285,-5.337
0.104,0.039,0.285,-5.337
0.171,0.033,0.284,-5.337
0.212,0.033,0.281,-5.337
0.174,0.034,0.277,-5.337
0.177,0.034,0.278,-5.337
0.214,0.031,0.286,-5.337
0.177,0.033,0.292,-5.337
0.175,0.033,0.289,-5.337
0.215,0.032,0.284,-5.337
0.168,0.030,0.283,-5.337
0.059,0.033,0.285,-5.337
0.092,0.034,0.286,-5.337
0.178,0.036,0.283,-5.337
0.194,0.039,0.285,-5.337
0.167,0.038,0.286,-5.337
0.174,0.034,0.287,-5.337
0.088,0.037,0.285,-5.337
0.086,0.036,0.286,-5.337
0.144,0.031,0.288,-5.337
0.117,0.035,0.287,-5.337
0.051,0.037,0.286,-5.337
0.144,0.036,0.287,-5.337
0.249,0.034,0.286,-5.337
0.195,0.034,0.288,-5.337
0.142,0.033,0.288,-5.337
0.169,0.030,0.286,-5.337
0.203,0.029,0.284,-5.337
0.194,0.032,0.281,-5.337
0.231,0.031,0.281,-5.337
0.257,0.026,0.281,-5.337
0.222,0.028,0.285,-5.337
0.187,0.031,0.284,-5.337
0.172,0.035,0.286,-5.337
0.186,0.028,0.288,-5.337
0.138,0.030,0.287,-5.337
0.151,0.033,0.287,-5.337
0.186,0.033,0.292,-5.337
0.189,0.033,0.291,-5.337
0.146,0.032,0.287,-5.337
0.230,0.028,0.284,-5.337
0.263,0.029,0.288,-5.337
0.229,0.030,0.287,-5.337
0.235,0.030,0.288,-5.337
0.173,0.029,0.290,-5.337
0.117,0.033,0.289,-5.337
0.146,0.032,0.285,-5.337
0.205,0.032,0.282,-5.337
0.221,0.030,0.281,-5.337
0.209,0.030,0.283,-5.337
0.220,0.030,0.284,-5.337
0.265,0.030,0.285,-5.337
0.246,0.033,0.287,-5.337
0.167,0.038,0.288,-5.337
0.086,0.040,0.287,-5.337
0.098,0.039,0.282,-5.337
0.117,0.036,0.285,-5.337
0.078,0.034,0.286,-5.337
0.081,0.034,0.285,-5.337
0.119,0.036,0.285,-5.337
0.120,0.036,0.287,-5.337
0.081,0.035,0.287,-5.337
0.139,0.033,0.288,-5.337
0.205,0.033,0.287,-5.337
0.216,0.032,0.286,-5.337
0.200,0.032,0.283,-5.337
0.215,0.033,0.284,-5.337
0.194,0.036,0.287,-5.337
0.174,0.036,0.289,-5.337
0.168,0.035,0.284,-5.337
0.118,0.035,0.281,-5.337
0.105,0.033,0.282,-5.337
0.126,0.033,0.282,-5.337
0.158,0.033,0.282,-5.337
0.156,0.030,0.282,-5.337
0.179,0.031,0.286,-5.337
0.161,0.033,0.286,-5.337
0.192,0.033,0.282,-5.337
0.156,0.038,0.282,-5.337
0.095,0.040,0.285,-5.337
0.136,0.036,0.282,-5.337
0.245,0.035,0.281,-5.337
0.237,0.036,0.280,-5.337
0.220,0.034,0.282,-5.337
0.221,0.033,0.281,-5.337
0.145,0.036,0.285,-5.337
0.100,0.036,0.288,-5.337
0.114,0.036,0.285,-5.337
0.106,0.035,0.283,-5.337
0.126,0.041,0.281,-5.337
0.121,0.043,0.282,-5.337
0.107,0.043,0.282,-5.337
0.161,0.039,0.280,-5.337
0.171,0.036,0.278,-5.337
0.142,0.036,0.279,-5.337
0.184,0.034,0.280,-5.337
0.242,0.033,0.280,-5.337
0.174,0.037,0.282,-5.337
0.164,0.034,0.283,-5.337
0.177,0.036,0.280,-5.337
0.136,0.036,0.282,-5.337
0.139,0.035,0.284,-5.337
0.146,0.034,0.289,-5.337
0.187,0.039,0.287,-5.337
0.228,0.039,0.282,-5.337
0.259,0.036,0.278,-5.337
0.231,0.034,0.282,-5.337
0.186,0.035,0.287,-5.337
0.106,0.040,0.287,-5.337
0.102,0.041,0.283,-5.337
0.180,0.038,0.281,-5.337
0.270,0.033,0.282,-5.337
0.306,0.033,0.282,-5.337
0.241,0.041,0.282,-5.337
0.165,0.039,0.284,-5.337
0.177,0.041,0.283,-5.337
0.162,0.044,0.281,-5.337
0.086,0.048,0.282,-5.337
0.103,0.044,0.282,-5.337
0.183,0.039,0.286,-5.337
0.194,0.042,0.287,-5.337
0.154,0.046,0.286,-5.337
0.081,0.048,0.282,-5.337
0.098,0.044,0.281,-5.337
0.117,0.041,0.280,-5.337
0.129,0.042,0.281,-5.337
0.165,0.043,0.283,-5.337
0.203,0.045,0.283,-5.337
0.127,0.044,0.283,-5.337
0.111,0.044,0.285,-5.337
0.150,0.042,0.284,-5.337
0.171,0.041,0.281,-5.337
0.196,0.038,0.277,-5.337
0.165,0.043,0.278,-5.337
0.126,0.047,0.280,-5.337
0.207,0.046,0.279,-5.337
0.262,0.043,0.280,-5.337
0.129,0.050,0.289,-5.337
0.049,0.053,0.292,-5.337
0.144,0.047,0.289,-5.337
0.241,0.042,0.284,-5.337
0.199,0.043,0.280,-5.337
0.157,0.044,0.281,-5.337
0.158,0.047,0.282,-5.337
0.216,0.044,0.282,-5.337
0.227,0.044,0.280,-5.337
0.170,0.046,0.280,-5.337
0.132,0.047,0.281,-5.337
0.149,0.049,0.286,-5.337
0.194,0.051,0.285,-5.337
0.208,0.050,0.282,-5.337
0.193,0.046,0.280,-5.337
0.303,0.041,0.283,-5.337
0.305,0.042,0.287,-5.337
0.221,0.042,0.287,-5.337
0.253,0.042,0.281,-5.337
0.245,0.040,0.278,-5.337
0.191,0.043,0.277,-5.337
0.121,0.049,0.280,-5.337
0.148,0.051,0.281,-5.337
0.210,0.050,0.283,-5.337
0.221,0.048,0.284,-5.337
0.156,0.053,0.283,-5.337
0.119,0.052,0.280,-5.337
0.111,0.049,0.278,-5.337
0.181,0.046,0.278,-5.337
0.231,0.045,0.274,-5.337
0.263,0.049,0.277,-5.337
0.187,0.055,0.281,-5.337
0.097,0.058,0.281,-5.337
0.157,0.053,0.280,-5.337
0.216,0.052,0.281,-5.337
0.195,0.053,0.281,-5.337
0.211,0.055,0.284,-5.337
0.188,0.052,0.284,-5.337
0.107,0.052,0.286,-5.337
0.156,0.050,0.287,-5.337
0.245,0.049,0.288,-5.337
0.289,0.051,0.285,-5.337
0.255,0.051,0.282,-5.337
0.225,0.049,0.280,-5.337
0.251,0.048,0.279,-5.337
0.216,0.050,0.282,-5.337
0.200,0.052,0.282,-5.337
0.171,0.053,0.276,-5.337
0.118,0.054,0.277,-5.337
0.107,0.058,0.282,-5.337
0.098,0.059,0.286,-5.337
0.154,0.056,0.285,-5.337
0.219,0.054,0.282,-5.337
0.201,0.052,0.284,-5.337
0.197,0.052,0.286,-5.337
0.210,0.050,0.284,-5.337
0.196,0.052,0.280,-5.337
0.194,0.054,0.280,-5.337
0.232,0.052,0.281,-5.337
0.232,0.052,0.282,-5.337
0.253,0.051,0.280,-5.337
0.274,0.053,0.280,-5.337
0.236,0.050,0.279,-5.337
0.229,0.048,0.276,-5.337
0.282,0.050,0.280,-5.337
0.269,0.051,0.284,-5.337
0.225,0.050,0.282,-5.337
0.181,0.054,0.280,-5.337
0.177,0.056,0.282,-5.337
0.155,0.053,0.281,-5.337
0.097,0.051,0.280,-5.337
0.124,0.050,0.278,-5.337
0.258,0.051,0.280,-5.337
0.317,0.052,0.279,-5.337
0.253,0.050,0.276,-5.337
0.241,0.051,0.275,-5.337
0.201,0.056,0.280,-5.337
0.217,0.056,0.284,-5.337
0.192,0.056,0.288,-5.337
0.170,0.057,0.285,-5.337
0.198,0.061,0.283,-5.337
0.180,0.060,0.281,-5.337
0.174,0.056,0.280,-5.337
0.198,0.056,0.281,-5.337
0.218,0.054,0.283,-5.337
0.240,0.054,0.283,-5.337
0.285,0.056,0.277,-5.337
0.278,0.055,0.275,-5.337
0.208,0.058,0.278,-5.337
0.165,0.058,0.282,-5.337
0.205,0.056,0.280,-5.337
0.298,0.053,0.279,-5.337
0.267,0.059,0.278,-5.337
0.129,0.063,0.280,-5.337
0.059,0.064,0.279,-5.337
0.124,0.057,0.277,-5.337
0.211,0.054,0.277,-5.337
0.261,0.057,0.282,-5.337
0.302,0.056,0.281,-5.337
0.322,0.054,0.282,-5.337
0.267,0.053,0.280,-5.337
0.258,0.052,0.278,-5.337
0.283,0.055,0.278,-5.337
0.210,0.061,0.281,-5.337
0.137,0.062,0.280,-5.337
0.174,0.058,0.280,-5.337
0.281,0.057,0.281,-5.337
0.281,0.058,0.279,-5.337
0.185,0.060,0.276,-5.337
0.193,0.059,0.276,-5.337
0.243,0.057,0.275,-5.337
0.339,0.052,0.280,-5.337
0.379,0.054,0.285,-5.337
0.342,0.056,0.284,-5.337
0.249,0.057,0.280,-5.337
0.224,0.057,0.279,-5.337
0.188,0.058,0.282,-5.337
0.175,0.059,0.278,-5.337
0.184,0.058,0.278,-5.337
0.181,0.060,0.278,-5.337
0.220,0.058,0.276,-5.337
0.252,0.055,0.272,-5.337
0.230,0.057,0.277,-5.337
0.248,0.055,0.281,-5.337
0.210,0.057,0.283,-5.337
0.171,0.060,0.281,-5.337
0.202,0.059,0.278,-5.337
0.216,0.061,0.278,-5.337
0.237,0.061,0.282,-5.337
0.205,0.058,0.282,-5.337
0.164,0.055,0.278,-5.337
0.190,0.051,0.276,-5.337
0.254,0.052,0.277,-5.337
0.213,0.052,0.283,-5.337
0.147,0.054,0.286,-5.337
0.192,0.054,0.285,-5.337
0.251,0.060,0.284,-5.337
0.237,0.060,0.281,-5.337
0.251,0.061,0.281,-5.337
0.256,0.059,0.283,-5.337
0.249,0.063,0.279,-5.337
0.286,0.060,0.280,-5.337
0.284,0.059,0.282,-5.337
0.279,0.059,0.283,-5.337
0.310,0.060,0.278,-5.337
0.288,0.062,0.280,-5.337
0.204,0.064,0.283,-5.337
0.176,0.062,0.285,-5.337
0.249,0.057,0.281,-5.337
0.332,0.058,0.282,-5.337
0.331,0.061,0.284,-5.337
0.314,0.061,0.286,-5.337
0.259,0.062,0.289,-5.337
0.235,0.063,0.290,-5.337
0.236,0.057,0.288,-5.337
0.255,0.057,0.283,-5.337
0.222,0.059,0.279,-5.337
0.251,0.059,0.276,-5.337
0.305,0.056,0.279,-5.337
0.340,0.055,0.282,-5.337
0.246,0.057,0.287,-5.337
0.188,0.057,0.287,-5.337
0.216,0.057,0.289,-5.337
0.343,0.054,0.287,-5.337
0.367,0.056,0.284,-5.337
0.282,0.057,0.282,-5.337
0.240,0.060,0.283,-5.337
0.210,0.059,0.285,-5.337
0.187,0.058,0.287,-5.337
0.159,0.055,0.286,-5.337
0.168,0.054,0.283,-5.337
0.177,0.050,0.281,-5.337
0.245,0.054,0.283,-5.337
0.269,0.055,0.283,-5.337
0.196,0.060,0.284,-5.337
0.189,0.060,0.287,-5.337
0.230,0.061,0.289,-5.337
0.271,0.059,0.288,-5.337
0.325,0.059,0.283,-5.337
0.385,0.054,0.281,-5.337
0.408,0.052,0.282,-5.337
0.309,0.055,0.283,-5.337
0.206,0.058,0.288,-5.337
0.162,0.062,0.290,-5.337
0.153,0.063,0.287,-5.337
0.230,0.062,0.288,-5.337
0.279,0.064,0.286,-5.337
0.254,0.061,0.284,-5.337
0.199,0.060,0.278,-5.337
0.246,0.058,0.281,-5.337
0.306,0.058,0.279,-5.337
0.284,0.062,0.278,-5.337
0.205,0.064,0.280,-5.337
0.188,0.062,0.285,-5.337
0.223,0.059,0.288,-5.337
0.248,0.059,0.289,-5.337
0.224,0.059,0.286,-5.337
0.178,0.061,0.282,-5.337
0.198,0.065,0.282,-5.337
0.236,0.062,0.283,-5.337
0.203,0.061,0.282,-5.337
0.235,0.059,0.284,-5.337
0.305,0.061,0.285,-5.337
0.242,0.062,0.287,-5.337
0.244,0.059,0.289,-5.337
0.256,0.056,0.286,-5.337
0.206,0.060,0.281,-5.337
0.191,0.059,0.274,-5.337
0.177,0.056,0.274,-5.337
0.185,0.056,0.275,-5.337
0.188,0.060,0.283,-5.337
0.174,0.062,0.288,-5.337
0.213,0.061,0.291,-5.337
0.267,0.055,0.290,-5.337
0.318,0.054,0.286,-5.337
0.272,0.053,0.282,-5.337
0.241,0.056,0.279,-5.337
0.228,0.056,0.276,-5.337
0.224,0.058,0.278,-5.337
0.205,0.057,0.281,-5.337
0.215,0.054,0.282,-5.337
0.225,0.051,0.278,-5.337
0.218,0.050,0.278,-5.337
0.212,0.051,0.284,-5.337
0.255,0.054,0.288,-5.337
0.240,0.056,0.288,-5.337
0.196,0.053,0.283,-5.337
0.179,0.054,0.277,-5.337
0.183,0.056,0.272,-5.337
0.242,0.053,0.277,-5.337
0.320,0.052,0.283,-5.337
0.294,0.053,0.284,-5.337
0.240,0.054,0.283,-5.337
0.234,0.051,0.285,-5.337
0.234,0.052,0.285,-5.337
0.161,0.054,0.283,-5.337
0.242,0.047,0.284,-5.337
0.357,0.045,0.282,-5.337
0.315,0.050,0.282,-5.337
0.261,0.049,0.283,-5.337
0.256,0.049,0.280,-5.337
0.268,0.048,0.276,-5.337
0.246,0.048,0.276,-5.337
0.252,0.046,0.281,-5.337
0.272,0.049,0.284,-5.337
0.241,0.047,0.285,-5.337
0.227,0.046,0.284,-5.337
0.243,0.048,0.282,-5.337
0.298,0.049,0.281,-5.337
0.220,0.052,0.278,-5.337
0.115,0.054,0.278,-5.337
0.091,0.055,0.280,-5.337
0.123,0.055,0.284,-5.337
0.146,0.054,0.284,-5.337
0.209,0.051,0.285,-5.337
0.206,0.049,0.284,-5.337
0.183,0.049,0.282,-5.337
0.194,0.045,0.282,-5.337
0.180,0.048,0.284,-5.337
0.170,0.046,0.285,-5.337
0.213,0.047,0.284,-5.337
0.255,0.047,0.282,-5.337
0.280,0.047,0.281,-5.337
0.323,0.047,0.280,-5.337
0.301,0.048,0.280,-5.337
0.230,0.048,0.279,-5.337
0.217,0.051,0.280,-5.337
0.241,0.050,0.282,-5.337
0.258,0.048,0.283,-5.337
0.237,0.048,0.282,-5.337
0.235,0.049,0.280,-5.337
0.213,0.047,0.277,-5.337
0.206,0.044,0.275,-5.337
0.264,0.040,0.282,-5.337
0.302,0.039,0.285,-5.337
0.273,0.040,0.285,-5.337
0.202,0.041,0.285,-5.337
0.137,0.044,0.286,-5.337
0.176,0.044,0.283,-5.337
0.236,0.042,0.284,-5.337
0.258,0.041,0.285,-5.337
0.211,0.042,0.282,-5.337
0.182,0.040,0.279,-5.337
0.180,0.042,0.281,-5.337
0.209,0.042,0.279,-5.337
0.273,0.041,0.279,-5.337
0.271,0.040,0.278,-5.337
0.226,0.042,0.279,-5.337
0.228,0.040,0.283,-5.337
0.188,0.041,0.287,-5.337
0.097,0.046,0.283,-5.337
0.094,0.048,0.282,-5.337
0.149,0.050,0.283,-5.337
0.198,0.050,0.282,-5.337
0.212,0.047,0.284,-5.337
0.219,0.046,0.282,-5.337
0.210,0.047,0.280,-5.337
0.238,0.040,0.278,-5.337
0.277,0.037,0.278,-5.337
0.275,0.041,0.280,-5.337
0.267,0.042,0.281,-5.337
0.303,0.037,0.281,-5.337
0.345,0.036,0.280,-5.337
0.262,0.042,0.281,-5.337
0.126,0.047,0.282,-5.337
0.125,0.043,0.285,-5.337
0.147,0.040,0.290,-5.337
0.146,0.042,0.289,-5.337
0.198,0.042,0.286,-5.337
0.236,0.041,0.284,-5.337
0.238,0.041,0.285,-5.337
0.280,0.039,0.280,-5.337
0.262,0.040,0.275,-5.337
0.218,0.038,0.277,-5.337
0.187,0.039,0.279,-5.337
0.246,0.038,0.281,-5.337
0.248,0.040,0.279,-5.337
0.175,0.036,0.277,-5.337
0.221,0.033,0.279,-5.337
0.285,0.031,0.282,-5.337
0.254,0.035,0.283,-5.337
0.160,0.038,0.285,-5.337
0.096,0.038,0.282,-5.337
0.072,0.040,0.279,-5.337
0.080,0.037,0.275,-5.337
0.146,0.039,0.275,-5.337
0.194,0.040,0.275,-5.337
0.238,0.040,0.278,-5.337
0.215,0.039,0.282,-5.337
0.193,0.041,0.286,-5.337
0.234,0.038,0.286,-5.337
0.256,0.040,0.280,-5.337
0.246,0.036,0.280,-5.337
0.184,0.038,0.285,-5.337
0.200,0.039,0.284,-5.337
0.256,0.041,0.280,-5.337
0.229,0.038,0.278,-5.337
0.145,0.040,0.279,-5.337
0.187,0.040,0.282,-5.337
0.253,0.041,0.283,-5.337
0.222,0.046,0.282,-5.337
0.149,0.044,0.284,-5.337
0.154,0.044,0.283,-5.337
0.175,0.040,0.276,-5.337
0.216,0.042,0.276,-5.337
0.191,0.041,0.276,-5.337
0.176,0.041,0.278,-5.337
0.158,0.042,0.279,-5.337
0.218,0.041,0.282,-5.337
0.254,0.036,0.281,-5.337
0.210,0.036,0.284,-5.337
0.147,0.038,0.282,-5.337
0.194,0.039,0.278,-5.337
0.205,0.041,0.274,-5.337
0.148,0.042,0.274,-5.337
0.088,0.041,0.277,-5.337
0.118,0.041,0.282,-5.337
0.158,0.041,0.283,-5.337
0.190,0.042,0.281,-5.337
0.186,0.042,0.281,-5.337
0.191,0.042,0.280,-5.337
0.208,0.043,0.280,-5.337
0.214,0.041,0.276,-5.337
0.251,0.040,0.274,-5.337
0.261,0.040,0.277,-5.337
0.216,0.042,0.281,-5.337
0.164,0.047,0.281,-5.337
0.162,0.050,0.284,-5.337
0.164,0.047,0.285,-5.337
0.125,0.046,0.286,-5.337
0.144,0.042,0.283,-5.337
0.228,0.043,0.280,-5.337
0.212,0.040,0.278,-5.337
0.159,0.038,0.278,-5.337
0.167,0.038,0.277,-5.337
0.179,0.041,0.277,-5.337
0.151,0.040,0.272,-5.337
0.158,0.039,0.270,-5.337
0.195,0.036,0.275,-5.337
0.210,0.035,0.278,-5.337
0.237,0.032,0.278,-5.337
0.231,0.034,0.279,-5.337
0.183,0.037,0.281,-5.337
0.134,0.036,0.283,-5.337
0.179,0.032,0.284,-5.337
0.236,0.032,0.279,-5.337
0.268,0.033,0.277,-5.337
0.156,0.037,0.280,-5.337
0.165,0.035,0.284,-5.337
0.207,0.036,0.278,-5.337
0.211,0.034,0.275,-5.337
0.208,0.036,0.274,-5.337
0.180,0.040,0.276,-5.337
0.158,0.037,0.278,-5.337
0.114,0.039,0.282,-5.337
0.079,0.042,0.283,-5.337
0.075,0.040,0.280,-5.337
0.156,0.034,0.276,-5.337
0.182,0.033,0.279,-5.337
0.221,0.036,0.280,-5.337
0.200,0.042,0.277,-5.337
0.223,0.036,0.275,-5.337
0.210,0.036,0.272,-5.337
0.132,0.036,0.276,-5.337
0.076,0.036,0.280,-5.337
0.155,0.036,0.278,-5.337
0.230,0.032,0.272,-5.337
0.200,0.031,0.275,-5.337
0.178,0.037,0.284,-5.337
0.164,0.037,0.288,-5.337
0.180,0.030,0.283,-5.337
0.142,0.034,0.280,-5.337
0.158,0.033,0.277,-5.337
0.142,0.034,0.281,-5.337
0.104,0.034,0.279,-5.337
0.192,0.030,0.276,-5.337
0.201,0.032,0.274,-5.337
0.236,0.034,0.278,-5.337
0.216,0.033,0.279,-5.337
0.164,0.033,0.277,-5.337
0.173,0.035,0.276,-5.337
0.194,0.038,0.280,-5.337
0.159,0.039,0.284,-5.337
0.138,0.038,0.286,-5.337
0.153,0.035,0.283,-5.337
0.100,0.034,0.282,-5.337
0.134,0.031,0.282,-5.337
0.148,0.034,0.281,-5.337
0.104,0.036,0.278,-5.337
0.134,0.034,0.276,-5.337
0.185,0.030,0.278,-5.337
0.184,0.033,0.277,-5.337
0.217,0.030,0.275,-5.337
0.266,0.030,0.276,-5.337
0.233,0.031,0.278,-5.337
0.195,0.029,0.278,-5.337
0.213,0.033,0.281,-5.337
0.147,0.038,0.282,-5.337
0.164,0.037,0.282,-5.337
0.232,0.035,0.282,-5.337
0.264,0.036,0.280,-5.337
0.226,0.035,0.278,-5.337
0.174,0.034,0.277,-5.337
0.171,0.033,0.275,-5.337
0.208,0.033,0.275,-5.337
0.191,0.034,0.279,-5.337
0.158,0.038,0.280,-5.337
0.118,0.036,0.280,-5.337
0.083,0.036,0.282,-5.337
0.157,0.031,0.283,-5.337
0.211,0.036,0.284,-5.337
0.147,0.037,0.282,-5.337
0.156,0.035,0.275,-5.337
0.182,0.034,0.273,-5.337
0.204,0.035,0.276,-5.337
0.196,0.036,0.283,-5.337
0.112,0.038,0.283,-5.337
0.062,0.037,0.283,-5.337
0.130,0.033,0.280,-5.337
0.245,0.035,0.274,-5.337
0.183,0.036,0.272,-5.337
0.096,0.038,0.275,-5.337
0.129,0.036,0.277,-5.337
0.183,0.037,0.280,-5.337
0.255,0.037,0.281,-5.337
0.263,0.037,0.278,-5.337
0.184,0.039,0.278,-5.337
0.145,0.045,0.280,-5.337
0.207,0.043,0.279,-5.337
0.261,0.042,0.278,-5.337
0.177,0.045,0.274,-5.337
0.110,0.046,0.271,-5.337
0.114,0.042,0.278,-5.337
0.184,0.041,0.283,-5.337
0.196,0.039,0.282,-5.337
0.204,0.042,0.278,-5.337
0.138,0.049,0.279,-5.337
0.099,0.050,0.274,-5.337
0.091,0.048,0.272,-5.337
0.153,0.043,0.272,-5.337
0.210,0.044,0.278,-5.337
0.181,0.043,0.280,-5.337
0.134,0.041,0.277,-5.337
0.114,0.040,0.276,-5.337
0.101,0.041,0.277,-5.337
0.084,0.039,0.273,-5.337
0.163,0.037,0.278,-5.337
0.212,0.041,0.282,-5.337
0.177,0.044,0.282,-5.337
0.139,0.045,0.280,-5.337
0.152,0.044,0.279,-5.337
0.147,0.044,0.277,-5.337
0.145,0.043,0.274,-5.337
0.148,0.041,0.273,-5.337
0.207,0.041,0.274,-5.337
0.171,0.044,0.273,-5.337
0.143,0.044,0.269,-5.337
0.077,0.046,0.271,-5.337
0.085,0.045,0.274,-5.337
0.229,0.044,0.279,-5.337
0.207,0.043,0.280,-5.337
0.167,0.044,0.281,-5.337
0.196,0.044,0.282,-5.337
0.186,0.050,0.281,-5.337
0.175,0.048,0.276,-5.337
0.187,0.050,0.274,-5.337
0.218,0.049,0.276,-5.337
0.211,0.052,0.275,-5.337
0.161,0.052,0.273,-5.337
0.113,0.054,0.277,-5.337
0.084,0.052,0.281,-5.337
0.125,0.052,0.280,-5.337
0.171,0.053,0.277,-5.337
0.210,0.058,0.275,-5.337
0.219,0.053,0.276,-5.337
0.188,0.053,0.276,-5.337
0.164,0.053,0.275,-5.337
0.202,0.055,0.274,-5.337
0.253,0.056,0.277,-5.337
0.266,0.057,0.277,-5.337
0.234,0.056,0.280,-5.337
0.230,0.053,0.276,-5.337
0.197,0.054,0.274,-5.337
0.194,0.055,0.272,-5.337
0.228,0.057,0.278,-5.337
0.150,0.057,0.282,-5.337
0.172,0.055,0.280,-5.337
0.173,0.053,0.274,-5.337
0.185,0.050,0.273,-5.337
0.194,0.049,0.274,-5.337
0.167,0.053,0.275,-5.337
0.160,0.054,0.277,-5.337
0.177,0.054,0.277,-5.337
0.213,0.051,0.275,-5.337
0.201,0.049,0.276,-5.337
0.169,0.053,0.278,-5.337
0.136,0.056,0.277,-5.337
0.129,0.054,0.276,-5.337
0.152,0.050,0.277,-5.337
0.155,0.049,0.282,-5.337
0.125,0.055,0.281,-5.337
0.186,0.056,0.280,-5.337
0.238,0.052,0.277,-5.337
0.255,0.050,0.278,-5.337
0.215,0.051,0.276,-5.337
0.218,0.051,0.278,-5.337
0.226,0.051,0.274,-5.337
0.222,0.051,0.273,-5.337
0.160,0.054,0.272,-5.337
0.111,0.056,0.276,-5.337
0.159,0.052,0.280,-5.337
0.207,0.051,0.284,-5.337
0.194,0.050,0.280,-5.337
0.187,0.049,0.277,-5.337
0.217,0.051,0.277,-5.337
0.245,0.052,0.279,-5.337
0.213,0.054,0.279,-5.337
0.153,0.056,0.277,-5.337
0.246,0.057,0.276,-5.337
0.299,0.055,0.272,-5.337
0.254,0.053,0.269,-5.337
0.233,0.052,0.274,-5.337
0.296,0.049,0.278,-5.337
0.328,0.050,0.277,-5.337
0.260,0.050,0.280,-5.337
0.244,0.047,0.276,-5.337
0.251,0.047,0.272,-5.337
0.226,0.051,0.267,-5.337
0.190,0.051,0.270,-5.337
0.193,0.050,0.275,-5.337
0.249,0.052,0.278,-5.337
0.230,0.055,0.277,-5.337
0.189,0.056,0.279,-5.337
0.184,0.054,0.277,-5.337
0.172,0.057,0.278,-5.337
0.144,0.059,0.277,-5.337
0.143,0.057,0.275,-5.337
0.184,0.057,0.273,-5.337
0.250,0.060,0.275,-5.337
0.258,0.058,0.276,-5.337
0.297,0.056,0.274,-5.337
0.357,0.054,0.270,-5.337
0.323,0.054,0.269,-5.337
0.213,0.055,0.276,-5.337
0.187,0.054,0.278,-5.337
0.177,0.055,0.280,-5.337
0.198,0.055,0.279,-5.337
0.180,0.056,0.276,-5.337
0.187,0.050,0.273,-5.337
0.206,0.051,0.280,-5.337
0.211,0.050,0.281,-5.337
0.247,0.052,0.281,-5.337
0.231,0.050,0.278,-5.337
0.256,0.047,0.275,-5.337
0.269,0.048,0.272,-5.337
0.216,0.054,0.277,-5.337
0.151,0.054,0.278,-5.337
0.152,0.054,0.276,-5.337
0.134,0.056,0.274,-5.337
0.140,0.056,0.273,-5.337
0.182,0.052,0.277,-5.337
0.182,0.049,0.281,-5.337
0.182,0.049,0.278,-5.337
0.193,0.053,0.275,-5.337
0.286,0.050,0.276,-5.337
0.244,0.051,0.277,-5.337
0.191,0.054,0.279,-5.337
0.222,0.055,0.276,-5.337
0.265,0.056,0.273,-5.337
0.254,0.058,0.274,-5.337
0.280,0.054,0.277,-5.337
0.224,0.053,0.277,-5.337
0.266,0.054,0.275,-5.337
0.266,0.053,0.270,-5.337
0.198,0.057,0.270,-5.337
0.222,0.055,0.276,-5.337
0.280,0.054,0.279,-5.337
0.260,0.054,0.278,-5.337
0.229,0.054,0.275,-5.337
0.299,0.053,0.275,-5.337
0.363,0.053,0.280,-5.337
0.326,0.057,0.282,-5.337
0.237,0.057,0.280,-5.337
0.180,0.057,0.278,-5.337
0.160,0.058,0.274,-5.337
0.114,0.061,0.275,-5.337
0.149,0.063,0.277,-5.337
0.210,0.063,0.274,-5.337
0.243,0.058,0.272,-5.337
0.213,0.053,0.273,-5.337
0.228,0.053,0.274,-5.337
0.246,0.056,0.276,-5.337
0.216,0.059,0.277,-5.337
0.215,0.057,0.277,-5.337
0.283,0.058,0.272,-5.337
0.308,0.061,0.271,-5.337
0.208,0.059,0.276,-5.337
0.177,0.058,0.277,-5.337
0.221,0.059,0.274,-5.337
0.243,0.061,0.274,-5.337
0.229,0.059,0.278,-5.337
0.319,0.055,0.279,-5.337
0.348,0.055,0.278,-5.337
0.323,0.056,0.282,-5.337
0.338,0.055,0.282,-5.337
0.247,0.062,0.280,-5.337
0.155,0.065,0.280,-5.337
0.277,0.062,0.277,-5.337
0.321,0.065,0.273,-5.337
0.292,0.065,0.272,-5.337
0.255,0.063,0.279,-5.337
0.243,0.063,0.278,-5.337
0.272,0.063,0.277,-5.337
0.247,0.065,0.276,-5.337
0.171,0.068,0.277,-5.337
0.207,0.067,0.273,-5.337
0.212,0.066,0.274,-5.337
0.222,0.064,0.275,-5.337
0.216,0.064,0.277,-5.337
0.223,0.065,0.274,-5.337
0.263,0.063,0.274,-5.337
0.261,0.061,0.276,-5.337
0.267,0.062,0.283,-5.337
0.233,0.062,0.281,-5.337
0.138,0.063,0.277,-5.337
0.116,0.061,0.274,-5.337
0.174,0.060,0.276,-5.337
0.211,0.065,0.277,-5.337
0.205,0.066,0.280,-5.337
0.227,0.065,0.281,-5.337
0.234,0.065,0.281,-5.337
0.244,0.063,0.280,-5.337
0.223,0.060,0.276,-5.337
0.186,0.060,0.273,-5.337
0.199,0.059,0.272,-5.337
0.249,0.057,0.278,-5.337
0.313,0.061,0.285,-5.337
0.307,0.065,0.286,-5.337
0.265,0.060,0.279,-5.337
0.262,0.055,0.277,-5.337
0.258,0.058,0.277,-5.337
0.255,0.063,0.280,-5.337
0.308,0.062,0.283,-5.337
0.287,0.062,0.283,-5.337
0.215,0.062,0.278,-5.337
0.186,0.063,0.276,-5.337
0.233,0.061,0.278,-5.337
0.262,0.066,0.275,-5.337
0.251,0.068,0.274,-5.337
0.304,0.066,0.274,-5.337
0.312,0.064,0.277,-5.337
0.310,0.064,0.282,-5.337
0.303,0.066,0.283,-5.337
0.281,0.067,0.282,-5.337
0.237,0.066,0.276,-5.337
0.224,0.065,0.276,-5.337
0.267,0.060,0.280,-5.337
0.262,0.060,0.278,-5.337
0.213,0.064,0.273,-5.337
0.260,0.065,0.269,-5.337
0.339,0.063,0.272,-5.337
0.264,0.065,0.278,-5.337
0.133,0.067,0.284,-5.337
0.185,0.062,0.281,-5.337
0.272,0.061,0.279,-5.337
0.225,0.062,0.280,-5.337
0.199,0.063,0.282,-5.337
0.239,0.059,0.278,-5.337
0.255,0.059,0.279,-5.337
0.198,0.060,0.280,-5.337
0.180,0.057,0.280,-5.337
0.180,0.062,0.280,-5.337
0.200,0.061,0.281,-5.337
0.172,0.062,0.278,-5.337
0.203,0.058,0.275,-5.337
0.250,0.057,0.277,-5.337
0.221,0.062,0.278,-5.337
0.234,0.059,0.278,-5.337
0.278,0.056,0.278,-5.337
0.255,0.055,0.281,-5.337
0.278,0.056,0.282,-5.337
0.257,0.059,0.283,-5.337
0.251,0.058,0.282,-5.337
0.246,0.060,0.279,-5.337
0.252,0.057,0.277,-5.337
0.242,0.057,0.275,-5.337
0.251,0.053,0.274,-5.337
0.296,0.056,0.277,-5.337
0.272,0.059,0.279,-5.337
0.251,0.060,0.280,-5.337
0.197,0.058,0.282,-5.337
0.275,0.048,0.281,-5.337
0.338,0.047,0.277,-5.337
0.271,0.051,0.274,-5.337
0.195,0.056,0.275,-5.337
0.224,0.052,0.276,-5.337
0.277,0.048,0.277,-5.337
0.251,0.043,0.279,-5.337
0.228,0.043,0.278,-5.337
0.256,0.047,0.274,-5.337
0.248,0.050,0.275,-5.337
0.251,0.047,0.276,-5.337
0.273,0.047,0.279,-5.337
0.266,0.048,0.275,-5.337
0.289,0.052,0.275,-5.337
0.247,0.054,0.277,-5.337
0.191,0.055,0.280,-5.337
0.194,0.053,0.281,-5.337
0.223,0.052,0.281,-5.337
0.237,0.051,0.279,-5.337
0.221,0.055,0.277,-5.337
0.218,0.054,0.277,-5.337
0.247,0.055,0.277,-5.337
0.236,0.054,0.277,-5.337
0.155,0.053,0.280,-5.337
0.127,0.048,0.279,-5.337
0.181,0.048,0.274,-5.337
0.185,0.048,0.270,-5.337
0.224,0.049,0.272,-5.337
0.243,0.048,0.278,-5.337
0.200,0.051,0.281,-5.337
0.177,0.051,0.282,-5.337
0.265,0.046,0.279,-5.337
0.303,0.044,0.279,-5.337
0.262,0.047,0.277,-5.337
0.263,0.047,0.277,-5.337
0.253,0.047,0.277,-5.337
0.216,0.045,0.275,-5.337
0.243,0.043,0.272,-5.337
0.242,0.043,0.272,-5.337
0.229,0.046,0.274,-5.337
0.240,0.048,0.279,-5.337
0.221,0.047,0.282,-5.337
0.186,0.047,0.281,-5.337
0.195,0.044,0.279,-5.337
0.174,0.046,0.279,-5.337
0.120,0.048,0.275,-5.337
0.121,0.048,0.270,-5.337
0.141,0.047,0.274,-5.337
0.144,0.045,0.281,-5.337
0.227,0.045,0.285,-5.337
0.226,0.044,0.282,-5.337
0.193,0.043,0.280,-5.337
0.209,0.042,0.278,-5.337
0.209,0.041,0.275,-5.337
0.278,0.037,0.273,-5.337
0.266,0.039,0.277,-5.337
0.195,0.043,0.275,-5.337
0.219,0.039,0.276,-5.337
0.290,0.038,0.274,-5.337
0.258,0.042,0.272,-5.337
0.249,0.042,0.269,-5.337
0.243,0.042,0.274,-5.337
0.196,0.041,0.280,-5.337
0.162,0.042,0.283,-5.337
0.163,0.044,0.283,-5.337
0.192,0.045,0.280,-5.337
0.244,0.046,0.276,-5.337
0.181,0.051,0.276,-5.337
0.170,0.051,0.275,-5.337
0.202,0.050,0.277,-5.337
0.219,0.046,0.276,-5.337
0.235,0.046,0.278,-5.337
0.188,0.047,0.282,-5.337
0.129,0.049,0.280,-5.337
0.152,0.049,0.278,-5.337
0.213,0.050,0.278,-5.337
0.219,0.053,0.278,-5.337
0.180,0.051,0.276,-5.337
0.155,0.050,0.279,-5.337
0.113,0.050,0.280,-5.337
0.148,0.047,0.280,-5.337
0.206,0.044,0.276,-5.337
0.266,0.043,0.275,-5.337
0.246,0.042,0.274,-5.337
0.183,0.042,0.274,-5.337
0.212,0.043,0.277,-5.337
0.282,0.046,0.279,-5.337
0.239,0.047,0.280,-5.337
0.187,0.049,0.277,-5.337
0.214,0.048,0.275,-5.337
0.239,0.042,0.277,-5.337
0.165,0.039,0.278,-5.337
0.183,0.041,0.280,-5.337
0.234,0.044,0.278,-5.337
0.205,0.045,0.277,-5.337
0.188,0.045,0.277,-5.337
0.181,0.045,0.281,-5.337
0.175,0.043,0.283,-5.337
0.226,0.045,0.280,-5.337
0.258,0.043,0.277,-5.337
0.283,0.038,0.278,-5.337
0.270,0.037,0.282,-5.337
0.254,0.041,0.280,-5.337
0.198,0.042,0.276,-5.337
0.144,0.043,0.273,-5.337
0.174,0.041,0.274,-5.337
0.212,0.042,0.274,-5.337
0.242,0.043,0.276,-5.337
0.222,0.042,0.274,-5.337
0.186,0.041,0.275,-5.337
0.188,0.043,0.280,-5.337
0.201,0.043,0.281,-5.337
0.222,0.039,0.279,-5.337
0.263,0.037,0.277,-5.337
0.277,0.040,0.279,-5.337
0.258,0.042,0.281,-5.337
0.213,0.041,0.283,-5.337
0.190,0.040,0.282,-5.337
0.145,0.041,0.281,-5.337
0.168,0.038,0.281,-5.337
0.241,0.037,0.279,-5.337
0.246,0.038,0.278,-5.337
0.225,0.037,0.280,-5.337
0.218,0.036,0.279,-5.337
0.200,0.038,0.275,-5.337
0.169,0.040,0.275,-5.337
0.164,0.042,0.279,-5.337
0.144,0.042,0.278,-5.337
0.102,0.042,0.276,-5.337
0.127,0.044,0.276,-5.337
0.082,0.048,0.279,-5.337
0.109,0.047,0.280,-5.337
0.203,0.041,0.280,-5.337
0.239,0.036,0.278,-5.337
0.198,0.039,0.276,-5.337
0.151,0.038,0.273,-5.337
0.207,0.040,0.273,-5.337
0.235,0.039,0.276,-5.337
0.229,0.039,0.278,-5.337
0.265,0.041,0.278,-5.337
0.216,0.042,0.278,-5.337
0.142,0.040,0.276,-5.337
0.187,0.039,0.275,-5.337
0.144,0.041,0.277,-5.337
0.112,0.040,0.276,-5.337
0.084,0.041,0.281,-5.337
0.078,0.042,0.286,-5.337
0.070,0.042,0.288,-5.337
0.137,0.043,0.281,-5.337
0.178,0.041,0.276,-5.337
0.248,0.035,0.271,-5.337
0.256,0.035,0.274,-5.337
0.226,0.036,0.279,-5.337
0.249,0.034,0.284,-5.337
0.255,0.032,0.285,-5.337
0.152,0.037,0.283,-5.337
0.120,0.038,0.280,-5.337
0.167,0.040,0.279,-5.337
0.126,0.041,0.277,-5.337
0.093,0.039,0.278,-5.337
0.181,0.038,0.280,-5.337
0.206,0.035,0.281,-5.337
0.195,0.036,0.274,-5.337
0.205,0.039,0.271,-5.337
0.216,0.040,0.274,-5.337
0.209,0.040,0.280,-5.337
0.182,0.040,0.284,-5.337
0.137,0.041,0.281,-5.337
0.175,0.036,0.275,-5.337
0.211,0.040,0.274,-5.337
0.167,0.041,0.277,-5.337
0.162,0.038,0.275,-5.337
0.090,0.041,0.275,-5.337
0.150,0.038,0.279,-5.337
0.224,0.034,0.282,-5.337
0.166,0.033,0.281,-5.337
0.143,0.035,0.278,-5.337
0.161,0.035,0.275,-5.337
0.143,0.038,0.277,-5.337
0.183,0.031,0.280,-5.337
0.225,0.029,0.283,-5.337
0.177,0.029,0.282,-5.337
0.069,0.031,0.278,-5.337
0.076,0.032,0.274,-5.337
0.072,0.036,0.274,-5.337
0.090,0.035,0.277,-5.337
0.115,0.036,0.280,-5.337
0.146,0.034,0.278,-5.337
0.189,0.036,0.276,-5.337
0.219,0.035,0.280,-5.337
0.191,0.034,0.282,-5.337
0.176,0.033,0.282,-5.337
0.208,0.038,0.279,-5.337
0.195,0.034,0.281,-5.337
0.227,0.032,0.279,-5.337
0.228,0.033,0.279,-5.337
0.267,0.031,0.276,-5.337
0.212,0.035,0.274,-5.337
0.111,0.034,0.273,-5.337
0.081,0.033,0.275,-5.337
0.132,0.032,0.278,-5.337
0.148,0.033,0.280,-5.337
0.141,0.031,0.282,-5.337
0.161,0.029,0.280,-5.337
0.144,0.030,0.277,-5.337
0.118,0.033,0.275,-5.337
0.059,0.035,0.280,-5.337
0.117,0.034,0.284,-5.337
0.221,0.032,0.279,-5.337
0.206,0.032,0.272,-5.337
0.129,0.031,0.272,-5.337
0.084,0.030,0.275,-5.337
0.111,0.031,0.279,-5.337
0.148,0.030,0.279,-5.337
0.117,0.031,0.281,-5.337
0.096,0.032,0.283,-5.337
0.132,0.034,0.285,-5.337
0.135,0.033,0.285,-5.337
0.140,0.034,0.283,-5.337
0.107,0.030,0.280,-5.337
0.092,0.030,0.280,-5.337
0.144,0.031,0.280,-5.337
0.139,0.028,0.281,-5.337
0.103,0.031,0.284,-5.337
0.060,0.034,0.285,-5.337
0.103,0.033,0.279,-5.337
0.234,0.032,0.272,-5.337
0.229,0.036,0.273,-5.337
0.105,0.038,0.280,-5.337
0.129,0.039,0.280,-5.337
0.126,0.038,0.275,-5.337
0.098,0.033,0.277,-5.337
0.137,0.034,0.277,-5.337
0.194,0.035,0.276,-5.337
0.165,0.038,0.283,-5.337
0.140,0.037,0.290,-5.337
0.173,0.036,0.285,-5.337
0.187,0.036,0.281,-5.337
0.172,0.034,0.277,-5.337
0.210,0.032,0.277,-5.337
0.198,0.033,0.277,-5.337
0.147,0.035,0.280,-5.337
0.104,0.039,0.280,-5.337
0.101,0.039,0.280,-5.337
0.149,0.037,0.278,-5.337
0.150,0.038,0.279,-5.337
0.099,0.039,0.281,-5.337
0.067,0.038,0.283,-5.337
0.059,0.038,0.283,-5.337
0.080,0.035,0.281,-5.337
0.182,0.036,0.278,-5.337
0.215,0.035,0.276,-5.337
0.183,0.034,0.277,-5.337
0.160,0.038,0.278,-5.337
0.201,0.037,0.278,-5.337
0.197,0.039,0.281,-5.337
0.137,0.040,0.280,-5.337
0.139,0.039,0.278,-5.337
0.179,0.037,0.279,-5.337
0.214,0.035,0.281,-5.337
0.204,0.038,0.280,-5.337
0.181,0.039,0.279,-5.337
0.176,0.041,0.280,-5.337
0.201,0.042,0.284,-5.337
0.233,0.041,0.286,-5.337
0.226,0.037,0.279,-5.337
0.167,0.038,0.275,-5.337
0.078,0.041,0.280,-5.337
0.036,0.044,0.284,-5.337
0.104,0.039,0.281,-5.337
0.150,0.040,0.280,-5.337
0.198,0.036,0.279,-5.337
0.258,0.037,0.278,-5.337
0.223,0.041,0.277,-5.337
0.160,0.042,0.280,-5.337
0.219,0.041,0.281,-5.337
0.212,0.042,0.280,-5.337
0.140,0.042,0.277,-5.337
0.138,0.040,0.277,-5.337
0.192,0.040,0.281,-5.337
0.235,0.040,0.279,-5.337
0.244,0.043,0.277,-5.337
0.258,0.042,0.277,-5.337
0.218,0.042,0.280,-5.337
0.136,0.041,0.279,-5.337
0.191,0.036,0.279,-5.337
0.243,0.036,0.279,-5.337
0.247,0.038,0.281,-5.337
0.164,0.037,0.278,-5.337
0.153,0.038,0.276,-5.337
0.145,0.040,0.278,-5.337
0.123,0.041,0.278,-5.337
0.110,0.038,0.280,-5.337
0.157,0.038,0.281,-5.337
0.170,0.038,0.281,-5.337
0.209,0.042,0.280,-5.337
0.233,0.044,0.279,-5.337
0.200,0.045,0.276,-5.337
0.133,0.048,0.276,-5.337
0.111,0.048,0.277,-5.337
0.114,0.047,0.277,-5.337
0.173,0.046,0.276,-5.337
0.222,0.047,0.279,-5.337
0.204,0.047,0.281,-5.337
0.194,0.043,0.278,-5.337
0.200,0.045,0.273,-5.337
0.200,0.049,0.274,-5.337
0.212,0.046,0.274,-5.337
0.155,0.046,0.280,-5.337
0.121,0.047,0.281,-5.337
0.215,0.042,0.281,-5.337
0.288,0.039,0.279,-5.337
0.240,0.046,0.277,-5.337
0.138,0.050,0.277,-5.337
0.080,0.048,0.279,-5.337
0.093,0.046,0.279,-5.337
0.142,0.049,0.279,-5.337
0.217,0.046,0.280,-5.337
0.223,0.047,0.279,-5.337
0.193,0.047,0.274,-5.337
0.193,0.045,0.272,-5.337
0.243,0.043,0.280,-5.337
0.338,0.043,0.284,-5.337
0.270,0.044,0.282,-5.337
0.191,0.044,0.280,-5.337
0.162,0.041,0.282,-5.337
0.188,0.046,0.279,-5.337
0.262,0.048,0.277,-5.337
0.288,0.046,0.276,-5.337
0.247,0.045,0.276,-5.337
0.238,0.049,0.278,-5.337
0.226,0.051,0.280,-5.337
0.208,0.049,0.281,-5.337
0.192,0.049,0.280,-5.337
0.193,0.051,0.277,-5.337
0.194,0.050,0.274,-5.337
0.210,0.049,0.274,-5.337
0.206,0.047,0.274,-5.337
0.192,0.050,0.275,-5.337
0.215,0.050,0.278,-5.337
0.251,0.050,0.280,-5.337
0.198,0.052,0.279,-5.337
0.149,0.050,0.274,-5.337
0.172,0.050,0.274,-5.337
0.184,0.049,0.279,-5.337
0.175,0.052,0.278,-5.337
0.192,0.050,0.281,-5.337
0.237,0.048,0.282,-5.337
0.331,0.044,0.282,-5.337
0.300,0.048,0.277,-5.337
0.182,0.049,0.275,-5.337
0.207,0.044,0.275,-5.337
0.242,0.047,0.280,-5.337
0.199,0.050,0.280,-5.337
0.203,0.051,0.280,-5.337
0.183,0.045,0.276,-5.337
0.187,0.044,0.277,-5.337
0.163,0.045,0.275,-5.337
0.188,0.045,0.272,-5.337
0.285,0.043,0.273,-5.337
0.301,0.046,0.279,-5.337
0.213,0.051,0.281,-5.337
0.147,0.052,0.280,-5.337
0.236,0.047,0.278,-5.337
0.243,0.047,0.278,-5.337
0.230,0.049,0.279,-5.337
0.192,0.051,0.276,-5.337
0.182,0.052,0.271,-5.337
0.113,0.051,0.270,-5.337
0.099,0.053,0.274,-5.337
0.160,0.054,0.278,-5.337
0.224,0.053,0.279,-5.337
0.240,0.054,0.276,-5.337
0.216,0.052,0.278,-5.337
0.224,0.053,0.280,-5.337
0.220,0.054,0.281,-5.337
0.222,0.055,0.278,-5.337
0.250,0.055,0.276,-5.337
0.213,0.056,0.274,-5.337
0.216,0.056,0.274,-5.337
0.254,0.050,0.276,-5.337
0.318,0.048,0.276,-5.337
0.331,0.050,0.276,-5.337
0.333,0.051,0.276,-5.337
0.234,0.050,0.278,-5.337
0.194,0.050,0.279,-5.337
0.161,0.053,0.280,-5.337
0.125,0.053,0.279,-5.337
0.178,0.049,0.277,-5.337
0.204,0.051,0.275,-5.337
0.221,0.056,0.280,-5.337
0.209,0.055,0.280,-5.337
0.183,0.054,0.280,-5.337
0.229,0.052,0.276,-5.337
0.232,0.056,0.276,-5.337
0.244,0.057,0.279,-5.337
0.263,0.058,0.283,-5.337
0.197,0.058,0.280,-5.337
0.194,0.056,0.277,-5.337
0.300,0.054,0.273,-5.337
0.331,0.051,0.272,-5.337
0.274,0.052,0.275,-5.337
0.165,0.060,0.277,-5.337
0.164,0.056,0.278,-5.337
0.255,0.056,0.279,-5.337
0.280,0.059,0.278,-5.337
0.276,0.059,0.277,-5.337
0.284,0.058,0.277,-5.337
0.301,0.056,0.274,-5.337
0.325,0.054,0.273,-5.337
0.249,0.056,0.276,-5.337
0.209,0.057,0.282,-5.337
0.285,0.054,0.282,-5.337
0.223,0.057,0.281,-5.337
0.116,0.060,0.277,-5.337
0.160,0.057,0.276,-5.337
0.226,0.054,0.274,-5.337
0.255,0.053,0.278,-5.337
0.297,0.056,0.279,-5.337
0.277,0.059,0.277,-5.337
0.199,0.056,0.275,-5.337
0.216,0.055,0.279,-5.337
0.261,0.058,0.284,-5.337
0.274,0.060,0.282,-5.337
0.280,0.058,0.277,-5.337
0.301,0.054,0.274,-5.337
0.286,0.053,0.277,-5.337
0.280,0.053,0.281,-5.337
0.313,0.056,0.281,-5.337
0.209,0.059,0.276,-5.337
0.182,0.058,0.273,-5.337
0.255,0.060,0.276,-5.337
0.299,0.063,0.277,-5.337
0.277,0.063,0.275,-5.337
0.260,0.060,0.276,-5.337
0.233,0.054,0.277,-5.337
0.187,0.057,0.277,-5.337
0.165,0.060,0.275,-5.337
0.181,0.058,0.276,-5.337
0.241,0.057,0.278,-5.337
0.238,0.059,0.280,-5.337
0.260,0.060,0.281,-5.337
0.255,0.061,0.282,-5.337
0.263,0.058,0.280,-5.337
0.258,0.059,0.278,-5.337
0.264,0.059,0.283,-5.337
0.287,0.058,0.281,-5.337
0.272,0.057,0.277,-5.337
0.210,0.057,0.278,-5.337
0.257,0.057,0.277,-5.337
0.310,0.060,0.276,-5.337
0.265,0.061,0.279,-5.337
0.271,0.058,0.278,-5.337
0.301,0.053,0.276,-5.337
0.233,0.057,0.274,-5.337
0.201,0.059,0.275,-5.337
0.236,0.059,0.275,-5.337
0.237,0.058,0.276,-5.337
0.268,0.056,0.277,-5.337
0.286,0.057,0.279,-5.337
0.239,0.058,0.279,-5.337
0.255,0.061,0.277,-5.337
0.300,0.057,0.276,-5.337
0.327,0.056,0.277,-5.337
0.267,0.057,0.275,-5.337
0.211,0.061,0.273,-5.337
0.225,0.062,0.276,-5.337
0.240,0.060,0.281,-5.337
0.252,0.059,0.281,-5.337
0.272,0.063,0.277,-5.337
0.260,0.064,0.278,-5.337
0.220,0.060,0.283,-5.337
0.248,0.060,0.284,-5.337
0.273,0.060,0.282,-5.337
0.296,0.058,0.280,-5.337
0.305,0.056,0.278,-5.337
0.289,0.054,0.274,-5.337
0.290,0.052,0.273,-5.337
0.338,0.053,0.278,-5.337
0.296,0.057,0.278,-5.337
0.259,0.060,0.279,-5.337
0.228,0.063,0.274,-5.337
0.195,0.061,0.275,-5.337
0.216,0.061,0.277,-5.337
0.170,0.066,0.278,-5.337
0.138,0.064,0.275,-5.337
0.172,0.060,0.274,-5.337
0.230,0.056,0.275,-5.337
0.244,0.054,0.279,-5.337
0.230,0.054,0.284,-5.337
0.265,0.052,0.289,-5.337
0.228,0.052,0.292,-5.337
0.192,0.056,0.287,-5.337
0.190,0.056,0.277,-5.337
0.228,0.054,0.271,-5.337
0.255,0.053,0.271,-5.337
0.208,0.057,0.272,-5.337
0.250,0.054,0.276,-5.337
0.294,0.051,0.277,-5.337
0.238,0.054,0.280,-5.337
0.163,0.057,0.282,-5.337
0.224,0.054,0.282,-5.337
0.277,0.054,0.279,-5.337
0.234,0.056,0.275,-5.337
0.222,0.054,0.275,-5.337
0.244,0.053,0.280,-5.337
0.263,0.052,0.282,-5.337
0.271,0.051,0.283,-5.337
0.286,0.048,0.281,-5.337
0.302,0.049,0.277,-5.337
0.282,0.048,0.275,-5.337
0.254,0.044,0.278,-5.337
0.261,0.041,0.278,-5.337
0.277,0.045,0.277,-5.337
0.318,0.048,0.279,-5.337
0.369,0.045,0.278,-5.337
0.330,0.044,0.279,-5.337
0.231,0.051,0.279,-5.337
0.156,0.055,0.279,-5.337
0.167,0.049,0.280,-5.337
0.177,0.046,0.278,-5.337
0.205,0.047,0.276,-5.337
0.216,0.049,0.282,-5.337
0.201,0.047,0.284,-5.337
0.199,0.042,0.282,-5.337
0.219,0.042,0.275,-5.337
0.220,0.044,0.274,-5.337
0.292,0.039,0.275,-5.337
0.322,0.039,0.282,-5.337
0.292,0.041,0.284,-5.337
0.337,0.041,0.283,-5.337
0.299,0.043,0.281,-5.337
0.181,0.045,0.281,-5.337
0.210,0.041,0.281,-5.337
0.315,0.040,0.280,-5.337
0.264,0.042,0.280,-5.337
0.193,0.041,0.280,-5.337
0.180,0.040,0.281,-5.337
0.219,0.040,0.281,-5.337
0.280,0.042,0.280,-5.337
0.240,0.042,0.278,-5.337
0.193,0.043,0.279,-5.337
0.223,0.046,0.277,-5.337
0.273,0.042,0.276,-5.337
0.204,0.040,0.277,-5.337
0.197,0.039,0.275,-5.337
0.164,0.041,0.277,-5.337
0.109,0.044,0.279,-5.337
0.137,0.044,0.278,-5.337
0.154,0.044,0.280,-5.337
0.179,0.043,0.281,-5.337
0.262,0.041,0.277,-5.337
0.288,0.038,0.277,-5.337
0.250,0.038,0.280,-5.337
0.208,0.041,0.280,-5.337
0.203,0.042,0.279,-5.337
0.217,0.042,0.280,-5.337
0.261,0.042,0.279,-5.337
0.272,0.041,0.280,-5.337
0.324,0.037,0.280,-5.337
0.337,0.038,0.277,-5.337
0.241,0.040,0.274,-5.337
0.229,0.042,0.275,-5.337
0.247,0.042,0.280,-5.337
0.238,0.042,0.282,-5.337
0.187,0.043,0.279,-5.337
0.202,0.039,0.277,-5.337
0.244,0.038,0.275,-5.337
0.293,0.038,0.274,-5.337
0.220,0.043,0.276,-5.337
0.180,0.042,0.281,-5.337
0.232,0.041,0.278,-5.337
0.235,0.044,0.274,-5.337
0.258,0.042,0.273,-5.337
0.211,0.039,0.276,-5.337
0.198,0.037,0.275,-5.337
0.293,0.037,0.276,-5.337
0.270,0.040,0.279,-5.337
0.184,0.042,0.284,-5.337
0.194,0.041,0.284,-5.337
0.183,0.043,0.279,-5.337
0.177,0.040,0.273,-5.337
0.248,0.035,0.271,-5.337
0.265,0.036,0.275,-5.337
0.213,0.041,0.279,-5.337
0.213,0.043,0.280,-5.337
0.244,0.042,0.279,-5.337
0.239,0.042,0.282,-5.337
0.214,0.043,0.284,-5.337
0.183,0.042,0.284,-5.337
0.148,0.042,0.281,-5.337
0.159,0.040,0.278,-5.337
0.143,0.038,0.272,-5.337
0.117,0.040,0.272,-5.337
0.132,0.038,0.274,-5.337
0.223,0.035,0.276,-5.337
0.266,0.031,0.278,-5.337
0.249,0.032,0.279,-5.337
0.204,0.031,0.281,-5.337
0.169,0.034,0.280,-5.337
0.203,0.037,0.280,-5.337
0.210,0.037,0.278,-5.337
0.214,0.037,0.274,-5.337
0.231,0.037,0.273,-5.337
0.224,0.039,0.274,-5.337
0.199,0.041,0.274,-5.337
0.168,0.041,0.272,-5.337
0.155,0.038,0.270,-5.337
0.210,0.037,0.274,-5.337
0.220,0.039,0.279,-5.337
0.237,0.038,0.285,-5.337
0.249,0.040,0.283,-5.337
0.196,0.042,0.280,-5.337
0.188,0.042,0.278,-5.337
0.224,0.038,0.280,-5.337
0.204,0.036,0.280,-5.337
0.191,0.039,0.279,-5.337
0.182,0.043,0.276,-5.337
0.227,0.042,0.273,-5.337
0.250,0.042,0.273,-5.337
0.232,0.040,0.277,-5.337
0.152,0.040,0.281,-5.337
0.172,0.042,0.281,-5.337
0.255,0.036,0.279,-5.337
0.246,0.037,0.278,-5.337
0.216,0.039,0.278,-5.337
0.228,0.037,0.278,-5.337
0.205,0.040,0.275,-5.337
0.228,0.040,0.276,-5.337
0.215,0.038,0.279,-5.337
0.200,0.038,0.282,-5.337
0.232,0.039,0.283,-5.337
0.225,0.039,0.274,-5.337
0.174,0.040,0.272,-5.337
0.136,0.040,0.275,-5.337
0.181,0.041,0.280,-5.337
0.169,0.043,0.281,-5.337
0.128,0.045,0.279,-5.337
0.099,0.045,0.278,-5.337
0.092,0.042,0.279,-5.337
0.074,0.038,0.278,-5.337
0.138,0.040,0.275,-5.337
0.173,0.038,0.271,-5.337
0.251,0.035,0.272,-5.337
0.289,0.037,0.276,-5.337
0.281,0.040,0.276,-5.337
0.250,0.038,0.272,-5.337
0.222,0.039,0.272,-5.337
0.233,0.041,0.276,-5.337
0.214,0.043,0.281,-5.337
0.212,0.043,0.281,-5.337
0.203,0.042,0.278,-5.337
0.229,0.038,0.276,-5.337
0.194,0.036,0.277,-5.337
0.102,0.038,0.280,-5.337
0.080,0.040,0.278,-5.337
0.067,0.044,0.274,-5.337
0.046,0.049,0.271,-5.337
0.113,0.047,0.274,-5.337
0.166,0.045,0.276,-5.337
0.186,0.044,0.281,-5.337
0.196,0.041,0.280,-5.337
0.126,0.044,0.280,-5.337
0.155,0.044,0.273,-5.337
0.272,0.042,0.270,-5.337
0.254,0.043,0.272,-5.337
0.184,0.044,0.278,-5.337
0.174,0.043,0.277,-5.337
0.154,0.040,0.275,-5.337
0.170,0.041,0.276,-5.337
0.196,0.042,0.281,-5.337
0.219,0.041,0.280,-5.337
0.213,0.041,0.276,-5.337
0.236,0.043,0.273,-5.337
0.289,0.041,0.272,-5.337
0.220,0.041,0.275,-5.337
0.145,0.042,0.279,-5.337
0.181,0.042,0.279,-5.337
0.205,0.044,0.277,-5.337
0.176,0.042,0.278,-5.337
0.123,0.042,0.277,-5.337
0.120,0.043,0.276,-5.337
0.144,0.044,0.274,-5.337
0.188,0.046,0.279,-5.337
0.178,0.046,0.283,-5.337
0.150,0.046,0.281,-5.337
0.204,0.041,0.279,-5.337
0.248,0.039,0.278,-5.337
0.253,0.039,0.277,-5.337
0.256,0.040,0.275,-5.337
0.210,0.038,0.275,-5.337
0.213,0.038,0.280,-5.337
0.256,0.036,0.281,-5.337
0.243,0.034,0.278,-5.337
0.242,0.032,0.275,-5.337
0.274,0.036,0.274,-5.337
0.255,0.042,0.275,-5.337
0.207,0.041,0.276,-5.337
0.160,0.035,0.278,-5.337
0.083,0.041,0.277,-5.337
0.095,0.043,0.278,-5.337
0.137,0.043,0.274,-5.337
0.185,0.041,0.275,-5.337
0.182,0.039,0.279,-5.337
0.160,0.043,0.280,-5.337
0.088,0.047,0.278,-5.337
0.035,0.048,0.274,-5.337
0.032,0.045,0.271,-5.337
0.152,0.042,0.274,-5.337
0.179,0.041,0.275,-5.337
0.180,0.040,0.275,-5.337
0.207,0.043,0.277,-5.337
0.174,0.042,0.279,-5.337
0.160,0.040,0.280,-5.337
0.160,0.043,0.280,-5.337
0.168,0.044,0.277,-5.337
0.180,0.044,0.274,-5.337
0.139,0.046,0.274,-5.337
0.102,0.044,0.273,-5.337
0.127,0.044,0.276,-5.337
0.186,0.044,0.277,-5.337
0.180,0.044,0.278,-5.337
0.208,0.042,0.278,-5.337
0.233,0.042,0.278,-5.337
0.172,0.042,0.282,-5.337
0.187,0.045,0.285,-5.337
0.199,0.044,0.279,-5.337
0.218,0.039,0.278,-5.337
0.251,0.037,0.274,-5.337
0.194,0.041,0.271,-5.337
0.110,0.043,0.273,-5.337
0.132,0.045,0.274,-5.337
0.145,0.044,0.273,-5.337
0.133,0.048,0.278,-5.337
0.170,0.049,0.282,-5.337
0.188,0.048,0.281,-5.337
0.213,0.047,0.280,-5.337
0.100,0.048,0.279,-5.337
0.057,0.046,0.280,-5.337
0.118,0.046,0.280,-5.337
0.177,0.043,0.277,-5.337
0.149,0.042,0.275,-5.337
0.116,0.042,0.276,-5.337
0.112,0.042,0.280,-5.337
0.183,0.043,0.282,-5.337
0.203,0.043,0.280,-5.337
0.162,0.045,0.280,-5.337
0.187,0.046,0.277,-5.337
0.216,0.046,0.275,-5.337
0.175,0.046,0.276,-5.337
0.144,0.042,0.276,-5.337
0.188,0.041,0.272,-5.337
0.182,0.045,0.276,-5.337
0.136,0.047,0.280,-5.337
0.139,0.048,0.281,-5.337
0.166,0.048,0.276,-5.337
0.177,0.048,0.270,-5.337
0.147,0.046,0.274,-5.337
0.081,0.047,0.280,-5.337
0.099,0.047,0.284,-5.337
0.192,0.043,0.286,-5.337
0.224,0.044,0.288,-5.337
0.126,0.051,0.285,-5.337
0.058,0.051,0.278,-5.337
0.135,0.048,0.273,-5.337
0.164,0.047,0.274,-5.337
0.190,0.045,0.276,-5.337
0.188,0.047,0.280,-5.337
0.112,0.051,0.285,-5.337
0.097,0.048,0.284,-5.337
0.184,0.043,0.280,-5.337
0.206,0.040,0.281,-5.337
0.229,0.043,0.277,-5.337
0.234,0.044,0.275,-5.337
0.192,0.047,0.275,-5.337
0.178,0.047,0.279,-5.337
0.153,0.048,0.279,-5.337
0.152,0.050,0.280,-5.337
0.149,0.050,0.279,-5.337
0.182,0.049,0.278,-5.337
0.188,0.048,0.279,-5.337
0.123,0.051,0.282,-5.337
0.087,0.052,0.281,-5.337
0.123,0.050,0.280,-5.337
0.135,0.050,0.280,-5.337
0.228,0.045,0.281,-5.337
0.258,0.046,0.280,-5.337
0.204,0.047,0.279,-5.337
0.157,0.048,0.278,-5.337
0.136,0.046,0.281,-5.337
0.126,0.043,0.281,-5.337
0.141,0.043,0.278,-5.337
0.127,0.045,0.278,-5.337
0.143,0.045,0.280,-5.337
0.186,0.045,0.283,-5.337
0.206,0.046,0.281,-5.337
0.159,0.048,0.278,-5.337
0.141,0.048,0.277,-5.337
0.182,0.045,0.279,-5.337
0.245,0.042,0.283,-5.337
0.207,0.044,0.284,-5.337
0.176,0.050,0.282,-5.337
0.216,0.051,0.282,-5.337
0.231,0.046,0.283,-5.337
0.225,0.045,0.280,-5.337
0.208,0.047,0.276,-5.337
0.141,0.050,0.276,-5.337
0.122,0.049,0.280,-5.337
0.167,0.050,0.280,-5.337
0.194,0.050,0.277,-5.337
0.196,0.048,0.275,-5.337
0.205,0.047,0.280,-5.337
0.253,0.050,0.282,-5.337
0.215,0.055,0.282,-5.337
0.192,0.055,0.279,-5.337
0.192,0.056,0.280,-5.337
0.186,0.053,0.278,-5.337
0.186,0.052,0.276,-5.337
0.142,0.051,0.276,-5.337
0.202,0.053,0.276,-5.337
0.198,0.052,0.275,-5.337
0.173,0.054,0.279,-5.337
0.180,0.054,0.280,-5.337
0.191,0.055,0.279,-5.337
0.178,0.054,0.276,-5.337
0.186,0.054,0.275,-5.337
0.242,0.050,0.278,-5.337
0.278,0.052,0.282,-5.337
0.236,0.056,0.282,-5.337
0.185,0.058,0.282,-5.337
0.163,0.057,0.284,-5.337
0.180,0.054,0.284,-5.337
0.191,0.056,0.281,-5.337
0.234,0.054,0.278,-5.337
0.206,0.055,0.278,-5.337
0.155,0.056,0.274,-5.337
0.138,0.057,0.273,-5.337
0.206,0.054,0.274,-5.337
0.350,0.051,0.276,-5.337
0.336,0.057,0.279,-5.337
0.193,0.060,0.278,-5.337
0.189,0.055,0.278,-5.337
0.212,0.055,0.278,-5.337
0.199,0.056,0.280,-5.337
0.192,0.059,0.280,-5.337
0.191,0.059,0.275,-5.337
0.240,0.058,0.272,-5.337
0.229,0.058,0.275,-5.337
0.188,0.061,0.275,-5.337
0.165,0.063,0.272,-5.337
0.174,0.062,0.277,-5.337
0.184,0.060,0.283,-5.337
0.210,0.059,0.285,-5.337
0.253,0.060,0.281,-5.337
0.249,0.062,0.274,-5.337
0.240,0.065,0.273,-5.337
0.183,0.064,0.277,-5.337
0.172,0.065,0.280,-5.337
0.239,0.063,0.279,-5.337
0.294,0.061,0.280,-5.337
0.325,0.059,0.280,-5.337
0.217,0.063,0.282,-5.337
0.189,0.059,0.278,-5.337
0.223,0.057,0.278,-5.337
0.244,0.060,0.276,-5.337
0.210,0.061,0.279,-5.337
0.195,0.059,0.282,-5.337
0.126,0.064,0.281,-5.337
0.098,0.065,0.278,-5.337
0.121,0.066,0.280,-5.337
0.138,0.062,0.282,-5.337
0.193,0.057,0.280,-5.337
0.197,0.061,0.275,-5.337
0.151,0.061,0.275,-5.337
0.132,0.058,0.276,-5.337
0.187,0.061,0.277,-5.337
0.232,0.062,0.277,-5.337
0.296,0.061,0.279,-5.337
0.337,0.059,0.279,-5.337
0.304,0.059,0.276,-5.337
0.254,0.059,0.276,-5.337
0.276,0.060,0.276,-5.337
0.228,0.060,0.276,-5.337
0.184,0.057,0.275,-5.337
0.226,0.059,0.276,-5.337
0.275,0.059,0.278,-5.337
0.283,0.055,0.281,-5.337
0.257,0.057,0.279,-5.337
0.230,0.061,0.274,-5.337
0.249,0.061,0.279,-5.337
0.286,0.064,0.283,-5.337
0.166,0.064,0.281,-5.337
0.191,0.059,0.282,-5.337
0.270,0.056,0.284,-5.337
0.327,0.054,0.279,-5.337
0.325,0.057,0.274,-5.337
0.249,0.060,0.276,-5.337
0.264,0.059,0.279,-5.337
0.250,0.063,0.282,-5.337
0.125,0.063,0.280,-5.337
0.096,0.066,0.272,-5.337
0.182,0.063,0.270,-5.337
0.248,0.062,0.271,-5.337
0.229,0.063,0.279,-5.337
0.162,0.067,0.279,-5.337
0.148,0.061,0.278,-5.337
0.235,0.057,0.274,-5.337
0.231,0.059,0.275,-5.337
0.204,0.058,0.280,-5.337
0.191,0.062,0.285,-5.337
0.201,0.060,0.284,-5.337
0.240,0.058,0.282,-5.337
0.276,0.058,0.280,-5.337
0.194,0.061,0.278,-5.337
0.123,0.063,0.276,-5.337
0.182,0.061,0.277,-5.337
0.267,0.058,0.277,-5.337
0.189,0.060,0.280,-5.337
0.167,0.058,0.280,-5.337
0.266,0.056,0.282,-5.337
0.291,0.057,0.284,-5.337
0.254,0.056,0.280,-5.337
0.267,0.057,0.277,-5.337
0.281,0.057,0.274,-5.337
0.280,0.055,0.276,-5.337
0.267,0.058,0.279,-5.337
0.285,0.059,0.281,-5.337
0.279,0.059,0.280,-5.337
0.239,0.060,0.278,-5.337
0.275,0.060,0.275,-5.337
0.309,0.063,0.272,-5.337
0.283,0.064,0.274,-5.337
0.284,0.063,0.278,-5.337
0.294,0.060,0.280,-5.337
0.293,0.059,0.280,-5.337
0.255,0.060,0.280,-5.337
0.188,0.063,0.281,-5.337
0.249,0.057,0.280,-5.337
0.286,0.054,0.279,-5.337
0.298,0.059,0.279,-5.337
0.257,0.066,0.279,-5.337
0.225,0.062,0.277,-5.337
0.266,0.060,0.278,-5.337
0.282,0.061,0.281,-5.337
0.191,0.065,0.280,-5.337
0.136,0.063,0.280,-5.337
0.185,0.060,0.279,-5.337
0.264,0.059,0.279,-5.337
0.309,0.056,0.277,-5.337
0.297,0.055,0.277,-5.337
0.262,0.058,0.278,-5.337
0.221,0.062,0.277,-5.337
0.245,0.060,0.275,-5.337
0.289,0.062,0.278,-5.337
0.308,0.059,0.273,-5.337
0.270,0.059,0.274,-5.337
0.213,0.057,0.278,-5.337
0.210,0.058,0.282,-5.337
0.210,0.054,0.283,-5.337
0.268,0.054,0.278,-5.337
0.286,0.054,0.274,-5.337
0.207,0.058,0.275,-5.337
0.127,0.058,0.278,-5.337
0.188,0.056,0.280,-5.337
0.231,0.057,0.279,-5.337
0.243,0.057,0.277,-5.337
0.220,0.061,0.277,-5.337
0.188,0.063,0.278,-5.337
0.237,0.057,0.282,-5.337
0.274,0.056,0.284,-5.337
0.302,0.057,0.281,-5.337
0.336,0.057,0.274,-5.337
0.339,0.057,0.277,-5.337
0.284,0.057,0.281,-5.337
0.243,0.057,0.283,-5.337
0.259,0.055,0.282,-5.337
0.222,0.058,0.279,-5.337
0.188,0.058,0.278,-5.337
0.173,0.059,0.279,-5.337
0.238,0.056,0.281,-5.337
0.292,0.053,0.280,-5.337
0.301,0.052,0.278,-5.337
0.264,0.055,0.275,-5.337
0.245,0.056,0.273,-5.337
0.269,0.055,0.275,-5.337
0.213,0.055,0.278,-5.337
0.145,0.056,0.278,-5.337
0.100,0.057,0.278,-5.337
0.139,0.056,0.277,-5.337
0.165,0.054,0.278,-5.337
0.189,0.054,0.277,-5.337
0.173,0.056,0.277,-5.337
0.177,0.054,0.278,-5.337
0.267,0.053,0.279,-5.337
0.247,0.054,0.279,-5.337
0.205,0.055,0.280,-5.337
0.239,0.050,0.279,-5.337
0.249,0.052,0.278,-5.337
0.277,0.050,0.280,-5.337
0.306,0.050,0.282,-5.337
0.363,0.044,0.284,-5.337
0.337,0.042,0.283,-5.337
0.271,0.044,0.283,-5.337
0.233,0.046,0.279,-5.337
0.293,0.042,0.276,-5.337
0.283,0.045,0.279,-5.337
0.259,0.045,0.281,-5.337
0.286,0.047,0.279,-5.337
0.192,0.051,0.279,-5.337
0.196,0.045,0.280,-5.337
0.188,0.044,0.281,-5.337
0.175,0.044,0.278,-5.337
0.227,0.047,0.280,-5.337
0.234,0.051,0.277,-5.337
0.288,0.050,0.279,-5.337
0.337,0.050,0.286,-5.337
0.263,0.051,0.292,-5.337
0.138,0.049,0.289,-5.337
0.173,0.047,0.282,-5.337
0.285,0.047,0.274,-5.337
0.331,0.047,0.270,-5.337
0.242,0.051,0.275,-5.337
0.168,0.052,0.280,-5.337
0.153,0.050,0.283,-5.337
0.151,0.049,0.284,-5.337
0.155,0.048,0.280,-5.337
0.218,0.045,0.278,-5.337
0.289,0.046,0.280,-5.337
0.260,0.050,0.285,-5.337
0.209,0.050,0.285,-5.337
0.217,0.046,0.285,-5.337
0.231,0.043,0.287,-5.337
0.253,0.047,0.286,-5.337
0.260,0.049,0.282,-5.337
0.267,0.048,0.279,-5.337
0.224,0.048,0.280,-5.337
0.158,0.052,0.281,-5.337
0.180,0.051,0.282,-5.337
0.248,0.046,0.280,-5.337
0.281,0.046,0.278,-5.337
0.238,0.046,0.278,-5.337
0.213,0.047,0.280,-5.337
0.228,0.048,0.280,-5.337
0.201,0.051,0.278,-5.337
0.154,0.051,0.277,-5.337
0.219,0.046,0.281,-5.337
0.230,0.045,0.287,-5.337
0.161,0.045,0.290,-5.337
0.122,0.047,0.285,-5.337
0.062,0.048,0.279,-5.337
0.125,0.043,0.277,-5.337
0.223,0.043,0.279,-5.337
0.259,0.047,0.281,-5.337
0.250,0.047,0.280,-5.337
0.215,0.044,0.280,-5.337
0.188,0.048,0.284,-5.337
0.132,0.050,0.286,-5.337
0.103,0.054,0.286,-5.337
0.171,0.052,0.282,-5.337
0.211,0.045,0.281,-5.337
0.220,0.046,0.280,-5.337
0.225,0.048,0.278,-5.337
0.226,0.048,0.279,-5.337
0.207,0.048,0.277,-5.337
0.190,0.049,0.279,-5.337
0.192,0.047,0.280,-5.337
0.176,0.047,0.279,-5.337
0.220,0.045,0.277,-5.337
0.178,0.046,0.280,-5.337
0.157,0.046,0.280,-5.337
0.254,0.045,0.279,-5.337
0.287,0.047,0.282,-5.337
0.245,0.050,0.281,-5.337
0.172,0.052,0.277,-5.337
0.168,0.047,0.278,-5.337
0.186,0.043,0.280,-5.337
0.193,0.045,0.281,-5.337
0.159,0.048,0.282,-5.337
0.167,0.046,0.281,-5.337
0.236,0.041,0.283,-5.337
0.225,0.045,0.282,-5.337
0.135,0.049,0.283,-5.337
0.110,0.049,0.280,-5.337
0.131,0.049,0.281,-5.337
0.103,0.050,0.280,-5.337
0.091,0.051,0.283,-5.337
0.130,0.049,0.281,-5.337
0.240,0.043,0.280,-5.337
0.318,0.040,0.279,-5.337
0.280,0.046,0.282,-5.337
0.275,0.043,0.282,-5.337
0.255,0.040,0.281,-5.337
0.168,0.043,0.282,-5.337
0.196,0.045,0.282,-5.337
0.254,0.039,0.277,-5.337
0.274,0.036,0.277,-5.337
0.269,0.038,0.279,-5.337
0.240,0.043,0.280,-5.337
0.224,0.041,0.281,-5.337
0.187,0.040,0.281,-5.337
0.145,0.042,0.279,-5.337
0.214,0.039,0.276,-5.337
0.263,0.040,0.276,-5.337
0.198,0.042,0.274,-5.337
0.134,0.043,0.276,-5.337
0.177,0.040,0.280,-5.337
0.274,0.039,0.280,-5.337
0.267,0.043,0.279,-5.337
0.187,0.044,0.278,-5.337
0.158,0.044,0.280,-5.337
0.212,0.043,0.284,-5.337
0.239,0.043,0.283,-5.337
0.219,0.044,0.280,-5.337
0.193,0.041,0.282,-5.337
0.173,0.042,0.282,-5.337
0.151,0.041,0.279,-5.337
0.108,0.046,0.277,-5.337
0.152,0.044,0.278,-5.337
0.156,0.043,0.279,-5.337
0.175,0.041,0.280,-5.337
0.136,0.040,0.278,-5.337
0.143,0.040,0.279,-5.337
0.133,0.043,0.281,-5.337
0.126,0.040,0.281,-5.337
0.231,0.035,0.279,-5.337
0.251,0.038,0.278,-5.337
0.054,0.042,0.282,-5.337
0.039,0.042,0.286,-5.337
0.120,0.038,0.285,-5.337
0.130,0.039,0.282,-5.337
0.127,0.040,0.278,-5.337
0.198,0.036,0.277,-5.337
0.233,0.038,0.276,-5.337
0.263,0.039,0.275,-5.337
0.195,0.038,0.274,-5.337
0.167,0.040,0.272,-5.337
0.146,0.041,0.275,-5.337
0.192,0.042,0.278,-5.337
0.231,0.039,0.282,-5.337
0.206,0.039,0.285,-5.337
0.171,0.040,0.287,-5.337
0.190,0.038,0.287,-5.337
0.186,0.039,0.284,-5.337
0.143,0.039,0.280,-5.337
0.131,0.042,0.275,-5.337
0.132,0.040,0.274,-5.337
0.176,0.037,0.277,-5.337
0.225,0.040,0.277,-5.337
0.168,0.044,0.276,-5.337
0.090,0.043,0.277,-5.337
0.072,0.043,0.277,-5.337
0.085,0.042,0.275,-5.337
0.111,0.039,0.281,-5.337
0.170,0.034,0.281,-5.337
0.231,0.031,0.275,-5.337
0.167,0.035,0.274,-5.337
0.092,0.038,0.278,-5.337
0.110,0.035,0.280,-5.337
0.133,0.037,0.280,-5.337
0.084,0.039,0.280,-5.337
0.027,0.042,0.281,-5.337
0.005,0.043,0.281,-5.337
0.057,0.038,0.278,-5.337
0.103,0.037,0.275,-5.337
0.102,0.040,0.274,-5.337
0.103,0.034,0.277,-5.337
0.114,0.032,0.280,-5.337
0.140,0.033,0.280,-5.337
0.164,0.033,0.280,-5.337
0.129,0.035,0.282,-5.337
0.169,0.036,0.280,-5.337
0.223,0.034,0.281,-5.337
0.201,0.037,0.281,-5.337
0.220,0.034,0.276,-5.337
0.307,0.031,0.271,-5.337
0.280,0.032,0.272,-5.337
0.209,0.033,0.274,-5.337
0.171,0.033,0.278,-5.337
0.215,0.031,0.278,-5.337
0.238,0.033,0.277,-5.337
0.143,0.036,0.279,-5.337
0.044,0.035,0.282,-5.337
0.100,0.033,0.282,-5.337
0.164,0.036,0.281,-5.337
0.145,0.032,0.282,-5.337
0.133,0.031,0.282,-5.337
0.152,0.033,0.280,-5.337
0.155,0.033,0.279,-5.337
0.125,0.033,0.282,-5.337
0.122,0.032,0.282,-5.337
0.191,0.031,0.278,-5.337
0.161,0.036,0.278,-5.337
0.110,0.038,0.277,-5.337
0.135,0.036,0.274,-5.337
0.158,0.037,0.278,-5.337
0.120,0.035,0.278,-5.337
0.135,0.031,0.277,-5.337
0.253,0.032,0.273,-5.337
0.285,0.035,0.273,-5.337
0.177,0.033,0.273,-5.337
0.182,0.033,0.276,-5.337
0.204,0.032,0.278,-5.337
0.167,0.038,0.279,-5.337
0.138,0.035,0.278,-5.337
0.104,0.037,0.278,-5.337
0.146,0.037,0.278,-5.337
0.136,0.039,0.279,-5.337
0.148,0.034,0.278,-5.337
0.107,0.036,0.281,-5.337
0.066,0.035,0.280,-5.337
0.121,0.031,0.277,-5.337
0.190,0.031,0.278,-5.337
0.189,0.035,0.277,-5.337
0.174,0.036,0.279,-5.337
0.161,0.037,0.277,-5.337
0.143,0.034,0.275,-5.337
0.148,0.037,0.273,-5.337
0.144,0.037,0.274,-5.337
0.184,0.033,0.274,-5.337
0.270,0.034,0.274,-5.337
0.227,0.038,0.275,-5.337
0.190,0.035,0.275,-5.337
0.217,0.031,0.277,-5.337
0.197,0.034,0.280,-5.337
0.194,0.034,0.278,-5.337
0.164,0.035,0.274,-5.337
0.106,0.033,0.273,-5.337
0.108,0.033,0.276,-5.337
0.121,0.040,0.280,-5.337
0.140,0.039,0.281,-5.337
0.166,0.038,0.282,-5.337
0.143,0.039,0.279,-5.337
0.112,0.038,0.276,-5.337
0.190,0.035,0.279,-5.337
0.233,0.033,0.282,-5.337
0.165,0.039,0.280,-5.337
0.116,0.042,0.282,-5.337
0.128,0.040,0.277,-5.337
0.120,0.040,0.273,-5.337
0.206,0.041,0.270,-5.337
0.205,0.040,0.273,-5.337
0.182,0.037,0.279,-5.337
0.157,0.040,0.285,-5.337
0.157,0.040,0.279,-5.337
0.202,0.044,0.276,-5.337
0.166,0.043,0.275,-5.337
0.147,0.046,0.275,-5.337
0.162,0.044,0.277,-5.337
0.190,0.040,0.281,-5.337
0.172,0.043,0.282,-5.337
0.161,0.046,0.278,-5.337
0.199,0.042,0.277,-5.337
0.155,0.044,0.282,-5.337
0.154,0.045,0.281,-5.337
0.240,0.045,0.280,-5.337
0.216,0.041,0.280,-5.337
0.076,0.045,0.279,-5.337
0.072,0.044,0.277,-5.337
0.155,0.044,0.277,-5.337
0.230,0.045,0.277,-5.337
0.217,0.043,0.278,-5.337
0.158,0.044,0.282,-5.337
0.166,0.043,0.282,-5.337
0.169,0.045,0.281,-5.337
0.161,0.045,0.280,-5.337
0.179,0.041,0.277,-5.337
0.241,0.036,0.279,-5.337
0.237,0.042,0.280,-5.337
0.216,0.044,0.279,-5.337
0.193,0.043,0.278,-5.337
0.171,0.044,0.276,-5.337
0.151,0.044,0.277,-5.337
0.177,0.043,0.280,-5.337
0.205,0.042,0.281,-5.337
0.197,0.042,0.279,-5.337
0.185,0.042,0.276,-5.337
0.185,0.039,0.278,-5.337
0.173,0.043,0.281,-5.337
0.183,0.044,0.282,-5.337
0.176,0.041,0.278,-5.337
0.172,0.043,0.276,-5.337
0.095,0.046,0.276,-5.337
0.125,0.044,0.278,-5.337
0.145,0.044,0.277,-5.337
0.125,0.047,0.282,-5.337
0.125,0.048,0.286,-5.337
0.112,0.047,0.283,-5.337
0.120,0.048,0.274,-5.337
0.154,0.049,0.272,-5.337
0.124,0.049,0.276,-5.337
0.115,0.050,0.282,-5.337
0.139,0.052,0.286,-5.337
0.092,0.053,0.287,-5.337
0.085,0.052,0.280,-5.337
0.112,0.052,0.280,-5.337
0.161,0.054,0.285,-5.337
0.251,0.054,0.286,-5.337
0.255,0.052,0.281,-5.337
0.172,0.051,0.284,-5.337
0.148,0.051,0.283,-5.337
0.169,0.059,0.282,-5.337
0.102,0.057,0.280,-5.337
0.140,0.052,0.279,-5.337
0.207,0.051,0.278,-5.337
0.210,0.049,0.277,-5.337
0.184,0.054,0.277,-5.337
0.151,0.054,0.280,-5.337
0.182,0.051,0.281,-5.337
0.214,0.050,0.279,-5.337
0.225,0.049,0.281,-5.337
0.270,0.045,0.283,-5.337
0.259,0.045,0.284,-5.337
0.180,0.048,0.280,-5.337
0.196,0.050,0.280,-5.337
0.182,0.051,0.279,-5.337
0.174,0.050,0.280,-5.337
0.264,0.046,0.281,-5.337
0.319,0.051,0.280,-5.337
0.194,0.057,0.280,-5.337
0.121,0.055,0.281,-5.337
0.200,0.049,0.282,-5.337
0.288,0.049,0.282,-5.337
0.254,0.052,0.280,-5.337
0.274,0.053,0.282,-5.337
0.297,0.051,0.282,-5.337
0.227,0.054,0.282,-5.337
0.118,0.058,0.281,-5.337
0.144,0.053,0.280,-5.337
0.277,0.051,0.280,-5.337
0.274,0.048,0.282,-5.337
0.214,0.046,0.285,-5.337
0.190,0.048,0.282,-5.337
0.174,0.050,0.275,-5.337
0.234,0.048,0.272,-5.337
0.208,0.052,0.277,-5.337
0.176,0.049,0.281,-5.337
0.229,0.045,0.282,-5.337
0.218,0.046,0.282,-5.337
0.231,0.049,0.277,-5.337
0.242,0.049,0.274,-5.337
0.248,0.052,0.276,-5.337
0.220,0.052,0.277,-5.337
0.190,0.050,0.276,-5.337
0.215,0.050,0.277,-5.337
0.198,0.054,0.276,-5.337
0.214,0.058,0.277,-5.337
0.265,0.057,0.280,-5.337
0.211,0.055,0.283,-5.337
0.234,0.052,0.281,-5.337
0.255,0.056,0.278,-5.337
0.209,0.057,0.280,-5.337
0.160,0.056,0.283,-5.337
0.176,0.054,0.281,-5.337
0.209,0.053,0.280,-5.337
0.233,0.047,0.277,-5.337
0.215,0.049,0.279,-5.337
0.191,0.052,0.280,-5.337
0.211,0.055,0.286,-5.337
0.203,0.053,0.286,-5.337
0.189,0.049,0.280,-5.337
0.219,0.048,0.278,-5.337
0.190,0.056,0.278,-5.337
0.180,0.057,0.279,-5.337
0.191,0.054,0.279,-5.337
0.242,0.049,0.279,-5.337
0.265,0.051,0.279,-5.337
0.201,0.055,0.278,-5.337
0.169,0.056,0.277,-5.337
0.182,0.058,0.279,-5.337
0.169,0.057,0.280,-5.337
0.164,0.056,0.281,-5.337
0.131,0.053,0.278,-5.337
0.151,0.055,0.278,-5.337
0.222,0.056,0.279,-5.337
0.264,0.057,0.279,-5.337
0.283,0.054,0.275,-5.337
0.273,0.056,0.276,-5.337
0.283,0.054,0.278,-5.337
0.228,0.054,0.281,-5.337
0.153,0.054,0.280,-5.337
0.166,0.054,0.281,-5.337
0.190,0.054,0.284,-5.337
0.216,0.055,0.285,-5.337
0.233,0.050,0.278,-5.337
0.205,0.054,0.276,-5.337
0.122,0.054,0.277,-5.337
0.193,0.051,0.278,-5.337
0.263,0.050,0.281,-5.337
0.283,0.052,0.282,-5.337
0.269,0.054,0.282,-5.337
0.232,0.055,0.278,-5.337
0.247,0.054,0.282,-5.337
0.241,0.057,0.284,-5.337
0.205,0.055,0.284,-5.337
0.202,0.053,0.279,-5.337
0.219,0.051,0.280,-5.337
0.269,0.048,0.282,-5.337
0.235,0.052,0.281,-5.337
0.183,0.057,0.278,-5.337
0.234,0.057,0.280,-5.337
0.243,0.056,0.278,-5.337
0.168,0.060,0.275,-5.337
0.220,0.055,0.274,-5.337
0.260,0.056,0.276,-5.337
0.230,0.057,0.276,-5.337
0.187,0.057,0.277,-5.337
0.273,0.053,0.278,-5.337
0.310,0.053,0.279,-5.337
0.304,0.056,0.278,-5.337
0.250,0.059,0.278,-5.337
0.249,0.059,0.282,-5.337
0.194,0.060,0.285,-5.337
0.179,0.061,0.286,-5.337
0.264,0.059,0.283,-5.337
0.281,0.062,0.279,-5.337
0.266,0.060,0.276,-5.337
0.263,0.058,0.278,-5.337
0.221,0.059,0.278,-5.337
0.193,0.061,0.276,-5.337
0.163,0.060,0.274,-5.337
0.201,0.056,0.278,-5.337
0.275,0.056,0.280,-5.337
0.291,0.058,0.280,-5.337
0.283,0.061,0.278,-5.337
0.242,0.062,0.275,-5.337
0.204,0.058,0.274,-5.337
0.241,0.058,0.278,-5.337
0.204,0.061,0.283,-5.337
0.181,0.062,0.281,-5.337
0.264,0.059,0.277,-5.337
0.277,0.059,0.281,-5.337
0.250,0.060,0.285,-5.337
0.233,0.063,0.280,-5.337
0.210,0.064,0.277,-5.337
0.260,0.062,0.277,-5.337
0.211,0.064,0.278,-5.337
0.221,0.067,0.276,-5.337
0.278,0.066,0.276,-5.337
0.256,0.066,0.278,-5.337
0.297,0.062,0.279,-5.337
0.320,0.059,0.280,-5.337
0.243,0.060,0.282,-5.337
0.225,0.059,0.282,-5.337
0.255,0.062,0.277,-5.337
0.230,0.065,0.272,-5.337
0.191,0.064,0.278,-5.337
0.200,0.060,0.282,-5.337
0.251,0.061,0.282,-5.337
0.297,0.060,0.278,-5.337
0.214,0.063,0.280,-5.337
0.178,0.064,0.282,-5.337
0.259,0.066,0.281,-5.337
0.272,0.065,0.280,-5.337
0.295,0.061,0.279,-5.337
0.309,0.062,0.277,-5.337
0.293,0.066,0.278,-5.337
0.272,0.068,0.280,-5.337
0.280,0.066,0.279,-5.337
0.246,0.067,0.278,-5.337
0.240,0.069,0.279,-5.337
0.232,0.066,0.278,-5.337
0.273,0.066,0.276,-5.337
0.270,0.069,0.280,-5.337
0.221,0.073,0.281,-5.337
0.199,0.069,0.279,-5.337
0.244,0.063,0.273,-5.337
0.310,0.063,0.275,-5.337
0.269,0.064,0.278,-5.337
0.184,0.065,0.282,-5.337
0.199,0.064,0.281,-5.337
0.298,0.061,0.277,-5.337
0.276,0.063,0.273,-5.337
0.225,0.062,0.271,-5.337
0.302,0.062,0.271,-5.337
0.372,0.059,0.273,-5.337
0.368,0.058,0.276,-5.337
0.299,0.059,0.279,-5.337
0.225,0.061,0.277,-5.337
0.208,0.062,0.274,-5.337
0.253,0.063,0.277,-5.337
0.251,0.063,0.283,-5.337
0.214,0.061,0.282,-5.337
0.178,0.061,0.277,-5.337
0.211,0.059,0.278,-5.337
0.235,0.057,0.279,-5.337
0.250,0.058,0.281,-5.337
0.224,0.058,0.280,-5.337
0.252,0.054,0.280,-5.337
0.309,0.053,0.279,-5.337
0.317,0.055,0.277,-5.337
0.288,0.050,0.275,-5.337
0.243,0.048,0.276,-5.337
0.268,0.049,0.275,-5.337
0.255,0.053,0.276,-5.337
0.177,0.058,0.279,-5.337
0.157,0.056,0.282,-5.337
0.226,0.054,0.285,-5.337
0.320,0.046,0.284,-5.337
0.248,0.046,0.281,-5.337
0.129,0.050,0.277,-5.337
0.174,0.050,0.278,-5.337
0.215,0.050,0.274,-5.337
0.218,0.053,0.272,-5.337
0.276,0.050,0.272,-5.337
0.233,0.050,0.275,-5.337
0.184,0.048,0.276,-5.337
0.250,0.049,0.280,-5.337
0.235,0.052,0.284,-5.337
0.216,0.055,0.285,-5.337
0.207,0.051,0.280,-5.337
0.253,0.048,0.276,-5.337
0.310,0.047,0.275,-5.337
0.275,0.048,0.274,-5.337
0.214,0.049,0.275,-5.337
0.197,0.054,0.277,-5.337
0.212,0.050,0.277,-5.337
0.242,0.050,0.280,-5.337
0.289,0.052,0.283,-5.337
0.290,0.052,0.281,-5.337
0.267,0.049,0.280,-5.337
0.192,0.050,0.279,-5.337
0.197,0.050,0.277,-5.337
0.216,0.052,0.275,-5.337
0.162,0.051,0.277,-5.337
0.183,0.050,0.280,-5.337
0.227,0.047,0.283,-5.337
0.268,0.045,0.285,-5.337
0.255,0.046,0.284,-5.337
0.217,0.048,0.281,-5.337
0.194,0.051,0.281,-5.337
0.212,0.052,0.279,-5.337
0.229,0.051,0.278,-5.337
0.193,0.047,0.279,-5.337
0.246,0.044,0.282,-5.337
0.269,0.047,0.277,-5.337
0.245,0.044,0.275,-5.337
0.217,0.043,0.279,-5.337
0.214,0.042,0.283,-5.337
0.260,0.040,0.285,-5.337
0.255,0.042,0.282,-5.337
0.224,0.043,0.276,-5.337
0.237,0.043,0.280,-5.337
0.184,0.044,0.282,-5.337
0.176,0.042,0.282,-5.337
0.149,0.044,0.280,-5.337
0.171,0.042,0.277,-5.337
0.195,0.040,0.275,-5.337
0.227,0.037,0.277,-5.337
0.208,0.041,0.280,-5.337
0.245,0.041,0.281,-5.337
0.263,0.043,0.281,-5.337
0.350,0.042,0.284,-5.337
0.335,0.042,0.281,-5.337
0.318,0.042,0.275,-5.337
0.276,0.044,0.277,-5.337
0.250,0.043,0.280,-5.337
0.175,0.046,0.284,-5.337
0.144,0.045,0.290,-5.337
0.199,0.042,0.289,-5.337
0.248,0.041,0.284,-5.337
0.178,0.044,0.284,-5.337
0.122,0.044,0.282,-5.337
0.151,0.046,0.279,-5.337
0.196,0.048,0.280,-5.337
0.217,0.046,0.281,-5.337
0.258,0.041,0.283,-5.337
0.289,0.043,0.283,-5.337
0.246,0.045,0.281,-5.337
0.172,0.047,0.280,-5.337
0.152,0.046,0.281,-5.337
0.193,0.046,0.281,-5.337
0.222,0.044,0.280,-5.337
0.238,0.044,0.275,-5.337
0.246,0.045,0.277,-5.337
0.240,0.048,0.280,-5.337
0.219,0.045,0.282,-5.337
0.281,0.043,0.281,-5.337
0.271,0.045,0.283,-5.337
0.176,0.047,0.282,-5.337
0.110,0.047,0.282,-5.337
0.188,0.044,0.282,-5.337
0.272,0.047,0.280,-5.337
0.209,0.047,0.279,-5.337
0.165,0.047,0.283,-5.337
0.201,0.046,0.284,-5.337
0.224,0.048,0.280,-5.337
0.218,0.046,0.277,-5.337
0.281,0.041,0.278,-5.337
0.263,0.040,0.279,-5.337
0.236,0.041,0.284,-5.337
0.205,0.039,0.282,-5.337
0.217,0.039,0.277,-5.337
0.228,0.041,0.277,-5.337
0.193,0.042,0.279,-5.337
0.165,0.043,0.282,-5.337
0.102,0.043,0.282,-5.337
0.132,0.045,0.281,-5.337
0.178,0.045,0.282,-5.337
0.234,0.041,0.284,-5.337
0.293,0.040,0.283,-5.337
0.269,0.041,0.282,-5.337
0.239,0.038,0.280,-5.337
0.213,0.038,0.282,-5.337
0.161,0.040,0.283,-5.337
0.142,0.045,0.281,-5.337
0.223,0.041,0.280,-5.337
0.265,0.037,0.280,-5.337
0.183,0.039,0.282,-5.337
0.114,0.040,0.283,-5.337
0.152,0.035,0.282,-5.337
0.223,0.034,0.282,-5.337
0.235,0.036,0.281,-5.337
0.202,0.040,0.280,-5.337
0.217,0.038,0.280,-5.337
0.259,0.036,0.280,-5.337
0.233,0.039,0.282,-5.337
0.214,0.041,0.282,-5.337
0.185,0.037,0.281,-5.337
0.184,0.033,0.281,-5.337
0.166,0.035,0.283,-5.337
0.062,0.043,0.284,-5.337
0.082,0.044,0.283,-5.337
0.194,0.040,0.281,-5.337
0.181,0.040,0.281,-5.337
0.105,0.043,0.285,-5.337
0.165,0.042,0.285,-5.337
0.185,0.040,0.283,-5.337
0.134,0.042,0.278,-5.337
0.102,0.042,0.273,-5.337
0.114,0.038,0.277,-5.337
0.188,0.037,0.284,-5.337
0.199,0.036,0.282,-5.337
0.131,0.036,0.279,-5.337
0.165,0.036,0.276,-5.337
0.252,0.031,0.279,-5.337
0.245,0.029,0.283,-5.337
0.187,0.031,0.283,-5.337
0.200,0.031,0.278,-5.337
0.228,0.034,0.279,-5.337
0.230,0.037,0.281,-5.337
0.223,0.033,0.281,-5.337
0.246,0.032,0.280,-5.337
0.227,0.036,0.278,-5.337
0.204,0.035,0.278,-5.337
0.186,0.037,0.282,-5.337
0.237,0.038,0.288,-5.337
0.217,0.040,0.287,-5.337
0.211,0.036,0.282,-5.337
0.219,0.037,0.275,-5.337
0.193,0.035,0.275,-5.337
0.190,0.033,0.282,-5.337
0.155,0.034,0.285,-5.337
0.140,0.033,0.287,-5.337
0.166,0.030,0.290,-5.337
0.157,0.030,0.289,-5.337
0.177,0.032,0.283,-5.337
0.175,0.031,0.280,-5.337
0.145,0.032,0.277,-5.337
0.167,0.033,0.275,-5.337
0.247,0.032,0.278,-5.337
0.282,0.033,0.278,-5.337
0.185,0.034,0.280,-5.337
0.176,0.033,0.283,-5.337
0.215,0.030,0.285,-5.337
0.173,0.031,0.280,-5.337
0.121,0.034,0.279,-5.337
0.105,0.036,0.282,-5.337
0.141,0.037,0.283,-5.337
0.179,0.034,0.278,-5.337
0.134,0.039,0.274,-5.337
0.138,0.036,0.273,-5.337
0.195,0.033,0.278,-5.337
0.184,0.035,0.281,-5.337
0.166,0.036,0.282,-5.337
0.173,0.035,0.281,-5.337
0.184,0.034,0.278,-5.337
0.158,0.034,0.275,-5.337
0.110,0.036,0.280,-5.337
0.128,0.036,0.286,-5.337
0.118,0.036,0.287,-5.337
0.141,0.033,0.286,-5.337
0.202,0.030,0.281,-5.337
0.229,0.029,0.281,-5.337
0.236,0.031,0.283,-5.337
0.176,0.036,0.284,-5.337
0.154,0.035,0.279,-5.337
0.086,0.036,0.279,-5.337
0.085,0.034,0.276,-5.337
0.157,0.032,0.276,-5.337
0.185,0.035,0.277,-5.337
0.178,0.036,0.281,-5.337
0.184,0.033,0.281,-5.337
0.195,0.035,0.282,-5.337
0.196,0.033,0.282,-5.337
0.180,0.034,0.282,-5.337
0.176,0.034,0.279,-5.337
0.147,0.033,0.279,-5.337
0.195,0.035,0.278,-5.337
0.192,0.036,0.283,-5.337
0.187,0.036,0.287,-5.337
0.134,0.041,0.285,-5.337
0.030,0.042,0.280,-5.337
0.136,0.038,0.278,-5.337
0.247,0.035,0.280,-5.337
0.156,0.038,0.281,-5.337
0.104,0.039,0.282,-5.337
0.141,0.038,0.281,-5.337
0.184,0.035,0.281,-5.337
0.190,0.034,0.280,-5.337
0.199,0.035,0.280,-5.337
0.119,0.038,0.279,-5.337
0.112,0.040,0.277,-5.337
0.120,0.039,0.276,-5.337
0.068,0.039,0.277,-5.337
0.065,0.039,0.277,-5.337
0.092,0.039,0.275,-5.337
0.137,0.039,0.276,-5.337
0.138,0.037,0.278,-5.337
0.105,0.035,0.278,-5.337
0.116,0.035,0.280,-5.337
0.156,0.036,0.278,-5.337
0.210,0.033,0.276,-5.337
0.194,0.033,0.275,-5.337
0.160,0.034,0.278,-5.337
0.143,0.035,0.280,-5.337
0.168,0.035,0.280,-5.337
0.210,0.030,0.281,-5.337
0.168,0.029,0.284,-5.337
0.140,0.033,0.286,-5.337
0.118,0.032,0.282,-5.337
0.132,0.032,0.282,-5.337
0.149,0.033,0.284,-5.337
0.212,0.033,0.286,-5.337
0.239,0.035,0.280,-5.337
0.181,0.040,0.273,-5.337
0.090,0.041,0.270,-5.337
0.129,0.038,0.274,-5.337
0.193,0.036,0.274,-5.337
0.163,0.036,0.273,-5.337
0.154,0.034,0.276,-5.337
0.170,0.037,0.278,-5.337
0.141,0.036,0.281,-5.337
0.110,0.034,0.277,-5.337
0.163,0.030,0.274,-5.337
0.238,0.033,0.278,-5.337
0.225,0.033,0.285,-5.337
0.141,0.037,0.288,-5.337
0.153,0.037,0.286,-5.337
0.237,0.034,0.282,-5.337
0.216,0.034,0.279,-5.337
0.081,0.037,0.275,-5.337
0.056,0.039,0.271,-5.337
0.126,0.039,0.271,-5.337
0.223,0.035,0.277,-5.337
0.225,0.036,0.282,-5.337
0.137,0.038,0.284,-5.337
0.113,0.040,0.281,-5.337
0.140,0.039,0.278,-5.337
0.201,0.042,0.276,-5.337
0.185,0.042,0.279,-5.337
0.112,0.042,0.277,-5.337
0.040,0.042,0.277,-5.337
0.108,0.042,0.280,-5.337
0.208,0.044,0.282,-5.337
0.237,0.041,0.282,-5.337
0.247,0.036,0.277,-5.337
0.211,0.038,0.273,-5.337
0.232,0.042,0.276,-5.337
0.265,0.040,0.282,-5.337
0.180,0.039,0.288,-5.337
0.134,0.037,0.287,-5.337
0.166,0.033,0.281,-5.337
0.182,0.033,0.281,-5.337
0.161,0.032,0.279,-5.337
0.167,0.037,0.279,-5.337
0.187,0.041,0.280,-5.337
0.234,0.040,0.281,-5.337
0.275,0.038,0.280,-5.337
0.231,0.040,0.280,-5.337
0.178,0.039,0.276,-5.337
0.126,0.042,0.275,-5.337
0.139,0.040,0.278,-5.337
0.142,0.041,0.281,-5.337
0.187,0.042,0.279,-5.337
0.209,0.043,0.275,-5.337
0.201,0.038,0.275,-5.337
0.139,0.042,0.281,-5.337
0.125,0.042,0.281,-5.337
0.079,0.044,0.281,-5.337
0.062,0.045,0.284,-5.337
0.112,0.044,0.283,-5.337
0.131,0.044,0.277,-5.337
0.158,0.043,0.272,-5.337
0.193,0.045,0.277,-5.337
0.166,0.047,0.283,-5.337
0.186,0.046,0.287,-5.337
0.204,0.046,0.286,-5.337
0.236,0.047,0.284,-5.337
0.233,0.047,0.280,-5.337
0.148,0.046,0.279,-5.337
0.148,0.045,0.278,-5.337
0.201,0.046,0.278,-5.337
0.176,0.046,0.277,-5.337
0.185,0.043,0.277,-5.337
0.217,0.042,0.279,-5.337
0.222,0.042,0.283,-5.337
0.172,0.042,0.286,-5.337
0.164,0.044,0.286,-5.337
0.184,0.044,0.281,-5.337
0.205,0.044,0.276,-5.337
0.221,0.044,0.276,-5.337
0.187,0.045,0.280,-5.337
0.167,0.048,0.280,-5.337
0.189,0.046,0.278,-5.337
0.159,0.049,0.279,-5.337
0.153,0.050,0.282,-5.337
0.172,0.048,0.283,-5.337
0.249,0.044,0.281,-5.337
0.278,0.045,0.281,-5.337
0.215,0.049,0.280,-5.337
0.170,0.050,0.278,-5.337
0.190,0.050,0.278,-5.337
0.186,0.047,0.280,-5.337
0.215,0.044,0.277,-5.337
0.206,0.047,0.276,-5.337
0.222,0.046,0.278,-5.337
0.206,0.046,0.284,-5.337
0.241,0.047,0.286,-5.337
0.255,0.049,0.286,-5.337
0.236,0.049,0.281,-5.337
0.191,0.053,0.280,-5.337
0.143,0.052,0.280,-5.337
0.188,0.050,0.284,-5.337
0.246,0.046,0.285,-5.337
0.314,0.045,0.285,-5.337
0.307,0.048,0.280,-5.337
0.230,0.051,0.280,-5.337
0.207,0.052,0.282,-5.337
0.168,0.054,0.280,-5.337
0.139,0.052,0.280,-5.337
0.165,0.053,0.278,-5.337
0.236,0.052,0.279,-5.337
0.226,0.053,0.279,-5.337
0.183,0.052,0.280,-5.337
0.177,0.053,0.277,-5.337
0.196,0.051,0.278,-5.337
0.189,0.048,0.280,-5.337
0.176,0.047,0.281,-5.337
0.161,0.048,0.278,-5.337
0.244,0.049,0.277,-5.337
0.250,0.053,0.282,-5.337
0.170,0.050,0.287,-5.337
0.223,0.052,0.288,-5.337
0.231,0.054,0.285,-5.337
0.211,0.052,0.280,-5.337
0.197,0.051,0.281,-5.337
0.177,0.051,0.282,-5.337
0.197,0.048,0.282,-5.337
0.246,0.053,0.279,-5.337
0.261,0.056,0.279,-5.337
0.266,0.052,0.282,-5.337
0.266,0.051,0.281,-5.337
0.252,0.054,0.279,-5.337
0.239,0.054,0.278,-5.337
0.232,0.053,0.278,-5.337
0.242,0.049,0.278,-5.337
0.182,0.052,0.279,-5.337
0.177,0.053,0.280,-5.337
0.252,0.052,0.278,-5.337
0.230,0.052,0.279,-5.337
0.156,0.056,0.281,-5.337
0.155,0.056,0.280,-5.337
0.218,0.056,0.279,-5.337
0.252,0.053,0.282,-5.337
0.205,0.053,0.284,-5.337
0.229,0.052,0.280,-5.337
0.263,0.056,0.279,-5.337
0.231,0.056,0.280,-5.337
0.250,0.055,0.285,-5.337
0.256,0.051,0.285,-5.337
0.264,0.050,0.281,-5.337
0.240,0.054,0.279,-5.337
0.204,0.055,0.280,-5.337
0.212,0.053,0.279,-5.337
0.180,0.054,0.278,-5.337
0.124,0.055,0.280,-5.337
0.175,0.053,0.283,-5.337
0.279,0.052,0.284,-5.337
0.338,0.048,0.279,-5.337
0.377,0.048,0.277,-5.337
0.276,0.054,0.280,-5.337
0.167,0.059,0.279,-5.337
0.155,0.057,0.279,-5.337
0.198,0.056,0.280,-5.337
0.234,0.054,0.281,-5.337
0.329,0.056,0.284,-5.337
0.318,0.058,0.284,-5.337
0.228,0.057,0.282,-5.337
0.168,0.059,0.279,-5.337
0.185,0.061,0.275,-5.337
0.233,0.057,0.277,-5.337
0.219,0.052,0.280,-5.337
0.205,0.053,0.284,-5.337
0.206,0.059,0.287,-5.337
0.246,0.061,0.287,-5.337
0.311,0.055,0.283,-5.337
0.303,0.050,0.281,-5.337
0.209,0.052,0.279,-5.337
0.187,0.055,0.277,-5.337
0.230,0.055,0.274,-5.337
0.181,0.056,0.279,-5.337
0.216,0.055,0.284,-5.337
0.296,0.056,0.287,-5.337
0.226,0.056,0.286,-5.337
0.194,0.057,0.283,-5.337
0.255,0.058,0.282,-5.337
0.287,0.056,0.281,-5.337
0.289,0.051,0.280,-5.337
0.279,0.051,0.281,-5.337
0.248,0.054,0.282,-5.337
0.249,0.055,0.281,-5.337
0.257,0.056,0.283,-5.337
0.243,0.058,0.284,-5.337
0.170,0.058,0.282,-5.337
0.221,0.055,0.283,-5.337
0.363,0.052,0.285,-5.337
0.283,0.058,0.284,-5.337
0.150,0.057,0.282,-5.337
0.256,0.055,0.280,-5.337
0.367,0.056,0.281,-5.337
0.297,0.063,0.279,-5.337
0.214,0.064,0.280,-5.337
0.174,0.062,0.283,-5.337
0.203,0.060,0.283,-5.337
0.249,0.060,0.281,-5.337
0.285,0.061,0.281,-5.337
0.286,0.058,0.278,-5.337
0.304,0.057,0.276,-5.337
0.314,0.058,0.277,-5.337
0.293,0.056,0.281,-5.337
0.277,0.060,0.285,-5.337
0.254,0.062,0.289,-5.337
0.215,0.063,0.284,-5.337
0.231,0.064,0.276,-5.337
0.263,0.061,0.275,-5.337
0.249,0.064,0.282,-5.337
0.263,0.064,0.285,-5.337
0.288,0.064,0.284,-5.337
0.334,0.060,0.282,-5.337
0.259,0.064,0.281,-5.337
0.258,0.064,0.280,-5.337
0.238,0.068,0.278,-5.337
0.220,0.071,0.275,-5.337
0.220,0.068,0.275,-5.337
0.242,0.066,0.279,-5.337
0.319,0.064,0.280,-5.337
0.273,0.064,0.279,-5.337
0.289,0.059,0.280,-5.337
0.273,0.060,0.280,-5.337
0.236,0.061,0.281,-5.337
0.259,0.058,0.281,-5.337
0.285,0.060,0.279,-5.337
0.287,0.060,0.279,-5.337
0.227,0.064,0.280,-5.337
0.141,0.066,0.281,-5.337
0.166,0.066,0.282,-5.337
0.247,0.063,0.282,-5.337
0.259,0.062,0.277,-5.337
0.196,0.063,0.275,-5.337
0.172,0.063,0.278,-5.337
0.231,0.064,0.281,-5.337
0.285,0.063,0.284,-5.337
0.269,0.064,0.281,-5.337
0.239,0.066,0.283,-5.337
0.192,0.066,0.283,-5.337
0.160,0.065,0.281,-5.337
0.222,0.062,0.279,-5.337
0.278,0.058,0.280,-5.337
0.364,0.057,0.280,-5.337
0.315,0.056,0.278,-5.337
0.243,0.057,0.279,-5.337
0.258,0.056,0.279,-5.337
0.275,0.055,0.275,-5.337
0.257,0.053,0.275,-5.337
0.202,0.056,0.279,-5.337
0.228,0.055,0.281,-5.337
0.286,0.055,0.281,-5.337
0.232,0.054,0.280,-5.337
0.177,0.053,0.280,-5.337
0.216,0.053,0.282,-5.337
0.282,0.051,0.283,-5.337
0.226,0.052,0.282,-5.337
0.223,0.049,0.279,-5.337
0.267,0.051,0.279,-5.337
0.301,0.049,0.284,-5.337
0.328,0.049,0.286,-5.337
0.313,0.048,0.281,-5.337
0.256,0.051,0.275,-5.337
0.228,0.056,0.275,-5.337
0.232,0.052,0.278,-5.337
0.278,0.049,0.278,-5.337
0.280,0.049,0.275,-5.337
0.273,0.052,0.275,-5.337
0.266,0.054,0.278,-5.337
0.251,0.051,0.277,-5.337
0.228,0.049,0.277,-5.337
0.204,0.051,0.279,-5.337
0.228,0.048,0.279,-5.337
0.239,0.048,0.279,-5.337
0.187,0.049,0.282,-5.337
0.166,0.048,0.283,-5.337
0.165,0.049,0.281,-5.337
0.166,0.050,0.278,-5.337
0.209,0.049,0.276,-5.337
0.237,0.049,0.277,-5.337
0.192,0.048,0.282,-5.337
0.205,0.049,0.283,-5.337
0.293,0.051,0.280,-5.337
0.247,0.051,0.278,-5.337
0.185,0.051,0.281,-5.337
0.227,0.050,0.280,-5.337
0.255,0.050,0.279,-5.337
0.255,0.049,0.278,-5.337
0.235,0.048,0.280,-5.337
0.219,0.047,0.279,-5.337
0.254,0.048,0.277,-5.337
0.325,0.046,0.278,-5.337
0.344,0.048,0.283,-5.337
0.263,0.047,0.284,-5.337
0.274,0.046,0.281,-5.337
0.318,0.045,0.281,-5.337
0.332,0.043,0.285,-5.337
0.246,0.048,0.282,-5.337
0.132,0.050,0.280,-5.337
0.126,0.047,0.279,-5.337
0.178,0.047,0.280,-5.337
0.217,0.046,0.280,-5.337
0.247,0.044,0.280,-5.337
0.249,0.042,0.282,-5.337
0.218,0.043,0.283,-5.337
0.177,0.045,0.282,-5.337
0.257,0.042,0.279,-5.337
0.291,0.043,0.276,-5.337
0.282,0.043,0.277,-5.337
0.252,0.047,0.281,-5.337
0.224,0.046,0.276,-5.337
0.209,0.046,0.273,-5.337
0.157,0.046,0.276,-5.337
0.096,0.046,0.281,-5.337
0.174,0.042,0.283,-5.337
0.220,0.044,0.282,-5.337
0.212,0.043,0.278,-5.337
0.255,0.040,0.279,-5.337
0.262,0.038,0.279,-5.337
0.232,0.040,0.281,-5.337
0.177,0.039,0.282,-5.337
0.165,0.040,0.279,-5.337
0.211,0.038,0.276,-5.337
0.207,0.040,0.277,-5.337
0.189,0.045,0.279,-5.337
0.181,0.044,0.281,-5.337
0.223,0.039,0.282,-5.337
0.266,0.039,0.281,-5.337
0.211,0.041,0.279,-5.337
0.161,0.040,0.280,-5.337
0.252,0.040,0.284,-5.337
0.268,0.040,0.283,-5.337
0.196,0.044,0.283,-5.337
0.204,0.044,0.281,-5.337
0.227,0.043,0.277,-5.337
0.193,0.043,0.277,-5.337
0.185,0.043,0.281,-5.337
0.201,0.043,0.288,-5.337
0.232,0.042,0.288,-5.337
0.230,0.043,0.284,-5.337
0.232,0.045,0.281,-5.337
0.231,0.050,0.281,-5.337
0.202,0.052,0.281,-5.337
0.172,0.052,0.281,-5.337
0.192,0.049,0.280,-5.337
0.203,0.049,0.280,-5.337
0.234,0.048,0.280,-5.337
0.264,0.046,0.279,-5.337
0.231,0.042,0.281,-5.337
0.184,0.043,0.285,-5.337
0.171,0.044,0.283,-5.337
0.204,0.044,0.285,-5.337
0.162,0.041,0.284,-5.337
0.176,0.039,0.283,-5.337
0.246,0.041,0.276,-5.337
0.217,0.045,0.275,-5.337
0.107,0.044,0.278,-5.337
0.081,0.041,0.284,-5.337
0.158,0.038,0.286,-5.337
0.220,0.038,0.288,-5.337
0.191,0.041,0.285,-5.337
0.176,0.040,0.281,-5.337
0.183,0.038,0.276,-5.337
0.151,0.041,0.281,-5.337
0.124,0.039,0.282,-5.337
0.178,0.039,0.283,-5.337
0.190,0.040,0.285,-5.337
0.119,0.041,0.284,-5.337
0.132,0.039,0.283,-5.337
0.168,0.038,0.283,-5.337
0.151,0.040,0.281,-5.337
0.146,0.040,0.281,-5.337
0.190,0.037,0.281,-5.337
0.291,0.034,0.283,-5.337
0.299,0.035,0.287,-5.337
0.212,0.035,0.288,-5.337
0.167,0.036,0.285,-5.337
0.197,0.037,0.280,-5.337
0.167,0.041,0.278,-5.337
0.200,0.039,0.277,-5.337
0.280,0.039,0.277,-5.337
0.304,0.037,0.278,-5.337
0.264,0.039,0.280,-5.337
0.189,0.042,0.283,-5.337
0.142,0.041,0.285,-5.337
0.164,0.037,0.286,-5.337
0.224,0.036,0.285,-5.337
0.213,0.037,0.280,-5.337
0.199,0.038,0.281,-5.337
0.238,0.038,0.285,-5.337
0.177,0.040,0.285,-5.337
0.112,0.038,0.285,-5.337
0.078,0.038,0.284,-5.337
0.095,0.038,0.287,-5.337
0.148,0.040,0.285,-5.337
0.187,0.038,0.282,-5.337
0.218,0.035,0.278,-5.337
0.191,0.034,0.281,-5.337
0.175,0.034,0.282,-5.337
0.252,0.034,0.282,-5.337
0.271,0.033,0.278,-5.337
0.234,0.035,0.277,-5.337
0.192,0.035,0.275,-5.337
0.193,0.037,0.277,-5.337
0.205,0.040,0.280,-5.337
0.180,0.038,0.282,-5.337
0.211,0.036,0.286,-5.337
0.241,0.033,0.286,-5.337
0.265,0.032,0.280,-5.337
0.250,0.032,0.280,-5.337
0.186,0.037,0.286,-5.337
0.168,0.036,0.288,-5.337
0.219,0.036,0.287,-5.337
0.233,0.033,0.288,-5.337
0.212,0.031,0.286,-5.337
0.124,0.037,0.278,-5.337
0.082,0.038,0.276,-5.337
0.133,0.034,0.276,-5.337
0.145,0.034,0.279,-5.337
0.149,0.036,0.276,-5.337
0.142,0.037,0.278,-5.337
0.135,0.032,0.278,-5.337
0.140,0.032,0.280,-5.337
0.188,0.030,0.280,-5.337
0.265,0.035,0.282,-5.337
0.247,0.033,0.284,-5.337
0.241,0.031,0.283,-5.337
0.230,0.030,0.281,-5.337
0.225,0.031,0.282,-5.337
0.203,0.033,0.284,-5.337
0.172,0.036,0.284,-5.337
0.138,0.041,0.280,-5.337
0.148,0.042,0.280,-5.337
0.188,0.035,0.282,-5.337
0.168,0.037,0.282,-5.337
0.117,0.038,0.285,-5.337
0.116,0.040,0.286,-5.337
0.138,0.040,0.286,-5.337
0.180,0.037,0.285,-5.337
0.163,0.038,0.284,-5.337
0.191,0.037,0.282,-5.337
0.151,0.036,0.282,-5.337
0.145,0.033,0.277,-5.337
0.151,0.033,0.277,-5.337
0.172,0.031,0.279,-5.337
0.224,0.033,0.282,-5.337
0.264,0.038,0.281,-5.337
0.288,0.039,0.280,-5.337
0.179,0.040,0.278,-5.337
0.115,0.035,0.277,-5.337
0.203,0.031,0.276,-5.337
0.235,0.035,0.277,-5.337
0.176,0.040,0.283,-5.337
0.125,0.039,0.287,-5.337
0.108,0.037,0.284,-5.337
0.116,0.035,0.278,-5.337
0.124,0.035,0.278,-5.337
0.114,0.038,0.280,-5.337
0.158,0.038,0.286,-5.337
0.205,0.036,0.287,-5.337
0.243,0.035,0.286,-5.337
0.278,0.031,0.281,-5.337
0.253,0.031,0.280,-5.337
0.179,0.034,0.281,-5.337
0.152,0.035,0.285,-5.337
0.154,0.034,0.288,-5.337
0.105,0.037,0.286,-5.337
0.155,0.036,0.287,-5.337
0.201,0.038,0.286,-5.337
0.121,0.039,0.284,-5.337
0.098,0.039,0.281,-5.337
0.119,0.039,0.281,-5.337
0.140,0.038,0.282,-5.337
0.202,0.034,0.283,-5.337
0.120,0.038,0.285,-5.337
0.082,0.037,0.283,-5.337
0.181,0.034,0.279,-5.337
0.219,0.035,0.279,-5.337
0.182,0.035,0.279,-5.337
0.169,0.035,0.281,-5.337
0.119,0.038,0.280,-5.337
0.078,0.040,0.280,-5.337
0.114,0.038,0.279,-5.337
0.182,0.034,0.277,-5.337
0.191,0.032,0.274,-5.337
0.175,0.036,0.279,-5.337
0.139,0.038,0.280,-5.337
0.166,0.037,0.284,-5.337
0.197,0.034,0.282,-5.337
0.201,0.035,0.281,-5.337
0.241,0.036,0.276,-5.337
0.229,0.036,0.276,-5.337
0.139,0.039,0.279,-5.337
0.081,0.041,0.280,-5.337
0.107,0.035,0.280,-5.337
0.166,0.034,0.283,-5.337
0.149,0.034,0.282,-5.337
0.099,0.036,0.279,-5.337
0.117,0.036,0.281,-5.337
0.184,0.040,0.282,-5.337
0.222,0.038,0.280,-5.337
0.169,0.037,0.280,-5.337
0.080,0.041,0.278,-5.337
0.076,0.040,0.278,-5.337
0.136,0.039,0.279,-5.337
0.229,0.038,0.281,-5.337
0.240,0.040,0.282,-5.337
0.191,0.042,0.282,-5.337
0.156,0.043,0.281,-5.337
0.172,0.041,0.277,-5.337
0.254,0.038,0.276,-5.337
0.297,0.037,0.276,-5.337
0.219,0.040,0.281,-5.337
0.178,0.042,0.282,-5.337
0.142,0.042,0.280,-5.337
0.147,0.040,0.279,-5.337
0.106,0.042,0.279,-5.337
0.057,0.040,0.277,-5.337
0.094,0.042,0.276,-5.337
0.125,0.042,0.276,-5.337
0.189,0.042,0.279,-5.337
0.197,0.043,0.282,-5.337
0.145,0.043,0.285,-5.337
0.153,0.040,0.284,-5.337
0.218,0.038,0.281,-5.337
0.253,0.037,0.278,-5.337
0.186,0.039,0.279,-5.337
0.135,0.041,0.281,-5.337
0.153,0.040,0.279,-5.337
0.185,0.039,0.277,-5.337
0.160,0.042,0.276,-5.337
0.189,0.039,0.283,-5.337
0.153,0.040,0.283,-5.337
0.105,0.044,0.280,-5.337
0.067,0.043,0.276,-5.337
0.127,0.044,0.279,-5.337
0.183,0.041,0.281,-5.337
0.179,0.048,0.283,-5.337
0.131,0.047,0.281,-5.337
0.092,0.046,0.279,-5.337
0.094,0.042,0.277,-5.337
0.151,0.038,0.279,-5.337
0.203,0.039,0.277,-5.337
0.191,0.040,0.280,-5.337
0.204,0.038,0.281,-5.337
0.223,0.041,0.282,-5.337
0.177,0.041,0.280,-5.337
0.167,0.040,0.278,-5.337
0.210,0.037,0.278,-5.337
0.258,0.036,0.278,-5.337
0.245,0.035,0.282,-5.337
0.216,0.035,0.281,-5.337
0.196,0.038,0.281,-5.337
0.202,0.039,0.279,-5.337
0.220,0.041,0.281,-5.337
0.203,0.042,0.280,-5.337
0.139,0.043,0.278,-5.337
0.136,0.043,0.277,-5.337
0.115,0.044,0.278,-5.337
0.111,0.041,0.280,-5.337
0.086,0.043,0.284,-5.337
0.091,0.045,0.286,-5.337
0.130,0.044,0.283,-5.337
0.157,0.042,0.281,-5.337
0.236,0.040,0.280,-5.337
0.285,0.042,0.278,-5.337
0.280,0.042,0.276,-5.337
0.174,0.041,0.281,-5.337
0.121,0.044,0.286,-5.337
0.116,0.045,0.283,-5.337
0.255,0.040,0.281,-5.337
0.239,0.043,0.283,-5.337
0.137,0.048,0.279,-5.337
0.130,0.045,0.278,-5.337
0.165,0.046,0.279,-5.337
0.206,0.042,0.279,-5.337
0.210,0.039,0.275,-5.337
0.185,0.043,0.273,-5.337
0.170,0.045,0.273,-5.337
0.198,0.044,0.280,-5.337
0.205,0.042,0.284,-5.337
0.204,0.046,0.284,-5.337
0.234,0.040,0.280,-5.337
0.264,0.041,0.275,-5.337
0.260,0.043,0.273,-5.337
0.232,0.044,0.271,-5.337
0.244,0.045,0.275,-5.337
0.192,0.045,0.279,-5.337
0.147,0.044,0.282,-5.337
0.193,0.043,0.281,-5.337
0.267,0.044,0.281,-5.337
0.254,0.047,0.283,-5.337
0.247,0.042,0.283,-5.337
0.236,0.043,0.280,-5.337
0.129,0.046,0.279,-5.337
0.127,0.043,0.282,-5.337
0.254,0.043,0.284,-5.337
0.233,0.045,0.283,-5.337
0.205,0.047,0.282,-5.337
0.266,0.045,0.280,-5.337
0.240,0.045,0.279,-5.337
0.175,0.047,0.276,-5.337
0.147,0.049,0.277,-5.337
0.144,0.049,0.281,-5.337
0.240,0.049,0.283,-5.337
0.292,0.046,0.285,-5.337
0.234,0.048,0.285,-5.337
0.233,0.048,0.281,-5.337
0.235,0.049,0.281,-5.337
0.119,0.053,0.282,-5.337
0.088,0.054,0.282,-5.337
0.124,0.052,0.282,-5.337
0.219,0.055,0.283,-5.337
0.245,0.057,0.283,-5.337
0.209,0.055,0.284,-5.337
0.202,0.051,0.289,-5.337
0.200,0.053,0.286,-5.337
0.215,0.057,0.282,-5.337
0.219,0.055,0.276,-5.337
0.197,0.050,0.277,-5.337
0.185,0.049,0.278,-5.337
0.193,0.049,0.279,-5.337
0.208,0.048,0.279,-5.337
0.138,0.053,0.279,-5.337
0.082,0.050,0.279,-5.337
0.123,0.046,0.280,-5.337
0.186,0.039,0.283,-5.337
0.221,0.042,0.291,-5.337
0.196,0.046,0.287,-5.337
0.151,0.048,0.279,-5.337
0.190,0.043,0.275,-5.337
0.230,0.045,0.280,-5.337
0.311,0.045,0.283,-5.337
0.350,0.048,0.283,-5.337
0.309,0.050,0.279,-5.337
0.269,0.050,0.282,-5.337
0.247,0.049,0.286,-5.337
0.320,0.048,0.286,-5.337
0.256,0.050,0.280,-5.337
0.159,0.055,0.280,-5.337
0.172,0.050,0.279,-5.337
0.256,0.045,0.280,-5.337
0.315,0.039,0.284,-5.337
0.345,0.042,0.283,-5.337
0.282,0.047,0.284,-5.337
0.215,0.052,0.286,-5.337
0.207,0.053,0.285,-5.337
0.232,0.052,0.283,-5.337
0.244,0.051,0.281,-5.337
0.281,0.049,0.280,-5.337
0.299,0.051,0.279,-5.337
0.272,0.052,0.282,-5.337
0.226,0.054,0.283,-5.337
0.189,0.056,0.283,-5.337
0.184,0.053,0.284,-5.337
0.217,0.053,0.287,-5.337
0.284,0.052,0.283,-5.337
0.302,0.052,0.281,-5.337
0.334,0.051,0.284,-5.337
0.324,0.053,0.288,-5.337
0.256,0.056,0.286,-5.337
0.224,0.057,0.282,-5.337
0.307,0.055,0.279,-5.337
0.284,0.056,0.282,-5.337
0.217,0.058,0.282,-5.337
0.107,0.060,0.283,-5.337
0.198,0.054,0.279,-5.337
0.257,0.054,0.278,-5.337
0.280,0.054,0.280,-5.337
0.242,0.058,0.285,-5.337
0.203,0.055,0.285,-5.337
0.177,0.055,0.283,-5.337
0.188,0.056,0.281,-5.337
0.168,0.058,0.279,-5.337
0.254,0.054,0.279,-5.337
0.308,0.052,0.281,-5.337
0.274,0.057,0.280,-5.337
0.218,0.059,0.283,-5.337
0.247,0.054,0.286,-5.337
0.268,0.056,0.286,-5.337
0.265,0.056,0.286,-5.337
0.194,0.061,0.283,-5.337
0.221,0.059,0.282,-5.337
0.287,0.059,0.282,-5.337
0.244,0.055,0.283,-5.337
0.203,0.056,0.285,-5.337
0.216,0.055,0.285,-5.337
0.202,0.053,0.281,-5.337
0.271,0.053,0.278,-5.337
0.299,0.053,0.279,-5.337
0.316,0.055,0.278,-5.337
0.273,0.056,0.274,-5.337
0.234,0.056,0.276,-5.337
0.223,0.058,0.282,-5.337
0.244,0.059,0.284,-5.337
0.223,0.060,0.284,-5.337
0.223,0.061,0.283,-5.337
0.271,0.060,0.283,-5.337
0.315,0.058,0.285,-5.337
0.282,0.058,0.287,-5.337
0.218,0.059,0.284,-5.337
0.221,0.063,0.284,-5.337
0.270,0.061,0.284,-5.337
0.258,0.061,0.282,-5.337
0.208,0.062,0.284,-5.337
0.267,0.062,0.286,-5.337
0.293,0.058,0.283,-5.337
0.262,0.061,0.282,-5.337
0.243,0.061,0.280,-5.337
0.222,0.060,0.279,-5.337
0.269,0.056,0.278,-5.337
0.313,0.056,0.280,-5.337
0.237,0.056,0.279,-5.337
0.246,0.058,0.279,-5.337
0.282,0.059,0.280,-5.337
0.349,0.061,0.286,-5.337
0.268,0.061,0.285,-5.337
0.210,0.057,0.283,-5.337
0.241,0.054,0.283,-5.337
0.276,0.057,0.283,-5.337
0.297,0.057,0.281,-5.337
0.292,0.059,0.281,-5.337
0.265,0.058,0.284,-5.337
0.255,0.056,0.284,-5.337
0.278,0.057,0.286,-5.337
0.259,0.061,0.288,-5.337
0.235,0.059,0.287,-5.337
0.213,0.055,0.282,-5.337
0.275,0.052,0.279,-5.337
0.279,0.054,0.277,-5.337
0.224,0.059,0.279,-5.337
0.207,0.058,0.284,-5.337
0.243,0.055,0.290,-5.337
0.261,0.050,0.287,-5.337
0.251,0.052,0.284,-5.337
0.215,0.053,0.284,-5.337
0.195,0.056,0.281,-5.337
0.218,0.055,0.281,-5.337
0.255,0.055,0.283,-5.337
0.310,0.050,0.284,-5.337
0.280,0.056,0.286,-5.337
0.171,0.056,0.285,-5.337
0.157,0.055,0.282,-5.337
0.206,0.053,0.280,-5.337
0.335,0.051,0.276,-5.337
0.345,0.055,0.278,-5.337
0.289,0.056,0.280,-5.337
0.299,0.054,0.280,-5.337
0.331,0.053,0.283,-5.337
0.289,0.055,0.287,-5.337
0.249,0.055,0.286,-5.337
0.219,0.055,0.284,-5.337
0.268,0.056,0.281,-5.337
0.307,0.054,0.284,-5.337
0.267,0.055,0.284,-5.337
0.212,0.058,0.282,-5.337
0.238,0.056,0.277,-5.337
0.193,0.057,0.277,-5.337
0.146,0.054,0.278,-5.337
0.189,0.054,0.277,-5.337
0.200,0.055,0.276,-5.337
0.209,0.056,0.278,-5.337
0.232,0.055,0.283,-5.337
0.212,0.052,0.285,-5.337
0.242,0.049,0.285,-5.337
0.306,0.051,0.283,-5.337
0.250,0.053,0.282,-5.337
0.195,0.052,0.282,-5.337
0.260,0.054,0.286,-5.337
0.280,0.056,0.285,-5.337
0.224,0.059,0.283,-5.337
0.214,0.055,0.279,-5.337
0.251,0.049,0.278,-5.337
0.232,0.051,0.280,-5.337
0.201,0.057,0.285,-5.337
0.160,0.058,0.283,-5.337
0.213,0.055,0.280,-5.337
0.241,0.051,0.278,-5.337
0.189,0.053,0.280,-5.337
0.140,0.053,0.280,-5.337
0.171,0.052,0.280,-5.337
0.213,0.047,0.282,-5.337
0.258,0.043,0.280,-5.337
0.231,0.043,0.278,-5.337
0.151,0.047,0.280,-5.337
0.176,0.046,0.282,-5.337
0.247,0.042,0.280,-5.337
0.280,0.043,0.280,-5.337
0.224,0.049,0.281,-5.337
0.156,0.051,0.285,-5.337
0.137,0.049,0.285,-5.337
0.174,0.045,0.284,-5.337
0.226,0.047,0.281,-5.337
0.216,0.048,0.280,-5.337
0.224,0.046,0.280,-5.337
0.272,0.046,0.282,-5.337
0.269,0.047,0.284,-5.337
0.300,0.048,0.284,-5.337
0.277,0.051,0.281,-5.337
0.280,0.051,0.280,-5.337
0.340,0.047,0.279,-5.337
0.342,0.048,0.282,-5.337
0.324,0.045,0.281,-5.337
0.339,0.043,0.282,-5.337
0.272,0.043,0.283,-5.337
0.263,0.043,0.283,-5.337
0.320,0.043,0.279,-5.337
0.328,0.044,0.281,-5.337
0.246,0.045,0.284,-5.337
0.239,0.042,0.282,-5.337
0.253,0.044,0.277,-5.337
0.250,0.043,0.277,-5.337
0.270,0.042,0.279,-5.337
0.296,0.043,0.280,-5.337
0.269,0.047,0.285,-5.337
0.275,0.049,0.289,-5.337
0.236,0.046,0.290,-5.337
0.177,0.043,0.286,-5.337
0.151,0.042,0.280,-5.337
0.197,0.037,0.277,-5.337
0.253,0.040,0.278,-5.337
0.261,0.044,0.283,-5.337
0.218,0.047,0.286,-5.337
0.175,0.045,0.285,-5.337
0.164,0.043,0.280,-5.337
0.149,0.043,0.278,-5.337
0.155,0.042,0.275,-5.337
0.189,0.041,0.271,-5.337
0.223,0.044,0.270,-5.337
0.208,0.047,0.275,-5.337
0.211,0.043,0.284,-5.337
0.214,0.043,0.289,-5.337
0.254,0.044,0.290,-5.337
0.288,0.043,0.285,-5.337
0.267,0.041,0.281,-5.337
0.191,0.041,0.281,-5.337
0.144,0.043,0.281,-5.337
0.178,0.047,0.281,-5.337
0.181,0.047,0.280,-5.337
0.167,0.045,0.282,-5.337
0.132,0.046,0.281,-5.337
0.193,0.048,0.278,-5.337
0.247,0.046,0.275,-5.337
0.249,0.043,0.278,-5.337
0.232,0.041,0.281,-5.337
0.230,0.041,0.284,-5.337
0.156,0.041,0.285,-5.337
0.116,0.046,0.286,-5.337
0.104,0.045,0.282,-5.337
0.193,0.046,0.277,-5.337
0.249,0.039,0.278,-5.337
0.288,0.037,0.278,-5.337
0.247,0.043,0.280,-5.337
0.185,0.048,0.282,-5.337
0.189,0.045,0.284,-5.337
0.199,0.041,0.285,-5.337
0.229,0.042,0.283,-5.337
0.182,0.043,0.279,-5.337
0.089,0.043,0.277,-5.337
0.089,0.045,0.279,-5.337
0.118,0.044,0.280,-5.337
0.217,0.042,0.280,-5.337
0.227,0.042,0.282,-5.337
0.184,0.043,0.283,-5.337
0.138,0.042,0.283,-5.337
0.080,0.037,0.281,-5.337
0.095,0.037,0.278,-5.337
0.195,0.035,0.278,-5.337
0.225,0.036,0.280,-5.337
0.223,0.036,0.275,-5.337
0.213,0.039,0.273,-5.337
0.236,0.038,0.274,-5.337
0.232,0.036,0.277,-5.337
0.204,0.039,0.281,-5.337
0.198,0.041,0.286,-5.337
0.276,0.034,0.288,-5.337
0.295,0.031,0.284,-5.337
0.238,0.035,0.281,-5.337
0.170,0.042,0.282,-5.337
0.192,0.041,0.281,-5.337
0.176,0.041,0.280,-5.337
0.160,0.042,0.284,-5.337
0.125,0.044,0.289,-5.337
0.201,0.042,0.289,-5.337
0.306,0.037,0.285,-5.337
0.292,0.035,0.287,-5.337
0.259,0.035,0.287,-5.337
0.198,0.041,0.284,-5.337
0.171,0.044,0.282,-5.337
0.257,0.039,0.279,-5.337
0.202,0.039,0.278,-5.337
0.115,0.040,0.280,-5.337
0.164,0.037,0.281,-5.337
0.213,0.038,0.280,-5.337
0.178,0.039,0.280,-5.337
0.161,0.039,0.288,-5.337
0.109,0.042,0.288,-5.337
0.131,0.042,0.286,-5.337
0.191,0.044,0.284,-5.337
0.157,0.048,0.279,-5.337
0.202,0.046,0.279,-5.337
0.289,0.041,0.282,-5.337
0.290,0.039,0.282,-5.337
0.201,0.040,0.282,-5.337
0.108,0.043,0.282,-5.337
0.133,0.042,0.282,-5.337
0.147,0.042,0.282,-5.337
0.171,0.041,0.280,-5.337
0.183,0.039,0.284,-5.337
0.182,0.040,0.289,-5.337
0.216,0.038,0.292,-5.337
0.153,0.042,0.287,-5.337
0.131,0.043,0.281,-5.337
0.159,0.042,0.275,-5.337
0.147,0.043,0.275,-5.337
0.190,0.045,0.277,-5.337
0.261,0.043,0.283,-5.337
0.304,0.040,0.284,-5.337
0.265,0.040,0.281,-5.337
0.201,0.035,0.278,-5.337
0.203,0.035,0.275,-5.337
0.214,0.037,0.278,-5.337
0.217,0.041,0.284,-5.337
0.173,0.041,0.284,-5.337
0.120,0.046,0.280,-5.337
0.137,0.044,0.280,-5.337
0.175,0.041,0.285,-5.337
0.124,0.037,0.289,-5.337
0.149,0.034,0.289,-5.337
0.211,0.034,0.285,-5.337
0.218,0.032,0.282,-5.337
0.155,0.031,0.282,-5.337
0.157,0.031,0.282,-5.337
0.210,0.032,0.282,-5.337
0.193,0.034,0.281,-5.337
0.090,0.036,0.286,-5.337
0.078,0.036,0.286,-5.337
0.144,0.035,0.282,-5.337
0.199,0.032,0.280,-5.337
0.190,0.033,0.279,-5.337
0.138,0.032,0.280,-5.337
0.121,0.036,0.279,-5.337
0.122,0.033,0.279,-5.337
0.109,0.033,0.280,-5.337
0.109,0.032,0.285,-5.337
0.145,0.034,0.286,-5.337
0.210,0.031,0.281,-5.337
0.189,0.032,0.278,-5.337
0.160,0.036,0.277,-5.337
0.195,0.035,0.278,-5.337
0.268,0.032,0.283,-5.337
0.272,0.034,0.285,-5.337
0.239,0.034,0.284,-5.337
0.217,0.034,0.277,-5.337
0.213,0.032,0.274,-5.337
0.263,0.032,0.273,-5.337
0.275,0.033,0.276,-5.337
0.228,0.035,0.275,-5.337
0.144,0.037,0.282,-5.337
0.128,0.037,0.288,-5.337
0.151,0.037,0.285,-5.337
0.181,0.034,0.280,-5.337
0.130,0.035,0.281,-5.337
0.115,0.033,0.281,-5.337
0.154,0.032,0.281,-5.337
0.100,0.033,0.280,-5.337
0.116,0.033,0.287,-5.337
0.188,0.034,0.291,-5.337
0.192,0.033,0.289,-5.337
0.150,0.036,0.282,-5.337
0.157,0.038,0.282,-5.337
0.206,0.034,0.283,-5.337
0.241,0.031,0.281,-5.337
0.210,0.031,0.281,-5.337
0.131,0.035,0.282,-5.337
0.193,0.032,0.284,-5.337
0.242,0.031,0.282,-5.337
0.216,0.034,0.282,-5.337
0.166,0.038,0.282,-5.337
0.116,0.037,0.283,-5.337
0.170,0.036,0.283,-5.337
0.209,0.035,0.282,-5.337
0.184,0.037,0.280,-5.337
0.148,0.039,0.279,-5.337
0.113,0.038,0.282,-5.337
0.130,0.036,0.284,-5.337
0.174,0.037,0.285,-5.337
0.174,0.037,0.283,-5.337
0.170,0.039,0.279,-5.337
0.209,0.036,0.277,-5.337
0.240,0.040,0.277,-5.337
0.182,0.039,0.279,-5.337
0.157,0.038,0.283,-5.337
0.202,0.035,0.284,-5.337
0.235,0.033,0.285,-5.337
0.219,0.035,0.281,-5.337
0.213,0.037,0.281,-5.337
0.231,0.035,0.281,-5.337
0.154,0.038,0.283,-5.337
0.070,0.036,0.280,-5.337
0.068,0.035,0.281,-5.337
0.153,0.033,0.279,-5.337
0.197,0.032,0.278,-5.337
0.155,0.031,0.282,-5.337
0.092,0.034,0.285,-5.337
0.081,0.031,0.280,-5.337
0.122,0.034,0.279,-5.337
0.135,0.036,0.285,-5.337
0.163,0.036,0.288,-5.337
0.226,0.033,0.286,-5.337
0.250,0.034,0.284,-5.337
0.189,0.036,0.282,-5.337
0.171,0.036,0.279,-5.337
0.168,0.037,0.277,-5.337
0.169,0.041,0.280,-5.337
0.210,0.038,0.282,-5.337
0.253,0.034,0.284,-5.337
0.219,0.032,0.286,-5.337
0.200,0.037,0.285,-5.337
0.171,0.040,0.280,-5.337
0.188,0.037,0.281,-5.337
0.148,0.037,0.284,-5.337
0.081,0.037,0.282,-5.337
0.083,0.041,0.280,-5.337
0.109,0.042,0.278,-5.337
0.135,0.044,0.278,-5.337
0.124,0.042,0.279,-5.337
0.069,0.045,0.280,-5.337
0.129,0.041,0.281,-5.337
0.174,0.041,0.281,-5.337
0.106,0.044,0.277,-5.337
0.136,0.044,0.279,-5.337
0.126,0.046,0.285,-5.337
0.133,0.046,0.288,-5.337
0.141,0.046,0.284,-5.337
0.120,0.049,0.282,-5.337
0.099,0.048,0.282,-5.337
0.178,0.045,0.281,-5.337
0.195,0.046,0.280,-5.337
0.152,0.046,0.280,-5.337
0.104,0.044,0.282,-5.337
0.137,0.046,0.281,-5.337
0.138,0.047,0.278,-5.337
0.173,0.047,0.277,-5.337
0.186,0.046,0.280,-5.337
0.156,0.047,0.279,-5.337
0.151,0.048,0.280,-5.337
0.145,0.046,0.283,-5.337
0.123,0.047,0.285,-5.337
0.167,0.045,0.285,-5.337
0.154,0.047,0.282,-5.337
0.192,0.045,0.280,-5.337
0.214,0.045,0.279,-5.337
0.203,0.047,0.279,-5.337
0.217,0.046,0.278,-5.337
0.202,0.047,0.280,-5.337
0.189,0.048,0.282,-5.337
0.158,0.048,0.282,-5.337
0.170,0.047,0.282,-5.337
0.218,0.044,0.280,-5.337
0.213,0.048,0.279,-5.337
0.229,0.048,0.276,-5.337
0.225,0.043,0.276,-5.337
0.218,0.040,0.284,-5.337
0.138,0.042,0.287,-5.337
0.089,0.046,0.287,-5.337
0.135,0.047,0.283,-5.337
0.127,0.049,0.279,-5.337
0.125,0.049,0.278,-5.337
0.189,0.046,0.279,-5.337
0.260,0.042,0.277,-5.337
0.231,0.045,0.277,-5.337
0.178,0.047,0.278,-5.337
0.178,0.046,0.278,-5.337
0.211,0.044,0.277,-5.337
0.225,0.044,0.280,-5.337
0.218,0.045,0.284,-5.337
0.209,0.047,0.286,-5.337
0.202,0.047,0.283,-5.337
0.176,0.046,0.280,-5.337
0.211,0.042,0.276,-5.337
0.265,0.044,0.278,-5.337
0.255,0.048,0.279,-5.337
0.171,0.053,0.279,-5.337
0.149,0.051,0.281,-5.337
0.167,0.049,0.280,-5.337
0.193,0.050,0.280,-5.337
0.216,0.048,0.276,-5.337
0.268,0.048,0.277,-5.337
0.299,0.048,0.280,-5.337
0.255,0.052,0.285,-5.337
0.161,0.055,0.282,-5.337
0.118,0.056,0.281,-5.337
0.195,0.049,0.282,-5.337
0.226,0.044,0.282,-5.337
0.234,0.045,0.284,-5.337
0.205,0.048,0.284,-5.337
0.156,0.051,0.282,-5.337
0.137,0.051,0.283,-5.337
0.171,0.051,0.283,-5.337
0.157,0.051,0.279,-5.337
0.103,0.054,0.279,-5.337
0.156,0.052,0.281,-5.337
0.307,0.049,0.283,-5.337
0.295,0.052,0.284,-5.337
0.199,0.051,0.283,-5.337
0.200,0.053,0.281,-5.337
0.209,0.054,0.281,-5.337
0.190,0.057,0.281,-5.337
0.158,0.062,0.281,-5.337
0.207,0.059,0.282,-5.337
0.206,0.061,0.284,-5.337
0.159,0.060,0.284,-5.337
0.246,0.056,0.281,-5.337
0.339,0.053,0.278,-5.337
0.296,0.056,0.279,-5.337
0.218,0.055,0.283,-5.337
0.198,0.055,0.284,-5.337
0.232,0.057,0.283,-5.337
0.225,0.056,0.281,-5.337
0.265,0.058,0.282,-5.337
0.233,0.057,0.285,-5.337
0.213,0.058,0.283,-5.337
0.228,0.054,0.280,-5.337
0.189,0.054,0.282,-5.337
0.178,0.057,0.280,-5.337
0.209,0.058,0.279,-5.337
0.197,0.059,0.280,-5.337
0.198,0.061,0.284,-5.337
0.175,0.060,0.286,-5.337
0.184,0.058,0.289,-5.337
0.240,0.051,0.287,-5.337
0.300,0.053,0.285,-5.337
0.259,0.056,0.281,-5.337
0.143,0.058,0.278,-5.337
0.130,0.056,0.276,-5.337
0.211,0.058,0.276,-5.337
0.283,0.056,0.277,-5.337
0.266,0.059,0.282,-5.337
0.193,0.061,0.285,-5.337
0.183,0.058,0.285,-5.337
0.206,0.056,0.282,-5.337
0.249,0.055,0.281,-5.337
0.182,0.057,0.280,-5.337
0.108,0.058,0.282,-5.337
0.125,0.055,0.283,-5.337
0.211,0.051,0.284,-5.337
0.204,0.053,0.285,-5.337
0.242,0.053,0.284,-5.337
0.239,0.057,0.281,-5.337
0.158,0.063,0.276,-5.337
0.215,0.060,0.280,-5.337
0.309,0.055,0.287,-5.337
0.322,0.057,0.291,-5.337
0.239,0.060,0.289,-5.337
0.169,0.064,0.286,-5.337
0.156,0.060,0.283,-5.337
0.162,0.056,0.283,-5.337
0.192,0.057,0.285,-5.337
0.172,0.057,0.284,-5.337
0.109,0.059,0.281,-5.337
0.146,0.059,0.279,-5.337
0.202,0.057,0.279,-5.337
0.144,0.058,0.279,-5.337
0.186,0.054,0.280,-5.337
0.216,0.055,0.280,-5.337
0.187,0.055,0.281,-5.337
0.183,0.057,0.280,-5.337
0.193,0.055,0.282,-5.337
0.247,0.057,0.285,-5.337
0.282,0.058,0.288,-5.337
0.270,0.057,0.289,-5.337
0.276,0.055,0.286,-5.337
0.280,0.055,0.281,-5.337
0.222,0.056,0.280,-5.337
0.221,0.057,0.281,-5.337
0.242,0.056,0.284,-5.337
0.285,0.054,0.287,-5.337
0.299,0.055,0.286,-5.337
0.213,0.060,0.283,-5.337
0.242,0.062,0.283,-5.337
0.239,0.062,0.281,-5.337
0.197,0.064,0.282,-5.337
0.237,0.058,0.284,-5.337
0.273,0.058,0.286,-5.337
0.272,0.057,0.288,-5.337
0.228,0.061,0.288,-5.337
0.288,0.059,0.282,-5.337
0.292,0.062,0.282,-5.337
0.227,0.060,0.283,-5.337
0.246,0.058,0.282,-5.337
0.232,0.060,0.280,-5.337
0.258,0.055,0.278,-5.337
0.317,0.056,0.280,-5.337
0.270,0.060,0.280,-5.337
0.197,0.062,0.281,-5.337
0.158,0.063,0.283,-5.337
0.178,0.059,0.288,-5.337
0.189,0.061,0.286,-5.337
0.180,0.061,0.285,-5.337
0.214,0.062,0.282,-5.337
0.273,0.064,0.281,-5.337
0.251,0.066,0.280,-5.337
0.258,0.062,0.282,-5.337
0.238,0.060,0.282,-5.337
0.205,0.063,0.283,-5.337
0.211,0.059,0.280,-5.337
0.254,0.059,0.279,-5.337
0.240,0.059,0.281,-5.337
0.218,0.058,0.281,-5.337
0.187,0.061,0.281,-5.337
0.215,0.061,0.279,-5.337
0.284,0.060,0.279,-5.337
0.297,0.058,0.283,-5.337
0.288,0.058,0.285,-5.337
0.287,0.057,0.286,-5.337
0.213,0.061,0.289,-5.337
0.209,0.059,0.286,-5.337
0.281,0.056,0.283,-5.337
0.323,0.055,0.282,-5.337
0.334,0.055,0.283,-5.337
0.300,0.051,0.281,-5.337
0.300,0.047,0.279,-5.337
0.277,0.048,0.276,-5.337
0.217,0.054,0.278,-5.337
0.175,0.055,0.279,-5.337
0.196,0.055,0.280,-5.337
0.237,0.052,0.280,-5.337
0.213,0.054,0.278,-5.337
0.185,0.054,0.280,-5.337
0.166,0.055,0.285,-5.337
0.218,0.051,0.285,-5.337
0.267,0.051,0.283,-5.337
0.213,0.055,0.280,-5.337
0.153,0.057,0.278,-5.337
0.194,0.056,0.279,-5.337
0.180,0.058,0.280,-5.337
0.241,0.053,0.285,-5.337
0.331,0.051,0.291,-5.337
0.315,0.053,0.291,-5.337
0.286,0.053,0.285,-5.337
0.269,0.054,0.280,-5.337
0.210,0.056,0.277,-5.337
0.169,0.055,0.280,-5.337
0.228,0.055,0.281,-5.337
0.245,0.054,0.281,-5.337
0.302,0.050,0.280,-5.337
0.277,0.052,0.280,-5.337
0.325,0.049,0.281,-5.337
0.362,0.056,0.284,-5.337
0.306,0.056,0.287,-5.337
0.261,0.056,0.288,-5.337
0.266,0.056,0.283,-5.337
0.293,0.053,0.281,-5.337
0.271,0.056,0.280,-5.337
0.178,0.054,0.280,-5.337
0.188,0.053,0.282,-5.337
0.231,0.057,0.283,-5.337
0.217,0.054,0.283,-5.337
0.263,0.052,0.284,-5.337
0.236,0.056,0.290,-5.337
0.210,0.054,0.286,-5.337
0.278,0.052,0.283,-5.337
0.283,0.055,0.283,-5.337
0.263,0.053,0.285,-5.337
0.226,0.054,0.285,-5.337
0.198,0.057,0.285,-5.337
0.181,0.058,0.285,-5.337
0.199,0.059,0.284,-5.337
0.321,0.055,0.279,-5.337
0.286,0.055,0.280,-5.337
0.179,0.056,0.282,-5.337
0.199,0.052,0.283,-5.337
0.258,0.048,0.280,-5.337
0.273,0.049,0.283,-5.337
0.200,0.049,0.284,-5.337
0.186,0.050,0.286,-5.337
0.164,0.053,0.283,-5.337
0.173,0.052,0.282,-5.337
0.211,0.049,0.284,-5.337
0.236,0.044,0.280,-5.337
0.301,0.044,0.279,-5.337
0.339,0.044,0.281,-5.337
0.273,0.046,0.286,-5.337
0.232,0.046,0.289,-5.337
0.212,0.046,0.291,-5.337
0.262,0.045,0.287,-5.337
0.281,0.046,0.285,-5.337
0.244,0.049,0.280,-5.337
0.219,0.050,0.279,-5.337
0.276,0.046,0.281,-5.337
0.295,0.048,0.287,-5.337
0.240,0.049,0.290,-5.337
0.190,0.049,0.288,-5.337
0.208,0.048,0.284,-5.337
0.256,0.048,0.283,-5.337
0.233,0.052,0.284,-5.337
0.222,0.055,0.285,-5.337
0.223,0.053,0.282,-5.337
0.225,0.050,0.281,-5.337
0.246,0.048,0.283,-5.337
0.190,0.046,0.283,-5.337
0.194,0.044,0.281,-5.337
0.205,0.046,0.281,-5.337
0.217,0.043,0.283,-5.337
0.235,0.042,0.285,-5.337
0.304,0.042,0.285,-5.337
0.297,0.042,0.282,-5.337
0.261,0.044,0.277,-5.337
0.292,0.045,0.276,-5.337
0.291,0.046,0.281,-5.337
0.226,0.044,0.281,-5.337
0.241,0.042,0.279,-5.337
0.251,0.046,0.278,-5.337
0.206,0.049,0.280,-5.337
0.203,0.048,0.280,-5.337
0.192,0.045,0.280,-5.337
0.211,0.042,0.282,-5.337
0.235,0.044,0.283,-5.337
0.190,0.043,0.285,-5.337
0.209,0.044,0.285,-5.337
0.202,0.043,0.284,-5.337
0.162,0.047,0.283,-5.337
0.237,0.043,0.283,-5.337
0.278,0.045,0.282,-5.337
0.241,0.043,0.284,-5.337
0.225,0.042,0.287,-5.337
0.222,0.043,0.288,-5.337
0.255,0.044,0.286,-5.337
0.244,0.043,0.280,-5.337
0.223,0.040,0.275,-5.337
0.262,0.038,0.277,-5.337
0.255,0.040,0.280,-5.337
0.260,0.042,0.284,-5.337
0.198,0.044,0.285,-5.337
0.191,0.043,0.288,-5.337
0.194,0.046,0.282,-5.337
0.200,0.044,0.279,-5.337
0.195,0.044,0.276,-5.337
0.217,0.041,0.274,-5.337
0.182,0.042,0.276,-5.337
0.235,0.044,0.282,-5.337
0.220,0.047,0.283,-5.337
0.218,0.047,0.280,-5.337
0.270,0.046,0.280,-5.337
0.305,0.043,0.285,-5.337
0.269,0.042,0.286,-5.337
0.216,0.040,0.282,-5.337
0.219,0.041,0.283,-5.337
0.238,0.043,0.283,-5.337
0.239,0.043,0.286,-5.337
0.231,0.044,0.286,-5.337
0.200,0.043,0.286,-5.337
0.151,0.042,0.278,-5.337
0.124,0.042,0.278,-5.337
0.121,0.042,0.280,-5.337
0.156,0.037,0.285,-5.337
0.205,0.032,0.286,-5.337
0.265,0.037,0.284,-5.337
0.189,0.040,0.282,-5.337
0.129,0.045,0.285,-5.337
0.178,0.043,0.284,-5.337
0.173,0.042,0.280,-5.337
0.176,0.044,0.280,-5.337
0.204,0.048,0.281,-5.337
0.110,0.045,0.283,-5.337
0.155,0.038,0.285,-5.337
0.308,0.037,0.281,-5.337
0.294,0.039,0.280,-5.337
0.234,0.039,0.279,-5.337
0.247,0.039,0.280,-5.337
0.192,0.041,0.282,-5.337
0.118,0.043,0.281,-5.337
0.118,0.045,0.281,-5.337
0.197,0.043,0.280,-5.337
0.226,0.040,0.282,-5.337
0.172,0.040,0.284,-5.337
0.159,0.039,0.285,-5.337
0.160,0.039,0.286,-5.337
0.220,0.037,0.286,-5.337
0.336,0.035,0.286,-5.337
0.313,0.036,0.283,-5.337
0.174,0.039,0.280,-5.337
0.095,0.039,0.281,-5.337
0.162,0.036,0.283,-5.337
0.214,0.035,0.285,-5.337
0.225,0.035,0.284,-5.337
0.246,0.037,0.282,-5.337
0.203,0.034,0.282,-5.337
0.221,0.034,0.284,-5.337
0.223,0.035,0.284,-5.337
0.211,0.036,0.285,-5.337
0.170,0.035,0.282,-5.337
0.154,0.036,0.279,-5.337
0.161,0.037,0.281,-5.337
0.209,0.030,0.283,-5.337
0.198,0.029,0.284,-5.337
0.174,0.034,0.280,-5.337
0.129,0.033,0.280,-5.337
0.164,0.031,0.281,-5.337
0.233,0.031,0.284,-5.337
0.233,0.036,0.285,-5.337
0.136,0.039,0.285,-5.337
0.100,0.035,0.283,-5.337
0.126,0.035,0.281,-5.337
0.157,0.036,0.280,-5.337
0.176,0.036,0.280,-5.337
0.177,0.034,0.282,-5.337
0.200,0.035,0.281,-5.337
0.235,0.035,0.283,-5.337
0.245,0.037,0.289,-5.337
0.192,0.038,0.288,-5.337
0.248,0.033,0.284,-5.337
0.246,0.033,0.282,-5.337
0.194,0.037,0.284,-5.337
0.225,0.038,0.282,-5.337
0.192,0.038,0.284,-5.337
0.196,0.033,0.286,-5.337
0.220,0.032,0.287,-5.337
0.256,0.034,0.284,-5.337
0.260,0.036,0.280,-5.337
0.206,0.037,0.282,-5.337
0.124,0.040,0.285,-5.337
0.092,0.041,0.287,-5.337
0.084,0.046,0.285,-5.337
0.076,0.043,0.286,-5.337
0.180,0.036,0.287,-5.337
0.197,0.038,0.284,-5.337
0.161,0.039,0.279,-5.337
0.248,0.038,0.277,-5.337
0.256,0.035,0.280,-5.337
0.188,0.034,0.286,-5.337
0.126,0.035,0.289,-5.337
0.195,0.039,0.287,-5.337
0.259,0.039,0.284,-5.337
0.291,0.040,0.285,-5.337
0.170,0.044,0.285,-5.337
0.046,0.039,0.286,-5.337
0.138,0.035,0.283,-5.337
0.247,0.034,0.279,-5.337
0.160,0.037,0.279,-5.337
0.153,0.030,0.283,-5.337
0.177,0.032,0.287,-5.337
0.131,0.034,0.286,-5.337
0.121,0.033,0.285,-5.337
0.095,0.033,0.283,-5.337
0.044,0.034,0.284,-5.337
0.096,0.036,0.283,-5.337
0.121,0.039,0.285,-5.337
0.162,0.037,0.287,-5.337
0.182,0.036,0.287,-5.337
0.167,0.036,0.287,-5.337
0.161,0.039,0.286,-5.337
0.234,0.036,0.282,-5.337
0.234,0.036,0.279,-5.337
0.204,0.038,0.279,-5.337
0.181,0.035,0.280,-5.337
0.165,0.036,0.281,-5.337
0.138,0.038,0.283,-5.337
0.150,0.040,0.283,-5.337
0.109,0.040,0.287,-5.337
0.207,0.033,0.284,-5.337
0.261,0.032,0.281,-5.337
0.294,0.030,0.280,-5.337
0.275,0.032,0.283,-5.337
0.220,0.033,0.289,-5.337
0.164,0.036,0.293,-5.337
0.186,0.035,0.293,-5.337
0.140,0.037,0.291,-5.337
0.132,0.040,0.287,-5.337
0.147,0.037,0.282,-5.337
0.138,0.040,0.280,-5.337
0.094,0.044,0.279,-5.337
0.148,0.038,0.281,-5.337
0.240,0.037,0.282,-5.337
0.209,0.040,0.280,-5.337
0.185,0.039,0.281,-5.337
0.185,0.034,0.284,-5.337
0.140,0.035,0.285,-5.337
0.180,0.036,0.283,-5.337
0.211,0.039,0.282,-5.337
0.145,0.038,0.285,-5.337
0.084,0.038,0.286,-5.337
0.104,0.035,0.281,-5.337
0.128,0.034,0.277,-5.337
0.152,0.034,0.277,-5.337
0.198,0.036,0.283,-5.337
0.152,0.036,0.287,-5.337
0.062,0.037,0.286,-5.337
0.124,0.034,0.282,-5.337
0.186,0.033,0.281,-5.337
0.235,0.030,0.281,-5.337
0.223,0.035,0.280,-5.337
0.155,0.037,0.277,-5.337
0.159,0.035,0.278,-5.337
0.170,0.035,0.284,-5.337
0.174,0.034,0.290,-5.337
0.132,0.034,0.291,-5.337
0.104,0.033,0.287,-5.337
0.190,0.032,0.282,-5.337
0.235,0.033,0.281,-5.337
0.232,0.031,0.281,-5.337
0.199,0.032,0.283,-5.337
0.174,0.030,0.280,-5.337
0.169,0.032,0.275,-5.337
0.156,0.037,0.276,-5.337
0.162,0.038,0.281,-5.337
0.163,0.037,0.285,-5.337
0.159,0.039,0.282,-5.337
0.138,0.039,0.283,-5.337
0.134,0.035,0.286,-5.337
0.180,0.036,0.288,-5.337
0.209,0.038,0.287,-5.337
0.244,0.039,0.286,-5.337
0.176,0.041,0.285,-5.337
0.088,0.042,0.285,-5.337
0.077,0.040,0.284,-5.337
0.144,0.043,0.280,-5.337
0.212,0.041,0.278,-5.337
0.173,0.041,0.279,-5.337
0.102,0.038,0.282,-5.337
0.101,0.040,0.286,-5.337
0.111,0.042,0.288,-5.337
0.126,0.039,0.289,-5.337
0.156,0.040,0.285,-5.337
0.241,0.040,0.280,-5.337
0.255,0.040,0.279,-5.337
0.240,0.037,0.276,-5.337
0.202,0.034,0.274,-5.337
0.204,0.031,0.278,-5.337
0.246,0.035,0.282,-5.337
0.298,0.034,0.284,-5.337
0.302,0.034,0.286,-5.337
0.249,0.036,0.285,-5.337
0.198,0.039,0.286,-5.337
0.139,0.041,0.283,-5.337
0.191,0.044,0.282,-5.337
0.246,0.043,0.283,-5.337
0.209,0.043,0.286,-5.337
0.198,0.042,0.285,-5.337
0.221,0.044,0.285,-5.337
0.217,0.047,0.285,-5.337
0.184,0.045,0.284,-5.337
0.184,0.042,0.287,-5.337
0.272,0.040,0.289,-5.337
0.302,0.038,0.288,-5.337
0.192,0.042,0.282,-5.337
0.162,0.044,0.276,-5.337
0.205,0.042,0.276,-5.337
0.173,0.041,0.280,-5.337
0.163,0.043,0.285,-5.337
0.168,0.038,0.285,-5.337
0.190,0.038,0.284,-5.337
0.161,0.039,0.284,-5.337
0.133,0.042,0.282,-5.337
0.144,0.044,0.281,-5.337
0.115,0.043,0.282,-5.337
0.142,0.042,0.286,-5.337
0.133,0.044,0.285,-5.337
0.155,0.046,0.283,-5.337
0.205,0.045,0.285,-5.337
0.253,0.045,0.291,-5.337
0.186,0.044,0.290,-5.337
0.098,0.047,0.285,-5.337
0.122,0.048,0.282,-5.337
0.119,0.051,0.282,-5.337
0.037,0.049,0.282,-5.337
0.079,0.046,0.280,-5.337
0.156,0.047,0.282,-5.337
0.198,0.049,0.283,-5.337
0.201,0.046,0.280,-5.337
0.232,0.046,0.281,-5.337
0.182,0.046,0.285,-5.337
0.217,0.044,0.284,-5.337
0.274,0.047,0.277,-5.337
0.251,0.049,0.277,-5.337
0.181,0.051,0.285,-5.337
0.178,0.050,0.287,-5.337
0.186,0.048,0.288,-5.337
0.170,0.047,0.285,-5.337
0.197,0.044,0.285,-5.337
0.233,0.046,0.284,-5.337
0.234,0.049,0.283,-5.337
0.175,0.049,0.279,-5.337
0.138,0.051,0.281,-5.337
0.158,0.051,0.283,-5.337
0.157,0.053,0.284,-5.337
0.188,0.053,0.284,-5.337
0.220,0.051,0.284,-5.337
0.197,0.048,0.283,-5.337
0.191,0.048,0.279,-5.337
0.197,0.047,0.275,-5.337
0.216,0.049,0.281,-5.337
0.157,0.047,0.288,-5.337
0.139,0.049,0.286,-5.337
0.179,0.049,0.283,-5.337
0.199,0.052,0.280,-5.337
0.202,0.048,0.279,-5.337
0.211,0.049,0.276,-5.337
0.220,0.048,0.277,-5.337
