[Parameters]
Operating Mode, Feedback
Subject  AA..ZZ, WT
Session  0..99, 43
No. Trials (1..9999), 500
Mouse Number, 1
Pressure Probe Serial Port, \00\00\00\04COM4
Save additional csv file, TRUE
Save using mouse number, FALSE
A/D Monitor Rate (Hz), 30000.000000
A/D Stimulate Rate (Hz), 30000.000000
A/D input range (+/- V), 5
No. Channels to acquire (N), 2
Pre-Stim Acq. time (ms), 100.000000
Post-Stim Acq. time (ms), 900.000000
Analysis window parameters.M-response Start (ms), 1.100000
Analysis window parameters.M-response Duration (ms), 5.500000
Analysis window parameters.H-response Duration (ms), 6.000000
Analysis window parameters.H-response Start (ms), 6.500000
Feedback window, H response
Proportional gain, 0.100000
Target value, 6.700000
Feedback Ch., 1
Stim Channel to Control (1-4), 4
Trial, 32
Wait for EMG Conditions, FALSE
Channel to monitor (0 - N-1), 1
EMG Hi Limit, 2.000000
EMG Lo Limit, 0.001000
Inter-Stim delay (sec), 10.000000
EMG Monitor Mode, Mean
Time to run Long Stim.(sec), 30
Save Long Stim Data?, OFF
BURST Save time (ms), 1000
BURST Save Interval (x above), 10
Long-Stim. Rep. Rate (Hz), 10.000000
Stim type cluster array.<size(s)>, 4
Stim type cluster array 0.Stimulus Output, Electrical
Stim type cluster array 1.Stimulus Output, OFF
Stim type cluster array 2.Stimulus Output, OFF
Stim type cluster array 3.Stimulus Output, Motor Length
Stim specs cluster array.<size(s)>, 4
Stim specs cluster array 0.Initial Stimulus ampl., 0.300000
Stim specs cluster array 0.Maximum Stimulus, 1.120000
Stim specs cluster array 0.#Pulses in train, 4
Stim specs cluster array 0.Peak Level time (ms), 1.000000
Stim specs cluster array 0.Total pulse period (ms), 150.000000
Stim specs cluster array 0.Start Delay (ms), -50.000000
Stim specs cluster array 0.Pulse Shape, Square
Stim specs cluster array 0.Ramp/Rel. time (ms), 0.100000
Stim specs cluster array 0.Peak Amplitude (V), 0.120000
Stim specs cluster array 1.Initial Stimulus ampl., 0.000000
Stim specs cluster array 1.Maximum Stimulus, 0.000000
Stim specs cluster array 1.#Pulses in train, 3
Stim specs cluster array 1.Peak Level time (ms), 29.000000
Stim specs cluster array 1.Total pulse period (ms), 200.000000
Stim specs cluster array 1.Start Delay (ms), 0.000000
Stim specs cluster array 1.Pulse Shape, Square
Stim specs cluster array 1.Ramp/Rel. time (ms), 0.000000
Stim specs cluster array 1.Peak Amplitude (V), 2.000000
Stim specs cluster array 2.Initial Stimulus ampl., 0.000000
Stim specs cluster array 2.Maximum Stimulus, 0.000000
Stim specs cluster array 2.#Pulses in train, 1
Stim specs cluster array 2.Peak Level time (ms), 25.000000
Stim specs cluster array 2.Total pulse period (ms), 200.000000
Stim specs cluster array 2.Start Delay (ms), 0.000000
Stim specs cluster array 2.Pulse Shape, Square
Stim specs cluster array 2.Ramp/Rel. time (ms), 20.000000
Stim specs cluster array 2.Peak Amplitude (V), 10.000000
Stim specs cluster array 3.Initial Stimulus ampl., 0.000000
Stim specs cluster array 3.Maximum Stimulus, 20.000000
Stim specs cluster array 3.#Pulses in train, 25
Stim specs cluster array 3.Peak Level time (ms), 0.100000
Stim specs cluster array 3.Total pulse period (ms), 4.000000
Stim specs cluster array 3.Start Delay (ms), 205.000000
Stim specs cluster array 3.Pulse Shape, Triangle
Stim specs cluster array 3.Ramp/Rel. time (ms), 3.000000
Stim specs cluster array 3.Peak Amplitude (V), 0.500000
Force cal. (mN/Volt), 100.000000
Force Range (mN), 100.000000
Length cal. (mm/Volt), 10.000000
Length Range (mm), 10.000000
Stim. 1, 0.300000
Stim. 2, 0.000000
Stim. 3, 0.000000
Stim. 4, 0.000000
Monitor acquire time (ms), 100.000000
EMG graph Ymax, 0.100000
Travel limit (mm), 20.000000
Use Pressure Probe, FALSE
Pressure goal (g), 100
Speed (mm/sec), 5.000000
Dwell time (ms), 100.000000
Pressure limit (g), 500.000000
Channel amplitude offset, 0.000000

[DATA]

0.120,0.039,0.281,-5.337
0.136,0.038,0.281,-5.337
0.164,0.039,0.280,-5.337
0.184,0.037,0.280,-5.337
0.267,0.032,0.280,-5.337
0.291,0.033,0.281,-5.337
0.263,0.035,0.285,-5.337
0.149,0.037,0.289,-5.337
0.052,0.035,0.291,-5.337
0.091,0.035,0.285,-5.337
0.134,0.035,0.287,-5.337
0.220,0.032,0.285,-5.337
0.232,0.035,0.279,-5.337
0.172,0.033,0.277,-5.337
0.154,0.033,0.281,-5.337
0.111,0.033,0.283,-5.337
0.093,0.032,0.282,-5.337
0.133,0.031,0.283,-5.337
0.154,0.032,0.285,-5.337
0.191,0.030,0.283,-5.337
0.184,0.029,0.278,-5.337
0.189,0.027,0.275,-5.337
0.207,0.024,0.277,-5.337
0.167,0.025,0.283,-5.337
0.076,0.033,0.286,-5.337
0.100,0.031,0.287,-5.337
0.174,0.030,0.287,-5.337
0.140,0.031,0.288,-5.337
0.097,0.031,0.286,-5.337
0.095,0.032,0.284,-5.337
0.179,0.027,0.282,-5.337
0.253,0.026,0.283,-5.337
0.223,0.030,0.281,-5.337
0.175,0.034,0.280,-5.337
0.197,0.034,0.278,-5.337
0.239,0.033,0.278,-5.337
0.267,0.031,0.279,-5.337
0.232,0.034,0.285,-5.337
0.241,0.035,0.286,-5.337
0.202,0.036,0.283,-5.337
0.207,0.034,0.279,-5.337
0.238,0.032,0.279,-5.337
0.247,0.029,0.281,-5.337
0.174,0.030,0.281,-5.337
0.083,0.032,0.282,-5.337
0.156,0.026,0.282,-5.337
0.254,0.028,0.282,-5.337
0.168,0.035,0.283,-5.337
0.092,0.032,0.282,-5.337
0.181,0.028,0.277,-5.337
0.231,0.031,0.277,-5.337
0.223,0.029,0.280,-5.337
0.216,0.030,0.282,-5.337
0.219,0.031,0.281,-5.337
0.242,0.032,0.283,-5.337
0.222,0.034,0.284,-5.337
0.168,0.035,0.284,-5.337
0.166,0.031,0.283,-5.337
0.192,0.032,0.284,-5.337
0.154,0.030,0.284,-5.337
0.145,0.029,0.283,-5.337
0.162,0.032,0.280,-5.337
0.091,0.037,0.280,-5.337
0.050,0.033,0.281,-5.337
0.110,0.031,0.280,-5.337
0.150,0.028,0.278,-5.337
0.159,0.031,0.279,-5.337
0.160,0.030,0.280,-5.337
0.172,0.028,0.281,-5.337
0.171,0.027,0.286,-5.337
0.176,0.029,0.287,-5.337
0.181,0.029,0.281,-5.337
0.247,0.029,0.276,-5.337
0.252,0.031,0.275,-5.337
0.177,0.030,0.277,-5.337
0.146,0.035,0.280,-5.337
0.167,0.036,0.281,-5.337
0.222,0.034,0.281,-5.337
0.240,0.034,0.281,-5.337
0.191,0.034,0.283,-5.337
0.135,0.035,0.282,-5.337
0.087,0.040,0.280,-5.337
0.127,0.040,0.281,-5.337
0.173,0.038,0.283,-5.337
0.160,0.034,0.283,-5.337
0.126,0.032,0.283,-5.337
0.127,0.031,0.281,-5.337
0.123,0.034,0.279,-5.337
0.145,0.030,0.275,-5.337
0.213,0.028,0.275,-5.337
0.215,0.028,0.279,-5.337
0.132,0.032,0.283,-5.337
0.089,0.032,0.286,-5.337
0.186,0.028,0.285,-5.337
0.222,0.031,0.286,-5.337
0.115,0.034,0.285,-5.337
0.070,0.034,0.285,-5.337
0.124,0.033,0.281,-5.337
0.177,0.033,0.278,-5.337
0.124,0.036,0.278,-5.337
0.067,0.035,0.283,-5.337
0.096,0.032,0.282,-5.337
0.085,0.032,0.280,-5.337
0.177,0.029,0.281,-5.337
0.168,0.031,0.283,-5.337
0.085,0.031,0.281,-5.337
0.145,0.027,0.277,-5.337
0.178,0.026,0.280,-5.337
0.109,0.029,0.286,-5.337
0.106,0.028,0.284,-5.337
0.190,0.025,0.280,-5.337
0.258,0.028,0.277,-5.337
0.258,0.026,0.280,-5.337
0.240,0.026,0.283,-5.337
0.166,0.026,0.283,-5.337
0.180,0.027,0.282,-5.337
0.223,0.029,0.283,-5.337
0.197,0.036,0.286,-5.337
0.205,0.032,0.285,-5.337
0.252,0.028,0.285,-5.337
0.242,0.029,0.279,-5.337
0.198,0.030,0.276,-5.337
0.120,0.032,0.275,-5.337
0.099,0.035,0.279,-5.337
0.164,0.031,0.280,-5.337
0.220,0.034,0.282,-5.337
0.195,0.034,0.282,-5.337
0.129,0.033,0.280,-5.337
0.113,0.032,0.280,-5.337
0.117,0.034,0.280,-5.337
0.134,0.034,0.281,-5.337
0.124,0.036,0.284,-5.337
0.138,0.031,0.282,-5.337
0.228,0.031,0.281,-5.337
0.233,0.034,0.282,-5.337
0.203,0.036,0.283,-5.337
0.144,0.038,0.280,-5.337
0.165,0.036,0.279,-5.337
0.183,0.032,0.281,-5.337
0.182,0.029,0.282,-5.337
0.185,0.030,0.282,-5.337
0.180,0.031,0.280,-5.337
0.119,0.027,0.277,-5.337
0.045,0.026,0.275,-5.337
0.102,0.031,0.278,-5.337
0.128,0.031,0.280,-5.337
0.105,0.030,0.279,-5.337
0.127,0.029,0.275,-5.337
0.192,0.029,0.275,-5.337
0.188,0.030,0.279,-5.337
0.148,0.033,0.280,-5.337
0.144,0.031,0.281,-5.337
0.132,0.030,0.282,-5.337
0.122,0.029,0.280,-5.337
0.148,0.029,0.279,-5.337
0.156,0.036,0.281,-5.337
0.109,0.038,0.282,-5.337
0.157,0.034,0.275,-5.337
0.191,0.034,0.274,-5.337
0.171,0.038,0.276,-5.337
0.176,0.037,0.278,-5.337
0.225,0.033,0.280,-5.337
0.205,0.035,0.281,-5.337
0.196,0.039,0.281,-5.337
0.192,0.039,0.283,-5.337
0.162,0.039,0.285,-5.337
0.182,0.038,0.283,-5.337
0.158,0.040,0.280,-5.337
0.155,0.036,0.275,-5.337
0.183,0.036,0.275,-5.337
0.119,0.037,0.273,-5.337
0.034,0.039,0.276,-5.337
0.107,0.035,0.278,-5.337
0.261,0.034,0.280,-5.337
0.278,0.033,0.279,-5.337
0.171,0.035,0.280,-5.337
0.117,0.035,0.282,-5.337
0.180,0.036,0.281,-5.337
0.233,0.037,0.279,-5.337
0.212,0.037,0.279,-5.337
0.111,0.037,0.277,-5.337
0.088,0.038,0.278,-5.337
0.154,0.038,0.278,-5.337
0.195,0.040,0.278,-5.337
0.173,0.042,0.276,-5.337
0.153,0.044,0.276,-5.337
0.189,0.042,0.279,-5.337
0.259,0.038,0.282,-5.337
0.246,0.042,0.285,-5.337
0.168,0.046,0.280,-5.337
0.142,0.046,0.277,-5.337
0.151,0.044,0.277,-5.337
0.175,0.045,0.278,-5.337
0.168,0.042,0.280,-5.337
0.205,0.041,0.278,-5.337
0.169,0.043,0.274,-5.337
0.159,0.039,0.275,-5.337
0.153,0.043,0.280,-5.337
0.151,0.046,0.282,-5.337
0.192,0.044,0.279,-5.337
0.235,0.045,0.276,-5.337
0.189,0.046,0.276,-5.337
0.126,0.046,0.278,-5.337
0.139,0.045,0.282,-5.337
0.113,0.048,0.285,-5.337
0.101,0.051,0.286,-5.337
0.129,0.051,0.281,-5.337
0.121,0.046,0.277,-5.337
0.163,0.043,0.275,-5.337
0.189,0.050,0.278,-5.337
0.142,0.052,0.276,-5.337
0.139,0.053,0.276,-5.337
0.168,0.050,0.278,-5.337
0.194,0.048,0.279,-5.337
0.176,0.049,0.278,-5.337
0.150,0.049,0.277,-5.337
0.186,0.044,0.276,-5.337
0.237,0.041,0.279,-5.337
0.163,0.042,0.280,-5.337
0.072,0.048,0.282,-5.337
0.213,0.042,0.280,-5.337
0.306,0.036,0.277,-5.337
0.297,0.036,0.276,-5.337
0.257,0.040,0.278,-5.337
0.228,0.041,0.279,-5.337
0.185,0.044,0.282,-5.337
0.131,0.046,0.282,-5.337
0.128,0.046,0.281,-5.337
0.164,0.050,0.281,-5.337
0.191,0.049,0.280,-5.337
0.261,0.042,0.279,-5.337
0.267,0.045,0.277,-5.337
0.148,0.048,0.280,-5.337
0.177,0.048,0.283,-5.337
0.210,0.050,0.281,-5.337
0.132,0.052,0.281,-5.337
0.099,0.052,0.281,-5.337
0.137,0.052,0.278,-5.337
0.141,0.051,0.277,-5.337
0.194,0.049,0.279,-5.337
0.230,0.049,0.279,-5.337
0.236,0.048,0.277,-5.337
0.225,0.050,0.279,-5.337
0.190,0.047,0.279,-5.337
0.217,0.045,0.277,-5.337
0.226,0.047,0.278,-5.337
0.148,0.048,0.280,-5.337
0.123,0.046,0.278,-5.337
0.142,0.044,0.279,-5.337
0.154,0.045,0.278,-5.337
0.137,0.049,0.276,-5.337
0.161,0.051,0.281,-5.337
0.225,0.047,0.284,-5.337
0.318,0.048,0.285,-5.337
0.274,0.048,0.284,-5.337
0.198,0.050,0.281,-5.337
0.162,0.047,0.273,-5.337
0.205,0.050,0.274,-5.337
0.289,0.049,0.275,-5.337
0.337,0.048,0.279,-5.337
0.304,0.047,0.283,-5.337
0.206,0.053,0.283,-5.337
0.230,0.048,0.281,-5.337
0.251,0.047,0.282,-5.337
0.205,0.049,0.280,-5.337
0.183,0.048,0.279,-5.337
0.159,0.052,0.279,-5.337
0.141,0.051,0.281,-5.337
0.225,0.047,0.278,-5.337
0.264,0.048,0.276,-5.337
0.242,0.050,0.278,-5.337
0.190,0.051,0.280,-5.337
0.221,0.052,0.285,-5.337
0.229,0.055,0.285,-5.337
0.222,0.057,0.283,-5.337
0.207,0.055,0.280,-5.337
0.163,0.054,0.285,-5.337
0.187,0.055,0.287,-5.337
0.138,0.057,0.285,-5.337
0.128,0.056,0.284,-5.337
0.166,0.051,0.280,-5.337
0.215,0.050,0.275,-5.337
0.199,0.054,0.276,-5.337
0.081,0.054,0.278,-5.337
0.088,0.052,0.280,-5.337
0.179,0.049,0.283,-5.337
0.235,0.049,0.281,-5.337
0.205,0.050,0.280,-5.337
0.185,0.048,0.280,-5.337
0.239,0.044,0.278,-5.337
0.222,0.046,0.280,-5.337
0.171,0.047,0.281,-5.337
0.236,0.044,0.282,-5.337
0.226,0.048,0.281,-5.337
0.211,0.049,0.279,-5.337
0.218,0.049,0.280,-5.337
0.258,0.050,0.283,-5.337
0.238,0.053,0.286,-5.337
0.124,0.052,0.287,-5.337
0.200,0.052,0.282,-5.337
0.288,0.052,0.275,-5.337
0.260,0.054,0.278,-5.337
0.196,0.052,0.281,-5.337
0.231,0.051,0.284,-5.337
0.271,0.046,0.284,-5.337
0.232,0.049,0.284,-5.337
0.214,0.052,0.284,-5.337
0.183,0.051,0.281,-5.337
0.199,0.050,0.276,-5.337
0.290,0.050,0.277,-5.337
0.372,0.050,0.278,-5.337
0.324,0.053,0.282,-5.337
0.216,0.053,0.284,-5.337
0.178,0.055,0.284,-5.337
0.236,0.052,0.282,-5.337
0.319,0.055,0.278,-5.337
0.200,0.059,0.278,-5.337
0.085,0.059,0.277,-5.337
0.110,0.057,0.281,-5.337
0.204,0.055,0.283,-5.337
0.199,0.054,0.282,-5.337
0.205,0.054,0.282,-5.337
0.226,0.054,0.284,-5.337
0.293,0.057,0.281,-5.337
0.275,0.062,0.281,-5.337
0.162,0.060,0.281,-5.337
0.134,0.058,0.282,-5.337
0.242,0.055,0.277,-5.337
0.317,0.055,0.279,-5.337
0.272,0.056,0.284,-5.337
0.192,0.059,0.288,-5.337
0.176,0.060,0.285,-5.337
0.213,0.057,0.279,-5.337
0.238,0.054,0.276,-5.337
0.261,0.054,0.279,-5.337
0.305,0.054,0.281,-5.337
0.293,0.054,0.283,-5.337
0.303,0.053,0.287,-5.337
0.273,0.056,0.286,-5.337
0.188,0.058,0.282,-5.337
0.143,0.057,0.280,-5.337
0.192,0.056,0.280,-5.337
0.259,0.055,0.279,-5.337
0.226,0.058,0.278,-5.337
0.180,0.059,0.278,-5.337
0.136,0.062,0.281,-5.337
0.121,0.062,0.282,-5.337
0.179,0.058,0.282,-5.337
0.242,0.056,0.281,-5.337
0.328,0.054,0.281,-5.337
0.343,0.051,0.280,-5.337
0.241,0.059,0.284,-5.337
0.193,0.063,0.285,-5.337
0.210,0.063,0.283,-5.337
0.209,0.057,0.281,-5.337
0.266,0.055,0.280,-5.337
0.253,0.058,0.280,-5.337
0.242,0.060,0.285,-5.337
0.211,0.057,0.288,-5.337
0.238,0.053,0.282,-5.337
0.257,0.056,0.280,-5.337
0.204,0.058,0.283,-5.337
0.175,0.060,0.282,-5.337
0.145,0.061,0.278,-5.337
0.129,0.062,0.281,-5.337
0.216,0.060,0.284,-5.337
0.285,0.057,0.284,-5.337
0.322,0.058,0.278,-5.337
0.292,0.061,0.276,-5.337
0.231,0.061,0.281,-5.337
0.193,0.063,0.287,-5.337
0.231,0.058,0.285,-5.337
0.250,0.055,0.280,-5.337
0.221,0.056,0.275,-5.337
0.240,0.055,0.274,-5.337
0.321,0.052,0.277,-5.337
0.330,0.054,0.282,-5.337
0.338,0.056,0.280,-5.337
0.290,0.057,0.277,-5.337
0.204,0.057,0.280,-5.337
0.215,0.056,0.289,-5.337
0.288,0.056,0.287,-5.337
0.270,0.060,0.282,-5.337
0.189,0.061,0.279,-5.337
0.230,0.060,0.278,-5.337
0.286,0.062,0.279,-5.337
0.252,0.062,0.280,-5.337
0.276,0.062,0.279,-5.337
0.291,0.059,0.277,-5.337
0.266,0.059,0.280,-5.337
0.242,0.060,0.279,-5.337
0.247,0.059,0.275,-5.337
0.241,0.060,0.273,-5.337
0.232,0.060,0.277,-5.337
0.247,0.056,0.284,-5.337
0.241,0.057,0.282,-5.337
0.284,0.057,0.277,-5.337
0.234,0.060,0.275,-5.337
0.230,0.062,0.272,-5.337
0.251,0.059,0.273,-5.337
0.248,0.060,0.278,-5.337
0.211,0.063,0.281,-5.337
0.184,0.061,0.279,-5.337
0.193,0.059,0.277,-5.337
0.261,0.054,0.279,-5.337
0.269,0.056,0.279,-5.337
0.205,0.058,0.282,-5.337
0.154,0.062,0.282,-5.337
0.207,0.061,0.282,-5.337
0.241,0.061,0.278,-5.337
0.217,0.057,0.276,-5.337
0.218,0.052,0.276,-5.337
0.235,0.053,0.279,-5.337
0.221,0.055,0.280,-5.337
0.215,0.054,0.280,-5.337
0.229,0.052,0.277,-5.337
0.192,0.054,0.273,-5.337
0.210,0.053,0.271,-5.337
0.226,0.049,0.273,-5.337
0.199,0.047,0.276,-5.337
0.212,0.049,0.280,-5.337
0.272,0.049,0.280,-5.337
0.297,0.050,0.278,-5.337
0.163,0.051,0.276,-5.337
0.132,0.050,0.274,-5.337
0.156,0.050,0.275,-5.337
0.171,0.049,0.276,-5.337
0.174,0.050,0.276,-5.337
0.217,0.053,0.274,-5.337
0.204,0.053,0.275,-5.337
0.202,0.050,0.276,-5.337
0.231,0.050,0.278,-5.337
0.252,0.051,0.275,-5.337
0.192,0.053,0.276,-5.337
0.153,0.049,0.278,-5.337
0.195,0.047,0.282,-5.337
0.337,0.045,0.284,-5.337
0.318,0.051,0.283,-5.337
0.238,0.049,0.275,-5.337
0.174,0.047,0.272,-5.337
0.215,0.044,0.273,-5.337
0.275,0.047,0.278,-5.337
0.292,0.050,0.278,-5.337
0.255,0.049,0.277,-5.337
0.220,0.046,0.279,-5.337
0.241,0.046,0.280,-5.337
0.224,0.046,0.277,-5.337
0.189,0.050,0.275,-5.337
0.143,0.050,0.276,-5.337
0.156,0.046,0.276,-5.337
0.236,0.044,0.279,-5.337
0.239,0.044,0.276,-5.337
0.249,0.041,0.275,-5.337
0.227,0.041,0.273,-5.337
0.201,0.043,0.273,-5.337
0.277,0.043,0.273,-5.337
0.288,0.046,0.275,-5.337
0.214,0.046,0.276,-5.337
0.172,0.045,0.280,-5.337
0.211,0.042,0.279,-5.337
0.248,0.040,0.276,-5.337
0.242,0.040,0.273,-5.337
0.187,0.044,0.274,-5.337
0.216,0.041,0.277,-5.337
0.205,0.041,0.275,-5.337
0.238,0.041,0.273,-5.337
0.285,0.044,0.276,-5.337
0.253,0.047,0.278,-5.337
0.229,0.046,0.277,-5.337
0.248,0.047,0.274,-5.337
0.159,0.052,0.275,-5.337
0.113,0.052,0.279,-5.337
0.132,0.050,0.279,-5.337
0.164,0.048,0.277,-5.337
0.148,0.046,0.274,-5.337
0.161,0.047,0.275,-5.337
0.199,0.042,0.273,-5.337
0.258,0.040,0.274,-5.337
0.253,0.040,0.276,-5.337
0.215,0.043,0.276,-5.337
0.212,0.039,0.273,-5.337
0.172,0.041,0.276,-5.337
0.174,0.037,0.280,-5.337
0.220,0.038,0.276,-5.337
0.231,0.040,0.273,-5.337
0.192,0.039,0.275,-5.337
0.159,0.040,0.276,-5.337
0.199,0.043,0.277,-5.337
0.221,0.044,0.276,-5.337
0.187,0.042,0.274,-5.337
0.202,0.041,0.276,-5.337
0.201,0.042,0.276,-5.337
0.228,0.038,0.278,-5.337
0.319,0.039,0.275,-5.337
0.262,0.042,0.279,-5.337
0.198,0.041,0.279,-5.337
0.231,0.040,0.277,-5.337
0.249,0.041,0.274,-5.337
0.248,0.042,0.272,-5.337
0.231,0.043,0.269,-5.337
0.221,0.045,0.274,-5.337
0.202,0.045,0.279,-5.337
0.262,0.044,0.279,-5.337
0.309,0.042,0.275,-5.337
0.269,0.041,0.272,-5.337
0.244,0.039,0.272,-5.337
0.233,0.040,0.274,-5.337
0.195,0.041,0.274,-5.337
0.174,0.044,0.278,-5.337
0.164,0.042,0.279,-5.337
0.160,0.038,0.283,-5.337
0.209,0.038,0.282,-5.337
0.192,0.038,0.278,-5.337
0.212,0.038,0.274,-5.337
0.267,0.037,0.270,-5.337
0.180,0.039,0.271,-5.337
0.067,0.042,0.274,-5.337
0.103,0.039,0.280,-5.337
0.129,0.040,0.281,-5.337
0.126,0.040,0.282,-5.337
0.139,0.038,0.278,-5.337
0.109,0.041,0.274,-5.337
0.122,0.040,0.271,-5.337
0.185,0.040,0.278,-5.337
0.237,0.042,0.281,-5.337
0.236,0.040,0.280,-5.337
0.208,0.036,0.281,-5.337
0.168,0.038,0.281,-5.337
0.158,0.036,0.277,-5.337
0.156,0.037,0.275,-5.337
0.168,0.037,0.277,-5.337
0.218,0.035,0.275,-5.337
0.205,0.036,0.274,-5.337
0.177,0.039,0.273,-5.337
0.124,0.042,0.274,-5.337
0.193,0.039,0.276,-5.337
0.208,0.039,0.277,-5.337
0.146,0.041,0.277,-5.337
0.079,0.042,0.282,-5.337
0.078,0.041,0.285,-5.337
0.136,0.041,0.283,-5.337
0.180,0.039,0.274,-5.337
0.183,0.039,0.270,-5.337
0.157,0.039,0.273,-5.337
0.130,0.044,0.278,-5.337
0.199,0.043,0.279,-5.337
0.282,0.041,0.277,-5.337
0.254,0.037,0.275,-5.337
0.210,0.037,0.278,-5.337
0.205,0.039,0.279,-5.337
0.234,0.040,0.278,-5.337
0.231,0.039,0.279,-5.337
0.209,0.037,0.280,-5.337
0.210,0.035,0.279,-5.337
0.250,0.035,0.277,-5.337
0.254,0.031,0.275,-5.337
0.234,0.030,0.276,-5.337
0.243,0.035,0.277,-5.337
0.241,0.038,0.277,-5.337
0.228,0.036,0.275,-5.337
0.158,0.036,0.276,-5.337
0.114,0.037,0.279,-5.337
0.122,0.039,0.279,-5.337
0.212,0.036,0.281,-5.337
0.240,0.034,0.282,-5.337
0.167,0.035,0.281,-5.337
0.170,0.036,0.278,-5.337
0.213,0.039,0.278,-5.337
0.187,0.038,0.280,-5.337
0.140,0.035,0.278,-5.337
0.130,0.035,0.271,-5.337
0.125,0.034,0.270,-5.337
0.152,0.032,0.272,-5.337
0.201,0.034,0.277,-5.337
0.153,0.034,0.280,-5.337
0.090,0.032,0.281,-5.337
0.071,0.031,0.282,-5.337
0.144,0.034,0.280,-5.337
0.138,0.036,0.273,-5.337
0.115,0.038,0.275,-5.337
0.132,0.038,0.276,-5.337
0.113,0.036,0.275,-5.337
0.065,0.037,0.278,-5.337
0.097,0.036,0.281,-5.337
0.144,0.034,0.279,-5.337
0.180,0.035,0.277,-5.337
0.172,0.032,0.276,-5.337
0.205,0.033,0.274,-5.337
0.225,0.035,0.275,-5.337
0.210,0.038,0.278,-5.337
0.170,0.035,0.280,-5.337
0.208,0.032,0.276,-5.337
0.221,0.035,0.272,-5.337
0.195,0.037,0.273,-5.337
0.211,0.035,0.277,-5.337
0.198,0.035,0.279,-5.337
0.164,0.033,0.276,-5.337
0.158,0.031,0.274,-5.337
0.231,0.029,0.278,-5.337
0.283,0.029,0.281,-5.337
0.205,0.033,0.280,-5.337
0.146,0.033,0.279,-5.337
0.180,0.032,0.276,-5.337
0.219,0.028,0.271,-5.337
0.175,0.030,0.270,-5.337
0.145,0.030,0.272,-5.337
0.169,0.028,0.276,-5.337
0.214,0.030,0.279,-5.337
0.140,0.035,0.279,-5.337
0.151,0.034,0.279,-5.337
0.211,0.029,0.279,-5.337
0.198,0.027,0.281,-5.337
0.189,0.025,0.279,-5.337
0.162,0.026,0.277,-5.337
0.181,0.026,0.276,-5.337
0.189,0.028,0.277,-5.337
0.195,0.029,0.274,-5.337
0.184,0.030,0.272,-5.337
0.198,0.031,0.273,-5.337
0.165,0.032,0.278,-5.337
0.111,0.031,0.275,-5.337
0.140,0.034,0.276,-5.337
0.167,0.032,0.276,-5.337
0.154,0.029,0.275,-5.337
0.151,0.029,0.277,-5.337
0.193,0.029,0.279,-5.337
0.167,0.029,0.277,-5.337
0.197,0.029,0.274,-5.337
0.219,0.029,0.278,-5.337
0.162,0.030,0.278,-5.337
0.120,0.036,0.276,-5.337
0.109,0.033,0.277,-5.337
0.107,0.031,0.281,-5.337
0.134,0.034,0.278,-5.337
0.194,0.033,0.277,-5.337
0.175,0.035,0.278,-5.337
0.199,0.029,0.281,-5.337
0.201,0.028,0.280,-5.337
0.209,0.028,0.280,-5.337
0.255,0.024,0.281,-5.337
0.251,0.025,0.278,-5.337
0.121,0.032,0.274,-5.337
0.073,0.037,0.275,-5.337
0.044,0.034,0.278,-5.337
0.128,0.032,0.277,-5.337
0.203,0.031,0.277,-5.337
0.122,0.033,0.280,-5.337
0.130,0.028,0.279,-5.337
0.231,0.026,0.275,-5.337
0.204,0.033,0.273,-5.337
0.089,0.034,0.274,-5.337
0.109,0.029,0.278,-5.337
0.148,0.027,0.275,-5.337
0.107,0.029,0.272,-5.337
0.082,0.028,0.272,-5.337
0.138,0.026,0.273,-5.337
0.133,0.027,0.277,-5.337
0.128,0.028,0.280,-5.337
0.207,0.024,0.280,-5.337
0.262,0.020,0.279,-5.337
0.267,0.023,0.276,-5.337
0.157,0.028,0.278,-5.337
0.156,0.026,0.278,-5.337
0.242,0.028,0.275,-5.337
0.202,0.029,0.276,-5.337
0.161,0.028,0.275,-5.337
0.113,0.032,0.275,-5.337
0.070,0.036,0.273,-5.337
0.124,0.031,0.273,-5.337
0.168,0.028,0.276,-5.337
0.183,0.028,0.279,-5.337
0.216,0.032,0.280,-5.337
0.177,0.034,0.281,-5.337
0.136,0.035,0.276,-5.337
0.113,0.034,0.274,-5.337
0.126,0.030,0.280,-5.337
0.185,0.027,0.284,-5.337
0.193,0.032,0.283,-5.337
0.189,0.035,0.279,-5.337
0.189,0.031,0.275,-5.337
0.178,0.030,0.274,-5.337
0.167,0.033,0.279,-5.337
0.178,0.032,0.280,-5.337
0.260,0.027,0.277,-5.337
0.245,0.032,0.274,-5.337
0.175,0.038,0.272,-5.337
0.151,0.039,0.272,-5.337
0.177,0.034,0.274,-5.337
0.186,0.034,0.277,-5.337
0.206,0.034,0.279,-5.337
0.160,0.034,0.276,-5.337
0.077,0.038,0.270,-5.337
0.158,0.036,0.267,-5.337
0.220,0.032,0.270,-5.337
0.178,0.034,0.279,-5.337
0.175,0.033,0.285,-5.337
0.174,0.031,0.279,-5.337
0.164,0.032,0.274,-5.337
0.109,0.036,0.268,-5.337
0.116,0.035,0.270,-5.337
0.175,0.035,0.273,-5.337
0.215,0.035,0.280,-5.337
0.205,0.033,0.282,-5.337
0.185,0.034,0.281,-5.337
0.133,0.032,0.277,-5.337
0.137,0.031,0.276,-5.337
0.187,0.033,0.277,-5.337
0.158,0.035,0.277,-5.337
0.172,0.031,0.276,-5.337
0.100,0.034,0.275,-5.337
0.120,0.036,0.275,-5.337
0.170,0.033,0.275,-5.337
0.188,0.034,0.273,-5.337
0.153,0.039,0.274,-5.337
0.171,0.038,0.274,-5.337
0.183,0.036,0.275,-5.337
0.182,0.032,0.277,-5.337
0.157,0.034,0.276,-5.337
0.182,0.033,0.279,-5.337
0.227,0.034,0.280,-5.337
0.291,0.036,0.280,-5.337
0.291,0.036,0.273,-5.337
0.203,0.037,0.270,-5.337
0.218,0.034,0.272,-5.337
0.249,0.036,0.277,-5.337
0.204,0.038,0.281,-5.337
0.170,0.039,0.280,-5.337
0.098,0.040,0.278,-5.337
0.124,0.045,0.273,-5.337
0.199,0.042,0.272,-5.337
0.216,0.040,0.277,-5.337
0.189,0.040,0.281,-5.337
0.111,0.039,0.279,-5.337
0.133,0.036,0.275,-5.337
0.212,0.036,0.275,-5.337
0.328,0.037,0.275,-5.337
0.280,0.037,0.276,-5.337
0.167,0.037,0.275,-5.337
0.161,0.037,0.274,-5.337
0.227,0.037,0.274,-5.337
0.196,0.036,0.273,-5.337
0.179,0.036,0.274,-5.337
0.187,0.036,0.273,-5.337
0.150,0.040,0.276,-5.337
0.153,0.040,0.279,-5.337
0.196,0.039,0.284,-5.337
0.176,0.042,0.282,-5.337
0.182,0.042,0.276,-5.337
0.216,0.037,0.274,-5.337
0.191,0.040,0.275,-5.337
0.152,0.041,0.276,-5.337
0.133,0.042,0.274,-5.337
0.145,0.040,0.274,-5.337
0.145,0.041,0.279,-5.337
0.173,0.043,0.281,-5.337
0.215,0.044,0.283,-5.337
0.190,0.046,0.282,-5.337
0.158,0.043,0.275,-5.337
0.151,0.042,0.272,-5.337
0.150,0.042,0.272,-5.337
0.206,0.042,0.277,-5.337
0.281,0.042,0.280,-5.337
0.233,0.041,0.281,-5.337
0.223,0.041,0.280,-5.337
0.211,0.043,0.278,-5.337
0.131,0.042,0.274,-5.337
0.135,0.039,0.275,-5.337
0.226,0.036,0.276,-5.337
0.230,0.039,0.276,-5.337
0.200,0.042,0.274,-5.337
0.176,0.044,0.278,-5.337
0.191,0.042,0.277,-5.337
0.276,0.042,0.279,-5.337
0.265,0.043,0.280,-5.337
0.254,0.041,0.279,-5.337
0.259,0.043,0.276,-5.337
0.219,0.044,0.272,-5.337
0.252,0.045,0.272,-5.337
0.257,0.046,0.276,-5.337
0.242,0.049,0.277,-5.337
0.202,0.051,0.274,-5.337
0.270,0.048,0.274,-5.337
0.324,0.045,0.276,-5.337
0.329,0.049,0.281,-5.337
0.300,0.053,0.282,-5.337
0.315,0.049,0.280,-5.337
0.285,0.050,0.276,-5.337
0.254,0.048,0.277,-5.337
0.256,0.046,0.279,-5.337
0.211,0.046,0.280,-5.337
0.187,0.045,0.278,-5.337
0.159,0.047,0.278,-5.337
0.226,0.047,0.277,-5.337
0.253,0.050,0.276,-5.337
0.241,0.051,0.275,-5.337
0.206,0.052,0.275,-5.337
0.106,0.053,0.272,-5.337
0.110,0.053,0.273,-5.337
0.136,0.050,0.277,-5.337
0.166,0.050,0.280,-5.337
0.205,0.050,0.281,-5.337
0.284,0.048,0.279,-5.337
0.190,0.051,0.277,-5.337
0.111,0.051,0.278,-5.337
0.250,0.048,0.278,-5.337
0.273,0.050,0.282,-5.337
0.214,0.050,0.284,-5.337
0.226,0.047,0.282,-5.337
0.267,0.049,0.278,-5.337
0.186,0.054,0.274,-5.337
0.105,0.057,0.272,-5.337
0.129,0.057,0.274,-5.337
0.146,0.055,0.279,-5.337
0.152,0.053,0.283,-5.337
0.196,0.054,0.283,-5.337
0.220,0.053,0.281,-5.337
0.209,0.053,0.280,-5.337
0.150,0.055,0.279,-5.337
0.154,0.056,0.277,-5.337
0.172,0.057,0.279,-5.337
0.285,0.053,0.281,-5.337
0.357,0.050,0.281,-5.337
0.301,0.048,0.279,-5.337
0.293,0.052,0.277,-5.337
0.283,0.054,0.275,-5.337
0.193,0.056,0.275,-5.337
0.154,0.054,0.279,-5.337
0.189,0.056,0.281,-5.337
0.208,0.056,0.279,-5.337
0.205,0.057,0.278,-5.337
0.210,0.055,0.276,-5.337
0.236,0.054,0.277,-5.337
0.281,0.055,0.278,-5.337
0.275,0.057,0.282,-5.337
0.285,0.054,0.283,-5.337
0.252,0.056,0.283,-5.337
0.216,0.056,0.281,-5.337
0.243,0.056,0.282,-5.337
0.238,0.052,0.282,-5.337
0.233,0.052,0.283,-5.337
0.255,0.053,0.285,-5.337
0.240,0.054,0.284,-5.337
0.201,0.057,0.278,-5.337
0.207,0.059,0.273,-5.337
0.204,0.057,0.275,-5.337
0.172,0.057,0.276,-5.337
0.196,0.056,0.276,-5.337
0.256,0.058,0.276,-5.337
0.305,0.058,0.279,-5.337
0.290,0.059,0.276,-5.337
0.193,0.060,0.279,-5.337
0.102,0.058,0.282,-5.337
0.178,0.053,0.281,-5.337
0.246,0.054,0.276,-5.337
0.204,0.055,0.275,-5.337
0.251,0.055,0.275,-5.337
0.304,0.051,0.276,-5.337
0.333,0.051,0.274,-5.337
0.244,0.057,0.275,-5.337
0.194,0.056,0.275,-5.337
0.220,0.054,0.273,-5.337
0.304,0.052,0.275,-5.337
0.301,0.054,0.275,-5.337
0.289,0.053,0.278,-5.337
0.296,0.056,0.280,-5.337
0.302,0.058,0.276,-5.337
0.249,0.056,0.275,-5.337
0.181,0.058,0.278,-5.337
0.180,0.056,0.278,-5.337
0.226,0.058,0.275,-5.337
0.248,0.058,0.272,-5.337
0.291,0.056,0.275,-5.337
0.285,0.053,0.276,-5.337
0.250,0.053,0.280,-5.337
0.289,0.049,0.282,-5.337
0.334,0.050,0.283,-5.337
0.276,0.050,0.279,-5.337
0.250,0.052,0.283,-5.337
0.258,0.054,0.284,-5.337
0.221,0.053,0.283,-5.337
0.249,0.050,0.281,-5.337
0.205,0.052,0.278,-5.337
0.197,0.055,0.277,-5.337
0.217,0.059,0.275,-5.337
0.220,0.057,0.273,-5.337
0.205,0.055,0.275,-5.337
0.237,0.055,0.281,-5.337
0.252,0.056,0.280,-5.337
0.271,0.055,0.277,-5.337
0.254,0.060,0.273,-5.337
0.200,0.059,0.275,-5.337
0.208,0.054,0.273,-5.337
0.254,0.054,0.275,-5.337
0.273,0.054,0.277,-5.337
0.278,0.055,0.279,-5.337
0.214,0.056,0.278,-5.337
0.177,0.055,0.280,-5.337
0.212,0.057,0.278,-5.337
0.258,0.057,0.278,-5.337
0.259,0.057,0.280,-5.337
0.263,0.057,0.278,-5.337
0.331,0.052,0.276,-5.337
0.315,0.054,0.275,-5.337
0.189,0.057,0.276,-5.337
0.131,0.058,0.279,-5.337
0.154,0.058,0.283,-5.337
0.237,0.057,0.281,-5.337
0.284,0.054,0.277,-5.337
0.286,0.056,0.279,-5.337
0.269,0.052,0.279,-5.337
0.314,0.052,0.277,-5.337
0.285,0.057,0.276,-5.337
0.293,0.054,0.274,-5.337
0.324,0.052,0.278,-5.337
0.262,0.055,0.280,-5.337
0.220,0.055,0.280,-5.337
0.209,0.052,0.278,-5.337
0.202,0.055,0.276,-5.337
0.182,0.057,0.272,-5.337
0.192,0.053,0.275,-5.337
0.237,0.053,0.279,-5.337
0.207,0.055,0.283,-5.337
0.175,0.055,0.283,-5.337
0.147,0.052,0.283,-5.337
0.181,0.049,0.280,-5.337
0.199,0.053,0.277,-5.337
0.207,0.051,0.276,-5.337
0.199,0.052,0.278,-5.337
0.200,0.052,0.279,-5.337
0.140,0.053,0.279,-5.337
0.152,0.050,0.278,-5.337
0.216,0.050,0.277,-5.337
0.193,0.054,0.272,-5.337
0.198,0.052,0.271,-5.337
0.214,0.050,0.274,-5.337
0.257,0.051,0.280,-5.337
0.307,0.048,0.283,-5.337
0.281,0.048,0.281,-5.337
0.192,0.048,0.281,-5.337
0.224,0.048,0.280,-5.337
0.223,0.046,0.280,-5.337
0.259,0.046,0.275,-5.337
0.257,0.045,0.273,-5.337
0.215,0.043,0.271,-5.337
0.196,0.045,0.277,-5.337
0.242,0.045,0.279,-5.337
0.278,0.044,0.277,-5.337
0.247,0.047,0.278,-5.337
0.153,0.051,0.281,-5.337
0.129,0.046,0.278,-5.337
0.208,0.041,0.275,-5.337
0.261,0.038,0.276,-5.337
0.251,0.043,0.278,-5.337
0.200,0.048,0.278,-5.337
0.236,0.044,0.278,-5.337
0.291,0.045,0.275,-5.337
0.269,0.044,0.275,-5.337
0.286,0.041,0.274,-5.337
0.309,0.040,0.275,-5.337
0.280,0.042,0.278,-5.337
0.287,0.039,0.278,-5.337
0.380,0.036,0.278,-5.337
0.350,0.039,0.276,-5.337
0.216,0.042,0.274,-5.337
0.179,0.042,0.271,-5.337
0.229,0.040,0.270,-5.337
0.276,0.038,0.271,-5.337
0.254,0.037,0.275,-5.337
0.212,0.036,0.276,-5.337
0.153,0.041,0.278,-5.337
0.154,0.039,0.279,-5.337
0.179,0.040,0.277,-5.337
0.165,0.039,0.277,-5.337
0.197,0.036,0.278,-5.337
0.195,0.037,0.279,-5.337
0.195,0.041,0.280,-5.337
0.179,0.038,0.282,-5.337
0.187,0.036,0.281,-5.337
0.161,0.037,0.277,-5.337
0.192,0.036,0.272,-5.337
0.153,0.039,0.268,-5.337
0.125,0.039,0.269,-5.337
0.226,0.038,0.273,-5.337
0.228,0.040,0.275,-5.337
0.164,0.040,0.275,-5.337
0.178,0.035,0.276,-5.337
0.231,0.032,0.278,-5.337
0.251,0.033,0.280,-5.337
0.181,0.035,0.282,-5.337
0.160,0.037,0.280,-5.337
0.175,0.036,0.279,-5.337
0.190,0.039,0.280,-5.337
0.165,0.039,0.279,-5.337
0.159,0.034,0.277,-5.337
0.173,0.035,0.278,-5.337
0.173,0.037,0.277,-5.337
0.134,0.037,0.277,-5.337
0.155,0.033,0.275,-5.337
0.127,0.034,0.275,-5.337
0.116,0.037,0.275,-5.337
0.137,0.037,0.277,-5.337
0.160,0.034,0.276,-5.337
0.182,0.031,0.275,-5.337
0.215,0.034,0.277,-5.337
0.208,0.035,0.277,-5.337
0.202,0.031,0.277,-5.337
0.171,0.030,0.275,-5.337
0.199,0.032,0.276,-5.337
0.262,0.031,0.276,-5.337
0.324,0.031,0.279,-5.337
0.276,0.034,0.281,-5.337
0.182,0.036,0.283,-5.337
0.207,0.034,0.280,-5.337
0.198,0.034,0.276,-5.337
0.184,0.031,0.275,-5.337
0.147,0.032,0.276,-5.337
0.169,0.031,0.275,-5.337
0.236,0.033,0.277,-5.337
0.203,0.030,0.276,-5.337
0.169,0.033,0.275,-5.337
0.196,0.034,0.274,-5.337
0.155,0.035,0.272,-5.337
0.148,0.037,0.272,-5.337
0.132,0.034,0.275,-5.337
0.140,0.032,0.279,-5.337
0.169,0.030,0.283,-5.337
0.151,0.032,0.283,-5.337
0.228,0.030,0.278,-5.337
0.323,0.029,0.275,-5.337
0.310,0.030,0.274,-5.337
0.194,0.031,0.275,-5.337
0.207,0.029,0.275,-5.337
0.164,0.036,0.277,-5.337
0.133,0.034,0.277,-5.337
0.223,0.030,0.279,-5.337
0.287,0.029,0.282,-5.337
0.286,0.026,0.283,-5.337
0.221,0.028,0.278,-5.337
0.160,0.029,0.275,-5.337
0.178,0.028,0.271,-5.337
0.155,0.032,0.270,-5.337
0.086,0.036,0.271,-5.337
0.126,0.032,0.271,-5.337
0.192,0.030,0.272,-5.337
0.236,0.030,0.274,-5.337
0.287,0.026,0.279,-5.337
0.171,0.030,0.281,-5.337
0.097,0.032,0.280,-5.337
0.169,0.032,0.276,-5.337
0.173,0.037,0.274,-5.337
0.159,0.035,0.271,-5.337
0.195,0.033,0.274,-5.337
0.191,0.034,0.279,-5.337
0.152,0.035,0.282,-5.337
0.159,0.029,0.280,-5.337
0.171,0.029,0.281,-5.337
0.194,0.029,0.279,-5.337
0.180,0.031,0.278,-5.337
0.225,0.031,0.280,-5.337
0.223,0.034,0.280,-5.337
0.133,0.036,0.276,-5.337
0.120,0.038,0.278,-5.337
0.180,0.035,0.280,-5.337
0.189,0.032,0.278,-5.337
0.204,0.031,0.272,-5.337
0.260,0.032,0.271,-5.337
0.242,0.034,0.273,-5.337
0.119,0.037,0.274,-5.337
0.132,0.032,0.277,-5.337
0.181,0.032,0.279,-5.337
0.211,0.034,0.279,-5.337
0.192,0.036,0.280,-5.337
0.162,0.036,0.281,-5.337
0.175,0.035,0.279,-5.337
0.182,0.034,0.280,-5.337
0.182,0.035,0.278,-5.337
0.152,0.037,0.278,-5.337
0.147,0.032,0.278,-5.337
0.236,0.033,0.277,-5.337
0.226,0.036,0.275,-5.337
0.175,0.036,0.278,-5.337
0.163,0.034,0.284,-5.337
0.167,0.033,0.285,-5.337
0.171,0.037,0.283,-5.337
0.248,0.034,0.281,-5.337
0.286,0.034,0.280,-5.337
0.139,0.038,0.279,-5.337
0.094,0.038,0.279,-5.337
0.155,0.034,0.279,-5.337
0.203,0.034,0.281,-5.337
0.147,0.034,0.278,-5.337
0.096,0.036,0.277,-5.337
0.073,0.036,0.275,-5.337
0.147,0.038,0.277,-5.337
0.188,0.039,0.277,-5.337
0.177,0.037,0.278,-5.337
0.237,0.031,0.275,-5.337
0.199,0.034,0.278,-5.337
0.179,0.034,0.281,-5.337
0.188,0.032,0.279,-5.337
0.194,0.035,0.275,-5.337
0.232,0.038,0.277,-5.337
0.185,0.035,0.277,-5.337
0.169,0.032,0.278,-5.337
0.204,0.029,0.277,-5.337
0.164,0.032,0.276,-5.337
0.136,0.036,0.279,-5.337
0.157,0.035,0.281,-5.337
0.236,0.031,0.283,-5.337
0.244,0.032,0.282,-5.337
0.137,0.033,0.278,-5.337
0.123,0.031,0.276,-5.337
0.211,0.029,0.274,-5.337
0.230,0.031,0.272,-5.337
0.189,0.032,0.273,-5.337
0.159,0.032,0.276,-5.337
0.132,0.031,0.280,-5.337
0.207,0.029,0.282,-5.337
0.180,0.032,0.280,-5.337
0.160,0.033,0.276,-5.337
0.171,0.033,0.275,-5.337
0.200,0.029,0.275,-5.337
0.190,0.029,0.277,-5.337
0.188,0.028,0.280,-5.337
0.173,0.030,0.279,-5.337
0.178,0.029,0.276,-5.337
0.180,0.031,0.273,-5.337
0.147,0.030,0.273,-5.337
0.178,0.032,0.275,-5.337
0.204,0.034,0.274,-5.337
0.192,0.033,0.277,-5.337
0.215,0.030,0.278,-5.337
0.236,0.030,0.277,-5.337
0.181,0.031,0.277,-5.337
0.168,0.035,0.278,-5.337
0.160,0.038,0.275,-5.337
0.197,0.037,0.271,-5.337
0.207,0.035,0.274,-5.337
0.146,0.034,0.276,-5.337
0.129,0.034,0.281,-5.337
0.124,0.034,0.282,-5.337
0.086,0.039,0.281,-5.337
0.055,0.038,0.282,-5.337
0.087,0.035,0.283,-5.337
0.120,0.032,0.280,-5.337
0.209,0.033,0.279,-5.337
0.207,0.032,0.276,-5.337
0.164,0.032,0.275,-5.337
0.150,0.033,0.274,-5.337
0.174,0.031,0.275,-5.337
0.162,0.029,0.277,-5.337
0.103,0.029,0.278,-5.337
0.088,0.033,0.275,-5.337
0.131,0.032,0.273,-5.337
0.222,0.025,0.274,-5.337
0.273,0.026,0.272,-5.337
0.213,0.029,0.277,-5.337
0.170,0.032,0.281,-5.337
0.174,0.032,0.279,-5.337
0.169,0.032,0.275,-5.337
0.142,0.032,0.279,-5.337
0.144,0.033,0.279,-5.337
0.117,0.036,0.278,-5.337
0.122,0.035,0.277,-5.337
0.148,0.031,0.283,-5.337
0.212,0.027,0.287,-5.337
0.219,0.027,0.284,-5.337
0.158,0.030,0.277,-5.337
0.153,0.030,0.275,-5.337
0.153,0.030,0.276,-5.337
0.167,0.033,0.276,-5.337
0.157,0.037,0.274,-5.337
0.171,0.040,0.276,-5.337
0.160,0.038,0.279,-5.337
0.166,0.037,0.280,-5.337
0.158,0.036,0.279,-5.337
0.170,0.037,0.277,-5.337
0.159,0.041,0.276,-5.337
0.151,0.039,0.278,-5.337
0.151,0.036,0.275,-5.337
0.176,0.034,0.273,-5.337
0.134,0.036,0.277,-5.337
0.111,0.038,0.284,-5.337
0.109,0.039,0.286,-5.337
0.187,0.039,0.282,-5.337
0.183,0.042,0.278,-5.337
0.111,0.043,0.276,-5.337
0.146,0.040,0.278,-5.337
0.230,0.037,0.277,-5.337
0.258,0.036,0.273,-5.337
0.240,0.038,0.270,-5.337
0.265,0.038,0.272,-5.337
0.209,0.039,0.274,-5.337
0.140,0.038,0.276,-5.337
0.104,0.037,0.280,-5.337
0.174,0.038,0.282,-5.337
0.237,0.033,0.279,-5.337
0.243,0.036,0.274,-5.337
0.165,0.039,0.275,-5.337
0.138,0.038,0.277,-5.337
0.145,0.034,0.275,-5.337
0.158,0.032,0.276,-5.337
0.175,0.033,0.280,-5.337
0.158,0.037,0.281,-5.337
0.176,0.037,0.280,-5.337
0.181,0.038,0.278,-5.337
0.178,0.036,0.280,-5.337
0.236,0.033,0.279,-5.337
0.305,0.033,0.276,-5.337
0.253,0.035,0.272,-5.337
0.151,0.039,0.276,-5.337
0.069,0.041,0.278,-5.337
0.168,0.038,0.279,-5.337
0.260,0.033,0.277,-5.337
0.275,0.034,0.279,-5.337
0.220,0.034,0.282,-5.337
0.215,0.034,0.277,-5.337
0.290,0.031,0.272,-5.337
0.286,0.035,0.271,-5.337
0.192,0.039,0.272,-5.337
0.117,0.041,0.275,-5.337
0.139,0.039,0.278,-5.337
0.217,0.038,0.280,-5.337
0.240,0.039,0.281,-5.337
0.182,0.042,0.281,-5.337
0.153,0.043,0.277,-5.337
0.136,0.043,0.276,-5.337
0.126,0.040,0.276,-5.337
0.217,0.041,0.275,-5.337
0.224,0.041,0.277,-5.337
0.163,0.042,0.275,-5.337
0.150,0.044,0.274,-5.337
0.225,0.045,0.276,-5.337
0.230,0.045,0.279,-5.337
0.187,0.044,0.279,-5.337
0.130,0.045,0.272,-5.337
0.126,0.046,0.270,-5.337
0.243,0.042,0.275,-5.337
0.323,0.041,0.278,-5.337
0.255,0.044,0.275,-5.337
0.196,0.043,0.276,-5.337
0.196,0.042,0.276,-5.337
0.204,0.040,0.274,-5.337
0.274,0.041,0.272,-5.337
0.321,0.038,0.276,-5.337
0.258,0.041,0.278,-5.337
0.120,0.051,0.277,-5.337
0.134,0.050,0.277,-5.337
0.191,0.050,0.278,-5.337
0.130,0.052,0.277,-5.337
0.096,0.051,0.277,-5.337
0.094,0.050,0.274,-5.337
0.207,0.042,0.274,-5.337
0.292,0.043,0.274,-5.337
0.290,0.046,0.278,-5.337
0.272,0.048,0.278,-5.337
0.237,0.046,0.279,-5.337
0.194,0.046,0.277,-5.337
0.193,0.047,0.276,-5.337
0.240,0.046,0.273,-5.337
0.299,0.048,0.273,-5.337
0.258,0.050,0.278,-5.337
0.214,0.048,0.280,-5.337
0.205,0.049,0.277,-5.337
0.161,0.051,0.275,-5.337
0.226,0.050,0.275,-5.337
0.359,0.050,0.274,-5.337
0.271,0.051,0.273,-5.337
0.199,0.052,0.272,-5.337
0.245,0.051,0.273,-5.337
0.242,0.049,0.275,-5.337
0.307,0.047,0.277,-5.337
0.301,0.050,0.274,-5.337
0.226,0.053,0.273,-5.337
0.163,0.052,0.273,-5.337
0.155,0.053,0.276,-5.337
0.157,0.052,0.274,-5.337
0.199,0.048,0.276,-5.337
0.263,0.047,0.278,-5.337
0.217,0.050,0.278,-5.337
0.227,0.049,0.278,-5.337
0.279,0.048,0.279,-5.337
0.237,0.052,0.277,-5.337
0.198,0.056,0.276,-5.337
0.169,0.053,0.277,-5.337
0.215,0.051,0.277,-5.337
0.313,0.055,0.275,-5.337
0.324,0.056,0.277,-5.337
0.215,0.056,0.278,-5.337
0.146,0.056,0.278,-5.337
0.132,0.052,0.275,-5.337
0.181,0.049,0.273,-5.337
0.229,0.048,0.275,-5.337
0.211,0.051,0.276,-5.337
0.199,0.052,0.274,-5.337
0.211,0.048,0.272,-5.337
0.254,0.047,0.273,-5.337
0.299,0.051,0.270,-5.337
0.245,0.055,0.270,-5.337
0.227,0.052,0.275,-5.337
0.247,0.052,0.281,-5.337
0.233,0.052,0.283,-5.337
0.248,0.049,0.280,-5.337
0.248,0.048,0.277,-5.337
0.195,0.055,0.275,-5.337
0.213,0.056,0.276,-5.337
0.238,0.053,0.276,-5.337
0.213,0.052,0.273,-5.337
0.260,0.056,0.272,-5.337
0.296,0.057,0.275,-5.337
0.328,0.052,0.278,-5.337
0.292,0.054,0.274,-5.337
0.259,0.055,0.272,-5.337
0.208,0.054,0.273,-5.337
0.198,0.053,0.278,-5.337
0.273,0.050,0.282,-5.337
0.293,0.053,0.278,-5.337
0.255,0.055,0.271,-5.337
0.174,0.058,0.270,-5.337
0.136,0.056,0.274,-5.337
0.165,0.055,0.276,-5.337
0.231,0.053,0.277,-5.337
0.249,0.054,0.279,-5.337
0.223,0.056,0.281,-5.337
0.226,0.054,0.281,-5.337
0.292,0.048,0.277,-5.337
0.240,0.050,0.275,-5.337
0.151,0.057,0.275,-5.337
0.157,0.057,0.278,-5.337
0.199,0.054,0.282,-5.337
0.273,0.052,0.282,-5.337
0.273,0.053,0.277,-5.337
0.206,0.055,0.273,-5.337
0.238,0.050,0.273,-5.337
0.321,0.048,0.278,-5.337
0.310,0.053,0.283,-5.337
0.271,0.055,0.280,-5.337
0.264,0.054,0.276,-5.337
0.248,0.052,0.275,-5.337
0.236,0.052,0.275,-5.337
0.238,0.055,0.277,-5.337
0.235,0.055,0.280,-5.337
0.156,0.055,0.282,-5.337
0.160,0.055,0.280,-5.337
0.111,0.056,0.274,-5.337
0.159,0.051,0.274,-5.337
0.226,0.054,0.277,-5.337
0.246,0.054,0.279,-5.337
0.255,0.053,0.280,-5.337
0.179,0.054,0.280,-5.337
0.173,0.057,0.281,-5.337
0.198,0.060,0.278,-5.337
0.240,0.058,0.279,-5.337
0.240,0.056,0.279,-5.337
0.215,0.056,0.279,-5.337
0.257,0.055,0.278,-5.337
0.259,0.052,0.273,-5.337
0.264,0.050,0.271,-5.337
0.291,0.052,0.279,-5.337
0.237,0.053,0.284,-5.337
0.163,0.056,0.281,-5.337
0.185,0.056,0.280,-5.337
0.245,0.054,0.279,-5.337
0.245,0.054,0.279,-5.337
0.257,0.054,0.280,-5.337
0.254,0.053,0.282,-5.337
0.220,0.051,0.282,-5.337
0.273,0.048,0.281,-5.337
0.294,0.048,0.277,-5.337
0.262,0.049,0.275,-5.337
0.205,0.050,0.279,-5.337
0.224,0.051,0.280,-5.337
0.211,0.052,0.276,-5.337
0.178,0.050,0.272,-5.337
0.195,0.049,0.272,-5.337
0.255,0.050,0.276,-5.337
0.275,0.048,0.279,-5.337
0.274,0.049,0.278,-5.337
0.280,0.050,0.278,-5.337
0.322,0.053,0.278,-5.337
0.348,0.051,0.275,-5.337
0.303,0.049,0.273,-5.337
0.275,0.051,0.272,-5.337
0.217,0.054,0.275,-5.337
0.192,0.056,0.279,-5.337
0.176,0.056,0.281,-5.337
0.211,0.055,0.280,-5.337
0.237,0.056,0.280,-5.337
0.227,0.056,0.282,-5.337
0.209,0.056,0.277,-5.337
0.186,0.057,0.272,-5.337
0.173,0.054,0.273,-5.337
0.241,0.053,0.275,-5.337
0.227,0.054,0.277,-5.337
0.173,0.057,0.279,-5.337
0.165,0.054,0.280,-5.337
0.168,0.056,0.279,-5.337
0.267,0.053,0.275,-5.337
0.351,0.052,0.273,-5.337
0.366,0.052,0.276,-5.337
0.261,0.051,0.280,-5.337
0.243,0.054,0.280,-5.337
0.237,0.054,0.276,-5.337
0.240,0.052,0.272,-5.337
0.223,0.056,0.271,-5.337
0.182,0.057,0.273,-5.337
0.195,0.057,0.274,-5.337
0.234,0.056,0.276,-5.337
0.274,0.054,0.277,-5.337
0.205,0.057,0.281,-5.337
0.117,0.059,0.283,-5.337
0.129,0.054,0.281,-5.337
0.229,0.049,0.280,-5.337
0.279,0.049,0.280,-5.337
0.346,0.049,0.278,-5.337
0.371,0.048,0.277,-5.337
0.324,0.046,0.276,-5.337
0.235,0.052,0.277,-5.337
0.225,0.050,0.275,-5.337
0.310,0.048,0.274,-5.337
0.313,0.050,0.274,-5.337
0.235,0.052,0.275,-5.337
0.225,0.050,0.278,-5.337
0.235,0.048,0.280,-5.337
0.195,0.053,0.280,-5.337
0.201,0.051,0.277,-5.337
0.224,0.047,0.275,-5.337
0.198,0.050,0.274,-5.337
0.118,0.052,0.275,-5.337
0.156,0.048,0.274,-5.337
0.167,0.048,0.276,-5.337
0.154,0.050,0.275,-5.337
0.230,0.048,0.275,-5.337
0.252,0.047,0.278,-5.337
0.220,0.051,0.280,-5.337
0.238,0.051,0.279,-5.337
0.230,0.048,0.278,-5.337
0.225,0.045,0.279,-5.337
0.261,0.046,0.275,-5.337
0.257,0.047,0.272,-5.337
0.225,0.050,0.276,-5.337
0.235,0.051,0.282,-5.337
0.249,0.052,0.281,-5.337
0.175,0.055,0.281,-5.337
0.193,0.052,0.280,-5.337
0.197,0.049,0.277,-5.337
0.186,0.045,0.275,-5.337
0.228,0.043,0.272,-5.337
0.257,0.043,0.271,-5.337
0.223,0.044,0.275,-5.337
0.238,0.041,0.277,-5.337
0.345,0.038,0.277,-5.337
0.356,0.039,0.280,-5.337
0.270,0.044,0.283,-5.337
0.215,0.048,0.279,-5.337
0.193,0.046,0.274,-5.337
0.252,0.045,0.276,-5.337
0.231,0.047,0.278,-5.337
0.203,0.048,0.279,-5.337
0.197,0.049,0.276,-5.337
0.179,0.046,0.278,-5.337
0.218,0.044,0.281,-5.337
0.282,0.048,0.283,-5.337
0.268,0.051,0.283,-5.337
0.202,0.051,0.281,-5.337
0.161,0.051,0.282,-5.337
0.147,0.053,0.278,-5.337
0.126,0.055,0.275,-5.337
0.137,0.055,0.276,-5.337
0.195,0.051,0.276,-5.337
0.273,0.044,0.280,-5.337
0.293,0.044,0.281,-5.337
0.250,0.045,0.281,-5.337
0.237,0.046,0.280,-5.337
0.250,0.045,0.276,-5.337
0.225,0.044,0.271,-5.337
0.141,0.049,0.273,-5.337
0.187,0.045,0.276,-5.337
0.244,0.043,0.278,-5.337
0.276,0.038,0.279,-5.337
0.283,0.039,0.279,-5.337
0.243,0.039,0.278,-5.337
0.220,0.041,0.277,-5.337
0.247,0.043,0.279,-5.337
0.214,0.045,0.279,-5.337
0.159,0.044,0.280,-5.337
0.150,0.041,0.280,-5.337
0.145,0.041,0.279,-5.337
0.208,0.045,0.276,-5.337
0.205,0.043,0.274,-5.337
0.209,0.040,0.272,-5.337
0.183,0.039,0.273,-5.337
0.182,0.042,0.276,-5.337
0.201,0.043,0.280,-5.337
0.259,0.042,0.280,-5.337
0.221,0.043,0.280,-5.337
0.240,0.046,0.277,-5.337
0.222,0.047,0.273,-5.337
0.239,0.047,0.275,-5.337
0.206,0.046,0.277,-5.337
0.173,0.043,0.276,-5.337
0.156,0.043,0.278,-5.337
0.217,0.042,0.279,-5.337
0.267,0.042,0.279,-5.337
0.222,0.042,0.279,-5.337
0.160,0.045,0.278,-5.337
0.190,0.044,0.276,-5.337
0.195,0.042,0.273,-5.337
0.122,0.044,0.275,-5.337
0.132,0.044,0.275,-5.337
0.205,0.039,0.273,-5.337
0.168,0.041,0.278,-5.337
0.108,0.040,0.280,-5.337
0.118,0.042,0.279,-5.337
0.124,0.044,0.276,-5.337
0.164,0.037,0.276,-5.337
0.285,0.033,0.275,-5.337
0.267,0.039,0.272,-5.337
0.132,0.041,0.272,-5.337
0.122,0.037,0.273,-5.337
0.180,0.034,0.276,-5.337
0.217,0.034,0.278,-5.337
0.235,0.035,0.280,-5.337
0.224,0.034,0.280,-5.337
0.250,0.034,0.280,-5.337
0.189,0.038,0.279,-5.337
0.143,0.044,0.278,-5.337
0.113,0.041,0.277,-5.337
0.126,0.039,0.275,-5.337
0.092,0.041,0.275,-5.337
0.095,0.042,0.277,-5.337
0.176,0.038,0.278,-5.337
0.226,0.043,0.279,-5.337
0.230,0.042,0.279,-5.337
0.198,0.041,0.276,-5.337
0.182,0.041,0.274,-5.337
0.207,0.042,0.276,-5.337
0.153,0.045,0.277,-5.337
0.124,0.048,0.277,-5.337
0.143,0.046,0.275,-5.337
0.164,0.043,0.277,-5.337
0.243,0.042,0.279,-5.337
0.265,0.041,0.276,-5.337
0.232,0.043,0.274,-5.337
0.127,0.047,0.278,-5.337
0.142,0.044,0.281,-5.337
0.244,0.041,0.277,-5.337
0.187,0.043,0.271,-5.337
0.130,0.042,0.271,-5.337
0.201,0.040,0.274,-5.337
0.206,0.041,0.276,-5.337
0.140,0.043,0.274,-5.337
0.149,0.044,0.273,-5.337
0.150,0.043,0.274,-5.337
0.156,0.042,0.276,-5.337
0.079,0.042,0.276,-5.337
0.013,0.043,0.281,-5.337
0.094,0.042,0.282,-5.337
0.217,0.040,0.279,-5.337
0.229,0.039,0.274,-5.337
0.203,0.039,0.277,-5.337
0.191,0.037,0.278,-5.337
0.224,0.037,0.280,-5.337
0.211,0.036,0.274,-5.337
0.207,0.034,0.272,-5.337
0.132,0.031,0.273,-5.337
0.099,0.032,0.275,-5.337
0.160,0.035,0.275,-5.337
0.171,0.040,0.277,-5.337
0.142,0.040,0.281,-5.337
0.141,0.040,0.283,-5.337
0.167,0.034,0.282,-5.337
0.208,0.032,0.281,-5.337
0.230,0.033,0.274,-5.337
0.202,0.032,0.274,-5.337
0.195,0.034,0.276,-5.337
0.212,0.036,0.277,-5.337
0.196,0.035,0.275,-5.337
0.172,0.037,0.274,-5.337
0.214,0.037,0.274,-5.337
0.208,0.037,0.274,-5.337
0.134,0.038,0.277,-5.337
0.140,0.040,0.277,-5.337
0.184,0.038,0.278,-5.337
0.182,0.035,0.275,-5.337
0.199,0.038,0.277,-5.337
0.247,0.037,0.280,-5.337
0.174,0.041,0.280,-5.337
0.097,0.042,0.275,-5.337
0.140,0.039,0.272,-5.337
0.211,0.035,0.274,-5.337
0.230,0.034,0.277,-5.337
0.207,0.038,0.278,-5.337
0.177,0.039,0.275,-5.337
0.155,0.039,0.276,-5.337
0.133,0.038,0.278,-5.337
0.148,0.037,0.280,-5.337
0.140,0.039,0.278,-5.337
0.119,0.041,0.274,-5.337
0.187,0.040,0.274,-5.337
0.242,0.038,0.276,-5.337
0.202,0.040,0.278,-5.337
0.205,0.038,0.282,-5.337
0.250,0.038,0.280,-5.337
0.258,0.038,0.280,-5.337
0.195,0.038,0.278,-5.337
0.116,0.038,0.276,-5.337
0.080,0.036,0.275,-5.337
0.127,0.036,0.274,-5.337
0.150,0.036,0.274,-5.337
0.146,0.039,0.278,-5.337
0.098,0.036,0.280,-5.337
0.100,0.038,0.281,-5.337
0.119,0.038,0.280,-5.337
0.164,0.036,0.277,-5.337
0.189,0.031,0.274,-5.337
0.200,0.031,0.276,-5.337
0.188,0.033,0.281,-5.337
0.160,0.036,0.285,-5.337
0.174,0.036,0.282,-5.337
0.198,0.034,0.281,-5.337
0.239,0.032,0.279,-5.337
0.251,0.033,0.276,-5.337
0.202,0.032,0.275,-5.337
0.135,0.033,0.278,-5.337
0.121,0.035,0.281,-5.337
0.128,0.040,0.281,-5.337
0.105,0.043,0.278,-5.337
0.147,0.040,0.273,-5.337
0.168,0.035,0.274,-5.337
0.089,0.036,0.277,-5.337
0.076,0.041,0.280,-5.337
0.116,0.041,0.280,-5.337
0.132,0.039,0.280,-5.337
0.155,0.037,0.280,-5.337
0.192,0.034,0.280,-5.337
0.170,0.034,0.276,-5.337
0.165,0.037,0.273,-5.337
0.161,0.038,0.276,-5.337
0.157,0.036,0.280,-5.337
0.178,0.032,0.280,-5.337
0.156,0.034,0.281,-5.337
0.142,0.031,0.284,-5.337
0.134,0.032,0.281,-5.337
0.134,0.033,0.280,-5.337
0.109,0.035,0.280,-5.337
0.083,0.038,0.278,-5.337
0.080,0.041,0.275,-5.337
0.097,0.037,0.274,-5.337
0.145,0.035,0.271,-5.337
0.171,0.034,0.273,-5.337
0.221,0.031,0.277,-5.337
0.207,0.034,0.280,-5.337
0.146,0.035,0.280,-5.337
0.135,0.033,0.286,-5.337
0.142,0.036,0.282,-5.337
0.148,0.037,0.274,-5.337
0.184,0.034,0.272,-5.337
0.196,0.033,0.277,-5.337
0.188,0.033,0.277,-5.337
0.185,0.033,0.276,-5.337
0.200,0.030,0.275,-5.337
0.161,0.033,0.276,-5.337
0.137,0.034,0.275,-5.337
0.159,0.033,0.277,-5.337
0.164,0.032,0.279,-5.337
0.170,0.033,0.279,-5.337
0.187,0.032,0.275,-5.337
0.160,0.031,0.273,-5.337
0.168,0.031,0.274,-5.337
0.226,0.033,0.277,-5.337
0.230,0.034,0.281,-5.337
0.197,0.030,0.282,-5.337
0.207,0.032,0.282,-5.337
0.206,0.032,0.282,-5.337
0.158,0.034,0.283,-5.337
0.133,0.037,0.276,-5.337
0.077,0.042,0.273,-5.337
0.077,0.040,0.274,-5.337
0.127,0.037,0.279,-5.337
0.162,0.036,0.280,-5.337
0.224,0.033,0.278,-5.337
0.249,0.030,0.278,-5.337
0.184,0.034,0.275,-5.337
0.147,0.034,0.276,-5.337
0.130,0.035,0.276,-5.337
0.223,0.033,0.276,-5.337
0.208,0.034,0.274,-5.337
0.143,0.035,0.275,-5.337
0.260,0.035,0.275,-5.337
0.214,0.034,0.276,-5.337
0.173,0.033,0.277,-5.337
0.175,0.035,0.279,-5.337
0.167,0.039,0.277,-5.337
0.113,0.038,0.281,-5.337
0.124,0.037,0.283,-5.337
0.176,0.036,0.282,-5.337
0.167,0.037,0.276,-5.337
0.220,0.040,0.276,-5.337
0.237,0.042,0.277,-5.337
0.236,0.041,0.278,-5.337
0.184,0.041,0.280,-5.337
0.162,0.043,0.281,-5.337
0.163,0.045,0.281,-5.337
0.191,0.046,0.280,-5.337
0.215,0.046,0.278,-5.337
0.131,0.047,0.278,-5.337
0.114,0.043,0.276,-5.337
0.171,0.043,0.274,-5.337
0.192,0.046,0.274,-5.337
0.177,0.043,0.275,-5.337
0.146,0.041,0.274,-5.337
0.182,0.042,0.279,-5.337
0.141,0.049,0.285,-5.337
0.091,0.050,0.285,-5.337
0.139,0.048,0.282,-5.337
0.241,0.045,0.278,-5.337
0.195,0.046,0.278,-5.337
0.124,0.046,0.277,-5.337
0.165,0.046,0.278,-5.337
0.188,0.046,0.277,-5.337
0.163,0.047,0.277,-5.337
0.141,0.045,0.280,-5.337
0.176,0.044,0.281,-5.337
0.188,0.042,0.280,-5.337
0.142,0.040,0.277,-5.337
0.163,0.037,0.273,-5.337
0.231,0.041,0.275,-5.337
0.228,0.042,0.281,-5.337
0.177,0.040,0.285,-5.337
0.126,0.042,0.283,-5.337
0.110,0.043,0.278,-5.337
0.104,0.044,0.275,-5.337
0.180,0.043,0.275,-5.337
0.195,0.044,0.276,-5.337
0.181,0.042,0.277,-5.337
0.179,0.045,0.277,-5.337
0.145,0.043,0.278,-5.337
0.135,0.041,0.280,-5.337
0.174,0.040,0.280,-5.337
0.235,0.041,0.282,-5.337
0.212,0.041,0.280,-5.337
0.223,0.041,0.279,-5.337
0.227,0.042,0.278,-5.337
0.201,0.046,0.281,-5.337
0.164,0.048,0.282,-5.337
0.177,0.051,0.280,-5.337
0.222,0.052,0.278,-5.337
0.233,0.053,0.280,-5.337
0.152,0.050,0.281,-5.337
0.145,0.051,0.280,-5.337
0.181,0.048,0.275,-5.337
0.229,0.049,0.272,-5.337
0.224,0.050,0.275,-5.337
0.149,0.054,0.280,-5.337
0.110,0.051,0.279,-5.337
0.129,0.050,0.282,-5.337
0.177,0.047,0.284,-5.337
0.222,0.047,0.282,-5.337
0.207,0.046,0.277,-5.337
0.275,0.040,0.277,-5.337
0.297,0.039,0.278,-5.337
0.207,0.044,0.274,-5.337
0.144,0.050,0.275,-5.337
0.119,0.045,0.277,-5.337
0.205,0.043,0.279,-5.337
0.219,0.046,0.278,-5.337
0.129,0.048,0.275,-5.337
0.180,0.044,0.275,-5.337
0.253,0.043,0.275,-5.337
0.217,0.047,0.275,-5.337
0.196,0.049,0.276,-5.337
0.239,0.051,0.273,-5.337
0.269,0.051,0.271,-5.337
0.309,0.048,0.273,-5.337
0.307,0.050,0.276,-5.337
0.229,0.052,0.281,-5.337
0.174,0.050,0.284,-5.337
0.175,0.047,0.281,-5.337
0.160,0.049,0.275,-5.337
0.198,0.047,0.274,-5.337
0.230,0.048,0.273,-5.337
0.172,0.047,0.272,-5.337
0.162,0.047,0.271,-5.337
0.171,0.048,0.277,-5.337
0.134,0.049,0.279,-5.337
0.143,0.047,0.281,-5.337
0.122,0.049,0.278,-5.337
0.125,0.049,0.276,-5.337
0.188,0.048,0.273,-5.337
0.228,0.049,0.272,-5.337
0.234,0.045,0.271,-5.337
0.269,0.046,0.273,-5.337
0.228,0.048,0.274,-5.337
0.255,0.050,0.276,-5.337
0.279,0.047,0.278,-5.337
0.274,0.049,0.283,-5.337
0.165,0.053,0.283,-5.337
0.078,0.052,0.280,-5.337
0.102,0.050,0.275,-5.337
0.211,0.048,0.273,-5.337
0.279,0.046,0.269,-5.337
0.261,0.049,0.270,-5.337
0.213,0.052,0.276,-5.337
0.231,0.051,0.279,-5.337
0.210,0.050,0.281,-5.337
0.180,0.047,0.277,-5.337
0.201,0.047,0.273,-5.337
0.277,0.048,0.270,-5.337
0.279,0.053,0.272,-5.337
0.301,0.051,0.274,-5.337
0.247,0.053,0.279,-5.337
0.187,0.052,0.281,-5.337
0.187,0.052,0.280,-5.337
0.173,0.049,0.284,-5.337
0.221,0.048,0.283,-5.337
0.295,0.049,0.278,-5.337
0.307,0.051,0.275,-5.337
0.266,0.050,0.275,-5.337
0.258,0.048,0.275,-5.337
0.223,0.050,0.278,-5.337
0.186,0.052,0.279,-5.337
0.143,0.052,0.275,-5.337
0.135,0.052,0.273,-5.337
0.143,0.054,0.280,-5.337
0.139,0.053,0.282,-5.337
0.208,0.052,0.277,-5.337
0.201,0.053,0.269,-5.337
0.107,0.058,0.272,-5.337
0.103,0.060,0.275,-5.337
0.242,0.057,0.276,-5.337
0.249,0.059,0.272,-5.337
0.213,0.060,0.272,-5.337
0.275,0.056,0.275,-5.337
0.293,0.058,0.279,-5.337
0.300,0.055,0.278,-5.337
0.305,0.057,0.278,-5.337
0.301,0.053,0.279,-5.337
0.311,0.051,0.278,-5.337
0.279,0.051,0.277,-5.337
0.257,0.051,0.277,-5.337
0.193,0.051,0.280,-5.337
0.176,0.051,0.281,-5.337
0.155,0.054,0.279,-5.337
0.184,0.057,0.279,-5.337
0.197,0.056,0.276,-5.337
0.218,0.056,0.275,-5.337
0.151,0.056,0.279,-5.337
0.139,0.056,0.281,-5.337
0.165,0.055,0.280,-5.337
0.167,0.058,0.273,-5.337
0.187,0.056,0.273,-5.337
0.187,0.052,0.275,-5.337
0.200,0.051,0.278,-5.337
0.287,0.054,0.277,-5.337
0.321,0.055,0.275,-5.337
0.298,0.054,0.274,-5.337
0.242,0.057,0.274,-5.337
0.200,0.057,0.276,-5.337
0.214,0.059,0.279,-5.337
0.212,0.058,0.281,-5.337
0.195,0.058,0.280,-5.337
0.196,0.058,0.279,-5.337
0.206,0.057,0.283,-5.337
0.215,0.059,0.283,-5.337
0.269,0.059,0.279,-5.337
0.295,0.058,0.275,-5.337
0.263,0.058,0.273,-5.337
0.209,0.057,0.274,-5.337
0.178,0.058,0.280,-5.337
0.185,0.058,0.284,-5.337
0.144,0.058,0.279,-5.337
0.108,0.059,0.275,-5.337
0.142,0.057,0.275,-5.337
0.247,0.053,0.276,-5.337
0.312,0.052,0.275,-5.337
0.256,0.054,0.278,-5.337
0.245,0.053,0.279,-5.337
0.282,0.056,0.278,-5.337
0.287,0.057,0.277,-5.337
0.243,0.060,0.280,-5.337
0.188,0.057,0.284,-5.337
0.146,0.057,0.284,-5.337
0.169,0.054,0.279,-5.337
0.205,0.053,0.274,-5.337
0.222,0.052,0.276,-5.337
0.208,0.053,0.279,-5.337
0.199,0.053,0.276,-5.337
0.152,0.055,0.274,-5.337
0.147,0.054,0.277,-5.337
0.196,0.057,0.279,-5.337
0.180,0.055,0.282,-5.337
0.208,0.053,0.282,-5.337
0.293,0.054,0.280,-5.337
0.261,0.056,0.278,-5.337
0.233,0.055,0.277,-5.337
0.208,0.053,0.278,-5.337
0.154,0.054,0.279,-5.337
0.150,0.051,0.276,-5.337
0.167,0.052,0.280,-5.337
0.192,0.054,0.279,-5.337
0.258,0.049,0.277,-5.337
0.285,0.051,0.277,-5.337
0.222,0.054,0.279,-5.337
0.225,0.052,0.280,-5.337
0.209,0.053,0.280,-5.337
0.232,0.050,0.281,-5.337
0.239,0.051,0.281,-5.337
0.241,0.052,0.279,-5.337
0.238,0.053,0.281,-5.337
0.211,0.055,0.283,-5.337
0.178,0.057,0.282,-5.337
0.215,0.055,0.281,-5.337
0.226,0.052,0.279,-5.337
0.241,0.052,0.279,-5.337
0.170,0.051,0.277,-5.337
0.171,0.048,0.278,-5.337
0.258,0.049,0.277,-5.337
0.298,0.051,0.274,-5.337
0.249,0.056,0.269,-5.337
0.185,0.057,0.272,-5.337
0.208,0.053,0.280,-5.337
0.294,0.053,0.288,-5.337
0.378,0.049,0.285,-5.337
0.331,0.048,0.279,-5.337
0.206,0.052,0.272,-5.337
0.184,0.051,0.270,-5.337
0.181,0.047,0.276,-5.337
0.178,0.050,0.285,-5.337
0.161,0.049,0.285,-5.337
0.218,0.051,0.278,-5.337
0.201,0.052,0.275,-5.337
0.175,0.051,0.277,-5.337
0.163,0.051,0.279,-5.337
0.173,0.046,0.280,-5.337
0.232,0.046,0.282,-5.337
0.331,0.044,0.279,-5.337
0.313,0.043,0.276,-5.337
0.259,0.047,0.274,-5.337
0.252,0.052,0.277,-5.337
0.229,0.050,0.277,-5.337
0.245,0.045,0.279,-5.337
0.203,0.051,0.275,-5.337
0.130,0.052,0.275,-5.337
0.123,0.047,0.274,-5.337
0.138,0.048,0.272,-5.337
0.168,0.047,0.271,-5.337
0.213,0.045,0.273,-5.337
0.262,0.042,0.275,-5.337
0.312,0.042,0.277,-5.337
0.322,0.040,0.278,-5.337
0.290,0.038,0.278,-5.337
0.249,0.041,0.279,-5.337
0.225,0.041,0.280,-5.337
0.244,0.041,0.276,-5.337
0.150,0.043,0.272,-5.337
0.166,0.042,0.273,-5.337
0.262,0.039,0.280,-5.337
0.252,0.041,0.283,-5.337
0.167,0.043,0.284,-5.337
0.141,0.043,0.282,-5.337
0.169,0.044,0.278,-5.337
0.211,0.044,0.273,-5.337
0.258,0.041,0.270,-5.337
0.260,0.043,0.272,-5.337
0.185,0.042,0.275,-5.337
0.217,0.044,0.280,-5.337
0.192,0.044,0.280,-5.337
0.167,0.042,0.276,-5.337
0.208,0.037,0.277,-5.337
0.300,0.037,0.278,-5.337
0.320,0.039,0.277,-5.337
0.294,0.042,0.276,-5.337
0.254,0.041,0.279,-5.337
0.203,0.041,0.284,-5.337
0.137,0.041,0.281,-5.337
0.170,0.040,0.278,-5.337
0.290,0.037,0.274,-5.337
0.337,0.036,0.275,-5.337
0.223,0.039,0.276,-5.337
0.128,0.039,0.278,-5.337
0.201,0.035,0.283,-5.337
0.243,0.038,0.283,-5.337
0.167,0.038,0.279,-5.337
0.120,0.039,0.272,-5.337
0.194,0.035,0.275,-5.337
0.207,0.037,0.280,-5.337
0.179,0.040,0.280,-5.337
0.140,0.039,0.280,-5.337
0.125,0.037,0.283,-5.337
0.119,0.035,0.284,-5.337
0.175,0.036,0.281,-5.337
0.212,0.037,0.280,-5.337
0.196,0.036,0.279,-5.337
0.142,0.036,0.278,-5.337
0.145,0.036,0.280,-5.337
0.183,0.035,0.281,-5.337
0.230,0.034,0.278,-5.337
0.267,0.034,0.276,-5.337
0.262,0.031,0.276,-5.337
0.219,0.032,0.276,-5.337
0.153,0.034,0.278,-5.337
0.069,0.036,0.279,-5.337
0.090,0.031,0.279,-5.337
0.161,0.030,0.280,-5.337
0.213,0.031,0.285,-5.337
0.260,0.032,0.288,-5.337
0.208,0.035,0.283,-5.337
0.193,0.031,0.279,-5.337
0.219,0.029,0.278,-5.337
0.160,0.038,0.281,-5.337
0.126,0.040,0.280,-5.337
0.179,0.040,0.279,-5.337
0.159,0.039,0.280,-5.337
0.143,0.037,0.279,-5.337
0.155,0.033,0.275,-5.337
0.185,0.034,0.274,-5.337
0.193,0.033,0.275,-5.337
0.153,0.037,0.276,-5.337
0.150,0.034,0.280,-5.337
0.161,0.033,0.280,-5.337
0.181,0.036,0.282,-5.337
0.109,0.042,0.282,-5.337
0.054,0.039,0.281,-5.337
0.129,0.037,0.281,-5.337
0.210,0.037,0.281,-5.337
0.253,0.034,0.277,-5.337
0.260,0.033,0.275,-5.337
0.244,0.035,0.274,-5.337
0.217,0.033,0.277,-5.337
0.218,0.032,0.277,-5.337
0.239,0.034,0.281,-5.337
0.239,0.032,0.282,-5.337
0.299,0.031,0.280,-5.337
0.264,0.031,0.280,-5.337
0.206,0.034,0.280,-5.337
0.166,0.037,0.279,-5.337
0.096,0.036,0.275,-5.337
0.185,0.032,0.270,-5.337
0.255,0.033,0.275,-5.337
0.209,0.036,0.280,-5.337
0.144,0.034,0.281,-5.337
0.162,0.032,0.277,-5.337
0.212,0.034,0.276,-5.337
0.164,0.037,0.275,-5.337
0.134,0.032,0.276,-5.337
0.171,0.029,0.276,-5.337
0.241,0.029,0.272,-5.337
0.241,0.033,0.274,-5.337
0.177,0.033,0.279,-5.337
0.187,0.031,0.281,-5.337
0.148,0.035,0.280,-5.337
0.140,0.037,0.281,-5.337
0.164,0.035,0.279,-5.337
0.197,0.034,0.278,-5.337
0.218,0.030,0.276,-5.337
0.171,0.033,0.274,-5.337
0.172,0.035,0.273,-5.337
0.219,0.034,0.274,-5.337
0.242,0.029,0.275,-5.337
0.163,0.028,0.274,-5.337
0.190,0.028,0.277,-5.337
0.225,0.029,0.281,-5.337
0.147,0.032,0.282,-5.337
0.118,0.035,0.280,-5.337
0.163,0.031,0.278,-5.337
0.217,0.030,0.278,-5.337
0.170,0.031,0.278,-5.337
0.125,0.033,0.277,-5.337
0.158,0.031,0.277,-5.337
0.169,0.031,0.275,-5.337
0.190,0.028,0.274,-5.337
0.197,0.029,0.276,-5.337
0.148,0.030,0.281,-5.337
0.090,0.032,0.278,-5.337
0.159,0.032,0.277,-5.337
0.215,0.031,0.274,-5.337
0.196,0.033,0.273,-5.337
0.175,0.033,0.275,-5.337
0.172,0.031,0.276,-5.337
0.197,0.029,0.275,-5.337
0.222,0.032,0.272,-5.337
0.161,0.031,0.273,-5.337
0.125,0.029,0.275,-5.337
0.122,0.033,0.277,-5.337
0.137,0.032,0.276,-5.337
0.128,0.032,0.274,-5.337
0.042,0.034,0.273,-5.337
0.083,0.034,0.275,-5.337
0.199,0.035,0.278,-5.337
0.216,0.033,0.278,-5.337
0.207,0.031,0.274,-5.337
0.223,0.029,0.276,-5.337
0.290,0.025,0.278,-5.337
0.315,0.027,0.280,-5.337
0.219,0.029,0.280,-5.337
0.157,0.031,0.279,-5.337
0.237,0.029,0.274,-5.337
0.193,0.030,0.270,-5.337
0.174,0.029,0.271,-5.337
0.209,0.032,0.274,-5.337
0.158,0.031,0.274,-5.337
0.104,0.032,0.278,-5.337
0.131,0.030,0.281,-5.337
0.204,0.029,0.280,-5.337
0.162,0.027,0.275,-5.337
0.127,0.024,0.275,-5.337
0.129,0.024,0.278,-5.337
0.188,0.029,0.280,-5.337
0.210,0.027,0.279,-5.337
0.193,0.025,0.274,-5.337
0.084,0.026,0.271,-5.337
0.068,0.028,0.271,-5.337
0.134,0.027,0.275,-5.337
0.190,0.027,0.274,-5.337
0.200,0.026,0.275,-5.337
0.167,0.027,0.277,-5.337
0.143,0.029,0.279,-5.337
0.114,0.029,0.277,-5.337
0.087,0.034,0.275,-5.337
0.099,0.033,0.272,-5.337
0.186,0.031,0.275,-5.337
0.234,0.031,0.279,-5.337
0.189,0.031,0.281,-5.337
0.205,0.029,0.281,-5.337
0.203,0.030,0.280,-5.337
0.177,0.028,0.278,-5.337
0.112,0.027,0.281,-5.337
0.140,0.028,0.281,-5.337
0.187,0.028,0.279,-5.337
0.161,0.029,0.279,-5.337
0.136,0.030,0.278,-5.337
0.155,0.029,0.276,-5.337
0.092,0.033,0.277,-5.337
0.093,0.031,0.280,-5.337
0.190,0.027,0.283,-5.337
0.206,0.029,0.285,-5.337
0.192,0.026,0.283,-5.337
0.168,0.025,0.279,-5.337
0.177,0.023,0.272,-5.337
0.155,0.023,0.270,-5.337
0.142,0.023,0.272,-5.337
0.175,0.026,0.275,-5.337
0.208,0.022,0.274,-5.337
0.180,0.021,0.277,-5.337
0.092,0.021,0.276,-5.337
0.095,0.025,0.277,-5.337
0.167,0.026,0.280,-5.337
0.213,0.027,0.281,-5.337
0.173,0.026,0.280,-5.337
0.160,0.028,0.279,-5.337
0.113,0.027,0.279,-5.337
0.176,0.025,0.284,-5.337
0.220,0.024,0.283,-5.337
0.213,0.025,0.280,-5.337
0.161,0.025,0.279,-5.337
0.108,0.027,0.279,-5.337
0.089,0.027,0.278,-5.337
0.143,0.026,0.278,-5.337
0.208,0.026,0.278,-5.337
0.196,0.029,0.279,-5.337
0.217,0.028,0.281,-5.337
0.250,0.026,0.280,-5.337
0.224,0.026,0.279,-5.337
0.197,0.027,0.277,-5.337
0.155,0.028,0.277,-5.337
0.150,0.027,0.275,-5.337
0.220,0.025,0.278,-5.337
0.217,0.025,0.278,-5.337
0.129,0.026,0.281,-5.337
0.103,0.028,0.286,-5.337
0.067,0.031,0.285,-5.337
0.087,0.029,0.279,-5.337
0.119,0.026,0.274,-5.337
0.129,0.027,0.274,-5.337
0.109,0.028,0.278,-5.337
0.159,0.025,0.279,-5.337
0.144,0.028,0.279,-5.337
0.080,0.029,0.276,-5.337
0.089,0.026,0.275,-5.337
0.225,0.028,0.277,-5.337
0.242,0.029,0.280,-5.337
0.197,0.028,0.280,-5.337
0.166,0.029,0.277,-5.337
0.183,0.029,0.279,-5.337
0.252,0.027,0.280,-5.337
0.245,0.026,0.279,-5.337
0.258,0.027,0.277,-5.337
0.250,0.031,0.279,-5.337
0.173,0.034,0.277,-5.337
0.140,0.033,0.278,-5.337
0.113,0.034,0.279,-5.337
0.077,0.036,0.278,-5.337
0.118,0.030,0.276,-5.337
0.223,0.031,0.276,-5.337
0.225,0.030,0.276,-5.337
0.193,0.034,0.278,-5.337
0.167,0.036,0.280,-5.337
0.138,0.032,0.279,-5.337
0.098,0.030,0.278,-5.337
0.113,0.031,0.278,-5.337
0.134,0.032,0.275,-5.337
0.182,0.035,0.271,-5.337
0.209,0.033,0.276,-5.337
0.253,0.030,0.280,-5.337
0.192,0.034,0.280,-5.337
0.176,0.036,0.277,-5.337
0.190,0.034,0.278,-5.337
0.182,0.037,0.274,-5.337
0.166,0.039,0.275,-5.337
0.154,0.037,0.276,-5.337
0.213,0.033,0.279,-5.337
0.245,0.033,0.276,-5.337
0.238,0.036,0.273,-5.337
0.208,0.037,0.272,-5.337
0.129,0.037,0.274,-5.337
0.109,0.035,0.280,-5.337
0.169,0.036,0.279,-5.337
0.225,0.032,0.276,-5.337
0.234,0.029,0.278,-5.337
0.233,0.032,0.277,-5.337
0.191,0.032,0.275,-5.337
0.176,0.034,0.276,-5.337
0.124,0.035,0.278,-5.337
0.095,0.033,0.281,-5.337
0.116,0.032,0.281,-5.337
0.187,0.032,0.281,-5.337
0.250,0.033,0.278,-5.337
0.221,0.035,0.277,-5.337
0.187,0.035,0.273,-5.337
0.204,0.037,0.271,-5.337
0.178,0.038,0.271,-5.337
0.188,0.035,0.279,-5.337
0.252,0.033,0.280,-5.337
0.186,0.039,0.277,-5.337
0.163,0.035,0.272,-5.337
0.219,0.033,0.275,-5.337
0.241,0.034,0.280,-5.337
0.243,0.034,0.280,-5.337
0.178,0.034,0.279,-5.337
0.167,0.035,0.280,-5.337
0.182,0.035,0.282,-5.337
0.155,0.034,0.283,-5.337
0.083,0.038,0.279,-5.337
0.128,0.037,0.277,-5.337
0.172,0.037,0.277,-5.337
0.195,0.037,0.274,-5.337
0.238,0.036,0.272,-5.337
0.177,0.036,0.275,-5.337
0.137,0.037,0.282,-5.337
0.142,0.037,0.286,-5.337
0.173,0.036,0.285,-5.337
0.174,0.036,0.278,-5.337
0.170,0.038,0.272,-5.337
0.228,0.038,0.272,-5.337
0.272,0.037,0.274,-5.337
0.252,0.034,0.276,-5.337
0.172,0.041,0.276,-5.337
0.142,0.042,0.278,-5.337
0.230,0.038,0.279,-5.337
0.279,0.038,0.280,-5.337
0.284,0.040,0.278,-5.337
0.290,0.037,0.274,-5.337
0.249,0.038,0.272,-5.337
0.166,0.039,0.275,-5.337
0.152,0.039,0.279,-5.337
0.180,0.042,0.282,-5.337
0.248,0.042,0.285,-5.337
0.212,0.044,0.282,-5.337
0.174,0.043,0.280,-5.337
0.123,0.042,0.281,-5.337
0.145,0.040,0.279,-5.337
0.205,0.042,0.278,-5.337
0.179,0.042,0.279,-5.337
0.178,0.042,0.280,-5.337
0.201,0.044,0.280,-5.337
0.228,0.047,0.279,-5.337
0.204,0.044,0.274,-5.337
0.172,0.047,0.275,-5.337
0.102,0.044,0.280,-5.337
0.165,0.042,0.277,-5.337
0.187,0.047,0.275,-5.337
0.195,0.045,0.276,-5.337
0.190,0.041,0.277,-5.337
0.160,0.045,0.277,-5.337
0.168,0.046,0.276,-5.337
0.203,0.046,0.276,-5.337
0.240,0.043,0.276,-5.337
0.261,0.045,0.277,-5.337
0.187,0.047,0.279,-5.337
0.154,0.045,0.282,-5.337
0.187,0.042,0.287,-5.337
0.167,0.045,0.283,-5.337
0.176,0.042,0.275,-5.337
0.203,0.041,0.275,-5.337
0.258,0.042,0.278,-5.337
0.218,0.046,0.276,-5.337
0.226,0.048,0.275,-5.337
0.232,0.049,0.275,-5.337
0.201,0.048,0.277,-5.337
0.138,0.050,0.280,-5.337
0.121,0.051,0.278,-5.337
0.200,0.051,0.275,-5.337
0.292,0.050,0.276,-5.337
0.321,0.049,0.275,-5.337
0.243,0.047,0.276,-5.337
0.218,0.046,0.279,-5.337
0.270,0.046,0.278,-5.337
0.238,0.045,0.277,-5.337
0.263,0.045,0.279,-5.337
0.294,0.045,0.276,-5.337
0.266,0.045,0.277,-5.337
0.202,0.046,0.279,-5.337
0.169,0.045,0.279,-5.337
0.169,0.046,0.278,-5.337
0.193,0.046,0.278,-5.337
0.209,0.043,0.277,-5.337
0.216,0.043,0.275,-5.337
0.175,0.040,0.276,-5.337
0.206,0.037,0.275,-5.337
0.260,0.039,0.277,-5.337
0.200,0.041,0.273,-5.337
0.147,0.042,0.270,-5.337
0.167,0.041,0.268,-5.337
0.178,0.044,0.274,-5.337
0.179,0.042,0.280,-5.337
0.217,0.044,0.281,-5.337
0.272,0.044,0.280,-5.337
0.312,0.046,0.280,-5.337
0.292,0.047,0.280,-5.337
0.242,0.047,0.278,-5.337
0.223,0.047,0.275,-5.337
0.257,0.046,0.273,-5.337
0.283,0.043,0.271,-5.337
0.216,0.047,0.275,-5.337
0.182,0.047,0.279,-5.337
0.148,0.051,0.278,-5.337
0.195,0.052,0.277,-5.337
0.266,0.051,0.277,-5.337
0.260,0.049,0.279,-5.337
0.218,0.052,0.279,-5.337
0.256,0.052,0.279,-5.337
0.236,0.048,0.272,-5.337
0.193,0.049,0.271,-5.337
0.188,0.048,0.272,-5.337
0.194,0.047,0.275,-5.337
0.200,0.045,0.277,-5.337
0.272,0.044,0.279,-5.337
0.258,0.049,0.278,-5.337
0.220,0.053,0.280,-5.337
0.155,0.051,0.283,-5.337
0.174,0.047,0.282,-5.337
0.176,0.049,0.273,-5.337
0.148,0.051,0.268,-5.337
0.209,0.055,0.269,-5.337
0.257,0.056,0.272,-5.337
0.350,0.050,0.275,-5.337
0.359,0.046,0.281,-5.337
0.304,0.046,0.284,-5.337
0.242,0.048,0.280,-5.337
0.254,0.048,0.275,-5.337
0.204,0.048,0.275,-5.337
0.218,0.050,0.275,-5.337
0.275,0.048,0.273,-5.337
0.243,0.049,0.276,-5.337
0.231,0.048,0.275,-5.337
0.230,0.050,0.275,-5.337
0.223,0.048,0.275,-5.337
0.183,0.049,0.276,-5.337
0.187,0.047,0.277,-5.337
0.191,0.048,0.281,-5.337
0.175,0.047,0.281,-5.337
0.230,0.046,0.278,-5.337
0.298,0.045,0.276,-5.337
0.318,0.046,0.275,-5.337
0.277,0.048,0.277,-5.337
0.251,0.052,0.275,-5.337
0.208,0.052,0.273,-5.337
0.143,0.052,0.273,-5.337
0.151,0.052,0.277,-5.337
0.213,0.052,0.282,-5.337
0.272,0.050,0.283,-5.337
0.335,0.052,0.276,-5.337
0.306,0.051,0.272,-5.337
0.266,0.046,0.270,-5.337
0.297,0.049,0.274,-5.337
0.284,0.054,0.279,-5.337
0.275,0.054,0.279,-5.337
0.328,0.049,0.274,-5.337
0.282,0.048,0.274,-5.337
0.218,0.050,0.275,-5.337
0.218,0.050,0.277,-5.337
0.262,0.049,0.279,-5.337
0.230,0.050,0.278,-5.337
0.190,0.053,0.271,-5.337
0.187,0.052,0.271,-5.337
0.242,0.050,0.277,-5.337
0.283,0.047,0.283,-5.337
0.271,0.049,0.284,-5.337
0.267,0.050,0.280,-5.337
0.172,0.053,0.278,-5.337
0.179,0.053,0.277,-5.337
0.215,0.051,0.280,-5.337
0.255,0.049,0.280,-5.337
0.245,0.051,0.274,-5.337
0.166,0.051,0.269,-5.337
0.160,0.051,0.274,-5.337
0.204,0.053,0.276,-5.337
0.236,0.053,0.280,-5.337
0.252,0.050,0.282,-5.337
0.258,0.048,0.281,-5.337
0.258,0.049,0.277,-5.337
0.249,0.049,0.277,-5.337
0.273,0.047,0.276,-5.337
0.322,0.047,0.277,-5.337
0.308,0.043,0.278,-5.337
0.288,0.042,0.280,-5.337
0.296,0.039,0.283,-5.337
0.294,0.041,0.283,-5.337
0.283,0.042,0.279,-5.337
0.281,0.045,0.278,-5.337
0.251,0.045,0.277,-5.337
0.247,0.048,0.280,-5.337
0.260,0.044,0.276,-5.337
0.285,0.041,0.273,-5.337
0.263,0.044,0.278,-5.337
0.224,0.044,0.279,-5.337
0.192,0.045,0.279,-5.337
0.200,0.045,0.275,-5.337
0.236,0.043,0.273,-5.337
0.256,0.042,0.275,-5.337
0.242,0.041,0.282,-5.337
0.257,0.040,0.282,-5.337
0.360,0.039,0.279,-5.337
0.286,0.041,0.276,-5.337
0.145,0.044,0.277,-5.337
0.177,0.041,0.277,-5.337
0.212,0.042,0.275,-5.337
0.196,0.044,0.272,-5.337
0.177,0.043,0.271,-5.337
0.195,0.042,0.272,-5.337
0.224,0.043,0.279,-5.337
0.205,0.043,0.282,-5.337
0.180,0.039,0.281,-5.337
0.149,0.039,0.282,-5.337
0.177,0.037,0.284,-5.337
0.212,0.038,0.280,-5.337
0.177,0.041,0.278,-5.337
0.167,0.042,0.279,-5.337
0.180,0.040,0.280,-5.337
0.217,0.039,0.281,-5.337
0.250,0.040,0.281,-5.337
0.167,0.043,0.280,-5.337
0.149,0.040,0.279,-5.337
0.242,0.038,0.280,-5.337
0.293,0.037,0.277,-5.337
0.230,0.039,0.276,-5.337
0.184,0.041,0.274,-5.337
0.207,0.045,0.274,-5.337
0.187,0.038,0.274,-5.337
0.179,0.033,0.272,-5.337
0.193,0.035,0.276,-5.337
0.167,0.037,0.281,-5.337
0.150,0.037,0.280,-5.337
0.191,0.034,0.279,-5.337
0.186,0.038,0.276,-5.337
0.215,0.038,0.273,-5.337
0.204,0.039,0.274,-5.337
0.147,0.041,0.276,-5.337
0.221,0.040,0.278,-5.337
0.266,0.037,0.279,-5.337
0.244,0.034,0.278,-5.337
0.233,0.036,0.277,-5.337
0.191,0.036,0.276,-5.337
0.162,0.035,0.277,-5.337
0.169,0.033,0.280,-5.337
0.179,0.031,0.280,-5.337
0.207,0.030,0.277,-5.337
0.200,0.031,0.275,-5.337
0.194,0.034,0.274,-5.337
0.168,0.035,0.273,-5.337
0.216,0.030,0.275,-5.337
0.204,0.029,0.279,-5.337
0.168,0.031,0.279,-5.337
0.128,0.032,0.279,-5.337
0.192,0.032,0.277,-5.337
0.189,0.038,0.279,-5.337
0.148,0.036,0.280,-5.337
0.145,0.037,0.279,-5.337
0.212,0.035,0.278,-5.337
0.195,0.034,0.280,-5.337
0.148,0.036,0.281,-5.337
0.201,0.035,0.284,-5.337
0.169,0.033,0.279,-5.337
0.198,0.031,0.277,-5.337
0.283,0.028,0.277,-5.337
0.237,0.035,0.278,-5.337
0.163,0.036,0.279,-5.337
0.238,0.035,0.281,-5.337
0.310,0.035,0.280,-5.337
0.228,0.038,0.278,-5.337
0.163,0.037,0.278,-5.337
0.164,0.037,0.279,-5.337
0.184,0.034,0.273,-5.337
0.200,0.035,0.274,-5.337
0.182,0.032,0.275,-5.337
0.186,0.032,0.275,-5.337
0.218,0.033,0.275,-5.337
0.235,0.035,0.279,-5.337
0.245,0.033,0.278,-5.337
0.204,0.033,0.277,-5.337
0.079,0.031,0.275,-5.337
0.121,0.031,0.272,-5.337
0.219,0.034,0.274,-5.337
0.241,0.032,0.276,-5.337
0.231,0.033,0.280,-5.337
0.165,0.034,0.281,-5.337
0.142,0.037,0.281,-5.337
0.115,0.038,0.282,-5.337
0.135,0.034,0.283,-5.337
0.185,0.033,0.280,-5.337
0.177,0.035,0.277,-5.337
0.251,0.033,0.275,-5.337
0.265,0.032,0.274,-5.337
0.256,0.033,0.275,-5.337
0.161,0.035,0.279,-5.337
0.065,0.032,0.281,-5.337
0.076,0.027,0.282,-5.337
0.225,0.026,0.281,-5.337
0.268,0.029,0.280,-5.337
0.220,0.029,0.276,-5.337
0.165,0.030,0.278,-5.337
0.150,0.033,0.280,-5.337
0.164,0.032,0.281,-5.337
0.202,0.033,0.282,-5.337
0.179,0.037,0.282,-5.337
0.157,0.034,0.283,-5.337
0.166,0.032,0.281,-5.337
0.141,0.034,0.280,-5.337
0.173,0.032,0.279,-5.337
0.219,0.033,0.282,-5.337
0.197,0.035,0.281,-5.337
0.190,0.037,0.275,-5.337
0.154,0.037,0.273,-5.337
0.164,0.035,0.276,-5.337
0.179,0.031,0.279,-5.337
0.167,0.035,0.284,-5.337
0.140,0.037,0.284,-5.337
0.129,0.032,0.280,-5.337
0.182,0.027,0.276,-5.337
0.254,0.035,0.278,-5.337
0.223,0.034,0.279,-5.337
0.159,0.032,0.279,-5.337
0.123,0.031,0.276,-5.337
0.144,0.033,0.275,-5.337
0.165,0.035,0.276,-5.337
0.132,0.033,0.276,-5.337
0.122,0.033,0.276,-5.337
0.115,0.036,0.277,-5.337
0.119,0.036,0.280,-5.337
0.172,0.037,0.281,-5.337
0.196,0.036,0.283,-5.337
0.223,0.036,0.280,-5.337
0.168,0.035,0.280,-5.337
0.110,0.034,0.280,-5.337
0.161,0.033,0.282,-5.337
0.181,0.032,0.281,-5.337
0.168,0.032,0.283,-5.337
0.207,0.037,0.281,-5.337
0.242,0.036,0.278,-5.337
0.190,0.036,0.275,-5.337
0.212,0.035,0.275,-5.337
0.278,0.033,0.274,-5.337
0.211,0.035,0.277,-5.337
0.084,0.038,0.278,-5.337
0.093,0.034,0.279,-5.337
0.218,0.028,0.279,-5.337
0.267,0.025,0.279,-5.337
0.241,0.028,0.282,-5.337
0.176,0.029,0.284,-5.337
0.181,0.029,0.280,-5.337
0.230,0.031,0.275,-5.337
0.224,0.032,0.276,-5.337
0.163,0.035,0.277,-5.337
0.159,0.034,0.278,-5.337
0.178,0.034,0.279,-5.337
0.231,0.034,0.280,-5.337
0.200,0.036,0.277,-5.337
0.126,0.043,0.276,-5.337
0.095,0.042,0.270,-5.337
0.158,0.041,0.272,-5.337
0.138,0.037,0.277,-5.337
0.090,0.037,0.278,-5.337
0.125,0.036,0.276,-5.337
0.180,0.034,0.273,-5.337
0.199,0.032,0.273,-5.337
0.230,0.030,0.276,-5.337
0.221,0.029,0.279,-5.337
0.218,0.030,0.280,-5.337
0.213,0.029,0.277,-5.337
0.249,0.029,0.281,-5.337
0.228,0.032,0.284,-5.337
0.149,0.035,0.282,-5.337
0.120,0.032,0.282,-5.337
0.150,0.030,0.280,-5.337
0.163,0.028,0.280,-5.337
0.135,0.030,0.279,-5.337
0.130,0.030,0.278,-5.337
0.138,0.030,0.276,-5.337
0.165,0.031,0.275,-5.337
0.228,0.027,0.273,-5.337
0.225,0.027,0.277,-5.337
0.190,0.027,0.277,-5.337
0.215,0.026,0.272,-5.337
0.250,0.028,0.271,-5.337
0.258,0.029,0.273,-5.337
0.244,0.033,0.277,-5.337
0.157,0.036,0.282,-5.337
0.093,0.033,0.282,-5.337
0.119,0.029,0.280,-5.337
0.064,0.032,0.276,-5.337
0.074,0.032,0.274,-5.337
0.172,0.031,0.277,-5.337
0.178,0.033,0.278,-5.337
0.198,0.030,0.277,-5.337
0.205,0.028,0.278,-5.337
0.180,0.030,0.279,-5.337
0.193,0.030,0.278,-5.337
0.166,0.035,0.276,-5.337
0.108,0.036,0.276,-5.337
0.126,0.033,0.276,-5.337
0.175,0.030,0.277,-5.337
0.204,0.033,0.280,-5.337
0.162,0.031,0.280,-5.337
0.156,0.031,0.274,-5.337
0.124,0.029,0.268,-5.337
0.093,0.030,0.272,-5.337
0.148,0.028,0.278,-5.337
0.166,0.029,0.278,-5.337
0.141,0.028,0.273,-5.337
0.130,0.030,0.274,-5.337
0.199,0.027,0.278,-5.337
0.197,0.026,0.277,-5.337
0.132,0.029,0.274,-5.337
0.165,0.028,0.272,-5.337
0.236,0.029,0.276,-5.337
0.210,0.032,0.277,-5.337
0.145,0.032,0.279,-5.337
0.141,0.027,0.282,-5.337
0.123,0.030,0.285,-5.337
0.124,0.030,0.280,-5.337
0.069,0.033,0.273,-5.337
0.050,0.032,0.270,-5.337
0.124,0.030,0.274,-5.337
0.221,0.027,0.275,-5.337
0.233,0.027,0.273,-5.337
0.204,0.029,0.277,-5.337
0.219,0.027,0.282,-5.337
0.200,0.025,0.283,-5.337
0.186,0.027,0.284,-5.337
0.175,0.028,0.281,-5.337
0.193,0.033,0.278,-5.337
0.165,0.033,0.276,-5.337
0.189,0.033,0.277,-5.337
0.170,0.033,0.280,-5.337
0.103,0.028,0.278,-5.337
0.141,0.028,0.277,-5.337
0.248,0.026,0.278,-5.337
0.246,0.027,0.276,-5.337
0.168,0.030,0.272,-5.337
0.125,0.032,0.275,-5.337
0.104,0.029,0.276,-5.337
0.086,0.031,0.280,-5.337
0.103,0.030,0.281,-5.337
0.173,0.029,0.281,-5.337
0.178,0.028,0.278,-5.337
0.171,0.030,0.277,-5.337
0.182,0.029,0.274,-5.337
0.163,0.032,0.276,-5.337
0.155,0.032,0.277,-5.337
0.139,0.032,0.279,-5.337
0.158,0.030,0.281,-5.337
0.190,0.031,0.284,-5.337
0.158,0.034,0.284,-5.337
0.112,0.037,0.277,-5.337
0.157,0.034,0.270,-5.337
0.196,0.034,0.272,-5.337
0.180,0.037,0.277,-5.337
0.171,0.039,0.280,-5.337
0.175,0.040,0.280,-5.337
0.206,0.036,0.278,-5.337
0.183,0.037,0.276,-5.337
0.166,0.037,0.277,-5.337
0.194,0.038,0.275,-5.337
0.215,0.036,0.274,-5.337
0.215,0.036,0.277,-5.337
0.197,0.041,0.276,-5.337
0.212,0.041,0.280,-5.337
0.197,0.041,0.279,-5.337
0.214,0.041,0.278,-5.337
0.233,0.038,0.280,-5.337
0.238,0.041,0.284,-5.337
0.239,0.040,0.282,-5.337
0.238,0.040,0.279,-5.337
0.212,0.042,0.278,-5.337
0.158,0.044,0.278,-5.337
0.159,0.042,0.280,-5.337
0.186,0.041,0.281,-5.337
0.173,0.040,0.280,-5.337
0.179,0.040,0.277,-5.337
0.214,0.041,0.273,-5.337
0.228,0.044,0.276,-5.337
0.221,0.046,0.281,-5.337
0.225,0.045,0.282,-5.337
0.129,0.047,0.283,-5.337
0.107,0.046,0.281,-5.337
0.140,0.047,0.280,-5.337
0.149,0.049,0.278,-5.337
0.158,0.045,0.279,-5.337
0.226,0.040,0.279,-5.337
0.234,0.045,0.279,-5.337
0.216,0.045,0.274,-5.337
0.189,0.045,0.271,-5.337
0.169,0.046,0.272,-5.337
0.176,0.048,0.277,-5.337
0.197,0.049,0.280,-5.337
0.103,0.054,0.275,-5.337
0.125,0.051,0.272,-5.337
0.186,0.049,0.274,-5.337
0.184,0.046,0.276,-5.337
0.200,0.046,0.277,-5.337
0.151,0.051,0.280,-5.337
0.110,0.048,0.284,-5.337
0.164,0.044,0.281,-5.337
0.232,0.045,0.279,-5.337
0.201,0.047,0.275,-5.337
0.057,0.050,0.274,-5.337
0.114,0.046,0.278,-5.337
0.170,0.044,0.278,-5.337
0.247,0.045,0.277,-5.337
0.227,0.049,0.277,-5.337
0.166,0.050,0.279,-5.337
0.154,0.048,0.277,-5.337
0.115,0.048,0.276,-5.337
0.148,0.046,0.276,-5.337
0.165,0.045,0.279,-5.337
0.212,0.043,0.279,-5.337
0.180,0.044,0.278,-5.337
0.150,0.046,0.279,-5.337
0.162,0.045,0.279,-5.337
0.209,0.044,0.276,-5.337
0.246,0.046,0.277,-5.337
0.293,0.045,0.278,-5.337
0.254,0.044,0.275,-5.337
0.229,0.043,0.273,-5.337
0.269,0.042,0.274,-5.337
0.300,0.042,0.275,-5.337
0.251,0.040,0.276,-5.337
0.182,0.043,0.277,-5.337
0.238,0.047,0.276,-5.337
0.213,0.048,0.278,-5.337
0.237,0.041,0.280,-5.337
0.236,0.043,0.282,-5.337
0.169,0.045,0.280,-5.337
0.225,0.043,0.279,-5.337
0.279,0.041,0.277,-5.337
0.294,0.041,0.274,-5.337
0.261,0.045,0.271,-5.337
0.187,0.048,0.272,-5.337
0.184,0.046,0.278,-5.337
0.226,0.050,0.284,-5.337
0.153,0.050,0.280,-5.337
0.146,0.044,0.276,-5.337
0.155,0.042,0.278,-5.337
0.143,0.044,0.277,-5.337
0.129,0.044,0.274,-5.337
0.209,0.041,0.274,-5.337
0.325,0.039,0.275,-5.337
0.290,0.043,0.275,-5.337
0.245,0.048,0.277,-5.337
0.203,0.050,0.279,-5.337
0.254,0.045,0.278,-5.337
0.249,0.044,0.275,-5.337
0.183,0.046,0.279,-5.337
0.163,0.050,0.278,-5.337
0.174,0.052,0.277,-5.337
0.194,0.052,0.277,-5.337
0.173,0.049,0.279,-5.337
0.170,0.046,0.279,-5.337
0.167,0.052,0.279,-5.337
0.188,0.051,0.282,-5.337
0.200,0.052,0.283,-5.337
0.192,0.052,0.281,-5.337
0.172,0.051,0.277,-5.337
0.168,0.050,0.277,-5.337
0.192,0.050,0.275,-5.337
0.206,0.051,0.271,-5.337
0.196,0.048,0.272,-5.337
0.166,0.051,0.275,-5.337
0.201,0.054,0.279,-5.337
0.238,0.054,0.279,-5.337
0.247,0.052,0.279,-5.337
0.238,0.051,0.281,-5.337
0.191,0.053,0.281,-5.337
0.138,0.055,0.284,-5.337
0.147,0.053,0.287,-5.337
0.217,0.053,0.288,-5.337
0.268,0.053,0.285,-5.337
0.258,0.052,0.282,-5.337
0.293,0.053,0.278,-5.337
0.267,0.054,0.275,-5.337
0.247,0.050,0.272,-5.337
0.221,0.052,0.271,-5.337
0.220,0.053,0.274,-5.337
0.228,0.054,0.276,-5.337
0.213,0.052,0.281,-5.337
0.216,0.057,0.280,-5.337
0.171,0.058,0.280,-5.337
0.159,0.055,0.279,-5.337
0.200,0.056,0.274,-5.337
0.210,0.057,0.272,-5.337
0.235,0.053,0.275,-5.337
0.196,0.056,0.278,-5.337
0.155,0.057,0.281,-5.337
0.209,0.055,0.281,-5.337
0.280,0.050,0.277,-5.337
0.277,0.053,0.278,-5.337
0.256,0.053,0.281,-5.337
0.302,0.054,0.278,-5.337
0.262,0.056,0.277,-5.337
0.215,0.057,0.274,-5.337
0.258,0.053,0.275,-5.337
0.304,0.050,0.279,-5.337
0.317,0.051,0.279,-5.337
0.259,0.051,0.279,-5.337
0.198,0.052,0.281,-5.337
0.219,0.053,0.277,-5.337
0.239,0.054,0.276,-5.337
0.207,0.052,0.279,-5.337
0.218,0.049,0.282,-5.337
0.219,0.052,0.280,-5.337
0.175,0.056,0.279,-5.337
0.142,0.060,0.278,-5.337
0.177,0.056,0.278,-5.337
0.196,0.055,0.275,-5.337
0.201,0.053,0.274,-5.337
0.231,0.051,0.276,-5.337
0.235,0.048,0.279,-5.337
0.291,0.047,0.283,-5.337
0.269,0.054,0.280,-5.337
0.204,0.055,0.278,-5.337
0.236,0.055,0.277,-5.337
0.264,0.057,0.277,-5.337
0.208,0.058,0.276,-5.337
0.199,0.060,0.279,-5.337
0.198,0.059,0.281,-5.337
0.127,0.061,0.282,-5.337
0.178,0.059,0.282,-5.337
0.251,0.061,0.277,-5.337
0.232,0.060,0.271,-5.337
0.206,0.061,0.271,-5.337
0.267,0.058,0.271,-5.337
0.278,0.059,0.273,-5.337
0.272,0.058,0.276,-5.337
0.274,0.055,0.276,-5.337
0.240,0.054,0.278,-5.337
0.194,0.054,0.274,-5.337
0.232,0.056,0.274,-5.337
0.232,0.058,0.278,-5.337
0.227,0.058,0.283,-5.337
0.265,0.056,0.283,-5.337
0.311,0.056,0.282,-5.337
0.257,0.060,0.278,-5.337
0.214,0.060,0.276,-5.337
0.259,0.061,0.275,-5.337
0.284,0.061,0.280,-5.337
0.293,0.060,0.279,-5.337
0.253,0.057,0.278,-5.337
0.206,0.056,0.278,-5.337
0.180,0.057,0.279,-5.337
0.173,0.059,0.279,-5.337
0.172,0.062,0.276,-5.337
0.112,0.064,0.275,-5.337
0.122,0.063,0.276,-5.337
0.151,0.062,0.277,-5.337
0.207,0.061,0.277,-5.337
0.213,0.060,0.277,-5.337
0.214,0.058,0.273,-5.337
0.193,0.061,0.272,-5.337
0.219,0.058,0.272,-5.337
0.292,0.058,0.274,-5.337
0.261,0.058,0.274,-5.337
0.220,0.058,0.275,-5.337
0.229,0.056,0.275,-5.337
0.297,0.054,0.276,-5.337
0.265,0.055,0.277,-5.337
0.193,0.059,0.280,-5.337
0.214,0.059,0.281,-5.337
0.271,0.057,0.279,-5.337
0.295,0.056,0.274,-5.337
0.242,0.061,0.273,-5.337
0.232,0.060,0.272,-5.337
0.309,0.055,0.276,-5.337
0.242,0.059,0.280,-5.337
0.194,0.058,0.283,-5.337
0.255,0.053,0.282,-5.337
0.263,0.053,0.279,-5.337
0.253,0.054,0.276,-5.337
0.211,0.054,0.275,-5.337
0.228,0.050,0.275,-5.337
0.285,0.051,0.274,-5.337
0.312,0.051,0.279,-5.337
0.210,0.053,0.281,-5.337
0.186,0.054,0.277,-5.337
0.204,0.054,0.273,-5.337
0.274,0.053,0.272,-5.337
0.257,0.050,0.272,-5.337
0.196,0.052,0.277,-5.337
0.223,0.054,0.278,-5.337
0.264,0.052,0.279,-5.337
0.240,0.051,0.278,-5.337
0.249,0.049,0.280,-5.337
0.254,0.049,0.282,-5.337
0.272,0.048,0.278,-5.337
0.268,0.043,0.274,-5.337
0.251,0.045,0.272,-5.337
0.251,0.048,0.270,-5.337
0.239,0.049,0.271,-5.337
0.201,0.050,0.274,-5.337
0.209,0.050,0.276,-5.337
0.202,0.050,0.278,-5.337
0.267,0.048,0.276,-5.337
0.281,0.052,0.274,-5.337
0.236,0.051,0.278,-5.337
0.225,0.050,0.284,-5.337
0.256,0.046,0.283,-5.337
0.259,0.047,0.281,-5.337
0.251,0.045,0.278,-5.337
0.280,0.042,0.280,-5.337
0.276,0.043,0.278,-5.337
0.254,0.044,0.276,-5.337
0.197,0.043,0.275,-5.337
0.217,0.045,0.277,-5.337
0.194,0.049,0.275,-5.337
0.187,0.044,0.276,-5.337
0.241,0.040,0.278,-5.337
0.247,0.040,0.277,-5.337
0.249,0.040,0.277,-5.337
0.237,0.042,0.277,-5.337
0.272,0.042,0.274,-5.337
0.282,0.043,0.273,-5.337
0.288,0.045,0.276,-5.337
0.273,0.044,0.275,-5.337
0.280,0.046,0.273,-5.337
0.251,0.046,0.281,-5.337
0.259,0.044,0.286,-5.337
0.206,0.046,0.286,-5.337
0.118,0.046,0.283,-5.337
0.109,0.047,0.280,-5.337
0.158,0.047,0.279,-5.337
0.245,0.043,0.274,-5.337
0.224,0.044,0.278,-5.337
0.134,0.044,0.281,-5.337
0.187,0.040,0.285,-5.337
0.217,0.041,0.283,-5.337
0.173,0.044,0.279,-5.337
0.151,0.043,0.273,-5.337
0.138,0.045,0.275,-5.337
0.197,0.041,0.278,-5.337
0.214,0.044,0.279,-5.337
0.216,0.041,0.278,-5.337
0.270,0.041,0.277,-5.337
0.200,0.046,0.279,-5.337
0.123,0.048,0.281,-5.337
0.158,0.044,0.280,-5.337
0.126,0.041,0.280,-5.337
0.126,0.041,0.278,-5.337
0.232,0.038,0.273,-5.337
0.284,0.042,0.270,-5.337
0.303,0.044,0.272,-5.337
0.266,0.045,0.277,-5.337
0.245,0.041,0.281,-5.337
0.212,0.038,0.284,-5.337
0.273,0.035,0.285,-5.337
0.246,0.040,0.283,-5.337
0.212,0.036,0.280,-5.337
0.182,0.037,0.280,-5.337
0.170,0.040,0.278,-5.337
0.199,0.041,0.275,-5.337
0.165,0.039,0.274,-5.337
0.215,0.036,0.276,-5.337
0.241,0.035,0.275,-5.337
0.148,0.041,0.272,-5.337
0.058,0.042,0.275,-5.337
0.084,0.042,0.279,-5.337
0.170,0.041,0.280,-5.337
0.284,0.038,0.281,-5.337
0.259,0.039,0.278,-5.337
0.160,0.047,0.277,-5.337
0.155,0.044,0.276,-5.337
0.245,0.040,0.277,-5.337
0.281,0.036,0.277,-5.337
0.239,0.041,0.276,-5.337
0.151,0.044,0.279,-5.337
0.185,0.040,0.280,-5.337
0.273,0.033,0.279,-5.337
0.244,0.033,0.275,-5.337
0.207,0.035,0.278,-5.337
0.204,0.040,0.280,-5.337
0.196,0.041,0.279,-5.337
0.182,0.036,0.277,-5.337
0.180,0.035,0.274,-5.337
0.197,0.035,0.277,-5.337
0.192,0.036,0.280,-5.337
0.175,0.036,0.281,-5.337
0.178,0.036,0.282,-5.337
0.201,0.034,0.279,-5.337
0.206,0.034,0.275,-5.337
0.192,0.035,0.270,-5.337
0.106,0.034,0.272,-5.337
0.104,0.035,0.276,-5.337
0.121,0.035,0.277,-5.337
0.157,0.033,0.275,-5.337
0.259,0.031,0.276,-5.337
0.233,0.033,0.277,-5.337
0.184,0.031,0.276,-5.337
0.216,0.029,0.277,-5.337
0.281,0.029,0.278,-5.337
0.258,0.033,0.280,-5.337
0.289,0.030,0.275,-5.337
0.258,0.028,0.276,-5.337
0.255,0.025,0.280,-5.337
0.242,0.028,0.279,-5.337
0.185,0.026,0.279,-5.337
0.182,0.025,0.277,-5.337
0.159,0.033,0.272,-5.337
0.152,0.035,0.272,-5.337
0.128,0.036,0.275,-5.337
0.097,0.037,0.278,-5.337
0.148,0.034,0.279,-5.337
0.190,0.030,0.279,-5.337
0.235,0.031,0.277,-5.337
0.249,0.030,0.274,-5.337
0.228,0.031,0.275,-5.337
0.189,0.037,0.275,-5.337
0.214,0.039,0.276,-5.337
0.191,0.037,0.275,-5.337
0.103,0.038,0.278,-5.337
0.095,0.037,0.278,-5.337
0.155,0.033,0.276,-5.337
0.212,0.029,0.273,-5.337
0.190,0.031,0.276,-5.337
0.192,0.031,0.277,-5.337
0.162,0.033,0.280,-5.337
0.156,0.031,0.281,-5.337
0.206,0.029,0.280,-5.337
0.242,0.027,0.279,-5.337
0.191,0.029,0.278,-5.337
0.110,0.031,0.277,-5.337
0.106,0.034,0.278,-5.337
0.102,0.033,0.278,-5.337
0.133,0.033,0.280,-5.337
0.209,0.031,0.278,-5.337
0.280,0.029,0.275,-5.337
0.214,0.029,0.275,-5.337
0.147,0.032,0.278,-5.337
0.127,0.032,0.281,-5.337
0.151,0.032,0.279,-5.337
0.133,0.031,0.279,-5.337
0.213,0.028,0.281,-5.337
0.279,0.032,0.283,-5.337
0.242,0.031,0.279,-5.337
0.185,0.034,0.280,-5.337
0.192,0.032,0.280,-5.337
0.192,0.032,0.279,-5.337
0.203,0.029,0.277,-5.337
0.128,0.033,0.281,-5.337
0.114,0.031,0.279,-5.337
0.137,0.031,0.279,-5.337
0.109,0.034,0.283,-5.337
0.090,0.036,0.286,-5.337
0.189,0.032,0.286,-5.337
0.283,0.028,0.282,-5.337
0.289,0.027,0.280,-5.337
0.224,0.031,0.277,-5.337
0.154,0.030,0.270,-5.337
0.184,0.031,0.269,-5.337
0.245,0.033,0.273,-5.337
0.153,0.036,0.273,-5.337
0.112,0.035,0.271,-5.337
0.196,0.030,0.272,-5.337
0.232,0.029,0.278,-5.337
0.169,0.031,0.281,-5.337
0.069,0.033,0.283,-5.337
0.068,0.032,0.280,-5.337
0.150,0.035,0.280,-5.337
0.233,0.033,0.277,-5.337
0.276,0.031,0.279,-5.337
0.266,0.030,0.280,-5.337
0.214,0.032,0.279,-5.337
0.174,0.034,0.278,-5.337
0.214,0.034,0.277,-5.337
0.152,0.035,0.276,-5.337
0.158,0.034,0.278,-5.337
0.218,0.033,0.282,-5.337
0.160,0.035,0.285,-5.337
0.097,0.035,0.282,-5.337
0.050,0.035,0.279,-5.337
0.085,0.033,0.277,-5.337
0.154,0.037,0.276,-5.337
0.180,0.035,0.278,-5.337
0.207,0.030,0.279,-5.337
0.198,0.033,0.281,-5.337
0.162,0.035,0.282,-5.337
0.155,0.035,0.279,-5.337
0.152,0.034,0.277,-5.337
0.163,0.032,0.277,-5.337
0.180,0.031,0.278,-5.337
0.225,0.031,0.282,-5.337
0.214,0.031,0.282,-5.337
0.219,0.030,0.280,-5.337
0.226,0.033,0.276,-5.337
0.205,0.038,0.279,-5.337
0.143,0.040,0.281,-5.337
0.191,0.034,0.281,-5.337
0.165,0.033,0.278,-5.337
0.145,0.034,0.277,-5.337
0.142,0.034,0.279,-5.337
0.087,0.037,0.279,-5.337
0.118,0.036,0.281,-5.337
0.163,0.035,0.280,-5.337
0.184,0.035,0.278,-5.337
0.237,0.033,0.275,-5.337
0.213,0.032,0.271,-5.337
0.146,0.031,0.269,-5.337
0.070,0.032,0.273,-5.337
0.028,0.034,0.277,-5.337
0.144,0.031,0.280,-5.337
0.278,0.031,0.277,-5.337
0.251,0.037,0.274,-5.337
0.153,0.038,0.274,-5.337
0.068,0.041,0.279,-5.337
0.041,0.041,0.280,-5.337
0.075,0.039,0.279,-5.337
0.155,0.034,0.278,-5.337
0.161,0.031,0.278,-5.337
0.169,0.032,0.277,-5.337
0.167,0.036,0.275,-5.337
0.223,0.033,0.278,-5.337
0.200,0.029,0.278,-5.337
0.213,0.028,0.278,-5.337
0.223,0.030,0.281,-5.337
0.213,0.029,0.283,-5.337
0.171,0.030,0.279,-5.337
0.126,0.028,0.273,-5.337
0.142,0.026,0.270,-5.337
0.210,0.026,0.273,-5.337
0.176,0.025,0.274,-5.337
0.150,0.028,0.276,-5.337
0.115,0.030,0.276,-5.337
0.164,0.029,0.280,-5.337
0.197,0.030,0.279,-5.337
0.193,0.032,0.279,-5.337
0.168,0.034,0.277,-5.337
0.184,0.035,0.278,-5.337
0.194,0.034,0.277,-5.337
0.234,0.033,0.279,-5.337
0.198,0.035,0.279,-5.337
0.143,0.037,0.277,-5.337
0.210,0.034,0.273,-5.337
0.276,0.033,0.273,-5.337
0.242,0.034,0.276,-5.337
0.160,0.036,0.279,-5.337
0.148,0.038,0.279,-5.337
0.174,0.036,0.276,-5.337
0.148,0.035,0.273,-5.337
0.089,0.034,0.274,-5.337
0.108,0.034,0.276,-5.337
0.181,0.032,0.274,-5.337
0.172,0.031,0.278,-5.337
0.145,0.033,0.281,-5.337
0.198,0.031,0.283,-5.337
0.275,0.031,0.277,-5.337
0.223,0.030,0.274,-5.337
0.148,0.031,0.275,-5.337
0.125,0.029,0.274,-5.337
0.183,0.028,0.275,-5.337
0.209,0.036,0.280,-5.337
0.184,0.039,0.281,-5.337
0.180,0.040,0.280,-5.337
0.219,0.038,0.277,-5.337
0.229,0.036,0.273,-5.337
0.177,0.040,0.270,-5.337
0.107,0.044,0.268,-5.337
0.077,0.044,0.270,-5.337
0.104,0.043,0.277,-5.337
0.170,0.042,0.278,-5.337
0.187,0.041,0.279,-5.337
0.180,0.040,0.283,-5.337
0.182,0.040,0.281,-5.337
0.190,0.042,0.275,-5.337
0.186,0.040,0.275,-5.337
0.140,0.042,0.278,-5.337
0.107,0.048,0.277,-5.337
0.124,0.043,0.278,-5.337
0.120,0.042,0.277,-5.337
0.165,0.046,0.278,-5.337
0.167,0.042,0.277,-5.337
0.176,0.039,0.279,-5.337
0.273,0.039,0.279,-5.337
0.287,0.039,0.275,-5.337
0.230,0.040,0.272,-5.337
0.229,0.043,0.272,-5.337
0.252,0.042,0.276,-5.337
0.205,0.040,0.276,-5.337
0.197,0.040,0.275,-5.337
0.186,0.041,0.272,-5.337
0.149,0.043,0.273,-5.337
0.165,0.041,0.280,-5.337
0.172,0.043,0.284,-5.337
0.160,0.046,0.283,-5.337
0.138,0.046,0.278,-5.337
0.173,0.045,0.276,-5.337
0.207,0.044,0.275,-5.337
0.239,0.043,0.277,-5.337
0.264,0.042,0.281,-5.337
0.229,0.044,0.282,-5.337
0.224,0.042,0.279,-5.337
0.226,0.040,0.277,-5.337
0.258,0.041,0.279,-5.337
0.256,0.043,0.279,-5.337
0.244,0.047,0.277,-5.337
0.271,0.048,0.273,-5.337
0.193,0.048,0.274,-5.337
0.160,0.045,0.276,-5.337
0.153,0.046,0.281,-5.337
0.150,0.046,0.285,-5.337
0.159,0.045,0.282,-5.337
0.249,0.038,0.276,-5.337
0.258,0.044,0.274,-5.337
0.172,0.047,0.277,-5.337
0.182,0.047,0.278,-5.337
0.200,0.046,0.280,-5.337
0.161,0.046,0.278,-5.337
0.155,0.043,0.278,-5.337
0.270,0.043,0.279,-5.337
0.310,0.044,0.278,-5.337
0.233,0.048,0.277,-5.337
0.171,0.049,0.278,-5.337
0.187,0.048,0.279,-5.337
0.191,0.048,0.279,-5.337
0.218,0.046,0.280,-5.337
0.240,0.042,0.279,-5.337
0.237,0.041,0.277,-5.337
0.179,0.046,0.278,-5.337
0.108,0.045,0.274,-5.337
0.170,0.044,0.271,-5.337
0.187,0.042,0.275,-5.337
0.224,0.040,0.283,-5.337
0.228,0.045,0.286,-5.337
0.166,0.048,0.282,-5.337
0.108,0.049,0.275,-5.337
0.200,0.044,0.273,-5.337
0.215,0.043,0.271,-5.337
0.158,0.044,0.272,-5.337
0.205,0.044,0.274,-5.337
0.219,0.044,0.279,-5.337
0.190,0.046,0.281,-5.337
0.230,0.050,0.278,-5.337
0.235,0.049,0.277,-5.337
0.240,0.048,0.275,-5.337
0.221,0.045,0.277,-5.337
0.173,0.049,0.279,-5.337
0.155,0.049,0.280,-5.337
0.183,0.048,0.275,-5.337
0.190,0.050,0.275,-5.337
0.199,0.052,0.275,-5.337
0.194,0.049,0.274,-5.337
0.195,0.047,0.273,-5.337
0.168,0.049,0.277,-5.337
0.169,0.053,0.280,-5.337
0.259,0.050,0.280,-5.337
0.280,0.051,0.278,-5.337
0.214,0.050,0.276,-5.337
0.232,0.047,0.276,-5.337
0.204,0.051,0.275,-5.337
0.135,0.054,0.273,-5.337
0.168,0.052,0.270,-5.337
0.243,0.049,0.271,-5.337
0.280,0.049,0.276,-5.337
0.253,0.047,0.280,-5.337
0.200,0.047,0.282,-5.337
0.122,0.052,0.284,-5.337
0.169,0.050,0.282,-5.337
0.244,0.046,0.279,-5.337
0.272,0.044,0.274,-5.337
0.234,0.052,0.271,-5.337
0.251,0.050,0.273,-5.337
0.308,0.049,0.278,-5.337
0.287,0.048,0.284,-5.337
0.240,0.049,0.285,-5.337
0.248,0.048,0.281,-5.337
0.258,0.047,0.277,-5.337
0.239,0.050,0.276,-5.337
0.198,0.049,0.275,-5.337
0.232,0.045,0.273,-5.337
0.250,0.049,0.275,-5.337
0.235,0.053,0.277,-5.337
0.188,0.053,0.276,-5.337
0.168,0.052,0.279,-5.337
0.137,0.056,0.282,-5.337
0.140,0.053,0.283,-5.337
0.152,0.052,0.279,-5.337
0.200,0.049,0.276,-5.337
0.228,0.046,0.275,-5.337
0.169,0.047,0.278,-5.337
0.187,0.050,0.276,-5.337
0.253,0.054,0.276,-5.337
0.262,0.053,0.278,-5.337
0.270,0.051,0.277,-5.337
0.202,0.048,0.273,-5.337
0.159,0.051,0.272,-5.337
0.165,0.052,0.278,-5.337
0.168,0.053,0.282,-5.337
0.145,0.053,0.278,-5.337
0.254,0.050,0.276,-5.337
0.347,0.050,0.278,-5.337
0.270,0.053,0.284,-5.337
0.195,0.055,0.280,-5.337
0.265,0.051,0.275,-5.337
0.294,0.049,0.270,-5.337
0.291,0.048,0.269,-5.337
0.312,0.048,0.271,-5.337
0.242,0.053,0.274,-5.337
0.171,0.057,0.281,-5.337
0.198,0.058,0.282,-5.337
0.225,0.057,0.282,-5.337
0.211,0.055,0.279,-5.337
0.206,0.057,0.279,-5.337
0.223,0.055,0.280,-5.337
0.222,0.057,0.277,-5.337
0.170,0.054,0.273,-5.337
0.173,0.054,0.274,-5.337
0.189,0.055,0.279,-5.337
0.191,0.058,0.279,-5.337
0.247,0.054,0.278,-5.337
0.260,0.055,0.276,-5.337
0.242,0.053,0.275,-5.337
0.252,0.057,0.278,-5.337
0.228,0.061,0.280,-5.337
0.237,0.058,0.273,-5.337
0.249,0.054,0.271,-5.337
0.284,0.055,0.275,-5.337
0.371,0.055,0.277,-5.337
0.308,0.058,0.280,-5.337
0.191,0.056,0.282,-5.337
0.199,0.055,0.280,-5.337
0.272,0.055,0.278,-5.337
0.300,0.054,0.277,-5.337
0.289,0.053,0.278,-5.337
0.251,0.057,0.276,-5.337
0.199,0.058,0.280,-5.337
0.208,0.056,0.279,-5.337
0.207,0.055,0.278,-5.337
0.231,0.058,0.275,-5.337
0.221,0.060,0.274,-5.337
0.180,0.058,0.272,-5.337
0.182,0.057,0.276,-5.337
0.235,0.058,0.279,-5.337
0.300,0.056,0.279,-5.337
0.197,0.057,0.280,-5.337
0.163,0.057,0.279,-5.337
0.228,0.055,0.275,-5.337
0.293,0.056,0.277,-5.337
0.308,0.060,0.275,-5.337
0.301,0.059,0.275,-5.337
0.267,0.059,0.279,-5.337
0.209,0.057,0.280,-5.337
0.162,0.056,0.276,-5.337
0.163,0.057,0.275,-5.337
0.152,0.056,0.278,-5.337
0.194,0.052,0.280,-5.337
0.274,0.048,0.282,-5.337
0.308,0.051,0.282,-5.337
0.223,0.055,0.282,-5.337
0.194,0.054,0.278,-5.337
0.256,0.054,0.276,-5.337
0.251,0.057,0.275,-5.337
0.152,0.060,0.276,-5.337
0.110,0.058,0.278,-5.337
0.174,0.059,0.280,-5.337
0.223,0.054,0.278,-5.337
0.215,0.058,0.273,-5.337
0.241,0.057,0.271,-5.337
0.248,0.059,0.273,-5.337
0.202,0.059,0.280,-5.337
0.214,0.054,0.283,-5.337
0.234,0.053,0.280,-5.337
0.237,0.052,0.275,-5.337
0.225,0.052,0.276,-5.337
0.235,0.050,0.277,-5.337
0.233,0.050,0.276,-5.337
0.240,0.051,0.278,-5.337
0.276,0.047,0.282,-5.337
0.329,0.048,0.280,-5.337
0.314,0.049,0.277,-5.337
0.255,0.050,0.273,-5.337
0.239,0.053,0.273,-5.337
0.234,0.053,0.275,-5.337
0.242,0.050,0.276,-5.337
0.220,0.050,0.276,-5.337
0.196,0.053,0.278,-5.337
0.232,0.050,0.279,-5.337
0.309,0.048,0.277,-5.337
0.339,0.050,0.275,-5.337
0.298,0.050,0.276,-5.337
0.275,0.048,0.279,-5.337
0.273,0.047,0.278,-5.337
0.202,0.049,0.276,-5.337
0.143,0.049,0.277,-5.337
0.154,0.048,0.278,-5.337
0.260,0.047,0.276,-5.337
0.299,0.046,0.279,-5.337
0.261,0.052,0.280,-5.337
0.168,0.053,0.280,-5.337
0.127,0.051,0.277,-5.337
0.179,0.046,0.273,-5.337
0.245,0.042,0.271,-5.337
0.274,0.042,0.277,-5.337
0.207,0.044,0.280,-5.337
0.173,0.040,0.278,-5.337
0.252,0.037,0.278,-5.337
0.227,0.042,0.277,-5.337
0.172,0.043,0.276,-5.337
0.190,0.045,0.277,-5.337
0.166,0.045,0.277,-5.337
0.175,0.046,0.273,-5.337
0.224,0.044,0.270,-5.337
0.291,0.043,0.273,-5.337
0.298,0.046,0.278,-5.337
0.298,0.048,0.278,-5.337
0.266,0.049,0.277,-5.337
0.274,0.046,0.276,-5.337
0.284,0.042,0.275,-5.337
0.279,0.040,0.276,-5.337
0.281,0.040,0.278,-5.337
0.257,0.039,0.281,-5.337
0.175,0.044,0.281,-5.337
0.246,0.043,0.278,-5.337
0.269,0.044,0.278,-5.337
0.176,0.043,0.276,-5.337
0.138,0.045,0.270,-5.337
0.079,0.045,0.270,-5.337
0.047,0.049,0.277,-5.337
0.116,0.045,0.282,-5.337
0.242,0.041,0.283,-5.337
0.273,0.041,0.280,-5.337
0.237,0.042,0.277,-5.337
0.207,0.042,0.277,-5.337
0.244,0.043,0.280,-5.337
0.286,0.043,0.281,-5.337
0.242,0.043,0.279,-5.337
0.220,0.044,0.277,-5.337
0.194,0.045,0.275,-5.337
0.191,0.042,0.275,-5.337
0.277,0.038,0.279,-5.337
0.288,0.040,0.279,-5.337
0.203,0.051,0.276,-5.337
0.203,0.046,0.276,-5.337
0.282,0.038,0.278,-5.337
0.258,0.035,0.279,-5.337
0.204,0.035,0.273,-5.337
0.199,0.036,0.271,-5.337
0.176,0.036,0.271,-5.337
0.186,0.035,0.274,-5.337
0.246,0.032,0.273,-5.337
0.243,0.031,0.274,-5.337
0.273,0.031,0.278,-5.337
0.260,0.034,0.286,-5.337
0.241,0.031,0.291,-5.337
0.265,0.031,0.288,-5.337
0.247,0.034,0.280,-5.337
0.254,0.036,0.276,-5.337
0.240,0.037,0.276,-5.337
0.110,0.040,0.278,-5.337
0.064,0.039,0.276,-5.337
0.163,0.033,0.272,-5.337
0.276,0.033,0.274,-5.337
0.263,0.036,0.283,-5.337
0.270,0.034,0.286,-5.337
0.237,0.034,0.282,-5.337
0.153,0.040,0.281,-5.337
0.192,0.035,0.279,-5.337
0.258,0.037,0.278,-5.337
0.250,0.038,0.280,-5.337
0.257,0.039,0.283,-5.337
0.236,0.039,0.281,-5.337
0.211,0.037,0.278,-5.337
0.254,0.033,0.276,-5.337
0.281,0.033,0.278,-5.337
0.196,0.034,0.276,-5.337
0.161,0.037,0.274,-5.337
0.121,0.042,0.275,-5.337
0.071,0.045,0.277,-5.337
0.090,0.042,0.278,-5.337
0.167,0.042,0.277,-5.337
0.169,0.042,0.278,-5.337
0.142,0.040,0.281,-5.337
0.152,0.035,0.283,-5.337
0.210,0.037,0.282,-5.337
0.207,0.035,0.279,-5.337
0.201,0.033,0.275,-5.337
0.185,0.032,0.276,-5.337
0.252,0.032,0.278,-5.337
0.226,0.032,0.278,-5.337
0.181,0.030,0.280,-5.337
0.239,0.031,0.285,-5.337
0.242,0.035,0.281,-5.337
0.209,0.034,0.276,-5.337
0.220,0.031,0.277,-5.337
0.207,0.032,0.282,-5.337
0.232,0.028,0.283,-5.337
0.207,0.032,0.281,-5.337
0.111,0.035,0.277,-5.337
0.169,0.036,0.278,-5.337
0.181,0.037,0.279,-5.337
0.201,0.036,0.276,-5.337
0.211,0.033,0.274,-5.337
0.221,0.031,0.276,-5.337
0.232,0.031,0.275,-5.337
0.248,0.025,0.276,-5.337
0.261,0.024,0.277,-5.337
0.221,0.028,0.277,-5.337
0.150,0.029,0.273,-5.337
0.080,0.030,0.274,-5.337
0.117,0.032,0.276,-5.337
0.179,0.033,0.277,-5.337
0.257,0.031,0.280,-5.337
0.277,0.030,0.279,-5.337
0.196,0.029,0.279,-5.337
0.178,0.030,0.277,-5.337
0.181,0.033,0.278,-5.337
0.200,0.034,0.278,-5.337
0.253,0.034,0.278,-5.337
0.166,0.035,0.275,-5.337
0.120,0.034,0.273,-5.337
0.166,0.031,0.274,-5.337
0.192,0.033,0.278,-5.337
0.159,0.031,0.280,-5.337
0.160,0.032,0.278,-5.337
0.166,0.033,0.276,-5.337
0.144,0.033,0.276,-5.337
0.147,0.030,0.279,-5.337
0.152,0.031,0.282,-5.337
0.122,0.034,0.278,-5.337
0.107,0.035,0.276,-5.337
0.162,0.033,0.275,-5.337
0.221,0.031,0.274,-5.337
0.211,0.029,0.272,-5.337
0.174,0.030,0.272,-5.337
0.139,0.034,0.276,-5.337
0.203,0.032,0.279,-5.337
0.288,0.028,0.280,-5.337
0.266,0.029,0.277,-5.337
0.179,0.033,0.275,-5.337
0.158,0.030,0.279,-5.337
0.202,0.030,0.278,-5.337
0.207,0.032,0.274,-5.337
0.187,0.031,0.272,-5.337
0.175,0.030,0.273,-5.337
0.158,0.030,0.279,-5.337
0.112,0.030,0.281,-5.337
0.171,0.029,0.280,-5.337
0.184,0.032,0.279,-5.337
0.156,0.030,0.279,-5.337
0.166,0.028,0.281,-5.337
0.104,0.029,0.279,-5.337
0.183,0.028,0.276,-5.337
0.241,0.027,0.277,-5.337
0.155,0.031,0.277,-5.337
0.168,0.032,0.280,-5.337
0.229,0.031,0.280,-5.337
0.244,0.028,0.279,-5.337
0.198,0.027,0.276,-5.337
0.206,0.026,0.272,-5.337
0.265,0.027,0.275,-5.337
0.230,0.029,0.275,-5.337
0.137,0.031,0.278,-5.337
0.167,0.029,0.278,-5.337
0.212,0.029,0.281,-5.337
0.249,0.029,0.283,-5.337
0.202,0.033,0.283,-5.337
0.136,0.036,0.280,-5.337
0.077,0.037,0.278,-5.337
0.103,0.032,0.280,-5.337
0.141,0.031,0.280,-5.337
0.161,0.031,0.280,-5.337
0.168,0.034,0.277,-5.337
0.160,0.032,0.273,-5.337
0.142,0.029,0.271,-5.337
0.123,0.033,0.273,-5.337
0.098,0.030,0.277,-5.337
0.104,0.030,0.280,-5.337
0.091,0.033,0.279,-5.337
0.079,0.032,0.281,-5.337
0.176,0.028,0.281,-5.337
0.229,0.023,0.279,-5.337
0.178,0.026,0.275,-5.337
0.152,0.031,0.279,-5.337
0.099,0.032,0.278,-5.337
0.084,0.029,0.276,-5.337
0.097,0.026,0.275,-5.337
0.172,0.025,0.275,-5.337
0.232,0.025,0.275,-5.337
0.200,0.025,0.280,-5.337
0.164,0.026,0.280,-5.337
0.199,0.024,0.280,-5.337
0.187,0.026,0.275,-5.337
0.168,0.025,0.275,-5.337
0.165,0.026,0.271,-5.337
0.119,0.032,0.270,-5.337
0.067,0.031,0.271,-5.337
0.074,0.029,0.276,-5.337
0.128,0.030,0.280,-5.337
0.152,0.027,0.281,-5.337
0.210,0.023,0.279,-5.337
0.201,0.024,0.279,-5.337
0.205,0.027,0.283,-5.337
0.144,0.028,0.282,-5.337
0.133,0.028,0.282,-5.337
0.166,0.024,0.283,-5.337
0.145,0.024,0.280,-5.337
0.117,0.023,0.274,-5.337
0.101,0.026,0.274,-5.337
0.092,0.029,0.275,-5.337
0.094,0.029,0.274,-5.337
0.117,0.028,0.276,-5.337
0.142,0.028,0.280,-5.337
0.144,0.027,0.279,-5.337
0.119,0.030,0.276,-5.337
0.148,0.028,0.278,-5.337
0.186,0.027,0.281,-5.337
0.150,0.032,0.280,-5.337
0.113,0.031,0.276,-5.337
0.145,0.026,0.278,-5.337
0.220,0.024,0.277,-5.337
0.181,0.025,0.277,-5.337
0.123,0.027,0.277,-5.337
0.152,0.023,0.274,-5.337
0.226,0.018,0.269,-5.337
0.228,0.018,0.273,-5.337
0.207,0.019,0.274,-5.337
0.186,0.022,0.280,-5.337
0.204,0.021,0.282,-5.337
0.213,0.023,0.282,-5.337
0.208,0.025,0.279,-5.337
0.164,0.029,0.276,-5.337
0.183,0.023,0.276,-5.337
0.246,0.019,0.278,-5.337
0.192,0.022,0.277,-5.337
0.165,0.027,0.276,-5.337
0.171,0.030,0.274,-5.337
0.204,0.027,0.281,-5.337
0.226,0.021,0.283,-5.337
0.177,0.025,0.280,-5.337
0.196,0.024,0.277,-5.337
0.214,0.021,0.278,-5.337
0.169,0.020,0.276,-5.337
0.167,0.022,0.277,-5.337
0.116,0.027,0.281,-5.337
0.080,0.028,0.280,-5.337
0.096,0.027,0.275,-5.337
0.110,0.026,0.275,-5.337
0.099,0.028,0.277,-5.337
0.147,0.028,0.276,-5.337
0.180,0.029,0.277,-5.337
0.164,0.028,0.278,-5.337
0.184,0.031,0.274,-5.337
0.179,0.031,0.273,-5.337
0.161,0.030,0.278,-5.337
0.163,0.030,0.280,-5.337
0.200,0.032,0.276,-5.337
0.230,0.029,0.274,-5.337
0.228,0.033,0.276,-5.337
0.171,0.034,0.279,-5.337
0.131,0.034,0.278,-5.337
0.151,0.032,0.276,-5.337
0.216,0.030,0.275,-5.337
0.190,0.032,0.277,-5.337
0.153,0.035,0.279,-5.337
0.145,0.033,0.277,-5.337
0.182,0.034,0.277,-5.337
0.201,0.034,0.280,-5.337
0.180,0.035,0.279,-5.337
0.135,0.040,0.279,-5.337
0.118,0.044,0.276,-5.337
0.130,0.044,0.276,-5.337
0.222,0.039,0.277,-5.337
0.286,0.036,0.275,-5.337
0.247,0.035,0.276,-5.337
0.179,0.034,0.279,-5.337
0.145,0.035,0.275,-5.337
0.138,0.035,0.273,-5.337
0.190,0.034,0.273,-5.337
0.266,0.033,0.276,-5.337
0.290,0.035,0.276,-5.337
0.239,0.038,0.275,-5.337
0.181,0.037,0.277,-5.337
0.158,0.037,0.281,-5.337
0.207,0.037,0.281,-5.337
0.265,0.035,0.276,-5.337
0.212,0.035,0.274,-5.337
0.161,0.036,0.275,-5.337
0.157,0.038,0.275,-5.337
0.170,0.033,0.269,-5.337
0.183,0.035,0.267,-5.337
0.160,0.037,0.272,-5.337
0.222,0.035,0.282,-5.337
0.246,0.032,0.283,-5.337
0.252,0.031,0.283,-5.337
0.261,0.033,0.277,-5.337
0.178,0.037,0.276,-5.337
0.126,0.038,0.276,-5.337
0.187,0.040,0.276,-5.337
0.209,0.039,0.275,-5.337
0.222,0.041,0.275,-5.337
0.192,0.039,0.274,-5.337
0.191,0.040,0.276,-5.337
0.180,0.039,0.280,-5.337
0.170,0.037,0.282,-5.337
0.115,0.044,0.282,-5.337
0.101,0.045,0.280,-5.337
0.165,0.037,0.280,-5.337
0.234,0.031,0.277,-5.337
0.195,0.036,0.275,-5.337
0.133,0.039,0.276,-5.337
0.192,0.040,0.280,-5.337
0.248,0.040,0.279,-5.337
0.231,0.039,0.277,-5.337
0.167,0.043,0.279,-5.337
0.172,0.044,0.279,-5.337
0.237,0.037,0.273,-5.337
0.255,0.041,0.276,-5.337
0.194,0.041,0.280,-5.337
0.143,0.043,0.280,-5.337
0.119,0.046,0.279,-5.337
0.197,0.043,0.282,-5.337
0.242,0.043,0.285,-5.337
0.242,0.046,0.281,-5.337
0.219,0.047,0.277,-5.337
0.160,0.046,0.274,-5.337
0.175,0.042,0.276,-5.337
0.193,0.043,0.279,-5.337
0.140,0.046,0.283,-5.337
0.133,0.047,0.281,-5.337
0.146,0.046,0.278,-5.337
0.233,0.045,0.277,-5.337
0.239,0.048,0.278,-5.337
0.162,0.047,0.276,-5.337
0.114,0.047,0.277,-5.337
0.161,0.044,0.277,-5.337
0.210,0.044,0.278,-5.337
0.227,0.043,0.278,-5.337
0.221,0.043,0.279,-5.337
0.214,0.041,0.278,-5.337
0.257,0.042,0.278,-5.337
0.297,0.043,0.280,-5.337
0.260,0.042,0.281,-5.337
0.236,0.042,0.280,-5.337
0.224,0.045,0.280,-5.337
0.207,0.046,0.278,-5.337
0.249,0.043,0.278,-5.337
0.161,0.046,0.275,-5.337
0.094,0.046,0.272,-5.337
0.090,0.048,0.276,-5.337
0.109,0.049,0.282,-5.337
0.171,0.048,0.283,-5.337
0.219,0.045,0.279,-5.337
0.192,0.042,0.281,-5.337
0.241,0.040,0.280,-5.337
0.213,0.041,0.280,-5.337
0.148,0.042,0.276,-5.337
0.175,0.045,0.276,-5.337
0.231,0.045,0.277,-5.337
0.206,0.042,0.277,-5.337
0.215,0.042,0.273,-5.337
0.206,0.044,0.272,-5.337
0.259,0.044,0.276,-5.337
0.308,0.044,0.280,-5.337
0.296,0.042,0.281,-5.337
0.202,0.048,0.280,-5.337
0.119,0.049,0.280,-5.337
0.188,0.044,0.282,-5.337
0.267,0.045,0.281,-5.337
0.318,0.047,0.279,-5.337
0.309,0.046,0.279,-5.337
0.264,0.048,0.278,-5.337
0.260,0.051,0.276,-5.337
0.291,0.050,0.277,-5.337
0.247,0.050,0.277,-5.337
0.192,0.048,0.276,-5.337
0.184,0.047,0.276,-5.337
0.187,0.046,0.280,-5.337
0.218,0.047,0.283,-5.337
0.292,0.044,0.281,-5.337
0.306,0.048,0.280,-5.337
0.215,0.051,0.279,-5.337
0.181,0.052,0.276,-5.337
0.235,0.051,0.273,-5.337
0.165,0.052,0.275,-5.337
0.160,0.049,0.276,-5.337
0.220,0.046,0.278,-5.337
0.255,0.045,0.278,-5.337
0.283,0.046,0.280,-5.337
0.284,0.044,0.279,-5.337
0.276,0.043,0.279,-5.337
0.245,0.042,0.276,-5.337
0.286,0.044,0.270,-5.337
0.232,0.043,0.270,-5.337
0.172,0.044,0.274,-5.337
0.159,0.042,0.281,-5.337
0.228,0.041,0.285,-5.337
0.267,0.041,0.280,-5.337
0.270,0.042,0.274,-5.337
0.280,0.043,0.273,-5.337
0.270,0.045,0.275,-5.337
0.226,0.048,0.275,-5.337
0.220,0.048,0.278,-5.337
0.268,0.043,0.281,-5.337
0.230,0.043,0.279,-5.337
0.199,0.045,0.274,-5.337
0.260,0.043,0.272,-5.337
0.358,0.043,0.278,-5.337
0.365,0.042,0.281,-5.337
0.315,0.045,0.281,-5.337
0.177,0.047,0.277,-5.337
0.144,0.047,0.276,-5.337
0.221,0.042,0.273,-5.337
0.244,0.043,0.273,-5.337
0.193,0.046,0.274,-5.337
0.184,0.048,0.277,-5.337
0.177,0.049,0.278,-5.337
0.182,0.046,0.276,-5.337
0.268,0.046,0.277,-5.337
0.265,0.047,0.276,-5.337
0.240,0.046,0.276,-5.337
0.235,0.045,0.278,-5.337
0.267,0.045,0.281,-5.337
0.233,0.047,0.282,-5.337
0.231,0.047,0.282,-5.337
0.250,0.045,0.280,-5.337
0.277,0.044,0.276,-5.337
0.276,0.043,0.272,-5.337
0.258,0.044,0.276,-5.337
0.248,0.044,0.276,-5.337
0.240,0.042,0.273,-5.337
0.180,0.041,0.276,-5.337
0.141,0.043,0.281,-5.337
0.236,0.042,0.283,-5.337
0.329,0.043,0.281,-5.337
0.304,0.045,0.279,-5.337
0.244,0.045,0.280,-5.337
0.266,0.045,0.281,-5.337
0.274,0.048,0.279,-5.337
0.225,0.049,0.275,-5.337
0.223,0.048,0.273,-5.337
0.228,0.051,0.275,-5.337
0.256,0.052,0.278,-5.337
0.255,0.050,0.277,-5.337
0.215,0.048,0.275,-5.337
0.245,0.046,0.279,-5.337
0.244,0.048,0.281,-5.337
0.306,0.046,0.283,-5.337
0.282,0.043,0.282,-5.337
0.209,0.044,0.281,-5.337
0.232,0.045,0.279,-5.337
0.255,0.043,0.277,-5.337
0.299,0.043,0.275,-5.337
0.329,0.047,0.271,-5.337
0.288,0.050,0.269,-5.337
0.220,0.051,0.274,-5.337
0.222,0.047,0.278,-5.337
0.234,0.049,0.279,-5.337
0.226,0.050,0.278,-5.337
0.243,0.047,0.278,-5.337
0.258,0.044,0.276,-5.337
0.230,0.046,0.276,-5.337
0.250,0.048,0.280,-5.337
0.282,0.048,0.281,-5.337
0.297,0.045,0.277,-5.337
0.341,0.046,0.272,-5.337
0.318,0.042,0.273,-5.337
0.287,0.047,0.279,-5.337
0.263,0.048,0.284,-5.337
0.238,0.049,0.281,-5.337
0.217,0.050,0.278,-5.337
0.246,0.052,0.275,-5.337
0.244,0.053,0.277,-5.337
0.215,0.053,0.279,-5.337
0.271,0.048,0.280,-5.337
0.313,0.043,0.282,-5.337
0.264,0.048,0.278,-5.337
0.220,0.051,0.276,-5.337
0.178,0.052,0.275,-5.337
0.152,0.054,0.275,-5.337
0.206,0.053,0.278,-5.337
0.249,0.050,0.280,-5.337
0.274,0.049,0.281,-5.337
0.275,0.051,0.278,-5.337
0.245,0.052,0.273,-5.337
0.248,0.046,0.271,-5.337
0.290,0.044,0.272,-5.337
0.296,0.047,0.276,-5.337
0.285,0.048,0.277,-5.337
0.218,0.049,0.277,-5.337
0.198,0.049,0.277,-5.337
0.225,0.050,0.278,-5.337
0.243,0.049,0.277,-5.337
0.260,0.047,0.278,-5.337
0.222,0.047,0.276,-5.337
0.220,0.046,0.275,-5.337
0.267,0.048,0.276,-5.337
0.293,0.048,0.276,-5.337
0.286,0.045,0.276,-5.337
0.272,0.046,0.279,-5.337
0.240,0.050,0.278,-5.337
0.198,0.051,0.278,-5.337
0.257,0.048,0.280,-5.337
0.305,0.047,0.280,-5.337
0.239,0.050,0.277,-5.337
0.203,0.052,0.276,-5.337
0.210,0.052,0.277,-5.337
0.195,0.051,0.278,-5.337
0.166,0.048,0.280,-5.337
0.167,0.046,0.280,-5.337
0.137,0.048,0.279,-5.337
0.125,0.049,0.276,-5.337
0.165,0.047,0.277,-5.337
0.230,0.043,0.276,-5.337
0.237,0.045,0.277,-5.337
0.228,0.043,0.278,-5.337
0.232,0.042,0.278,-5.337
0.267,0.043,0.275,-5.337
0.242,0.042,0.275,-5.337
0.212,0.042,0.276,-5.337
0.234,0.044,0.279,-5.337
0.234,0.044,0.281,-5.337
0.217,0.044,0.281,-5.337
0.215,0.040,0.279,-5.337
0.205,0.040,0.278,-5.337
0.217,0.041,0.280,-5.337
0.226,0.044,0.280,-5.337
0.209,0.043,0.279,-5.337
0.143,0.044,0.274,-5.337
0.186,0.041,0.274,-5.337
0.213,0.044,0.272,-5.337
0.157,0.044,0.273,-5.337
0.155,0.043,0.273,-5.337
0.201,0.043,0.276,-5.337
0.258,0.047,0.277,-5.337
0.231,0.047,0.282,-5.337
0.177,0.044,0.282,-5.337
0.184,0.040,0.282,-5.337
0.233,0.042,0.283,-5.337
0.215,0.043,0.283,-5.337
0.134,0.041,0.279,-5.337
0.101,0.044,0.277,-5.337
0.140,0.044,0.276,-5.337
0.170,0.042,0.279,-5.337
0.205,0.038,0.280,-5.337
0.246,0.039,0.279,-5.337
0.196,0.042,0.277,-5.337
0.174,0.038,0.276,-5.337
0.218,0.039,0.275,-5.337
0.243,0.040,0.279,-5.337
0.272,0.038,0.277,-5.337
0.270,0.036,0.272,-5.337
0.218,0.040,0.272,-5.337
0.208,0.040,0.273,-5.337
0.249,0.038,0.276,-5.337
0.255,0.039,0.279,-5.337
0.271,0.042,0.281,-5.337
0.296,0.040,0.275,-5.337
0.260,0.040,0.275,-5.337
0.187,0.040,0.277,-5.337
0.170,0.042,0.280,-5.337
0.158,0.039,0.280,-5.337
0.178,0.037,0.278,-5.337
0.271,0.031,0.273,-5.337
0.235,0.035,0.272,-5.337
0.136,0.039,0.274,-5.337
0.139,0.039,0.275,-5.337
0.193,0.037,0.274,-5.337
0.181,0.037,0.277,-5.337
0.129,0.036,0.283,-5.337
0.225,0.034,0.284,-5.337
0.237,0.035,0.282,-5.337
0.144,0.037,0.281,-5.337
0.174,0.036,0.281,-5.337
0.189,0.037,0.280,-5.337
0.186,0.035,0.279,-5.337
0.184,0.035,0.278,-5.337
0.179,0.035,0.280,-5.337
0.198,0.038,0.280,-5.337
0.191,0.040,0.279,-5.337
0.222,0.040,0.274,-5.337
0.221,0.038,0.274,-5.337
0.163,0.037,0.279,-5.337
0.175,0.037,0.283,-5.337
0.151,0.038,0.277,-5.337
0.142,0.039,0.272,-5.337
0.187,0.034,0.273,-5.337
0.249,0.034,0.277,-5.337
0.237,0.033,0.278,-5.337
0.231,0.034,0.278,-5.337
0.237,0.029,0.279,-5.337
0.217,0.028,0.281,-5.337
0.175,0.031,0.280,-5.337
0.117,0.036,0.280,-5.337
0.129,0.032,0.277,-5.337
0.106,0.030,0.273,-5.337
0.107,0.032,0.274,-5.337
0.156,0.032,0.277,-5.337
0.146,0.030,0.282,-5.337
0.164,0.029,0.282,-5.337
0.164,0.030,0.280,-5.337
0.190,0.031,0.275,-5.337
0.208,0.033,0.275,-5.337
0.210,0.032,0.278,-5.337
0.188,0.032,0.283,-5.337
0.227,0.025,0.280,-5.337
0.290,0.025,0.277,-5.337
0.245,0.029,0.276,-5.337
0.160,0.036,0.280,-5.337
0.173,0.031,0.282,-5.337
0.238,0.032,0.281,-5.337
0.216,0.034,0.280,-5.337
0.163,0.038,0.279,-5.337
0.164,0.035,0.279,-5.337
0.205,0.036,0.280,-5.337
0.161,0.037,0.282,-5.337
0.137,0.039,0.284,-5.337
0.099,0.041,0.282,-5.337
0.112,0.038,0.280,-5.337
0.170,0.033,0.280,-5.337
0.285,0.033,0.278,-5.337
0.218,0.036,0.275,-5.337
0.130,0.035,0.272,-5.337
0.136,0.035,0.274,-5.337
0.160,0.038,0.274,-5.337
0.204,0.033,0.278,-5.337
0.247,0.032,0.276,-5.337
0.278,0.031,0.275,-5.337
0.233,0.034,0.277,-5.337
0.144,0.035,0.280,-5.337
0.164,0.034,0.279,-5.337
0.218,0.033,0.277,-5.337
0.165,0.033,0.277,-5.337
0.121,0.033,0.277,-5.337
0.131,0.034,0.274,-5.337
0.193,0.032,0.272,-5.337
0.172,0.031,0.276,-5.337
0.141,0.033,0.284,-5.337
0.215,0.032,0.284,-5.337
0.243,0.029,0.283,-5.337
0.173,0.031,0.281,-5.337
0.162,0.031,0.279,-5.337
0.223,0.034,0.279,-5.337
0.228,0.035,0.277,-5.337
0.203,0.031,0.276,-5.337
0.263,0.032,0.278,-5.337
0.266,0.034,0.280,-5.337
0.236,0.033,0.280,-5.337
0.181,0.036,0.275,-5.337
0.173,0.037,0.270,-5.337
0.219,0.034,0.272,-5.337
0.205,0.032,0.277,-5.337
0.183,0.035,0.279,-5.337
0.187,0.034,0.278,-5.337
0.248,0.032,0.273,-5.337
0.250,0.034,0.274,-5.337
0.233,0.034,0.279,-5.337
0.204,0.034,0.282,-5.337
0.201,0.034,0.280,-5.337
0.210,0.037,0.276,-5.337
0.220,0.037,0.273,-5.337
0.215,0.042,0.274,-5.337
0.181,0.042,0.276,-5.337
0.098,0.042,0.278,-5.337
0.122,0.039,0.279,-5.337
0.170,0.036,0.278,-5.337
0.187,0.035,0.276,-5.337
0.124,0.036,0.274,-5.337
0.053,0.038,0.273,-5.337
0.029,0.040,0.278,-5.337
0.090,0.037,0.279,-5.337
0.196,0.035,0.279,-5.337
0.199,0.035,0.279,-5.337
0.123,0.038,0.281,-5.337
0.127,0.036,0.280,-5.337
0.126,0.034,0.277,-5.337
0.135,0.032,0.277,-5.337
0.124,0.032,0.277,-5.337
0.088,0.032,0.280,-5.337
0.121,0.032,0.281,-5.337
0.180,0.030,0.277,-5.337
0.184,0.032,0.276,-5.337
0.160,0.033,0.279,-5.337
0.196,0.029,0.280,-5.337
0.254,0.028,0.280,-5.337
0.231,0.033,0.279,-5.337
0.199,0.031,0.277,-5.337
0.164,0.032,0.276,-5.337
0.183,0.030,0.279,-5.337
0.205,0.031,0.279,-5.337
0.164,0.031,0.279,-5.337
0.127,0.030,0.275,-5.337
0.113,0.032,0.275,-5.337
0.192,0.031,0.272,-5.337
0.275,0.033,0.272,-5.337
0.230,0.034,0.276,-5.337
0.165,0.035,0.281,-5.337
0.151,0.034,0.284,-5.337
0.164,0.031,0.284,-5.337
0.227,0.029,0.278,-5.337
0.286,0.029,0.274,-5.337
0.291,0.030,0.275,-5.337
0.237,0.031,0.278,-5.337
0.157,0.034,0.274,-5.337
0.135,0.035,0.274,-5.337
0.164,0.033,0.277,-5.337
0.168,0.035,0.282,-5.337
0.171,0.035,0.281,-5.337
0.169,0.032,0.275,-5.337
0.087,0.034,0.275,-5.337
0.074,0.034,0.274,-5.337
0.180,0.034,0.275,-5.337
0.213,0.033,0.276,-5.337
0.164,0.038,0.278,-5.337
0.150,0.035,0.278,-5.337
0.169,0.036,0.280,-5.337
0.156,0.034,0.281,-5.337
0.115,0.037,0.283,-5.337
0.128,0.038,0.278,-5.337
0.174,0.038,0.276,-5.337
0.208,0.035,0.275,-5.337
0.137,0.033,0.276,-5.337
0.127,0.029,0.279,-5.337
0.215,0.029,0.281,-5.337
0.227,0.031,0.278,-5.337
0.147,0.035,0.279,-5.337
0.092,0.038,0.280,-5.337
0.131,0.036,0.277,-5.337
0.240,0.030,0.274,-5.337
0.262,0.029,0.274,-5.337
0.235,0.028,0.272,-5.337
0.193,0.031,0.275,-5.337
0.178,0.032,0.279,-5.337
0.162,0.034,0.275,-5.337
0.165,0.035,0.277,-5.337
0.179,0.033,0.279,-5.337
0.231,0.030,0.279,-5.337
0.202,0.032,0.277,-5.337
0.136,0.034,0.277,-5.337
0.130,0.033,0.278,-5.337
0.138,0.036,0.278,-5.337
0.172,0.032,0.274,-5.337
0.202,0.029,0.276,-5.337
0.192,0.027,0.277,-5.337
0.172,0.030,0.280,-5.337
0.143,0.034,0.279,-5.337
0.105,0.034,0.276,-5.337
0.159,0.033,0.275,-5.337
0.120,0.032,0.277,-5.337
0.119,0.030,0.279,-5.337
0.178,0.033,0.278,-5.337
0.161,0.037,0.275,-5.337
0.166,0.037,0.276,-5.337
0.161,0.036,0.277,-5.337
0.152,0.033,0.275,-5.337
0.178,0.034,0.276,-5.337
0.215,0.032,0.275,-5.337
0.284,0.029,0.273,-5.337
0.312,0.032,0.275,-5.337
0.251,0.038,0.280,-5.337
0.132,0.039,0.280,-5.337
0.130,0.038,0.279,-5.337
0.233,0.036,0.274,-5.337
0.225,0.034,0.275,-5.337
0.185,0.037,0.275,-5.337
0.101,0.043,0.276,-5.337
0.108,0.042,0.280,-5.337
0.165,0.040,0.281,-5.337
0.139,0.039,0.277,-5.337
0.086,0.038,0.273,-5.337
0.112,0.038,0.272,-5.337
0.160,0.039,0.277,-5.337
0.214,0.036,0.282,-5.337
0.231,0.039,0.283,-5.337
0.151,0.044,0.281,-5.337
0.096,0.043,0.279,-5.337
0.127,0.039,0.278,-5.337
0.216,0.039,0.275,-5.337
0.223,0.040,0.274,-5.337
0.150,0.041,0.271,-5.337
0.164,0.038,0.270,-5.337
0.175,0.035,0.270,-5.337
0.158,0.037,0.277,-5.337
0.167,0.043,0.281,-5.337
0.187,0.044,0.281,-5.337
0.259,0.038,0.277,-5.337
0.249,0.035,0.280,-5.337
0.219,0.042,0.280,-5.337
0.221,0.044,0.277,-5.337
0.203,0.039,0.279,-5.337
0.185,0.041,0.281,-5.337
0.202,0.042,0.279,-5.337
0.230,0.039,0.277,-5.337
0.213,0.040,0.275,-5.337
0.209,0.038,0.275,-5.337
0.218,0.037,0.275,-5.337
0.259,0.043,0.276,-5.337
0.282,0.045,0.280,-5.337
0.225,0.043,0.283,-5.337
0.179,0.045,0.280,-5.337
0.190,0.045,0.275,-5.337
0.186,0.048,0.276,-5.337
0.214,0.047,0.277,-5.337
0.219,0.044,0.280,-5.337
0.231,0.044,0.277,-5.337
0.232,0.043,0.276,-5.337
0.183,0.047,0.274,-5.337
0.194,0.045,0.273,-5.337
0.221,0.045,0.271,-5.337
0.261,0.048,0.274,-5.337
0.258,0.046,0.278,-5.337
0.184,0.048,0.280,-5.337
0.171,0.046,0.280,-5.337
0.220,0.047,0.282,-5.337
0.272,0.045,0.283,-5.337
0.249,0.046,0.282,-5.337
0.170,0.049,0.280,-5.337
0.139,0.049,0.276,-5.337
0.117,0.050,0.272,-5.337
0.157,0.048,0.272,-5.337
0.252,0.044,0.277,-5.337
0.238,0.042,0.279,-5.337
0.285,0.040,0.280,-5.337
0.276,0.041,0.275,-5.337
0.185,0.047,0.273,-5.337
0.127,0.049,0.274,-5.337
0.133,0.050,0.277,-5.337
0.185,0.047,0.276,-5.337
0.241,0.045,0.272,-5.337
0.264,0.043,0.277,-5.337
0.247,0.041,0.283,-5.337
0.220,0.041,0.285,-5.337
0.190,0.041,0.284,-5.337
0.178,0.044,0.277,-5.337
0.235,0.045,0.274,-5.337
0.329,0.043,0.272,-5.337
0.262,0.048,0.274,-5.337
0.210,0.049,0.275,-5.337
0.197,0.049,0.280,-5.337
0.214,0.048,0.283,-5.337
0.223,0.048,0.283,-5.337
0.255,0.044,0.282,-5.337
0.209,0.046,0.278,-5.337
0.165,0.046,0.279,-5.337
0.162,0.046,0.277,-5.337
0.217,0.045,0.274,-5.337
0.252,0.046,0.274,-5.337
0.290,0.044,0.277,-5.337
0.229,0.045,0.277,-5.337
0.185,0.047,0.276,-5.337
0.167,0.044,0.277,-5.337
0.275,0.043,0.280,-5.337
0.392,0.041,0.280,-5.337
0.304,0.045,0.279,-5.337
0.181,0.045,0.280,-5.337
0.198,0.043,0.281,-5.337
0.263,0.042,0.279,-5.337
0.305,0.040,0.277,-5.337
0.341,0.041,0.278,-5.337
0.247,0.046,0.279,-5.337
0.181,0.049,0.280,-5.337
0.183,0.046,0.275,-5.337
0.218,0.047,0.273,-5.337
0.225,0.053,0.275,-5.337
0.242,0.051,0.278,-5.337
0.224,0.050,0.277,-5.337
0.183,0.050,0.280,-5.337
0.228,0.047,0.284,-5.337
0.284,0.047,0.285,-5.337
0.281,0.045,0.280,-5.337
0.282,0.046,0.276,-5.337
0.270,0.045,0.273,-5.337
0.281,0.046,0.277,-5.337
0.218,0.048,0.277,-5.337
0.243,0.046,0.278,-5.337
0.242,0.044,0.278,-5.337
0.254,0.048,0.278,-5.337
0.263,0.050,0.278,-5.337
0.186,0.052,0.279,-5.337
0.181,0.051,0.281,-5.337
0.217,0.046,0.281,-5.337
0.234,0.046,0.279,-5.337
0.140,0.055,0.278,-5.337
0.112,0.056,0.284,-5.337
0.131,0.053,0.286,-5.337
0.229,0.051,0.284,-5.337
0.258,0.053,0.280,-5.337
0.205,0.054,0.278,-5.337
0.192,0.052,0.275,-5.337
0.147,0.055,0.273,-5.337
0.146,0.053,0.275,-5.337
0.254,0.049,0.279,-5.337
0.260,0.049,0.279,-5.337
0.250,0.051,0.279,-5.337
0.234,0.050,0.277,-5.337
0.195,0.053,0.281,-5.337
0.212,0.053,0.279,-5.337
0.190,0.055,0.274,-5.337
0.202,0.052,0.272,-5.337
0.220,0.055,0.277,-5.337
0.196,0.053,0.281,-5.337
0.167,0.057,0.282,-5.337
0.200,0.055,0.276,-5.337
0.237,0.052,0.273,-5.337
0.283,0.048,0.272,-5.337
0.279,0.047,0.276,-5.337
0.216,0.048,0.279,-5.337
0.194,0.053,0.280,-5.337
0.218,0.054,0.279,-5.337
0.294,0.053,0.278,-5.337
0.351,0.052,0.279,-5.337
0.328,0.050,0.279,-5.337
0.309,0.047,0.280,-5.337
0.349,0.045,0.277,-5.337
0.329,0.048,0.278,-5.337
0.254,0.055,0.277,-5.337
0.169,0.058,0.280,-5.337
0.184,0.054,0.281,-5.337
0.265,0.051,0.281,-5.337
0.299,0.048,0.280,-5.337
0.288,0.049,0.281,-5.337
0.296,0.049,0.279,-5.337
0.300,0.048,0.276,-5.337
0.279,0.049,0.272,-5.337
0.223,0.054,0.273,-5.337
0.157,0.054,0.273,-5.337
0.122,0.054,0.275,-5.337
0.167,0.054,0.278,-5.337
0.255,0.052,0.282,-5.337
0.305,0.054,0.281,-5.337
0.340,0.054,0.279,-5.337
0.287,0.051,0.278,-5.337
0.280,0.050,0.279,-5.337
0.253,0.052,0.282,-5.337
0.216,0.055,0.280,-5.337
0.211,0.055,0.279,-5.337
0.226,0.053,0.277,-5.337
0.255,0.053,0.277,-5.337
0.306,0.053,0.276,-5.337
0.319,0.055,0.277,-5.337
0.262,0.057,0.278,-5.337
0.240,0.062,0.276,-5.337
0.210,0.062,0.273,-5.337
0.213,0.063,0.276,-5.337
0.196,0.058,0.278,-5.337
0.224,0.055,0.280,-5.337
0.241,0.056,0.279,-5.337
0.208,0.055,0.276,-5.337
0.231,0.057,0.278,-5.337
0.289,0.057,0.281,-5.337
0.280,0.055,0.283,-5.337
0.238,0.054,0.282,-5.337
0.213,0.055,0.280,-5.337
0.264,0.058,0.279,-5.337
0.262,0.059,0.281,-5.337
0.174,0.063,0.278,-5.337
0.215,0.060,0.278,-5.337
0.245,0.057,0.276,-5.337
0.174,0.057,0.275,-5.337
0.174,0.053,0.276,-5.337
0.197,0.052,0.280,-5.337
0.242,0.051,0.279,-5.337
0.225,0.055,0.278,-5.337
0.247,0.052,0.277,-5.337
0.268,0.051,0.278,-5.337
0.233,0.052,0.280,-5.337
0.253,0.050,0.281,-5.337
0.275,0.051,0.278,-5.337
0.303,0.051,0.279,-5.337
0.361,0.047,0.282,-5.337
0.377,0.047,0.282,-5.337
0.321,0.051,0.276,-5.337
0.273,0.053,0.270,-5.337
0.273,0.056,0.272,-5.337
0.271,0.053,0.278,-5.337
0.253,0.051,0.284,-5.337
0.248,0.051,0.282,-5.337
0.290,0.051,0.277,-5.337
0.219,0.051,0.274,-5.337
0.223,0.049,0.279,-5.337
0.201,0.051,0.278,-5.337
0.187,0.057,0.278,-5.337
0.180,0.055,0.280,-5.337
0.179,0.053,0.283,-5.337
0.249,0.048,0.283,-5.337
0.290,0.050,0.283,-5.337
0.256,0.053,0.279,-5.337
0.232,0.053,0.275,-5.337
0.232,0.053,0.272,-5.337
0.241,0.055,0.273,-5.337
0.229,0.055,0.274,-5.337
0.219,0.054,0.279,-5.337
0.226,0.054,0.284,-5.337
0.248,0.057,0.281,-5.337
0.230,0.058,0.279,-5.337
0.172,0.060,0.278,-5.337
0.196,0.058,0.278,-5.337
0.244,0.057,0.279,-5.337
0.237,0.057,0.280,-5.337
0.231,0.058,0.278,-5.337
0.233,0.057,0.280,-5.337
0.260,0.056,0.279,-5.337
0.288,0.056,0.280,-5.337
0.261,0.056,0.279,-5.337
0.206,0.056,0.278,-5.337
0.187,0.055,0.277,-5.337
0.227,0.051,0.276,-5.337
0.270,0.050,0.272,-5.337
0.273,0.052,0.270,-5.337
0.215,0.054,0.273,-5.337
0.192,0.052,0.278,-5.337
0.189,0.051,0.277,-5.337
0.184,0.052,0.276,-5.337
0.229,0.048,0.277,-5.337
0.273,0.045,0.276,-5.337
0.301,0.044,0.273,-5.337
0.312,0.045,0.277,-5.337
0.266,0.051,0.281,-5.337
0.174,0.051,0.277,-5.337
0.213,0.047,0.273,-5.337
0.234,0.046,0.276,-5.337
0.256,0.044,0.283,-5.337
0.264,0.045,0.284,-5.337
0.271,0.042,0.281,-5.337
0.253,0.041,0.280,-5.337
0.239,0.044,0.278,-5.337
0.190,0.044,0.276,-5.337
0.172,0.044,0.278,-5.337
0.175,0.044,0.279,-5.337
0.252,0.044,0.277,-5.337
0.278,0.043,0.276,-5.337
0.222,0.047,0.277,-5.337
0.228,0.045,0.278,-5.337
0.208,0.048,0.277,-5.337
0.231,0.046,0.277,-5.337
0.244,0.047,0.278,-5.337
0.208,0.047,0.281,-5.337
0.202,0.045,0.282,-5.337
0.238,0.046,0.280,-5.337
0.217,0.046,0.279,-5.337
0.246,0.044,0.278,-5.337
0.242,0.042,0.277,-5.337
0.201,0.042,0.281,-5.337
0.186,0.042,0.283,-5.337
0.208,0.042,0.279,-5.337
0.236,0.043,0.274,-5.337
0.264,0.043,0.273,-5.337
0.307,0.044,0.273,-5.337
0.273,0.045,0.277,-5.337
0.195,0.048,0.276,-5.337
0.121,0.049,0.275,-5.337
0.170,0.045,0.277,-5.337
0.287,0.041,0.280,-5.337
0.305,0.039,0.284,-5.337
0.252,0.040,0.287,-5.337
0.199,0.040,0.287,-5.337
0.197,0.041,0.281,-5.337
0.205,0.041,0.275,-5.337
0.193,0.042,0.272,-5.337
0.222,0.042,0.277,-5.337
0.286,0.045,0.285,-5.337
0.215,0.044,0.285,-5.337
0.152,0.042,0.282,-5.337
0.158,0.042,0.283,-5.337
0.111,0.044,0.281,-5.337
0.092,0.036,0.281,-5.337
0.211,0.031,0.281,-5.337
0.244,0.035,0.284,-5.337
0.166,0.040,0.285,-5.337
0.174,0.041,0.281,-5.337
0.209,0.041,0.275,-5.337
0.166,0.044,0.275,-5.337
0.136,0.040,0.277,-5.337
0.158,0.039,0.274,-5.337
0.188,0.043,0.274,-5.337
0.235,0.042,0.277,-5.337
0.235,0.038,0.280,-5.337
0.243,0.039,0.278,-5.337
0.257,0.042,0.276,-5.337
0.255,0.042,0.279,-5.337
0.259,0.041,0.280,-5.337
0.224,0.041,0.277,-5.337
0.194,0.042,0.275,-5.337
0.185,0.041,0.277,-5.337
0.190,0.041,0.279,-5.337
0.146,0.040,0.277,-5.337
0.130,0.038,0.279,-5.337
0.187,0.035,0.278,-5.337
0.198,0.039,0.277,-5.337
0.183,0.041,0.277,-5.337
0.255,0.038,0.279,-5.337
0.251,0.041,0.277,-5.337
0.220,0.041,0.277,-5.337
0.261,0.039,0.277,-5.337
0.243,0.042,0.277,-5.337
0.133,0.043,0.278,-5.337
0.037,0.042,0.281,-5.337
0.108,0.036,0.282,-5.337
0.153,0.038,0.279,-5.337
0.171,0.038,0.277,-5.337
0.155,0.036,0.280,-5.337
0.141,0.034,0.280,-5.337
0.201,0.035,0.280,-5.337
0.210,0.037,0.275,-5.337
0.144,0.040,0.272,-5.337
0.137,0.041,0.274,-5.337
0.172,0.038,0.277,-5.337
0.154,0.040,0.280,-5.337
0.112,0.038,0.279,-5.337
0.182,0.038,0.280,-5.337
0.219,0.037,0.279,-5.337
0.184,0.036,0.282,-5.337
0.159,0.035,0.281,-5.337
0.227,0.033,0.276,-5.337
0.294,0.034,0.271,-5.337
0.206,0.039,0.275,-5.337
0.151,0.038,0.278,-5.337
0.167,0.037,0.282,-5.337
0.216,0.035,0.284,-5.337
0.232,0.038,0.282,-5.337
0.225,0.035,0.279,-5.337
0.246,0.035,0.277,-5.337
0.202,0.036,0.279,-5.337
0.139,0.036,0.280,-5.337
0.099,0.036,0.277,-5.337
0.154,0.033,0.276,-5.337
0.192,0.035,0.279,-5.337
0.204,0.036,0.282,-5.337
0.251,0.032,0.280,-5.337
0.231,0.028,0.276,-5.337
0.173,0.031,0.277,-5.337
0.182,0.033,0.276,-5.337
0.277,0.028,0.277,-5.337
0.293,0.031,0.277,-5.337
0.216,0.034,0.282,-5.337
0.191,0.035,0.283,-5.337
0.242,0.034,0.280,-5.337
0.171,0.037,0.278,-5.337
0.122,0.039,0.278,-5.337
0.174,0.037,0.281,-5.337
0.181,0.037,0.281,-5.337
0.153,0.036,0.282,-5.337
0.185,0.034,0.284,-5.337
0.169,0.033,0.280,-5.337
0.083,0.036,0.275,-5.337
0.059,0.034,0.275,-5.337
0.104,0.032,0.279,-5.337
0.153,0.032,0.282,-5.337
0.193,0.036,0.283,-5.337
0.195,0.037,0.281,-5.337
0.163,0.037,0.279,-5.337
0.186,0.037,0.278,-5.337
0.160,0.039,0.279,-5.337
0.125,0.039,0.283,-5.337
0.129,0.036,0.280,-5.337
0.156,0.037,0.278,-5.337
0.162,0.036,0.276,-5.337
0.189,0.033,0.278,-5.337
0.183,0.033,0.279,-5.337
0.211,0.036,0.283,-5.337
0.200,0.038,0.283,-5.337
0.183,0.036,0.281,-5.337
0.137,0.034,0.280,-5.337
0.094,0.035,0.281,-5.337
0.178,0.035,0.280,-5.337
0.151,0.037,0.277,-5.337
0.119,0.040,0.274,-5.337
0.158,0.039,0.273,-5.337
0.188,0.040,0.274,-5.337
0.199,0.038,0.279,-5.337
0.201,0.037,0.278,-5.337
0.209,0.034,0.278,-5.337
0.303,0.032,0.279,-5.337
0.247,0.034,0.282,-5.337
0.148,0.039,0.285,-5.337
0.134,0.038,0.279,-5.337
0.136,0.036,0.275,-5.337
0.178,0.034,0.275,-5.337
0.230,0.035,0.276,-5.337
0.211,0.037,0.277,-5.337
0.176,0.041,0.279,-5.337
0.102,0.041,0.279,-5.337
0.095,0.039,0.279,-5.337
0.125,0.036,0.276,-5.337
0.180,0.039,0.274,-5.337
0.107,0.042,0.273,-5.337
0.136,0.044,0.277,-5.337
0.149,0.041,0.278,-5.337
0.137,0.044,0.280,-5.337
0.106,0.040,0.276,-5.337
0.146,0.039,0.276,-5.337
0.204,0.039,0.280,-5.337
0.201,0.038,0.280,-5.337
0.192,0.037,0.281,-5.337
0.208,0.035,0.281,-5.337
0.189,0.035,0.280,-5.337
0.187,0.035,0.278,-5.337
0.172,0.038,0.279,-5.337
0.148,0.040,0.279,-5.337
0.181,0.038,0.281,-5.337
0.192,0.036,0.281,-5.337
0.206,0.035,0.282,-5.337
0.172,0.038,0.281,-5.337
0.099,0.041,0.279,-5.337
0.116,0.042,0.276,-5.337
0.123,0.039,0.275,-5.337
0.184,0.039,0.275,-5.337
0.227,0.038,0.277,-5.337
0.262,0.036,0.279,-5.337
0.206,0.036,0.278,-5.337
0.170,0.036,0.276,-5.337
0.182,0.035,0.273,-5.337
0.183,0.034,0.274,-5.337
0.177,0.033,0.279,-5.337
0.157,0.034,0.280,-5.337
0.162,0.034,0.280,-5.337
0.181,0.037,0.277,-5.337
0.160,0.037,0.276,-5.337
0.122,0.036,0.280,-5.337
0.176,0.035,0.282,-5.337
