[Parameters]
Operating Mode, Feedback
Subject  AA..ZZ, WT
Session  0..99, 43
No. Trials (1..9999), 500
Mouse Number, 1
Pressure Probe Serial Port, \00\00\00\04COM4
Save additional csv file, TRUE
Save using mouse number, FALSE
A/D Monitor Rate (Hz), 30000.000000
A/D Stimulate Rate (Hz), 30000.000000
A/D input range (+/- V), 5
No. Channels to acquire (N), 2
Pre-Stim Acq. time (ms), 100.000000
Post-Stim Acq. time (ms), 900.000000
Analysis window parameters.M-response Start (ms), 1.100000
Analysis window parameters.M-response Duration (ms), 5.500000
Analysis window parameters.H-response Duration (ms), 6.000000
Analysis window parameters.H-response Start (ms), 6.500000
Feedback window, H response
Proportional gain, 0.100000
Target value, 6.700000
Feedback Ch., 1
Stim Channel to Control (1-4), 4
Trial, 32
Wait for EMG Conditions, FALSE
Channel to monitor (0 - N-1), 1
EMG Hi Limit, 2.000000
EMG Lo Limit, 0.001000
Inter-Stim delay (sec), 10.000000
EMG Monitor Mode, Mean
Time to run Long Stim.(sec), 30
Save Long Stim Data?, OFF
BURST Save time (ms), 1000
BURST Save Interval (x above), 10
Long-Stim. Rep. Rate (Hz), 10.000000
Stim type cluster array.<size(s)>, 4
Stim type cluster array 0.Stimulus Output, Electrical
Stim type cluster array 1.Stimulus Output, OFF
Stim type cluster array 2.Stimulus Output, OFF
Stim type cluster array 3.Stimulus Output, Motor Length
Stim specs cluster array.<size(s)>, 4
Stim specs cluster array 0.Initial Stimulus ampl., 0.300000
Stim specs cluster array 0.Maximum Stimulus, 1.120000
Stim specs cluster array 0.#Pulses in train, 4
Stim specs cluster array 0.Peak Level time (ms), 1.000000
Stim specs cluster array 0.Total pulse period (ms), 150.000000
Stim specs cluster array 0.Start Delay (ms), -50.000000
Stim specs cluster array 0.Pulse Shape, Square
Stim specs cluster array 0.Ramp/Rel. time (ms), 0.100000
Stim specs cluster array 0.Peak Amplitude (V), 0.120000
Stim specs cluster array 1.Initial Stimulus ampl., 0.000000
Stim specs cluster array 1.Maximum Stimulus, 0.000000
Stim specs cluster array 1.#Pulses in train, 3
Stim specs cluster array 1.Peak Level time (ms), 29.000000
Stim specs cluster array 1.Total pulse period (ms), 200.000000
Stim specs cluster array 1.Start Delay (ms), 0.000000
Stim specs cluster array 1.Pulse Shape, Square
Stim specs cluster array 1.Ramp/Rel. time (ms), 0.000000
Stim specs cluster array 1.Peak Amplitude (V), 2.000000
Stim specs cluster array 2.Initial Stimulus ampl., 0.000000
Stim specs cluster array 2.Maximum Stimulus, 0.000000
Stim specs cluster array 2.#Pulses in train, 1
Stim specs cluster array 2.Peak Level time (ms), 25.000000
Stim specs cluster array 2.Total pulse period (ms), 200.000000
Stim specs cluster array 2.Start Delay (ms), 0.000000
Stim specs cluster array 2.Pulse Shape, Square
Stim specs cluster array 2.Ramp/Rel. time (ms), 20.000000
Stim specs cluster array 2.Peak Amplitude (V), 10.000000
Stim specs cluster array 3.Initial Stimulus ampl., 0.000000
Stim specs cluster array 3.Maximum Stimulus, 20.000000
Stim specs cluster array 3.#Pulses in train, 25
Stim specs cluster array 3.Peak Level time (ms), 0.100000
Stim specs cluster array 3.Total pulse period (ms), 4.000000
Stim specs cluster array 3.Start Delay (ms), 205.000000
Stim specs cluster array 3.Pulse Shape, Triangle
Stim specs cluster array 3.Ramp/Rel. time (ms), 3.000000
Stim specs cluster array 3.Peak Amplitude (V), 0.500000
Force cal. (mN/Volt), 100.000000
Force Range (mN), 100.000000
Length cal. (mm/Volt), 10.000000
Length Range (mm), 10.000000
Stim. 1, 0.300000
Stim. 2, 0.000000
Stim. 3, 0.000000
Stim. 4, 0.000000
Monitor acquire time (ms), 100.000000
EMG graph Ymax, 0.100000
Travel limit (mm), 20.000000
Use Pressure Probe, FALSE
Pressure goal (g), 100
Speed (mm/sec), 5.000000
Dwell time (ms), 100.000000
Pressure limit (g), 500.000000
Channel amplitude offset, 0.000000

[DATA]

0.204,0.053,0.314,-5.337
0.174,0.054,0.311,-5.337
0.148,0.054,0.307,-5.337
0.163,0.049,0.305,-5.337
0.204,0.048,0.309,-5.337
0.221,0.047,0.312,-5.337
0.275,0.046,0.312,-5.337
0.226,0.047,0.313,-5.337
0.135,0.049,0.312,-5.337
0.145,0.046,0.310,-5.337
0.142,0.048,0.309,-5.337
0.143,0.048,0.311,-5.337
0.213,0.044,0.310,-5.337
0.273,0.040,0.310,-5.337
0.289,0.039,0.313,-5.337
0.206,0.041,0.309,-5.337
0.145,0.045,0.305,-5.337
0.118,0.046,0.303,-5.337
0.147,0.046,0.304,-5.337
0.222,0.043,0.310,-5.337
0.190,0.046,0.310,-5.337
0.069,0.048,0.308,-5.337
0.104,0.045,0.308,-5.337
0.181,0.045,0.308,-5.337
0.248,0.043,0.310,-5.337
0.202,0.047,0.314,-5.337
0.160,0.043,0.316,-5.337
0.166,0.042,0.314,-5.337
0.246,0.044,0.310,-5.337
0.302,0.046,0.310,-5.337
0.203,0.050,0.312,-5.337
0.094,0.050,0.311,-5.337
0.092,0.048,0.307,-5.337
0.185,0.044,0.304,-5.337
0.239,0.042,0.307,-5.337
0.235,0.040,0.311,-5.337
0.178,0.040,0.310,-5.337
0.152,0.041,0.309,-5.337
0.242,0.037,0.311,-5.337
0.262,0.040,0.309,-5.337
0.249,0.035,0.310,-5.337
0.169,0.037,0.313,-5.337
0.148,0.038,0.313,-5.337
0.118,0.039,0.309,-5.337
0.137,0.040,0.312,-5.337
0.184,0.043,0.312,-5.337
0.252,0.042,0.312,-5.337
0.296,0.042,0.306,-5.337
0.270,0.045,0.304,-5.337
0.242,0.047,0.304,-5.337
0.175,0.045,0.307,-5.337
0.142,0.042,0.308,-5.337
0.125,0.043,0.309,-5.337
0.102,0.045,0.309,-5.337
0.050,0.046,0.310,-5.337
0.001,0.045,0.312,-5.337
0.025,0.047,0.312,-5.337
0.056,0.046,0.307,-5.337
0.128,0.040,0.306,-5.337
0.226,0.036,0.307,-5.337
0.244,0.036,0.307,-5.337
0.193,0.040,0.306,-5.337
0.178,0.043,0.306,-5.337
0.147,0.042,0.308,-5.337
0.186,0.044,0.310,-5.337
0.209,0.046,0.310,-5.337
0.202,0.042,0.310,-5.337
0.144,0.041,0.310,-5.337
0.125,0.039,0.310,-5.337
0.154,0.038,0.310,-5.337
0.192,0.040,0.309,-5.337
0.249,0.039,0.310,-5.337
0.186,0.040,0.309,-5.337
0.161,0.037,0.308,-5.337
0.184,0.036,0.306,-5.337
0.184,0.039,0.307,-5.337
0.219,0.038,0.305,-5.337
0.208,0.039,0.308,-5.337
0.148,0.040,0.310,-5.337
0.109,0.040,0.309,-5.337
0.083,0.042,0.308,-5.337
0.092,0.041,0.307,-5.337
0.182,0.038,0.311,-5.337
0.228,0.040,0.314,-5.337
0.181,0.041,0.312,-5.337
0.167,0.039,0.310,-5.337
0.113,0.039,0.307,-5.337
0.080,0.039,0.305,-5.337
0.106,0.040,0.306,-5.337
0.149,0.040,0.310,-5.337
0.191,0.041,0.315,-5.337
0.147,0.044,0.316,-5.337
0.128,0.042,0.311,-5.337
0.137,0.038,0.308,-5.337
0.159,0.034,0.308,-5.337
0.213,0.034,0.306,-5.337
0.210,0.035,0.310,-5.337
0.189,0.035,0.312,-5.337
0.190,0.038,0.311,-5.337
0.225,0.037,0.306,-5.337
0.224,0.040,0.307,-5.337
0.226,0.036,0.310,-5.337
0.234,0.034,0.313,-5.337
0.171,0.033,0.306,-5.337
0.151,0.035,0.301,-5.337
0.157,0.037,0.303,-5.337
0.100,0.037,0.302,-5.337
0.203,0.036,0.306,-5.337
0.255,0.039,0.313,-5.337
0.223,0.042,0.312,-5.337
0.187,0.041,0.308,-5.337
0.179,0.040,0.307,-5.337
0.205,0.035,0.308,-5.337
0.214,0.034,0.309,-5.337
0.168,0.034,0.313,-5.337
0.151,0.034,0.312,-5.337
0.172,0.034,0.308,-5.337
0.212,0.036,0.309,-5.337
0.189,0.035,0.306,-5.337
0.171,0.034,0.306,-5.337
0.217,0.032,0.306,-5.337
0.211,0.032,0.308,-5.337
0.227,0.030,0.308,-5.337
0.235,0.034,0.311,-5.337
0.201,0.033,0.313,-5.337
0.190,0.036,0.312,-5.337
0.234,0.034,0.309,-5.337
0.151,0.034,0.309,-5.337
0.077,0.036,0.309,-5.337
0.047,0.039,0.308,-5.337
0.114,0.033,0.306,-5.337
0.211,0.033,0.309,-5.337
0.208,0.034,0.311,-5.337
0.093,0.035,0.311,-5.337
0.063,0.034,0.307,-5.337
0.132,0.033,0.306,-5.337
0.186,0.032,0.311,-5.337
0.190,0.031,0.311,-5.337
0.248,0.028,0.310,-5.337
0.265,0.029,0.308,-5.337
0.246,0.031,0.308,-5.337
0.252,0.030,0.308,-5.337
0.265,0.035,0.306,-5.337
0.161,0.034,0.304,-5.337
0.062,0.034,0.305,-5.337
0.099,0.030,0.308,-5.337
0.179,0.032,0.309,-5.337
0.201,0.034,0.312,-5.337
0.228,0.036,0.308,-5.337
0.197,0.036,0.306,-5.337
0.161,0.034,0.311,-5.337
0.138,0.034,0.313,-5.337
0.155,0.033,0.310,-5.337
0.183,0.035,0.306,-5.337
0.110,0.036,0.309,-5.337
0.108,0.035,0.308,-5.337
0.174,0.033,0.307,-5.337
0.195,0.032,0.306,-5.337
0.178,0.031,0.307,-5.337
0.117,0.034,0.309,-5.337
0.134,0.034,0.307,-5.337
0.143,0.038,0.308,-5.337
0.124,0.039,0.313,-5.337
0.185,0.035,0.314,-5.337
0.212,0.032,0.311,-5.337
0.191,0.035,0.308,-5.337
0.165,0.037,0.308,-5.337
0.169,0.042,0.307,-5.337
0.147,0.037,0.306,-5.337
0.080,0.034,0.307,-5.337
0.134,0.034,0.306,-5.337
0.223,0.032,0.307,-5.337
0.238,0.030,0.310,-5.337
0.199,0.034,0.315,-5.337
0.218,0.031,0.313,-5.337
0.219,0.032,0.309,-5.337
0.207,0.032,0.306,-5.337
0.220,0.033,0.307,-5.337
0.156,0.036,0.312,-5.337
0.083,0.040,0.311,-5.337
0.069,0.039,0.308,-5.337
0.110,0.038,0.308,-5.337
0.085,0.038,0.310,-5.337
0.053,0.037,0.311,-5.337
0.103,0.034,0.315,-5.337
0.136,0.036,0.312,-5.337
0.072,0.042,0.309,-5.337
0.104,0.039,0.309,-5.337
0.171,0.037,0.311,-5.337
0.200,0.036,0.308,-5.337
0.201,0.038,0.307,-5.337
0.231,0.034,0.307,-5.337
0.167,0.035,0.306,-5.337
0.157,0.035,0.306,-5.337
0.194,0.036,0.308,-5.337
0.204,0.033,0.310,-5.337
0.218,0.032,0.310,-5.337
0.190,0.035,0.310,-5.337
0.172,0.037,0.308,-5.337
0.246,0.037,0.307,-5.337
0.259,0.036,0.307,-5.337
0.212,0.036,0.303,-5.337
0.214,0.039,0.306,-5.337
0.195,0.040,0.310,-5.337
0.169,0.040,0.310,-5.337
0.155,0.039,0.308,-5.337
0.109,0.040,0.309,-5.337
0.097,0.038,0.311,-5.337
0.115,0.041,0.311,-5.337
0.089,0.043,0.310,-5.337
0.176,0.040,0.305,-5.337
0.253,0.039,0.303,-5.337
0.198,0.038,0.302,-5.337
0.165,0.037,0.306,-5.337
0.151,0.035,0.306,-5.337
0.044,0.036,0.307,-5.337
0.109,0.033,0.307,-5.337
0.207,0.033,0.304,-5.337
0.198,0.035,0.304,-5.337
0.128,0.037,0.307,-5.337
0.126,0.035,0.310,-5.337
0.170,0.035,0.311,-5.337
0.159,0.038,0.310,-5.337
0.137,0.038,0.309,-5.337
0.160,0.037,0.306,-5.337
0.173,0.038,0.303,-5.337
0.132,0.041,0.307,-5.337
0.104,0.042,0.314,-5.337
0.117,0.042,0.315,-5.337
0.196,0.042,0.313,-5.337
0.172,0.046,0.310,-5.337
0.124,0.047,0.307,-5.337
0.125,0.046,0.307,-5.337
0.148,0.046,0.304,-5.337
0.175,0.046,0.303,-5.337
0.184,0.044,0.302,-5.337
0.191,0.043,0.309,-5.337
0.186,0.041,0.308,-5.337
0.219,0.042,0.303,-5.337
0.210,0.044,0.302,-5.337
0.102,0.050,0.305,-5.337
0.078,0.047,0.308,-5.337
0.183,0.045,0.311,-5.337
0.255,0.037,0.313,-5.337
0.257,0.036,0.310,-5.337
0.244,0.037,0.307,-5.337
0.232,0.037,0.311,-5.337
0.195,0.040,0.314,-5.337
0.203,0.039,0.310,-5.337
0.216,0.039,0.303,-5.337
0.215,0.041,0.305,-5.337
0.219,0.040,0.308,-5.337
0.241,0.040,0.310,-5.337
0.219,0.043,0.313,-5.337
0.127,0.045,0.308,-5.337
0.117,0.047,0.304,-5.337
0.172,0.043,0.303,-5.337
0.190,0.043,0.301,-5.337
0.193,0.040,0.304,-5.337
0.165,0.042,0.312,-5.337
0.199,0.044,0.314,-5.337
0.192,0.046,0.309,-5.337
0.108,0.046,0.305,-5.337
0.071,0.046,0.305,-5.337
0.127,0.044,0.306,-5.337
0.190,0.044,0.307,-5.337
0.158,0.048,0.307,-5.337
0.149,0.048,0.306,-5.337
0.156,0.044,0.304,-5.337
0.180,0.045,0.307,-5.337
0.125,0.051,0.309,-5.337
0.099,0.053,0.309,-5.337
0.103,0.052,0.310,-5.337
0.111,0.052,0.307,-5.337
0.172,0.050,0.305,-5.337
0.227,0.051,0.308,-5.337
0.231,0.051,0.311,-5.337
0.260,0.048,0.310,-5.337
0.268,0.049,0.310,-5.337
0.203,0.050,0.306,-5.337
0.170,0.050,0.307,-5.337
0.158,0.050,0.305,-5.337
0.147,0.050,0.307,-5.337
0.174,0.048,0.306,-5.337
0.162,0.049,0.303,-5.337
0.139,0.047,0.300,-5.337
0.173,0.046,0.302,-5.337
0.207,0.048,0.305,-5.337
0.185,0.049,0.307,-5.337
0.201,0.047,0.309,-5.337
0.231,0.047,0.309,-5.337
0.269,0.048,0.305,-5.337
0.217,0.048,0.304,-5.337
0.155,0.050,0.307,-5.337
0.169,0.049,0.308,-5.337
0.172,0.051,0.311,-5.337
0.114,0.053,0.310,-5.337
0.146,0.051,0.307,-5.337
0.194,0.054,0.306,-5.337
0.170,0.053,0.308,-5.337
0.150,0.051,0.306,-5.337
0.149,0.056,0.306,-5.337
0.160,0.058,0.305,-5.337
0.191,0.054,0.305,-5.337
0.241,0.048,0.302,-5.337
0.225,0.053,0.307,-5.337
0.154,0.059,0.311,-5.337
0.100,0.059,0.309,-5.337
0.139,0.054,0.307,-5.337
0.182,0.053,0.311,-5.337
0.222,0.055,0.309,-5.337
0.213,0.054,0.308,-5.337
0.230,0.054,0.306,-5.337
0.185,0.058,0.304,-5.337
0.149,0.057,0.304,-5.337
0.165,0.060,0.308,-5.337
0.214,0.058,0.310,-5.337
0.203,0.054,0.308,-5.337
0.170,0.055,0.307,-5.337
0.126,0.058,0.305,-5.337
0.142,0.055,0.307,-5.337
0.178,0.055,0.309,-5.337
0.197,0.054,0.306,-5.337
0.231,0.052,0.302,-5.337
0.215,0.054,0.302,-5.337
0.194,0.056,0.302,-5.337
0.154,0.059,0.302,-5.337
0.179,0.058,0.305,-5.337
0.222,0.054,0.311,-5.337
0.161,0.056,0.312,-5.337
0.111,0.056,0.308,-5.337
0.147,0.053,0.306,-5.337
0.228,0.053,0.309,-5.337
0.191,0.056,0.312,-5.337
0.170,0.056,0.314,-5.337
0.188,0.053,0.312,-5.337
0.243,0.052,0.312,-5.337
0.232,0.053,0.308,-5.337
0.222,0.052,0.306,-5.337
0.226,0.052,0.305,-5.337
0.212,0.054,0.305,-5.337
0.176,0.053,0.305,-5.337
0.143,0.054,0.306,-5.337
0.200,0.055,0.308,-5.337
0.262,0.051,0.308,-5.337
0.203,0.055,0.310,-5.337
0.133,0.058,0.308,-5.337
0.155,0.058,0.306,-5.337
0.189,0.055,0.306,-5.337
0.224,0.051,0.305,-5.337
0.250,0.048,0.303,-5.337
0.218,0.054,0.305,-5.337
0.131,0.055,0.311,-5.337
0.136,0.054,0.310,-5.337
0.188,0.053,0.305,-5.337
0.194,0.055,0.306,-5.337
0.175,0.057,0.311,-5.337
0.123,0.060,0.315,-5.337
0.135,0.059,0.312,-5.337
0.181,0.056,0.310,-5.337
0.160,0.056,0.310,-5.337
0.111,0.059,0.308,-5.337
0.147,0.055,0.305,-5.337
0.224,0.053,0.305,-5.337
0.213,0.056,0.308,-5.337
0.090,0.060,0.311,-5.337
0.077,0.057,0.310,-5.337
0.139,0.053,0.308,-5.337
0.178,0.053,0.311,-5.337
0.156,0.054,0.310,-5.337
0.195,0.053,0.308,-5.337
0.187,0.054,0.307,-5.337
0.210,0.052,0.313,-5.337
0.256,0.053,0.316,-5.337
0.214,0.056,0.314,-5.337
0.170,0.057,0.308,-5.337
0.177,0.057,0.306,-5.337
0.178,0.059,0.307,-5.337
0.213,0.057,0.308,-5.337
0.174,0.062,0.305,-5.337
0.092,0.064,0.308,-5.337
0.093,0.059,0.309,-5.337
0.139,0.058,0.306,-5.337
0.229,0.057,0.306,-5.337
0.213,0.063,0.307,-5.337
0.228,0.061,0.308,-5.337
0.213,0.060,0.310,-5.337
0.287,0.056,0.312,-5.337
0.283,0.054,0.312,-5.337
0.300,0.050,0.312,-5.337
0.264,0.054,0.310,-5.337
0.196,0.057,0.306,-5.337
0.191,0.057,0.306,-5.337
0.216,0.059,0.307,-5.337
0.184,0.061,0.305,-5.337
0.188,0.062,0.305,-5.337
0.295,0.060,0.306,-5.337
0.287,0.059,0.306,-5.337
0.315,0.057,0.305,-5.337
0.269,0.060,0.304,-5.337
0.173,0.058,0.306,-5.337
0.098,0.060,0.308,-5.337
0.103,0.059,0.308,-5.337
0.142,0.063,0.311,-5.337
0.193,0.061,0.311,-5.337
0.227,0.062,0.310,-5.337
0.197,0.063,0.308,-5.337
0.120,0.065,0.307,-5.337
0.131,0.062,0.306,-5.337
0.147,0.062,0.308,-5.337
0.085,0.060,0.306,-5.337
0.091,0.061,0.303,-5.337
0.171,0.060,0.305,-5.337
0.257,0.061,0.306,-5.337
0.287,0.057,0.305,-5.337
0.284,0.059,0.305,-5.337
0.250,0.059,0.307,-5.337
0.226,0.062,0.307,-5.337
0.233,0.064,0.309,-5.337
0.291,0.061,0.311,-5.337
0.272,0.061,0.307,-5.337
0.221,0.059,0.305,-5.337
0.212,0.062,0.304,-5.337
0.168,0.063,0.302,-5.337
0.152,0.060,0.307,-5.337
0.190,0.058,0.310,-5.337
0.175,0.060,0.310,-5.337
0.203,0.060,0.307,-5.337
0.226,0.057,0.306,-5.337
0.181,0.057,0.302,-5.337
0.199,0.057,0.300,-5.337
0.183,0.062,0.302,-5.337
0.141,0.064,0.300,-5.337
0.138,0.063,0.301,-5.337
0.200,0.061,0.307,-5.337
0.186,0.064,0.310,-5.337
0.163,0.064,0.308,-5.337
0.173,0.061,0.307,-5.337
0.250,0.057,0.305,-5.337
0.272,0.058,0.307,-5.337
0.220,0.059,0.307,-5.337
0.180,0.062,0.304,-5.337
0.186,0.056,0.302,-5.337
0.268,0.056,0.305,-5.337
0.282,0.054,0.306,-5.337
0.254,0.057,0.306,-5.337
0.233,0.056,0.307,-5.337
0.234,0.056,0.310,-5.337
0.193,0.056,0.308,-5.337
0.153,0.054,0.307,-5.337
0.137,0.053,0.306,-5.337
0.184,0.053,0.306,-5.337
0.227,0.052,0.306,-5.337
0.304,0.054,0.305,-5.337
0.300,0.055,0.303,-5.337
0.255,0.056,0.306,-5.337
0.191,0.052,0.310,-5.337
0.165,0.049,0.309,-5.337
0.186,0.050,0.306,-5.337
0.173,0.053,0.303,-5.337
0.177,0.050,0.303,-5.337
0.219,0.048,0.304,-5.337
0.186,0.054,0.303,-5.337
0.117,0.055,0.302,-5.337
0.164,0.051,0.305,-5.337
0.151,0.049,0.305,-5.337
0.125,0.052,0.304,-5.337
0.155,0.051,0.304,-5.337
0.174,0.050,0.306,-5.337
0.138,0.048,0.305,-5.337
0.167,0.045,0.304,-5.337
0.153,0.048,0.303,-5.337
0.160,0.050,0.303,-5.337
0.218,0.048,0.302,-5.337
0.232,0.045,0.305,-5.337
0.270,0.045,0.307,-5.337
0.259,0.047,0.304,-5.337
0.201,0.048,0.305,-5.337
0.177,0.048,0.308,-5.337
0.152,0.051,0.310,-5.337
0.159,0.050,0.306,-5.337
0.234,0.048,0.303,-5.337
0.317,0.047,0.301,-5.337
0.297,0.048,0.303,-5.337
0.232,0.049,0.302,-5.337
0.179,0.050,0.302,-5.337
0.164,0.046,0.302,-5.337
0.124,0.048,0.306,-5.337
0.144,0.049,0.307,-5.337
0.157,0.051,0.303,-5.337
0.186,0.048,0.298,-5.337
0.226,0.050,0.299,-5.337
0.248,0.048,0.301,-5.337
0.252,0.049,0.303,-5.337
0.203,0.050,0.303,-5.337
0.168,0.051,0.302,-5.337
0.154,0.050,0.302,-5.337
0.105,0.049,0.306,-5.337
0.131,0.045,0.308,-5.337
0.218,0.046,0.308,-5.337
0.269,0.049,0.309,-5.337
0.236,0.049,0.309,-5.337
0.178,0.047,0.305,-5.337
0.177,0.046,0.298,-5.337
0.161,0.047,0.297,-5.337
0.126,0.046,0.300,-5.337
0.125,0.044,0.303,-5.337
0.218,0.044,0.305,-5.337
0.250,0.045,0.308,-5.337
0.262,0.043,0.306,-5.337
0.297,0.041,0.305,-5.337
0.203,0.042,0.305,-5.337
0.163,0.043,0.302,-5.337
0.179,0.041,0.300,-5.337
0.148,0.042,0.302,-5.337
0.115,0.044,0.304,-5.337
0.140,0.046,0.306,-5.337
0.125,0.046,0.307,-5.337
0.150,0.045,0.304,-5.337
0.178,0.045,0.299,-5.337
0.188,0.046,0.297,-5.337
0.191,0.044,0.301,-5.337
0.181,0.045,0.305,-5.337
0.156,0.044,0.307,-5.337
0.130,0.045,0.305,-5.337
0.203,0.043,0.307,-5.337
0.236,0.043,0.305,-5.337
0.184,0.049,0.306,-5.337
0.202,0.045,0.305,-5.337
0.236,0.044,0.305,-5.337
0.202,0.042,0.302,-5.337
0.242,0.042,0.303,-5.337
0.229,0.043,0.303,-5.337
0.234,0.044,0.301,-5.337
0.190,0.046,0.299,-5.337
0.198,0.048,0.301,-5.337
0.245,0.046,0.304,-5.337
0.225,0.046,0.308,-5.337
0.184,0.046,0.307,-5.337
0.193,0.045,0.307,-5.337
0.139,0.043,0.306,-5.337
0.097,0.044,0.308,-5.337
0.125,0.045,0.306,-5.337
0.138,0.045,0.304,-5.337
0.167,0.045,0.305,-5.337
0.163,0.045,0.303,-5.337
0.135,0.046,0.303,-5.337
0.153,0.045,0.304,-5.337
0.189,0.042,0.307,-5.337
0.168,0.040,0.303,-5.337
0.192,0.039,0.299,-5.337
0.179,0.041,0.301,-5.337
0.193,0.040,0.305,-5.337
0.204,0.040,0.304,-5.337
0.173,0.044,0.304,-5.337
0.143,0.043,0.305,-5.337
0.146,0.042,0.301,-5.337
0.161,0.039,0.298,-5.337
0.180,0.038,0.301,-5.337
0.162,0.039,0.303,-5.337
0.247,0.039,0.303,-5.337
0.280,0.038,0.303,-5.337
0.233,0.038,0.305,-5.337
0.230,0.036,0.309,-5.337
0.178,0.039,0.307,-5.337
0.140,0.039,0.305,-5.337
0.131,0.038,0.303,-5.337
0.155,0.036,0.300,-5.337
0.154,0.040,0.296,-5.337
0.163,0.039,0.296,-5.337
0.231,0.036,0.302,-5.337
0.243,0.034,0.305,-5.337
0.272,0.035,0.304,-5.337
0.228,0.037,0.303,-5.337
0.114,0.040,0.303,-5.337
0.146,0.038,0.305,-5.337
0.169,0.039,0.304,-5.337
0.175,0.037,0.306,-5.337
0.178,0.037,0.306,-5.337
0.175,0.038,0.306,-5.337
0.172,0.039,0.300,-5.337
0.182,0.040,0.298,-5.337
0.141,0.040,0.300,-5.337
0.139,0.038,0.302,-5.337
0.181,0.033,0.305,-5.337
0.176,0.037,0.306,-5.337
0.138,0.036,0.303,-5.337
0.209,0.033,0.298,-5.337
0.216,0.034,0.297,-5.337
0.180,0.035,0.299,-5.337
0.177,0.035,0.300,-5.337
0.182,0.037,0.298,-5.337
0.187,0.036,0.302,-5.337
0.189,0.038,0.302,-5.337
0.154,0.039,0.305,-5.337
0.119,0.041,0.308,-5.337
0.136,0.041,0.308,-5.337
0.171,0.039,0.304,-5.337
0.153,0.040,0.298,-5.337
0.140,0.038,0.297,-5.337
0.136,0.037,0.300,-5.337
0.169,0.034,0.302,-5.337
0.208,0.036,0.305,-5.337
0.205,0.039,0.305,-5.337
0.142,0.039,0.304,-5.337
0.123,0.037,0.300,-5.337
0.146,0.037,0.299,-5.337
0.120,0.036,0.302,-5.337
0.123,0.037,0.307,-5.337
0.140,0.034,0.309,-5.337
0.153,0.033,0.307,-5.337
0.213,0.035,0.303,-5.337
0.187,0.033,0.300,-5.337
0.151,0.038,0.299,-5.337
0.092,0.038,0.301,-5.337
0.141,0.039,0.304,-5.337
0.171,0.037,0.305,-5.337
0.203,0.036,0.305,-5.337
0.203,0.035,0.305,-5.337
0.175,0.034,0.306,-5.337
0.158,0.035,0.305,-5.337
0.179,0.030,0.303,-5.337
0.181,0.031,0.300,-5.337
0.190,0.034,0.301,-5.337
0.194,0.039,0.298,-5.337
0.167,0.036,0.295,-5.337
0.202,0.034,0.299,-5.337
0.221,0.032,0.302,-5.337
0.224,0.033,0.304,-5.337
0.178,0.037,0.309,-5.337
0.139,0.036,0.313,-5.337
0.155,0.037,0.310,-5.337
0.136,0.035,0.304,-5.337
0.172,0.032,0.301,-5.337
0.214,0.031,0.297,-5.337
0.197,0.033,0.299,-5.337
0.158,0.033,0.303,-5.337
0.218,0.030,0.305,-5.337
0.244,0.031,0.305,-5.337
0.185,0.034,0.303,-5.337
0.119,0.038,0.302,-5.337
0.105,0.038,0.299,-5.337
0.136,0.033,0.299,-5.337
0.256,0.030,0.302,-5.337
0.268,0.032,0.309,-5.337
0.255,0.029,0.311,-5.337
0.230,0.027,0.314,-5.337
0.187,0.028,0.311,-5.337
0.204,0.027,0.308,-5.337
0.228,0.026,0.305,-5.337
0.201,0.028,0.302,-5.337
0.182,0.025,0.304,-5.337
0.174,0.026,0.306,-5.337
0.146,0.027,0.305,-5.337
0.201,0.026,0.302,-5.337
0.233,0.025,0.301,-5.337
0.193,0.027,0.300,-5.337
0.122,0.032,0.298,-5.337
0.103,0.031,0.304,-5.337
0.202,0.030,0.304,-5.337
0.181,0.031,0.304,-5.337
0.088,0.033,0.301,-5.337
0.096,0.030,0.301,-5.337
0.200,0.027,0.303,-5.337
0.208,0.028,0.302,-5.337
0.140,0.028,0.304,-5.337
0.150,0.027,0.301,-5.337
0.170,0.027,0.302,-5.337
0.191,0.025,0.303,-5.337
0.178,0.028,0.301,-5.337
0.175,0.029,0.302,-5.337
0.243,0.032,0.304,-5.337
0.222,0.032,0.305,-5.337
0.158,0.032,0.306,-5.337
0.139,0.031,0.307,-5.337
0.167,0.030,0.305,-5.337
0.148,0.028,0.303,-5.337
0.120,0.032,0.302,-5.337
0.067,0.033,0.301,-5.337
0.137,0.029,0.306,-5.337
0.167,0.028,0.309,-5.337
0.175,0.028,0.307,-5.337
0.150,0.030,0.306,-5.337
0.142,0.031,0.305,-5.337
0.178,0.028,0.304,-5.337
0.193,0.026,0.300,-5.337
0.146,0.030,0.299,-5.337
0.131,0.029,0.301,-5.337
0.175,0.029,0.306,-5.337
0.225,0.031,0.308,-5.337
0.245,0.035,0.312,-5.337
0.243,0.033,0.309,-5.337
0.228,0.028,0.305,-5.337
0.235,0.028,0.298,-5.337
0.193,0.034,0.298,-5.337
0.182,0.033,0.300,-5.337
0.210,0.031,0.300,-5.337
0.212,0.031,0.302,-5.337
0.208,0.032,0.302,-5.337
0.170,0.036,0.303,-5.337
0.173,0.036,0.305,-5.337
0.177,0.035,0.308,-5.337
0.205,0.033,0.309,-5.337
0.238,0.028,0.310,-5.337
0.192,0.029,0.305,-5.337
0.162,0.033,0.299,-5.337
0.155,0.035,0.299,-5.337
0.154,0.037,0.302,-5.337
0.156,0.039,0.303,-5.337
0.093,0.040,0.305,-5.337
0.059,0.038,0.306,-5.337
0.107,0.039,0.305,-5.337
0.142,0.037,0.305,-5.337
0.191,0.037,0.305,-5.337
0.223,0.038,0.302,-5.337
0.191,0.041,0.306,-5.337
0.291,0.038,0.307,-5.337
0.248,0.039,0.305,-5.337
0.101,0.044,0.301,-5.337
0.057,0.044,0.302,-5.337
0.154,0.037,0.305,-5.337
0.261,0.033,0.309,-5.337
0.227,0.035,0.309,-5.337
0.113,0.039,0.305,-5.337
0.057,0.038,0.303,-5.337
0.109,0.035,0.304,-5.337
0.179,0.036,0.309,-5.337
0.136,0.041,0.311,-5.337
0.114,0.039,0.307,-5.337
0.182,0.034,0.304,-5.337
0.183,0.033,0.298,-5.337
0.170,0.037,0.298,-5.337
0.199,0.039,0.301,-5.337
0.241,0.039,0.303,-5.337
0.220,0.038,0.304,-5.337
0.144,0.037,0.306,-5.337
0.119,0.037,0.309,-5.337
0.100,0.040,0.309,-5.337
0.089,0.042,0.307,-5.337
0.104,0.038,0.305,-5.337
0.151,0.036,0.307,-5.337
0.134,0.039,0.303,-5.337
0.069,0.044,0.297,-5.337
0.075,0.042,0.297,-5.337
0.130,0.040,0.302,-5.337
0.161,0.043,0.306,-5.337
0.168,0.046,0.309,-5.337
0.213,0.042,0.309,-5.337
0.231,0.042,0.305,-5.337
0.168,0.043,0.303,-5.337
0.147,0.040,0.305,-5.337
0.208,0.037,0.300,-5.337
0.255,0.037,0.300,-5.337
0.239,0.039,0.303,-5.337
0.153,0.043,0.304,-5.337
0.155,0.044,0.302,-5.337
0.226,0.040,0.301,-5.337
0.308,0.042,0.302,-5.337
0.304,0.045,0.305,-5.337
0.293,0.043,0.305,-5.337
0.233,0.046,0.303,-5.337
0.167,0.048,0.302,-5.337
0.213,0.049,0.300,-5.337
0.265,0.046,0.304,-5.337
0.257,0.046,0.306,-5.337
0.208,0.047,0.308,-5.337
0.191,0.044,0.310,-5.337
0.196,0.043,0.306,-5.337
0.183,0.047,0.305,-5.337
0.119,0.050,0.301,-5.337
0.142,0.047,0.302,-5.337
0.130,0.045,0.307,-5.337
0.090,0.045,0.307,-5.337
0.142,0.044,0.303,-5.337
0.160,0.045,0.302,-5.337
0.173,0.048,0.302,-5.337
0.141,0.049,0.303,-5.337
0.109,0.050,0.305,-5.337
0.135,0.048,0.305,-5.337
0.154,0.050,0.304,-5.337
0.193,0.049,0.306,-5.337
0.241,0.045,0.305,-5.337
0.248,0.042,0.303,-5.337
0.152,0.047,0.301,-5.337
0.112,0.045,0.299,-5.337
0.181,0.042,0.298,-5.337
0.161,0.045,0.305,-5.337
0.166,0.046,0.307,-5.337
0.164,0.045,0.308,-5.337
0.138,0.046,0.308,-5.337
0.139,0.049,0.305,-5.337
0.198,0.044,0.298,-5.337
0.259,0.046,0.298,-5.337
0.217,0.047,0.299,-5.337
0.208,0.045,0.302,-5.337
0.249,0.043,0.306,-5.337
0.290,0.044,0.309,-5.337
0.228,0.044,0.308,-5.337
0.231,0.043,0.310,-5.337
0.271,0.043,0.309,-5.337
0.215,0.043,0.306,-5.337
0.165,0.042,0.304,-5.337
0.148,0.043,0.301,-5.337
0.165,0.044,0.300,-5.337
0.221,0.043,0.303,-5.337
0.231,0.045,0.307,-5.337
0.283,0.045,0.307,-5.337
0.305,0.043,0.306,-5.337
0.239,0.044,0.304,-5.337
0.193,0.046,0.300,-5.337
0.190,0.048,0.298,-5.337
0.215,0.048,0.301,-5.337
0.220,0.047,0.306,-5.337
0.209,0.046,0.309,-5.337
0.245,0.048,0.308,-5.337
0.287,0.051,0.304,-5.337
0.260,0.053,0.302,-5.337
0.201,0.054,0.302,-5.337
0.177,0.055,0.304,-5.337
0.159,0.052,0.306,-5.337
0.144,0.051,0.305,-5.337
0.178,0.048,0.303,-5.337
0.232,0.047,0.305,-5.337
0.249,0.046,0.305,-5.337
0.241,0.044,0.305,-5.337
0.221,0.045,0.303,-5.337
0.240,0.048,0.304,-5.337
0.222,0.052,0.302,-5.337
0.205,0.051,0.304,-5.337
0.224,0.049,0.306,-5.337
0.262,0.048,0.308,-5.337
0.245,0.042,0.310,-5.337
0.215,0.046,0.310,-5.337
0.205,0.046,0.305,-5.337
0.201,0.049,0.301,-5.337
0.190,0.049,0.303,-5.337
0.226,0.048,0.302,-5.337
0.264,0.045,0.300,-5.337
0.239,0.049,0.301,-5.337
0.217,0.049,0.303,-5.337
0.218,0.049,0.304,-5.337
0.200,0.048,0.301,-5.337
0.194,0.051,0.298,-5.337
0.175,0.052,0.298,-5.337
0.215,0.054,0.303,-5.337
0.243,0.052,0.305,-5.337
0.244,0.050,0.303,-5.337
0.255,0.048,0.305,-5.337
0.159,0.049,0.305,-5.337
0.109,0.051,0.302,-5.337
0.174,0.051,0.300,-5.337
0.220,0.054,0.303,-5.337
0.215,0.055,0.307,-5.337
0.170,0.056,0.308,-5.337
0.187,0.054,0.306,-5.337
0.257,0.054,0.303,-5.337
0.251,0.053,0.302,-5.337
0.156,0.056,0.301,-5.337
0.152,0.055,0.299,-5.337
0.214,0.054,0.298,-5.337
0.200,0.054,0.298,-5.337
0.179,0.052,0.303,-5.337
0.235,0.051,0.305,-5.337
0.263,0.053,0.303,-5.337
0.287,0.052,0.302,-5.337
0.262,0.051,0.301,-5.337
0.229,0.051,0.303,-5.337
0.256,0.052,0.306,-5.337
0.215,0.053,0.311,-5.337
0.202,0.054,0.310,-5.337
0.176,0.057,0.307,-5.337
0.139,0.055,0.304,-5.337
0.171,0.054,0.308,-5.337
0.177,0.054,0.310,-5.337
0.195,0.054,0.309,-5.337
0.207,0.055,0.305,-5.337
0.186,0.061,0.302,-5.337
0.143,0.062,0.300,-5.337
0.155,0.058,0.301,-5.337
0.206,0.053,0.301,-5.337
0.252,0.054,0.301,-5.337
0.204,0.055,0.302,-5.337
0.150,0.055,0.304,-5.337
0.177,0.052,0.303,-5.337
0.275,0.052,0.302,-5.337
0.266,0.055,0.305,-5.337
0.186,0.060,0.304,-5.337
0.167,0.057,0.300,-5.337
0.187,0.059,0.302,-5.337
0.164,0.060,0.307,-5.337
0.168,0.059,0.305,-5.337
0.242,0.056,0.303,-5.337
0.296,0.056,0.304,-5.337
0.189,0.060,0.307,-5.337
0.087,0.057,0.307,-5.337
0.144,0.055,0.308,-5.337
0.175,0.056,0.304,-5.337
0.196,0.060,0.301,-5.337
0.193,0.058,0.300,-5.337
0.200,0.059,0.305,-5.337
0.195,0.059,0.306,-5.337
0.166,0.057,0.306,-5.337
0.169,0.056,0.303,-5.337
0.262,0.057,0.305,-5.337
0.200,0.057,0.305,-5.337
0.191,0.057,0.304,-5.337
0.219,0.055,0.304,-5.337
0.231,0.057,0.306,-5.337
0.195,0.059,0.308,-5.337
0.202,0.058,0.306,-5.337
0.205,0.057,0.305,-5.337
0.191,0.062,0.306,-5.337
0.149,0.061,0.306,-5.337
0.167,0.058,0.307,-5.337
0.165,0.059,0.306,-5.337
0.221,0.058,0.304,-5.337
0.267,0.058,0.302,-5.337
0.223,0.056,0.300,-5.337
0.206,0.056,0.302,-5.337
0.261,0.056,0.301,-5.337
0.310,0.053,0.301,-5.337
0.299,0.056,0.301,-5.337
0.276,0.057,0.308,-5.337
0.249,0.057,0.310,-5.337
0.178,0.060,0.311,-5.337
0.187,0.054,0.310,-5.337
0.253,0.054,0.307,-5.337
0.243,0.056,0.304,-5.337
0.238,0.057,0.305,-5.337
0.221,0.056,0.305,-5.337
0.251,0.058,0.305,-5.337
0.215,0.060,0.304,-5.337
0.205,0.056,0.303,-5.337
0.181,0.058,0.299,-5.337
0.171,0.056,0.300,-5.337
0.260,0.054,0.305,-5.337
0.328,0.058,0.309,-5.337
0.283,0.058,0.307,-5.337
0.243,0.053,0.305,-5.337
0.192,0.055,0.302,-5.337
0.135,0.057,0.300,-5.337
0.094,0.059,0.303,-5.337
0.135,0.058,0.305,-5.337
0.208,0.054,0.306,-5.337
0.242,0.057,0.307,-5.337
0.206,0.060,0.307,-5.337
0.167,0.060,0.305,-5.337
0.194,0.059,0.304,-5.337
0.271,0.054,0.304,-5.337
0.268,0.058,0.304,-5.337
0.201,0.060,0.300,-5.337
0.242,0.060,0.298,-5.337
0.263,0.057,0.300,-5.337
0.236,0.054,0.302,-5.337
0.233,0.052,0.303,-5.337
0.268,0.051,0.304,-5.337
0.278,0.055,0.306,-5.337
0.210,0.054,0.310,-5.337
0.233,0.046,0.309,-5.337
0.231,0.046,0.304,-5.337
0.249,0.047,0.303,-5.337
0.238,0.044,0.301,-5.337
0.301,0.043,0.301,-5.337
0.284,0.046,0.301,-5.337
0.177,0.052,0.301,-5.337
0.161,0.051,0.306,-5.337
0.143,0.052,0.308,-5.337
0.119,0.048,0.304,-5.337
0.190,0.048,0.303,-5.337
0.218,0.048,0.302,-5.337
0.170,0.050,0.303,-5.337
0.211,0.049,0.306,-5.337
0.199,0.050,0.308,-5.337
0.194,0.048,0.309,-5.337
0.164,0.050,0.307,-5.337
0.148,0.052,0.305,-5.337
0.149,0.050,0.305,-5.337
0.163,0.051,0.307,-5.337
0.188,0.048,0.307,-5.337
0.197,0.049,0.307,-5.337
0.135,0.050,0.308,-5.337
0.164,0.045,0.305,-5.337
0.182,0.044,0.303,-5.337
0.156,0.045,0.304,-5.337
0.178,0.041,0.303,-5.337
0.246,0.040,0.304,-5.337
0.264,0.042,0.304,-5.337
0.288,0.042,0.303,-5.337
0.227,0.037,0.301,-5.337
0.184,0.039,0.301,-5.337
0.246,0.038,0.304,-5.337
0.280,0.040,0.309,-5.337
0.263,0.039,0.306,-5.337
0.214,0.044,0.308,-5.337
0.188,0.043,0.303,-5.337
0.206,0.043,0.301,-5.337
0.224,0.044,0.304,-5.337
0.218,0.044,0.308,-5.337
0.243,0.040,0.306,-5.337
0.258,0.043,0.303,-5.337
0.215,0.048,0.301,-5.337
0.129,0.047,0.304,-5.337
0.153,0.044,0.305,-5.337
0.194,0.045,0.305,-5.337
0.241,0.046,0.305,-5.337
0.221,0.045,0.305,-5.337
0.215,0.045,0.305,-5.337
0.173,0.044,0.307,-5.337
0.187,0.042,0.310,-5.337
0.245,0.041,0.309,-5.337
0.178,0.047,0.306,-5.337
0.168,0.044,0.302,-5.337
0.226,0.038,0.302,-5.337
0.265,0.039,0.303,-5.337
0.251,0.039,0.305,-5.337
0.237,0.037,0.305,-5.337
0.201,0.040,0.302,-5.337
0.242,0.043,0.297,-5.337
0.253,0.041,0.297,-5.337
0.228,0.038,0.302,-5.337
0.186,0.037,0.305,-5.337
0.160,0.038,0.305,-5.337
0.235,0.037,0.302,-5.337
0.250,0.034,0.300,-5.337
0.165,0.038,0.303,-5.337
0.134,0.038,0.304,-5.337
0.181,0.034,0.303,-5.337
0.200,0.036,0.303,-5.337
0.169,0.036,0.301,-5.337
0.099,0.035,0.303,-5.337
0.140,0.032,0.308,-5.337
0.179,0.033,0.308,-5.337
0.203,0.029,0.303,-5.337
0.175,0.030,0.304,-5.337
0.149,0.031,0.306,-5.337
0.193,0.032,0.303,-5.337
0.218,0.035,0.301,-5.337
0.240,0.037,0.302,-5.337
0.257,0.036,0.301,-5.337
0.208,0.037,0.306,-5.337
0.139,0.037,0.307,-5.337
0.070,0.038,0.307,-5.337
0.068,0.038,0.305,-5.337
0.144,0.037,0.303,-5.337
0.212,0.033,0.302,-5.337
0.228,0.033,0.303,-5.337
0.288,0.034,0.306,-5.337
0.255,0.035,0.309,-5.337
0.160,0.036,0.306,-5.337
0.175,0.036,0.305,-5.337
0.130,0.037,0.304,-5.337
0.158,0.037,0.303,-5.337
0.151,0.037,0.303,-5.337
0.158,0.038,0.305,-5.337
0.205,0.037,0.308,-5.337
0.183,0.038,0.303,-5.337
0.181,0.041,0.302,-5.337
0.234,0.037,0.303,-5.337
0.230,0.035,0.306,-5.337
0.227,0.030,0.303,-5.337
0.216,0.033,0.303,-5.337
0.214,0.030,0.303,-5.337
0.202,0.031,0.300,-5.337
0.145,0.034,0.301,-5.337
0.178,0.036,0.305,-5.337
0.240,0.035,0.305,-5.337
0.218,0.034,0.308,-5.337
0.168,0.035,0.306,-5.337
0.155,0.037,0.303,-5.337
0.144,0.035,0.304,-5.337
0.206,0.036,0.308,-5.337
0.164,0.036,0.305,-5.337
0.032,0.037,0.303,-5.337
0.044,0.035,0.305,-5.337
0.148,0.035,0.306,-5.337
0.161,0.034,0.306,-5.337
0.143,0.034,0.305,-5.337
0.132,0.035,0.306,-5.337
0.195,0.033,0.306,-5.337
0.222,0.032,0.301,-5.337
0.216,0.033,0.298,-5.337
0.230,0.032,0.301,-5.337
0.240,0.033,0.302,-5.337
0.173,0.035,0.304,-5.337
0.088,0.037,0.302,-5.337
0.140,0.037,0.300,-5.337
0.141,0.037,0.302,-5.337
0.108,0.035,0.306,-5.337
0.145,0.029,0.307,-5.337
0.139,0.032,0.306,-5.337
0.159,0.030,0.304,-5.337
0.147,0.032,0.306,-5.337
0.106,0.033,0.306,-5.337
0.054,0.037,0.304,-5.337
0.149,0.032,0.303,-5.337
0.272,0.030,0.302,-5.337
0.312,0.033,0.301,-5.337
0.225,0.036,0.301,-5.337
0.172,0.032,0.301,-5.337
0.190,0.031,0.301,-5.337
0.180,0.034,0.302,-5.337
0.241,0.033,0.304,-5.337
0.259,0.030,0.308,-5.337
0.212,0.028,0.307,-5.337
0.171,0.030,0.305,-5.337
0.129,0.032,0.303,-5.337
0.123,0.030,0.305,-5.337
0.157,0.032,0.305,-5.337
0.230,0.037,0.304,-5.337
0.242,0.035,0.303,-5.337
0.234,0.035,0.302,-5.337
0.194,0.035,0.298,-5.337
0.153,0.038,0.299,-5.337
0.189,0.035,0.302,-5.337
0.219,0.031,0.307,-5.337
0.240,0.030,0.305,-5.337
0.188,0.029,0.305,-5.337
0.219,0.028,0.306,-5.337
0.249,0.029,0.305,-5.337
0.205,0.032,0.305,-5.337
0.192,0.029,0.305,-5.337
0.201,0.026,0.306,-5.337
0.207,0.030,0.307,-5.337
0.149,0.032,0.306,-5.337
0.155,0.031,0.302,-5.337
0.219,0.030,0.301,-5.337
0.218,0.030,0.300,-5.337
0.137,0.033,0.302,-5.337
0.137,0.034,0.303,-5.337
0.163,0.031,0.306,-5.337
0.240,0.025,0.306,-5.337
0.297,0.026,0.306,-5.337
0.207,0.028,0.305,-5.337
0.161,0.029,0.305,-5.337
0.171,0.030,0.302,-5.337
0.183,0.034,0.300,-5.337
0.203,0.032,0.301,-5.337
0.223,0.032,0.302,-5.337
0.172,0.034,0.300,-5.337
0.117,0.035,0.304,-5.337
0.155,0.033,0.305,-5.337
0.157,0.034,0.302,-5.337
0.241,0.032,0.301,-5.337
0.205,0.031,0.304,-5.337
0.103,0.031,0.305,-5.337
0.100,0.029,0.307,-5.337
0.169,0.030,0.308,-5.337
0.186,0.033,0.306,-5.337
0.167,0.032,0.304,-5.337
0.195,0.033,0.300,-5.337
0.222,0.033,0.301,-5.337
0.175,0.032,0.299,-5.337
0.154,0.032,0.304,-5.337
0.141,0.032,0.303,-5.337
0.136,0.035,0.301,-5.337
0.169,0.031,0.303,-5.337
0.152,0.036,0.310,-5.337
0.129,0.034,0.311,-5.337
0.177,0.031,0.307,-5.337
0.202,0.027,0.305,-5.337
0.176,0.026,0.304,-5.337
0.183,0.028,0.303,-5.337
0.195,0.029,0.305,-5.337
0.180,0.030,0.305,-5.337
0.123,0.033,0.303,-5.337
0.070,0.036,0.299,-5.337
0.133,0.034,0.300,-5.337
0.155,0.034,0.305,-5.337
0.121,0.037,0.309,-5.337
0.109,0.032,0.309,-5.337
0.078,0.034,0.308,-5.337
0.082,0.032,0.305,-5.337
0.135,0.030,0.304,-5.337
0.166,0.031,0.306,-5.337
0.173,0.031,0.305,-5.337
0.169,0.029,0.306,-5.337
0.150,0.029,0.306,-5.337
0.090,0.034,0.306,-5.337
0.080,0.035,0.304,-5.337
0.145,0.029,0.304,-5.337
0.218,0.024,0.306,-5.337
0.242,0.025,0.306,-5.337
0.201,0.027,0.305,-5.337
0.145,0.028,0.306,-5.337
0.145,0.028,0.303,-5.337
0.110,0.029,0.303,-5.337
0.151,0.027,0.306,-5.337
0.205,0.028,0.307,-5.337
0.168,0.029,0.307,-5.337
0.157,0.026,0.304,-5.337
0.197,0.026,0.304,-5.337
0.241,0.026,0.305,-5.337
0.222,0.029,0.307,-5.337
0.160,0.032,0.304,-5.337
0.150,0.032,0.302,-5.337
0.167,0.030,0.302,-5.337
0.116,0.032,0.304,-5.337
0.091,0.031,0.303,-5.337
0.194,0.029,0.305,-5.337
0.261,0.026,0.308,-5.337
0.297,0.028,0.311,-5.337
0.270,0.028,0.307,-5.337
0.197,0.030,0.305,-5.337
0.180,0.029,0.305,-5.337
0.191,0.030,0.304,-5.337
0.217,0.029,0.302,-5.337
0.137,0.030,0.303,-5.337
0.115,0.027,0.303,-5.337
0.148,0.030,0.305,-5.337
0.241,0.031,0.306,-5.337
0.200,0.036,0.304,-5.337
0.139,0.034,0.299,-5.337
0.157,0.032,0.297,-5.337
0.152,0.032,0.303,-5.337
0.147,0.035,0.310,-5.337
0.179,0.036,0.314,-5.337
0.220,0.035,0.311,-5.337
0.221,0.035,0.308,-5.337
0.210,0.036,0.302,-5.337
0.204,0.035,0.300,-5.337
0.199,0.037,0.300,-5.337
0.193,0.038,0.305,-5.337
0.196,0.038,0.305,-5.337
0.284,0.035,0.305,-5.337
0.235,0.036,0.304,-5.337
0.166,0.039,0.303,-5.337
0.196,0.037,0.300,-5.337
0.243,0.037,0.303,-5.337
0.201,0.037,0.307,-5.337
0.167,0.035,0.309,-5.337
0.151,0.039,0.306,-5.337
0.182,0.041,0.303,-5.337
0.233,0.039,0.302,-5.337
0.246,0.036,0.305,-5.337
0.217,0.037,0.306,-5.337
0.150,0.038,0.304,-5.337
0.185,0.040,0.303,-5.337
0.207,0.041,0.303,-5.337
0.163,0.041,0.306,-5.337
0.209,0.039,0.307,-5.337
0.228,0.039,0.311,-5.337
0.134,0.041,0.311,-5.337
0.099,0.041,0.308,-5.337
0.108,0.041,0.305,-5.337
0.120,0.040,0.306,-5.337
0.125,0.040,0.306,-5.337
0.090,0.037,0.305,-5.337
0.081,0.036,0.303,-5.337
0.100,0.038,0.302,-5.337
0.189,0.035,0.303,-5.337
0.254,0.035,0.304,-5.337
0.241,0.036,0.303,-5.337
0.198,0.040,0.301,-5.337
0.163,0.043,0.304,-5.337
0.147,0.045,0.308,-5.337
0.169,0.041,0.307,-5.337
0.233,0.037,0.306,-5.337
0.231,0.038,0.303,-5.337
0.100,0.044,0.305,-5.337
0.090,0.045,0.306,-5.337
0.136,0.043,0.305,-5.337
0.170,0.039,0.305,-5.337
0.168,0.039,0.308,-5.337
0.222,0.037,0.310,-5.337
0.226,0.038,0.309,-5.337
0.290,0.038,0.308,-5.337
0.340,0.038,0.304,-5.337
0.267,0.043,0.304,-5.337
0.144,0.046,0.300,-5.337
0.171,0.046,0.299,-5.337
0.232,0.042,0.303,-5.337
0.192,0.041,0.307,-5.337
0.167,0.042,0.307,-5.337
0.166,0.046,0.301,-5.337
0.176,0.043,0.296,-5.337
0.184,0.046,0.299,-5.337
0.193,0.046,0.303,-5.337
0.211,0.046,0.308,-5.337
0.245,0.045,0.307,-5.337
0.285,0.047,0.304,-5.337
0.255,0.045,0.303,-5.337
0.220,0.044,0.303,-5.337
0.253,0.042,0.303,-5.337
0.245,0.041,0.302,-5.337
0.167,0.043,0.303,-5.337
0.149,0.045,0.305,-5.337
0.191,0.040,0.305,-5.337
0.188,0.040,0.303,-5.337
0.169,0.039,0.303,-5.337
0.204,0.040,0.305,-5.337
0.251,0.042,0.304,-5.337
0.229,0.045,0.305,-5.337
0.183,0.045,0.306,-5.337
0.225,0.042,0.304,-5.337
0.219,0.046,0.300,-5.337
0.124,0.050,0.300,-5.337
0.100,0.049,0.302,-5.337
0.173,0.043,0.302,-5.337
0.267,0.041,0.303,-5.337
0.270,0.041,0.306,-5.337
0.179,0.040,0.303,-5.337
0.206,0.038,0.303,-5.337
0.236,0.038,0.305,-5.337
0.182,0.042,0.306,-5.337
0.148,0.045,0.304,-5.337
0.171,0.050,0.302,-5.337
0.187,0.051,0.302,-5.337
0.191,0.047,0.305,-5.337
0.192,0.045,0.304,-5.337
0.185,0.048,0.302,-5.337
0.151,0.048,0.300,-5.337
0.185,0.050,0.300,-5.337
0.217,0.048,0.296,-5.337
0.225,0.048,0.298,-5.337
0.203,0.050,0.300,-5.337
0.172,0.054,0.302,-5.337
0.167,0.052,0.307,-5.337
0.185,0.049,0.312,-5.337
0.159,0.049,0.313,-5.337
0.142,0.049,0.309,-5.337
0.197,0.051,0.305,-5.337
0.224,0.053,0.304,-5.337
0.178,0.056,0.303,-5.337
0.162,0.054,0.305,-5.337
0.140,0.049,0.305,-5.337
0.204,0.046,0.307,-5.337
0.232,0.046,0.305,-5.337
0.262,0.046,0.301,-5.337
0.226,0.045,0.300,-5.337
0.171,0.049,0.302,-5.337
0.184,0.046,0.305,-5.337
0.233,0.049,0.304,-5.337
0.157,0.054,0.305,-5.337
0.087,0.052,0.307,-5.337
0.158,0.051,0.309,-5.337
0.228,0.047,0.304,-5.337
0.260,0.043,0.304,-5.337
0.237,0.046,0.306,-5.337
0.230,0.049,0.308,-5.337
0.310,0.047,0.305,-5.337
0.296,0.049,0.299,-5.337
0.239,0.047,0.297,-5.337
0.149,0.050,0.299,-5.337
0.102,0.053,0.304,-5.337
0.134,0.047,0.310,-5.337
0.206,0.045,0.308,-5.337
0.210,0.048,0.305,-5.337
0.184,0.053,0.301,-5.337
0.068,0.057,0.302,-5.337
0.102,0.057,0.305,-5.337
0.203,0.057,0.306,-5.337
0.237,0.053,0.306,-5.337
0.234,0.051,0.306,-5.337
0.233,0.052,0.308,-5.337
0.200,0.054,0.307,-5.337
0.274,0.053,0.308,-5.337
0.336,0.052,0.308,-5.337
0.276,0.055,0.307,-5.337
0.207,0.054,0.299,-5.337
0.199,0.059,0.298,-5.337
0.257,0.057,0.299,-5.337
0.259,0.056,0.299,-5.337
0.168,0.053,0.296,-5.337
0.156,0.054,0.297,-5.337
0.206,0.054,0.303,-5.337
0.212,0.055,0.311,-5.337
0.203,0.055,0.310,-5.337
0.194,0.058,0.307,-5.337
0.218,0.055,0.308,-5.337
0.260,0.054,0.308,-5.337
0.245,0.053,0.305,-5.337
0.243,0.052,0.305,-5.337
0.237,0.053,0.306,-5.337
0.171,0.058,0.302,-5.337
0.120,0.058,0.301,-5.337
0.117,0.056,0.305,-5.337
0.161,0.055,0.310,-5.337
0.134,0.057,0.308,-5.337
0.150,0.055,0.305,-5.337
0.225,0.055,0.303,-5.337
0.241,0.055,0.303,-5.337
0.252,0.053,0.301,-5.337
0.259,0.058,0.301,-5.337
0.247,0.056,0.304,-5.337
0.259,0.055,0.309,-5.337
0.264,0.055,0.308,-5.337
0.271,0.056,0.306,-5.337
0.229,0.060,0.304,-5.337
0.226,0.059,0.304,-5.337
0.242,0.052,0.304,-5.337
0.225,0.054,0.306,-5.337
0.198,0.054,0.305,-5.337
0.194,0.051,0.300,-5.337
0.223,0.051,0.301,-5.337
0.253,0.054,0.304,-5.337
0.263,0.057,0.305,-5.337
0.236,0.059,0.303,-5.337
0.232,0.058,0.302,-5.337
0.253,0.053,0.300,-5.337
0.250,0.052,0.302,-5.337
0.214,0.056,0.307,-5.337
0.204,0.055,0.314,-5.337
0.238,0.053,0.314,-5.337
0.220,0.053,0.311,-5.337
0.196,0.054,0.301,-5.337
0.222,0.053,0.296,-5.337
0.253,0.054,0.298,-5.337
0.269,0.056,0.302,-5.337
0.192,0.055,0.302,-5.337
0.125,0.059,0.304,-5.337
0.109,0.062,0.305,-5.337
0.148,0.060,0.305,-5.337
0.170,0.059,0.305,-5.337
0.128,0.054,0.306,-5.337
0.186,0.052,0.308,-5.337
0.246,0.054,0.306,-5.337
0.204,0.056,0.302,-5.337
0.191,0.054,0.301,-5.337
0.201,0.055,0.301,-5.337
0.153,0.054,0.301,-5.337
0.167,0.054,0.302,-5.337
0.174,0.057,0.301,-5.337
0.181,0.056,0.305,-5.337
0.217,0.055,0.308,-5.337
0.274,0.054,0.307,-5.337
0.240,0.056,0.306,-5.337
0.179,0.058,0.309,-5.337
0.138,0.054,0.302,-5.337
0.153,0.052,0.299,-5.337
0.183,0.055,0.303,-5.337
0.228,0.054,0.306,-5.337
0.235,0.051,0.306,-5.337
0.263,0.049,0.307,-5.337
0.274,0.049,0.305,-5.337
0.234,0.051,0.301,-5.337
0.205,0.051,0.302,-5.337
0.167,0.051,0.306,-5.337
0.155,0.051,0.305,-5.337
0.223,0.048,0.303,-5.337
0.242,0.047,0.306,-5.337
0.183,0.049,0.308,-5.337
0.201,0.050,0.305,-5.337
0.244,0.051,0.302,-5.337
0.241,0.050,0.300,-5.337
0.168,0.052,0.304,-5.337
0.107,0.053,0.308,-5.337
0.172,0.051,0.308,-5.337
0.224,0.049,0.308,-5.337
0.247,0.047,0.305,-5.337
0.204,0.052,0.303,-5.337
0.170,0.049,0.301,-5.337
0.174,0.049,0.304,-5.337
0.207,0.047,0.308,-5.337
0.241,0.045,0.309,-5.337
0.303,0.047,0.308,-5.337
0.269,0.052,0.309,-5.337
0.204,0.052,0.309,-5.337
0.205,0.052,0.306,-5.337
0.247,0.049,0.306,-5.337
0.288,0.048,0.304,-5.337
0.256,0.051,0.303,-5.337
0.181,0.053,0.304,-5.337
0.164,0.055,0.304,-5.337
0.207,0.051,0.306,-5.337
0.227,0.050,0.309,-5.337
0.187,0.055,0.307,-5.337
0.141,0.053,0.304,-5.337
0.199,0.050,0.305,-5.337
0.321,0.048,0.306,-5.337
0.346,0.046,0.304,-5.337
0.279,0.047,0.309,-5.337
0.279,0.048,0.312,-5.337
0.286,0.049,0.311,-5.337
0.242,0.047,0.302,-5.337
0.230,0.044,0.300,-5.337
0.238,0.045,0.305,-5.337
0.237,0.047,0.311,-5.337
0.257,0.044,0.311,-5.337
0.251,0.046,0.308,-5.337
0.145,0.050,0.305,-5.337
0.172,0.050,0.302,-5.337
0.297,0.043,0.300,-5.337
0.261,0.045,0.302,-5.337
0.201,0.045,0.304,-5.337
0.209,0.044,0.305,-5.337
0.273,0.043,0.304,-5.337
0.329,0.044,0.303,-5.337
0.305,0.044,0.306,-5.337
0.249,0.044,0.308,-5.337
0.256,0.043,0.307,-5.337
0.295,0.045,0.305,-5.337
0.249,0.047,0.305,-5.337
0.170,0.046,0.306,-5.337
0.180,0.043,0.305,-5.337
0.287,0.043,0.305,-5.337
0.223,0.049,0.311,-5.337
0.138,0.046,0.311,-5.337
0.125,0.044,0.306,-5.337
0.112,0.047,0.307,-5.337
0.115,0.052,0.311,-5.337
0.163,0.050,0.309,-5.337
0.217,0.048,0.307,-5.337
0.160,0.046,0.305,-5.337
0.156,0.047,0.304,-5.337
0.212,0.046,0.300,-5.337
0.173,0.049,0.301,-5.337
0.140,0.046,0.304,-5.337
0.197,0.042,0.307,-5.337
0.234,0.043,0.310,-5.337
0.218,0.045,0.310,-5.337
0.188,0.042,0.308,-5.337
0.197,0.042,0.309,-5.337
0.224,0.039,0.304,-5.337
0.260,0.036,0.299,-5.337
0.226,0.039,0.302,-5.337
0.190,0.041,0.304,-5.337
0.163,0.040,0.306,-5.337
0.148,0.042,0.308,-5.337
0.121,0.042,0.309,-5.337
0.187,0.039,0.308,-5.337
0.273,0.035,0.309,-5.337
0.284,0.032,0.308,-5.337
0.236,0.038,0.306,-5.337
0.172,0.041,0.303,-5.337
0.231,0.038,0.302,-5.337
0.256,0.036,0.302,-5.337
0.263,0.037,0.303,-5.337
0.200,0.037,0.303,-5.337
0.203,0.036,0.308,-5.337
0.219,0.034,0.309,-5.337
0.213,0.036,0.308,-5.337
0.173,0.034,0.309,-5.337
0.196,0.035,0.308,-5.337
0.188,0.038,0.306,-5.337
0.151,0.038,0.306,-5.337
0.157,0.038,0.309,-5.337
0.174,0.038,0.307,-5.337
0.157,0.035,0.301,-5.337
0.193,0.034,0.299,-5.337
0.215,0.037,0.305,-5.337
0.185,0.038,0.308,-5.337
0.206,0.035,0.307,-5.337
0.234,0.033,0.303,-5.337
0.239,0.034,0.303,-5.337
0.240,0.034,0.306,-5.337
0.219,0.035,0.305,-5.337
0.158,0.033,0.304,-5.337
0.150,0.033,0.305,-5.337
0.206,0.030,0.306,-5.337
0.276,0.028,0.306,-5.337
0.264,0.032,0.305,-5.337
0.193,0.035,0.306,-5.337
0.185,0.037,0.308,-5.337
0.193,0.037,0.311,-5.337
0.148,0.035,0.311,-5.337
0.132,0.035,0.309,-5.337
0.127,0.033,0.304,-5.337
0.146,0.034,0.301,-5.337
0.217,0.031,0.302,-5.337
0.188,0.033,0.304,-5.337
0.126,0.035,0.305,-5.337
0.149,0.033,0.301,-5.337
0.189,0.031,0.299,-5.337
0.300,0.030,0.298,-5.337
0.292,0.032,0.304,-5.337
0.177,0.036,0.308,-5.337
0.121,0.035,0.311,-5.337
0.220,0.029,0.306,-5.337
0.270,0.030,0.303,-5.337
0.219,0.029,0.304,-5.337
0.129,0.030,0.308,-5.337
0.092,0.030,0.310,-5.337
0.187,0.028,0.309,-5.337
0.285,0.025,0.304,-5.337
0.207,0.027,0.305,-5.337
0.189,0.027,0.308,-5.337
0.244,0.026,0.306,-5.337
0.294,0.029,0.299,-5.337
0.305,0.028,0.294,-5.337
0.290,0.029,0.297,-5.337
0.220,0.032,0.304,-5.337
0.194,0.036,0.308,-5.337
0.216,0.036,0.308,-5.337
0.214,0.033,0.310,-5.337
0.151,0.034,0.310,-5.337
0.074,0.037,0.309,-5.337
0.060,0.034,0.304,-5.337
0.125,0.031,0.299,-5.337
0.165,0.029,0.299,-5.337
0.147,0.034,0.304,-5.337
0.176,0.033,0.305,-5.337
0.222,0.029,0.305,-5.337
0.245,0.027,0.305,-5.337
0.195,0.031,0.305,-5.337
0.159,0.031,0.303,-5.337
0.146,0.032,0.303,-5.337
0.149,0.029,0.307,-5.337
0.126,0.031,0.308,-5.337
0.128,0.031,0.308,-5.337
0.185,0.029,0.305,-5.337
0.253,0.027,0.304,-5.337
0.246,0.028,0.306,-5.337
0.182,0.032,0.307,-5.337
0.224,0.031,0.306,-5.337
0.289,0.033,0.305,-5.337
0.300,0.034,0.303,-5.337
0.162,0.036,0.305,-5.337
0.099,0.034,0.304,-5.337
0.123,0.034,0.304,-5.337
0.114,0.033,0.304,-5.337
0.120,0.031,0.306,-5.337
0.147,0.029,0.304,-5.337
0.214,0.032,0.305,-5.337
0.224,0.027,0.309,-5.337
0.235,0.026,0.309,-5.337
0.209,0.025,0.304,-5.337
0.189,0.028,0.302,-5.337
0.240,0.026,0.305,-5.337
0.213,0.032,0.307,-5.337
0.194,0.032,0.303,-5.337
0.273,0.029,0.302,-5.337
0.200,0.032,0.303,-5.337
0.130,0.037,0.308,-5.337
0.179,0.036,0.307,-5.337
0.292,0.031,0.309,-5.337
0.255,0.035,0.313,-5.337
0.137,0.041,0.313,-5.337
0.097,0.037,0.308,-5.337
0.165,0.037,0.301,-5.337
0.183,0.035,0.299,-5.337
0.160,0.033,0.300,-5.337
0.144,0.034,0.304,-5.337
0.146,0.040,0.307,-5.337
0.108,0.040,0.308,-5.337
0.145,0.035,0.303,-5.337
0.225,0.032,0.297,-5.337
0.165,0.033,0.297,-5.337
0.118,0.037,0.305,-5.337
0.188,0.034,0.308,-5.337
0.264,0.031,0.310,-5.337
0.256,0.029,0.312,-5.337
0.176,0.029,0.311,-5.337
0.171,0.027,0.306,-5.337
0.165,0.027,0.304,-5.337
0.114,0.027,0.300,-5.337
0.173,0.025,0.302,-5.337
0.179,0.026,0.302,-5.337
0.167,0.028,0.305,-5.337
0.108,0.028,0.307,-5.337
0.124,0.029,0.307,-5.337
0.105,0.029,0.307,-5.337
0.088,0.031,0.306,-5.337
0.121,0.032,0.306,-5.337
0.208,0.028,0.305,-5.337
0.238,0.028,0.308,-5.337
0.205,0.031,0.307,-5.337
0.178,0.034,0.305,-5.337
0.192,0.034,0.303,-5.337
0.210,0.033,0.304,-5.337
0.126,0.035,0.304,-5.337
0.070,0.036,0.305,-5.337
0.114,0.030,0.308,-5.337
0.209,0.026,0.310,-5.337
0.242,0.028,0.308,-5.337
0.205,0.029,0.307,-5.337
0.200,0.029,0.308,-5.337
0.168,0.027,0.305,-5.337
0.168,0.026,0.301,-5.337
0.200,0.028,0.301,-5.337
0.234,0.029,0.303,-5.337
0.210,0.030,0.304,-5.337
0.163,0.029,0.302,-5.337
0.138,0.029,0.300,-5.337
0.113,0.028,0.301,-5.337
0.142,0.029,0.305,-5.337
0.229,0.031,0.309,-5.337
0.274,0.032,0.311,-5.337
0.222,0.030,0.311,-5.337
0.188,0.027,0.310,-5.337
0.230,0.031,0.309,-5.337
0.176,0.034,0.304,-5.337
0.161,0.032,0.299,-5.337
0.186,0.032,0.300,-5.337
0.143,0.035,0.304,-5.337
0.067,0.037,0.304,-5.337
0.117,0.033,0.304,-5.337
0.237,0.030,0.302,-5.337
0.259,0.031,0.303,-5.337
0.206,0.030,0.303,-5.337
0.184,0.032,0.304,-5.337
0.196,0.030,0.307,-5.337
0.240,0.030,0.310,-5.337
0.185,0.033,0.306,-5.337
0.132,0.033,0.303,-5.337
0.163,0.030,0.300,-5.337
0.234,0.031,0.298,-5.337
0.241,0.035,0.302,-5.337
0.183,0.038,0.307,-5.337
0.128,0.040,0.309,-5.337
0.145,0.038,0.309,-5.337
0.226,0.034,0.311,-5.337
0.259,0.035,0.309,-5.337
0.295,0.036,0.302,-5.337
0.234,0.033,0.298,-5.337
0.196,0.033,0.306,-5.337
0.236,0.034,0.311,-5.337
0.203,0.036,0.308,-5.337
0.210,0.034,0.306,-5.337
0.281,0.031,0.307,-5.337
0.247,0.030,0.308,-5.337
0.236,0.034,0.309,-5.337
0.230,0.032,0.306,-5.337
0.236,0.034,0.303,-5.337
0.215,0.035,0.300,-5.337
0.127,0.036,0.300,-5.337
0.170,0.033,0.305,-5.337
0.258,0.031,0.307,-5.337
0.266,0.033,0.306,-5.337
0.133,0.039,0.306,-5.337
0.104,0.038,0.309,-5.337
0.159,0.039,0.310,-5.337
0.192,0.038,0.307,-5.337
0.223,0.039,0.305,-5.337
0.252,0.038,0.302,-5.337
0.214,0.041,0.303,-5.337
0.124,0.042,0.305,-5.337
0.138,0.038,0.307,-5.337
0.125,0.038,0.306,-5.337
0.105,0.038,0.302,-5.337
0.196,0.036,0.304,-5.337
0.276,0.036,0.309,-5.337
0.208,0.038,0.311,-5.337
0.147,0.037,0.307,-5.337
0.221,0.038,0.304,-5.337
0.175,0.042,0.308,-5.337
0.119,0.045,0.308,-5.337
0.112,0.046,0.306,-5.337
0.115,0.046,0.310,-5.337
0.180,0.042,0.312,-5.337
0.213,0.038,0.308,-5.337
0.176,0.043,0.303,-5.337
0.135,0.046,0.303,-5.337
0.119,0.047,0.307,-5.337
0.162,0.043,0.310,-5.337
0.232,0.042,0.308,-5.337
0.228,0.038,0.307,-5.337
0.171,0.040,0.309,-5.337
0.145,0.037,0.306,-5.337
0.251,0.035,0.306,-5.337
0.229,0.038,0.306,-5.337
0.109,0.042,0.305,-5.337
0.080,0.038,0.303,-5.337
0.179,0.038,0.307,-5.337
0.230,0.039,0.309,-5.337
0.230,0.039,0.307,-5.337
0.243,0.037,0.301,-5.337
0.273,0.037,0.301,-5.337
0.327,0.039,0.304,-5.337
0.229,0.042,0.305,-5.337
0.162,0.040,0.305,-5.337
0.210,0.039,0.305,-5.337
0.204,0.040,0.306,-5.337
0.158,0.044,0.307,-5.337
0.101,0.044,0.310,-5.337
0.103,0.043,0.311,-5.337
0.190,0.040,0.309,-5.337
0.241,0.040,0.308,-5.337
0.210,0.039,0.307,-5.337
0.139,0.041,0.305,-5.337
0.149,0.040,0.308,-5.337
0.206,0.042,0.308,-5.337
0.155,0.044,0.310,-5.337
0.159,0.043,0.306,-5.337
0.200,0.039,0.303,-5.337
0.224,0.039,0.303,-5.337
0.217,0.044,0.307,-5.337
0.198,0.041,0.309,-5.337
0.143,0.044,0.308,-5.337
0.154,0.041,0.305,-5.337
0.154,0.042,0.302,-5.337
0.198,0.044,0.301,-5.337
0.246,0.040,0.305,-5.337
0.318,0.036,0.307,-5.337
0.301,0.038,0.307,-5.337
0.217,0.041,0.308,-5.337
0.224,0.040,0.307,-5.337
0.246,0.040,0.306,-5.337
0.203,0.040,0.305,-5.337
0.150,0.043,0.303,-5.337
0.149,0.040,0.301,-5.337
0.207,0.039,0.307,-5.337
0.261,0.043,0.313,-5.337
0.298,0.043,0.313,-5.337
0.297,0.041,0.307,-5.337
0.277,0.045,0.307,-5.337
0.222,0.049,0.308,-5.337
0.187,0.044,0.309,-5.337
0.172,0.044,0.306,-5.337
0.173,0.046,0.306,-5.337
0.155,0.045,0.304,-5.337
0.129,0.046,0.306,-5.337
0.175,0.042,0.308,-5.337
0.231,0.044,0.310,-5.337
0.262,0.042,0.308,-5.337
0.211,0.045,0.302,-5.337
0.174,0.046,0.301,-5.337
0.195,0.045,0.304,-5.337
0.199,0.047,0.303,-5.337
0.193,0.049,0.305,-5.337
0.213,0.044,0.309,-5.337
0.161,0.043,0.309,-5.337
0.203,0.047,0.305,-5.337
0.289,0.044,0.300,-5.337
0.290,0.042,0.298,-5.337
0.266,0.044,0.301,-5.337
0.209,0.046,0.308,-5.337
0.206,0.047,0.309,-5.337
0.235,0.045,0.308,-5.337
0.134,0.047,0.304,-5.337
0.124,0.047,0.303,-5.337
0.102,0.047,0.303,-5.337
0.157,0.045,0.303,-5.337
0.203,0.050,0.304,-5.337
0.144,0.054,0.306,-5.337
0.106,0.052,0.304,-5.337
0.179,0.048,0.304,-5.337
0.254,0.048,0.305,-5.337
0.184,0.051,0.304,-5.337
0.123,0.051,0.305,-5.337
0.159,0.053,0.307,-5.337
0.200,0.053,0.305,-5.337
0.223,0.051,0.304,-5.337
0.248,0.053,0.302,-5.337
0.242,0.054,0.301,-5.337
0.210,0.053,0.302,-5.337
0.113,0.054,0.305,-5.337
0.130,0.054,0.306,-5.337
0.235,0.056,0.308,-5.337
0.183,0.056,0.308,-5.337
0.165,0.053,0.306,-5.337
0.208,0.054,0.305,-5.337
0.213,0.054,0.304,-5.337
0.235,0.053,0.302,-5.337
0.300,0.052,0.302,-5.337
0.303,0.053,0.303,-5.337
0.272,0.053,0.305,-5.337
0.278,0.054,0.310,-5.337
0.245,0.056,0.314,-5.337
0.253,0.054,0.312,-5.337
0.269,0.051,0.306,-5.337
0.234,0.049,0.301,-5.337
0.193,0.049,0.300,-5.337
0.163,0.052,0.302,-5.337
0.163,0.053,0.303,-5.337
0.217,0.051,0.303,-5.337
0.281,0.052,0.304,-5.337
0.244,0.053,0.304,-5.337
0.223,0.053,0.304,-5.337
0.204,0.056,0.301,-5.337
0.259,0.055,0.303,-5.337
0.247,0.053,0.307,-5.337
0.210,0.052,0.308,-5.337
0.146,0.053,0.308,-5.337
0.182,0.054,0.312,-5.337
0.250,0.053,0.309,-5.337
0.275,0.055,0.305,-5.337
0.248,0.054,0.305,-5.337
0.221,0.054,0.302,-5.337
0.146,0.054,0.298,-5.337
0.154,0.052,0.301,-5.337
0.189,0.052,0.301,-5.337
0.258,0.055,0.303,-5.337
0.262,0.054,0.307,-5.337
0.295,0.053,0.313,-5.337
0.226,0.054,0.313,-5.337
0.150,0.052,0.310,-5.337
0.221,0.049,0.305,-5.337
0.249,0.050,0.303,-5.337
0.264,0.051,0.303,-5.337
0.231,0.048,0.304,-5.337
0.251,0.044,0.306,-5.337
0.283,0.045,0.305,-5.337
0.262,0.052,0.306,-5.337
0.243,0.053,0.308,-5.337
0.232,0.050,0.311,-5.337
0.268,0.052,0.307,-5.337
0.269,0.056,0.307,-5.337
0.265,0.056,0.306,-5.337
0.250,0.056,0.306,-5.337
0.238,0.057,0.305,-5.337
0.246,0.058,0.304,-5.337
0.218,0.058,0.305,-5.337
0.194,0.058,0.306,-5.337
0.216,0.056,0.305,-5.337
0.226,0.060,0.302,-5.337
0.210,0.058,0.300,-5.337
0.212,0.055,0.300,-5.337
0.216,0.057,0.302,-5.337
0.296,0.057,0.304,-5.337
0.270,0.059,0.305,-5.337
0.236,0.060,0.304,-5.337
0.198,0.061,0.306,-5.337
0.164,0.058,0.307,-5.337
0.159,0.057,0.309,-5.337
0.191,0.052,0.307,-5.337
0.177,0.053,0.308,-5.337
0.131,0.052,0.307,-5.337
0.216,0.051,0.304,-5.337
0.277,0.053,0.298,-5.337
0.277,0.051,0.298,-5.337
0.252,0.049,0.302,-5.337
0.187,0.054,0.307,-5.337
0.170,0.056,0.307,-5.337
0.201,0.055,0.306,-5.337
0.188,0.055,0.306,-5.337
0.147,0.053,0.306,-5.337
0.182,0.049,0.308,-5.337
0.173,0.049,0.308,-5.337
0.236,0.049,0.305,-5.337
0.219,0.056,0.303,-5.337
0.199,0.055,0.305,-5.337
0.186,0.053,0.306,-5.337
0.232,0.055,0.304,-5.337
0.179,0.056,0.305,-5.337
0.106,0.059,0.309,-5.337
0.176,0.057,0.308,-5.337
0.235,0.052,0.300,-5.337
0.286,0.050,0.296,-5.337
0.258,0.050,0.298,-5.337
0.168,0.057,0.298,-5.337
0.204,0.055,0.301,-5.337
0.264,0.050,0.306,-5.337
0.239,0.050,0.309,-5.337
0.229,0.051,0.305,-5.337
0.246,0.050,0.304,-5.337
0.281,0.050,0.305,-5.337
0.276,0.053,0.303,-5.337
0.255,0.053,0.301,-5.337
0.216,0.055,0.303,-5.337
0.134,0.054,0.305,-5.337
0.144,0.053,0.306,-5.337
0.243,0.055,0.310,-5.337
0.264,0.056,0.310,-5.337
0.225,0.053,0.305,-5.337
0.211,0.056,0.299,-5.337
0.234,0.056,0.299,-5.337
0.252,0.056,0.301,-5.337
0.214,0.059,0.304,-5.337
0.137,0.061,0.307,-5.337
0.181,0.057,0.308,-5.337
0.227,0.055,0.304,-5.337
0.233,0.055,0.302,-5.337
0.278,0.055,0.303,-5.337
0.229,0.053,0.304,-5.337
0.144,0.053,0.302,-5.337
0.158,0.054,0.304,-5.337
0.191,0.050,0.302,-5.337
0.231,0.049,0.304,-5.337
0.208,0.048,0.305,-5.337
0.158,0.048,0.307,-5.337
0.133,0.050,0.305,-5.337
0.176,0.052,0.302,-5.337
0.190,0.047,0.302,-5.337
0.205,0.045,0.302,-5.337
0.174,0.047,0.301,-5.337
0.224,0.045,0.306,-5.337
0.246,0.049,0.306,-5.337
0.225,0.049,0.304,-5.337
0.261,0.047,0.306,-5.337
0.231,0.048,0.309,-5.337
0.227,0.047,0.312,-5.337
0.259,0.047,0.311,-5.337
0.220,0.045,0.307,-5.337
0.196,0.043,0.301,-5.337
0.159,0.046,0.299,-5.337
0.142,0.049,0.298,-5.337
0.191,0.048,0.301,-5.337
0.221,0.047,0.305,-5.337
0.274,0.047,0.304,-5.337
0.300,0.048,0.304,-5.337
0.287,0.047,0.305,-5.337
0.217,0.046,0.307,-5.337
0.229,0.045,0.310,-5.337
0.271,0.046,0.310,-5.337
0.275,0.044,0.305,-5.337
0.229,0.045,0.303,-5.337
0.212,0.047,0.307,-5.337
0.257,0.042,0.310,-5.337
0.185,0.047,0.309,-5.337
0.117,0.048,0.305,-5.337
0.121,0.046,0.297,-5.337
0.161,0.045,0.298,-5.337
0.146,0.046,0.304,-5.337
0.132,0.045,0.308,-5.337
0.132,0.047,0.307,-5.337
0.171,0.048,0.305,-5.337
0.210,0.045,0.305,-5.337
0.230,0.043,0.307,-5.337
0.183,0.044,0.307,-5.337
0.160,0.046,0.309,-5.337
0.156,0.049,0.309,-5.337
0.160,0.047,0.308,-5.337
0.170,0.046,0.305,-5.337
0.147,0.047,0.304,-5.337
0.156,0.049,0.304,-5.337
0.202,0.048,0.302,-5.337
0.197,0.046,0.302,-5.337
0.155,0.050,0.306,-5.337
0.115,0.053,0.308,-5.337
0.141,0.051,0.308,-5.337
0.126,0.047,0.309,-5.337
0.165,0.044,0.309,-5.337
0.187,0.039,0.305,-5.337
0.174,0.040,0.304,-5.337
0.178,0.039,0.307,-5.337
0.236,0.043,0.307,-5.337
0.250,0.044,0.307,-5.337
0.254,0.039,0.308,-5.337
0.211,0.039,0.307,-5.337
0.238,0.040,0.306,-5.337
0.288,0.041,0.307,-5.337
0.250,0.046,0.305,-5.337
0.210,0.045,0.308,-5.337
0.192,0.045,0.307,-5.337
0.183,0.046,0.306,-5.337
0.165,0.044,0.305,-5.337
0.224,0.040,0.308,-5.337
0.211,0.041,0.310,-5.337
0.178,0.039,0.312,-5.337
0.185,0.042,0.312,-5.337
0.154,0.046,0.312,-5.337
0.130,0.040,0.304,-5.337
0.129,0.041,0.299,-5.337
0.163,0.040,0.301,-5.337
0.182,0.042,0.304,-5.337
0.145,0.045,0.304,-5.337
0.184,0.045,0.303,-5.337
0.227,0.044,0.304,-5.337
0.193,0.046,0.308,-5.337
0.196,0.045,0.308,-5.337
0.225,0.042,0.306,-5.337
0.151,0.044,0.306,-5.337
0.052,0.047,0.309,-5.337
0.096,0.043,0.310,-5.337
0.134,0.043,0.307,-5.337
0.161,0.041,0.305,-5.337
0.162,0.042,0.304,-5.337
0.175,0.041,0.305,-5.337
0.242,0.036,0.306,-5.337
0.302,0.034,0.307,-5.337
0.196,0.041,0.307,-5.337
0.154,0.041,0.307,-5.337
0.162,0.036,0.305,-5.337
0.127,0.038,0.301,-5.337
0.145,0.035,0.303,-5.337
0.193,0.034,0.305,-5.337
0.188,0.037,0.304,-5.337
0.189,0.040,0.307,-5.337
0.192,0.044,0.306,-5.337
0.199,0.043,0.305,-5.337
0.201,0.040,0.304,-5.337
0.156,0.043,0.307,-5.337
0.191,0.041,0.308,-5.337
0.127,0.045,0.311,-5.337
0.054,0.041,0.309,-5.337
0.104,0.041,0.307,-5.337
0.149,0.039,0.308,-5.337
0.148,0.038,0.307,-5.337
0.157,0.036,0.305,-5.337
0.181,0.037,0.301,-5.337
0.176,0.038,0.303,-5.337
0.141,0.040,0.305,-5.337
0.126,0.037,0.309,-5.337
0.112,0.034,0.307,-5.337
0.163,0.036,0.307,-5.337
0.211,0.035,0.306,-5.337
0.178,0.041,0.303,-5.337
0.130,0.038,0.302,-5.337
0.139,0.040,0.304,-5.337
0.099,0.037,0.306,-5.337
0.121,0.037,0.305,-5.337
0.111,0.039,0.305,-5.337
0.110,0.040,0.306,-5.337
0.176,0.039,0.308,-5.337
0.279,0.035,0.309,-5.337
0.302,0.035,0.309,-5.337
0.218,0.034,0.306,-5.337
0.247,0.033,0.303,-5.337
0.296,0.033,0.302,-5.337
0.218,0.034,0.303,-5.337
0.158,0.034,0.302,-5.337
0.147,0.032,0.303,-5.337
0.139,0.033,0.299,-5.337
0.124,0.034,0.303,-5.337
0.173,0.035,0.304,-5.337
0.191,0.038,0.306,-5.337
0.118,0.035,0.304,-5.337
0.134,0.037,0.304,-5.337
0.177,0.040,0.302,-5.337
0.188,0.039,0.302,-5.337
0.269,0.035,0.301,-5.337
0.241,0.036,0.303,-5.337
0.201,0.034,0.303,-5.337
0.198,0.040,0.306,-5.337
0.185,0.041,0.306,-5.337
0.219,0.037,0.306,-5.337
0.244,0.037,0.306,-5.337
0.176,0.043,0.307,-5.337
0.156,0.043,0.305,-5.337
0.193,0.039,0.304,-5.337
0.212,0.038,0.302,-5.337
0.223,0.036,0.303,-5.337
0.184,0.034,0.304,-5.337
0.086,0.037,0.303,-5.337
0.139,0.036,0.306,-5.337
0.175,0.037,0.306,-5.337
0.177,0.039,0.307,-5.337
0.182,0.041,0.304,-5.337
0.156,0.037,0.304,-5.337
0.154,0.034,0.304,-5.337
0.098,0.040,0.305,-5.337
0.132,0.038,0.306,-5.337
0.248,0.035,0.308,-5.337
0.284,0.034,0.308,-5.337
0.197,0.036,0.306,-5.337
0.152,0.038,0.305,-5.337
0.146,0.039,0.307,-5.337
0.181,0.038,0.305,-5.337
0.161,0.040,0.301,-5.337
0.115,0.039,0.299,-5.337
0.197,0.033,0.302,-5.337
0.230,0.034,0.306,-5.337
0.129,0.036,0.303,-5.337
0.139,0.034,0.304,-5.337
0.168,0.037,0.304,-5.337
0.192,0.034,0.302,-5.337
0.221,0.031,0.301,-5.337
0.244,0.033,0.302,-5.337
0.192,0.036,0.303,-5.337
0.144,0.038,0.305,-5.337
0.118,0.036,0.306,-5.337
0.126,0.038,0.309,-5.337
0.204,0.035,0.310,-5.337
0.232,0.035,0.304,-5.337
0.192,0.034,0.301,-5.337
0.112,0.034,0.302,-5.337
0.145,0.032,0.302,-5.337
0.217,0.034,0.305,-5.337
0.214,0.035,0.310,-5.337
0.181,0.033,0.312,-5.337
0.187,0.033,0.310,-5.337
0.155,0.035,0.309,-5.337
0.143,0.034,0.308,-5.337
0.177,0.036,0.305,-5.337
0.143,0.037,0.303,-5.337
0.116,0.037,0.300,-5.337
0.223,0.034,0.302,-5.337
0.253,0.037,0.303,-5.337
0.184,0.040,0.306,-5.337
0.149,0.042,0.301,-5.337
0.137,0.042,0.301,-5.337
0.163,0.042,0.305,-5.337
0.191,0.040,0.309,-5.337
0.162,0.036,0.304,-5.337
0.173,0.035,0.300,-5.337
0.208,0.033,0.298,-5.337
0.180,0.036,0.298,-5.337
0.171,0.040,0.302,-5.337
0.234,0.036,0.310,-5.337
0.236,0.033,0.311,-5.337
0.252,0.029,0.309,-5.337
0.237,0.027,0.303,-5.337
0.221,0.031,0.300,-5.337
0.182,0.038,0.299,-5.337
0.159,0.036,0.303,-5.337
0.123,0.038,0.305,-5.337
0.098,0.036,0.305,-5.337
0.091,0.037,0.304,-5.337
0.083,0.037,0.302,-5.337
0.098,0.036,0.306,-5.337
0.225,0.033,0.308,-5.337
0.225,0.034,0.309,-5.337
0.179,0.037,0.306,-5.337
0.173,0.038,0.304,-5.337
0.221,0.035,0.303,-5.337
0.237,0.036,0.302,-5.337
0.169,0.040,0.301,-5.337
0.138,0.040,0.300,-5.337
0.151,0.033,0.301,-5.337
0.181,0.035,0.305,-5.337
0.169,0.035,0.307,-5.337
0.223,0.031,0.305,-5.337
0.212,0.030,0.304,-5.337
0.155,0.034,0.304,-5.337
0.160,0.030,0.306,-5.337
0.161,0.031,0.309,-5.337
0.176,0.032,0.306,-5.337
0.211,0.035,0.301,-5.337
0.298,0.033,0.299,-5.337
0.289,0.037,0.300,-5.337
0.178,0.040,0.301,-5.337
0.129,0.037,0.304,-5.337
0.169,0.032,0.306,-5.337
0.250,0.035,0.306,-5.337
0.246,0.035,0.305,-5.337
0.196,0.037,0.303,-5.337
0.194,0.039,0.303,-5.337
0.175,0.042,0.302,-5.337
0.127,0.041,0.304,-5.337
0.215,0.038,0.305,-5.337
0.205,0.039,0.305,-5.337
0.113,0.044,0.303,-5.337
0.090,0.045,0.305,-5.337
0.050,0.040,0.306,-5.337
0.074,0.039,0.305,-5.337
0.159,0.037,0.302,-5.337
0.184,0.038,0.299,-5.337
0.154,0.038,0.301,-5.337
0.161,0.039,0.303,-5.337
0.145,0.041,0.306,-5.337
0.163,0.042,0.305,-5.337
0.187,0.039,0.301,-5.337
0.214,0.038,0.301,-5.337
0.216,0.039,0.302,-5.337
0.182,0.041,0.304,-5.337
0.192,0.041,0.304,-5.337
0.162,0.042,0.302,-5.337
0.166,0.042,0.298,-5.337
0.154,0.043,0.297,-5.337
0.156,0.042,0.301,-5.337
0.196,0.038,0.306,-5.337
0.267,0.032,0.308,-5.337
0.304,0.030,0.302,-5.337
0.239,0.036,0.304,-5.337
0.192,0.037,0.306,-5.337
0.194,0.037,0.307,-5.337
0.246,0.039,0.307,-5.337
0.260,0.041,0.308,-5.337
0.244,0.042,0.307,-5.337
0.194,0.044,0.307,-5.337
0.183,0.046,0.305,-5.337
0.164,0.048,0.303,-5.337
0.198,0.049,0.304,-5.337
0.262,0.046,0.306,-5.337
0.209,0.046,0.303,-5.337
0.159,0.045,0.299,-5.337
0.128,0.043,0.295,-5.337
0.122,0.042,0.301,-5.337
0.171,0.043,0.306,-5.337
0.182,0.041,0.305,-5.337
0.180,0.043,0.305,-5.337
0.152,0.044,0.306,-5.337
0.135,0.045,0.306,-5.337
0.223,0.044,0.305,-5.337
0.256,0.046,0.303,-5.337
0.247,0.045,0.301,-5.337
0.263,0.046,0.302,-5.337
0.287,0.044,0.302,-5.337
0.269,0.043,0.304,-5.337
0.215,0.041,0.306,-5.337
0.190,0.041,0.306,-5.337
0.217,0.041,0.307,-5.337
0.174,0.045,0.307,-5.337
0.149,0.047,0.306,-5.337
0.179,0.045,0.304,-5.337
0.197,0.043,0.305,-5.337
0.225,0.040,0.303,-5.337
0.256,0.039,0.300,-5.337
0.230,0.040,0.300,-5.337
0.191,0.042,0.305,-5.337
0.179,0.044,0.308,-5.337
0.150,0.048,0.309,-5.337
0.129,0.046,0.302,-5.337
0.142,0.044,0.299,-5.337
0.166,0.044,0.301,-5.337
0.149,0.044,0.306,-5.337
0.139,0.047,0.305,-5.337
0.171,0.047,0.305,-5.337
0.182,0.044,0.306,-5.337
0.204,0.042,0.311,-5.337
0.200,0.043,0.309,-5.337
0.189,0.045,0.306,-5.337
0.205,0.041,0.305,-5.337
0.191,0.042,0.308,-5.337
0.080,0.046,0.311,-5.337
0.100,0.051,0.311,-5.337
0.166,0.049,0.306,-5.337
0.227,0.047,0.301,-5.337
0.246,0.047,0.300,-5.337
0.201,0.047,0.305,-5.337
0.208,0.048,0.305,-5.337
0.249,0.048,0.303,-5.337
0.295,0.045,0.301,-5.337
0.230,0.050,0.305,-5.337
0.161,0.053,0.311,-5.337
0.182,0.051,0.313,-5.337
0.265,0.051,0.312,-5.337
0.236,0.054,0.306,-5.337
0.160,0.052,0.306,-5.337
0.187,0.047,0.307,-5.337
0.190,0.046,0.307,-5.337
0.188,0.047,0.306,-5.337
0.215,0.046,0.303,-5.337
0.322,0.043,0.301,-5.337
0.301,0.045,0.305,-5.337
0.285,0.044,0.305,-5.337
0.214,0.051,0.303,-5.337
0.145,0.052,0.303,-5.337
0.221,0.049,0.306,-5.337
0.267,0.051,0.307,-5.337
0.259,0.051,0.304,-5.337
0.279,0.051,0.300,-5.337
0.239,0.052,0.299,-5.337
0.205,0.053,0.301,-5.337
0.207,0.053,0.307,-5.337
0.197,0.054,0.313,-5.337
0.229,0.053,0.312,-5.337
0.232,0.053,0.309,-5.337
0.147,0.054,0.306,-5.337
0.150,0.052,0.308,-5.337
0.142,0.051,0.308,-5.337
0.139,0.054,0.307,-5.337
0.129,0.055,0.306,-5.337
0.202,0.052,0.308,-5.337
0.267,0.048,0.305,-5.337
0.242,0.047,0.304,-5.337
0.221,0.050,0.307,-5.337
0.212,0.050,0.309,-5.337
0.186,0.048,0.309,-5.337
0.170,0.048,0.309,-5.337
0.196,0.045,0.305,-5.337
0.201,0.044,0.301,-5.337
0.218,0.042,0.301,-5.337
0.219,0.042,0.305,-5.337
0.189,0.046,0.305,-5.337
0.185,0.048,0.306,-5.337
0.183,0.046,0.306,-5.337
0.187,0.048,0.301,-5.337
0.168,0.050,0.296,-5.337
0.181,0.049,0.295,-5.337
0.155,0.049,0.301,-5.337
0.117,0.046,0.306,-5.337
0.139,0.046,0.310,-5.337
0.187,0.050,0.306,-5.337
0.207,0.051,0.303,-5.337
0.181,0.046,0.304,-5.337
0.204,0.047,0.312,-5.337
0.180,0.048,0.310,-5.337
0.202,0.053,0.305,-5.337
0.181,0.053,0.302,-5.337
0.166,0.052,0.304,-5.337
0.170,0.051,0.304,-5.337
0.262,0.052,0.302,-5.337
0.311,0.051,0.298,-5.337
0.299,0.053,0.300,-5.337
0.208,0.056,0.304,-5.337
0.190,0.056,0.307,-5.337
0.244,0.053,0.309,-5.337
0.264,0.052,0.306,-5.337
0.216,0.051,0.302,-5.337
0.231,0.052,0.302,-5.337
0.255,0.048,0.302,-5.337
0.204,0.046,0.301,-5.337
0.202,0.048,0.304,-5.337
0.170,0.054,0.305,-5.337
0.155,0.058,0.307,-5.337
0.229,0.056,0.308,-5.337
0.334,0.053,0.305,-5.337
0.253,0.057,0.301,-5.337
0.221,0.054,0.303,-5.337
0.311,0.050,0.306,-5.337
0.291,0.053,0.307,-5.337
0.267,0.054,0.306,-5.337
0.280,0.055,0.305,-5.337
0.294,0.058,0.307,-5.337
0.268,0.057,0.309,-5.337
0.250,0.058,0.305,-5.337
0.194,0.059,0.303,-5.337
0.154,0.058,0.304,-5.337
0.188,0.058,0.308,-5.337
0.219,0.058,0.307,-5.337
0.204,0.059,0.305,-5.337
0.253,0.056,0.302,-5.337
0.234,0.056,0.302,-5.337
0.228,0.054,0.303,-5.337
0.278,0.054,0.307,-5.337
0.273,0.054,0.306,-5.337
0.270,0.053,0.303,-5.337
0.257,0.053,0.303,-5.337
0.252,0.051,0.301,-5.337
0.208,0.056,0.303,-5.337
0.160,0.060,0.307,-5.337
0.186,0.062,0.312,-5.337
0.186,0.062,0.308,-5.337
0.196,0.062,0.303,-5.337
0.202,0.058,0.301,-5.337
0.201,0.056,0.304,-5.337
0.213,0.053,0.303,-5.337
0.226,0.053,0.303,-5.337
0.256,0.057,0.301,-5.337
0.187,0.060,0.302,-5.337
0.160,0.055,0.304,-5.337
0.201,0.055,0.307,-5.337
0.192,0.056,0.305,-5.337
0.109,0.059,0.300,-5.337
0.144,0.055,0.297,-5.337
0.180,0.057,0.303,-5.337
0.164,0.056,0.307,-5.337
0.255,0.052,0.307,-5.337
0.248,0.054,0.307,-5.337
0.176,0.054,0.308,-5.337
0.205,0.054,0.306,-5.337
0.256,0.054,0.304,-5.337
0.331,0.053,0.304,-5.337
0.289,0.056,0.304,-5.337
0.217,0.060,0.305,-5.337
0.182,0.058,0.304,-5.337
0.232,0.056,0.302,-5.337
0.289,0.055,0.301,-5.337
0.289,0.057,0.303,-5.337
0.236,0.056,0.305,-5.337
0.188,0.055,0.305,-5.337
0.165,0.055,0.306,-5.337
0.222,0.055,0.305,-5.337
0.260,0.056,0.304,-5.337
0.205,0.059,0.307,-5.337
0.185,0.060,0.307,-5.337
0.181,0.063,0.305,-5.337
0.178,0.064,0.305,-5.337
0.219,0.061,0.306,-5.337
0.231,0.061,0.305,-5.337
0.235,0.062,0.306,-5.337
0.226,0.064,0.308,-5.337
0.207,0.062,0.306,-5.337
0.207,0.060,0.306,-5.337
0.274,0.055,0.304,-5.337
0.280,0.056,0.303,-5.337
0.256,0.054,0.306,-5.337
0.240,0.053,0.310,-5.337
0.196,0.054,0.309,-5.337
0.192,0.055,0.306,-5.337
0.226,0.051,0.302,-5.337
0.270,0.054,0.302,-5.337
0.242,0.058,0.301,-5.337
0.243,0.061,0.302,-5.337
0.163,0.060,0.302,-5.337
0.121,0.063,0.303,-5.337
0.088,0.060,0.304,-5.337
0.120,0.057,0.309,-5.337
0.172,0.057,0.308,-5.337
0.210,0.060,0.302,-5.337
0.258,0.062,0.302,-5.337
0.244,0.058,0.305,-5.337
0.206,0.055,0.306,-5.337
0.211,0.056,0.304,-5.337
0.213,0.055,0.302,-5.337
0.179,0.055,0.302,-5.337
0.204,0.054,0.305,-5.337
0.217,0.055,0.304,-5.337
0.239,0.053,0.304,-5.337
0.265,0.049,0.303,-5.337
0.273,0.048,0.305,-5.337
0.232,0.048,0.306,-5.337
0.212,0.051,0.308,-5.337
0.200,0.054,0.305,-5.337
0.156,0.056,0.305,-5.337
0.162,0.052,0.304,-5.337
0.160,0.051,0.303,-5.337
0.198,0.050,0.302,-5.337
0.295,0.047,0.304,-5.337
0.316,0.047,0.305,-5.337
0.232,0.049,0.302,-5.337
0.130,0.050,0.301,-5.337
0.168,0.048,0.305,-5.337
0.203,0.046,0.308,-5.337
0.218,0.047,0.304,-5.337
0.203,0.046,0.305,-5.337
0.209,0.046,0.305,-5.337
0.292,0.046,0.302,-5.337
0.306,0.050,0.298,-5.337
0.272,0.049,0.300,-5.337
0.230,0.045,0.303,-5.337
0.216,0.047,0.307,-5.337
0.167,0.051,0.307,-5.337
0.140,0.054,0.306,-5.337
0.223,0.052,0.305,-5.337
0.307,0.046,0.309,-5.337
0.272,0.047,0.309,-5.337
0.181,0.048,0.307,-5.337
0.181,0.045,0.302,-5.337
0.242,0.045,0.299,-5.337
0.212,0.047,0.299,-5.337
0.113,0.051,0.305,-5.337
0.100,0.050,0.308,-5.337
0.129,0.046,0.310,-5.337
0.169,0.046,0.308,-5.337
0.160,0.049,0.304,-5.337
0.207,0.048,0.300,-5.337
0.234,0.046,0.298,-5.337
0.215,0.045,0.300,-5.337
0.189,0.043,0.305,-5.337
0.168,0.043,0.309,-5.337
0.155,0.045,0.308,-5.337
0.215,0.046,0.305,-5.337
0.164,0.049,0.306,-5.337
0.123,0.051,0.307,-5.337
0.211,0.047,0.306,-5.337
0.211,0.050,0.305,-5.337
0.164,0.049,0.303,-5.337
0.198,0.044,0.301,-5.337
0.242,0.041,0.301,-5.337
0.194,0.044,0.306,-5.337
0.172,0.047,0.309,-5.337
0.180,0.049,0.307,-5.337
0.246,0.046,0.305,-5.337
0.262,0.048,0.305,-5.337
0.187,0.050,0.305,-5.337
0.202,0.049,0.305,-5.337
0.225,0.047,0.302,-5.337
0.172,0.050,0.297,-5.337
0.189,0.046,0.296,-5.337
0.242,0.046,0.300,-5.337
0.258,0.045,0.305,-5.337
0.256,0.044,0.306,-5.337
0.225,0.042,0.306,-5.337
0.185,0.043,0.308,-5.337
0.151,0.047,0.307,-5.337
0.092,0.048,0.301,-5.337
0.105,0.050,0.303,-5.337
0.154,0.050,0.309,-5.337
0.157,0.046,0.310,-5.337
0.210,0.039,0.305,-5.337
0.246,0.035,0.305,-5.337
0.199,0.037,0.306,-5.337
0.133,0.042,0.309,-5.337
0.168,0.041,0.309,-5.337
0.236,0.036,0.308,-5.337
0.232,0.037,0.304,-5.337
0.185,0.041,0.305,-5.337
0.208,0.039,0.306,-5.337
0.203,0.042,0.304,-5.337
0.159,0.044,0.304,-5.337
0.205,0.043,0.306,-5.337
0.196,0.043,0.304,-5.337
0.153,0.043,0.303,-5.337
0.147,0.040,0.306,-5.337
0.131,0.041,0.309,-5.337
0.124,0.041,0.309,-5.337
0.226,0.038,0.307,-5.337
0.316,0.035,0.307,-5.337
0.247,0.036,0.303,-5.337
0.201,0.039,0.300,-5.337
0.227,0.040,0.301,-5.337
0.227,0.041,0.304,-5.337
0.173,0.040,0.307,-5.337
0.127,0.043,0.308,-5.337
0.146,0.043,0.305,-5.337
0.146,0.046,0.304,-5.337
0.149,0.043,0.307,-5.337
0.150,0.042,0.309,-5.337
0.216,0.041,0.308,-5.337
0.212,0.043,0.308,-5.337
0.161,0.043,0.306,-5.337
0.130,0.041,0.307,-5.337
0.156,0.036,0.309,-5.337
0.123,0.037,0.309,-5.337
0.141,0.039,0.306,-5.337
0.147,0.043,0.301,-5.337
0.186,0.040,0.301,-5.337
0.242,0.037,0.305,-5.337
0.177,0.037,0.307,-5.337
0.109,0.037,0.305,-5.337
0.138,0.035,0.305,-5.337
0.187,0.040,0.305,-5.337
0.195,0.041,0.307,-5.337
0.157,0.046,0.306,-5.337
0.122,0.045,0.309,-5.337
0.104,0.043,0.305,-5.337
0.103,0.042,0.305,-5.337
0.135,0.043,0.306,-5.337
0.168,0.041,0.309,-5.337
0.182,0.035,0.308,-5.337
0.159,0.035,0.308,-5.337
0.176,0.036,0.311,-5.337
0.293,0.034,0.307,-5.337
0.301,0.039,0.303,-5.337
0.225,0.039,0.302,-5.337
0.164,0.038,0.306,-5.337
0.155,0.037,0.312,-5.337
0.167,0.040,0.310,-5.337
0.097,0.042,0.305,-5.337
0.079,0.042,0.304,-5.337
0.167,0.044,0.307,-5.337
0.197,0.047,0.309,-5.337
0.152,0.044,0.310,-5.337
0.212,0.038,0.308,-5.337
0.254,0.039,0.302,-5.337
0.178,0.042,0.302,-5.337
0.178,0.042,0.304,-5.337
0.222,0.044,0.306,-5.337
0.210,0.044,0.301,-5.337
0.271,0.046,0.303,-5.337
0.273,0.045,0.305,-5.337
0.236,0.044,0.305,-5.337
0.185,0.042,0.305,-5.337
0.100,0.047,0.303,-5.337
0.112,0.046,0.301,-5.337
0.212,0.045,0.300,-5.337
0.274,0.042,0.304,-5.337
0.237,0.042,0.307,-5.337
0.211,0.043,0.306,-5.337
0.203,0.043,0.305,-5.337
0.154,0.045,0.305,-5.337
0.109,0.045,0.304,-5.337
0.069,0.045,0.303,-5.337
0.100,0.046,0.303,-5.337
0.113,0.047,0.305,-5.337
0.086,0.046,0.307,-5.337
0.077,0.044,0.309,-5.337
0.130,0.040,0.308,-5.337
0.162,0.038,0.308,-5.337
0.169,0.038,0.306,-5.337
0.172,0.037,0.306,-5.337
0.177,0.035,0.304,-5.337
0.184,0.038,0.304,-5.337
0.141,0.039,0.300,-5.337
0.197,0.036,0.300,-5.337
0.290,0.036,0.302,-5.337
0.260,0.041,0.303,-5.337
0.179,0.043,0.303,-5.337
0.161,0.041,0.304,-5.337
0.165,0.035,0.305,-5.337
0.193,0.038,0.304,-5.337
0.219,0.042,0.303,-5.337
0.225,0.042,0.303,-5.337
0.210,0.044,0.305,-5.337
0.176,0.042,0.306,-5.337
0.222,0.037,0.306,-5.337
0.240,0.037,0.306,-5.337
0.232,0.034,0.306,-5.337
0.186,0.035,0.305,-5.337
0.125,0.037,0.305,-5.337
0.182,0.036,0.305,-5.337
0.184,0.036,0.308,-5.337
0.156,0.037,0.306,-5.337
0.144,0.037,0.302,-5.337
0.139,0.035,0.298,-5.337
0.190,0.032,0.301,-5.337
0.194,0.035,0.302,-5.337
0.145,0.036,0.304,-5.337
0.169,0.034,0.308,-5.337
0.161,0.035,0.312,-5.337
0.230,0.030,0.310,-5.337
0.276,0.032,0.303,-5.337
0.220,0.033,0.298,-5.337
0.183,0.033,0.301,-5.337
0.196,0.029,0.303,-5.337
0.251,0.033,0.305,-5.337
0.207,0.034,0.305,-5.337
0.221,0.032,0.305,-5.337
0.289,0.031,0.304,-5.337
0.266,0.033,0.304,-5.337
0.212,0.034,0.304,-5.337
0.155,0.038,0.302,-5.337
0.126,0.038,0.299,-5.337
0.194,0.037,0.302,-5.337
0.234,0.037,0.303,-5.337
0.198,0.034,0.302,-5.337
0.208,0.034,0.305,-5.337
0.199,0.034,0.304,-5.337
0.156,0.033,0.305,-5.337
0.199,0.033,0.304,-5.337
0.201,0.035,0.303,-5.337
0.189,0.036,0.302,-5.337
0.200,0.034,0.299,-5.337
0.198,0.033,0.301,-5.337
0.113,0.038,0.305,-5.337
0.071,0.041,0.310,-5.337
0.077,0.042,0.307,-5.337
0.104,0.037,0.303,-5.337
0.170,0.038,0.301,-5.337
0.119,0.043,0.303,-5.337
0.058,0.043,0.305,-5.337
0.059,0.041,0.303,-5.337
0.070,0.039,0.303,-5.337
0.092,0.038,0.305,-5.337
0.125,0.038,0.300,-5.337
0.123,0.039,0.302,-5.337
0.170,0.036,0.304,-5.337
0.229,0.037,0.308,-5.337
0.171,0.036,0.308,-5.337
0.177,0.037,0.308,-5.337
0.247,0.037,0.305,-5.337
0.258,0.038,0.302,-5.337
0.155,0.038,0.297,-5.337
0.110,0.039,0.300,-5.337
0.172,0.041,0.303,-5.337
0.247,0.038,0.305,-5.337
0.240,0.032,0.306,-5.337
0.158,0.035,0.304,-5.337
0.104,0.038,0.303,-5.337
0.110,0.041,0.303,-5.337
0.155,0.040,0.304,-5.337
0.161,0.042,0.305,-5.337
0.157,0.044,0.303,-5.337
0.247,0.043,0.302,-5.337
0.255,0.039,0.304,-5.337
0.175,0.039,0.304,-5.337
0.161,0.040,0.303,-5.337
0.182,0.044,0.303,-5.337
0.113,0.049,0.306,-5.337
0.051,0.047,0.305,-5.337
0.130,0.043,0.309,-5.337
0.156,0.043,0.307,-5.337
0.110,0.045,0.303,-5.337
0.128,0.044,0.299,-5.337
0.185,0.045,0.304,-5.337
0.181,0.045,0.304,-5.337
0.141,0.047,0.301,-5.337
0.109,0.048,0.302,-5.337
0.094,0.048,0.305,-5.337
0.132,0.043,0.304,-5.337
0.269,0.038,0.301,-5.337
0.338,0.036,0.304,-5.337
0.336,0.043,0.307,-5.337
0.242,0.050,0.308,-5.337
0.127,0.051,0.308,-5.337
0.158,0.048,0.304,-5.337
0.178,0.044,0.300,-5.337
0.163,0.046,0.301,-5.337
0.178,0.046,0.303,-5.337
0.202,0.047,0.305,-5.337
0.190,0.045,0.306,-5.337
0.141,0.043,0.307,-5.337
0.064,0.046,0.305,-5.337
0.080,0.042,0.303,-5.337
0.125,0.038,0.302,-5.337
0.121,0.042,0.304,-5.337
0.140,0.046,0.300,-5.337
0.132,0.044,0.302,-5.337
0.167,0.041,0.307,-5.337
0.225,0.044,0.308,-5.337
0.263,0.042,0.303,-5.337
0.209,0.047,0.301,-5.337
0.164,0.046,0.303,-5.337
0.231,0.045,0.305,-5.337
0.252,0.046,0.305,-5.337
0.232,0.045,0.304,-5.337
0.235,0.045,0.300,-5.337
0.208,0.044,0.299,-5.337
0.159,0.045,0.300,-5.337
0.164,0.048,0.306,-5.337
0.156,0.048,0.308,-5.337
0.175,0.049,0.307,-5.337
0.173,0.051,0.304,-5.337
0.196,0.048,0.300,-5.337
0.216,0.047,0.301,-5.337
0.198,0.052,0.302,-5.337
0.188,0.052,0.305,-5.337
0.169,0.050,0.304,-5.337
0.094,0.052,0.307,-5.337
0.160,0.049,0.304,-5.337
0.192,0.049,0.302,-5.337
0.154,0.047,0.298,-5.337
0.141,0.047,0.299,-5.337
0.182,0.051,0.301,-5.337
0.208,0.052,0.305,-5.337
0.173,0.053,0.305,-5.337
0.159,0.052,0.304,-5.337
0.216,0.050,0.302,-5.337
0.215,0.051,0.301,-5.337
0.212,0.051,0.302,-5.337
0.231,0.049,0.306,-5.337
0.182,0.049,0.307,-5.337
0.134,0.051,0.307,-5.337
0.148,0.049,0.305,-5.337
0.132,0.050,0.302,-5.337
0.122,0.051,0.305,-5.337
0.226,0.049,0.305,-5.337
0.250,0.050,0.302,-5.337
0.222,0.052,0.297,-5.337
0.245,0.050,0.298,-5.337
0.227,0.047,0.304,-5.337
0.194,0.050,0.311,-5.337
0.172,0.052,0.309,-5.337
0.225,0.051,0.306,-5.337
0.267,0.046,0.305,-5.337
0.224,0.050,0.305,-5.337
0.181,0.055,0.302,-5.337
0.180,0.058,0.300,-5.337
0.136,0.060,0.300,-5.337
0.082,0.064,0.299,-5.337
0.134,0.058,0.302,-5.337
0.169,0.053,0.305,-5.337
0.168,0.055,0.304,-5.337
0.159,0.056,0.304,-5.337
0.202,0.052,0.304,-5.337
0.232,0.053,0.301,-5.337
0.170,0.055,0.299,-5.337
0.172,0.052,0.301,-5.337
0.175,0.053,0.305,-5.337
0.167,0.054,0.309,-5.337
0.179,0.053,0.310,-5.337
0.231,0.050,0.307,-5.337
0.227,0.051,0.306,-5.337
0.182,0.052,0.303,-5.337
0.131,0.051,0.303,-5.337
0.136,0.050,0.304,-5.337
0.200,0.049,0.304,-5.337
0.215,0.051,0.304,-5.337
0.210,0.051,0.304,-5.337
0.176,0.052,0.303,-5.337
0.196,0.051,0.302,-5.337
0.211,0.050,0.306,-5.337
0.235,0.049,0.308,-5.337
0.237,0.050,0.309,-5.337
0.228,0.051,0.308,-5.337
0.245,0.052,0.305,-5.337
0.159,0.057,0.304,-5.337
0.162,0.056,0.301,-5.337
0.252,0.055,0.303,-5.337
0.251,0.061,0.308,-5.337
0.215,0.065,0.310,-5.337
0.163,0.064,0.307,-5.337
0.166,0.060,0.302,-5.337
0.181,0.056,0.302,-5.337
0.215,0.056,0.301,-5.337
0.210,0.059,0.301,-5.337
0.243,0.060,0.301,-5.337
0.256,0.061,0.305,-5.337
0.199,0.062,0.307,-5.337
0.127,0.063,0.305,-5.337
0.150,0.061,0.302,-5.337
0.181,0.063,0.305,-5.337
0.180,0.064,0.308,-5.337
0.129,0.060,0.311,-5.337
0.155,0.056,0.309,-5.337
0.213,0.058,0.309,-5.337
0.211,0.062,0.306,-5.337
0.184,0.061,0.303,-5.337
0.226,0.056,0.304,-5.337
0.225,0.060,0.308,-5.337
0.233,0.059,0.307,-5.337
0.213,0.059,0.305,-5.337
0.212,0.058,0.304,-5.337
0.166,0.063,0.304,-5.337
0.187,0.063,0.308,-5.337
0.230,0.060,0.307,-5.337
0.292,0.055,0.306,-5.337
0.302,0.054,0.307,-5.337
0.261,0.059,0.307,-5.337
0.186,0.061,0.302,-5.337
0.125,0.060,0.303,-5.337
0.183,0.060,0.304,-5.337
0.195,0.063,0.306,-5.337
0.235,0.061,0.309,-5.337
0.317,0.057,0.308,-5.337
0.258,0.058,0.305,-5.337
0.169,0.059,0.305,-5.337
0.201,0.060,0.305,-5.337
0.179,0.064,0.307,-5.337
0.178,0.067,0.305,-5.337
0.119,0.068,0.303,-5.337
0.147,0.066,0.302,-5.337
0.222,0.064,0.305,-5.337
0.275,0.060,0.308,-5.337
0.284,0.062,0.307,-5.337
0.235,0.063,0.305,-5.337
0.213,0.062,0.303,-5.337
0.211,0.060,0.304,-5.337
0.200,0.061,0.304,-5.337
0.166,0.064,0.307,-5.337
0.205,0.061,0.306,-5.337
0.247,0.056,0.303,-5.337
0.257,0.053,0.303,-5.337
0.202,0.056,0.305,-5.337
0.162,0.056,0.303,-5.337
0.207,0.056,0.306,-5.337
0.144,0.060,0.308,-5.337
0.125,0.060,0.308,-5.337
0.216,0.058,0.305,-5.337
0.291,0.061,0.303,-5.337
0.271,0.062,0.301,-5.337
0.208,0.063,0.303,-5.337
0.221,0.061,0.304,-5.337
0.243,0.061,0.305,-5.337
0.265,0.060,0.304,-5.337
0.281,0.060,0.305,-5.337
0.267,0.061,0.306,-5.337
0.223,0.061,0.308,-5.337
0.182,0.064,0.305,-5.337
0.141,0.062,0.303,-5.337
0.157,0.062,0.302,-5.337
0.205,0.061,0.302,-5.337
0.200,0.065,0.305,-5.337
0.189,0.063,0.305,-5.337
0.200,0.059,0.304,-5.337
0.219,0.058,0.302,-5.337
0.256,0.061,0.301,-5.337
0.266,0.064,0.301,-5.337
0.256,0.063,0.302,-5.337
0.189,0.064,0.300,-5.337
0.184,0.068,0.302,-5.337
0.214,0.067,0.305,-5.337
0.258,0.067,0.307,-5.337
0.252,0.067,0.309,-5.337
0.245,0.064,0.311,-5.337
0.214,0.062,0.308,-5.337
0.212,0.062,0.302,-5.337
0.246,0.063,0.301,-5.337
0.223,0.068,0.304,-5.337
0.196,0.068,0.302,-5.337
0.212,0.061,0.301,-5.337
0.230,0.062,0.301,-5.337
0.223,0.066,0.302,-5.337
0.230,0.065,0.304,-5.337
0.273,0.060,0.308,-5.337
0.295,0.061,0.307,-5.337
0.210,0.065,0.304,-5.337
0.197,0.063,0.305,-5.337
0.230,0.060,0.305,-5.337
0.212,0.061,0.307,-5.337
0.222,0.063,0.303,-5.337
0.302,0.062,0.301,-5.337
0.261,0.061,0.297,-5.337
0.198,0.062,0.299,-5.337
0.325,0.057,0.304,-5.337
0.390,0.055,0.309,-5.337
0.301,0.057,0.307,-5.337
0.245,0.059,0.304,-5.337
0.261,0.058,0.303,-5.337
0.259,0.057,0.303,-5.337
0.285,0.059,0.300,-5.337
0.251,0.060,0.301,-5.337
0.162,0.063,0.302,-5.337
0.119,0.066,0.303,-5.337
0.123,0.068,0.300,-5.337
0.134,0.061,0.298,-5.337
0.139,0.058,0.298,-5.337
0.146,0.058,0.302,-5.337
0.244,0.058,0.305,-5.337
0.293,0.058,0.309,-5.337
0.285,0.056,0.311,-5.337
0.214,0.058,0.308,-5.337
0.168,0.063,0.306,-5.337
0.123,0.062,0.303,-5.337
0.155,0.059,0.304,-5.337
0.210,0.057,0.304,-5.337
0.209,0.059,0.303,-5.337
0.132,0.062,0.304,-5.337
0.118,0.063,0.303,-5.337
0.156,0.060,0.302,-5.337
0.226,0.055,0.304,-5.337
0.263,0.054,0.305,-5.337
0.247,0.059,0.304,-5.337
0.213,0.064,0.305,-5.337
0.214,0.063,0.306,-5.337
0.205,0.061,0.307,-5.337
0.189,0.059,0.307,-5.337
0.174,0.060,0.305,-5.337
0.212,0.062,0.299,-5.337
0.200,0.061,0.298,-5.337
0.230,0.056,0.301,-5.337
0.256,0.053,0.306,-5.337
0.246,0.052,0.304,-5.337
0.244,0.054,0.302,-5.337
0.205,0.056,0.302,-5.337
0.157,0.059,0.307,-5.337
0.156,0.060,0.308,-5.337
0.199,0.060,0.305,-5.337
0.268,0.056,0.302,-5.337
0.253,0.053,0.300,-5.337
0.197,0.055,0.298,-5.337
0.142,0.058,0.302,-5.337
0.195,0.055,0.306,-5.337
0.282,0.052,0.307,-5.337
0.289,0.051,0.307,-5.337
0.226,0.054,0.307,-5.337
0.224,0.051,0.304,-5.337
0.234,0.054,0.301,-5.337
0.152,0.058,0.303,-5.337
0.126,0.057,0.304,-5.337
0.157,0.055,0.304,-5.337
0.188,0.054,0.302,-5.337
0.227,0.052,0.301,-5.337
0.309,0.047,0.300,-5.337
0.350,0.047,0.302,-5.337
0.273,0.050,0.300,-5.337
0.143,0.056,0.303,-5.337
0.160,0.053,0.305,-5.337
0.187,0.051,0.306,-5.337
0.163,0.052,0.305,-5.337
0.171,0.052,0.305,-5.337
0.222,0.052,0.304,-5.337
0.225,0.049,0.303,-5.337
0.187,0.048,0.301,-5.337
0.142,0.053,0.304,-5.337
0.143,0.050,0.307,-5.337
0.211,0.047,0.307,-5.337
0.228,0.044,0.303,-5.337
0.133,0.048,0.299,-5.337
0.114,0.050,0.301,-5.337
0.213,0.048,0.307,-5.337
0.281,0.044,0.310,-5.337
0.286,0.041,0.307,-5.337
0.269,0.043,0.305,-5.337
0.211,0.046,0.305,-5.337
0.115,0.050,0.302,-5.337
0.132,0.049,0.299,-5.337
0.214,0.046,0.300,-5.337
0.267,0.045,0.303,-5.337
0.269,0.043,0.306,-5.337
0.264,0.045,0.301,-5.337
0.251,0.043,0.296,-5.337
0.229,0.043,0.295,-5.337
0.238,0.047,0.302,-5.337
0.235,0.050,0.307,-5.337
0.147,0.048,0.309,-5.337
0.157,0.042,0.308,-5.337
0.225,0.046,0.306,-5.337
0.169,0.049,0.307,-5.337
0.085,0.052,0.310,-5.337
0.120,0.049,0.312,-5.337
0.214,0.049,0.311,-5.337
0.260,0.049,0.308,-5.337
0.176,0.048,0.304,-5.337
0.164,0.048,0.296,-5.337
0.186,0.046,0.296,-5.337
0.205,0.045,0.299,-5.337
0.138,0.048,0.303,-5.337
0.156,0.049,0.305,-5.337
0.218,0.049,0.307,-5.337
0.232,0.052,0.306,-5.337
0.181,0.055,0.303,-5.337
0.208,0.051,0.298,-5.337
0.207,0.047,0.297,-5.337
0.220,0.045,0.304,-5.337
0.281,0.042,0.304,-5.337
0.258,0.047,0.305,-5.337
0.182,0.052,0.308,-5.337
0.173,0.055,0.307,-5.337
0.195,0.050,0.299,-5.337
0.153,0.052,0.301,-5.337
0.135,0.054,0.309,-5.337
0.151,0.055,0.310,-5.337
0.113,0.053,0.305,-5.337
0.075,0.052,0.302,-5.337
0.092,0.050,0.303,-5.337
0.174,0.046,0.304,-5.337
0.184,0.049,0.306,-5.337
0.146,0.051,0.303,-5.337
0.142,0.044,0.302,-5.337
0.200,0.042,0.302,-5.337
0.181,0.042,0.304,-5.337
0.213,0.041,0.305,-5.337
0.163,0.041,0.307,-5.337
0.133,0.041,0.305,-5.337
0.180,0.041,0.306,-5.337
0.225,0.036,0.303,-5.337
0.194,0.036,0.300,-5.337
0.154,0.036,0.300,-5.337
0.193,0.037,0.302,-5.337
0.209,0.037,0.304,-5.337
0.204,0.041,0.305,-5.337
0.149,0.042,0.303,-5.337
0.130,0.045,0.304,-5.337
0.127,0.041,0.305,-5.337
0.088,0.040,0.306,-5.337
0.131,0.036,0.307,-5.337
0.220,0.037,0.305,-5.337
0.281,0.037,0.304,-5.337
0.306,0.038,0.305,-5.337
0.267,0.035,0.303,-5.337
0.275,0.037,0.302,-5.337
0.240,0.038,0.302,-5.337
0.203,0.039,0.302,-5.337
0.146,0.040,0.304,-5.337
0.183,0.036,0.308,-5.337
0.257,0.038,0.310,-5.337
0.201,0.044,0.307,-5.337
0.158,0.044,0.305,-5.337
0.141,0.045,0.303,-5.337
0.166,0.042,0.301,-5.337
0.165,0.040,0.299,-5.337
0.117,0.042,0.303,-5.337
0.120,0.042,0.309,-5.337
0.121,0.044,0.310,-5.337
0.153,0.042,0.308,-5.337
0.167,0.043,0.306,-5.337
0.161,0.042,0.305,-5.337
0.145,0.040,0.306,-5.337
0.157,0.039,0.309,-5.337
0.187,0.042,0.310,-5.337
0.170,0.040,0.304,-5.337
0.201,0.035,0.301,-5.337
0.212,0.039,0.303,-5.337
0.192,0.038,0.303,-5.337
0.180,0.036,0.298,-5.337
0.209,0.033,0.296,-5.337
0.179,0.036,0.303,-5.337
0.144,0.040,0.308,-5.337
0.114,0.041,0.310,-5.337
0.155,0.036,0.308,-5.337
0.243,0.030,0.308,-5.337
0.245,0.031,0.306,-5.337
0.222,0.035,0.306,-5.337
0.218,0.038,0.306,-5.337
0.249,0.037,0.308,-5.337
0.241,0.036,0.308,-5.337
0.215,0.037,0.306,-5.337
0.202,0.033,0.305,-5.337
0.162,0.037,0.308,-5.337
0.122,0.040,0.311,-5.337
0.059,0.039,0.312,-5.337
0.122,0.039,0.311,-5.337
0.114,0.041,0.309,-5.337
0.118,0.040,0.307,-5.337
0.192,0.035,0.309,-5.337
0.193,0.039,0.309,-5.337
0.166,0.038,0.305,-5.337
0.170,0.039,0.304,-5.337
0.244,0.034,0.301,-5.337
0.239,0.032,0.300,-5.337
0.201,0.038,0.302,-5.337
0.155,0.043,0.307,-5.337
0.171,0.041,0.312,-5.337
0.201,0.036,0.317,-5.337
0.224,0.035,0.314,-5.337
0.211,0.037,0.308,-5.337
0.198,0.032,0.303,-5.337
0.221,0.032,0.304,-5.337
0.234,0.031,0.303,-5.337
0.218,0.030,0.301,-5.337
0.205,0.032,0.303,-5.337
0.175,0.035,0.306,-5.337
0.169,0.033,0.308,-5.337
0.208,0.032,0.308,-5.337
0.232,0.032,0.304,-5.337
0.205,0.032,0.301,-5.337
0.163,0.035,0.303,-5.337
0.191,0.037,0.305,-5.337
0.248,0.035,0.305,-5.337
0.229,0.036,0.308,-5.337
0.196,0.036,0.308,-5.337
0.165,0.039,0.306,-5.337
0.114,0.043,0.305,-5.337
0.097,0.037,0.305,-5.337
0.169,0.030,0.309,-5.337
0.188,0.034,0.307,-5.337
0.144,0.039,0.307,-5.337
0.093,0.037,0.310,-5.337
0.132,0.034,0.307,-5.337
0.161,0.033,0.304,-5.337
0.226,0.028,0.306,-5.337
0.249,0.025,0.305,-5.337
0.192,0.028,0.304,-5.337
0.126,0.032,0.302,-5.337
0.167,0.031,0.299,-5.337
0.218,0.030,0.297,-5.337
0.167,0.037,0.298,-5.337
0.104,0.039,0.301,-5.337
0.120,0.039,0.303,-5.337
0.115,0.039,0.304,-5.337
0.128,0.033,0.306,-5.337
0.190,0.033,0.306,-5.337
0.138,0.037,0.305,-5.337
0.120,0.037,0.304,-5.337
0.156,0.037,0.302,-5.337
0.162,0.035,0.301,-5.337
0.207,0.031,0.304,-5.337
0.151,0.034,0.305,-5.337
0.152,0.034,0.303,-5.337
0.145,0.034,0.304,-5.337
0.141,0.035,0.306,-5.337
0.146,0.036,0.302,-5.337
0.091,0.034,0.300,-5.337
-0.005,0.037,0.303,-5.337
0.067,0.033,0.308,-5.337
0.202,0.032,0.309,-5.337
0.218,0.032,0.305,-5.337
0.173,0.035,0.303,-5.337
0.201,0.032,0.302,-5.337
0.217,0.033,0.300,-5.337
0.190,0.032,0.301,-5.337
0.159,0.032,0.302,-5.337
0.133,0.031,0.302,-5.337
0.173,0.032,0.304,-5.337
0.253,0.032,0.307,-5.337
0.240,0.034,0.308,-5.337
0.204,0.031,0.306,-5.337
0.216,0.033,0.304,-5.337
0.214,0.034,0.302,-5.337
0.186,0.035,0.304,-5.337
0.176,0.036,0.302,-5.337
0.160,0.036,0.300,-5.337
0.150,0.035,0.300,-5.337
0.145,0.036,0.304,-5.337
0.142,0.037,0.308,-5.337
0.157,0.037,0.309,-5.337
0.229,0.036,0.310,-5.337
0.250,0.034,0.307,-5.337
0.202,0.037,0.305,-5.337
0.137,0.038,0.300,-5.337
0.149,0.038,0.298,-5.337
0.171,0.037,0.297,-5.337
0.211,0.036,0.299,-5.337
0.201,0.038,0.305,-5.337
0.160,0.039,0.310,-5.337
0.206,0.036,0.309,-5.337
0.201,0.038,0.308,-5.337
0.199,0.042,0.303,-5.337
0.235,0.042,0.296,-5.337
0.251,0.039,0.299,-5.337
0.226,0.039,0.304,-5.337
0.197,0.040,0.307,-5.337
0.148,0.041,0.305,-5.337
0.090,0.044,0.304,-5.337
0.105,0.041,0.306,-5.337
0.215,0.041,0.306,-5.337
0.231,0.042,0.304,-5.337
0.178,0.041,0.305,-5.337
0.179,0.041,0.307,-5.337
0.163,0.041,0.306,-5.337
0.143,0.041,0.299,-5.337
0.161,0.043,0.297,-5.337
0.230,0.038,0.298,-5.337
0.192,0.041,0.303,-5.337
0.183,0.039,0.305,-5.337
0.183,0.042,0.305,-5.337
0.108,0.042,0.302,-5.337
0.133,0.042,0.299,-5.337
0.167,0.040,0.298,-5.337
0.199,0.041,0.303,-5.337
0.202,0.041,0.307,-5.337
0.177,0.042,0.311,-5.337
0.160,0.041,0.308,-5.337
0.165,0.040,0.302,-5.337
0.188,0.041,0.304,-5.337
0.165,0.040,0.305,-5.337
0.159,0.036,0.306,-5.337
0.181,0.037,0.305,-5.337
0.210,0.037,0.303,-5.337
0.215,0.038,0.303,-5.337
0.180,0.038,0.306,-5.337
0.213,0.037,0.307,-5.337
0.186,0.038,0.304,-5.337
0.141,0.040,0.299,-5.337
0.104,0.040,0.301,-5.337
0.129,0.039,0.305,-5.337
0.208,0.035,0.308,-5.337
0.246,0.036,0.309,-5.337
0.180,0.040,0.307,-5.337
0.099,0.043,0.304,-5.337
0.134,0.043,0.300,-5.337
0.174,0.043,0.298,-5.337
0.236,0.040,0.301,-5.337
0.205,0.042,0.302,-5.337
0.158,0.044,0.302,-5.337
0.103,0.045,0.303,-5.337
0.129,0.045,0.305,-5.337
0.140,0.046,0.305,-5.337
0.160,0.045,0.305,-5.337
0.162,0.046,0.307,-5.337
0.162,0.045,0.305,-5.337
0.169,0.044,0.304,-5.337
0.198,0.045,0.301,-5.337
0.212,0.050,0.306,-5.337
0.157,0.047,0.310,-5.337
0.064,0.047,0.311,-5.337
0.063,0.044,0.308,-5.337
0.178,0.042,0.307,-5.337
0.229,0.042,0.306,-5.337
0.212,0.041,0.305,-5.337
0.173,0.042,0.306,-5.337
0.132,0.043,0.301,-5.337
0.160,0.040,0.301,-5.337
0.244,0.042,0.304,-5.337
0.192,0.045,0.304,-5.337
0.136,0.047,0.302,-5.337
0.101,0.046,0.302,-5.337
0.146,0.045,0.301,-5.337
0.117,0.044,0.300,-5.337
0.118,0.045,0.303,-5.337
0.204,0.045,0.304,-5.337
0.230,0.043,0.301,-5.337
0.178,0.043,0.302,-5.337
0.184,0.045,0.304,-5.337
0.281,0.040,0.306,-5.337
0.252,0.041,0.305,-5.337
0.195,0.045,0.304,-5.337
0.197,0.043,0.307,-5.337
0.209,0.044,0.309,-5.337
0.164,0.049,0.304,-5.337
0.074,0.050,0.301,-5.337
0.083,0.047,0.301,-5.337
0.156,0.047,0.302,-5.337
0.182,0.044,0.305,-5.337
0.235,0.040,0.306,-5.337
0.263,0.039,0.305,-5.337
0.207,0.043,0.307,-5.337
0.175,0.044,0.307,-5.337
0.179,0.046,0.304,-5.337
0.259,0.042,0.304,-5.337
0.326,0.038,0.306,-5.337
0.288,0.042,0.306,-5.337
0.219,0.047,0.307,-5.337
0.193,0.048,0.307,-5.337
0.188,0.047,0.303,-5.337
0.207,0.046,0.302,-5.337
0.164,0.046,0.306,-5.337
0.162,0.046,0.310,-5.337
0.183,0.045,0.306,-5.337
0.211,0.046,0.303,-5.337
0.222,0.049,0.305,-5.337
0.181,0.051,0.306,-5.337
0.128,0.051,0.304,-5.337
0.174,0.050,0.305,-5.337
0.215,0.046,0.306,-5.337
0.223,0.046,0.309,-5.337
0.205,0.047,0.308,-5.337
0.180,0.051,0.302,-5.337
0.152,0.052,0.299,-5.337
0.208,0.049,0.302,-5.337
0.216,0.051,0.302,-5.337
0.198,0.051,0.303,-5.337
0.220,0.049,0.305,-5.337
0.195,0.049,0.306,-5.337
0.194,0.050,0.303,-5.337
0.253,0.050,0.304,-5.337
0.330,0.049,0.308,-5.337
0.271,0.049,0.309,-5.337
0.210,0.050,0.307,-5.337
0.187,0.050,0.303,-5.337
0.179,0.051,0.302,-5.337
0.232,0.050,0.303,-5.337
0.242,0.053,0.306,-5.337
0.228,0.053,0.308,-5.337
0.160,0.055,0.308,-5.337
0.150,0.055,0.305,-5.337
0.230,0.050,0.302,-5.337
0.276,0.050,0.305,-5.337
0.259,0.052,0.306,-5.337
0.190,0.050,0.305,-5.337
0.202,0.051,0.303,-5.337
0.256,0.049,0.301,-5.337
0.283,0.048,0.303,-5.337
0.316,0.050,0.307,-5.337
0.286,0.051,0.308,-5.337
0.193,0.055,0.306,-5.337
0.163,0.055,0.304,-5.337
0.181,0.053,0.304,-5.337
0.184,0.051,0.301,-5.337
0.189,0.049,0.301,-5.337
0.207,0.051,0.301,-5.337
0.219,0.052,0.305,-5.337
0.233,0.052,0.308,-5.337
0.215,0.051,0.311,-5.337
0.203,0.051,0.307,-5.337
0.204,0.053,0.306,-5.337
0.193,0.053,0.307,-5.337
0.140,0.056,0.309,-5.337
0.184,0.052,0.306,-5.337
0.248,0.051,0.305,-5.337
0.259,0.053,0.309,-5.337
0.257,0.053,0.310,-5.337
0.258,0.051,0.305,-5.337
0.258,0.054,0.303,-5.337
0.219,0.056,0.302,-5.337
0.192,0.056,0.304,-5.337
0.221,0.055,0.304,-5.337
0.227,0.054,0.304,-5.337
0.195,0.056,0.306,-5.337
0.179,0.057,0.308,-5.337
0.231,0.056,0.308,-5.337
0.244,0.054,0.308,-5.337
0.171,0.056,0.311,-5.337
0.118,0.059,0.312,-5.337
0.182,0.056,0.308,-5.337
0.188,0.054,0.303,-5.337
0.143,0.057,0.303,-5.337
0.192,0.060,0.303,-5.337
0.153,0.058,0.306,-5.337
0.140,0.059,0.309,-5.337
0.191,0.061,0.308,-5.337
0.192,0.057,0.307,-5.337
0.186,0.056,0.307,-5.337
0.192,0.056,0.304,-5.337
0.178,0.057,0.305,-5.337
0.212,0.055,0.307,-5.337
0.260,0.054,0.311,-5.337
0.272,0.053,0.309,-5.337
0.238,0.057,0.303,-5.337
0.225,0.056,0.300,-5.337
0.134,0.059,0.301,-5.337
0.137,0.058,0.303,-5.337
0.177,0.060,0.311,-5.337
0.188,0.057,0.317,-5.337
0.198,0.053,0.311,-5.337
0.169,0.054,0.304,-5.337
0.222,0.052,0.304,-5.337
0.219,0.052,0.308,-5.337
0.182,0.055,0.307,-5.337
0.209,0.057,0.308,-5.337
0.250,0.060,0.308,-5.337
0.176,0.060,0.310,-5.337
0.176,0.058,0.308,-5.337
0.206,0.059,0.305,-5.337
0.242,0.058,0.305,-5.337
0.285,0.056,0.303,-5.337
0.240,0.054,0.299,-5.337
0.233,0.057,0.301,-5.337
0.274,0.054,0.306,-5.337
0.320,0.055,0.310,-5.337
0.297,0.054,0.305,-5.337
0.198,0.054,0.302,-5.337
0.132,0.054,0.303,-5.337
0.171,0.055,0.303,-5.337
0.196,0.053,0.301,-5.337
0.205,0.053,0.303,-5.337
0.251,0.055,0.307,-5.337
0.233,0.058,0.307,-5.337
0.136,0.061,0.306,-5.337
0.172,0.057,0.306,-5.337
0.260,0.055,0.304,-5.337
0.257,0.060,0.304,-5.337
0.206,0.060,0.305,-5.337
0.247,0.058,0.303,-5.337
0.265,0.055,0.302,-5.337
0.212,0.055,0.303,-5.337
0.151,0.060,0.308,-5.337
0.199,0.063,0.308,-5.337
0.212,0.060,0.304,-5.337
0.189,0.053,0.301,-5.337
0.238,0.052,0.302,-5.337
0.230,0.057,0.305,-5.337
0.200,0.056,0.305,-5.337
0.247,0.054,0.303,-5.337
0.212,0.055,0.300,-5.337
0.105,0.059,0.301,-5.337
0.124,0.055,0.305,-5.337
0.187,0.052,0.309,-5.337
0.230,0.049,0.310,-5.337
0.246,0.049,0.310,-5.337
0.270,0.050,0.309,-5.337
0.232,0.050,0.306,-5.337
0.243,0.048,0.303,-5.337
0.283,0.047,0.303,-5.337
0.138,0.053,0.301,-5.337
0.074,0.052,0.301,-5.337
0.174,0.049,0.302,-5.337
0.264,0.045,0.303,-5.337
0.266,0.047,0.302,-5.337
0.211,0.050,0.300,-5.337
0.177,0.047,0.303,-5.337
0.197,0.048,0.307,-5.337
0.200,0.049,0.308,-5.337
0.129,0.053,0.304,-5.337
0.153,0.051,0.298,-5.337
0.242,0.051,0.299,-5.337
0.252,0.054,0.302,-5.337
0.181,0.057,0.303,-5.337
0.122,0.056,0.302,-5.337
0.135,0.057,0.304,-5.337
0.209,0.057,0.307,-5.337
0.303,0.055,0.306,-5.337
0.281,0.054,0.308,-5.337
0.309,0.054,0.307,-5.337
0.307,0.053,0.306,-5.337
0.235,0.056,0.302,-5.337
0.245,0.052,0.300,-5.337
0.267,0.051,0.302,-5.337
0.210,0.055,0.306,-5.337
0.117,0.054,0.306,-5.337
0.181,0.049,0.307,-5.337
0.195,0.048,0.304,-5.337
0.123,0.048,0.300,-5.337
0.084,0.048,0.297,-5.337
0.138,0.047,0.301,-5.337
0.184,0.049,0.306,-5.337
0.170,0.052,0.311,-5.337
0.120,0.053,0.308,-5.337
0.151,0.053,0.304,-5.337
0.221,0.051,0.303,-5.337
0.174,0.052,0.305,-5.337
0.092,0.054,0.306,-5.337
0.123,0.054,0.305,-5.337
0.236,0.050,0.304,-5.337
0.237,0.052,0.306,-5.337
0.197,0.052,0.307,-5.337
0.258,0.044,0.305,-5.337
0.258,0.047,0.303,-5.337
0.171,0.048,0.301,-5.337
0.208,0.045,0.299,-5.337
0.292,0.043,0.299,-5.337
0.251,0.046,0.303,-5.337
0.265,0.047,0.306,-5.337
0.220,0.046,0.308,-5.337
0.183,0.046,0.308,-5.337
0.107,0.053,0.308,-5.337
0.054,0.054,0.304,-5.337
0.155,0.051,0.302,-5.337
0.202,0.049,0.304,-5.337
0.206,0.046,0.303,-5.337
0.231,0.044,0.304,-5.337
0.264,0.043,0.307,-5.337
0.283,0.044,0.308,-5.337
0.281,0.047,0.307,-5.337
0.240,0.049,0.307,-5.337
0.170,0.048,0.309,-5.337
0.171,0.048,0.312,-5.337
0.147,0.044,0.311,-5.337
0.188,0.038,0.306,-5.337
0.217,0.037,0.303,-5.337
0.184,0.039,0.304,-5.337
0.162,0.040,0.301,-5.337
0.201,0.040,0.300,-5.337
0.207,0.040,0.300,-5.337
0.137,0.045,0.302,-5.337
0.104,0.046,0.301,-5.337
0.155,0.042,0.304,-5.337
0.144,0.042,0.303,-5.337
0.130,0.043,0.302,-5.337
0.153,0.041,0.300,-5.337
0.158,0.044,0.303,-5.337
0.203,0.038,0.304,-5.337
0.189,0.043,0.304,-5.337
0.155,0.043,0.306,-5.337
0.201,0.041,0.306,-5.337
0.256,0.037,0.306,-5.337
0.223,0.041,0.302,-5.337
0.152,0.042,0.303,-5.337
0.181,0.041,0.308,-5.337
0.226,0.042,0.309,-5.337
0.173,0.043,0.306,-5.337
0.114,0.044,0.303,-5.337
0.104,0.045,0.302,-5.337
-0.001,0.046,0.305,-5.337
0.062,0.044,0.305,-5.337
0.139,0.046,0.308,-5.337
0.167,0.045,0.305,-5.337
0.143,0.043,0.303,-5.337
0.177,0.041,0.300,-5.337
0.237,0.041,0.303,-5.337
0.197,0.042,0.305,-5.337
0.192,0.041,0.304,-5.337
0.208,0.042,0.305,-5.337
0.244,0.042,0.309,-5.337
0.205,0.042,0.306,-5.337
0.184,0.041,0.301,-5.337
0.156,0.042,0.300,-5.337
0.158,0.045,0.303,-5.337
0.118,0.046,0.304,-5.337
0.179,0.043,0.306,-5.337
0.209,0.038,0.308,-5.337
0.221,0.040,0.309,-5.337
0.189,0.037,0.306,-5.337
0.182,0.036,0.305,-5.337
0.167,0.037,0.304,-5.337
0.192,0.039,0.301,-5.337
0.240,0.035,0.301,-5.337
0.233,0.034,0.304,-5.337
0.185,0.035,0.307,-5.337
0.119,0.035,0.303,-5.337
0.110,0.035,0.303,-5.337
0.128,0.036,0.302,-5.337
0.153,0.036,0.305,-5.337
0.120,0.036,0.304,-5.337
0.065,0.042,0.303,-5.337
0.090,0.042,0.302,-5.337
0.172,0.040,0.303,-5.337
0.202,0.037,0.304,-5.337
0.232,0.038,0.304,-5.337
0.180,0.043,0.302,-5.337
0.127,0.041,0.299,-5.337
0.126,0.038,0.300,-5.337
0.183,0.040,0.301,-5.337
0.161,0.042,0.302,-5.337
0.180,0.039,0.308,-5.337
0.206,0.039,0.312,-5.337
0.189,0.039,0.315,-5.337
0.184,0.042,0.312,-5.337
0.154,0.044,0.308,-5.337
0.170,0.038,0.303,-5.337
0.246,0.034,0.302,-5.337
0.253,0.038,0.303,-5.337
0.212,0.040,0.304,-5.337
0.133,0.042,0.303,-5.337
0.108,0.043,0.301,-5.337
0.079,0.042,0.301,-5.337
0.174,0.037,0.301,-5.337
0.170,0.042,0.302,-5.337
0.064,0.045,0.305,-5.337
0.051,0.044,0.307,-5.337
0.158,0.042,0.306,-5.337
0.179,0.041,0.307,-5.337
0.176,0.034,0.311,-5.337
0.225,0.035,0.308,-5.337
0.210,0.039,0.302,-5.337
0.168,0.038,0.300,-5.337
0.155,0.037,0.301,-5.337
0.167,0.036,0.305,-5.337
0.215,0.037,0.305,-5.337
0.195,0.038,0.306,-5.337
0.172,0.039,0.309,-5.337
0.212,0.039,0.307,-5.337
0.182,0.040,0.306,-5.337
0.168,0.038,0.305,-5.337
0.213,0.038,0.304,-5.337
0.176,0.039,0.298,-5.337
0.143,0.041,0.296,-5.337
0.176,0.042,0.300,-5.337
0.194,0.038,0.305,-5.337
0.192,0.036,0.309,-5.337
0.173,0.040,0.309,-5.337
0.171,0.038,0.307,-5.337
0.183,0.040,0.306,-5.337
0.148,0.041,0.303,-5.337
0.127,0.043,0.300,-5.337
0.070,0.043,0.301,-5.337
0.077,0.045,0.304,-5.337
0.119,0.042,0.306,-5.337
0.154,0.042,0.306,-5.337
0.145,0.042,0.304,-5.337
0.183,0.041,0.306,-5.337
0.190,0.040,0.310,-5.337
0.156,0.040,0.307,-5.337
0.180,0.039,0.303,-5.337
0.186,0.040,0.302,-5.337
0.134,0.040,0.307,-5.337
0.137,0.041,0.309,-5.337
0.175,0.042,0.311,-5.337
0.176,0.038,0.310,-5.337
0.204,0.038,0.307,-5.337
0.207,0.036,0.307,-5.337
0.149,0.037,0.308,-5.337
0.114,0.040,0.306,-5.337
0.110,0.044,0.304,-5.337
0.092,0.041,0.303,-5.337
0.143,0.036,0.304,-5.337
0.161,0.037,0.307,-5.337
0.145,0.040,0.305,-5.337
0.169,0.041,0.304,-5.337
0.151,0.038,0.307,-5.337
0.143,0.040,0.311,-5.337
0.101,0.041,0.311,-5.337
0.080,0.043,0.311,-5.337
0.142,0.038,0.312,-5.337
0.259,0.036,0.311,-5.337
0.209,0.039,0.307,-5.337
0.093,0.041,0.307,-5.337
0.109,0.038,0.305,-5.337
0.161,0.037,0.306,-5.337
0.146,0.042,0.305,-5.337
0.136,0.044,0.307,-5.337
0.180,0.039,0.304,-5.337
0.220,0.035,0.303,-5.337
0.223,0.031,0.304,-5.337
0.236,0.037,0.306,-5.337
0.238,0.036,0.308,-5.337
0.165,0.037,0.310,-5.337
0.081,0.034,0.312,-5.337
0.115,0.034,0.311,-5.337
0.201,0.034,0.308,-5.337
0.232,0.040,0.304,-5.337
0.202,0.037,0.303,-5.337
0.205,0.036,0.304,-5.337
0.155,0.039,0.306,-5.337
0.164,0.042,0.311,-5.337
0.189,0.044,0.309,-5.337
0.168,0.045,0.305,-5.337
0.132,0.041,0.305,-5.337
0.125,0.040,0.305,-5.337
0.107,0.041,0.307,-5.337
0.135,0.040,0.303,-5.337
0.164,0.039,0.304,-5.337
0.186,0.040,0.305,-5.337
0.180,0.042,0.308,-5.337
0.174,0.038,0.309,-5.337
0.141,0.041,0.310,-5.337
0.095,0.043,0.307,-5.337
0.129,0.044,0.304,-5.337
0.177,0.042,0.302,-5.337
0.197,0.041,0.305,-5.337
0.177,0.040,0.307,-5.337
0.083,0.041,0.310,-5.337
0.052,0.038,0.311,-5.337
0.069,0.039,0.305,-5.337
0.187,0.034,0.304,-5.337
0.261,0.033,0.309,-5.337
0.231,0.034,0.310,-5.337
0.160,0.036,0.308,-5.337
0.193,0.032,0.303,-5.337
0.198,0.032,0.300,-5.337
0.186,0.032,0.301,-5.337
0.141,0.036,0.305,-5.337
0.159,0.035,0.306,-5.337
0.119,0.034,0.305,-5.337
0.101,0.035,0.307,-5.337
0.158,0.032,0.308,-5.337
0.248,0.033,0.305,-5.337
0.217,0.035,0.299,-5.337
0.144,0.038,0.297,-5.337
0.164,0.038,0.300,-5.337
0.168,0.036,0.307,-5.337
0.168,0.033,0.308,-5.337
0.152,0.036,0.306,-5.337
0.066,0.041,0.301,-5.337
0.109,0.041,0.301,-5.337
0.205,0.035,0.302,-5.337
0.227,0.032,0.305,-5.337
0.227,0.033,0.310,-5.337
0.111,0.040,0.312,-5.337
0.077,0.039,0.307,-5.337
0.121,0.037,0.303,-5.337
0.190,0.034,0.302,-5.337
0.197,0.037,0.304,-5.337
0.166,0.042,0.304,-5.337
0.152,0.045,0.301,-5.337
0.208,0.042,0.301,-5.337
0.255,0.040,0.303,-5.337
0.210,0.043,0.304,-5.337
0.064,0.047,0.304,-5.337
0.036,0.047,0.304,-5.337
0.033,0.045,0.302,-5.337
0.076,0.042,0.303,-5.337
0.188,0.041,0.301,-5.337
0.237,0.040,0.302,-5.337
0.181,0.042,0.302,-5.337
0.133,0.046,0.305,-5.337
0.157,0.046,0.302,-5.337
0.144,0.048,0.304,-5.337
0.104,0.045,0.302,-5.337
0.137,0.042,0.302,-5.337
0.148,0.040,0.304,-5.337
0.147,0.043,0.304,-5.337
0.172,0.046,0.305,-5.337
0.180,0.047,0.308,-5.337
0.179,0.042,0.309,-5.337
0.225,0.038,0.307,-5.337
0.249,0.040,0.301,-5.337
0.177,0.041,0.298,-5.337
0.123,0.041,0.299,-5.337
0.156,0.038,0.299,-5.337
0.202,0.037,0.302,-5.337
0.168,0.042,0.302,-5.337
0.158,0.043,0.305,-5.337
0.144,0.043,0.302,-5.337
0.143,0.044,0.305,-5.337
0.158,0.046,0.308,-5.337
0.173,0.048,0.311,-5.337
0.202,0.045,0.309,-5.337
0.179,0.047,0.307,-5.337
0.139,0.048,0.304,-5.337
0.107,0.051,0.301,-5.337
0.129,0.046,0.302,-5.337
0.185,0.043,0.303,-5.337
0.204,0.040,0.301,-5.337
0.235,0.042,0.304,-5.337
0.208,0.044,0.307,-5.337
0.133,0.046,0.306,-5.337
0.162,0.047,0.303,-5.337
0.244,0.044,0.304,-5.337
0.208,0.045,0.303,-5.337
0.151,0.047,0.304,-5.337
0.123,0.043,0.305,-5.337
0.195,0.043,0.308,-5.337
0.253,0.048,0.309,-5.337
0.200,0.051,0.306,-5.337
0.130,0.049,0.303,-5.337
0.152,0.046,0.301,-5.337
0.186,0.045,0.303,-5.337
0.137,0.047,0.305,-5.337
0.133,0.047,0.306,-5.337
0.191,0.042,0.307,-5.337
0.237,0.046,0.306,-5.337
0.279,0.047,0.305,-5.337
0.195,0.050,0.302,-5.337
0.138,0.048,0.303,-5.337
0.177,0.049,0.307,-5.337
0.183,0.051,0.305,-5.337
0.148,0.051,0.303,-5.337
0.096,0.049,0.300,-5.337
0.180,0.044,0.302,-5.337
0.176,0.046,0.303,-5.337
0.159,0.045,0.304,-5.337
0.201,0.043,0.305,-5.337
0.173,0.045,0.306,-5.337
0.186,0.043,0.305,-5.337
0.209,0.042,0.306,-5.337
0.213,0.037,0.302,-5.337
0.181,0.038,0.297,-5.337
0.178,0.042,0.302,-5.337
0.209,0.043,0.306,-5.337
0.179,0.042,0.308,-5.337
0.171,0.042,0.306,-5.337
0.203,0.042,0.304,-5.337
0.204,0.047,0.304,-5.337
0.200,0.050,0.309,-5.337
0.229,0.048,0.310,-5.337
0.192,0.051,0.304,-5.337
0.104,0.052,0.298,-5.337
0.139,0.050,0.298,-5.337
0.156,0.049,0.301,-5.337
0.151,0.048,0.302,-5.337
0.178,0.048,0.304,-5.337
0.226,0.046,0.306,-5.337
0.237,0.043,0.307,-5.337
0.212,0.047,0.304,-5.337
0.197,0.049,0.302,-5.337
0.289,0.048,0.302,-5.337
0.312,0.044,0.304,-5.337
0.240,0.046,0.306,-5.337
0.118,0.049,0.305,-5.337
0.111,0.047,0.305,-5.337
0.145,0.047,0.302,-5.337
0.244,0.047,0.300,-5.337
0.221,0.048,0.300,-5.337
0.160,0.051,0.300,-5.337
0.160,0.054,0.302,-5.337
0.175,0.054,0.305,-5.337
0.198,0.050,0.307,-5.337
0.283,0.048,0.307,-5.337
0.193,0.050,0.306,-5.337
0.116,0.055,0.303,-5.337
0.172,0.052,0.303,-5.337
0.241,0.047,0.306,-5.337
0.190,0.047,0.304,-5.337
0.113,0.053,0.301,-5.337
0.098,0.049,0.304,-5.337
0.195,0.043,0.308,-5.337
0.216,0.051,0.307,-5.337
0.150,0.056,0.302,-5.337
0.114,0.055,0.299,-5.337
0.153,0.051,0.300,-5.337
0.180,0.050,0.300,-5.337
0.193,0.050,0.302,-5.337
0.191,0.053,0.305,-5.337
0.101,0.058,0.307,-5.337
0.078,0.056,0.305,-5.337
0.136,0.052,0.305,-5.337
0.213,0.052,0.306,-5.337
0.246,0.053,0.309,-5.337
0.239,0.053,0.306,-5.337
0.165,0.051,0.303,-5.337
0.180,0.050,0.300,-5.337
0.226,0.054,0.302,-5.337
0.197,0.054,0.304,-5.337
0.145,0.058,0.303,-5.337
0.153,0.056,0.302,-5.337
0.154,0.055,0.305,-5.337
0.190,0.056,0.307,-5.337
0.205,0.055,0.305,-5.337
0.166,0.057,0.302,-5.337
0.141,0.057,0.305,-5.337
0.202,0.058,0.307,-5.337
0.217,0.058,0.309,-5.337
0.265,0.055,0.306,-5.337
0.237,0.057,0.301,-5.337
0.171,0.060,0.299,-5.337
0.125,0.060,0.301,-5.337
0.211,0.057,0.305,-5.337
0.217,0.058,0.305,-5.337
0.157,0.058,0.305,-5.337
0.129,0.055,0.301,-5.337
0.153,0.055,0.301,-5.337
0.172,0.056,0.303,-5.337
0.127,0.057,0.305,-5.337
0.148,0.057,0.303,-5.337
0.240,0.054,0.303,-5.337
0.253,0.053,0.302,-5.337
0.181,0.055,0.301,-5.337
0.184,0.053,0.303,-5.337
0.220,0.053,0.302,-5.337
0.201,0.055,0.302,-5.337
0.167,0.055,0.303,-5.337
0.239,0.052,0.304,-5.337
0.244,0.054,0.302,-5.337
0.285,0.050,0.303,-5.337
0.365,0.052,0.305,-5.337
0.232,0.057,0.305,-5.337
0.157,0.059,0.302,-5.337
0.202,0.058,0.301,-5.337
0.237,0.057,0.303,-5.337
0.229,0.060,0.310,-5.337
0.217,0.057,0.311,-5.337
0.231,0.057,0.306,-5.337
0.224,0.056,0.303,-5.337
0.245,0.056,0.307,-5.337
0.237,0.052,0.307,-5.337
0.243,0.051,0.307,-5.337
0.208,0.054,0.306,-5.337
0.177,0.058,0.304,-5.337
0.184,0.060,0.301,-5.337
0.185,0.061,0.301,-5.337
0.097,0.059,0.304,-5.337
0.081,0.060,0.306,-5.337
0.168,0.057,0.304,-5.337
0.233,0.058,0.305,-5.337
0.198,0.060,0.308,-5.337
0.205,0.059,0.309,-5.337
0.271,0.055,0.309,-5.337
0.279,0.054,0.305,-5.337
0.214,0.058,0.301,-5.337
0.216,0.060,0.303,-5.337
0.230,0.054,0.306,-5.337
0.281,0.050,0.306,-5.337
0.267,0.053,0.308,-5.337
0.242,0.057,0.306,-5.337
0.281,0.055,0.306,-5.337
0.275,0.056,0.305,-5.337
0.223,0.057,0.305,-5.337
0.190,0.054,0.305,-5.337
0.181,0.055,0.308,-5.337
0.180,0.056,0.311,-5.337
0.153,0.059,0.311,-5.337
0.095,0.056,0.304,-5.337
0.171,0.051,0.303,-5.337
0.230,0.053,0.307,-5.337
0.180,0.059,0.308,-5.337
0.143,0.057,0.303,-5.337
0.135,0.055,0.301,-5.337
0.167,0.056,0.301,-5.337
0.170,0.056,0.303,-5.337
0.199,0.054,0.304,-5.337
0.261,0.053,0.305,-5.337
0.221,0.052,0.306,-5.337
0.210,0.051,0.304,-5.337
0.244,0.052,0.303,-5.337
0.269,0.054,0.306,-5.337
0.222,0.053,0.309,-5.337
0.210,0.051,0.306,-5.337
0.176,0.050,0.306,-5.337
0.136,0.051,0.305,-5.337
0.153,0.052,0.307,-5.337
0.225,0.053,0.306,-5.337
0.213,0.052,0.309,-5.337
0.211,0.051,0.311,-5.337
0.192,0.054,0.308,-5.337
0.171,0.052,0.304,-5.337
0.180,0.054,0.307,-5.337
0.192,0.053,0.308,-5.337
0.200,0.055,0.309,-5.337
0.191,0.057,0.308,-5.337
0.147,0.056,0.307,-5.337
0.118,0.058,0.306,-5.337
0.157,0.055,0.305,-5.337
0.236,0.054,0.303,-5.337
0.250,0.057,0.306,-5.337
0.168,0.059,0.305,-5.337
0.132,0.056,0.307,-5.337
0.263,0.048,0.313,-5.337
0.329,0.048,0.311,-5.337
0.248,0.056,0.305,-5.337
0.197,0.055,0.301,-5.337
0.182,0.051,0.304,-5.337
0.227,0.048,0.305,-5.337
0.289,0.047,0.305,-5.337
0.215,0.051,0.305,-5.337
0.164,0.056,0.305,-5.337
0.160,0.057,0.302,-5.337
0.192,0.055,0.301,-5.337
0.158,0.056,0.305,-5.337
0.099,0.056,0.307,-5.337
0.151,0.052,0.304,-5.337
0.221,0.053,0.306,-5.337
0.185,0.055,0.302,-5.337
0.152,0.055,0.300,-5.337
0.208,0.049,0.301,-5.337
0.266,0.046,0.304,-5.337
0.247,0.048,0.304,-5.337
0.165,0.051,0.307,-5.337
0.222,0.049,0.308,-5.337
0.269,0.048,0.305,-5.337
0.199,0.051,0.306,-5.337
0.161,0.054,0.306,-5.337
0.122,0.057,0.309,-5.337
0.103,0.057,0.308,-5.337
0.077,0.058,0.302,-5.337
0.114,0.057,0.298,-5.337
0.135,0.055,0.299,-5.337
0.179,0.054,0.303,-5.337
0.254,0.052,0.308,-5.337
0.234,0.054,0.307,-5.337
0.214,0.054,0.305,-5.337
0.188,0.051,0.302,-5.337
0.150,0.053,0.301,-5.337
0.151,0.053,0.302,-5.337
0.165,0.053,0.303,-5.337
0.223,0.048,0.300,-5.337
0.301,0.048,0.300,-5.337
0.292,0.052,0.303,-5.337
0.188,0.054,0.308,-5.337
0.113,0.054,0.309,-5.337
0.150,0.054,0.303,-5.337
0.227,0.052,0.297,-5.337
0.240,0.050,0.295,-5.337
0.269,0.048,0.299,-5.337
0.247,0.048,0.305,-5.337
0.234,0.048,0.309,-5.337
0.203,0.048,0.306,-5.337
0.191,0.052,0.303,-5.337
0.164,0.052,0.303,-5.337
0.107,0.052,0.305,-5.337
0.120,0.047,0.306,-5.337
0.153,0.044,0.307,-5.337
0.185,0.043,0.301,-5.337
0.164,0.045,0.302,-5.337
0.141,0.046,0.306,-5.337
0.253,0.042,0.309,-5.337
0.314,0.041,0.306,-5.337
0.199,0.046,0.301,-5.337
0.089,0.046,0.301,-5.337
0.151,0.042,0.304,-5.337
0.190,0.042,0.303,-5.337
0.153,0.044,0.304,-5.337
0.158,0.042,0.306,-5.337
0.226,0.038,0.309,-5.337
0.250,0.035,0.307,-5.337
0.192,0.037,0.303,-5.337
0.198,0.040,0.302,-5.337
0.148,0.043,0.303,-5.337
0.105,0.045,0.305,-5.337
0.164,0.042,0.307,-5.337
0.212,0.039,0.306,-5.337
0.189,0.040,0.304,-5.337
0.125,0.044,0.305,-5.337
0.185,0.046,0.304,-5.337
0.278,0.046,0.307,-5.337
0.254,0.043,0.309,-5.337
0.166,0.042,0.309,-5.337
0.142,0.042,0.306,-5.337
0.192,0.043,0.302,-5.337
0.196,0.042,0.300,-5.337
0.218,0.039,0.300,-5.337
0.236,0.041,0.301,-5.337
0.187,0.041,0.301,-5.337
0.167,0.040,0.301,-5.337
0.133,0.044,0.303,-5.337
0.162,0.044,0.303,-5.337
0.193,0.043,0.303,-5.337
0.173,0.044,0.304,-5.337
0.202,0.042,0.304,-5.337
0.219,0.043,0.305,-5.337
0.179,0.041,0.303,-5.337
0.162,0.042,0.306,-5.337
0.143,0.041,0.305,-5.337
0.089,0.041,0.309,-5.337
0.166,0.038,0.306,-5.337
0.216,0.038,0.304,-5.337
0.254,0.037,0.304,-5.337
0.238,0.039,0.306,-5.337
0.136,0.041,0.304,-5.337
0.148,0.035,0.303,-5.337
0.216,0.032,0.300,-5.337
0.246,0.035,0.303,-5.337
0.254,0.033,0.301,-5.337
0.191,0.037,0.302,-5.337
0.132,0.039,0.303,-5.337
0.098,0.041,0.300,-5.337
0.122,0.036,0.300,-5.337
0.147,0.032,0.306,-5.337
0.181,0.031,0.307,-5.337
0.208,0.034,0.304,-5.337
0.244,0.034,0.302,-5.337
0.147,0.038,0.304,-5.337
0.094,0.036,0.307,-5.337
0.168,0.033,0.306,-5.337
0.262,0.029,0.308,-5.337
0.245,0.034,0.310,-5.337
0.181,0.037,0.312,-5.337
0.206,0.037,0.308,-5.337
0.259,0.039,0.303,-5.337
0.226,0.036,0.299,-5.337
0.289,0.033,0.302,-5.337
0.293,0.033,0.306,-5.337
0.203,0.037,0.307,-5.337
0.179,0.039,0.305,-5.337
0.159,0.042,0.306,-5.337
0.131,0.041,0.306,-5.337
0.168,0.041,0.300,-5.337
0.125,0.039,0.296,-5.337
0.155,0.037,0.297,-5.337
0.230,0.034,0.299,-5.337
0.224,0.032,0.300,-5.337
0.153,0.035,0.302,-5.337
0.151,0.036,0.302,-5.337
0.144,0.036,0.303,-5.337
0.142,0.034,0.304,-5.337
0.156,0.033,0.305,-5.337
0.137,0.034,0.307,-5.337
0.089,0.033,0.307,-5.337
0.113,0.029,0.305,-5.337
0.172,0.028,0.306,-5.337
0.199,0.028,0.304,-5.337
0.162,0.031,0.304,-5.337
0.169,0.031,0.304,-5.337
0.153,0.030,0.304,-5.337
0.183,0.027,0.302,-5.337
0.216,0.028,0.301,-5.337
0.209,0.026,0.299,-5.337
0.143,0.031,0.301,-5.337
0.094,0.033,0.305,-5.337
0.114,0.032,0.305,-5.337
0.151,0.034,0.306,-5.337
0.201,0.032,0.307,-5.337
0.192,0.028,0.304,-5.337
0.166,0.025,0.298,-5.337
0.163,0.025,0.295,-5.337
0.216,0.025,0.299,-5.337
0.192,0.031,0.308,-5.337
0.170,0.034,0.312,-5.337
0.147,0.030,0.309,-5.337
0.161,0.028,0.305,-5.337
0.159,0.027,0.304,-5.337
0.152,0.029,0.304,-5.337
0.165,0.032,0.306,-5.337
0.140,0.034,0.302,-5.337
0.132,0.032,0.301,-5.337
0.155,0.031,0.301,-5.337
0.198,0.031,0.302,-5.337
0.243,0.029,0.302,-5.337
0.247,0.029,0.303,-5.337
0.233,0.026,0.305,-5.337
0.223,0.025,0.304,-5.337
0.265,0.023,0.304,-5.337
0.259,0.023,0.303,-5.337
0.197,0.025,0.304,-5.337
0.221,0.028,0.305,-5.337
0.127,0.032,0.305,-5.337
0.090,0.033,0.305,-5.337
0.186,0.033,0.304,-5.337
0.245,0.034,0.303,-5.337
0.144,0.035,0.302,-5.337
0.094,0.035,0.301,-5.337
0.103,0.034,0.302,-5.337
0.101,0.033,0.301,-5.337
0.110,0.034,0.305,-5.337
0.159,0.036,0.309,-5.337
0.140,0.039,0.311,-5.337
0.108,0.039,0.306,-5.337
0.141,0.036,0.304,-5.337
0.188,0.031,0.303,-5.337
0.204,0.033,0.305,-5.337
0.245,0.032,0.302,-5.337
0.198,0.034,0.300,-5.337
0.173,0.034,0.301,-5.337
0.210,0.036,0.305,-5.337
0.211,0.035,0.308,-5.337
0.127,0.037,0.307,-5.337
0.057,0.033,0.304,-5.337
0.101,0.033,0.305,-5.337
0.129,0.031,0.304,-5.337
0.170,0.029,0.304,-5.337
0.253,0.027,0.303,-5.337
0.252,0.027,0.305,-5.337
0.202,0.028,0.305,-5.337
0.133,0.032,0.305,-5.337
0.125,0.033,0.305,-5.337
0.103,0.034,0.306,-5.337
0.112,0.035,0.308,-5.337
0.162,0.031,0.307,-5.337
0.228,0.030,0.301,-5.337
0.183,0.030,0.298,-5.337
0.147,0.029,0.302,-5.337
0.159,0.030,0.305,-5.337
0.197,0.031,0.308,-5.337
0.173,0.031,0.308,-5.337
0.092,0.035,0.305,-5.337
0.063,0.036,0.304,-5.337
0.086,0.035,0.305,-5.337
0.102,0.034,0.305,-5.337
0.122,0.034,0.305,-5.337
0.176,0.032,0.305,-5.337
0.170,0.031,0.305,-5.337
0.136,0.033,0.306,-5.337
0.219,0.027,0.306,-5.337
0.242,0.028,0.305,-5.337
0.129,0.032,0.302,-5.337
0.119,0.033,0.307,-5.337
0.183,0.033,0.308,-5.337
0.210,0.035,0.309,-5.337
0.184,0.031,0.311,-5.337
0.159,0.033,0.310,-5.337
0.142,0.032,0.304,-5.337
0.160,0.036,0.305,-5.337
0.152,0.037,0.307,-5.337
0.190,0.034,0.307,-5.337
0.252,0.031,0.303,-5.337
0.214,0.033,0.304,-5.337
0.105,0.034,0.304,-5.337
0.064,0.033,0.304,-5.337
0.075,0.034,0.304,-5.337
0.171,0.034,0.307,-5.337
0.224,0.035,0.307,-5.337
0.187,0.036,0.309,-5.337
0.155,0.032,0.312,-5.337
0.162,0.031,0.311,-5.337
0.175,0.028,0.305,-5.337
0.176,0.032,0.301,-5.337
0.106,0.031,0.307,-5.337
0.179,0.028,0.310,-5.337
0.206,0.031,0.309,-5.337
0.121,0.034,0.305,-5.337
0.141,0.037,0.307,-5.337
0.183,0.037,0.307,-5.337
0.139,0.038,0.308,-5.337
0.121,0.039,0.308,-5.337
0.167,0.039,0.306,-5.337
0.161,0.038,0.301,-5.337
0.151,0.038,0.305,-5.337
0.200,0.036,0.309,-5.337
0.208,0.035,0.311,-5.337
0.113,0.039,0.311,-5.337
0.060,0.042,0.310,-5.337
0.138,0.038,0.309,-5.337
0.215,0.037,0.303,-5.337
0.231,0.034,0.298,-5.337
0.179,0.038,0.300,-5.337
0.122,0.041,0.303,-5.337
0.135,0.040,0.307,-5.337
0.148,0.038,0.309,-5.337
0.156,0.041,0.311,-5.337
0.162,0.040,0.308,-5.337
0.227,0.039,0.301,-5.337
0.217,0.040,0.300,-5.337
0.168,0.038,0.304,-5.337
0.144,0.041,0.308,-5.337
0.167,0.039,0.307,-5.337
0.259,0.037,0.306,-5.337
0.255,0.041,0.305,-5.337
0.211,0.042,0.307,-5.337
0.166,0.042,0.307,-5.337
0.150,0.040,0.306,-5.337
0.186,0.037,0.302,-5.337
0.190,0.038,0.303,-5.337
0.202,0.037,0.303,-5.337
0.244,0.037,0.306,-5.337
0.265,0.038,0.307,-5.337
0.247,0.040,0.305,-5.337
0.154,0.041,0.303,-5.337
0.123,0.045,0.304,-5.337
0.102,0.043,0.305,-5.337
0.084,0.043,0.306,-5.337
0.114,0.043,0.305,-5.337
0.139,0.041,0.303,-5.337
0.163,0.041,0.301,-5.337
0.178,0.043,0.304,-5.337
0.164,0.045,0.304,-5.337
0.115,0.050,0.301,-5.337
0.150,0.047,0.300,-5.337
0.237,0.041,0.301,-5.337
0.208,0.041,0.304,-5.337
0.142,0.043,0.303,-5.337
0.131,0.044,0.306,-5.337
0.159,0.044,0.307,-5.337
0.147,0.044,0.308,-5.337
0.124,0.045,0.307,-5.337
0.158,0.044,0.307,-5.337
0.215,0.042,0.305,-5.337
0.223,0.043,0.304,-5.337
0.155,0.044,0.304,-5.337
0.138,0.045,0.308,-5.337
0.172,0.047,0.310,-5.337
0.247,0.047,0.307,-5.337
0.234,0.044,0.301,-5.337
0.220,0.046,0.299,-5.337
0.208,0.046,0.301,-5.337
0.154,0.047,0.303,-5.337
0.133,0.046,0.302,-5.337
0.090,0.051,0.304,-5.337
0.084,0.053,0.305,-5.337
0.103,0.051,0.306,-5.337
0.091,0.047,0.308,-5.337
0.107,0.049,0.306,-5.337
0.151,0.048,0.305,-5.337
0.213,0.047,0.303,-5.337
0.186,0.047,0.305,-5.337
0.213,0.049,0.305,-5.337
0.213,0.050,0.306,-5.337
0.211,0.050,0.304,-5.337
0.203,0.051,0.306,-5.337
0.260,0.047,0.305,-5.337
0.260,0.049,0.305,-5.337
0.146,0.047,0.305,-5.337
0.145,0.045,0.305,-5.337
0.267,0.043,0.304,-5.337
0.281,0.047,0.303,-5.337
0.178,0.050,0.302,-5.337
0.163,0.050,0.305,-5.337
0.235,0.048,0.307,-5.337
0.262,0.047,0.303,-5.337
0.164,0.053,0.300,-5.337
0.100,0.048,0.301,-5.337
0.202,0.042,0.306,-5.337
0.200,0.046,0.306,-5.337
0.138,0.050,0.306,-5.337
0.128,0.049,0.305,-5.337
0.186,0.048,0.307,-5.337
0.205,0.054,0.306,-5.337
0.143,0.058,0.303,-5.337
0.167,0.053,0.306,-5.337
0.237,0.051,0.310,-5.337
0.244,0.053,0.311,-5.337
0.247,0.051,0.308,-5.337
0.241,0.051,0.303,-5.337
0.155,0.059,0.302,-5.337
0.131,0.056,0.301,-5.337
0.180,0.060,0.299,-5.337
0.186,0.056,0.300,-5.337
0.180,0.053,0.301,-5.337
0.177,0.057,0.304,-5.337
0.180,0.058,0.306,-5.337
0.120,0.061,0.308,-5.337
0.148,0.056,0.308,-5.337
0.259,0.050,0.305,-5.337
0.248,0.053,0.303,-5.337
0.201,0.055,0.308,-5.337
0.186,0.053,0.310,-5.337
0.170,0.049,0.309,-5.337
0.196,0.049,0.302,-5.337
0.215,0.056,0.300,-5.337
0.237,0.053,0.299,-5.337
0.241,0.053,0.303,-5.337
0.192,0.051,0.303,-5.337
0.158,0.052,0.303,-5.337
0.139,0.052,0.304,-5.337
0.134,0.055,0.307,-5.337
0.141,0.057,0.303,-5.337
0.150,0.053,0.298,-5.337
0.209,0.050,0.300,-5.337
0.197,0.051,0.304,-5.337
0.139,0.053,0.304,-5.337
0.107,0.054,0.301,-5.337
0.170,0.054,0.302,-5.337
0.179,0.053,0.303,-5.337
0.117,0.057,0.302,-5.337
0.132,0.056,0.303,-5.337
0.147,0.055,0.302,-5.337
0.146,0.057,0.303,-5.337
0.181,0.062,0.305,-5.337
0.218,0.061,0.306,-5.337
0.242,0.056,0.306,-5.337
0.273,0.053,0.306,-5.337
0.245,0.054,0.307,-5.337
0.248,0.057,0.304,-5.337
0.230,0.058,0.305,-5.337
0.200,0.055,0.301,-5.337
0.180,0.056,0.297,-5.337
0.220,0.057,0.298,-5.337
0.133,0.059,0.304,-5.337
0.097,0.058,0.306,-5.337
0.160,0.058,0.306,-5.337
0.144,0.055,0.304,-5.337
0.156,0.055,0.304,-5.337
0.196,0.052,0.305,-5.337
0.184,0.052,0.305,-5.337
0.160,0.057,0.304,-5.337
0.143,0.061,0.303,-5.337
0.099,0.062,0.304,-5.337
0.173,0.057,0.304,-5.337
0.296,0.055,0.302,-5.337
0.305,0.056,0.306,-5.337
0.218,0.061,0.308,-5.337
0.184,0.061,0.305,-5.337
0.203,0.059,0.302,-5.337
0.228,0.060,0.299,-5.337
0.255,0.059,0.297,-5.337
0.291,0.054,0.295,-5.337
0.327,0.054,0.299,-5.337
0.268,0.054,0.303,-5.337
0.250,0.054,0.306,-5.337
0.253,0.052,0.304,-5.337
0.187,0.053,0.304,-5.337
0.144,0.052,0.303,-5.337
0.203,0.054,0.302,-5.337
0.243,0.058,0.303,-5.337
0.203,0.060,0.308,-5.337
0.134,0.062,0.310,-5.337
0.112,0.063,0.310,-5.337
0.108,0.061,0.307,-5.337
0.175,0.060,0.306,-5.337
0.220,0.062,0.303,-5.337
0.210,0.062,0.300,-5.337
0.203,0.062,0.303,-5.337
0.229,0.062,0.305,-5.337
0.200,0.063,0.306,-5.337
0.204,0.063,0.305,-5.337
0.195,0.063,0.304,-5.337
0.207,0.060,0.304,-5.337
0.234,0.058,0.304,-5.337
0.259,0.055,0.305,-5.337
0.249,0.056,0.309,-5.337
0.198,0.059,0.309,-5.337
0.202,0.055,0.307,-5.337
0.227,0.057,0.301,-5.337
0.190,0.059,0.293,-5.337
0.219,0.055,0.292,-5.337
0.216,0.055,0.299,-5.337
0.161,0.056,0.305,-5.337
0.246,0.059,0.306,-5.337
0.254,0.056,0.304,-5.337
0.223,0.059,0.302,-5.337
0.222,0.060,0.302,-5.337
0.241,0.062,0.302,-5.337
0.217,0.059,0.301,-5.337
0.195,0.062,0.302,-5.337
0.163,0.062,0.305,-5.337
0.122,0.060,0.308,-5.337
0.159,0.060,0.310,-5.337
0.224,0.061,0.306,-5.337
0.186,0.060,0.302,-5.337
0.135,0.058,0.299,-5.337
0.186,0.055,0.299,-5.337
0.238,0.056,0.301,-5.337
0.225,0.059,0.308,-5.337
0.197,0.059,0.310,-5.337
0.173,0.063,0.309,-5.337
0.124,0.062,0.303,-5.337
0.170,0.057,0.300,-5.337
0.278,0.055,0.300,-5.337
0.261,0.056,0.303,-5.337
0.211,0.058,0.306,-5.337
0.161,0.059,0.308,-5.337
0.218,0.055,0.304,-5.337
0.301,0.055,0.301,-5.337
0.277,0.057,0.302,-5.337
0.219,0.058,0.305,-5.337
0.204,0.060,0.308,-5.337
0.230,0.058,0.306,-5.337
0.216,0.060,0.304,-5.337
0.207,0.058,0.303,-5.337
0.186,0.060,0.302,-5.337
0.219,0.059,0.301,-5.337
0.262,0.060,0.307,-5.337
0.241,0.061,0.312,-5.337
0.221,0.064,0.311,-5.337
0.219,0.067,0.306,-5.337
0.246,0.064,0.305,-5.337
0.288,0.061,0.302,-5.337
0.216,0.064,0.304,-5.337
0.168,0.062,0.303,-5.337
0.156,0.064,0.306,-5.337
0.163,0.061,0.308,-5.337
0.214,0.059,0.307,-5.337
0.267,0.062,0.306,-5.337
0.266,0.061,0.305,-5.337
0.275,0.056,0.305,-5.337
0.205,0.057,0.306,-5.337
0.183,0.059,0.308,-5.337
0.193,0.061,0.308,-5.337
0.211,0.061,0.306,-5.337
0.249,0.059,0.300,-5.337
0.248,0.061,0.298,-5.337
0.231,0.060,0.302,-5.337
0.151,0.061,0.306,-5.337
0.157,0.060,0.305,-5.337
0.242,0.056,0.308,-5.337
0.282,0.054,0.307,-5.337
0.166,0.058,0.306,-5.337
0.151,0.058,0.307,-5.337
0.169,0.058,0.309,-5.337
0.221,0.058,0.307,-5.337
0.187,0.061,0.304,-5.337
0.115,0.060,0.303,-5.337
0.164,0.059,0.304,-5.337
0.196,0.055,0.307,-5.337
0.220,0.054,0.308,-5.337
0.242,0.053,0.309,-5.337
0.196,0.057,0.308,-5.337
0.168,0.059,0.305,-5.337
0.199,0.054,0.305,-5.337
0.272,0.054,0.303,-5.337
0.250,0.057,0.305,-5.337
0.239,0.053,0.309,-5.337
0.200,0.052,0.313,-5.337
0.172,0.053,0.313,-5.337
0.181,0.052,0.309,-5.337
0.246,0.049,0.306,-5.337
0.259,0.049,0.300,-5.337
0.206,0.051,0.301,-5.337
0.196,0.049,0.301,-5.337
0.246,0.046,0.303,-5.337
0.229,0.047,0.304,-5.337
0.221,0.050,0.303,-5.337
0.198,0.053,0.302,-5.337
0.145,0.056,0.308,-5.337
0.110,0.052,0.306,-5.337
0.145,0.046,0.308,-5.337
0.177,0.047,0.309,-5.337
0.201,0.049,0.311,-5.337
0.190,0.050,0.312,-5.337
0.170,0.051,0.311,-5.337
0.105,0.051,0.306,-5.337
0.113,0.051,0.303,-5.337
0.238,0.048,0.305,-5.337
0.270,0.050,0.305,-5.337
0.115,0.054,0.305,-5.337
0.048,0.049,0.303,-5.337
0.119,0.049,0.299,-5.337
0.165,0.051,0.302,-5.337
0.189,0.054,0.309,-5.337
0.172,0.054,0.306,-5.337
0.154,0.049,0.305,-5.337
0.145,0.049,0.305,-5.337
0.151,0.051,0.306,-5.337
0.161,0.051,0.305,-5.337
0.201,0.048,0.306,-5.337
0.239,0.048,0.305,-5.337
0.242,0.054,0.302,-5.337
0.204,0.052,0.300,-5.337
0.198,0.046,0.305,-5.337
0.239,0.044,0.304,-5.337
0.322,0.044,0.301,-5.337
0.338,0.044,0.298,-5.337
0.332,0.041,0.299,-5.337
0.167,0.043,0.305,-5.337
0.077,0.045,0.309,-5.337
0.157,0.042,0.309,-5.337
0.245,0.043,0.307,-5.337
0.242,0.043,0.304,-5.337
0.178,0.044,0.303,-5.337
0.173,0.043,0.303,-5.337
0.198,0.042,0.303,-5.337
0.254,0.040,0.305,-5.337
0.210,0.045,0.306,-5.337
0.167,0.045,0.306,-5.337
0.188,0.044,0.304,-5.337
0.183,0.048,0.304,-5.337
0.168,0.045,0.301,-5.337
0.087,0.047,0.301,-5.337
0.081,0.047,0.302,-5.337
0.132,0.043,0.306,-5.337
0.124,0.044,0.305,-5.337
0.109,0.045,0.305,-5.337
0.160,0.045,0.306,-5.337
0.165,0.048,0.301,-5.337
0.182,0.047,0.298,-5.337
0.164,0.048,0.300,-5.337
0.130,0.042,0.308,-5.337
0.206,0.041,0.310,-5.337
0.236,0.042,0.303,-5.337
0.243,0.045,0.299,-5.337
0.230,0.044,0.301,-5.337
0.282,0.044,0.301,-5.337
0.264,0.043,0.300,-5.337
0.238,0.046,0.301,-5.337
0.156,0.048,0.306,-5.337
0.147,0.046,0.307,-5.337
0.141,0.044,0.303,-5.337
0.173,0.042,0.303,-5.337
0.171,0.045,0.305,-5.337
0.146,0.045,0.305,-5.337
0.161,0.044,0.303,-5.337
0.268,0.039,0.301,-5.337
0.273,0.043,0.303,-5.337
0.153,0.046,0.302,-5.337
0.059,0.046,0.301,-5.337
0.115,0.044,0.298,-5.337
0.181,0.048,0.302,-5.337
0.116,0.051,0.306,-5.337
0.074,0.049,0.304,-5.337
0.123,0.045,0.301,-5.337
0.154,0.046,0.302,-5.337
0.189,0.046,0.304,-5.337
0.216,0.045,0.305,-5.337
0.228,0.043,0.300,-5.337
0.207,0.039,0.299,-5.337
0.212,0.041,0.303,-5.337
0.214,0.042,0.305,-5.337
0.157,0.045,0.304,-5.337
0.128,0.046,0.303,-5.337
0.114,0.047,0.304,-5.337
0.123,0.045,0.304,-5.337
0.128,0.041,0.305,-5.337
0.103,0.043,0.302,-5.337
0.116,0.041,0.302,-5.337
0.189,0.038,0.304,-5.337
0.220,0.041,0.307,-5.337
0.224,0.039,0.302,-5.337
0.212,0.040,0.300,-5.337
0.207,0.040,0.302,-5.337
0.136,0.042,0.304,-5.337
0.124,0.043,0.306,-5.337
0.128,0.046,0.307,-5.337
0.184,0.044,0.306,-5.337
0.142,0.041,0.306,-5.337
0.109,0.038,0.305,-5.337
0.148,0.038,0.302,-5.337
0.167,0.042,0.301,-5.337
0.160,0.048,0.302,-5.337
0.136,0.044,0.304,-5.337
0.135,0.040,0.304,-5.337
0.097,0.040,0.301,-5.337
0.082,0.040,0.298,-5.337
0.114,0.041,0.299,-5.337
0.236,0.037,0.301,-5.337
0.359,0.034,0.302,-5.337
0.262,0.040,0.302,-5.337
0.209,0.037,0.306,-5.337
0.227,0.032,0.307,-5.337
0.193,0.033,0.307,-5.337
0.136,0.036,0.304,-5.337
0.103,0.037,0.301,-5.337
0.115,0.033,0.300,-5.337
0.139,0.032,0.300,-5.337
0.228,0.029,0.299,-5.337
0.234,0.031,0.301,-5.337
0.172,0.033,0.303,-5.337
0.142,0.037,0.304,-5.337
0.145,0.035,0.306,-5.337
0.145,0.033,0.309,-5.337
0.155,0.037,0.309,-5.337
0.201,0.041,0.306,-5.337
0.210,0.040,0.303,-5.337
0.173,0.037,0.301,-5.337
0.192,0.034,0.300,-5.337
0.196,0.034,0.298,-5.337
0.178,0.034,0.299,-5.337
0.189,0.034,0.301,-5.337
0.187,0.034,0.304,-5.337
0.167,0.032,0.301,-5.337
0.181,0.031,0.301,-5.337
0.130,0.035,0.299,-5.337
0.115,0.038,0.303,-5.337
0.164,0.036,0.305,-5.337
0.165,0.038,0.304,-5.337
0.136,0.035,0.300,-5.337
0.152,0.038,0.299,-5.337
0.148,0.038,0.297,-5.337
0.197,0.038,0.298,-5.337
0.223,0.035,0.300,-5.337
0.215,0.035,0.305,-5.337
0.164,0.037,0.306,-5.337
0.102,0.039,0.305,-5.337
0.108,0.037,0.304,-5.337
0.121,0.037,0.303,-5.337
0.149,0.035,0.302,-5.337
0.183,0.035,0.303,-5.337
0.190,0.033,0.303,-5.337
0.223,0.035,0.304,-5.337
0.200,0.036,0.305,-5.337
0.148,0.038,0.303,-5.337
0.103,0.036,0.302,-5.337
0.106,0.033,0.299,-5.337
0.123,0.035,0.300,-5.337
