[Parameters]
Operating Mode, Feedback
Subject  AA..ZZ, WT
Session  0..99, 43
No. Trials (1..9999), 500
Mouse Number, 1
Pressure Probe Serial Port, \00\00\00\04COM4
Save additional csv file, TRUE
Save using mouse number, FALSE
A/D Monitor Rate (Hz), 30000.000000
A/D Stimulate Rate (Hz), 30000.000000
A/D input range (+/- V), 5
No. Channels to acquire (N), 2
Pre-Stim Acq. time (ms), 100.000000
Post-Stim Acq. time (ms), 900.000000
Analysis window parameters.M-response Start (ms), 1.100000
Analysis window parameters.M-response Duration (ms), 5.500000
Analysis window parameters.H-response Duration (ms), 6.000000
Analysis window parameters.H-response Start (ms), 6.500000
Feedback window, H response
Proportional gain, 0.100000
Target value, 6.700000
Feedback Ch., 1
Stim Channel to Control (1-4), 4
Trial, 32
Wait for EMG Conditions, FALSE
Channel to monitor (0 - N-1), 1
EMG Hi Limit, 2.000000
EMG Lo Limit, 0.001000
Inter-Stim delay (sec), 10.000000
EMG Monitor Mode, Mean
Time to run Long Stim.(sec), 30
Save Long Stim Data?, OFF
BURST Save time (ms), 1000
BURST Save Interval (x above), 10
Long-Stim. Rep. Rate (Hz), 10.000000
Stim type cluster array.<size(s)>, 4
Stim type cluster array 0.Stimulus Output, Electrical
Stim type cluster array 1.Stimulus Output, OFF
Stim type cluster array 2.Stimulus Output, OFF
Stim type cluster array 3.Stimulus Output, Motor Length
Stim specs cluster array.<size(s)>, 4
Stim specs cluster array 0.Initial Stimulus ampl., 0.300000
Stim specs cluster array 0.Maximum Stimulus, 1.120000
Stim specs cluster array 0.#Pulses in train, 4
Stim specs cluster array 0.Peak Level time (ms), 1.000000
Stim specs cluster array 0.Total pulse period (ms), 150.000000
Stim specs cluster array 0.Start Delay (ms), -50.000000
Stim specs cluster array 0.Pulse Shape, Square
Stim specs cluster array 0.Ramp/Rel. time (ms), 0.100000
Stim specs cluster array 0.Peak Amplitude (V), 0.120000
Stim specs cluster array 1.Initial Stimulus ampl., 0.000000
Stim specs cluster array 1.Maximum Stimulus, 0.000000
Stim specs cluster array 1.#Pulses in train, 3
Stim specs cluster array 1.Peak Level time (ms), 29.000000
Stim specs cluster array 1.Total pulse period (ms), 200.000000
Stim specs cluster array 1.Start Delay (ms), 0.000000
Stim specs cluster array 1.Pulse Shape, Square
Stim specs cluster array 1.Ramp/Rel. time (ms), 0.000000
Stim specs cluster array 1.Peak Amplitude (V), 2.000000
Stim specs cluster array 2.Initial Stimulus ampl., 0.000000
Stim specs cluster array 2.Maximum Stimulus, 0.000000
Stim specs cluster array 2.#Pulses in train, 1
Stim specs cluster array 2.Peak Level time (ms), 25.000000
Stim specs cluster array 2.Total pulse period (ms), 200.000000
Stim specs cluster array 2.Start Delay (ms), 0.000000
Stim specs cluster array 2.Pulse Shape, Square
Stim specs cluster array 2.Ramp/Rel. time (ms), 20.000000
Stim specs cluster array 2.Peak Amplitude (V), 10.000000
Stim specs cluster array 3.Initial Stimulus ampl., 0.000000
Stim specs cluster array 3.Maximum Stimulus, 20.000000
Stim specs cluster array 3.#Pulses in train, 25
Stim specs cluster array 3.Peak Level time (ms), 0.100000
Stim specs cluster array 3.Total pulse period (ms), 4.000000
Stim specs cluster array 3.Start Delay (ms), 205.000000
Stim specs cluster array 3.Pulse Shape, Triangle
Stim specs cluster array 3.Ramp/Rel. time (ms), 3.000000
Stim specs cluster array 3.Peak Amplitude (V), 0.500000
Force cal. (mN/Volt), 100.000000
Force Range (mN), 100.000000
Length cal. (mm/Volt), 10.000000
Length Range (mm), 10.000000
Stim. 1, 0.300000
Stim. 2, 0.000000
Stim. 3, 0.000000
Stim. 4, 0.000000
Monitor acquire time (ms), 100.000000
EMG graph Ymax, 0.100000
Travel limit (mm), 20.000000
Use Pressure Probe, FALSE
Pressure goal (g), 100
Speed (mm/sec), 5.000000
Dwell time (ms), 100.000000
Pressure limit (g), 500.000000
Channel amplitude offset, 0.000000

[DATA]

0.149,0.037,0.302,-5.337
0.176,0.040,0.299,-5.337
0.144,0.040,0.301,-5.337
0.221,0.040,0.304,-5.337
0.238,0.040,0.304,-5.337
0.250,0.041,0.301,-5.337
0.192,0.042,0.300,-5.337
0.150,0.043,0.301,-5.337
0.168,0.042,0.300,-5.337
0.201,0.040,0.299,-5.337
0.209,0.037,0.298,-5.337
0.190,0.037,0.300,-5.337
0.114,0.040,0.300,-5.337
0.188,0.034,0.297,-5.337
0.202,0.036,0.300,-5.337
0.132,0.040,0.303,-5.337
0.091,0.039,0.303,-5.337
0.089,0.038,0.300,-5.337
0.146,0.036,0.298,-5.337
0.123,0.039,0.301,-5.337
0.099,0.040,0.304,-5.337
0.212,0.039,0.304,-5.337
0.246,0.038,0.302,-5.337
0.220,0.037,0.302,-5.337
0.238,0.033,0.301,-5.337
0.230,0.034,0.298,-5.337
0.189,0.036,0.300,-5.337
0.168,0.035,0.304,-5.337
0.223,0.034,0.304,-5.337
0.196,0.034,0.304,-5.337
0.151,0.036,0.307,-5.337
0.169,0.034,0.308,-5.337
0.222,0.034,0.301,-5.337
0.231,0.035,0.297,-5.337
0.181,0.036,0.295,-5.337
0.255,0.029,0.298,-5.337
0.281,0.030,0.301,-5.337
0.160,0.037,0.301,-5.337
0.136,0.035,0.300,-5.337
0.141,0.035,0.301,-5.337
0.151,0.038,0.301,-5.337
0.210,0.035,0.299,-5.337
0.194,0.035,0.297,-5.337
0.118,0.037,0.299,-5.337
0.143,0.038,0.301,-5.337
0.147,0.040,0.304,-5.337
0.160,0.036,0.300,-5.337
0.159,0.035,0.298,-5.337
0.189,0.036,0.298,-5.337
0.205,0.035,0.302,-5.337
0.167,0.034,0.305,-5.337
0.143,0.032,0.307,-5.337
0.140,0.029,0.302,-5.337
0.155,0.031,0.299,-5.337
0.161,0.036,0.297,-5.337
0.175,0.033,0.297,-5.337
0.131,0.031,0.298,-5.337
0.137,0.033,0.301,-5.337
0.212,0.031,0.301,-5.337
0.182,0.034,0.302,-5.337
0.105,0.034,0.303,-5.337
0.123,0.033,0.300,-5.337
0.132,0.033,0.296,-5.337
0.148,0.032,0.296,-5.337
0.144,0.027,0.301,-5.337
0.141,0.028,0.302,-5.337
0.150,0.027,0.301,-5.337
0.175,0.024,0.300,-5.337
0.202,0.028,0.305,-5.337
0.172,0.030,0.307,-5.337
0.175,0.033,0.310,-5.337
0.154,0.036,0.306,-5.337
0.096,0.034,0.299,-5.337
0.159,0.031,0.295,-5.337
0.177,0.030,0.294,-5.337
0.200,0.028,0.300,-5.337
0.201,0.030,0.303,-5.337
0.171,0.032,0.301,-5.337
0.162,0.035,0.298,-5.337
0.217,0.032,0.297,-5.337
0.267,0.031,0.298,-5.337
0.278,0.029,0.301,-5.337
0.232,0.029,0.301,-5.337
0.145,0.035,0.297,-5.337
0.129,0.039,0.295,-5.337
0.168,0.037,0.297,-5.337
0.191,0.035,0.299,-5.337
0.203,0.032,0.298,-5.337
0.187,0.031,0.297,-5.337
0.209,0.031,0.298,-5.337
0.186,0.035,0.299,-5.337
0.134,0.039,0.300,-5.337
0.148,0.035,0.298,-5.337
0.171,0.033,0.298,-5.337
0.193,0.032,0.300,-5.337
0.196,0.030,0.302,-5.337
0.144,0.033,0.300,-5.337
0.181,0.031,0.302,-5.337
0.165,0.030,0.303,-5.337
0.086,0.035,0.302,-5.337
0.151,0.034,0.296,-5.337
0.227,0.034,0.293,-5.337
0.189,0.033,0.298,-5.337
0.136,0.040,0.303,-5.337
0.103,0.040,0.305,-5.337
0.079,0.040,0.305,-5.337
0.146,0.037,0.298,-5.337
0.196,0.032,0.295,-5.337
0.154,0.032,0.295,-5.337
0.094,0.030,0.297,-5.337
0.097,0.029,0.297,-5.337
0.132,0.029,0.295,-5.337
0.156,0.029,0.298,-5.337
0.105,0.032,0.300,-5.337
0.126,0.030,0.299,-5.337
0.154,0.027,0.298,-5.337
0.120,0.027,0.298,-5.337
0.140,0.028,0.299,-5.337
0.207,0.029,0.301,-5.337
0.256,0.029,0.299,-5.337
0.192,0.030,0.298,-5.337
0.092,0.025,0.296,-5.337
0.158,0.026,0.299,-5.337
0.204,0.028,0.300,-5.337
0.162,0.032,0.300,-5.337
0.108,0.032,0.300,-5.337
0.109,0.033,0.299,-5.337
0.137,0.033,0.296,-5.337
0.117,0.035,0.296,-5.337
0.145,0.033,0.302,-5.337
0.235,0.031,0.306,-5.337
0.216,0.031,0.303,-5.337
0.162,0.030,0.301,-5.337
0.156,0.029,0.298,-5.337
0.135,0.029,0.299,-5.337
0.111,0.031,0.298,-5.337
0.141,0.029,0.294,-5.337
0.128,0.030,0.294,-5.337
0.140,0.031,0.296,-5.337
0.126,0.029,0.299,-5.337
0.092,0.029,0.299,-5.337
0.093,0.030,0.297,-5.337
0.086,0.034,0.300,-5.337
0.122,0.034,0.304,-5.337
0.120,0.036,0.305,-5.337
0.155,0.034,0.308,-5.337
0.112,0.033,0.307,-5.337
0.070,0.032,0.304,-5.337
0.094,0.031,0.300,-5.337
0.168,0.032,0.297,-5.337
0.193,0.031,0.296,-5.337
0.141,0.031,0.296,-5.337
0.137,0.028,0.296,-5.337
0.201,0.027,0.298,-5.337
0.237,0.031,0.300,-5.337
0.133,0.037,0.300,-5.337
0.108,0.036,0.300,-5.337
0.175,0.037,0.299,-5.337
0.167,0.036,0.296,-5.337
0.101,0.039,0.296,-5.337
0.104,0.035,0.299,-5.337
0.147,0.030,0.300,-5.337
0.165,0.032,0.299,-5.337
0.109,0.035,0.297,-5.337
0.088,0.034,0.299,-5.337
0.144,0.032,0.301,-5.337
0.175,0.030,0.303,-5.337
0.170,0.031,0.301,-5.337
0.105,0.032,0.302,-5.337
0.114,0.035,0.302,-5.337
0.131,0.038,0.301,-5.337
0.171,0.032,0.301,-5.337
0.167,0.033,0.302,-5.337
0.087,0.041,0.299,-5.337
0.083,0.040,0.298,-5.337
0.139,0.035,0.298,-5.337
0.205,0.035,0.300,-5.337
0.238,0.033,0.303,-5.337
0.197,0.032,0.301,-5.337
0.159,0.035,0.302,-5.337
0.079,0.037,0.305,-5.337
0.079,0.039,0.306,-5.337
0.118,0.036,0.306,-5.337
0.126,0.036,0.300,-5.337
0.175,0.037,0.297,-5.337
0.190,0.036,0.294,-5.337
0.182,0.034,0.293,-5.337
0.198,0.033,0.295,-5.337
0.174,0.032,0.300,-5.337
0.100,0.035,0.304,-5.337
0.080,0.035,0.304,-5.337
0.091,0.037,0.305,-5.337
0.060,0.034,0.305,-5.337
0.072,0.036,0.305,-5.337
0.141,0.039,0.301,-5.337
0.155,0.040,0.299,-5.337
0.170,0.037,0.298,-5.337
0.107,0.036,0.300,-5.337
0.121,0.036,0.299,-5.337
0.228,0.042,0.299,-5.337
0.223,0.041,0.301,-5.337
0.213,0.039,0.299,-5.337
0.193,0.038,0.296,-5.337
0.154,0.039,0.297,-5.337
0.151,0.042,0.302,-5.337
0.157,0.040,0.301,-5.337
0.197,0.037,0.296,-5.337
0.177,0.040,0.297,-5.337
0.184,0.042,0.300,-5.337
0.193,0.040,0.301,-5.337
0.180,0.041,0.300,-5.337
0.194,0.042,0.296,-5.337
0.131,0.041,0.299,-5.337
0.150,0.037,0.302,-5.337
0.194,0.040,0.303,-5.337
0.193,0.044,0.302,-5.337
0.164,0.046,0.299,-5.337
0.170,0.046,0.301,-5.337
0.153,0.044,0.305,-5.337
0.134,0.041,0.304,-5.337
0.112,0.044,0.303,-5.337
0.060,0.046,0.300,-5.337
0.050,0.045,0.299,-5.337
0.106,0.044,0.295,-5.337
0.161,0.044,0.291,-5.337
0.177,0.044,0.295,-5.337
0.194,0.044,0.300,-5.337
0.187,0.040,0.303,-5.337
0.202,0.041,0.304,-5.337
0.226,0.043,0.300,-5.337
0.181,0.043,0.297,-5.337
0.117,0.046,0.295,-5.337
0.086,0.046,0.294,-5.337
0.192,0.042,0.294,-5.337
0.263,0.042,0.293,-5.337
0.229,0.042,0.298,-5.337
0.218,0.042,0.301,-5.337
0.152,0.044,0.304,-5.337
0.139,0.044,0.306,-5.337
0.153,0.044,0.307,-5.337
0.177,0.044,0.303,-5.337
0.197,0.047,0.300,-5.337
0.189,0.043,0.295,-5.337
0.226,0.046,0.293,-5.337
0.239,0.045,0.293,-5.337
0.203,0.042,0.297,-5.337
0.173,0.040,0.298,-5.337
0.184,0.042,0.301,-5.337
0.191,0.042,0.303,-5.337
0.211,0.044,0.304,-5.337
0.230,0.042,0.300,-5.337
0.188,0.044,0.296,-5.337
0.163,0.046,0.297,-5.337
0.155,0.045,0.300,-5.337
0.174,0.041,0.300,-5.337
0.149,0.045,0.302,-5.337
0.162,0.043,0.300,-5.337
0.226,0.041,0.300,-5.337
0.281,0.041,0.302,-5.337
0.230,0.044,0.299,-5.337
0.174,0.045,0.295,-5.337
0.157,0.048,0.296,-5.337
0.142,0.050,0.301,-5.337
0.141,0.050,0.301,-5.337
0.134,0.051,0.300,-5.337
0.213,0.049,0.295,-5.337
0.262,0.049,0.302,-5.337
0.207,0.048,0.304,-5.337
0.173,0.049,0.301,-5.337
0.224,0.051,0.298,-5.337
0.258,0.051,0.296,-5.337
0.218,0.048,0.296,-5.337
0.182,0.048,0.300,-5.337
0.212,0.045,0.304,-5.337
0.240,0.043,0.303,-5.337
0.175,0.047,0.296,-5.337
0.135,0.048,0.294,-5.337
0.194,0.044,0.296,-5.337
0.218,0.045,0.298,-5.337
0.231,0.043,0.298,-5.337
0.254,0.044,0.297,-5.337
0.253,0.044,0.298,-5.337
0.222,0.045,0.301,-5.337
0.180,0.046,0.299,-5.337
0.209,0.047,0.300,-5.337
0.230,0.047,0.301,-5.337
0.178,0.046,0.298,-5.337
0.140,0.047,0.297,-5.337
0.149,0.048,0.299,-5.337
0.172,0.047,0.301,-5.337
0.129,0.046,0.299,-5.337
0.168,0.043,0.293,-5.337
0.251,0.045,0.292,-5.337
0.276,0.047,0.297,-5.337
0.254,0.046,0.298,-5.337
0.240,0.045,0.301,-5.337
0.263,0.046,0.304,-5.337
0.199,0.049,0.307,-5.337
0.230,0.048,0.308,-5.337
0.299,0.050,0.303,-5.337
0.260,0.047,0.298,-5.337
0.219,0.050,0.294,-5.337
0.186,0.050,0.293,-5.337
0.184,0.052,0.299,-5.337
0.150,0.055,0.304,-5.337
0.187,0.053,0.306,-5.337
0.249,0.051,0.305,-5.337
0.222,0.054,0.301,-5.337
0.199,0.053,0.294,-5.337
0.238,0.053,0.294,-5.337
0.226,0.058,0.298,-5.337
0.191,0.055,0.300,-5.337
0.197,0.053,0.301,-5.337
0.232,0.052,0.300,-5.337
0.257,0.052,0.305,-5.337
0.222,0.057,0.302,-5.337
0.200,0.059,0.301,-5.337
0.208,0.058,0.299,-5.337
0.276,0.058,0.300,-5.337
0.342,0.055,0.298,-5.337
0.291,0.056,0.298,-5.337
0.245,0.060,0.297,-5.337
0.198,0.062,0.301,-5.337
0.222,0.056,0.301,-5.337
0.268,0.055,0.303,-5.337
0.297,0.054,0.302,-5.337
0.267,0.053,0.302,-5.337
0.232,0.054,0.298,-5.337
0.188,0.057,0.296,-5.337
0.191,0.059,0.295,-5.337
0.241,0.055,0.301,-5.337
0.274,0.054,0.303,-5.337
0.269,0.055,0.302,-5.337
0.221,0.056,0.300,-5.337
0.185,0.053,0.299,-5.337
0.213,0.053,0.301,-5.337
0.238,0.052,0.299,-5.337
0.279,0.054,0.300,-5.337
0.292,0.055,0.304,-5.337
0.325,0.054,0.306,-5.337
0.297,0.055,0.301,-5.337
0.243,0.058,0.301,-5.337
0.209,0.057,0.301,-5.337
0.257,0.057,0.300,-5.337
0.313,0.055,0.300,-5.337
0.317,0.055,0.298,-5.337
0.251,0.056,0.297,-5.337
0.159,0.061,0.299,-5.337
0.134,0.058,0.296,-5.337
0.156,0.056,0.298,-5.337
0.171,0.058,0.303,-5.337
0.196,0.056,0.302,-5.337
0.264,0.057,0.301,-5.337
0.259,0.058,0.299,-5.337
0.277,0.059,0.298,-5.337
0.270,0.059,0.298,-5.337
0.321,0.056,0.298,-5.337
0.277,0.056,0.298,-5.337
0.260,0.056,0.296,-5.337
0.219,0.059,0.295,-5.337
0.193,0.057,0.301,-5.337
0.238,0.056,0.300,-5.337
0.268,0.055,0.301,-5.337
0.213,0.057,0.305,-5.337
0.208,0.059,0.304,-5.337
0.272,0.056,0.302,-5.337
0.278,0.056,0.302,-5.337
0.251,0.056,0.301,-5.337
0.304,0.054,0.298,-5.337
0.301,0.056,0.293,-5.337
0.233,0.057,0.296,-5.337
0.180,0.056,0.297,-5.337
0.220,0.053,0.297,-5.337
0.270,0.057,0.302,-5.337
0.302,0.057,0.308,-5.337
0.273,0.056,0.307,-5.337
0.222,0.057,0.303,-5.337
0.198,0.061,0.301,-5.337
0.225,0.058,0.299,-5.337
0.275,0.054,0.298,-5.337
0.323,0.052,0.299,-5.337
0.231,0.058,0.302,-5.337
0.205,0.056,0.303,-5.337
0.231,0.054,0.302,-5.337
0.284,0.051,0.299,-5.337
0.264,0.053,0.300,-5.337
0.228,0.056,0.300,-5.337
0.234,0.054,0.303,-5.337
0.197,0.053,0.303,-5.337
0.183,0.055,0.303,-5.337
0.203,0.054,0.296,-5.337
0.219,0.054,0.292,-5.337
0.240,0.056,0.289,-5.337
0.270,0.056,0.293,-5.337
0.254,0.058,0.296,-5.337
0.212,0.060,0.300,-5.337
0.244,0.057,0.303,-5.337
0.304,0.054,0.303,-5.337
0.326,0.050,0.299,-5.337
0.266,0.051,0.302,-5.337
0.178,0.051,0.304,-5.337
0.241,0.046,0.305,-5.337
0.269,0.048,0.301,-5.337
0.279,0.049,0.299,-5.337
0.256,0.050,0.295,-5.337
0.249,0.051,0.294,-5.337
0.254,0.051,0.295,-5.337
0.228,0.052,0.296,-5.337
0.267,0.054,0.298,-5.337
0.290,0.059,0.297,-5.337
0.260,0.060,0.298,-5.337
0.203,0.059,0.298,-5.337
0.274,0.054,0.298,-5.337
0.302,0.054,0.298,-5.337
0.276,0.054,0.298,-5.337
0.254,0.052,0.298,-5.337
0.274,0.054,0.299,-5.337
0.223,0.056,0.296,-5.337
0.182,0.054,0.292,-5.337
0.225,0.050,0.295,-5.337
0.287,0.046,0.298,-5.337
0.316,0.043,0.300,-5.337
0.292,0.047,0.299,-5.337
0.244,0.047,0.297,-5.337
0.241,0.046,0.296,-5.337
0.251,0.048,0.300,-5.337
0.252,0.048,0.304,-5.337
0.212,0.048,0.305,-5.337
0.171,0.047,0.300,-5.337
0.174,0.049,0.296,-5.337
0.214,0.046,0.294,-5.337
0.282,0.047,0.295,-5.337
0.290,0.046,0.295,-5.337
0.231,0.046,0.301,-5.337
0.168,0.045,0.304,-5.337
0.234,0.042,0.306,-5.337
0.312,0.042,0.302,-5.337
0.283,0.039,0.297,-5.337
0.232,0.037,0.293,-5.337
0.319,0.036,0.292,-5.337
0.344,0.037,0.293,-5.337
0.255,0.040,0.294,-5.337
0.196,0.036,0.297,-5.337
0.197,0.040,0.297,-5.337
0.220,0.040,0.296,-5.337
0.286,0.034,0.295,-5.337
0.348,0.032,0.298,-5.337
0.327,0.036,0.300,-5.337
0.309,0.037,0.296,-5.337
0.291,0.039,0.300,-5.337
0.277,0.043,0.300,-5.337
0.276,0.044,0.299,-5.337
0.298,0.045,0.300,-5.337
0.272,0.047,0.299,-5.337
0.231,0.046,0.300,-5.337
0.206,0.046,0.299,-5.337
0.185,0.044,0.299,-5.337
0.171,0.041,0.297,-5.337
0.261,0.039,0.302,-5.337
0.269,0.042,0.305,-5.337
0.217,0.045,0.305,-5.337
0.214,0.044,0.297,-5.337
0.212,0.041,0.295,-5.337
0.183,0.041,0.293,-5.337
0.226,0.044,0.291,-5.337
0.242,0.042,0.293,-5.337
0.202,0.039,0.296,-5.337
0.166,0.039,0.298,-5.337
0.146,0.041,0.302,-5.337
0.196,0.040,0.304,-5.337
0.280,0.038,0.303,-5.337
0.271,0.042,0.299,-5.337
0.228,0.045,0.297,-5.337
0.218,0.043,0.297,-5.337
0.202,0.039,0.301,-5.337
0.158,0.038,0.305,-5.337
0.154,0.038,0.305,-5.337
0.174,0.041,0.301,-5.337
0.187,0.043,0.302,-5.337
0.218,0.043,0.304,-5.337
0.210,0.041,0.303,-5.337
0.175,0.043,0.303,-5.337
0.143,0.043,0.301,-5.337
0.126,0.042,0.299,-5.337
0.159,0.038,0.297,-5.337
0.220,0.037,0.297,-5.337
0.238,0.034,0.297,-5.337
0.154,0.038,0.296,-5.337
0.214,0.036,0.294,-5.337
0.207,0.037,0.294,-5.337
0.199,0.035,0.297,-5.337
0.165,0.036,0.301,-5.337
0.156,0.034,0.299,-5.337
0.203,0.035,0.299,-5.337
0.204,0.034,0.301,-5.337
0.220,0.030,0.303,-5.337
0.192,0.032,0.300,-5.337
0.213,0.034,0.300,-5.337
0.252,0.034,0.301,-5.337
0.235,0.034,0.301,-5.337
0.214,0.036,0.299,-5.337
0.221,0.031,0.296,-5.337
0.210,0.031,0.296,-5.337
0.199,0.034,0.300,-5.337
0.155,0.033,0.308,-5.337
0.154,0.032,0.308,-5.337
0.199,0.033,0.305,-5.337
0.157,0.036,0.300,-5.337
0.106,0.037,0.300,-5.337
0.134,0.032,0.299,-5.337
0.213,0.030,0.303,-5.337
0.188,0.035,0.299,-5.337
0.130,0.038,0.293,-5.337
0.207,0.033,0.293,-5.337
0.260,0.034,0.296,-5.337
0.240,0.033,0.298,-5.337
0.222,0.037,0.303,-5.337
0.232,0.034,0.304,-5.337
0.214,0.037,0.299,-5.337
0.125,0.038,0.295,-5.337
0.079,0.037,0.296,-5.337
0.218,0.031,0.298,-5.337
0.271,0.030,0.301,-5.337
0.260,0.030,0.303,-5.337
0.216,0.032,0.304,-5.337
0.205,0.033,0.304,-5.337
0.220,0.032,0.302,-5.337
0.210,0.034,0.304,-5.337
0.151,0.036,0.303,-5.337
0.112,0.035,0.299,-5.337
0.149,0.033,0.293,-5.337
0.205,0.032,0.295,-5.337
0.183,0.032,0.298,-5.337
0.132,0.033,0.303,-5.337
0.148,0.034,0.305,-5.337
0.232,0.032,0.305,-5.337
0.251,0.029,0.303,-5.337
0.247,0.028,0.303,-5.337
0.232,0.031,0.302,-5.337
0.252,0.031,0.298,-5.337
0.251,0.031,0.294,-5.337
0.192,0.031,0.299,-5.337
0.156,0.033,0.306,-5.337
0.153,0.035,0.307,-5.337
0.188,0.032,0.303,-5.337
0.247,0.029,0.301,-5.337
0.234,0.033,0.302,-5.337
0.200,0.035,0.298,-5.337
0.198,0.035,0.295,-5.337
0.150,0.038,0.299,-5.337
0.150,0.037,0.300,-5.337
0.190,0.034,0.299,-5.337
0.175,0.034,0.297,-5.337
0.157,0.034,0.297,-5.337
0.163,0.032,0.299,-5.337
0.166,0.033,0.301,-5.337
0.148,0.034,0.302,-5.337
0.165,0.033,0.301,-5.337
0.115,0.036,0.302,-5.337
0.141,0.035,0.301,-5.337
0.189,0.036,0.301,-5.337
0.201,0.034,0.297,-5.337
0.152,0.033,0.297,-5.337
0.122,0.035,0.301,-5.337
0.117,0.039,0.304,-5.337
0.127,0.036,0.304,-5.337
0.166,0.033,0.304,-5.337
0.174,0.033,0.299,-5.337
0.190,0.035,0.296,-5.337
0.190,0.033,0.302,-5.337
0.133,0.038,0.307,-5.337
0.153,0.032,0.304,-5.337
0.193,0.031,0.302,-5.337
0.128,0.031,0.300,-5.337
0.086,0.031,0.298,-5.337
0.119,0.032,0.300,-5.337
0.148,0.029,0.302,-5.337
0.146,0.029,0.302,-5.337
0.117,0.031,0.297,-5.337
0.131,0.031,0.293,-5.337
0.190,0.030,0.292,-5.337
0.193,0.030,0.297,-5.337
0.192,0.027,0.303,-5.337
0.141,0.029,0.306,-5.337
0.055,0.033,0.302,-5.337
0.079,0.031,0.300,-5.337
0.140,0.032,0.298,-5.337
0.270,0.028,0.299,-5.337
0.259,0.027,0.300,-5.337
0.135,0.029,0.301,-5.337
0.085,0.029,0.302,-5.337
0.153,0.030,0.301,-5.337
0.211,0.031,0.299,-5.337
0.217,0.031,0.301,-5.337
0.185,0.034,0.301,-5.337
0.157,0.033,0.300,-5.337
0.170,0.031,0.300,-5.337
0.133,0.033,0.302,-5.337
0.145,0.034,0.302,-5.337
0.119,0.034,0.301,-5.337
0.141,0.033,0.301,-5.337
0.115,0.032,0.296,-5.337
0.077,0.036,0.298,-5.337
0.128,0.031,0.303,-5.337
0.216,0.028,0.306,-5.337
0.178,0.029,0.303,-5.337
0.205,0.031,0.302,-5.337
0.216,0.029,0.298,-5.337
0.214,0.028,0.298,-5.337
0.227,0.030,0.297,-5.337
0.160,0.031,0.296,-5.337
0.100,0.031,0.300,-5.337
0.134,0.031,0.303,-5.337
0.157,0.026,0.300,-5.337
0.172,0.028,0.297,-5.337
0.140,0.032,0.294,-5.337
0.121,0.032,0.296,-5.337
0.156,0.031,0.297,-5.337
0.189,0.034,0.297,-5.337
0.091,0.039,0.295,-5.337
0.115,0.034,0.297,-5.337
0.178,0.030,0.300,-5.337
0.115,0.034,0.302,-5.337
0.112,0.034,0.302,-5.337
0.226,0.030,0.304,-5.337
0.246,0.029,0.305,-5.337
0.222,0.031,0.301,-5.337
0.180,0.031,0.301,-5.337
0.156,0.034,0.300,-5.337
0.112,0.032,0.301,-5.337
0.101,0.027,0.295,-5.337
0.136,0.031,0.293,-5.337
0.148,0.032,0.292,-5.337
0.154,0.032,0.294,-5.337
0.114,0.033,0.301,-5.337
0.137,0.030,0.307,-5.337
0.167,0.027,0.306,-5.337
0.155,0.028,0.301,-5.337
0.198,0.028,0.298,-5.337
0.183,0.026,0.301,-5.337
0.129,0.029,0.304,-5.337
0.099,0.032,0.306,-5.337
0.117,0.032,0.304,-5.337
0.188,0.032,0.301,-5.337
0.171,0.032,0.295,-5.337
0.085,0.033,0.292,-5.337
0.083,0.032,0.297,-5.337
0.202,0.029,0.300,-5.337
0.192,0.030,0.301,-5.337
0.128,0.031,0.299,-5.337
0.130,0.028,0.299,-5.337
0.143,0.034,0.300,-5.337
0.146,0.036,0.300,-5.337
0.172,0.035,0.299,-5.337
0.137,0.038,0.302,-5.337
0.102,0.039,0.299,-5.337
0.083,0.039,0.298,-5.337
0.116,0.034,0.297,-5.337
0.160,0.034,0.298,-5.337
0.133,0.035,0.297,-5.337
0.138,0.038,0.299,-5.337
0.116,0.039,0.297,-5.337
0.058,0.038,0.301,-5.337
0.081,0.038,0.307,-5.337
0.149,0.035,0.306,-5.337
0.186,0.034,0.299,-5.337
0.149,0.035,0.296,-5.337
0.120,0.038,0.293,-5.337
0.194,0.034,0.292,-5.337
0.228,0.036,0.292,-5.337
0.197,0.038,0.293,-5.337
0.162,0.039,0.295,-5.337
0.171,0.034,0.298,-5.337
0.221,0.031,0.298,-5.337
0.136,0.036,0.298,-5.337
0.066,0.035,0.302,-5.337
0.150,0.032,0.300,-5.337
0.178,0.033,0.299,-5.337
0.089,0.038,0.300,-5.337
0.025,0.041,0.302,-5.337
0.072,0.038,0.300,-5.337
0.204,0.037,0.298,-5.337
0.203,0.039,0.294,-5.337
0.168,0.041,0.295,-5.337
0.145,0.042,0.297,-5.337
0.129,0.043,0.298,-5.337
0.129,0.044,0.295,-5.337
0.075,0.046,0.292,-5.337
0.089,0.048,0.292,-5.337
0.152,0.049,0.296,-5.337
0.153,0.047,0.300,-5.337
0.128,0.046,0.304,-5.337
0.101,0.046,0.303,-5.337
0.144,0.044,0.300,-5.337
0.226,0.038,0.301,-5.337
0.225,0.037,0.302,-5.337
0.166,0.043,0.299,-5.337
0.218,0.044,0.294,-5.337
0.247,0.041,0.290,-5.337
0.167,0.043,0.292,-5.337
0.176,0.046,0.301,-5.337
0.225,0.045,0.303,-5.337
0.174,0.044,0.302,-5.337
0.136,0.042,0.299,-5.337
0.121,0.040,0.297,-5.337
0.155,0.038,0.299,-5.337
0.130,0.042,0.301,-5.337
0.079,0.041,0.297,-5.337
0.098,0.041,0.296,-5.337
0.122,0.040,0.295,-5.337
0.129,0.041,0.297,-5.337
0.136,0.043,0.297,-5.337
0.131,0.044,0.296,-5.337
0.169,0.040,0.297,-5.337
0.148,0.042,0.299,-5.337
0.132,0.040,0.300,-5.337
0.202,0.041,0.298,-5.337
0.185,0.042,0.296,-5.337
0.153,0.043,0.294,-5.337
0.179,0.043,0.295,-5.337
0.137,0.046,0.294,-5.337
0.151,0.045,0.297,-5.337
0.220,0.040,0.300,-5.337
0.235,0.038,0.300,-5.337
0.205,0.037,0.299,-5.337
0.191,0.039,0.296,-5.337
0.167,0.042,0.296,-5.337
0.104,0.043,0.299,-5.337
0.142,0.042,0.298,-5.337
0.163,0.042,0.295,-5.337
0.156,0.044,0.292,-5.337
0.139,0.046,0.294,-5.337
0.189,0.042,0.290,-5.337
0.251,0.041,0.290,-5.337
0.216,0.044,0.292,-5.337
0.196,0.049,0.299,-5.337
0.148,0.048,0.306,-5.337
0.119,0.050,0.306,-5.337
0.176,0.046,0.301,-5.337
0.171,0.047,0.297,-5.337
0.192,0.045,0.296,-5.337
0.240,0.044,0.295,-5.337
0.183,0.045,0.292,-5.337
0.167,0.043,0.294,-5.337
0.214,0.039,0.296,-5.337
0.219,0.042,0.294,-5.337
0.223,0.048,0.292,-5.337
0.270,0.046,0.290,-5.337
0.303,0.040,0.292,-5.337
0.253,0.041,0.297,-5.337
0.173,0.044,0.300,-5.337
0.155,0.044,0.298,-5.337
0.180,0.043,0.294,-5.337
0.184,0.044,0.295,-5.337
0.174,0.046,0.297,-5.337
0.173,0.045,0.299,-5.337
0.185,0.045,0.299,-5.337
0.143,0.048,0.298,-5.337
0.115,0.048,0.293,-5.337
0.217,0.043,0.289,-5.337
0.239,0.045,0.289,-5.337
0.197,0.045,0.293,-5.337
0.217,0.045,0.297,-5.337
0.214,0.044,0.296,-5.337
0.235,0.042,0.294,-5.337
0.242,0.043,0.293,-5.337
0.268,0.043,0.292,-5.337
0.287,0.040,0.292,-5.337
0.254,0.046,0.295,-5.337
0.136,0.053,0.298,-5.337
0.139,0.048,0.301,-5.337
0.173,0.050,0.304,-5.337
0.188,0.050,0.299,-5.337
0.264,0.045,0.292,-5.337
0.288,0.044,0.289,-5.337
0.237,0.043,0.292,-5.337
0.189,0.044,0.293,-5.337
0.194,0.045,0.297,-5.337
0.186,0.049,0.300,-5.337
0.169,0.050,0.297,-5.337
0.213,0.047,0.290,-5.337
0.209,0.047,0.290,-5.337
0.238,0.046,0.294,-5.337
0.262,0.048,0.299,-5.337
0.202,0.048,0.300,-5.337
0.212,0.047,0.294,-5.337
0.178,0.048,0.288,-5.337
0.178,0.047,0.288,-5.337
0.245,0.047,0.292,-5.337
0.280,0.048,0.292,-5.337
0.246,0.053,0.291,-5.337
0.211,0.055,0.292,-5.337
0.148,0.051,0.293,-5.337
0.160,0.049,0.296,-5.337
0.218,0.050,0.298,-5.337
0.200,0.050,0.299,-5.337
0.206,0.051,0.297,-5.337
0.217,0.052,0.296,-5.337
0.268,0.046,0.297,-5.337
0.336,0.042,0.297,-5.337
0.329,0.043,0.295,-5.337
0.287,0.047,0.293,-5.337
0.198,0.048,0.296,-5.337
0.171,0.047,0.297,-5.337
0.165,0.047,0.299,-5.337
0.183,0.049,0.296,-5.337
0.187,0.052,0.296,-5.337
0.203,0.049,0.293,-5.337
0.190,0.052,0.292,-5.337
0.184,0.050,0.293,-5.337
0.206,0.054,0.292,-5.337
0.228,0.052,0.295,-5.337
0.240,0.049,0.297,-5.337
0.284,0.049,0.296,-5.337
0.296,0.051,0.298,-5.337
0.254,0.052,0.296,-5.337
0.271,0.048,0.293,-5.337
0.278,0.050,0.292,-5.337
0.189,0.054,0.292,-5.337
0.186,0.055,0.295,-5.337
0.223,0.058,0.294,-5.337
0.244,0.056,0.292,-5.337
0.243,0.055,0.291,-5.337
0.186,0.053,0.296,-5.337
0.176,0.055,0.298,-5.337
0.188,0.056,0.295,-5.337
0.241,0.056,0.293,-5.337
0.282,0.052,0.295,-5.337
0.209,0.053,0.296,-5.337
0.165,0.050,0.295,-5.337
0.239,0.048,0.291,-5.337
0.233,0.049,0.291,-5.337
0.223,0.047,0.294,-5.337
0.233,0.050,0.298,-5.337
0.202,0.053,0.299,-5.337
0.237,0.054,0.298,-5.337
0.245,0.053,0.298,-5.337
0.222,0.054,0.296,-5.337
0.268,0.050,0.294,-5.337
0.292,0.047,0.296,-5.337
0.261,0.047,0.300,-5.337
0.229,0.049,0.303,-5.337
0.212,0.052,0.298,-5.337
0.213,0.050,0.294,-5.337
0.236,0.043,0.294,-5.337
0.268,0.043,0.292,-5.337
0.243,0.046,0.291,-5.337
0.196,0.050,0.290,-5.337
0.251,0.049,0.292,-5.337
0.265,0.049,0.289,-5.337
0.249,0.051,0.289,-5.337
0.233,0.054,0.292,-5.337
0.202,0.053,0.297,-5.337
0.185,0.053,0.301,-5.337
0.196,0.054,0.300,-5.337
0.241,0.049,0.293,-5.337
0.249,0.051,0.289,-5.337
0.202,0.056,0.290,-5.337
0.197,0.051,0.294,-5.337
0.245,0.047,0.300,-5.337
0.290,0.047,0.300,-5.337
0.259,0.053,0.298,-5.337
0.213,0.054,0.295,-5.337
0.234,0.051,0.293,-5.337
0.285,0.049,0.295,-5.337
0.260,0.051,0.297,-5.337
0.218,0.052,0.297,-5.337
0.217,0.051,0.298,-5.337
0.233,0.053,0.296,-5.337
0.253,0.050,0.296,-5.337
0.278,0.050,0.297,-5.337
0.281,0.049,0.302,-5.337
0.251,0.047,0.301,-5.337
0.248,0.049,0.298,-5.337
0.265,0.049,0.292,-5.337
0.299,0.049,0.291,-5.337
0.315,0.050,0.292,-5.337
0.271,0.052,0.292,-5.337
0.219,0.055,0.292,-5.337
0.167,0.058,0.292,-5.337
0.216,0.052,0.293,-5.337
0.175,0.055,0.295,-5.337
0.186,0.051,0.296,-5.337
0.248,0.050,0.295,-5.337
0.237,0.053,0.293,-5.337
0.200,0.054,0.295,-5.337
0.244,0.051,0.298,-5.337
0.221,0.055,0.300,-5.337
0.258,0.056,0.299,-5.337
0.266,0.058,0.297,-5.337
0.248,0.055,0.298,-5.337
0.257,0.054,0.299,-5.337
0.251,0.054,0.299,-5.337
0.284,0.051,0.295,-5.337
0.271,0.047,0.292,-5.337
0.255,0.048,0.292,-5.337
0.269,0.052,0.293,-5.337
0.271,0.052,0.293,-5.337
0.245,0.054,0.297,-5.337
0.248,0.052,0.299,-5.337
0.259,0.050,0.298,-5.337
0.260,0.053,0.295,-5.337
0.277,0.054,0.294,-5.337
0.265,0.054,0.291,-5.337
0.230,0.055,0.293,-5.337
0.210,0.055,0.295,-5.337
0.222,0.054,0.295,-5.337
0.239,0.052,0.293,-5.337
0.211,0.051,0.291,-5.337
0.150,0.050,0.290,-5.337
0.109,0.051,0.294,-5.337
0.166,0.047,0.296,-5.337
0.252,0.050,0.297,-5.337
0.225,0.049,0.296,-5.337
0.204,0.051,0.294,-5.337
0.173,0.057,0.294,-5.337
0.170,0.056,0.292,-5.337
0.202,0.054,0.294,-5.337
0.215,0.055,0.298,-5.337
0.258,0.054,0.300,-5.337
0.292,0.052,0.300,-5.337
0.326,0.051,0.300,-5.337
0.323,0.048,0.297,-5.337
0.253,0.049,0.295,-5.337
0.218,0.052,0.292,-5.337
0.270,0.053,0.294,-5.337
0.254,0.052,0.298,-5.337
0.185,0.052,0.298,-5.337
0.206,0.046,0.296,-5.337
0.222,0.050,0.296,-5.337
0.292,0.050,0.296,-5.337
0.252,0.055,0.295,-5.337
0.186,0.052,0.295,-5.337
0.142,0.049,0.296,-5.337
0.159,0.043,0.296,-5.337
0.234,0.044,0.297,-5.337
0.238,0.047,0.293,-5.337
0.203,0.047,0.290,-5.337
0.249,0.045,0.286,-5.337
0.322,0.045,0.291,-5.337
0.290,0.046,0.298,-5.337
0.264,0.050,0.297,-5.337
0.278,0.048,0.296,-5.337
0.228,0.050,0.294,-5.337
0.232,0.050,0.296,-5.337
0.242,0.050,0.297,-5.337
0.228,0.054,0.298,-5.337
0.205,0.054,0.300,-5.337
0.219,0.047,0.299,-5.337
0.215,0.045,0.294,-5.337
0.171,0.046,0.293,-5.337
0.182,0.043,0.295,-5.337
0.212,0.042,0.298,-5.337
0.309,0.041,0.297,-5.337
0.273,0.045,0.293,-5.337
0.192,0.043,0.293,-5.337
0.179,0.044,0.296,-5.337
0.233,0.045,0.296,-5.337
0.249,0.046,0.293,-5.337
0.190,0.044,0.294,-5.337
0.162,0.047,0.295,-5.337
0.171,0.048,0.295,-5.337
0.165,0.049,0.295,-5.337
0.204,0.045,0.292,-5.337
0.267,0.041,0.294,-5.337
0.234,0.043,0.298,-5.337
0.199,0.044,0.300,-5.337
0.208,0.044,0.298,-5.337
0.167,0.046,0.296,-5.337
0.190,0.043,0.299,-5.337
0.182,0.043,0.296,-5.337
0.184,0.043,0.298,-5.337
0.241,0.044,0.300,-5.337
0.219,0.047,0.300,-5.337
0.137,0.047,0.296,-5.337
0.116,0.049,0.295,-5.337
0.172,0.045,0.296,-5.337
0.241,0.046,0.295,-5.337
0.216,0.044,0.294,-5.337
0.202,0.043,0.297,-5.337
0.263,0.042,0.296,-5.337
0.307,0.042,0.297,-5.337
0.284,0.040,0.297,-5.337
0.273,0.042,0.297,-5.337
0.292,0.043,0.297,-5.337
0.299,0.048,0.299,-5.337
0.221,0.050,0.298,-5.337
0.175,0.046,0.297,-5.337
0.236,0.041,0.292,-5.337
0.239,0.038,0.292,-5.337
0.216,0.038,0.295,-5.337
0.186,0.042,0.299,-5.337
0.139,0.045,0.298,-5.337
0.138,0.043,0.297,-5.337
0.175,0.042,0.297,-5.337
0.221,0.043,0.294,-5.337
0.197,0.041,0.298,-5.337
0.153,0.040,0.297,-5.337
0.189,0.039,0.296,-5.337
0.210,0.038,0.294,-5.337
0.195,0.041,0.295,-5.337
0.190,0.038,0.295,-5.337
0.243,0.036,0.293,-5.337
0.206,0.037,0.299,-5.337
0.146,0.041,0.305,-5.337
0.174,0.041,0.302,-5.337
0.194,0.038,0.297,-5.337
0.198,0.035,0.296,-5.337
0.191,0.038,0.295,-5.337
0.126,0.042,0.292,-5.337
0.167,0.036,0.292,-5.337
0.231,0.034,0.295,-5.337
0.270,0.036,0.298,-5.337
0.183,0.042,0.298,-5.337
0.149,0.046,0.295,-5.337
0.137,0.043,0.295,-5.337
0.179,0.040,0.294,-5.337
0.192,0.043,0.296,-5.337
0.173,0.039,0.293,-5.337
0.171,0.040,0.292,-5.337
0.138,0.041,0.292,-5.337
0.144,0.040,0.295,-5.337
0.197,0.041,0.295,-5.337
0.180,0.041,0.295,-5.337
0.119,0.041,0.295,-5.337
0.106,0.040,0.300,-5.337
0.176,0.034,0.299,-5.337
0.208,0.035,0.297,-5.337
0.223,0.033,0.294,-5.337
0.195,0.038,0.294,-5.337
0.175,0.039,0.297,-5.337
0.182,0.036,0.299,-5.337
0.160,0.035,0.297,-5.337
0.148,0.037,0.292,-5.337
0.149,0.038,0.291,-5.337
0.192,0.037,0.296,-5.337
0.205,0.036,0.297,-5.337
0.178,0.037,0.297,-5.337
0.178,0.036,0.300,-5.337
0.227,0.038,0.298,-5.337
0.246,0.037,0.296,-5.337
0.195,0.034,0.295,-5.337
0.166,0.037,0.296,-5.337
0.152,0.038,0.293,-5.337
0.142,0.035,0.294,-5.337
0.167,0.031,0.296,-5.337
0.180,0.033,0.297,-5.337
0.174,0.038,0.295,-5.337
0.169,0.040,0.297,-5.337
0.120,0.038,0.298,-5.337
0.130,0.040,0.292,-5.337
0.192,0.040,0.292,-5.337
0.197,0.040,0.296,-5.337
0.172,0.038,0.299,-5.337
0.149,0.036,0.297,-5.337
0.101,0.037,0.293,-5.337
0.158,0.037,0.294,-5.337
0.202,0.037,0.298,-5.337
0.182,0.038,0.296,-5.337
0.155,0.038,0.291,-5.337
0.166,0.037,0.291,-5.337
0.178,0.034,0.293,-5.337
0.215,0.034,0.292,-5.337
0.213,0.033,0.298,-5.337
0.172,0.034,0.300,-5.337
0.136,0.036,0.301,-5.337
0.145,0.039,0.298,-5.337
0.110,0.036,0.293,-5.337
0.088,0.035,0.291,-5.337
0.107,0.036,0.293,-5.337
0.179,0.033,0.298,-5.337
0.193,0.035,0.300,-5.337
0.192,0.037,0.298,-5.337
0.166,0.036,0.296,-5.337
0.120,0.039,0.290,-5.337
0.086,0.038,0.292,-5.337
0.140,0.038,0.296,-5.337
0.198,0.038,0.298,-5.337
0.195,0.038,0.296,-5.337
0.169,0.040,0.292,-5.337
0.190,0.038,0.293,-5.337
0.192,0.036,0.296,-5.337
0.154,0.037,0.296,-5.337
0.130,0.038,0.296,-5.337
0.153,0.040,0.297,-5.337
0.131,0.041,0.298,-5.337
0.131,0.037,0.298,-5.337
0.138,0.035,0.298,-5.337
0.159,0.034,0.300,-5.337
0.180,0.032,0.299,-5.337
0.134,0.037,0.295,-5.337
0.075,0.036,0.292,-5.337
0.125,0.033,0.295,-5.337
0.170,0.037,0.296,-5.337
0.176,0.038,0.296,-5.337
0.116,0.039,0.296,-5.337
0.152,0.035,0.297,-5.337
0.226,0.032,0.293,-5.337
0.167,0.036,0.294,-5.337
0.103,0.038,0.297,-5.337
0.144,0.035,0.301,-5.337
0.128,0.034,0.303,-5.337
0.123,0.035,0.302,-5.337
0.156,0.032,0.301,-5.337
0.157,0.034,0.297,-5.337
0.114,0.033,0.296,-5.337
0.086,0.033,0.295,-5.337
0.058,0.035,0.294,-5.337
0.115,0.036,0.292,-5.337
0.115,0.035,0.289,-5.337
0.129,0.034,0.286,-5.337
0.149,0.035,0.289,-5.337
0.154,0.035,0.292,-5.337
0.133,0.034,0.294,-5.337
0.196,0.034,0.297,-5.337
0.242,0.036,0.298,-5.337
0.172,0.041,0.295,-5.337
0.105,0.040,0.296,-5.337
0.130,0.040,0.297,-5.337
0.151,0.037,0.296,-5.337
0.163,0.033,0.292,-5.337
0.170,0.033,0.291,-5.337
0.124,0.034,0.295,-5.337
0.121,0.035,0.298,-5.337
0.147,0.031,0.299,-5.337
0.122,0.033,0.299,-5.337
0.110,0.032,0.297,-5.337
0.104,0.034,0.296,-5.337
0.124,0.032,0.297,-5.337
0.192,0.031,0.298,-5.337
0.204,0.033,0.299,-5.337
0.183,0.037,0.301,-5.337
0.197,0.038,0.300,-5.337
0.153,0.037,0.297,-5.337
0.227,0.032,0.295,-5.337
0.273,0.031,0.293,-5.337
0.192,0.037,0.294,-5.337
0.074,0.038,0.295,-5.337
0.040,0.039,0.296,-5.337
0.108,0.040,0.295,-5.337
0.153,0.037,0.299,-5.337
0.152,0.038,0.300,-5.337
0.138,0.039,0.299,-5.337
0.139,0.035,0.296,-5.337
0.128,0.036,0.297,-5.337
0.134,0.037,0.295,-5.337
0.156,0.041,0.293,-5.337
0.114,0.041,0.293,-5.337
0.135,0.038,0.295,-5.337
0.177,0.033,0.299,-5.337
0.201,0.037,0.300,-5.337
0.138,0.040,0.300,-5.337
0.125,0.037,0.295,-5.337
0.180,0.035,0.293,-5.337
0.179,0.035,0.291,-5.337
0.149,0.032,0.288,-5.337
0.194,0.030,0.290,-5.337
0.199,0.034,0.295,-5.337
0.108,0.039,0.299,-5.337
0.080,0.041,0.300,-5.337
0.146,0.038,0.297,-5.337
0.122,0.040,0.297,-5.337
0.110,0.041,0.293,-5.337
0.151,0.042,0.292,-5.337
0.150,0.042,0.294,-5.337
0.140,0.043,0.302,-5.337
0.115,0.043,0.305,-5.337
0.094,0.043,0.303,-5.337
0.142,0.045,0.296,-5.337
0.163,0.044,0.294,-5.337
0.163,0.039,0.295,-5.337
0.196,0.038,0.294,-5.337
0.168,0.039,0.290,-5.337
0.153,0.040,0.289,-5.337
0.146,0.041,0.295,-5.337
0.152,0.039,0.304,-5.337
0.159,0.033,0.303,-5.337
0.211,0.030,0.298,-5.337
0.230,0.031,0.297,-5.337
0.190,0.034,0.296,-5.337
0.124,0.034,0.296,-5.337
0.122,0.038,0.298,-5.337
0.154,0.039,0.300,-5.337
0.166,0.039,0.303,-5.337
0.117,0.037,0.301,-5.337
0.143,0.036,0.294,-5.337
0.217,0.036,0.294,-5.337
0.141,0.041,0.297,-5.337
0.086,0.043,0.297,-5.337
0.118,0.041,0.292,-5.337
0.130,0.044,0.294,-5.337
0.080,0.046,0.294,-5.337
0.059,0.045,0.294,-5.337
0.114,0.044,0.295,-5.337
0.200,0.043,0.299,-5.337
0.205,0.041,0.300,-5.337
0.154,0.040,0.299,-5.337
0.162,0.040,0.299,-5.337
0.199,0.039,0.296,-5.337
0.171,0.040,0.294,-5.337
0.135,0.045,0.294,-5.337
0.169,0.045,0.293,-5.337
0.223,0.041,0.291,-5.337
0.176,0.039,0.292,-5.337
0.181,0.040,0.293,-5.337
0.140,0.043,0.293,-5.337
0.107,0.045,0.291,-5.337
0.167,0.044,0.292,-5.337
0.174,0.046,0.297,-5.337
0.185,0.044,0.303,-5.337
0.180,0.044,0.305,-5.337
0.177,0.042,0.301,-5.337
0.105,0.046,0.298,-5.337
0.049,0.049,0.298,-5.337
0.103,0.047,0.293,-5.337
0.093,0.047,0.294,-5.337
0.091,0.044,0.298,-5.337
0.157,0.041,0.300,-5.337
0.203,0.042,0.296,-5.337
0.202,0.046,0.295,-5.337
0.126,0.048,0.296,-5.337
0.141,0.046,0.301,-5.337
0.155,0.048,0.303,-5.337
0.136,0.049,0.302,-5.337
0.150,0.049,0.296,-5.337
0.176,0.050,0.294,-5.337
0.173,0.051,0.294,-5.337
0.115,0.050,0.296,-5.337
0.135,0.043,0.300,-5.337
0.170,0.042,0.303,-5.337
0.180,0.045,0.299,-5.337
0.228,0.045,0.290,-5.337
0.231,0.046,0.290,-5.337
0.221,0.046,0.296,-5.337
0.171,0.048,0.300,-5.337
0.128,0.046,0.298,-5.337
0.180,0.048,0.296,-5.337
0.235,0.050,0.291,-5.337
0.277,0.051,0.291,-5.337
0.208,0.051,0.297,-5.337
0.169,0.047,0.301,-5.337
0.219,0.044,0.298,-5.337
0.292,0.044,0.298,-5.337
0.312,0.047,0.296,-5.337
0.218,0.048,0.299,-5.337
0.153,0.046,0.301,-5.337
0.204,0.045,0.299,-5.337
0.233,0.046,0.291,-5.337
0.204,0.047,0.293,-5.337
0.157,0.048,0.300,-5.337
0.122,0.051,0.301,-5.337
0.122,0.049,0.297,-5.337
0.160,0.048,0.296,-5.337
0.198,0.046,0.295,-5.337
0.226,0.044,0.295,-5.337
0.238,0.044,0.293,-5.337
0.196,0.044,0.297,-5.337
0.127,0.050,0.297,-5.337
0.073,0.051,0.299,-5.337
0.129,0.048,0.300,-5.337
0.182,0.044,0.299,-5.337
0.188,0.047,0.297,-5.337
0.163,0.047,0.294,-5.337
0.150,0.048,0.294,-5.337
0.211,0.047,0.296,-5.337
0.270,0.045,0.300,-5.337
0.251,0.048,0.299,-5.337
0.207,0.049,0.300,-5.337
0.232,0.045,0.301,-5.337
0.234,0.047,0.301,-5.337
0.217,0.052,0.300,-5.337
0.209,0.053,0.298,-5.337
0.171,0.053,0.299,-5.337
0.222,0.051,0.300,-5.337
0.276,0.049,0.300,-5.337
0.140,0.051,0.296,-5.337
0.063,0.055,0.293,-5.337
0.143,0.055,0.293,-5.337
0.169,0.056,0.296,-5.337
0.179,0.054,0.297,-5.337
0.196,0.051,0.293,-5.337
0.238,0.051,0.294,-5.337
0.256,0.055,0.296,-5.337
0.246,0.057,0.294,-5.337
0.317,0.051,0.293,-5.337
0.308,0.048,0.292,-5.337
0.223,0.054,0.298,-5.337
0.193,0.053,0.299,-5.337
0.206,0.053,0.297,-5.337
0.178,0.058,0.292,-5.337
0.117,0.059,0.293,-5.337
0.133,0.061,0.296,-5.337
0.169,0.059,0.295,-5.337
0.246,0.053,0.291,-5.337
0.258,0.054,0.293,-5.337
0.150,0.059,0.293,-5.337
0.141,0.059,0.297,-5.337
0.181,0.056,0.301,-5.337
0.235,0.055,0.301,-5.337
0.264,0.052,0.300,-5.337
0.204,0.053,0.300,-5.337
0.223,0.051,0.301,-5.337
0.255,0.053,0.297,-5.337
0.216,0.055,0.295,-5.337
0.261,0.054,0.296,-5.337
0.267,0.057,0.298,-5.337
0.231,0.056,0.297,-5.337
0.218,0.054,0.293,-5.337
0.249,0.056,0.291,-5.337
0.249,0.058,0.296,-5.337
0.238,0.056,0.299,-5.337
0.233,0.056,0.298,-5.337
0.210,0.059,0.293,-5.337
0.209,0.062,0.296,-5.337
0.166,0.061,0.299,-5.337
0.167,0.060,0.298,-5.337
0.177,0.060,0.293,-5.337
0.214,0.060,0.292,-5.337
0.242,0.058,0.295,-5.337
0.274,0.056,0.299,-5.337
0.263,0.052,0.298,-5.337
0.238,0.055,0.296,-5.337
0.234,0.053,0.297,-5.337
0.245,0.054,0.298,-5.337
0.181,0.054,0.299,-5.337
0.195,0.053,0.298,-5.337
0.210,0.054,0.295,-5.337
0.231,0.053,0.294,-5.337
0.249,0.056,0.296,-5.337
0.250,0.055,0.295,-5.337
0.278,0.056,0.295,-5.337
0.308,0.056,0.296,-5.337
0.212,0.059,0.299,-5.337
0.165,0.061,0.299,-5.337
0.179,0.060,0.297,-5.337
0.209,0.059,0.295,-5.337
0.277,0.056,0.297,-5.337
0.269,0.058,0.292,-5.337
0.254,0.055,0.290,-5.337
0.242,0.053,0.293,-5.337
0.234,0.055,0.300,-5.337
0.260,0.054,0.303,-5.337
0.255,0.054,0.299,-5.337
0.221,0.054,0.290,-5.337
0.242,0.058,0.287,-5.337
0.207,0.058,0.290,-5.337
0.222,0.058,0.294,-5.337
0.276,0.056,0.296,-5.337
0.242,0.060,0.296,-5.337
0.149,0.065,0.299,-5.337
0.225,0.062,0.301,-5.337
0.279,0.060,0.297,-5.337
0.247,0.059,0.296,-5.337
0.269,0.058,0.300,-5.337
0.265,0.062,0.302,-5.337
0.275,0.060,0.300,-5.337
0.263,0.056,0.298,-5.337
0.268,0.056,0.297,-5.337
0.335,0.056,0.294,-5.337
0.316,0.055,0.292,-5.337
0.281,0.054,0.291,-5.337
0.252,0.056,0.296,-5.337
0.201,0.056,0.297,-5.337
0.245,0.056,0.299,-5.337
0.245,0.056,0.299,-5.337
0.248,0.058,0.297,-5.337
0.282,0.055,0.293,-5.337
0.243,0.056,0.294,-5.337
0.224,0.056,0.297,-5.337
0.198,0.063,0.298,-5.337
0.198,0.059,0.296,-5.337
0.188,0.062,0.299,-5.337
0.188,0.059,0.301,-5.337
0.262,0.056,0.301,-5.337
0.340,0.058,0.295,-5.337
0.326,0.060,0.292,-5.337
0.278,0.060,0.294,-5.337
0.248,0.062,0.297,-5.337
0.283,0.061,0.295,-5.337
0.271,0.064,0.295,-5.337
0.272,0.064,0.297,-5.337
0.245,0.063,0.299,-5.337
0.195,0.065,0.297,-5.337
0.203,0.062,0.292,-5.337
0.230,0.060,0.294,-5.337
0.232,0.062,0.297,-5.337
0.255,0.063,0.297,-5.337
0.285,0.059,0.298,-5.337
0.273,0.058,0.301,-5.337
0.250,0.060,0.299,-5.337
0.275,0.061,0.297,-5.337
0.273,0.060,0.295,-5.337
0.279,0.058,0.295,-5.337
0.297,0.059,0.297,-5.337
0.279,0.060,0.300,-5.337
0.252,0.059,0.301,-5.337
0.279,0.060,0.302,-5.337
0.316,0.060,0.300,-5.337
0.306,0.063,0.292,-5.337
0.267,0.064,0.290,-5.337
0.209,0.065,0.289,-5.337
0.152,0.064,0.292,-5.337
0.194,0.063,0.297,-5.337
0.258,0.059,0.300,-5.337
0.299,0.057,0.297,-5.337
0.327,0.056,0.295,-5.337
0.302,0.054,0.295,-5.337
0.326,0.052,0.296,-5.337
0.330,0.054,0.294,-5.337
0.286,0.058,0.295,-5.337
0.248,0.058,0.298,-5.337
0.248,0.055,0.301,-5.337
0.249,0.058,0.299,-5.337
0.235,0.058,0.299,-5.337
0.237,0.055,0.299,-5.337
0.275,0.052,0.301,-5.337
0.289,0.050,0.297,-5.337
0.259,0.051,0.294,-5.337
0.207,0.054,0.294,-5.337
0.137,0.057,0.296,-5.337
0.161,0.053,0.298,-5.337
0.207,0.052,0.298,-5.337
0.207,0.054,0.299,-5.337
0.239,0.054,0.298,-5.337
0.293,0.051,0.299,-5.337
0.309,0.048,0.299,-5.337
0.266,0.047,0.297,-5.337
0.268,0.049,0.297,-5.337
0.187,0.051,0.293,-5.337
0.247,0.048,0.293,-5.337
0.290,0.046,0.297,-5.337
0.296,0.045,0.297,-5.337
0.263,0.043,0.296,-5.337
0.266,0.042,0.297,-5.337
0.275,0.043,0.298,-5.337
0.287,0.046,0.294,-5.337
0.266,0.050,0.295,-5.337
0.249,0.048,0.297,-5.337
0.252,0.047,0.300,-5.337
0.195,0.048,0.300,-5.337
0.152,0.048,0.294,-5.337
0.241,0.044,0.295,-5.337
0.279,0.046,0.300,-5.337
0.161,0.049,0.300,-5.337
0.149,0.046,0.299,-5.337
0.208,0.045,0.299,-5.337
0.239,0.045,0.300,-5.337
0.267,0.045,0.298,-5.337
0.294,0.044,0.294,-5.337
0.258,0.049,0.292,-5.337
0.189,0.053,0.295,-5.337
0.162,0.052,0.298,-5.337
0.167,0.050,0.299,-5.337
0.180,0.047,0.298,-5.337
0.181,0.047,0.294,-5.337
0.240,0.047,0.297,-5.337
0.276,0.046,0.299,-5.337
0.270,0.045,0.301,-5.337
0.262,0.045,0.300,-5.337
0.266,0.049,0.300,-5.337
0.211,0.049,0.298,-5.337
0.167,0.051,0.295,-5.337
0.181,0.051,0.294,-5.337
0.204,0.051,0.295,-5.337
0.260,0.048,0.298,-5.337
0.261,0.048,0.298,-5.337
0.220,0.051,0.293,-5.337
0.201,0.050,0.292,-5.337
0.176,0.048,0.293,-5.337
0.202,0.044,0.296,-5.337
0.212,0.047,0.297,-5.337
0.205,0.049,0.299,-5.337
0.200,0.047,0.298,-5.337
0.229,0.045,0.297,-5.337
0.219,0.046,0.301,-5.337
0.179,0.045,0.306,-5.337
0.226,0.042,0.305,-5.337
0.282,0.044,0.300,-5.337
0.299,0.045,0.296,-5.337
0.224,0.049,0.292,-5.337
0.158,0.048,0.295,-5.337
0.205,0.042,0.296,-5.337
0.258,0.040,0.295,-5.337
0.216,0.042,0.294,-5.337
0.188,0.044,0.297,-5.337
0.167,0.048,0.294,-5.337
0.137,0.053,0.295,-5.337
0.163,0.049,0.294,-5.337
0.230,0.044,0.296,-5.337
0.253,0.042,0.294,-5.337
0.223,0.046,0.296,-5.337
0.146,0.045,0.300,-5.337
0.146,0.042,0.301,-5.337
0.267,0.040,0.297,-5.337
0.265,0.043,0.297,-5.337
0.196,0.046,0.298,-5.337
0.195,0.044,0.298,-5.337
0.242,0.037,0.297,-5.337
0.244,0.037,0.297,-5.337
0.196,0.042,0.296,-5.337
0.142,0.046,0.297,-5.337
0.147,0.044,0.296,-5.337
0.169,0.041,0.296,-5.337
0.148,0.037,0.297,-5.337
0.180,0.039,0.295,-5.337
0.240,0.039,0.296,-5.337
0.251,0.038,0.296,-5.337
0.216,0.037,0.297,-5.337
0.177,0.038,0.297,-5.337
0.188,0.036,0.300,-5.337
0.255,0.036,0.299,-5.337
0.226,0.038,0.300,-5.337
0.166,0.038,0.300,-5.337
0.139,0.038,0.299,-5.337
0.151,0.038,0.298,-5.337
0.186,0.038,0.298,-5.337
0.203,0.036,0.295,-5.337
0.251,0.035,0.291,-5.337
0.224,0.035,0.294,-5.337
0.169,0.036,0.303,-5.337
0.222,0.033,0.306,-5.337
0.258,0.036,0.302,-5.337
0.235,0.036,0.297,-5.337
0.231,0.035,0.292,-5.337
0.227,0.038,0.293,-5.337
0.173,0.039,0.300,-5.337
0.186,0.037,0.304,-5.337
0.164,0.037,0.300,-5.337
0.156,0.040,0.295,-5.337
0.187,0.040,0.292,-5.337
0.215,0.037,0.295,-5.337
0.193,0.037,0.295,-5.337
0.173,0.041,0.299,-5.337
0.129,0.044,0.300,-5.337
0.122,0.045,0.301,-5.337
0.160,0.038,0.299,-5.337
0.203,0.035,0.297,-5.337
0.218,0.037,0.296,-5.337
0.203,0.039,0.294,-5.337
0.205,0.038,0.292,-5.337
0.205,0.039,0.296,-5.337
0.219,0.038,0.301,-5.337
0.198,0.041,0.300,-5.337
0.102,0.048,0.297,-5.337
0.024,0.050,0.298,-5.337
0.040,0.045,0.295,-5.337
0.136,0.040,0.293,-5.337
0.210,0.039,0.294,-5.337
0.253,0.040,0.298,-5.337
0.232,0.037,0.301,-5.337
0.193,0.040,0.299,-5.337
0.174,0.041,0.296,-5.337
0.237,0.037,0.294,-5.337
0.197,0.039,0.291,-5.337
0.125,0.038,0.291,-5.337
0.080,0.037,0.297,-5.337
0.085,0.038,0.297,-5.337
0.107,0.038,0.294,-5.337
0.137,0.035,0.293,-5.337
0.223,0.032,0.296,-5.337
0.299,0.033,0.296,-5.337
0.258,0.038,0.292,-5.337
0.183,0.038,0.294,-5.337
0.172,0.043,0.297,-5.337
0.177,0.042,0.298,-5.337
0.177,0.038,0.297,-5.337
0.148,0.036,0.295,-5.337
0.144,0.037,0.296,-5.337
0.191,0.036,0.298,-5.337
0.192,0.039,0.297,-5.337
0.149,0.037,0.296,-5.337
0.143,0.036,0.295,-5.337
0.191,0.036,0.293,-5.337
0.198,0.038,0.293,-5.337
0.147,0.040,0.297,-5.337
0.070,0.047,0.299,-5.337
0.067,0.040,0.300,-5.337
0.152,0.036,0.298,-5.337
0.203,0.039,0.295,-5.337
0.164,0.040,0.294,-5.337
0.146,0.041,0.294,-5.337
0.165,0.036,0.292,-5.337
0.177,0.033,0.296,-5.337
0.160,0.035,0.297,-5.337
0.173,0.037,0.290,-5.337
0.168,0.039,0.289,-5.337
0.194,0.037,0.292,-5.337
0.228,0.032,0.292,-5.337
0.230,0.035,0.294,-5.337
0.149,0.036,0.299,-5.337
0.093,0.041,0.300,-5.337
0.130,0.040,0.300,-5.337
0.158,0.042,0.298,-5.337
0.098,0.037,0.295,-5.337
0.042,0.038,0.292,-5.337
0.078,0.038,0.289,-5.337
0.149,0.036,0.292,-5.337
0.199,0.037,0.297,-5.337
0.211,0.040,0.297,-5.337
0.199,0.039,0.296,-5.337
0.190,0.037,0.297,-5.337
0.158,0.036,0.297,-5.337
0.188,0.037,0.298,-5.337
0.176,0.039,0.301,-5.337
0.157,0.034,0.301,-5.337
0.145,0.032,0.298,-5.337
0.128,0.038,0.295,-5.337
0.134,0.037,0.296,-5.337
0.163,0.034,0.289,-5.337
0.120,0.034,0.290,-5.337
0.053,0.034,0.293,-5.337
0.106,0.034,0.300,-5.337
0.165,0.034,0.302,-5.337
0.154,0.036,0.303,-5.337
0.081,0.039,0.301,-5.337
0.055,0.040,0.296,-5.337
0.055,0.042,0.294,-5.337
0.085,0.041,0.296,-5.337
0.121,0.037,0.295,-5.337
0.118,0.036,0.293,-5.337
0.151,0.035,0.293,-5.337
0.172,0.036,0.298,-5.337
0.159,0.035,0.298,-5.337
0.208,0.033,0.294,-5.337
0.264,0.034,0.292,-5.337
0.171,0.039,0.298,-5.337
0.099,0.038,0.302,-5.337
0.107,0.036,0.296,-5.337
0.174,0.034,0.293,-5.337
0.214,0.037,0.294,-5.337
0.163,0.036,0.298,-5.337
0.125,0.038,0.296,-5.337
0.105,0.042,0.293,-5.337
0.118,0.041,0.292,-5.337
0.213,0.033,0.294,-5.337
0.176,0.031,0.294,-5.337
0.135,0.034,0.295,-5.337
0.203,0.035,0.293,-5.337
0.174,0.037,0.294,-5.337
0.124,0.036,0.298,-5.337
0.136,0.033,0.298,-5.337
0.121,0.033,0.295,-5.337
0.103,0.033,0.297,-5.337
0.116,0.035,0.298,-5.337
0.151,0.034,0.296,-5.337
0.150,0.038,0.295,-5.337
0.171,0.038,0.295,-5.337
0.126,0.035,0.296,-5.337
0.051,0.035,0.298,-5.337
0.029,0.037,0.298,-5.337
0.076,0.037,0.300,-5.337
0.162,0.034,0.299,-5.337
0.224,0.034,0.294,-5.337
0.182,0.033,0.292,-5.337
0.139,0.036,0.291,-5.337
0.215,0.033,0.292,-5.337
0.209,0.034,0.292,-5.337
0.140,0.038,0.296,-5.337
0.167,0.037,0.296,-5.337
0.135,0.037,0.295,-5.337
0.063,0.033,0.294,-5.337
0.097,0.034,0.295,-5.337
0.129,0.035,0.295,-5.337
0.092,0.041,0.295,-5.337
0.080,0.041,0.297,-5.337
0.085,0.040,0.299,-5.337
0.078,0.037,0.297,-5.337
0.116,0.039,0.295,-5.337
0.122,0.041,0.297,-5.337
0.137,0.040,0.298,-5.337
0.173,0.038,0.297,-5.337
0.187,0.042,0.295,-5.337
0.217,0.040,0.298,-5.337
0.222,0.041,0.298,-5.337
0.182,0.040,0.298,-5.337
0.091,0.045,0.297,-5.337
0.051,0.046,0.297,-5.337
0.086,0.047,0.295,-5.337
0.068,0.048,0.294,-5.337
0.086,0.048,0.291,-5.337
0.123,0.046,0.294,-5.337
0.200,0.041,0.297,-5.337
0.239,0.042,0.301,-5.337
0.230,0.043,0.301,-5.337
0.200,0.046,0.303,-5.337
0.154,0.047,0.300,-5.337
0.113,0.048,0.296,-5.337
0.066,0.046,0.294,-5.337
0.048,0.045,0.296,-5.337
0.071,0.044,0.296,-5.337
0.107,0.042,0.295,-5.337
0.121,0.043,0.296,-5.337
0.167,0.042,0.298,-5.337
0.160,0.040,0.296,-5.337
0.115,0.039,0.298,-5.337
0.116,0.038,0.299,-5.337
0.163,0.040,0.296,-5.337
0.155,0.041,0.295,-5.337
0.158,0.040,0.292,-5.337
0.185,0.038,0.292,-5.337
0.200,0.038,0.294,-5.337
0.230,0.041,0.296,-5.337
0.221,0.041,0.295,-5.337
0.213,0.043,0.295,-5.337
0.172,0.042,0.294,-5.337
0.180,0.042,0.295,-5.337
0.219,0.042,0.298,-5.337
0.198,0.042,0.299,-5.337
0.145,0.042,0.297,-5.337
0.124,0.042,0.297,-5.337
0.158,0.040,0.301,-5.337
0.183,0.039,0.304,-5.337
0.222,0.041,0.304,-5.337
0.190,0.043,0.304,-5.337
0.151,0.048,0.302,-5.337
0.111,0.048,0.302,-5.337
0.107,0.045,0.301,-5.337
0.137,0.047,0.299,-5.337
0.108,0.049,0.293,-5.337
0.119,0.048,0.290,-5.337
0.176,0.043,0.293,-5.337
0.180,0.043,0.297,-5.337
0.151,0.043,0.297,-5.337
0.159,0.045,0.295,-5.337
0.122,0.050,0.297,-5.337
0.117,0.052,0.294,-5.337
0.134,0.049,0.293,-5.337
0.175,0.044,0.291,-5.337
0.213,0.045,0.294,-5.337
0.205,0.048,0.298,-5.337
0.172,0.046,0.300,-5.337
0.175,0.044,0.296,-5.337
0.127,0.049,0.295,-5.337
0.114,0.049,0.299,-5.337
0.155,0.049,0.300,-5.337
0.189,0.047,0.297,-5.337
0.240,0.046,0.293,-5.337
0.239,0.046,0.295,-5.337
0.117,0.049,0.298,-5.337
0.140,0.046,0.299,-5.337
0.227,0.046,0.299,-5.337
0.236,0.047,0.298,-5.337
0.208,0.048,0.299,-5.337
0.145,0.047,0.300,-5.337
0.097,0.050,0.299,-5.337
0.116,0.052,0.298,-5.337
0.155,0.052,0.299,-5.337
0.215,0.047,0.300,-5.337
0.193,0.047,0.295,-5.337
0.169,0.050,0.294,-5.337
0.168,0.051,0.294,-5.337
0.166,0.050,0.298,-5.337
0.204,0.047,0.296,-5.337
0.190,0.045,0.296,-5.337
0.191,0.046,0.297,-5.337
0.208,0.048,0.297,-5.337
0.133,0.051,0.295,-5.337
0.183,0.049,0.296,-5.337
0.235,0.048,0.297,-5.337
0.171,0.054,0.298,-5.337
0.130,0.049,0.296,-5.337
0.213,0.046,0.292,-5.337
0.226,0.047,0.295,-5.337
0.195,0.051,0.297,-5.337
0.143,0.053,0.299,-5.337
0.158,0.052,0.301,-5.337
0.211,0.048,0.298,-5.337
0.245,0.049,0.294,-5.337
0.224,0.055,0.294,-5.337
0.144,0.056,0.295,-5.337
0.146,0.056,0.297,-5.337
0.157,0.056,0.297,-5.337
0.267,0.053,0.299,-5.337
0.258,0.053,0.298,-5.337
0.173,0.057,0.298,-5.337
0.195,0.056,0.298,-5.337
0.266,0.054,0.304,-5.337
0.224,0.053,0.304,-5.337
0.177,0.052,0.301,-5.337
0.218,0.053,0.294,-5.337
0.251,0.055,0.294,-5.337
0.184,0.061,0.293,-5.337
0.129,0.063,0.294,-5.337
0.153,0.059,0.293,-5.337
0.187,0.058,0.296,-5.337
0.173,0.059,0.296,-5.337
0.228,0.059,0.295,-5.337
0.183,0.057,0.297,-5.337
0.157,0.054,0.299,-5.337
0.235,0.054,0.300,-5.337
0.238,0.055,0.302,-5.337
0.195,0.057,0.300,-5.337
0.186,0.052,0.293,-5.337
0.170,0.049,0.294,-5.337
0.167,0.054,0.298,-5.337
0.226,0.054,0.302,-5.337
0.248,0.052,0.299,-5.337
0.258,0.054,0.297,-5.337
0.241,0.052,0.294,-5.337
0.276,0.052,0.298,-5.337
0.254,0.054,0.301,-5.337
0.207,0.055,0.299,-5.337
0.198,0.056,0.296,-5.337
0.222,0.058,0.297,-5.337
0.228,0.055,0.293,-5.337
0.217,0.056,0.292,-5.337
0.190,0.056,0.292,-5.337
0.231,0.053,0.295,-5.337
0.224,0.055,0.299,-5.337
0.213,0.057,0.303,-5.337
0.208,0.053,0.302,-5.337
0.216,0.054,0.301,-5.337
0.247,0.054,0.299,-5.337
0.230,0.052,0.298,-5.337
0.199,0.047,0.294,-5.337
0.192,0.047,0.291,-5.337
0.228,0.049,0.291,-5.337
0.264,0.049,0.292,-5.337
0.247,0.049,0.297,-5.337
0.201,0.047,0.300,-5.337
0.208,0.048,0.298,-5.337
0.208,0.048,0.299,-5.337
0.171,0.052,0.302,-5.337
0.150,0.054,0.302,-5.337
0.185,0.051,0.301,-5.337
0.230,0.050,0.299,-5.337
0.255,0.050,0.294,-5.337
0.255,0.052,0.291,-5.337
0.236,0.053,0.294,-5.337
0.237,0.053,0.297,-5.337
0.330,0.050,0.297,-5.337
0.328,0.050,0.299,-5.337
0.221,0.054,0.300,-5.337
0.228,0.049,0.300,-5.337
0.266,0.049,0.299,-5.337
0.227,0.053,0.298,-5.337
0.218,0.055,0.296,-5.337
0.218,0.055,0.289,-5.337
0.223,0.056,0.286,-5.337
0.208,0.059,0.289,-5.337
0.238,0.058,0.294,-5.337
0.247,0.054,0.300,-5.337
0.203,0.056,0.299,-5.337
0.181,0.060,0.296,-5.337
0.230,0.059,0.295,-5.337
0.246,0.058,0.298,-5.337
0.207,0.058,0.296,-5.337
0.201,0.057,0.298,-5.337
0.218,0.054,0.295,-5.337
0.187,0.056,0.297,-5.337
0.182,0.058,0.294,-5.337
0.221,0.059,0.298,-5.337
0.239,0.057,0.300,-5.337
0.168,0.058,0.297,-5.337
0.164,0.056,0.293,-5.337
0.250,0.055,0.293,-5.337
0.307,0.057,0.296,-5.337
0.232,0.062,0.297,-5.337
0.207,0.058,0.296,-5.337
0.234,0.060,0.298,-5.337
0.245,0.059,0.300,-5.337
0.230,0.059,0.299,-5.337
0.247,0.058,0.298,-5.337
0.309,0.054,0.295,-5.337
0.251,0.058,0.292,-5.337
0.199,0.060,0.292,-5.337
0.232,0.058,0.296,-5.337
0.282,0.055,0.301,-5.337
0.273,0.057,0.299,-5.337
0.187,0.063,0.295,-5.337
0.196,0.063,0.298,-5.337
0.240,0.061,0.300,-5.337
0.244,0.056,0.301,-5.337
0.237,0.057,0.301,-5.337
0.195,0.062,0.299,-5.337
0.160,0.058,0.296,-5.337
0.214,0.059,0.294,-5.337
0.239,0.056,0.290,-5.337
0.216,0.060,0.290,-5.337
0.194,0.058,0.295,-5.337
0.189,0.059,0.302,-5.337
0.168,0.060,0.304,-5.337
0.188,0.062,0.301,-5.337
0.219,0.063,0.297,-5.337
0.178,0.065,0.294,-5.337
0.182,0.062,0.294,-5.337
0.205,0.062,0.296,-5.337
0.211,0.064,0.296,-5.337
0.284,0.062,0.298,-5.337
0.322,0.060,0.300,-5.337
0.273,0.063,0.300,-5.337
0.249,0.059,0.301,-5.337
0.280,0.057,0.300,-5.337
0.276,0.056,0.299,-5.337
0.278,0.059,0.293,-5.337
0.263,0.062,0.292,-5.337
0.278,0.059,0.291,-5.337
0.222,0.058,0.295,-5.337
0.163,0.061,0.294,-5.337
0.187,0.061,0.294,-5.337
0.233,0.063,0.294,-5.337
0.292,0.064,0.296,-5.337
0.303,0.065,0.295,-5.337
0.252,0.065,0.297,-5.337
0.237,0.064,0.300,-5.337
0.252,0.059,0.301,-5.337
0.232,0.060,0.300,-5.337
0.137,0.063,0.296,-5.337
0.153,0.062,0.294,-5.337
0.282,0.061,0.296,-5.337
0.305,0.060,0.295,-5.337
0.261,0.059,0.295,-5.337
0.262,0.059,0.297,-5.337
0.219,0.061,0.299,-5.337
0.170,0.059,0.298,-5.337
0.182,0.058,0.297,-5.337
0.214,0.057,0.296,-5.337
0.255,0.057,0.297,-5.337
0.210,0.060,0.299,-5.337
0.170,0.056,0.298,-5.337
0.253,0.053,0.299,-5.337
0.284,0.052,0.296,-5.337
0.226,0.059,0.298,-5.337
0.167,0.060,0.300,-5.337
0.187,0.059,0.300,-5.337
0.240,0.054,0.295,-5.337
0.261,0.053,0.292,-5.337
0.220,0.052,0.292,-5.337
0.166,0.053,0.294,-5.337
0.214,0.050,0.297,-5.337
0.208,0.054,0.298,-5.337
0.230,0.051,0.298,-5.337
0.297,0.051,0.297,-5.337
0.276,0.052,0.294,-5.337
0.235,0.054,0.293,-5.337
0.241,0.052,0.294,-5.337
0.239,0.052,0.293,-5.337
0.242,0.050,0.293,-5.337
0.280,0.049,0.300,-5.337
0.269,0.051,0.302,-5.337
0.205,0.056,0.301,-5.337
0.173,0.056,0.300,-5.337
0.167,0.056,0.297,-5.337
0.163,0.059,0.296,-5.337
0.160,0.059,0.296,-5.337
0.193,0.054,0.297,-5.337
0.290,0.049,0.296,-5.337
0.326,0.053,0.298,-5.337
0.256,0.053,0.296,-5.337
0.189,0.053,0.292,-5.337
0.220,0.051,0.289,-5.337
0.216,0.054,0.292,-5.337
0.181,0.056,0.295,-5.337
0.156,0.056,0.300,-5.337
0.167,0.053,0.301,-5.337
0.166,0.052,0.298,-5.337
0.174,0.048,0.298,-5.337
0.228,0.049,0.299,-5.337
0.270,0.047,0.297,-5.337
0.306,0.045,0.297,-5.337
0.251,0.042,0.297,-5.337
0.212,0.045,0.299,-5.337
0.162,0.045,0.300,-5.337
0.161,0.046,0.301,-5.337
0.230,0.045,0.298,-5.337
0.281,0.046,0.299,-5.337
0.206,0.048,0.302,-5.337
0.178,0.042,0.299,-5.337
0.214,0.037,0.297,-5.337
0.251,0.036,0.296,-5.337
0.211,0.040,0.298,-5.337
0.200,0.042,0.296,-5.337
0.190,0.043,0.297,-5.337
0.196,0.037,0.295,-5.337
0.235,0.039,0.293,-5.337
0.234,0.040,0.295,-5.337
0.192,0.047,0.301,-5.337
0.185,0.044,0.302,-5.337
0.232,0.044,0.299,-5.337
0.193,0.047,0.298,-5.337
0.173,0.049,0.298,-5.337
0.221,0.045,0.299,-5.337
0.202,0.042,0.300,-5.337
0.163,0.044,0.304,-5.337
0.198,0.043,0.303,-5.337
0.172,0.042,0.300,-5.337
0.109,0.042,0.296,-5.337
0.124,0.043,0.296,-5.337
0.150,0.042,0.296,-5.337
0.163,0.042,0.297,-5.337
0.186,0.042,0.297,-5.337
0.184,0.043,0.297,-5.337
0.168,0.045,0.297,-5.337
0.202,0.041,0.297,-5.337
0.213,0.040,0.296,-5.337
0.178,0.043,0.297,-5.337
0.147,0.042,0.301,-5.337
0.179,0.042,0.304,-5.337
0.240,0.041,0.300,-5.337
0.280,0.041,0.296,-5.337
0.205,0.043,0.299,-5.337
0.212,0.043,0.303,-5.337
0.236,0.045,0.303,-5.337
0.253,0.046,0.303,-5.337
0.249,0.044,0.300,-5.337
0.261,0.043,0.294,-5.337
0.225,0.042,0.290,-5.337
0.193,0.045,0.291,-5.337
0.228,0.046,0.293,-5.337
0.215,0.047,0.298,-5.337
0.188,0.049,0.301,-5.337
0.156,0.052,0.301,-5.337
0.133,0.050,0.296,-5.337
0.154,0.046,0.296,-5.337
0.206,0.042,0.298,-5.337
0.225,0.039,0.296,-5.337
0.159,0.043,0.297,-5.337
0.089,0.044,0.298,-5.337
0.097,0.044,0.298,-5.337
0.142,0.040,0.295,-5.337
0.182,0.039,0.299,-5.337
0.192,0.040,0.301,-5.337
0.170,0.043,0.298,-5.337
0.178,0.042,0.296,-5.337
0.219,0.041,0.300,-5.337
0.225,0.038,0.297,-5.337
0.205,0.040,0.295,-5.337
0.166,0.040,0.298,-5.337
0.128,0.041,0.302,-5.337
0.112,0.039,0.300,-5.337
0.200,0.038,0.300,-5.337
0.245,0.040,0.300,-5.337
0.234,0.040,0.300,-5.337
0.203,0.039,0.299,-5.337
0.092,0.042,0.298,-5.337
0.045,0.045,0.293,-5.337
0.129,0.042,0.296,-5.337
0.183,0.037,0.300,-5.337
0.149,0.040,0.297,-5.337
0.118,0.041,0.296,-5.337
0.117,0.039,0.299,-5.337
0.170,0.033,0.303,-5.337
0.233,0.032,0.302,-5.337
0.229,0.032,0.300,-5.337
0.222,0.034,0.296,-5.337
0.136,0.037,0.296,-5.337
0.055,0.039,0.298,-5.337
0.096,0.037,0.298,-5.337
0.232,0.033,0.297,-5.337
0.273,0.033,0.296,-5.337
0.288,0.034,0.295,-5.337
0.253,0.039,0.295,-5.337
0.190,0.036,0.296,-5.337
0.179,0.035,0.297,-5.337
0.180,0.029,0.300,-5.337
0.199,0.031,0.305,-5.337
0.205,0.035,0.309,-5.337
0.186,0.035,0.307,-5.337
0.168,0.033,0.298,-5.337
0.166,0.033,0.293,-5.337
0.176,0.034,0.295,-5.337
0.164,0.037,0.300,-5.337
0.104,0.039,0.301,-5.337
0.121,0.040,0.296,-5.337
0.179,0.037,0.294,-5.337
0.256,0.035,0.298,-5.337
0.220,0.036,0.304,-5.337
0.152,0.037,0.301,-5.337
0.110,0.040,0.300,-5.337
0.127,0.035,0.297,-5.337
0.147,0.035,0.297,-5.337
0.114,0.038,0.298,-5.337
0.146,0.039,0.303,-5.337
0.163,0.036,0.301,-5.337
0.186,0.036,0.295,-5.337
0.198,0.035,0.291,-5.337
0.141,0.034,0.294,-5.337
0.117,0.038,0.298,-5.337
0.130,0.040,0.301,-5.337
0.170,0.038,0.298,-5.337
0.190,0.039,0.296,-5.337
0.116,0.043,0.293,-5.337
0.064,0.040,0.293,-5.337
0.136,0.041,0.292,-5.337
0.155,0.042,0.295,-5.337
0.121,0.040,0.298,-5.337
0.093,0.038,0.301,-5.337
0.127,0.038,0.301,-5.337
0.179,0.040,0.297,-5.337
0.180,0.041,0.293,-5.337
0.139,0.043,0.289,-5.337
0.139,0.041,0.291,-5.337
0.164,0.040,0.294,-5.337
0.190,0.040,0.296,-5.337
0.150,0.044,0.297,-5.337
0.114,0.042,0.299,-5.337
0.112,0.040,0.298,-5.337
0.124,0.041,0.297,-5.337
0.114,0.040,0.296,-5.337
0.089,0.038,0.296,-5.337
0.134,0.034,0.296,-5.337
0.208,0.034,0.297,-5.337
0.226,0.036,0.298,-5.337
0.197,0.037,0.297,-5.337
0.180,0.039,0.295,-5.337
0.144,0.040,0.295,-5.337
0.101,0.038,0.294,-5.337
0.122,0.040,0.294,-5.337
0.138,0.041,0.294,-5.337
0.121,0.041,0.295,-5.337
0.103,0.037,0.302,-5.337
0.116,0.040,0.305,-5.337
0.089,0.039,0.304,-5.337
0.103,0.035,0.297,-5.337
0.153,0.034,0.292,-5.337
0.155,0.034,0.289,-5.337
0.175,0.036,0.290,-5.337
0.214,0.037,0.293,-5.337
0.148,0.043,0.295,-5.337
0.103,0.043,0.297,-5.337
0.114,0.042,0.300,-5.337
0.099,0.041,0.299,-5.337
0.172,0.041,0.298,-5.337
0.242,0.040,0.294,-5.337
0.149,0.048,0.294,-5.337
0.109,0.047,0.296,-5.337
0.169,0.043,0.294,-5.337
0.161,0.039,0.294,-5.337
0.113,0.044,0.300,-5.337
0.127,0.045,0.301,-5.337
0.074,0.047,0.296,-5.337
0.053,0.045,0.292,-5.337
0.126,0.041,0.292,-5.337
0.164,0.043,0.298,-5.337
0.169,0.043,0.298,-5.337
0.138,0.041,0.300,-5.337
0.144,0.038,0.300,-5.337
0.190,0.036,0.299,-5.337
0.171,0.037,0.296,-5.337
0.145,0.040,0.297,-5.337
0.113,0.040,0.298,-5.337
0.139,0.040,0.297,-5.337
0.183,0.038,0.293,-5.337
0.188,0.036,0.292,-5.337
0.127,0.035,0.292,-5.337
0.091,0.038,0.296,-5.337
0.175,0.037,0.293,-5.337
0.158,0.038,0.293,-5.337
0.127,0.035,0.294,-5.337
0.180,0.034,0.297,-5.337
0.240,0.031,0.301,-5.337
0.134,0.038,0.299,-5.337
0.089,0.035,0.294,-5.337
0.154,0.037,0.296,-5.337
0.147,0.036,0.300,-5.337
0.154,0.036,0.302,-5.337
0.151,0.036,0.300,-5.337
0.133,0.038,0.299,-5.337
0.099,0.039,0.296,-5.337
0.064,0.039,0.296,-5.337
0.023,0.037,0.296,-5.337
0.070,0.033,0.297,-5.337
0.190,0.032,0.297,-5.337
0.201,0.033,0.294,-5.337
0.136,0.031,0.295,-5.337
0.163,0.032,0.298,-5.337
0.166,0.033,0.299,-5.337
0.122,0.033,0.297,-5.337
0.155,0.033,0.292,-5.337
0.175,0.035,0.286,-5.337
0.166,0.036,0.290,-5.337
0.171,0.037,0.295,-5.337
0.151,0.037,0.300,-5.337
0.131,0.037,0.300,-5.337
0.111,0.035,0.294,-5.337
0.143,0.032,0.291,-5.337
0.176,0.032,0.293,-5.337
0.194,0.032,0.295,-5.337
0.185,0.036,0.298,-5.337
0.152,0.040,0.304,-5.337
0.159,0.039,0.305,-5.337
0.086,0.040,0.300,-5.337
0.086,0.043,0.298,-5.337
0.148,0.040,0.298,-5.337
0.157,0.039,0.298,-5.337
0.116,0.042,0.296,-5.337
0.126,0.043,0.299,-5.337
0.159,0.043,0.300,-5.337
0.153,0.043,0.298,-5.337
0.119,0.045,0.295,-5.337
0.173,0.042,0.294,-5.337
0.132,0.043,0.295,-5.337
0.051,0.045,0.294,-5.337
0.052,0.050,0.296,-5.337
0.128,0.048,0.295,-5.337
0.151,0.048,0.296,-5.337
0.162,0.046,0.295,-5.337
0.105,0.046,0.292,-5.337
0.070,0.043,0.291,-5.337
0.104,0.046,0.293,-5.337
0.131,0.047,0.297,-5.337
0.173,0.043,0.298,-5.337
0.237,0.043,0.297,-5.337
0.197,0.044,0.298,-5.337
0.098,0.046,0.297,-5.337
0.068,0.049,0.293,-5.337
0.136,0.046,0.293,-5.337
0.148,0.049,0.296,-5.337
0.149,0.049,0.298,-5.337
0.148,0.048,0.295,-5.337
0.146,0.046,0.297,-5.337
0.129,0.049,0.297,-5.337
0.195,0.048,0.298,-5.337
0.194,0.050,0.299,-5.337
0.114,0.051,0.297,-5.337
0.127,0.050,0.295,-5.337
0.153,0.045,0.298,-5.337
0.177,0.045,0.299,-5.337
0.138,0.050,0.298,-5.337
0.123,0.051,0.293,-5.337
0.135,0.048,0.290,-5.337
0.155,0.048,0.293,-5.337
0.155,0.051,0.298,-5.337
0.112,0.050,0.297,-5.337
0.155,0.051,0.297,-5.337
0.249,0.046,0.301,-5.337
0.286,0.042,0.305,-5.337
0.221,0.047,0.302,-5.337
0.150,0.050,0.296,-5.337
0.163,0.048,0.293,-5.337
0.208,0.047,0.294,-5.337
0.203,0.047,0.296,-5.337
0.159,0.047,0.295,-5.337
0.160,0.045,0.295,-5.337
0.226,0.046,0.294,-5.337
0.251,0.045,0.293,-5.337
0.230,0.043,0.293,-5.337
0.227,0.045,0.299,-5.337
0.215,0.044,0.303,-5.337
0.236,0.047,0.301,-5.337
0.150,0.047,0.297,-5.337
0.121,0.048,0.301,-5.337
0.115,0.049,0.302,-5.337
0.108,0.052,0.300,-5.337
0.122,0.053,0.295,-5.337
0.143,0.050,0.296,-5.337
0.126,0.050,0.299,-5.337
0.111,0.054,0.299,-5.337
0.155,0.052,0.297,-5.337
0.153,0.052,0.294,-5.337
0.106,0.050,0.293,-5.337
0.167,0.048,0.297,-5.337
0.203,0.048,0.298,-5.337
0.210,0.048,0.296,-5.337
0.203,0.052,0.296,-5.337
0.173,0.055,0.299,-5.337
0.131,0.056,0.299,-5.337
0.144,0.054,0.296,-5.337
0.196,0.054,0.295,-5.337
0.280,0.052,0.297,-5.337
0.297,0.049,0.299,-5.337
0.276,0.050,0.297,-5.337
0.198,0.051,0.296,-5.337
0.180,0.054,0.294,-5.337
0.194,0.056,0.297,-5.337
0.210,0.056,0.297,-5.337
0.222,0.056,0.299,-5.337
0.219,0.057,0.303,-5.337
0.185,0.059,0.303,-5.337
0.176,0.055,0.298,-5.337
0.186,0.050,0.296,-5.337
0.244,0.046,0.297,-5.337
0.247,0.053,0.296,-5.337
0.169,0.056,0.297,-5.337
0.148,0.059,0.298,-5.337
0.145,0.057,0.298,-5.337
0.221,0.057,0.299,-5.337
0.257,0.055,0.300,-5.337
0.214,0.057,0.299,-5.337
0.142,0.059,0.297,-5.337
0.152,0.054,0.295,-5.337
0.155,0.055,0.298,-5.337
0.135,0.057,0.299,-5.337
0.183,0.059,0.295,-5.337
0.195,0.061,0.296,-5.337
0.180,0.057,0.298,-5.337
0.163,0.054,0.302,-5.337
0.130,0.055,0.304,-5.337
0.155,0.057,0.301,-5.337
0.213,0.056,0.297,-5.337
0.239,0.055,0.293,-5.337
0.167,0.061,0.295,-5.337
0.105,0.062,0.299,-5.337
0.190,0.063,0.299,-5.337
0.300,0.057,0.297,-5.337
0.315,0.055,0.295,-5.337
0.243,0.056,0.294,-5.337
0.189,0.057,0.291,-5.337
0.233,0.057,0.291,-5.337
0.226,0.057,0.293,-5.337
0.210,0.059,0.292,-5.337
0.177,0.063,0.298,-5.337
0.171,0.065,0.300,-5.337
0.175,0.063,0.301,-5.337
0.208,0.059,0.304,-5.337
0.222,0.058,0.304,-5.337
0.238,0.060,0.299,-5.337
0.230,0.060,0.292,-5.337
0.240,0.062,0.295,-5.337
0.226,0.064,0.298,-5.337
0.210,0.065,0.300,-5.337
0.189,0.062,0.301,-5.337
0.175,0.061,0.302,-5.337
0.171,0.059,0.300,-5.337
0.173,0.061,0.295,-5.337
0.186,0.062,0.293,-5.337
0.211,0.059,0.293,-5.337
0.233,0.053,0.291,-5.337
0.271,0.055,0.296,-5.337
0.228,0.058,0.303,-5.337
0.158,0.061,0.302,-5.337
0.201,0.057,0.298,-5.337
0.241,0.054,0.297,-5.337
0.244,0.052,0.298,-5.337
0.235,0.054,0.299,-5.337
0.260,0.054,0.297,-5.337
0.265,0.056,0.292,-5.337
0.207,0.056,0.289,-5.337
0.194,0.056,0.293,-5.337
0.236,0.054,0.301,-5.337
0.213,0.055,0.306,-5.337
0.219,0.054,0.304,-5.337
0.243,0.055,0.301,-5.337
0.212,0.057,0.298,-5.337
0.214,0.059,0.297,-5.337
0.267,0.057,0.298,-5.337
0.339,0.054,0.298,-5.337
0.298,0.055,0.296,-5.337
0.205,0.058,0.294,-5.337
0.164,0.058,0.295,-5.337
0.196,0.058,0.294,-5.337
0.201,0.056,0.297,-5.337
0.210,0.054,0.300,-5.337
0.124,0.060,0.300,-5.337
0.160,0.059,0.300,-5.337
0.247,0.058,0.295,-5.337
0.210,0.056,0.293,-5.337
0.228,0.052,0.294,-5.337
0.272,0.053,0.298,-5.337
0.235,0.055,0.300,-5.337
0.183,0.056,0.298,-5.337
0.230,0.058,0.297,-5.337
0.277,0.058,0.299,-5.337
0.264,0.056,0.298,-5.337
0.225,0.057,0.298,-5.337
0.240,0.055,0.295,-5.337
0.253,0.054,0.293,-5.337
0.285,0.053,0.295,-5.337
0.275,0.055,0.300,-5.337
0.253,0.055,0.303,-5.337
0.232,0.058,0.302,-5.337
0.189,0.059,0.295,-5.337
0.201,0.057,0.293,-5.337
0.266,0.054,0.293,-5.337
0.267,0.057,0.295,-5.337
0.252,0.058,0.294,-5.337
0.239,0.063,0.295,-5.337
0.251,0.061,0.296,-5.337
0.224,0.062,0.297,-5.337
0.230,0.057,0.300,-5.337
0.245,0.061,0.301,-5.337
0.258,0.061,0.298,-5.337
0.231,0.059,0.295,-5.337
0.215,0.058,0.293,-5.337
0.262,0.057,0.294,-5.337
0.221,0.060,0.295,-5.337
0.185,0.064,0.295,-5.337
0.230,0.063,0.293,-5.337
0.297,0.059,0.292,-5.337
0.273,0.054,0.298,-5.337
0.291,0.055,0.300,-5.337
0.305,0.056,0.302,-5.337
0.257,0.061,0.299,-5.337
0.202,0.062,0.299,-5.337
0.229,0.060,0.297,-5.337
0.295,0.061,0.300,-5.337
0.282,0.062,0.300,-5.337
0.234,0.063,0.299,-5.337
0.228,0.064,0.294,-5.337
0.233,0.063,0.292,-5.337
0.225,0.060,0.294,-5.337
0.257,0.058,0.294,-5.337
0.265,0.058,0.293,-5.337
0.267,0.060,0.296,-5.337
0.246,0.064,0.300,-5.337
0.199,0.064,0.302,-5.337
0.201,0.059,0.301,-5.337
0.224,0.054,0.300,-5.337
0.224,0.055,0.298,-5.337
0.263,0.054,0.296,-5.337
0.324,0.052,0.294,-5.337
0.330,0.053,0.295,-5.337
0.282,0.058,0.295,-5.337
0.266,0.061,0.291,-5.337
0.268,0.061,0.291,-5.337
0.247,0.056,0.295,-5.337
0.228,0.053,0.303,-5.337
0.209,0.054,0.306,-5.337
0.204,0.057,0.301,-5.337
0.208,0.054,0.295,-5.337
0.246,0.056,0.292,-5.337
0.298,0.053,0.293,-5.337
0.279,0.056,0.297,-5.337
0.232,0.057,0.298,-5.337
0.320,0.053,0.299,-5.337
0.341,0.057,0.298,-5.337
0.289,0.059,0.294,-5.337
0.268,0.054,0.293,-5.337
0.203,0.056,0.294,-5.337
0.231,0.055,0.296,-5.337
0.317,0.053,0.298,-5.337
0.334,0.054,0.300,-5.337
0.232,0.056,0.296,-5.337
0.204,0.058,0.293,-5.337
0.197,0.060,0.298,-5.337
0.242,0.057,0.300,-5.337
0.312,0.052,0.295,-5.337
0.290,0.053,0.294,-5.337
0.273,0.058,0.295,-5.337
0.230,0.058,0.298,-5.337
0.191,0.054,0.295,-5.337
0.243,0.054,0.293,-5.337
0.271,0.053,0.295,-5.337
0.239,0.056,0.299,-5.337
0.181,0.056,0.301,-5.337
0.184,0.056,0.298,-5.337
0.231,0.055,0.292,-5.337
0.258,0.051,0.292,-5.337
0.241,0.050,0.293,-5.337
0.207,0.054,0.298,-5.337
0.121,0.054,0.301,-5.337
0.161,0.054,0.297,-5.337
0.232,0.054,0.293,-5.337
0.263,0.050,0.293,-5.337
0.309,0.049,0.294,-5.337
0.290,0.053,0.297,-5.337
0.194,0.057,0.299,-5.337
0.147,0.056,0.299,-5.337
0.163,0.051,0.299,-5.337
0.263,0.045,0.299,-5.337
0.303,0.044,0.297,-5.337
0.262,0.048,0.295,-5.337
0.202,0.049,0.295,-5.337
0.215,0.048,0.294,-5.337
0.209,0.048,0.294,-5.337
0.177,0.049,0.294,-5.337
0.196,0.049,0.295,-5.337
0.277,0.045,0.297,-5.337
0.261,0.044,0.301,-5.337
0.195,0.047,0.301,-5.337
0.175,0.047,0.297,-5.337
0.219,0.045,0.293,-5.337
0.214,0.046,0.291,-5.337
0.228,0.046,0.291,-5.337
0.206,0.044,0.293,-5.337
0.202,0.043,0.296,-5.337
0.211,0.044,0.299,-5.337
0.137,0.046,0.300,-5.337
0.126,0.047,0.299,-5.337
0.213,0.045,0.298,-5.337
0.223,0.043,0.295,-5.337
0.264,0.043,0.291,-5.337
0.275,0.046,0.292,-5.337
0.229,0.048,0.298,-5.337
0.225,0.046,0.301,-5.337
0.247,0.046,0.305,-5.337
0.211,0.042,0.302,-5.337
0.180,0.040,0.299,-5.337
0.229,0.040,0.293,-5.337
0.269,0.039,0.289,-5.337
0.265,0.041,0.290,-5.337
0.242,0.046,0.292,-5.337
0.211,0.046,0.294,-5.337
0.147,0.046,0.299,-5.337
0.146,0.044,0.303,-5.337
0.178,0.041,0.303,-5.337
0.222,0.040,0.298,-5.337
0.219,0.041,0.295,-5.337
0.175,0.042,0.296,-5.337
0.190,0.043,0.297,-5.337
0.198,0.045,0.296,-5.337
0.212,0.047,0.294,-5.337
0.239,0.044,0.296,-5.337
0.249,0.048,0.298,-5.337
0.214,0.049,0.299,-5.337
0.187,0.046,0.295,-5.337
0.195,0.044,0.292,-5.337
0.148,0.045,0.293,-5.337
0.153,0.046,0.296,-5.337
0.179,0.044,0.299,-5.337
0.167,0.040,0.301,-5.337
0.153,0.044,0.298,-5.337
0.201,0.046,0.297,-5.337
0.199,0.045,0.296,-5.337
0.203,0.040,0.300,-5.337
0.218,0.041,0.301,-5.337
0.194,0.044,0.295,-5.337
0.224,0.042,0.290,-5.337
0.219,0.041,0.293,-5.337
0.142,0.048,0.299,-5.337
0.099,0.048,0.299,-5.337
0.137,0.044,0.295,-5.337
0.196,0.043,0.294,-5.337
0.220,0.041,0.297,-5.337
0.207,0.044,0.298,-5.337
0.154,0.043,0.300,-5.337
0.171,0.037,0.299,-5.337
0.200,0.037,0.298,-5.337
0.195,0.040,0.299,-5.337
0.187,0.040,0.300,-5.337
0.217,0.044,0.299,-5.337
0.254,0.043,0.296,-5.337
0.195,0.042,0.293,-5.337
0.205,0.038,0.297,-5.337
0.208,0.041,0.300,-5.337
0.162,0.042,0.298,-5.337
0.160,0.039,0.294,-5.337
0.244,0.036,0.295,-5.337
0.260,0.038,0.295,-5.337
0.232,0.041,0.298,-5.337
0.252,0.035,0.300,-5.337
0.271,0.036,0.305,-5.337
0.254,0.038,0.305,-5.337
0.274,0.041,0.303,-5.337
0.218,0.040,0.300,-5.337
0.177,0.039,0.300,-5.337
0.134,0.040,0.300,-5.337
0.146,0.041,0.296,-5.337
0.215,0.037,0.292,-5.337
0.199,0.039,0.293,-5.337
0.120,0.039,0.297,-5.337
0.113,0.036,0.297,-5.337
0.129,0.039,0.294,-5.337
0.134,0.039,0.294,-5.337
0.185,0.034,0.295,-5.337
0.223,0.035,0.296,-5.337
0.202,0.035,0.297,-5.337
0.176,0.037,0.293,-5.337
0.184,0.039,0.292,-5.337
0.181,0.035,0.294,-5.337
0.184,0.034,0.293,-5.337
0.238,0.036,0.295,-5.337
0.254,0.036,0.299,-5.337
0.203,0.038,0.302,-5.337
0.228,0.039,0.303,-5.337
0.209,0.044,0.299,-5.337
0.166,0.041,0.301,-5.337
0.125,0.042,0.303,-5.337
0.067,0.043,0.305,-5.337
0.110,0.040,0.302,-5.337
0.180,0.040,0.301,-5.337
0.148,0.044,0.297,-5.337
0.131,0.042,0.294,-5.337
0.178,0.036,0.292,-5.337
0.217,0.035,0.294,-5.337
0.185,0.039,0.293,-5.337
0.155,0.039,0.293,-5.337
0.171,0.033,0.292,-5.337
0.189,0.036,0.297,-5.337
0.159,0.045,0.299,-5.337
0.177,0.045,0.300,-5.337
0.182,0.039,0.301,-5.337
0.191,0.034,0.299,-5.337
0.184,0.038,0.299,-5.337
0.149,0.040,0.298,-5.337
0.140,0.041,0.299,-5.337
0.189,0.041,0.298,-5.337
0.202,0.039,0.295,-5.337
0.178,0.033,0.291,-5.337
0.187,0.032,0.294,-5.337
0.199,0.033,0.298,-5.337
0.131,0.034,0.302,-5.337
0.096,0.032,0.302,-5.337
0.146,0.033,0.300,-5.337
0.158,0.032,0.297,-5.337
0.155,0.033,0.297,-5.337
0.103,0.033,0.295,-5.337
0.117,0.037,0.295,-5.337
0.184,0.036,0.295,-5.337
0.184,0.036,0.297,-5.337
0.134,0.036,0.299,-5.337
0.129,0.040,0.302,-5.337
0.149,0.038,0.303,-5.337
0.170,0.035,0.303,-5.337
0.208,0.035,0.298,-5.337
0.182,0.039,0.293,-5.337
0.151,0.040,0.289,-5.337
0.114,0.042,0.289,-5.337
0.137,0.042,0.292,-5.337
0.140,0.043,0.298,-5.337
0.145,0.041,0.302,-5.337
0.126,0.038,0.300,-5.337
0.173,0.037,0.299,-5.337
0.144,0.038,0.302,-5.337
0.181,0.039,0.304,-5.337
0.208,0.040,0.302,-5.337
0.137,0.040,0.301,-5.337
0.154,0.035,0.298,-5.337
0.199,0.033,0.296,-5.337
0.203,0.030,0.294,-5.337
0.220,0.031,0.293,-5.337
0.195,0.034,0.296,-5.337
0.112,0.037,0.300,-5.337
0.069,0.035,0.297,-5.337
0.107,0.035,0.294,-5.337
0.208,0.032,0.292,-5.337
0.221,0.034,0.294,-5.337
0.175,0.036,0.296,-5.337
0.177,0.037,0.295,-5.337
0.179,0.038,0.297,-5.337
0.192,0.035,0.297,-5.337
0.140,0.035,0.298,-5.337
0.083,0.032,0.298,-5.337
0.137,0.030,0.299,-5.337
0.155,0.034,0.297,-5.337
0.130,0.040,0.299,-5.337
0.130,0.039,0.297,-5.337
0.152,0.037,0.297,-5.337
0.176,0.034,0.296,-5.337
0.198,0.034,0.294,-5.337
0.186,0.036,0.292,-5.337
0.164,0.041,0.294,-5.337
0.083,0.041,0.297,-5.337
0.011,0.044,0.300,-5.337
0.099,0.041,0.298,-5.337
0.154,0.042,0.296,-5.337
0.126,0.045,0.294,-5.337
0.093,0.042,0.295,-5.337
0.140,0.038,0.296,-5.337
0.135,0.042,0.298,-5.337
0.170,0.041,0.294,-5.337
0.167,0.038,0.290,-5.337
0.084,0.037,0.292,-5.337
0.132,0.042,0.297,-5.337
0.165,0.042,0.297,-5.337
0.204,0.039,0.294,-5.337
0.248,0.035,0.293,-5.337
0.226,0.038,0.296,-5.337
0.172,0.038,0.300,-5.337
0.207,0.030,0.298,-5.337
0.179,0.032,0.298,-5.337
0.126,0.033,0.296,-5.337
0.106,0.033,0.297,-5.337
0.156,0.033,0.295,-5.337
0.161,0.033,0.293,-5.337
0.143,0.033,0.292,-5.337
0.112,0.037,0.295,-5.337
0.079,0.036,0.296,-5.337
0.124,0.034,0.295,-5.337
0.203,0.030,0.292,-5.337
0.176,0.032,0.292,-5.337
0.103,0.034,0.295,-5.337
0.081,0.037,0.299,-5.337
0.097,0.035,0.299,-5.337
0.153,0.034,0.298,-5.337
0.193,0.031,0.298,-5.337
0.185,0.030,0.294,-5.337
0.169,0.034,0.289,-5.337
0.142,0.040,0.292,-5.337
0.135,0.038,0.295,-5.337
0.147,0.039,0.295,-5.337
0.161,0.042,0.296,-5.337
0.143,0.043,0.299,-5.337
0.138,0.042,0.301,-5.337
0.104,0.043,0.293,-5.337
0.065,0.045,0.291,-5.337
0.130,0.042,0.293,-5.337
0.198,0.041,0.297,-5.337
0.189,0.040,0.299,-5.337
0.165,0.038,0.304,-5.337
0.170,0.033,0.299,-5.337
0.179,0.035,0.292,-5.337
0.144,0.039,0.291,-5.337
0.100,0.043,0.297,-5.337
0.070,0.044,0.298,-5.337
0.137,0.040,0.297,-5.337
0.181,0.039,0.297,-5.337
0.130,0.045,0.297,-5.337
0.127,0.044,0.298,-5.337
0.098,0.046,0.301,-5.337
0.086,0.046,0.300,-5.337
0.110,0.045,0.294,-5.337
0.129,0.045,0.293,-5.337
0.135,0.047,0.294,-5.337
0.107,0.045,0.292,-5.337
0.112,0.045,0.292,-5.337
0.116,0.047,0.293,-5.337
0.104,0.047,0.293,-5.337
0.114,0.046,0.297,-5.337
0.154,0.047,0.296,-5.337
0.163,0.046,0.294,-5.337
0.199,0.042,0.294,-5.337
0.195,0.039,0.295,-5.337
0.140,0.044,0.295,-5.337
0.082,0.046,0.295,-5.337
0.080,0.045,0.294,-5.337
0.142,0.046,0.293,-5.337
0.216,0.044,0.291,-5.337
0.274,0.044,0.291,-5.337
0.186,0.045,0.295,-5.337
0.132,0.046,0.302,-5.337
0.153,0.047,0.303,-5.337
0.179,0.048,0.302,-5.337
0.185,0.046,0.301,-5.337
0.130,0.047,0.300,-5.337
0.195,0.041,0.299,-5.337
0.227,0.040,0.300,-5.337
0.165,0.041,0.295,-5.337
0.167,0.043,0.291,-5.337
0.176,0.045,0.291,-5.337
0.258,0.042,0.296,-5.337
0.219,0.043,0.299,-5.337
0.123,0.049,0.297,-5.337
0.150,0.044,0.295,-5.337
0.211,0.043,0.294,-5.337
0.192,0.045,0.296,-5.337
0.170,0.048,0.296,-5.337
0.178,0.049,0.296,-5.337
0.213,0.046,0.298,-5.337
0.209,0.048,0.298,-5.337
0.181,0.054,0.297,-5.337
0.150,0.054,0.292,-5.337
0.108,0.051,0.292,-5.337
0.146,0.050,0.295,-5.337
0.181,0.052,0.294,-5.337
0.176,0.054,0.295,-5.337
0.155,0.057,0.294,-5.337
0.132,0.054,0.295,-5.337
0.186,0.051,0.299,-5.337
0.199,0.053,0.301,-5.337
0.213,0.049,0.299,-5.337
0.239,0.047,0.293,-5.337
0.204,0.051,0.293,-5.337
0.166,0.052,0.293,-5.337
0.188,0.051,0.296,-5.337
0.226,0.051,0.296,-5.337
0.205,0.049,0.297,-5.337
0.201,0.046,0.296,-5.337
0.201,0.049,0.297,-5.337
0.147,0.049,0.294,-5.337
0.103,0.050,0.294,-5.337
0.181,0.049,0.292,-5.337
0.213,0.052,0.296,-5.337
0.114,0.051,0.297,-5.337
0.087,0.053,0.297,-5.337
0.150,0.051,0.295,-5.337
0.232,0.051,0.295,-5.337
0.224,0.050,0.297,-5.337
0.157,0.055,0.296,-5.337
0.167,0.055,0.295,-5.337
0.191,0.057,0.299,-5.337
0.169,0.057,0.298,-5.337
0.160,0.058,0.296,-5.337
0.190,0.057,0.296,-5.337
0.196,0.057,0.294,-5.337
0.167,0.059,0.293,-5.337
0.185,0.057,0.297,-5.337
0.196,0.056,0.301,-5.337
0.196,0.054,0.296,-5.337
0.218,0.055,0.295,-5.337
0.220,0.054,0.297,-5.337
0.184,0.061,0.298,-5.337
0.200,0.060,0.297,-5.337
0.207,0.057,0.297,-5.337
0.191,0.058,0.297,-5.337
0.140,0.061,0.299,-5.337
0.069,0.063,0.298,-5.337
0.096,0.059,0.296,-5.337
0.215,0.059,0.292,-5.337
0.268,0.056,0.293,-5.337
0.216,0.056,0.297,-5.337
0.207,0.057,0.302,-5.337
0.203,0.057,0.305,-5.337
0.231,0.056,0.305,-5.337
0.255,0.057,0.302,-5.337
0.188,0.059,0.300,-5.337
0.171,0.057,0.297,-5.337
0.260,0.056,0.296,-5.337
0.253,0.058,0.293,-5.337
0.225,0.062,0.291,-5.337
0.166,0.063,0.290,-5.337
0.184,0.062,0.290,-5.337
0.196,0.062,0.294,-5.337
0.162,0.061,0.298,-5.337
0.163,0.059,0.301,-5.337
0.151,0.055,0.300,-5.337
0.151,0.057,0.296,-5.337
0.241,0.054,0.293,-5.337
0.276,0.056,0.295,-5.337
0.242,0.059,0.297,-5.337
0.211,0.060,0.299,-5.337
0.242,0.057,0.301,-5.337
0.238,0.058,0.302,-5.337
0.173,0.058,0.298,-5.337
0.188,0.058,0.297,-5.337
0.173,0.057,0.299,-5.337
0.155,0.058,0.299,-5.337
0.197,0.054,0.299,-5.337
0.250,0.055,0.298,-5.337
0.242,0.055,0.299,-5.337
0.242,0.053,0.299,-5.337
0.250,0.052,0.297,-5.337
0.248,0.055,0.295,-5.337
0.228,0.058,0.295,-5.337
0.186,0.060,0.298,-5.337
0.231,0.057,0.299,-5.337
0.239,0.057,0.298,-5.337
0.168,0.059,0.299,-5.337
0.182,0.061,0.297,-5.337
0.211,0.057,0.297,-5.337
0.221,0.056,0.296,-5.337
0.236,0.058,0.292,-5.337
0.203,0.063,0.293,-5.337
0.173,0.063,0.299,-5.337
0.221,0.061,0.302,-5.337
0.234,0.060,0.303,-5.337
0.199,0.058,0.300,-5.337
0.242,0.056,0.300,-5.337
0.214,0.058,0.296,-5.337
0.200,0.058,0.295,-5.337
0.154,0.058,0.296,-5.337
0.183,0.057,0.299,-5.337
0.248,0.056,0.304,-5.337
0.240,0.059,0.304,-5.337
0.224,0.059,0.300,-5.337
0.246,0.061,0.298,-5.337
0.180,0.059,0.296,-5.337
0.188,0.058,0.294,-5.337
0.220,0.057,0.293,-5.337
0.221,0.058,0.296,-5.337
0.192,0.059,0.298,-5.337
0.188,0.060,0.295,-5.337
0.245,0.058,0.293,-5.337
0.228,0.060,0.293,-5.337
0.244,0.060,0.294,-5.337
0.264,0.060,0.295,-5.337
0.272,0.055,0.297,-5.337
0.342,0.055,0.296,-5.337
0.294,0.054,0.300,-5.337
0.239,0.055,0.302,-5.337
0.291,0.054,0.302,-5.337
0.261,0.057,0.302,-5.337
0.167,0.062,0.302,-5.337
0.167,0.060,0.297,-5.337
0.238,0.060,0.295,-5.337
0.209,0.061,0.294,-5.337
0.238,0.062,0.292,-5.337
0.219,0.062,0.290,-5.337
0.203,0.063,0.295,-5.337
0.259,0.061,0.300,-5.337
0.234,0.063,0.304,-5.337
0.182,0.065,0.304,-5.337
0.159,0.063,0.303,-5.337
0.252,0.060,0.297,-5.337
0.340,0.060,0.294,-5.337
0.357,0.064,0.291,-5.337
0.285,0.064,0.290,-5.337
0.219,0.064,0.292,-5.337
0.218,0.064,0.294,-5.337
0.232,0.062,0.297,-5.337
0.218,0.061,0.300,-5.337
0.197,0.063,0.302,-5.337
0.210,0.065,0.301,-5.337
0.215,0.067,0.304,-5.337
0.231,0.062,0.302,-5.337
0.275,0.060,0.297,-5.337
0.282,0.063,0.293,-5.337
0.242,0.067,0.294,-5.337
0.144,0.067,0.295,-5.337
0.170,0.067,0.295,-5.337
0.278,0.063,0.296,-5.337
0.327,0.062,0.298,-5.337
0.307,0.062,0.299,-5.337
0.268,0.064,0.296,-5.337
0.220,0.065,0.295,-5.337
0.195,0.069,0.296,-5.337
0.203,0.068,0.295,-5.337
0.263,0.065,0.292,-5.337
0.214,0.068,0.297,-5.337
0.200,0.070,0.299,-5.337
0.249,0.064,0.301,-5.337
0.232,0.065,0.301,-5.337
0.205,0.066,0.301,-5.337
0.264,0.062,0.300,-5.337
0.340,0.057,0.297,-5.337
0.298,0.058,0.294,-5.337
0.265,0.062,0.297,-5.337
0.274,0.062,0.298,-5.337
0.305,0.060,0.298,-5.337
0.311,0.059,0.294,-5.337
0.271,0.058,0.294,-5.337
0.287,0.056,0.295,-5.337
0.261,0.058,0.297,-5.337
0.248,0.057,0.294,-5.337
0.258,0.060,0.290,-5.337
0.225,0.067,0.295,-5.337
0.235,0.067,0.300,-5.337
0.297,0.063,0.298,-5.337
0.315,0.058,0.297,-5.337
0.316,0.059,0.296,-5.337
0.338,0.053,0.296,-5.337
0.313,0.051,0.295,-5.337
0.337,0.053,0.292,-5.337
0.252,0.060,0.292,-5.337
0.154,0.060,0.290,-5.337
0.225,0.054,0.292,-5.337
0.268,0.055,0.297,-5.337
0.240,0.062,0.300,-5.337
0.267,0.060,0.297,-5.337
0.257,0.058,0.296,-5.337
0.158,0.059,0.296,-5.337
0.178,0.060,0.295,-5.337
0.234,0.058,0.295,-5.337
0.185,0.061,0.298,-5.337
0.172,0.058,0.300,-5.337
0.260,0.053,0.299,-5.337
0.297,0.052,0.296,-5.337
0.244,0.056,0.295,-5.337
0.227,0.058,0.296,-5.337
0.187,0.062,0.296,-5.337
0.170,0.062,0.296,-5.337
0.148,0.062,0.297,-5.337
0.148,0.060,0.294,-5.337
0.201,0.059,0.291,-5.337
0.216,0.058,0.291,-5.337
0.214,0.058,0.294,-5.337
0.200,0.059,0.295,-5.337
0.252,0.054,0.297,-5.337
0.287,0.052,0.300,-5.337
0.280,0.054,0.300,-5.337
0.266,0.051,0.299,-5.337
0.295,0.051,0.298,-5.337
0.295,0.051,0.293,-5.337
0.276,0.050,0.292,-5.337
0.209,0.053,0.298,-5.337
0.199,0.051,0.300,-5.337
0.273,0.051,0.297,-5.337
0.284,0.057,0.296,-5.337
0.232,0.057,0.297,-5.337
0.246,0.056,0.298,-5.337
0.196,0.060,0.300,-5.337
0.185,0.056,0.298,-5.337
0.227,0.055,0.295,-5.337
0.240,0.053,0.297,-5.337
0.229,0.054,0.297,-5.337
0.212,0.056,0.296,-5.337
0.233,0.057,0.297,-5.337
0.252,0.056,0.298,-5.337
0.201,0.056,0.301,-5.337
0.129,0.055,0.299,-5.337
0.145,0.052,0.296,-5.337
0.227,0.051,0.295,-5.337
0.305,0.051,0.292,-5.337
0.296,0.051,0.294,-5.337
0.178,0.053,0.299,-5.337
0.134,0.051,0.301,-5.337
0.174,0.050,0.300,-5.337
0.182,0.052,0.300,-5.337
0.169,0.053,0.297,-5.337
0.195,0.052,0.298,-5.337
0.238,0.051,0.299,-5.337
0.241,0.049,0.295,-5.337
0.180,0.048,0.291,-5.337
0.197,0.049,0.297,-5.337
0.247,0.046,0.302,-5.337
0.223,0.049,0.304,-5.337
0.210,0.052,0.301,-5.337
0.171,0.054,0.300,-5.337
0.196,0.051,0.298,-5.337
0.179,0.050,0.295,-5.337
0.180,0.049,0.296,-5.337
0.218,0.050,0.300,-5.337
0.263,0.050,0.302,-5.337
0.259,0.051,0.300,-5.337
0.228,0.049,0.297,-5.337
0.217,0.052,0.297,-5.337
0.212,0.051,0.296,-5.337
0.195,0.049,0.294,-5.337
0.190,0.046,0.294,-5.337
0.226,0.047,0.295,-5.337
0.227,0.048,0.296,-5.337
0.145,0.047,0.293,-5.337
0.165,0.044,0.295,-5.337
0.272,0.043,0.295,-5.337
0.216,0.047,0.298,-5.337
0.157,0.051,0.299,-5.337
0.116,0.056,0.301,-5.337
0.177,0.050,0.297,-5.337
0.275,0.044,0.296,-5.337
0.264,0.040,0.298,-5.337
0.257,0.041,0.302,-5.337
0.278,0.041,0.301,-5.337
0.266,0.042,0.300,-5.337
0.209,0.041,0.299,-5.337
0.207,0.044,0.298,-5.337
0.188,0.045,0.296,-5.337
0.163,0.045,0.298,-5.337
0.127,0.048,0.297,-5.337
0.160,0.044,0.294,-5.337
0.207,0.044,0.292,-5.337
0.245,0.043,0.299,-5.337
0.202,0.043,0.301,-5.337
0.169,0.040,0.299,-5.337
0.183,0.041,0.297,-5.337
0.208,0.043,0.294,-5.337
0.225,0.042,0.296,-5.337
0.237,0.037,0.297,-5.337
0.262,0.036,0.299,-5.337
0.293,0.040,0.297,-5.337
0.230,0.045,0.294,-5.337
0.183,0.041,0.293,-5.337
0.217,0.041,0.295,-5.337
0.217,0.038,0.293,-5.337
0.137,0.039,0.296,-5.337
0.148,0.036,0.297,-5.337
0.240,0.034,0.295,-5.337
0.277,0.036,0.297,-5.337
0.251,0.040,0.295,-5.337
0.233,0.042,0.294,-5.337
0.202,0.043,0.293,-5.337
0.218,0.038,0.296,-5.337
0.202,0.040,0.302,-5.337
0.111,0.040,0.302,-5.337
0.146,0.041,0.296,-5.337
0.212,0.043,0.292,-5.337
0.159,0.045,0.290,-5.337
0.141,0.045,0.293,-5.337
0.169,0.041,0.297,-5.337
0.199,0.037,0.302,-5.337
0.185,0.038,0.305,-5.337
0.155,0.036,0.306,-5.337
0.098,0.036,0.299,-5.337
0.137,0.038,0.292,-5.337
0.139,0.040,0.293,-5.337
0.117,0.040,0.297,-5.337
0.081,0.038,0.299,-5.337
0.153,0.038,0.298,-5.337
0.194,0.040,0.296,-5.337
0.172,0.038,0.296,-5.337
0.175,0.037,0.295,-5.337
0.155,0.035,0.293,-5.337
0.132,0.037,0.294,-5.337
0.151,0.036,0.302,-5.337
0.166,0.036,0.305,-5.337
0.164,0.033,0.302,-5.337
0.165,0.035,0.295,-5.337
0.175,0.040,0.293,-5.337
0.191,0.039,0.296,-5.337
0.201,0.039,0.300,-5.337
0.179,0.035,0.300,-5.337
0.127,0.035,0.296,-5.337
0.127,0.038,0.297,-5.337
0.150,0.040,0.299,-5.337
0.156,0.038,0.301,-5.337
0.169,0.035,0.301,-5.337
0.167,0.033,0.306,-5.337
0.186,0.032,0.306,-5.337
0.201,0.031,0.306,-5.337
0.208,0.033,0.303,-5.337
0.234,0.033,0.298,-5.337
0.257,0.035,0.293,-5.337
0.191,0.041,0.294,-5.337
0.160,0.038,0.296,-5.337
0.220,0.035,0.297,-5.337
0.227,0.039,0.296,-5.337
0.201,0.042,0.298,-5.337
0.124,0.038,0.301,-5.337
0.163,0.037,0.303,-5.337
0.165,0.037,0.300,-5.337
0.079,0.037,0.297,-5.337
0.098,0.036,0.298,-5.337
0.200,0.035,0.298,-5.337
0.244,0.035,0.298,-5.337
0.195,0.034,0.299,-5.337
0.197,0.032,0.297,-5.337
0.181,0.035,0.294,-5.337
0.117,0.035,0.294,-5.337
0.076,0.034,0.297,-5.337
0.063,0.035,0.302,-5.337
0.103,0.036,0.303,-5.337
0.091,0.038,0.302,-5.337
0.110,0.038,0.299,-5.337
0.171,0.035,0.297,-5.337
0.134,0.038,0.295,-5.337
0.131,0.038,0.292,-5.337
0.162,0.037,0.294,-5.337
0.190,0.036,0.301,-5.337
0.228,0.036,0.303,-5.337
0.227,0.035,0.301,-5.337
0.211,0.034,0.300,-5.337
0.160,0.035,0.299,-5.337
0.102,0.035,0.295,-5.337
0.131,0.035,0.294,-5.337
0.167,0.033,0.296,-5.337
0.172,0.034,0.300,-5.337
0.135,0.036,0.302,-5.337
0.161,0.038,0.299,-5.337
0.150,0.037,0.296,-5.337
0.172,0.034,0.297,-5.337
0.177,0.035,0.295,-5.337
0.135,0.033,0.298,-5.337
0.073,0.032,0.304,-5.337
0.064,0.035,0.303,-5.337
0.101,0.037,0.299,-5.337
0.112,0.036,0.296,-5.337
0.086,0.034,0.296,-5.337
0.109,0.032,0.296,-5.337
0.187,0.035,0.299,-5.337
0.203,0.035,0.300,-5.337
0.169,0.035,0.300,-5.337
0.149,0.039,0.297,-5.337
0.135,0.040,0.295,-5.337
0.207,0.031,0.297,-5.337
0.247,0.032,0.300,-5.337
0.252,0.032,0.299,-5.337
0.188,0.036,0.298,-5.337
0.167,0.034,0.298,-5.337
0.151,0.036,0.298,-5.337
0.105,0.037,0.297,-5.337
0.128,0.034,0.298,-5.337
0.125,0.031,0.300,-5.337
0.135,0.033,0.301,-5.337
0.174,0.038,0.299,-5.337
0.187,0.037,0.294,-5.337
0.139,0.041,0.293,-5.337
0.077,0.041,0.296,-5.337
0.082,0.035,0.300,-5.337
0.117,0.036,0.298,-5.337
0.148,0.039,0.299,-5.337
0.168,0.038,0.299,-5.337
0.138,0.035,0.298,-5.337
0.124,0.034,0.293,-5.337
0.163,0.035,0.293,-5.337
0.193,0.035,0.296,-5.337
0.155,0.036,0.300,-5.337
0.131,0.035,0.303,-5.337
0.119,0.036,0.299,-5.337
0.098,0.033,0.293,-5.337
0.113,0.031,0.291,-5.337
0.132,0.031,0.293,-5.337
0.145,0.034,0.295,-5.337
0.156,0.033,0.300,-5.337
0.201,0.034,0.303,-5.337
0.202,0.035,0.304,-5.337
0.154,0.037,0.304,-5.337
0.101,0.038,0.301,-5.337
0.149,0.036,0.299,-5.337
0.199,0.037,0.296,-5.337
0.218,0.038,0.294,-5.337
0.225,0.036,0.292,-5.337
0.204,0.033,0.293,-5.337
0.178,0.030,0.294,-5.337
0.230,0.033,0.295,-5.337
0.192,0.035,0.295,-5.337
0.081,0.036,0.293,-5.337
0.060,0.039,0.293,-5.337
0.085,0.038,0.295,-5.337
0.092,0.036,0.294,-5.337
0.109,0.037,0.290,-5.337
0.149,0.043,0.289,-5.337
0.114,0.043,0.291,-5.337
0.154,0.038,0.294,-5.337
0.184,0.039,0.296,-5.337
0.172,0.039,0.300,-5.337
0.127,0.038,0.301,-5.337
0.118,0.040,0.298,-5.337
0.123,0.043,0.297,-5.337
0.122,0.047,0.298,-5.337
0.076,0.048,0.297,-5.337
0.085,0.043,0.296,-5.337
0.147,0.041,0.295,-5.337
0.123,0.045,0.295,-5.337
0.102,0.047,0.297,-5.337
0.105,0.042,0.297,-5.337
0.147,0.042,0.299,-5.337
0.139,0.044,0.297,-5.337
0.048,0.050,0.294,-5.337
-0.057,0.050,0.289,-5.337
0.012,0.047,0.292,-5.337
0.158,0.044,0.296,-5.337
0.196,0.045,0.300,-5.337
0.180,0.042,0.300,-5.337
0.124,0.046,0.298,-5.337
0.074,0.046,0.294,-5.337
0.084,0.048,0.294,-5.337
0.137,0.044,0.295,-5.337
0.203,0.043,0.296,-5.337
0.267,0.042,0.295,-5.337
0.262,0.043,0.295,-5.337
0.192,0.043,0.294,-5.337
0.140,0.040,0.290,-5.337
0.129,0.039,0.289,-5.337
0.141,0.043,0.294,-5.337
0.163,0.046,0.295,-5.337
0.134,0.045,0.296,-5.337
0.105,0.042,0.301,-5.337
0.138,0.039,0.303,-5.337
0.196,0.039,0.300,-5.337
0.216,0.043,0.295,-5.337
0.152,0.046,0.293,-5.337
0.126,0.046,0.292,-5.337
0.142,0.046,0.298,-5.337
0.128,0.039,0.299,-5.337
0.145,0.039,0.297,-5.337
0.179,0.042,0.295,-5.337
0.162,0.045,0.297,-5.337
0.148,0.045,0.299,-5.337
0.175,0.048,0.298,-5.337
0.177,0.043,0.296,-5.337
0.155,0.042,0.294,-5.337
0.129,0.043,0.292,-5.337
0.121,0.048,0.292,-5.337
0.163,0.046,0.296,-5.337
0.190,0.045,0.299,-5.337
0.157,0.043,0.298,-5.337
0.130,0.044,0.297,-5.337
0.223,0.040,0.295,-5.337
0.244,0.044,0.298,-5.337
0.157,0.045,0.298,-5.337
0.154,0.043,0.293,-5.337
0.188,0.039,0.287,-5.337
0.189,0.045,0.287,-5.337
0.208,0.046,0.291,-5.337
0.219,0.049,0.296,-5.337
0.221,0.052,0.302,-5.337
0.204,0.051,0.303,-5.337
0.170,0.048,0.300,-5.337
0.179,0.044,0.296,-5.337
0.178,0.046,0.299,-5.337
0.177,0.048,0.299,-5.337
0.181,0.049,0.298,-5.337
0.188,0.048,0.293,-5.337
0.210,0.046,0.292,-5.337
0.193,0.044,0.293,-5.337
0.123,0.046,0.294,-5.337
0.112,0.049,0.293,-5.337
0.118,0.050,0.298,-5.337
0.133,0.051,0.301,-5.337
0.122,0.052,0.297,-5.337
0.157,0.049,0.295,-5.337
0.229,0.046,0.298,-5.337
0.229,0.045,0.300,-5.337
0.238,0.045,0.300,-5.337
0.203,0.046,0.296,-5.337
0.162,0.046,0.294,-5.337
0.174,0.046,0.293,-5.337
0.196,0.049,0.294,-5.337
0.174,0.049,0.293,-5.337
0.151,0.049,0.292,-5.337
0.182,0.048,0.294,-5.337
0.231,0.046,0.295,-5.337
0.206,0.050,0.297,-5.337
0.213,0.050,0.298,-5.337
0.228,0.047,0.301,-5.337
0.231,0.045,0.303,-5.337
0.200,0.048,0.301,-5.337
0.188,0.051,0.295,-5.337
0.169,0.050,0.291,-5.337
0.119,0.049,0.291,-5.337
0.117,0.052,0.295,-5.337
0.181,0.051,0.298,-5.337
0.181,0.054,0.296,-5.337
0.151,0.052,0.293,-5.337
0.202,0.049,0.292,-5.337
0.212,0.054,0.294,-5.337
0.071,0.061,0.295,-5.337
0.084,0.060,0.295,-5.337
0.217,0.057,0.299,-5.337
0.256,0.056,0.301,-5.337
0.197,0.058,0.301,-5.337
0.171,0.058,0.298,-5.337
0.207,0.054,0.298,-5.337
0.239,0.049,0.296,-5.337
0.260,0.049,0.293,-5.337
0.303,0.053,0.292,-5.337
0.267,0.051,0.292,-5.337
0.191,0.053,0.294,-5.337
0.124,0.056,0.295,-5.337
0.159,0.058,0.297,-5.337
0.162,0.058,0.293,-5.337
0.152,0.056,0.292,-5.337
0.205,0.054,0.292,-5.337
0.264,0.058,0.295,-5.337
0.199,0.061,0.294,-5.337
0.154,0.062,0.291,-5.337
0.160,0.059,0.291,-5.337
0.226,0.054,0.298,-5.337
0.255,0.056,0.301,-5.337
0.262,0.057,0.301,-5.337
0.253,0.055,0.299,-5.337
0.225,0.055,0.295,-5.337
0.210,0.053,0.291,-5.337
0.203,0.055,0.291,-5.337
0.203,0.052,0.294,-5.337
0.227,0.053,0.296,-5.337
0.228,0.051,0.297,-5.337
0.223,0.053,0.296,-5.337
0.239,0.055,0.295,-5.337
0.284,0.054,0.295,-5.337
0.289,0.055,0.299,-5.337
0.240,0.054,0.298,-5.337
0.184,0.059,0.295,-5.337
0.205,0.061,0.292,-5.337
0.246,0.060,0.293,-5.337
0.250,0.057,0.296,-5.337
0.246,0.058,0.298,-5.337
0.199,0.061,0.297,-5.337
0.160,0.063,0.293,-5.337
0.147,0.063,0.292,-5.337
0.209,0.060,0.295,-5.337
0.297,0.061,0.297,-5.337
0.273,0.066,0.299,-5.337
0.223,0.067,0.298,-5.337
0.173,0.067,0.300,-5.337
0.263,0.062,0.301,-5.337
0.312,0.065,0.302,-5.337
0.266,0.068,0.300,-5.337
0.226,0.066,0.297,-5.337
0.219,0.065,0.295,-5.337
0.170,0.068,0.292,-5.337
0.173,0.070,0.293,-5.337
0.208,0.066,0.293,-5.337
0.236,0.062,0.293,-5.337
0.214,0.062,0.297,-5.337
0.150,0.063,0.300,-5.337
0.226,0.060,0.301,-5.337
0.325,0.058,0.302,-5.337
0.294,0.059,0.300,-5.337
0.270,0.058,0.298,-5.337
0.248,0.059,0.295,-5.337
0.229,0.061,0.296,-5.337
0.192,0.061,0.299,-5.337
0.189,0.064,0.302,-5.337
0.165,0.063,0.300,-5.337
0.125,0.060,0.297,-5.337
0.149,0.054,0.295,-5.337
0.223,0.057,0.296,-5.337
0.241,0.062,0.295,-5.337
0.244,0.063,0.295,-5.337
0.328,0.056,0.294,-5.337
0.351,0.055,0.296,-5.337
0.305,0.059,0.297,-5.337
0.317,0.058,0.296,-5.337
0.252,0.061,0.295,-5.337
0.189,0.063,0.300,-5.337
0.158,0.064,0.301,-5.337
0.161,0.068,0.300,-5.337
0.202,0.068,0.302,-5.337
0.195,0.067,0.301,-5.337
0.166,0.066,0.299,-5.337
0.241,0.063,0.297,-5.337
0.304,0.066,0.297,-5.337
0.288,0.067,0.297,-5.337
0.283,0.066,0.300,-5.337
0.223,0.067,0.298,-5.337
0.227,0.066,0.296,-5.337
0.273,0.062,0.297,-5.337
0.262,0.060,0.296,-5.337
0.324,0.057,0.295,-5.337
0.339,0.059,0.295,-5.337
0.327,0.065,0.299,-5.337
0.248,0.065,0.300,-5.337
0.256,0.061,0.294,-5.337
0.262,0.059,0.295,-5.337
0.266,0.061,0.293,-5.337
0.240,0.062,0.297,-5.337
0.237,0.063,0.301,-5.337
0.256,0.063,0.301,-5.337
0.244,0.061,0.298,-5.337
0.239,0.063,0.299,-5.337
0.216,0.064,0.298,-5.337
0.228,0.062,0.295,-5.337
0.204,0.058,0.293,-5.337
0.217,0.059,0.291,-5.337
0.243,0.060,0.296,-5.337
0.225,0.060,0.297,-5.337
0.244,0.062,0.299,-5.337
0.238,0.063,0.302,-5.337
0.268,0.063,0.302,-5.337
0.278,0.061,0.301,-5.337
0.274,0.063,0.299,-5.337
0.293,0.061,0.296,-5.337
0.319,0.058,0.299,-5.337
0.271,0.057,0.297,-5.337
0.244,0.058,0.297,-5.337
0.262,0.061,0.299,-5.337
0.314,0.059,0.297,-5.337
0.300,0.060,0.292,-5.337
0.282,0.061,0.291,-5.337
0.201,0.060,0.292,-5.337
0.194,0.058,0.295,-5.337
0.215,0.062,0.297,-5.337
0.255,0.063,0.295,-5.337
0.254,0.064,0.295,-5.337
0.216,0.064,0.295,-5.337
0.202,0.062,0.295,-5.337
0.308,0.055,0.296,-5.337
0.374,0.054,0.296,-5.337
0.339,0.054,0.294,-5.337
0.317,0.059,0.296,-5.337
0.279,0.064,0.293,-5.337
0.228,0.062,0.294,-5.337
0.178,0.057,0.298,-5.337
0.172,0.056,0.300,-5.337
0.178,0.057,0.298,-5.337
0.264,0.054,0.299,-5.337
0.353,0.046,0.299,-5.337
0.299,0.053,0.296,-5.337
0.201,0.061,0.292,-5.337
0.226,0.060,0.293,-5.337
0.234,0.058,0.292,-5.337
0.234,0.058,0.293,-5.337
0.227,0.054,0.295,-5.337
0.215,0.055,0.298,-5.337
0.206,0.058,0.299,-5.337
0.204,0.058,0.296,-5.337
0.237,0.056,0.296,-5.337
0.228,0.055,0.297,-5.337
0.174,0.056,0.296,-5.337
0.188,0.054,0.296,-5.337
0.218,0.051,0.296,-5.337
0.242,0.053,0.296,-5.337
0.265,0.057,0.298,-5.337
0.296,0.054,0.300,-5.337
0.245,0.050,0.299,-5.337
0.185,0.050,0.295,-5.337
0.192,0.051,0.294,-5.337
0.240,0.053,0.294,-5.337
0.220,0.057,0.290,-5.337
0.202,0.056,0.291,-5.337
0.164,0.057,0.298,-5.337
0.165,0.055,0.300,-5.337
0.146,0.060,0.296,-5.337
0.168,0.058,0.296,-5.337
0.215,0.058,0.296,-5.337
0.202,0.060,0.294,-5.337
0.187,0.059,0.295,-5.337
0.207,0.058,0.297,-5.337
0.261,0.055,0.297,-5.337
0.285,0.054,0.296,-5.337
0.244,0.051,0.293,-5.337
0.277,0.049,0.291,-5.337
0.214,0.052,0.293,-5.337
0.115,0.056,0.297,-5.337
0.147,0.056,0.297,-5.337
0.205,0.055,0.296,-5.337
0.179,0.055,0.292,-5.337
0.231,0.052,0.295,-5.337
0.266,0.051,0.296,-5.337
0.247,0.051,0.298,-5.337
0.260,0.049,0.294,-5.337
0.255,0.052,0.290,-5.337
0.163,0.051,0.289,-5.337
0.195,0.048,0.291,-5.337
0.267,0.047,0.290,-5.337
0.217,0.049,0.292,-5.337
0.169,0.048,0.297,-5.337
0.170,0.052,0.300,-5.337
0.172,0.051,0.299,-5.337
0.217,0.047,0.297,-5.337
0.233,0.043,0.298,-5.337
0.238,0.042,0.296,-5.337
0.252,0.042,0.293,-5.337
0.268,0.042,0.292,-5.337
0.214,0.049,0.294,-5.337
0.199,0.047,0.296,-5.337
0.167,0.049,0.298,-5.337
0.122,0.050,0.301,-5.337
0.164,0.044,0.301,-5.337
0.201,0.043,0.297,-5.337
0.238,0.043,0.295,-5.337
0.277,0.042,0.293,-5.337
0.233,0.042,0.296,-5.337
0.180,0.042,0.296,-5.337
0.187,0.043,0.296,-5.337
0.175,0.042,0.294,-5.337
0.260,0.040,0.294,-5.337
0.273,0.040,0.293,-5.337
0.242,0.048,0.293,-5.337
0.230,0.045,0.295,-5.337
0.255,0.041,0.297,-5.337
0.209,0.041,0.297,-5.337
0.183,0.043,0.299,-5.337
0.234,0.041,0.298,-5.337
0.249,0.037,0.295,-5.337
0.219,0.034,0.295,-5.337
0.188,0.036,0.300,-5.337
0.140,0.042,0.299,-5.337
0.159,0.041,0.298,-5.337
0.245,0.039,0.293,-5.337
0.289,0.042,0.295,-5.337
0.281,0.044,0.297,-5.337
0.255,0.044,0.298,-5.337
0.210,0.044,0.299,-5.337
0.151,0.047,0.298,-5.337
0.143,0.048,0.297,-5.337
0.149,0.048,0.293,-5.337
0.143,0.046,0.295,-5.337
0.166,0.044,0.298,-5.337
0.171,0.046,0.300,-5.337
0.176,0.045,0.298,-5.337
0.165,0.047,0.297,-5.337
0.127,0.043,0.295,-5.337
0.118,0.044,0.292,-5.337
0.198,0.044,0.289,-5.337
0.240,0.042,0.290,-5.337
0.224,0.039,0.294,-5.337
0.181,0.040,0.298,-5.337
0.181,0.040,0.299,-5.337
0.186,0.047,0.300,-5.337
0.171,0.049,0.299,-5.337
0.141,0.046,0.295,-5.337
0.075,0.045,0.293,-5.337
0.122,0.043,0.293,-5.337
0.189,0.044,0.293,-5.337
0.247,0.044,0.296,-5.337
0.277,0.043,0.297,-5.337
0.236,0.044,0.293,-5.337
0.215,0.044,0.294,-5.337
0.215,0.043,0.297,-5.337
0.165,0.046,0.299,-5.337
0.134,0.044,0.295,-5.337
0.163,0.041,0.294,-5.337
0.196,0.039,0.293,-5.337
0.159,0.039,0.295,-5.337
0.159,0.038,0.295,-5.337
0.235,0.042,0.298,-5.337
0.160,0.040,0.296,-5.337
0.108,0.041,0.295,-5.337
0.132,0.041,0.296,-5.337
0.167,0.040,0.300,-5.337
0.197,0.040,0.300,-5.337
0.200,0.040,0.297,-5.337
0.217,0.037,0.293,-5.337
0.212,0.039,0.291,-5.337
0.176,0.042,0.291,-5.337
0.151,0.046,0.295,-5.337
0.129,0.047,0.298,-5.337
0.150,0.042,0.296,-5.337
0.217,0.040,0.294,-5.337
0.199,0.044,0.295,-5.337
0.190,0.042,0.296,-5.337
0.201,0.038,0.292,-5.337
0.155,0.039,0.291,-5.337
0.141,0.041,0.292,-5.337
0.165,0.038,0.294,-5.337
0.160,0.040,0.295,-5.337
0.142,0.041,0.296,-5.337
0.154,0.036,0.295,-5.337
0.235,0.035,0.295,-5.337
0.255,0.038,0.297,-5.337
0.197,0.044,0.300,-5.337
0.164,0.041,0.300,-5.337
0.107,0.044,0.296,-5.337
0.012,0.047,0.294,-5.337
0.066,0.045,0.298,-5.337
0.141,0.044,0.299,-5.337
0.211,0.043,0.299,-5.337
0.210,0.045,0.296,-5.337
0.177,0.047,0.295,-5.337
0.180,0.044,0.295,-5.337
0.180,0.040,0.294,-5.337
0.117,0.042,0.296,-5.337
0.131,0.042,0.300,-5.337
0.188,0.041,0.300,-5.337
0.179,0.042,0.297,-5.337
0.151,0.039,0.293,-5.337
0.180,0.039,0.292,-5.337
0.184,0.039,0.296,-5.337
0.135,0.043,0.296,-5.337
0.179,0.042,0.296,-5.337
0.221,0.036,0.296,-5.337
0.135,0.040,0.295,-5.337
0.094,0.042,0.294,-5.337
0.088,0.044,0.295,-5.337
0.117,0.041,0.297,-5.337
0.131,0.036,0.301,-5.337
0.123,0.036,0.302,-5.337
0.182,0.036,0.299,-5.337
0.211,0.035,0.294,-5.337
0.244,0.037,0.296,-5.337
0.211,0.037,0.303,-5.337
0.150,0.037,0.304,-5.337
0.161,0.036,0.297,-5.337
0.161,0.040,0.293,-5.337
0.121,0.043,0.293,-5.337
0.158,0.045,0.294,-5.337
0.184,0.044,0.295,-5.337
0.092,0.046,0.298,-5.337
0.097,0.045,0.298,-5.337
0.144,0.047,0.295,-5.337
0.154,0.044,0.296,-5.337
0.155,0.041,0.299,-5.337
0.168,0.039,0.300,-5.337
0.142,0.041,0.298,-5.337
0.117,0.040,0.299,-5.337
0.120,0.040,0.300,-5.337
0.092,0.043,0.296,-5.337
0.091,0.041,0.294,-5.337
0.160,0.036,0.294,-5.337
0.227,0.035,0.297,-5.337
0.157,0.039,0.302,-5.337
0.048,0.042,0.303,-5.337
0.105,0.039,0.305,-5.337
0.198,0.037,0.303,-5.337
0.181,0.040,0.300,-5.337
0.128,0.041,0.300,-5.337
0.105,0.039,0.300,-5.337
0.146,0.040,0.299,-5.337
0.147,0.045,0.298,-5.337
0.143,0.043,0.292,-5.337
0.137,0.039,0.292,-5.337
0.186,0.038,0.297,-5.337
0.179,0.036,0.301,-5.337
0.142,0.035,0.300,-5.337
0.173,0.035,0.299,-5.337
0.203,0.034,0.298,-5.337
0.126,0.038,0.298,-5.337
0.065,0.038,0.298,-5.337
0.090,0.037,0.294,-5.337
0.128,0.038,0.297,-5.337
0.122,0.040,0.298,-5.337
0.135,0.041,0.300,-5.337
0.169,0.043,0.298,-5.337
0.216,0.041,0.298,-5.337
0.179,0.040,0.299,-5.337
0.130,0.043,0.299,-5.337
0.162,0.038,0.297,-5.337
0.222,0.038,0.295,-5.337
0.153,0.043,0.294,-5.337
0.151,0.044,0.294,-5.337
0.162,0.042,0.296,-5.337
0.159,0.038,0.299,-5.337
0.154,0.035,0.302,-5.337
0.120,0.035,0.304,-5.337
0.105,0.033,0.297,-5.337
0.130,0.033,0.288,-5.337
0.121,0.033,0.290,-5.337
0.179,0.032,0.296,-5.337
0.180,0.036,0.301,-5.337
0.142,0.039,0.300,-5.337
0.151,0.038,0.300,-5.337
0.161,0.036,0.297,-5.337
0.162,0.035,0.297,-5.337
0.119,0.036,0.298,-5.337
0.112,0.036,0.299,-5.337
0.182,0.035,0.296,-5.337
0.213,0.036,0.298,-5.337
0.142,0.032,0.300,-5.337
0.100,0.034,0.300,-5.337
0.087,0.035,0.298,-5.337
0.101,0.037,0.300,-5.337
0.152,0.032,0.299,-5.337
0.137,0.033,0.292,-5.337
0.135,0.033,0.288,-5.337
0.170,0.038,0.291,-5.337
0.194,0.036,0.293,-5.337
0.186,0.039,0.296,-5.337
0.115,0.042,0.298,-5.337
0.126,0.041,0.298,-5.337
0.176,0.043,0.299,-5.337
0.193,0.040,0.297,-5.337
0.185,0.034,0.300,-5.337
0.225,0.033,0.300,-5.337
0.209,0.036,0.299,-5.337
0.126,0.038,0.297,-5.337
0.123,0.035,0.298,-5.337
0.117,0.036,0.296,-5.337
0.065,0.044,0.297,-5.337
0.077,0.045,0.296,-5.337
0.118,0.041,0.295,-5.337
0.137,0.039,0.297,-5.337
0.159,0.038,0.300,-5.337
0.156,0.038,0.301,-5.337
0.138,0.040,0.298,-5.337
0.137,0.037,0.294,-5.337
0.121,0.036,0.296,-5.337
0.091,0.036,0.296,-5.337
0.126,0.035,0.291,-5.337
0.148,0.037,0.287,-5.337
0.167,0.036,0.291,-5.337
0.194,0.036,0.295,-5.337
0.196,0.037,0.297,-5.337
0.225,0.038,0.294,-5.337
0.216,0.040,0.296,-5.337
0.171,0.041,0.298,-5.337
0.165,0.041,0.297,-5.337
0.153,0.038,0.299,-5.337
0.165,0.038,0.299,-5.337
0.179,0.039,0.299,-5.337
0.135,0.040,0.299,-5.337
0.097,0.042,0.300,-5.337
0.125,0.039,0.296,-5.337
0.129,0.041,0.290,-5.337
0.119,0.043,0.285,-5.337
0.137,0.047,0.290,-5.337
0.148,0.046,0.297,-5.337
0.178,0.049,0.299,-5.337
0.174,0.047,0.296,-5.337
0.173,0.044,0.296,-5.337
0.133,0.049,0.297,-5.337
0.123,0.047,0.297,-5.337
0.217,0.042,0.295,-5.337
0.252,0.043,0.294,-5.337
0.231,0.042,0.295,-5.337
0.192,0.049,0.300,-5.337
0.130,0.053,0.298,-5.337
0.130,0.052,0.296,-5.337
0.159,0.048,0.295,-5.337
0.166,0.050,0.296,-5.337
0.140,0.053,0.298,-5.337
0.118,0.054,0.299,-5.337
0.187,0.050,0.298,-5.337
0.202,0.051,0.294,-5.337
0.149,0.054,0.297,-5.337
0.141,0.053,0.300,-5.337
0.217,0.051,0.300,-5.337
0.250,0.052,0.298,-5.337
0.198,0.053,0.293,-5.337
0.120,0.053,0.287,-5.337
0.120,0.051,0.289,-5.337
0.184,0.048,0.295,-5.337
0.167,0.050,0.298,-5.337
0.153,0.050,0.296,-5.337
0.130,0.051,0.294,-5.337
0.131,0.044,0.293,-5.337
0.180,0.044,0.296,-5.337
0.126,0.045,0.299,-5.337
0.055,0.049,0.300,-5.337
0.139,0.043,0.297,-5.337
0.214,0.044,0.293,-5.337
0.195,0.045,0.291,-5.337
0.178,0.048,0.292,-5.337
0.177,0.046,0.296,-5.337
0.181,0.051,0.299,-5.337
0.139,0.054,0.300,-5.337
0.146,0.050,0.298,-5.337
0.178,0.051,0.300,-5.337
0.224,0.054,0.299,-5.337
0.268,0.052,0.299,-5.337
0.223,0.046,0.297,-5.337
0.150,0.049,0.297,-5.337
0.188,0.051,0.296,-5.337
0.204,0.053,0.295,-5.337
0.175,0.052,0.291,-5.337
0.226,0.053,0.291,-5.337
0.234,0.053,0.293,-5.337
0.194,0.059,0.296,-5.337
0.178,0.057,0.296,-5.337
0.203,0.056,0.295,-5.337
0.169,0.055,0.298,-5.337
0.165,0.059,0.299,-5.337
0.170,0.054,0.298,-5.337
0.160,0.052,0.297,-5.337
0.220,0.051,0.296,-5.337
0.206,0.054,0.296,-5.337
0.179,0.054,0.297,-5.337
0.217,0.051,0.296,-5.337
0.240,0.051,0.296,-5.337
0.210,0.050,0.296,-5.337
0.218,0.051,0.297,-5.337
0.184,0.054,0.293,-5.337
0.152,0.057,0.294,-5.337
0.191,0.059,0.299,-5.337
0.260,0.056,0.301,-5.337
0.238,0.055,0.299,-5.337
0.221,0.054,0.297,-5.337
0.177,0.057,0.293,-5.337
0.150,0.058,0.291,-5.337
0.149,0.058,0.292,-5.337
0.152,0.061,0.295,-5.337
0.186,0.059,0.297,-5.337
0.243,0.059,0.297,-5.337
0.220,0.058,0.298,-5.337
0.220,0.058,0.298,-5.337
0.198,0.058,0.299,-5.337
0.200,0.058,0.297,-5.337
0.183,0.057,0.293,-5.337
0.213,0.055,0.293,-5.337
0.240,0.053,0.293,-5.337
0.248,0.053,0.290,-5.337
0.235,0.056,0.290,-5.337
0.242,0.057,0.292,-5.337
0.245,0.057,0.296,-5.337
0.198,0.057,0.296,-5.337
0.193,0.053,0.299,-5.337
0.217,0.049,0.302,-5.337
0.246,0.051,0.303,-5.337
0.254,0.053,0.303,-5.337
0.190,0.055,0.305,-5.337
0.174,0.052,0.300,-5.337
0.177,0.058,0.299,-5.337
0.230,0.057,0.298,-5.337
0.251,0.055,0.298,-5.337
0.225,0.056,0.294,-5.337
0.190,0.056,0.290,-5.337
0.193,0.057,0.288,-5.337
0.138,0.057,0.292,-5.337
0.103,0.057,0.294,-5.337
0.134,0.058,0.298,-5.337
0.208,0.056,0.297,-5.337
0.225,0.058,0.293,-5.337
0.211,0.057,0.289,-5.337
0.242,0.055,0.293,-5.337
0.257,0.054,0.298,-5.337
0.246,0.056,0.299,-5.337
0.226,0.059,0.296,-5.337
0.255,0.057,0.292,-5.337
0.252,0.053,0.293,-5.337
0.233,0.055,0.295,-5.337
0.230,0.056,0.296,-5.337
0.260,0.052,0.295,-5.337
0.252,0.053,0.299,-5.337
0.263,0.057,0.300,-5.337
0.202,0.060,0.301,-5.337
0.169,0.056,0.298,-5.337
0.246,0.052,0.297,-5.337
0.279,0.056,0.294,-5.337
0.236,0.058,0.294,-5.337
0.246,0.055,0.297,-5.337
0.253,0.056,0.300,-5.337
0.284,0.055,0.300,-5.337
0.279,0.056,0.296,-5.337
0.247,0.055,0.293,-5.337
0.211,0.059,0.296,-5.337
0.177,0.059,0.300,-5.337
0.153,0.058,0.297,-5.337
0.167,0.056,0.295,-5.337
0.132,0.060,0.291,-5.337
0.160,0.063,0.290,-5.337
0.235,0.061,0.290,-5.337
0.238,0.062,0.292,-5.337
0.240,0.062,0.296,-5.337
0.205,0.067,0.299,-5.337
0.166,0.066,0.299,-5.337
0.184,0.059,0.300,-5.337
0.248,0.056,0.296,-5.337
0.325,0.056,0.296,-5.337
0.309,0.056,0.295,-5.337
0.256,0.055,0.294,-5.337
0.275,0.054,0.293,-5.337
0.305,0.059,0.296,-5.337
0.259,0.061,0.297,-5.337
0.208,0.058,0.296,-5.337
0.204,0.059,0.297,-5.337
0.220,0.063,0.300,-5.337
0.252,0.064,0.301,-5.337
0.257,0.062,0.300,-5.337
0.272,0.058,0.297,-5.337
0.292,0.060,0.294,-5.337
0.283,0.063,0.295,-5.337
0.249,0.060,0.298,-5.337
0.236,0.059,0.302,-5.337
0.229,0.056,0.301,-5.337
0.275,0.056,0.297,-5.337
0.310,0.055,0.296,-5.337
0.322,0.054,0.297,-5.337
0.360,0.050,0.296,-5.337
0.309,0.052,0.298,-5.337
0.243,0.058,0.297,-5.337
0.243,0.057,0.293,-5.337
0.248,0.057,0.290,-5.337
0.211,0.059,0.294,-5.337
0.192,0.058,0.298,-5.337
0.189,0.059,0.301,-5.337
0.191,0.060,0.301,-5.337
0.218,0.057,0.298,-5.337
0.157,0.055,0.294,-5.337
0.120,0.055,0.295,-5.337
0.148,0.058,0.299,-5.337
0.209,0.060,0.300,-5.337
0.224,0.058,0.299,-5.337
0.230,0.058,0.301,-5.337
0.252,0.055,0.303,-5.337
0.247,0.053,0.304,-5.337
0.224,0.050,0.301,-5.337
0.251,0.055,0.299,-5.337
0.298,0.055,0.296,-5.337
0.287,0.057,0.296,-5.337
0.206,0.058,0.295,-5.337
0.208,0.057,0.292,-5.337
0.258,0.054,0.293,-5.337
0.304,0.055,0.294,-5.337
0.323,0.057,0.297,-5.337
0.352,0.057,0.297,-5.337
0.330,0.054,0.302,-5.337
0.283,0.057,0.302,-5.337
0.282,0.059,0.298,-5.337
0.317,0.057,0.293,-5.337
0.368,0.059,0.296,-5.337
0.278,0.060,0.296,-5.337
0.210,0.062,0.295,-5.337
0.209,0.062,0.295,-5.337
0.199,0.060,0.298,-5.337
0.170,0.060,0.302,-5.337
0.246,0.058,0.305,-5.337
0.201,0.059,0.303,-5.337
0.163,0.060,0.300,-5.337
0.229,0.057,0.296,-5.337
0.302,0.054,0.295,-5.337
0.262,0.051,0.296,-5.337
0.178,0.056,0.299,-5.337
0.174,0.054,0.301,-5.337
0.222,0.050,0.296,-5.337
0.236,0.052,0.292,-5.337
0.247,0.053,0.289,-5.337
0.235,0.058,0.293,-5.337
0.211,0.058,0.300,-5.337
0.245,0.054,0.303,-5.337
0.253,0.051,0.304,-5.337
0.278,0.050,0.300,-5.337
0.271,0.052,0.297,-5.337
0.244,0.052,0.297,-5.337
0.220,0.050,0.295,-5.337
0.182,0.051,0.299,-5.337
0.212,0.055,0.302,-5.337
0.200,0.055,0.300,-5.337
0.204,0.053,0.297,-5.337
0.256,0.053,0.295,-5.337
0.288,0.050,0.293,-5.337
0.281,0.051,0.295,-5.337
0.252,0.052,0.295,-5.337
0.203,0.055,0.296,-5.337
0.151,0.055,0.295,-5.337
0.141,0.056,0.295,-5.337
0.169,0.053,0.294,-5.337
0.250,0.048,0.296,-5.337
0.292,0.047,0.298,-5.337
0.277,0.047,0.294,-5.337
0.263,0.045,0.295,-5.337
0.243,0.047,0.299,-5.337
0.248,0.050,0.304,-5.337
0.277,0.048,0.305,-5.337
0.290,0.046,0.303,-5.337
0.270,0.043,0.301,-5.337
0.314,0.042,0.302,-5.337
0.365,0.044,0.297,-5.337
0.311,0.049,0.293,-5.337
0.224,0.051,0.294,-5.337
0.131,0.055,0.295,-5.337
0.119,0.054,0.294,-5.337
0.125,0.052,0.295,-5.337
0.161,0.047,0.296,-5.337
0.255,0.047,0.293,-5.337
0.230,0.047,0.287,-5.337
0.206,0.050,0.289,-5.337
0.183,0.050,0.295,-5.337
0.203,0.051,0.300,-5.337
0.228,0.054,0.302,-5.337
0.213,0.052,0.305,-5.337
0.241,0.046,0.304,-5.337
0.286,0.046,0.296,-5.337
0.230,0.049,0.289,-5.337
0.200,0.046,0.289,-5.337
0.216,0.045,0.294,-5.337
0.150,0.053,0.296,-5.337
0.154,0.051,0.296,-5.337
0.246,0.046,0.294,-5.337
0.238,0.045,0.295,-5.337
0.220,0.047,0.299,-5.337
0.189,0.049,0.299,-5.337
0.151,0.051,0.295,-5.337
0.128,0.051,0.294,-5.337
0.184,0.048,0.296,-5.337
0.238,0.050,0.296,-5.337
0.256,0.046,0.297,-5.337
0.275,0.045,0.297,-5.337
0.271,0.044,0.296,-5.337
0.255,0.047,0.295,-5.337
0.239,0.047,0.297,-5.337
0.235,0.047,0.294,-5.337
0.226,0.049,0.295,-5.337
0.186,0.048,0.293,-5.337
0.187,0.046,0.291,-5.337
0.250,0.043,0.291,-5.337
0.271,0.044,0.297,-5.337
0.199,0.049,0.300,-5.337
0.131,0.050,0.299,-5.337
0.167,0.047,0.295,-5.337
0.253,0.043,0.291,-5.337
0.274,0.045,0.290,-5.337
0.239,0.046,0.294,-5.337
0.175,0.045,0.295,-5.337
0.169,0.044,0.295,-5.337
0.139,0.044,0.293,-5.337
0.099,0.047,0.292,-5.337
0.106,0.048,0.294,-5.337
0.121,0.045,0.297,-5.337
0.151,0.042,0.299,-5.337
0.174,0.041,0.298,-5.337
0.269,0.036,0.296,-5.337
0.246,0.036,0.294,-5.337
0.212,0.036,0.294,-5.337
0.270,0.035,0.295,-5.337
0.240,0.036,0.295,-5.337
0.131,0.040,0.297,-5.337
0.176,0.039,0.296,-5.337
0.258,0.038,0.297,-5.337
0.217,0.042,0.299,-5.337
0.154,0.045,0.303,-5.337
0.152,0.038,0.300,-5.337
0.212,0.035,0.294,-5.337
0.219,0.036,0.290,-5.337
0.193,0.039,0.292,-5.337
0.230,0.037,0.294,-5.337
0.222,0.037,0.292,-5.337
0.232,0.037,0.289,-5.337
0.240,0.038,0.287,-5.337
0.246,0.040,0.290,-5.337
0.178,0.038,0.290,-5.337
0.201,0.036,0.295,-5.337
0.205,0.038,0.297,-5.337
0.224,0.040,0.298,-5.337
0.171,0.039,0.293,-5.337
0.128,0.037,0.291,-5.337
0.119,0.040,0.294,-5.337
0.161,0.039,0.299,-5.337
0.224,0.037,0.299,-5.337
0.193,0.034,0.296,-5.337
0.163,0.035,0.293,-5.337
0.206,0.036,0.293,-5.337
0.215,0.039,0.293,-5.337
0.234,0.038,0.296,-5.337
0.248,0.036,0.296,-5.337
0.222,0.036,0.292,-5.337
0.184,0.037,0.292,-5.337
0.161,0.043,0.296,-5.337
0.182,0.042,0.299,-5.337
0.180,0.041,0.296,-5.337
0.177,0.040,0.297,-5.337
0.172,0.040,0.297,-5.337
0.243,0.037,0.296,-5.337
0.234,0.038,0.297,-5.337
0.171,0.040,0.300,-5.337
0.213,0.036,0.295,-5.337
0.263,0.034,0.290,-5.337
0.202,0.036,0.287,-5.337
0.162,0.037,0.289,-5.337
0.145,0.040,0.292,-5.337
0.156,0.041,0.294,-5.337
0.153,0.038,0.291,-5.337
0.146,0.039,0.291,-5.337
0.176,0.037,0.292,-5.337
0.239,0.036,0.295,-5.337
0.190,0.037,0.296,-5.337
0.151,0.041,0.294,-5.337
0.210,0.039,0.294,-5.337
0.177,0.037,0.295,-5.337
0.148,0.036,0.298,-5.337
0.126,0.037,0.294,-5.337
0.095,0.041,0.293,-5.337
0.101,0.042,0.295,-5.337
0.149,0.041,0.298,-5.337
0.154,0.042,0.297,-5.337
0.168,0.039,0.297,-5.337
0.166,0.040,0.296,-5.337
0.180,0.038,0.294,-5.337
0.182,0.039,0.292,-5.337
0.198,0.041,0.292,-5.337
0.222,0.037,0.293,-5.337
0.193,0.039,0.293,-5.337
0.139,0.040,0.295,-5.337
0.146,0.041,0.297,-5.337
0.122,0.042,0.292,-5.337
0.142,0.042,0.290,-5.337
0.160,0.035,0.294,-5.337
0.165,0.035,0.297,-5.337
0.158,0.038,0.293,-5.337
0.199,0.037,0.291,-5.337
0.173,0.034,0.295,-5.337
0.154,0.036,0.298,-5.337
0.207,0.033,0.296,-5.337
0.270,0.033,0.295,-5.337
0.220,0.033,0.298,-5.337
0.159,0.035,0.299,-5.337
0.163,0.034,0.299,-5.337
0.100,0.037,0.296,-5.337
0.065,0.037,0.292,-5.337
0.087,0.038,0.287,-5.337
0.083,0.036,0.285,-5.337
0.164,0.032,0.288,-5.337
0.169,0.034,0.292,-5.337
0.152,0.035,0.293,-5.337
0.140,0.035,0.296,-5.337
0.130,0.034,0.298,-5.337
0.143,0.036,0.298,-5.337
0.205,0.033,0.294,-5.337
0.199,0.031,0.290,-5.337
0.146,0.029,0.292,-5.337
0.103,0.036,0.298,-5.337
0.071,0.039,0.299,-5.337
0.082,0.038,0.296,-5.337
0.143,0.035,0.291,-5.337
0.185,0.036,0.291,-5.337
0.185,0.036,0.290,-5.337
0.140,0.042,0.290,-5.337
0.095,0.042,0.292,-5.337
0.091,0.037,0.293,-5.337
0.112,0.034,0.294,-5.337
0.162,0.029,0.297,-5.337
0.125,0.032,0.295,-5.337
0.067,0.037,0.295,-5.337
0.122,0.032,0.297,-5.337
0.178,0.032,0.293,-5.337
0.177,0.034,0.292,-5.337
0.169,0.037,0.292,-5.337
0.177,0.036,0.298,-5.337
0.202,0.032,0.298,-5.337
0.206,0.030,0.294,-5.337
0.174,0.033,0.294,-5.337
0.111,0.033,0.297,-5.337
0.155,0.032,0.295,-5.337
0.190,0.035,0.294,-5.337
0.180,0.037,0.294,-5.337
0.157,0.038,0.298,-5.337
0.070,0.038,0.299,-5.337
0.100,0.038,0.293,-5.337
0.249,0.032,0.291,-5.337
0.260,0.038,0.297,-5.337
0.195,0.042,0.302,-5.337
0.150,0.044,0.303,-5.337
0.148,0.040,0.299,-5.337
0.140,0.037,0.291,-5.337
0.124,0.037,0.288,-5.337
0.162,0.035,0.292,-5.337
0.210,0.037,0.294,-5.337
0.155,0.036,0.292,-5.337
0.113,0.034,0.295,-5.337
0.097,0.035,0.296,-5.337
0.102,0.037,0.296,-5.337
0.100,0.038,0.293,-5.337
0.093,0.038,0.295,-5.337
0.073,0.041,0.296,-5.337
0.070,0.041,0.294,-5.337
0.109,0.038,0.293,-5.337
0.141,0.040,0.295,-5.337
0.120,0.038,0.295,-5.337
0.142,0.036,0.299,-5.337
0.132,0.037,0.298,-5.337
0.118,0.039,0.296,-5.337
0.129,0.037,0.295,-5.337
0.156,0.036,0.294,-5.337
0.175,0.036,0.292,-5.337
0.122,0.039,0.296,-5.337
0.083,0.042,0.296,-5.337
0.090,0.040,0.293,-5.337
0.122,0.040,0.292,-5.337
0.135,0.040,0.293,-5.337
0.156,0.040,0.295,-5.337
0.153,0.043,0.295,-5.337
0.147,0.038,0.297,-5.337
0.149,0.035,0.298,-5.337
0.172,0.034,0.300,-5.337
0.197,0.036,0.297,-5.337
0.194,0.035,0.297,-5.337
0.174,0.038,0.295,-5.337
0.180,0.037,0.296,-5.337
0.191,0.035,0.297,-5.337
0.214,0.037,0.297,-5.337
0.194,0.034,0.292,-5.337
0.131,0.036,0.292,-5.337
0.142,0.033,0.296,-5.337
0.143,0.033,0.300,-5.337
0.139,0.034,0.299,-5.337
0.152,0.037,0.296,-5.337
0.147,0.036,0.296,-5.337
0.141,0.036,0.295,-5.337
0.141,0.033,0.292,-5.337
0.138,0.035,0.291,-5.337
0.073,0.040,0.292,-5.337
0.053,0.037,0.295,-5.337
0.100,0.036,0.300,-5.337
0.143,0.040,0.303,-5.337
0.199,0.039,0.300,-5.337
0.220,0.039,0.296,-5.337
0.158,0.038,0.295,-5.337
0.128,0.038,0.294,-5.337
0.115,0.044,0.297,-5.337
0.087,0.045,0.296,-5.337
0.155,0.038,0.295,-5.337
0.227,0.038,0.294,-5.337
0.178,0.042,0.295,-5.337
0.095,0.042,0.296,-5.337
0.091,0.040,0.297,-5.337
0.117,0.038,0.298,-5.337
0.142,0.035,0.301,-5.337
0.172,0.037,0.300,-5.337
0.143,0.039,0.294,-5.337
0.111,0.040,0.289,-5.337
0.115,0.039,0.291,-5.337
0.168,0.037,0.292,-5.337
0.197,0.039,0.293,-5.337
0.189,0.043,0.295,-5.337
0.119,0.045,0.298,-5.337
0.097,0.044,0.299,-5.337
0.160,0.041,0.296,-5.337
0.157,0.041,0.295,-5.337
0.111,0.042,0.295,-5.337
0.175,0.042,0.297,-5.337
0.216,0.039,0.296,-5.337
0.179,0.043,0.298,-5.337
0.174,0.042,0.295,-5.337
0.203,0.043,0.294,-5.337
0.180,0.044,0.296,-5.337
0.136,0.045,0.300,-5.337
0.117,0.044,0.298,-5.337
0.137,0.046,0.293,-5.337
0.141,0.045,0.287,-5.337
0.148,0.046,0.288,-5.337
0.196,0.047,0.294,-5.337
0.224,0.044,0.297,-5.337
0.185,0.042,0.293,-5.337
0.134,0.045,0.289,-5.337
0.145,0.045,0.290,-5.337
0.181,0.046,0.294,-5.337
0.144,0.047,0.294,-5.337
0.107,0.048,0.293,-5.337
0.208,0.047,0.293,-5.337
0.258,0.048,0.293,-5.337
0.176,0.046,0.293,-5.337
0.110,0.050,0.296,-5.337
0.101,0.054,0.297,-5.337
0.116,0.052,0.296,-5.337
0.125,0.049,0.300,-5.337
0.126,0.050,0.300,-5.337
0.098,0.053,0.300,-5.337
0.123,0.049,0.299,-5.337
0.208,0.047,0.297,-5.337
0.184,0.050,0.293,-5.337
0.121,0.051,0.290,-5.337
0.094,0.047,0.290,-5.337
0.152,0.049,0.293,-5.337
0.205,0.047,0.296,-5.337
0.206,0.048,0.295,-5.337
0.215,0.046,0.293,-5.337
0.214,0.046,0.293,-5.337
0.169,0.049,0.296,-5.337
0.149,0.051,0.296,-5.337
0.134,0.050,0.294,-5.337
0.094,0.050,0.292,-5.337
0.145,0.046,0.290,-5.337
0.184,0.045,0.291,-5.337
0.182,0.043,0.297,-5.337
0.185,0.046,0.302,-5.337
0.229,0.047,0.301,-5.337
0.235,0.050,0.294,-5.337
0.192,0.047,0.290,-5.337
0.220,0.048,0.288,-5.337
0.241,0.050,0.290,-5.337
0.244,0.050,0.292,-5.337
0.208,0.051,0.295,-5.337
0.203,0.052,0.293,-5.337
0.217,0.054,0.292,-5.337
0.198,0.053,0.291,-5.337
0.161,0.053,0.294,-5.337
0.197,0.049,0.295,-5.337
0.190,0.048,0.294,-5.337
0.182,0.046,0.292,-5.337
0.195,0.045,0.292,-5.337
0.206,0.047,0.293,-5.337
0.180,0.051,0.295,-5.337
0.151,0.053,0.295,-5.337
0.132,0.054,0.293,-5.337
0.086,0.052,0.292,-5.337
0.080,0.050,0.293,-5.337
0.112,0.048,0.294,-5.337
0.189,0.049,0.296,-5.337
0.205,0.053,0.295,-5.337
0.157,0.053,0.294,-5.337
0.193,0.054,0.291,-5.337
0.151,0.055,0.286,-5.337
0.153,0.053,0.287,-5.337
0.267,0.049,0.290,-5.337
0.352,0.049,0.294,-5.337
0.242,0.053,0.292,-5.337
0.136,0.056,0.295,-5.337
0.131,0.055,0.294,-5.337
0.157,0.056,0.295,-5.337
0.175,0.054,0.293,-5.337
0.173,0.051,0.294,-5.337
0.169,0.050,0.294,-5.337
0.182,0.049,0.293,-5.337
0.206,0.046,0.290,-5.337
0.213,0.051,0.293,-5.337
0.258,0.053,0.294,-5.337
0.262,0.058,0.295,-5.337
0.201,0.057,0.300,-5.337
0.203,0.054,0.299,-5.337
0.224,0.052,0.294,-5.337
0.158,0.057,0.293,-5.337
0.170,0.058,0.296,-5.337
0.250,0.057,0.298,-5.337
0.236,0.057,0.298,-5.337
0.212,0.054,0.293,-5.337
0.196,0.056,0.292,-5.337
0.211,0.055,0.289,-5.337
0.202,0.057,0.292,-5.337
0.212,0.055,0.292,-5.337
0.286,0.051,0.292,-5.337
0.255,0.053,0.288,-5.337
0.224,0.059,0.286,-5.337
0.234,0.055,0.287,-5.337
0.248,0.056,0.292,-5.337
0.219,0.059,0.298,-5.337
0.142,0.062,0.300,-5.337
0.105,0.060,0.296,-5.337
0.139,0.058,0.296,-5.337
0.177,0.058,0.294,-5.337
0.203,0.061,0.294,-5.337
0.188,0.063,0.294,-5.337
0.196,0.058,0.294,-5.337
0.262,0.055,0.295,-5.337
0.262,0.055,0.292,-5.337
0.241,0.056,0.291,-5.337
0.199,0.056,0.290,-5.337
0.212,0.058,0.291,-5.337
0.184,0.062,0.294,-5.337
0.185,0.060,0.296,-5.337
0.229,0.053,0.294,-5.337
0.234,0.053,0.292,-5.337
0.260,0.052,0.292,-5.337
0.255,0.053,0.292,-5.337
0.227,0.055,0.296,-5.337
0.202,0.058,0.299,-5.337
0.182,0.054,0.296,-5.337
0.188,0.053,0.295,-5.337
0.183,0.053,0.293,-5.337
0.174,0.056,0.293,-5.337
0.147,0.057,0.289,-5.337
0.226,0.054,0.288,-5.337
0.270,0.054,0.289,-5.337
0.230,0.059,0.292,-5.337
0.194,0.057,0.296,-5.337
0.177,0.057,0.295,-5.337
0.179,0.052,0.293,-5.337
0.231,0.051,0.292,-5.337
0.226,0.051,0.292,-5.337
0.237,0.052,0.292,-5.337
0.297,0.051,0.294,-5.337
0.352,0.053,0.294,-5.337
0.244,0.057,0.294,-5.337
0.154,0.058,0.294,-5.337
0.182,0.059,0.294,-5.337
0.226,0.058,0.291,-5.337
0.302,0.056,0.292,-5.337
0.335,0.059,0.293,-5.337
0.324,0.062,0.293,-5.337
0.236,0.060,0.292,-5.337
0.217,0.057,0.295,-5.337
0.288,0.057,0.292,-5.337
0.279,0.058,0.292,-5.337
0.299,0.059,0.293,-5.337
0.290,0.058,0.296,-5.337
0.271,0.052,0.291,-5.337
0.257,0.052,0.287,-5.337
0.243,0.055,0.288,-5.337
0.207,0.058,0.292,-5.337
0.176,0.061,0.293,-5.337
0.270,0.058,0.296,-5.337
0.297,0.057,0.298,-5.337
0.255,0.057,0.299,-5.337
0.236,0.058,0.296,-5.337
0.244,0.059,0.294,-5.337
0.243,0.060,0.293,-5.337
0.243,0.062,0.292,-5.337
0.261,0.063,0.293,-5.337
0.234,0.061,0.297,-5.337
0.217,0.059,0.299,-5.337
0.238,0.063,0.294,-5.337
0.221,0.065,0.292,-5.337
0.220,0.063,0.290,-5.337
0.292,0.062,0.291,-5.337
0.330,0.062,0.291,-5.337
0.275,0.065,0.293,-5.337
0.223,0.066,0.296,-5.337
0.187,0.067,0.299,-5.337
0.207,0.064,0.300,-5.337
0.182,0.070,0.299,-5.337
0.163,0.070,0.295,-5.337
0.205,0.068,0.289,-5.337
0.286,0.061,0.289,-5.337
0.259,0.065,0.294,-5.337
0.173,0.071,0.300,-5.337
0.203,0.069,0.295,-5.337
0.220,0.066,0.287,-5.337
0.178,0.068,0.289,-5.337
0.174,0.069,0.293,-5.337
0.235,0.065,0.295,-5.337
0.292,0.062,0.292,-5.337
0.251,0.063,0.290,-5.337
0.216,0.063,0.291,-5.337
0.187,0.065,0.291,-5.337
0.249,0.062,0.293,-5.337
0.333,0.061,0.295,-5.337
0.334,0.061,0.300,-5.337
0.274,0.061,0.299,-5.337
0.247,0.064,0.299,-5.337
0.224,0.066,0.299,-5.337
0.207,0.066,0.296,-5.337
0.241,0.064,0.294,-5.337
0.240,0.063,0.296,-5.337
0.212,0.062,0.297,-5.337
0.225,0.061,0.295,-5.337
0.273,0.055,0.292,-5.337
0.272,0.054,0.290,-5.337
0.224,0.055,0.293,-5.337
0.180,0.053,0.298,-5.337
0.259,0.051,0.298,-5.337
0.323,0.053,0.296,-5.337
0.240,0.058,0.294,-5.337
0.169,0.063,0.293,-5.337
0.181,0.062,0.292,-5.337
0.212,0.056,0.295,-5.337
0.266,0.054,0.298,-5.337
0.227,0.056,0.298,-5.337
0.204,0.055,0.296,-5.337
0.236,0.055,0.293,-5.337
0.319,0.049,0.293,-5.337
0.348,0.051,0.293,-5.337
0.271,0.055,0.292,-5.337
0.231,0.055,0.292,-5.337
0.278,0.054,0.295,-5.337
0.305,0.052,0.294,-5.337
0.268,0.053,0.297,-5.337
0.221,0.058,0.298,-5.337
0.241,0.056,0.301,-5.337
0.310,0.050,0.298,-5.337
0.301,0.052,0.297,-5.337
0.227,0.052,0.298,-5.337
0.187,0.051,0.302,-5.337
0.185,0.048,0.297,-5.337
0.230,0.053,0.293,-5.337
0.191,0.051,0.294,-5.337
0.208,0.047,0.295,-5.337
0.225,0.048,0.294,-5.337
0.170,0.054,0.296,-5.337
0.167,0.055,0.297,-5.337
0.222,0.050,0.301,-5.337
0.305,0.046,0.301,-5.337
0.361,0.042,0.297,-5.337
0.307,0.045,0.296,-5.337
0.177,0.049,0.296,-5.337
0.150,0.047,0.296,-5.337
0.203,0.048,0.295,-5.337
0.161,0.052,0.294,-5.337
0.157,0.052,0.293,-5.337
0.219,0.046,0.298,-5.337
0.223,0.047,0.298,-5.337
0.169,0.048,0.296,-5.337
0.179,0.046,0.294,-5.337
0.193,0.048,0.296,-5.337
0.174,0.052,0.298,-5.337
0.166,0.053,0.296,-5.337
0.220,0.048,0.295,-5.337
0.255,0.046,0.295,-5.337
0.273,0.045,0.295,-5.337
0.239,0.044,0.296,-5.337
0.170,0.044,0.303,-5.337
0.227,0.043,0.307,-5.337
0.297,0.040,0.303,-5.337
0.262,0.039,0.300,-5.337
0.203,0.039,0.299,-5.337
0.191,0.038,0.297,-5.337
0.216,0.040,0.296,-5.337
0.246,0.041,0.296,-5.337
0.220,0.044,0.296,-5.337
0.200,0.043,0.299,-5.337
0.213,0.038,0.299,-5.337
0.215,0.041,0.295,-5.337
0.194,0.042,0.294,-5.337
0.185,0.041,0.295,-5.337
0.205,0.042,0.296,-5.337
0.223,0.045,0.292,-5.337
0.182,0.048,0.292,-5.337
0.164,0.046,0.292,-5.337
0.163,0.047,0.295,-5.337
0.168,0.044,0.294,-5.337
0.200,0.044,0.291,-5.337
0.190,0.044,0.292,-5.337
0.181,0.046,0.295,-5.337
0.171,0.044,0.297,-5.337
0.194,0.046,0.295,-5.337
0.209,0.044,0.293,-5.337
0.219,0.045,0.292,-5.337
0.197,0.042,0.294,-5.337
0.215,0.041,0.298,-5.337
0.263,0.042,0.297,-5.337
0.201,0.046,0.297,-5.337
0.202,0.042,0.296,-5.337
0.220,0.040,0.296,-5.337
0.191,0.042,0.295,-5.337
0.192,0.041,0.293,-5.337
0.243,0.040,0.294,-5.337
0.275,0.039,0.293,-5.337
0.281,0.037,0.291,-5.337
0.257,0.040,0.289,-5.337
0.223,0.042,0.291,-5.337
0.280,0.039,0.294,-5.337
0.290,0.037,0.298,-5.337
0.261,0.038,0.300,-5.337
0.241,0.040,0.298,-5.337
0.202,0.039,0.296,-5.337
0.178,0.038,0.295,-5.337
0.137,0.043,0.292,-5.337
0.125,0.042,0.292,-5.337
0.182,0.036,0.295,-5.337
0.243,0.034,0.296,-5.337
0.232,0.035,0.293,-5.337
0.201,0.037,0.295,-5.337
0.199,0.036,0.298,-5.337
0.227,0.032,0.296,-5.337
0.235,0.033,0.292,-5.337
0.186,0.039,0.289,-5.337
0.175,0.040,0.291,-5.337
0.213,0.039,0.296,-5.337
0.204,0.039,0.298,-5.337
0.177,0.036,0.293,-5.337
0.162,0.037,0.291,-5.337
0.158,0.038,0.292,-5.337
0.163,0.041,0.295,-5.337
0.128,0.036,0.297,-5.337
0.162,0.034,0.297,-5.337
0.178,0.033,0.294,-5.337
0.182,0.036,0.294,-5.337
0.204,0.032,0.294,-5.337
0.205,0.033,0.293,-5.337
0.200,0.037,0.294,-5.337
0.179,0.042,0.294,-5.337
0.156,0.043,0.294,-5.337
0.119,0.040,0.296,-5.337
0.171,0.036,0.293,-5.337
0.237,0.038,0.290,-5.337
0.189,0.041,0.289,-5.337
0.147,0.041,0.292,-5.337
0.112,0.041,0.293,-5.337
0.094,0.040,0.293,-5.337
0.107,0.042,0.295,-5.337
0.138,0.043,0.293,-5.337
0.155,0.039,0.292,-5.337
0.151,0.041,0.293,-5.337
0.189,0.042,0.298,-5.337
0.136,0.043,0.294,-5.337
0.124,0.040,0.292,-5.337
0.136,0.038,0.291,-5.337
0.177,0.037,0.291,-5.337
0.149,0.035,0.288,-5.337
0.211,0.033,0.289,-5.337
0.244,0.032,0.293,-5.337
0.194,0.038,0.295,-5.337
0.182,0.038,0.293,-5.337
0.194,0.036,0.291,-5.337
0.196,0.030,0.290,-5.337
0.167,0.034,0.290,-5.337
0.149,0.034,0.292,-5.337
0.183,0.035,0.299,-5.337
0.153,0.038,0.300,-5.337
0.111,0.038,0.295,-5.337
0.159,0.038,0.291,-5.337
0.249,0.037,0.292,-5.337
0.233,0.038,0.293,-5.337
0.192,0.037,0.294,-5.337
0.175,0.039,0.295,-5.337
0.131,0.041,0.295,-5.337
0.074,0.040,0.294,-5.337
0.060,0.038,0.292,-5.337
0.153,0.034,0.294,-5.337
0.175,0.036,0.294,-5.337
0.158,0.039,0.294,-5.337
0.172,0.036,0.294,-5.337
0.134,0.039,0.298,-5.337
0.106,0.043,0.297,-5.337
0.139,0.044,0.297,-5.337
0.161,0.037,0.291,-5.337
0.208,0.034,0.289,-5.337
0.200,0.037,0.291,-5.337
0.179,0.038,0.294,-5.337
0.188,0.032,0.293,-5.337
0.174,0.036,0.291,-5.337
0.155,0.037,0.291,-5.337
0.197,0.037,0.294,-5.337
0.257,0.037,0.298,-5.337
0.282,0.034,0.301,-5.337
0.220,0.034,0.297,-5.337
0.129,0.039,0.296,-5.337
0.065,0.041,0.295,-5.337
0.101,0.036,0.293,-5.337
0.137,0.034,0.292,-5.337
0.155,0.032,0.291,-5.337
0.212,0.033,0.294,-5.337
0.250,0.035,0.294,-5.337
0.185,0.036,0.294,-5.337
0.117,0.032,0.292,-5.337
0.151,0.030,0.293,-5.337
0.147,0.030,0.293,-5.337
0.127,0.034,0.293,-5.337
0.157,0.034,0.289,-5.337
0.131,0.040,0.291,-5.337
0.149,0.038,0.292,-5.337
0.162,0.034,0.293,-5.337
0.158,0.035,0.291,-5.337
0.148,0.040,0.292,-5.337
0.181,0.041,0.290,-5.337
0.175,0.041,0.291,-5.337
0.128,0.040,0.296,-5.337
0.096,0.037,0.298,-5.337
0.163,0.034,0.296,-5.337
0.193,0.032,0.291,-5.337
0.138,0.032,0.291,-5.337
0.115,0.036,0.294,-5.337
0.148,0.038,0.292,-5.337
0.194,0.037,0.293,-5.337
0.217,0.034,0.294,-5.337
0.264,0.032,0.295,-5.337
0.229,0.035,0.292,-5.337
0.172,0.036,0.292,-5.337
0.191,0.037,0.292,-5.337
0.191,0.039,0.289,-5.337
0.162,0.044,0.290,-5.337
0.129,0.047,0.292,-5.337
0.157,0.043,0.296,-5.337
0.197,0.039,0.294,-5.337
0.184,0.039,0.291,-5.337
0.146,0.039,0.287,-5.337
0.098,0.038,0.288,-5.337
0.133,0.035,0.293,-5.337
0.111,0.036,0.300,-5.337
0.071,0.035,0.300,-5.337
0.089,0.032,0.295,-5.337
0.173,0.031,0.291,-5.337
0.190,0.033,0.290,-5.337
0.145,0.034,0.289,-5.337
0.131,0.037,0.294,-5.337
0.176,0.037,0.302,-5.337
0.208,0.035,0.300,-5.337
0.171,0.035,0.294,-5.337
