[Parameters]
Operating Mode, Feedback
Subject  AA..ZZ, WT
Session  0..99, 43
No. Trials (1..9999), 500
Mouse Number, 1
Pressure Probe Serial Port, \00\00\00\04COM4
Save additional csv file, TRUE
Save using mouse number, FALSE
A/D Monitor Rate (Hz), 30000.000000
A/D Stimulate Rate (Hz), 30000.000000
A/D input range (+/- V), 5
No. Channels to acquire (N), 2
Pre-Stim Acq. time (ms), 100.000000
Post-Stim Acq. time (ms), 900.000000
Analysis window parameters.M-response Start (ms), 1.100000
Analysis window parameters.M-response Duration (ms), 5.500000
Analysis window parameters.H-response Duration (ms), 6.000000
Analysis window parameters.H-response Start (ms), 6.500000
Feedback window, H response
Proportional gain, 0.100000
Target value, 6.700000
Feedback Ch., 1
Stim Channel to Control (1-4), 4
Trial, 32
Wait for EMG Conditions, FALSE
Channel to monitor (0 - N-1), 1
EMG Hi Limit, 2.000000
EMG Lo Limit, 0.001000
Inter-Stim delay (sec), 10.000000
EMG Monitor Mode, Mean
Time to run Long Stim.(sec), 30
Save Long Stim Data?, OFF
BURST Save time (ms), 1000
BURST Save Interval (x above), 10
Long-Stim. Rep. Rate (Hz), 10.000000
Stim type cluster array.<size(s)>, 4
Stim type cluster array 0.Stimulus Output, Electrical
Stim type cluster array 1.Stimulus Output, OFF
Stim type cluster array 2.Stimulus Output, OFF
Stim type cluster array 3.Stimulus Output, Motor Length
Stim specs cluster array.<size(s)>, 4
Stim specs cluster array 0.Initial Stimulus ampl., 0.300000
Stim specs cluster array 0.Maximum Stimulus, 1.120000
Stim specs cluster array 0.#Pulses in train, 4
Stim specs cluster array 0.Peak Level time (ms), 1.000000
Stim specs cluster array 0.Total pulse period (ms), 150.000000
Stim specs cluster array 0.Start Delay (ms), -50.000000
Stim specs cluster array 0.Pulse Shape, Square
Stim specs cluster array 0.Ramp/Rel. time (ms), 0.100000
Stim specs cluster array 0.Peak Amplitude (V), 0.120000
Stim specs cluster array 1.Initial Stimulus ampl., 0.000000
Stim specs cluster array 1.Maximum Stimulus, 0.000000
Stim specs cluster array 1.#Pulses in train, 3
Stim specs cluster array 1.Peak Level time (ms), 29.000000
Stim specs cluster array 1.Total pulse period (ms), 200.000000
Stim specs cluster array 1.Start Delay (ms), 0.000000
Stim specs cluster array 1.Pulse Shape, Square
Stim specs cluster array 1.Ramp/Rel. time (ms), 0.000000
Stim specs cluster array 1.Peak Amplitude (V), 2.000000
Stim specs cluster array 2.Initial Stimulus ampl., 0.000000
Stim specs cluster array 2.Maximum Stimulus, 0.000000
Stim specs cluster array 2.#Pulses in train, 1
Stim specs cluster array 2.Peak Level time (ms), 25.000000
Stim specs cluster array 2.Total pulse period (ms), 200.000000
Stim specs cluster array 2.Start Delay (ms), 0.000000
Stim specs cluster array 2.Pulse Shape, Square
Stim specs cluster array 2.Ramp/Rel. time (ms), 20.000000
Stim specs cluster array 2.Peak Amplitude (V), 10.000000
Stim specs cluster array 3.Initial Stimulus ampl., 0.000000
Stim specs cluster array 3.Maximum Stimulus, 20.000000
Stim specs cluster array 3.#Pulses in train, 25
Stim specs cluster array 3.Peak Level time (ms), 0.100000
Stim specs cluster array 3.Total pulse period (ms), 4.000000
Stim specs cluster array 3.Start Delay (ms), 205.000000
Stim specs cluster array 3.Pulse Shape, Triangle
Stim specs cluster array 3.Ramp/Rel. time (ms), 3.000000
Stim specs cluster array 3.Peak Amplitude (V), 0.500000
Force cal. (mN/Volt), 100.000000
Force Range (mN), 100.000000
Length cal. (mm/Volt), 10.000000
Length Range (mm), 10.000000
Stim. 1, 0.300000
Stim. 2, 0.000000
Stim. 3, 0.000000
Stim. 4, 0.000000
Monitor acquire time (ms), 100.000000
EMG graph Ymax, 0.100000
Travel limit (mm), 20.000000
Use Pressure Probe, FALSE
Pressure goal (g), 100
Speed (mm/sec), 5.000000
Dwell time (ms), 100.000000
Pressure limit (g), 500.000000
Channel amplitude offset, 0.000000

[DATA]

0.090,0.042,0.294,-5.337
0.174,0.042,0.295,-5.337
0.263,0.041,0.293,-5.337
0.302,0.040,0.292,-5.337
0.240,0.040,0.292,-5.337
0.159,0.044,0.292,-5.337
0.153,0.044,0.292,-5.337
0.165,0.043,0.296,-5.337
0.192,0.042,0.297,-5.337
0.211,0.044,0.298,-5.337
0.231,0.043,0.297,-5.337
0.271,0.043,0.296,-5.337
0.227,0.043,0.298,-5.337
0.168,0.042,0.306,-5.337
0.134,0.049,0.309,-5.337
0.107,0.053,0.305,-5.337
0.180,0.047,0.299,-5.337
0.176,0.048,0.296,-5.337
0.088,0.051,0.297,-5.337
0.113,0.052,0.294,-5.337
0.148,0.047,0.294,-5.337
0.200,0.044,0.294,-5.337
0.176,0.045,0.297,-5.337
0.186,0.048,0.300,-5.337
0.185,0.049,0.302,-5.337
0.154,0.047,0.298,-5.337
0.133,0.048,0.296,-5.337
0.153,0.046,0.296,-5.337
0.211,0.043,0.297,-5.337
0.239,0.043,0.295,-5.337
0.220,0.045,0.295,-5.337
0.167,0.044,0.295,-5.337
0.154,0.045,0.294,-5.337
0.209,0.041,0.290,-5.337
0.216,0.042,0.289,-5.337
0.224,0.041,0.292,-5.337
0.235,0.040,0.296,-5.337
0.246,0.039,0.299,-5.337
0.218,0.039,0.298,-5.337
0.248,0.040,0.298,-5.337
0.263,0.043,0.300,-5.337
0.231,0.046,0.300,-5.337
0.229,0.048,0.295,-5.337
0.236,0.045,0.293,-5.337
0.237,0.046,0.295,-5.337
0.231,0.047,0.297,-5.337
0.232,0.047,0.296,-5.337
0.213,0.047,0.294,-5.337
0.243,0.047,0.294,-5.337
0.254,0.047,0.296,-5.337
0.229,0.049,0.297,-5.337
0.202,0.048,0.299,-5.337
0.243,0.046,0.300,-5.337
0.246,0.046,0.297,-5.337
0.240,0.044,0.292,-5.337
0.230,0.046,0.290,-5.337
0.233,0.046,0.291,-5.337
0.155,0.049,0.292,-5.337
0.165,0.050,0.295,-5.337
0.223,0.052,0.296,-5.337
0.178,0.055,0.297,-5.337
0.188,0.051,0.297,-5.337
0.226,0.049,0.295,-5.337
0.283,0.048,0.296,-5.337
0.276,0.052,0.297,-5.337
0.241,0.049,0.296,-5.337
0.235,0.049,0.298,-5.337
0.268,0.046,0.298,-5.337
0.298,0.045,0.298,-5.337
0.224,0.047,0.295,-5.337
0.206,0.046,0.294,-5.337
0.262,0.043,0.291,-5.337
0.238,0.047,0.289,-5.337
0.199,0.049,0.291,-5.337
0.187,0.048,0.293,-5.337
0.173,0.048,0.296,-5.337
0.153,0.052,0.298,-5.337
0.168,0.051,0.297,-5.337
0.239,0.050,0.296,-5.337
0.248,0.050,0.296,-5.337
0.230,0.049,0.295,-5.337
0.255,0.049,0.298,-5.337
0.259,0.050,0.297,-5.337
0.211,0.053,0.296,-5.337
0.123,0.056,0.296,-5.337
0.125,0.054,0.294,-5.337
0.185,0.052,0.290,-5.337
0.251,0.050,0.292,-5.337
0.262,0.049,0.297,-5.337
0.245,0.047,0.297,-5.337
0.233,0.050,0.296,-5.337
0.204,0.051,0.296,-5.337
0.179,0.050,0.296,-5.337
0.206,0.051,0.295,-5.337
0.238,0.049,0.294,-5.337
0.251,0.048,0.295,-5.337
0.248,0.048,0.296,-5.337
0.261,0.047,0.295,-5.337
0.254,0.049,0.294,-5.337
0.229,0.053,0.292,-5.337
0.159,0.058,0.293,-5.337
0.195,0.054,0.295,-5.337
0.276,0.049,0.297,-5.337
0.300,0.049,0.299,-5.337
0.283,0.050,0.295,-5.337
0.241,0.048,0.292,-5.337
0.190,0.049,0.293,-5.337
0.212,0.047,0.297,-5.337
0.193,0.046,0.299,-5.337
0.147,0.048,0.300,-5.337
0.205,0.050,0.297,-5.337
0.258,0.051,0.292,-5.337
0.253,0.053,0.290,-5.337
0.283,0.047,0.291,-5.337
0.270,0.048,0.295,-5.337
0.232,0.052,0.297,-5.337
0.198,0.055,0.298,-5.337
0.231,0.053,0.294,-5.337
0.213,0.054,0.291,-5.337
0.203,0.050,0.287,-5.337
0.233,0.048,0.289,-5.337
0.255,0.047,0.294,-5.337
0.288,0.051,0.300,-5.337
0.265,0.048,0.302,-5.337
0.220,0.051,0.300,-5.337
0.136,0.052,0.298,-5.337
0.132,0.050,0.296,-5.337
0.194,0.050,0.294,-5.337
0.273,0.049,0.299,-5.337
0.257,0.051,0.301,-5.337
0.199,0.050,0.298,-5.337
0.191,0.047,0.297,-5.337
0.198,0.045,0.299,-5.337
0.163,0.044,0.299,-5.337
0.199,0.043,0.300,-5.337
0.247,0.049,0.298,-5.337
0.232,0.049,0.294,-5.337
0.221,0.046,0.293,-5.337
0.184,0.047,0.290,-5.337
0.242,0.044,0.292,-5.337
0.287,0.046,0.292,-5.337
0.259,0.048,0.293,-5.337
0.227,0.049,0.295,-5.337
0.272,0.050,0.297,-5.337
0.311,0.046,0.296,-5.337
0.323,0.049,0.297,-5.337
0.259,0.050,0.293,-5.337
0.239,0.049,0.295,-5.337
0.305,0.045,0.298,-5.337
0.263,0.047,0.302,-5.337
0.173,0.047,0.298,-5.337
0.165,0.049,0.297,-5.337
0.226,0.045,0.295,-5.337
0.232,0.047,0.294,-5.337
0.240,0.044,0.293,-5.337
0.241,0.046,0.294,-5.337
0.294,0.044,0.296,-5.337
0.316,0.044,0.299,-5.337
0.241,0.047,0.298,-5.337
0.179,0.047,0.295,-5.337
0.167,0.045,0.297,-5.337
0.226,0.046,0.295,-5.337
0.290,0.045,0.292,-5.337
0.297,0.044,0.292,-5.337
0.298,0.044,0.297,-5.337
0.283,0.047,0.300,-5.337
0.312,0.043,0.299,-5.337
0.336,0.037,0.297,-5.337
0.264,0.041,0.299,-5.337
0.256,0.043,0.299,-5.337
0.276,0.041,0.299,-5.337
0.257,0.043,0.298,-5.337
0.225,0.046,0.295,-5.337
0.162,0.048,0.297,-5.337
0.167,0.048,0.299,-5.337
0.213,0.047,0.298,-5.337
0.255,0.044,0.297,-5.337
0.264,0.045,0.294,-5.337
0.238,0.045,0.293,-5.337
0.233,0.046,0.291,-5.337
0.218,0.048,0.294,-5.337
0.205,0.047,0.297,-5.337
0.229,0.044,0.297,-5.337
0.239,0.045,0.299,-5.337
0.203,0.044,0.303,-5.337
0.176,0.044,0.301,-5.337
0.236,0.036,0.295,-5.337
0.275,0.038,0.292,-5.337
0.207,0.041,0.294,-5.337
0.230,0.038,0.294,-5.337
0.261,0.035,0.292,-5.337
0.218,0.037,0.294,-5.337
0.180,0.036,0.299,-5.337
0.207,0.037,0.301,-5.337
0.299,0.035,0.299,-5.337
0.320,0.034,0.296,-5.337
0.275,0.031,0.296,-5.337
0.263,0.034,0.292,-5.337
0.267,0.039,0.292,-5.337
0.253,0.040,0.296,-5.337
0.249,0.042,0.299,-5.337
0.227,0.042,0.295,-5.337
0.217,0.042,0.293,-5.337
0.182,0.040,0.292,-5.337
0.167,0.042,0.294,-5.337
0.236,0.040,0.292,-5.337
0.241,0.037,0.292,-5.337
0.218,0.040,0.293,-5.337
0.141,0.043,0.299,-5.337
0.117,0.042,0.299,-5.337
0.197,0.042,0.299,-5.337
0.265,0.040,0.296,-5.337
0.247,0.041,0.295,-5.337
0.169,0.046,0.295,-5.337
0.207,0.047,0.297,-5.337
0.228,0.042,0.299,-5.337
0.182,0.037,0.298,-5.337
0.183,0.034,0.298,-5.337
0.171,0.036,0.298,-5.337
0.203,0.035,0.297,-5.337
0.300,0.030,0.293,-5.337
0.328,0.031,0.293,-5.337
0.282,0.035,0.296,-5.337
0.224,0.036,0.296,-5.337
0.205,0.030,0.296,-5.337
0.231,0.029,0.293,-5.337
0.234,0.028,0.292,-5.337
0.267,0.029,0.290,-5.337
0.260,0.027,0.288,-5.337
0.233,0.027,0.290,-5.337
0.264,0.030,0.293,-5.337
0.272,0.035,0.294,-5.337
0.217,0.035,0.296,-5.337
0.189,0.033,0.296,-5.337
0.195,0.033,0.297,-5.337
0.196,0.035,0.301,-5.337
0.168,0.036,0.299,-5.337
0.133,0.038,0.298,-5.337
0.124,0.039,0.295,-5.337
0.149,0.040,0.296,-5.337
0.202,0.037,0.296,-5.337
0.229,0.035,0.294,-5.337
0.245,0.034,0.293,-5.337
0.244,0.034,0.298,-5.337
0.193,0.035,0.302,-5.337
0.171,0.038,0.298,-5.337
0.150,0.037,0.294,-5.337
0.225,0.032,0.295,-5.337
0.297,0.029,0.297,-5.337
0.279,0.031,0.301,-5.337
0.218,0.033,0.302,-5.337
0.202,0.031,0.298,-5.337
0.214,0.032,0.297,-5.337
0.194,0.034,0.297,-5.337
0.131,0.036,0.299,-5.337
0.148,0.035,0.301,-5.337
0.211,0.036,0.299,-5.337
0.204,0.036,0.295,-5.337
0.185,0.036,0.293,-5.337
0.188,0.034,0.295,-5.337
0.233,0.032,0.296,-5.337
0.233,0.029,0.292,-5.337
0.187,0.035,0.294,-5.337
0.143,0.034,0.298,-5.337
0.154,0.033,0.297,-5.337
0.189,0.033,0.299,-5.337
0.178,0.029,0.300,-5.337
0.180,0.025,0.296,-5.337
0.208,0.027,0.297,-5.337
0.170,0.031,0.298,-5.337
0.185,0.030,0.300,-5.337
0.225,0.028,0.299,-5.337
0.228,0.028,0.299,-5.337
0.224,0.029,0.300,-5.337
0.194,0.033,0.298,-5.337
0.194,0.032,0.295,-5.337
0.224,0.031,0.294,-5.337
0.222,0.033,0.295,-5.337
0.183,0.034,0.295,-5.337
0.183,0.034,0.297,-5.337
0.136,0.035,0.300,-5.337
0.161,0.032,0.302,-5.337
0.246,0.029,0.299,-5.337
0.292,0.026,0.301,-5.337
0.269,0.029,0.300,-5.337
0.226,0.031,0.296,-5.337
0.207,0.030,0.294,-5.337
0.230,0.027,0.296,-5.337
0.243,0.024,0.298,-5.337
0.208,0.027,0.298,-5.337
0.201,0.029,0.297,-5.337
0.255,0.029,0.296,-5.337
0.257,0.030,0.295,-5.337
0.228,0.029,0.297,-5.337
0.243,0.031,0.300,-5.337
0.186,0.034,0.300,-5.337
0.125,0.030,0.298,-5.337
0.145,0.028,0.297,-5.337
0.111,0.032,0.294,-5.337
0.076,0.033,0.297,-5.337
0.132,0.030,0.295,-5.337
0.118,0.028,0.293,-5.337
0.121,0.029,0.295,-5.337
0.168,0.029,0.295,-5.337
0.243,0.024,0.298,-5.337
0.218,0.024,0.299,-5.337
0.147,0.024,0.297,-5.337
0.170,0.024,0.295,-5.337
0.205,0.027,0.296,-5.337
0.172,0.028,0.295,-5.337
0.144,0.032,0.297,-5.337
0.224,0.029,0.294,-5.337
0.247,0.028,0.294,-5.337
0.151,0.028,0.295,-5.337
0.149,0.030,0.297,-5.337
0.139,0.031,0.298,-5.337
0.125,0.029,0.297,-5.337
0.176,0.029,0.295,-5.337
0.246,0.030,0.296,-5.337
0.234,0.028,0.297,-5.337
0.201,0.032,0.298,-5.337
0.179,0.035,0.297,-5.337
0.216,0.040,0.295,-5.337
0.192,0.040,0.293,-5.337
0.145,0.037,0.295,-5.337
0.160,0.034,0.299,-5.337
0.202,0.034,0.299,-5.337
0.210,0.032,0.299,-5.337
0.188,0.033,0.296,-5.337
0.163,0.035,0.295,-5.337
0.185,0.036,0.294,-5.337
0.208,0.036,0.295,-5.337
0.157,0.037,0.292,-5.337
0.184,0.039,0.295,-5.337
0.148,0.038,0.296,-5.337
0.150,0.036,0.293,-5.337
0.178,0.037,0.292,-5.337
0.165,0.041,0.294,-5.337
0.173,0.039,0.297,-5.337
0.185,0.038,0.300,-5.337
0.178,0.037,0.300,-5.337
0.212,0.032,0.297,-5.337
0.199,0.034,0.293,-5.337
0.211,0.032,0.294,-5.337
0.251,0.030,0.294,-5.337
0.215,0.030,0.294,-5.337
0.151,0.029,0.298,-5.337
0.153,0.028,0.301,-5.337
0.192,0.033,0.300,-5.337
0.171,0.037,0.294,-5.337
0.155,0.035,0.291,-5.337
0.184,0.034,0.290,-5.337
0.240,0.034,0.296,-5.337
0.267,0.033,0.300,-5.337
0.245,0.032,0.299,-5.337
0.167,0.033,0.298,-5.337
0.108,0.037,0.298,-5.337
0.143,0.033,0.295,-5.337
0.180,0.033,0.296,-5.337
0.158,0.031,0.297,-5.337
0.168,0.031,0.298,-5.337
0.154,0.034,0.297,-5.337
0.165,0.036,0.295,-5.337
0.174,0.032,0.295,-5.337
0.166,0.028,0.298,-5.337
0.166,0.031,0.298,-5.337
0.114,0.035,0.297,-5.337
0.113,0.033,0.294,-5.337
0.166,0.032,0.295,-5.337
0.125,0.035,0.294,-5.337
0.124,0.037,0.296,-5.337
0.158,0.035,0.299,-5.337
0.198,0.034,0.299,-5.337
0.162,0.036,0.297,-5.337
0.160,0.033,0.293,-5.337
0.189,0.031,0.294,-5.337
0.172,0.033,0.296,-5.337
0.104,0.036,0.294,-5.337
0.134,0.033,0.294,-5.337
0.164,0.031,0.296,-5.337
0.133,0.029,0.294,-5.337
0.122,0.035,0.294,-5.337
0.107,0.038,0.292,-5.337
0.128,0.035,0.294,-5.337
0.151,0.030,0.295,-5.337
0.146,0.034,0.297,-5.337
0.161,0.034,0.298,-5.337
0.214,0.032,0.300,-5.337
0.219,0.029,0.299,-5.337
0.232,0.027,0.298,-5.337
0.210,0.030,0.297,-5.337
0.181,0.031,0.299,-5.337
0.220,0.032,0.298,-5.337
0.218,0.031,0.296,-5.337
0.216,0.029,0.294,-5.337
0.203,0.033,0.292,-5.337
0.162,0.034,0.295,-5.337
0.135,0.032,0.299,-5.337
0.163,0.033,0.300,-5.337
0.197,0.031,0.296,-5.337
0.228,0.030,0.291,-5.337
0.144,0.034,0.295,-5.337
0.040,0.036,0.299,-5.337
0.047,0.035,0.295,-5.337
0.097,0.036,0.288,-5.337
0.156,0.033,0.288,-5.337
0.141,0.036,0.295,-5.337
0.141,0.034,0.299,-5.337
0.157,0.033,0.295,-5.337
0.134,0.035,0.287,-5.337
0.109,0.035,0.290,-5.337
0.198,0.030,0.293,-5.337
0.251,0.028,0.296,-5.337
0.248,0.030,0.297,-5.337
0.174,0.031,0.300,-5.337
0.105,0.032,0.298,-5.337
0.115,0.031,0.295,-5.337
0.171,0.026,0.295,-5.337
0.157,0.028,0.294,-5.337
0.135,0.029,0.294,-5.337
0.170,0.034,0.295,-5.337
0.173,0.035,0.292,-5.337
0.161,0.035,0.288,-5.337
0.134,0.033,0.290,-5.337
0.188,0.032,0.293,-5.337
0.140,0.033,0.293,-5.337
0.122,0.033,0.294,-5.337
0.191,0.037,0.295,-5.337
0.145,0.040,0.298,-5.337
0.050,0.042,0.301,-5.337
0.066,0.044,0.298,-5.337
0.076,0.043,0.295,-5.337
0.132,0.044,0.293,-5.337
0.157,0.042,0.294,-5.337
0.150,0.040,0.295,-5.337
0.131,0.041,0.295,-5.337
0.148,0.041,0.292,-5.337
0.185,0.040,0.293,-5.337
0.194,0.037,0.294,-5.337
0.150,0.042,0.292,-5.337
0.095,0.042,0.290,-5.337
0.144,0.039,0.290,-5.337
0.159,0.037,0.290,-5.337
0.188,0.034,0.296,-5.337
0.142,0.034,0.298,-5.337
0.162,0.031,0.296,-5.337
0.213,0.029,0.292,-5.337
0.219,0.031,0.293,-5.337
0.149,0.033,0.293,-5.337
0.155,0.034,0.294,-5.337
0.189,0.033,0.294,-5.337
0.196,0.032,0.290,-5.337
0.167,0.032,0.291,-5.337
0.101,0.036,0.294,-5.337
0.085,0.036,0.297,-5.337
0.146,0.037,0.294,-5.337
0.193,0.040,0.291,-5.337
0.135,0.042,0.293,-5.337
0.126,0.040,0.299,-5.337
0.151,0.042,0.296,-5.337
0.121,0.043,0.293,-5.337
0.085,0.039,0.294,-5.337
0.107,0.038,0.295,-5.337
0.197,0.040,0.294,-5.337
0.226,0.043,0.292,-5.337
0.207,0.044,0.291,-5.337
0.152,0.045,0.289,-5.337
0.098,0.046,0.289,-5.337
0.165,0.043,0.290,-5.337
0.181,0.045,0.294,-5.337
0.120,0.044,0.296,-5.337
0.119,0.039,0.291,-5.337
0.190,0.037,0.288,-5.337
0.214,0.040,0.291,-5.337
0.181,0.041,0.295,-5.337
0.126,0.042,0.294,-5.337
0.088,0.040,0.288,-5.337
0.127,0.036,0.288,-5.337
0.183,0.040,0.292,-5.337
0.176,0.046,0.295,-5.337
0.150,0.047,0.291,-5.337
0.105,0.048,0.292,-5.337
0.171,0.045,0.292,-5.337
0.201,0.046,0.290,-5.337
0.208,0.042,0.293,-5.337
0.239,0.042,0.295,-5.337
0.222,0.040,0.295,-5.337
0.162,0.042,0.294,-5.337
0.159,0.042,0.289,-5.337
0.256,0.041,0.285,-5.337
0.265,0.043,0.288,-5.337
0.151,0.046,0.292,-5.337
0.074,0.047,0.296,-5.337
0.179,0.046,0.297,-5.337
0.208,0.045,0.293,-5.337
0.139,0.044,0.288,-5.337
0.142,0.043,0.285,-5.337
0.257,0.042,0.285,-5.337
0.259,0.041,0.286,-5.337
0.244,0.042,0.289,-5.337
0.239,0.041,0.294,-5.337
0.213,0.039,0.293,-5.337
0.251,0.037,0.293,-5.337
0.176,0.041,0.293,-5.337
0.135,0.041,0.290,-5.337
0.206,0.040,0.290,-5.337
0.263,0.038,0.292,-5.337
0.277,0.039,0.291,-5.337
0.264,0.042,0.292,-5.337
0.182,0.047,0.293,-5.337
0.151,0.050,0.291,-5.337
0.183,0.048,0.287,-5.337
0.143,0.048,0.290,-5.337
0.131,0.048,0.294,-5.337
0.173,0.047,0.292,-5.337
0.211,0.042,0.290,-5.337
0.197,0.042,0.294,-5.337
0.200,0.046,0.293,-5.337
0.191,0.046,0.288,-5.337
0.176,0.045,0.287,-5.337
0.149,0.048,0.291,-5.337
0.153,0.050,0.291,-5.337
0.217,0.049,0.287,-5.337
0.237,0.048,0.286,-5.337
0.226,0.052,0.289,-5.337
0.127,0.055,0.295,-5.337
0.112,0.054,0.298,-5.337
0.147,0.054,0.297,-5.337
0.164,0.052,0.293,-5.337
0.193,0.048,0.288,-5.337
0.163,0.048,0.288,-5.337
0.191,0.048,0.291,-5.337
0.212,0.047,0.291,-5.337
0.180,0.047,0.290,-5.337
0.227,0.047,0.288,-5.337
0.271,0.048,0.290,-5.337
0.224,0.050,0.294,-5.337
0.194,0.049,0.295,-5.337
0.207,0.049,0.294,-5.337
0.243,0.050,0.292,-5.337
0.201,0.054,0.290,-5.337
0.113,0.054,0.293,-5.337
0.093,0.053,0.294,-5.337
0.133,0.052,0.295,-5.337
0.149,0.054,0.294,-5.337
0.125,0.055,0.293,-5.337
0.129,0.055,0.292,-5.337
0.160,0.055,0.290,-5.337
0.183,0.056,0.290,-5.337
0.138,0.058,0.292,-5.337
0.117,0.057,0.292,-5.337
0.155,0.057,0.289,-5.337
0.192,0.057,0.291,-5.337
0.204,0.055,0.295,-5.337
0.221,0.057,0.296,-5.337
0.230,0.057,0.291,-5.337
0.208,0.055,0.289,-5.337
0.215,0.055,0.289,-5.337
0.225,0.058,0.290,-5.337
0.199,0.054,0.291,-5.337
0.172,0.050,0.295,-5.337
0.225,0.051,0.295,-5.337
0.225,0.054,0.290,-5.337
0.217,0.050,0.285,-5.337
0.210,0.049,0.287,-5.337
0.234,0.048,0.290,-5.337
0.271,0.050,0.292,-5.337
0.229,0.052,0.294,-5.337
0.198,0.052,0.297,-5.337
0.130,0.054,0.294,-5.337
0.133,0.052,0.288,-5.337
0.148,0.050,0.287,-5.337
0.139,0.054,0.290,-5.337
0.167,0.053,0.291,-5.337
0.255,0.048,0.294,-5.337
0.242,0.048,0.298,-5.337
0.200,0.051,0.296,-5.337
0.203,0.049,0.292,-5.337
0.242,0.048,0.290,-5.337
0.243,0.052,0.288,-5.337
0.209,0.052,0.285,-5.337
0.213,0.051,0.286,-5.337
0.225,0.050,0.289,-5.337
0.209,0.054,0.292,-5.337
0.213,0.055,0.292,-5.337
0.238,0.051,0.289,-5.337
0.287,0.049,0.290,-5.337
0.235,0.051,0.287,-5.337
0.128,0.055,0.284,-5.337
0.130,0.053,0.287,-5.337
0.188,0.055,0.290,-5.337
0.140,0.058,0.289,-5.337
0.124,0.056,0.292,-5.337
0.170,0.055,0.296,-5.337
0.237,0.052,0.297,-5.337
0.269,0.052,0.290,-5.337
0.277,0.056,0.287,-5.337
0.254,0.057,0.289,-5.337
0.258,0.055,0.293,-5.337
0.252,0.055,0.293,-5.337
0.286,0.053,0.295,-5.337
0.264,0.051,0.294,-5.337
0.222,0.052,0.291,-5.337
0.232,0.052,0.287,-5.337
0.224,0.059,0.288,-5.337
0.176,0.059,0.290,-5.337
0.171,0.058,0.289,-5.337
0.184,0.055,0.288,-5.337
0.229,0.053,0.291,-5.337
0.206,0.058,0.293,-5.337
0.196,0.060,0.292,-5.337
0.245,0.059,0.288,-5.337
0.236,0.058,0.289,-5.337
0.227,0.058,0.289,-5.337
0.199,0.059,0.290,-5.337
0.199,0.057,0.291,-5.337
0.262,0.054,0.292,-5.337
0.267,0.054,0.295,-5.337
0.198,0.058,0.295,-5.337
0.173,0.057,0.294,-5.337
0.182,0.058,0.294,-5.337
0.189,0.055,0.294,-5.337
0.228,0.047,0.290,-5.337
0.191,0.054,0.289,-5.337
0.154,0.056,0.291,-5.337
0.213,0.052,0.292,-5.337
0.278,0.051,0.292,-5.337
0.285,0.050,0.293,-5.337
0.308,0.048,0.294,-5.337
0.286,0.052,0.293,-5.337
0.212,0.053,0.292,-5.337
0.186,0.056,0.293,-5.337
0.185,0.056,0.295,-5.337
0.200,0.054,0.295,-5.337
0.216,0.053,0.292,-5.337
0.271,0.052,0.289,-5.337
0.262,0.051,0.287,-5.337
0.229,0.052,0.289,-5.337
0.149,0.054,0.291,-5.337
0.154,0.052,0.292,-5.337
0.252,0.052,0.290,-5.337
0.308,0.052,0.290,-5.337
0.254,0.052,0.293,-5.337
0.223,0.051,0.294,-5.337
0.233,0.051,0.295,-5.337
0.260,0.054,0.292,-5.337
0.256,0.056,0.287,-5.337
0.239,0.057,0.287,-5.337
0.212,0.057,0.290,-5.337
0.180,0.056,0.291,-5.337
0.217,0.055,0.290,-5.337
0.183,0.054,0.290,-5.337
0.168,0.052,0.293,-5.337
0.214,0.052,0.296,-5.337
0.239,0.053,0.295,-5.337
0.229,0.056,0.291,-5.337
0.211,0.056,0.290,-5.337
0.253,0.052,0.292,-5.337
0.293,0.051,0.295,-5.337
0.288,0.050,0.294,-5.337
0.219,0.052,0.294,-5.337
0.199,0.052,0.292,-5.337
0.303,0.049,0.289,-5.337
0.320,0.048,0.288,-5.337
0.225,0.052,0.292,-5.337
0.158,0.049,0.296,-5.337
0.187,0.047,0.296,-5.337
0.251,0.051,0.292,-5.337
0.255,0.052,0.288,-5.337
0.209,0.052,0.288,-5.337
0.153,0.051,0.287,-5.337
0.163,0.048,0.291,-5.337
0.236,0.047,0.292,-5.337
0.247,0.046,0.294,-5.337
0.191,0.049,0.286,-5.337
0.184,0.053,0.284,-5.337
0.239,0.051,0.287,-5.337
0.220,0.049,0.292,-5.337
0.203,0.046,0.292,-5.337
0.215,0.048,0.290,-5.337
0.196,0.047,0.290,-5.337
0.220,0.047,0.291,-5.337
0.243,0.046,0.295,-5.337
0.233,0.043,0.298,-5.337
0.277,0.040,0.295,-5.337
0.300,0.045,0.295,-5.337
0.254,0.043,0.295,-5.337
0.198,0.043,0.294,-5.337
0.196,0.048,0.292,-5.337
0.216,0.050,0.292,-5.337
0.180,0.052,0.291,-5.337
0.148,0.051,0.293,-5.337
0.168,0.047,0.292,-5.337
0.249,0.047,0.290,-5.337
0.269,0.048,0.291,-5.337
0.270,0.049,0.293,-5.337
0.241,0.049,0.292,-5.337
0.220,0.049,0.288,-5.337
0.222,0.048,0.291,-5.337
0.228,0.046,0.291,-5.337
0.259,0.044,0.291,-5.337
0.262,0.047,0.290,-5.337
0.265,0.044,0.292,-5.337
0.266,0.043,0.293,-5.337
0.271,0.044,0.296,-5.337
0.299,0.042,0.296,-5.337
0.255,0.046,0.294,-5.337
0.230,0.046,0.290,-5.337
0.226,0.044,0.288,-5.337
0.250,0.042,0.287,-5.337
0.306,0.043,0.287,-5.337
0.273,0.045,0.292,-5.337
0.220,0.043,0.295,-5.337
0.198,0.047,0.291,-5.337
0.218,0.051,0.291,-5.337
0.191,0.049,0.295,-5.337
0.213,0.043,0.297,-5.337
0.260,0.042,0.295,-5.337
0.235,0.042,0.291,-5.337
0.209,0.044,0.292,-5.337
0.205,0.046,0.289,-5.337
0.249,0.045,0.291,-5.337
0.241,0.042,0.297,-5.337
0.212,0.041,0.297,-5.337
0.182,0.042,0.291,-5.337
0.140,0.046,0.289,-5.337
0.199,0.043,0.292,-5.337
0.252,0.042,0.297,-5.337
0.213,0.044,0.300,-5.337
0.198,0.044,0.299,-5.337
0.244,0.043,0.293,-5.337
0.287,0.040,0.292,-5.337
0.277,0.040,0.287,-5.337
0.218,0.042,0.286,-5.337
0.180,0.041,0.288,-5.337
0.159,0.040,0.290,-5.337
0.138,0.041,0.289,-5.337
0.128,0.041,0.291,-5.337
0.217,0.033,0.292,-5.337
0.280,0.035,0.292,-5.337
0.281,0.037,0.291,-5.337
0.214,0.039,0.289,-5.337
0.177,0.040,0.289,-5.337
0.183,0.040,0.291,-5.337
0.222,0.038,0.292,-5.337
0.255,0.038,0.291,-5.337
0.271,0.035,0.294,-5.337
0.254,0.036,0.296,-5.337
0.235,0.038,0.296,-5.337
0.235,0.036,0.295,-5.337
0.173,0.042,0.290,-5.337
0.079,0.043,0.287,-5.337
0.097,0.041,0.291,-5.337
0.207,0.035,0.296,-5.337
0.239,0.040,0.298,-5.337
0.179,0.044,0.295,-5.337
0.158,0.044,0.290,-5.337
0.197,0.039,0.288,-5.337
0.221,0.037,0.289,-5.337
0.194,0.038,0.290,-5.337
0.235,0.036,0.295,-5.337
0.301,0.036,0.297,-5.337
0.230,0.040,0.294,-5.337
0.125,0.040,0.293,-5.337
0.163,0.040,0.292,-5.337
0.241,0.039,0.288,-5.337
0.288,0.036,0.286,-5.337
0.320,0.032,0.290,-5.337
0.287,0.033,0.294,-5.337
0.272,0.030,0.291,-5.337
0.228,0.034,0.286,-5.337
0.158,0.034,0.292,-5.337
0.197,0.030,0.295,-5.337
0.196,0.033,0.296,-5.337
0.208,0.031,0.291,-5.337
0.195,0.030,0.288,-5.337
0.246,0.026,0.286,-5.337
0.284,0.028,0.286,-5.337
0.219,0.030,0.289,-5.337
0.219,0.029,0.291,-5.337
0.198,0.028,0.292,-5.337
0.156,0.034,0.296,-5.337
0.138,0.036,0.298,-5.337
0.168,0.037,0.297,-5.337
0.141,0.037,0.293,-5.337
0.158,0.035,0.288,-5.337
0.197,0.037,0.285,-5.337
0.242,0.035,0.292,-5.337
0.243,0.032,0.295,-5.337
0.175,0.034,0.292,-5.337
0.095,0.038,0.293,-5.337
0.087,0.037,0.293,-5.337
0.131,0.031,0.294,-5.337
0.137,0.030,0.293,-5.337
0.151,0.031,0.292,-5.337
0.184,0.033,0.295,-5.337
0.215,0.033,0.295,-5.337
0.189,0.035,0.290,-5.337
0.174,0.036,0.291,-5.337
0.198,0.035,0.291,-5.337
0.168,0.035,0.289,-5.337
0.141,0.036,0.291,-5.337
0.172,0.035,0.298,-5.337
0.179,0.033,0.300,-5.337
0.188,0.033,0.298,-5.337
0.194,0.029,0.293,-5.337
0.174,0.030,0.293,-5.337
0.199,0.028,0.295,-5.337
0.228,0.029,0.294,-5.337
0.254,0.028,0.292,-5.337
0.218,0.034,0.293,-5.337
0.178,0.037,0.292,-5.337
0.162,0.037,0.291,-5.337
0.128,0.036,0.295,-5.337
0.126,0.038,0.298,-5.337
0.215,0.034,0.295,-5.337
0.249,0.030,0.294,-5.337
0.191,0.035,0.293,-5.337
0.134,0.038,0.287,-5.337
0.124,0.037,0.286,-5.337
0.162,0.037,0.289,-5.337
0.190,0.037,0.294,-5.337
0.155,0.037,0.298,-5.337
0.153,0.035,0.300,-5.337
0.157,0.035,0.295,-5.337
0.191,0.036,0.291,-5.337
0.217,0.037,0.292,-5.337
0.270,0.035,0.294,-5.337
0.271,0.036,0.292,-5.337
0.189,0.035,0.297,-5.337
0.194,0.032,0.299,-5.337
0.191,0.034,0.295,-5.337
0.163,0.033,0.292,-5.337
0.180,0.035,0.288,-5.337
0.183,0.036,0.287,-5.337
0.187,0.033,0.290,-5.337
0.188,0.032,0.294,-5.337
0.186,0.031,0.298,-5.337
0.206,0.031,0.298,-5.337
0.216,0.035,0.294,-5.337
0.154,0.036,0.290,-5.337
0.109,0.033,0.288,-5.337
0.130,0.032,0.289,-5.337
0.210,0.028,0.291,-5.337
0.238,0.033,0.293,-5.337
0.177,0.034,0.290,-5.337
0.172,0.032,0.289,-5.337
0.171,0.030,0.290,-5.337
0.167,0.027,0.295,-5.337
0.198,0.028,0.290,-5.337
0.167,0.035,0.288,-5.337
0.148,0.034,0.288,-5.337
0.139,0.033,0.292,-5.337
0.150,0.031,0.297,-5.337
0.193,0.030,0.297,-5.337
0.166,0.030,0.292,-5.337
0.165,0.031,0.291,-5.337
0.186,0.029,0.291,-5.337
0.104,0.036,0.294,-5.337
0.051,0.037,0.295,-5.337
0.074,0.033,0.294,-5.337
0.161,0.032,0.291,-5.337
0.214,0.034,0.289,-5.337
0.237,0.035,0.288,-5.337
0.227,0.035,0.290,-5.337
0.275,0.028,0.292,-5.337
0.238,0.035,0.292,-5.337
0.155,0.039,0.295,-5.337
0.134,0.039,0.298,-5.337
0.151,0.037,0.298,-5.337
0.134,0.040,0.295,-5.337
0.107,0.039,0.293,-5.337
0.120,0.038,0.291,-5.337
0.172,0.039,0.288,-5.337
0.206,0.037,0.287,-5.337
0.193,0.037,0.286,-5.337
0.210,0.035,0.289,-5.337
0.230,0.034,0.291,-5.337
0.191,0.042,0.293,-5.337
0.172,0.045,0.293,-5.337
0.189,0.042,0.294,-5.337
0.199,0.037,0.295,-5.337
0.181,0.039,0.293,-5.337
0.200,0.040,0.291,-5.337
0.191,0.042,0.292,-5.337
0.146,0.045,0.292,-5.337
0.155,0.043,0.292,-5.337
0.179,0.041,0.292,-5.337
0.151,0.039,0.290,-5.337
0.124,0.040,0.288,-5.337
0.170,0.036,0.288,-5.337
0.225,0.036,0.291,-5.337
0.183,0.040,0.295,-5.337
0.171,0.040,0.297,-5.337
0.196,0.041,0.295,-5.337
0.163,0.040,0.290,-5.337
0.142,0.039,0.291,-5.337
0.168,0.037,0.291,-5.337
0.172,0.040,0.292,-5.337
0.123,0.040,0.293,-5.337
0.142,0.038,0.291,-5.337
0.199,0.035,0.288,-5.337
0.163,0.036,0.287,-5.337
0.150,0.036,0.290,-5.337
0.154,0.034,0.293,-5.337
0.186,0.033,0.293,-5.337
0.198,0.034,0.291,-5.337
0.189,0.034,0.288,-5.337
0.151,0.037,0.288,-5.337
0.153,0.037,0.291,-5.337
0.212,0.037,0.295,-5.337
0.199,0.037,0.297,-5.337
0.138,0.039,0.296,-5.337
0.148,0.036,0.292,-5.337
0.164,0.037,0.288,-5.337
0.113,0.039,0.293,-5.337
0.128,0.038,0.296,-5.337
0.146,0.036,0.295,-5.337
0.176,0.035,0.292,-5.337
0.191,0.037,0.292,-5.337
0.144,0.039,0.289,-5.337
0.094,0.043,0.289,-5.337
0.125,0.042,0.293,-5.337
0.141,0.042,0.294,-5.337
0.165,0.038,0.292,-5.337
0.132,0.035,0.293,-5.337
0.102,0.035,0.297,-5.337
0.113,0.042,0.297,-5.337
0.157,0.043,0.293,-5.337
0.210,0.042,0.291,-5.337
0.188,0.042,0.290,-5.337
0.105,0.046,0.287,-5.337
0.055,0.043,0.287,-5.337
0.128,0.044,0.291,-5.337
0.181,0.045,0.293,-5.337
0.153,0.047,0.295,-5.337
0.121,0.048,0.294,-5.337
0.146,0.048,0.292,-5.337
0.163,0.046,0.291,-5.337
0.215,0.041,0.289,-5.337
0.199,0.039,0.292,-5.337
0.128,0.041,0.293,-5.337
0.088,0.044,0.288,-5.337
0.109,0.044,0.282,-5.337
0.186,0.045,0.286,-5.337
0.225,0.044,0.289,-5.337
0.206,0.045,0.294,-5.337
0.159,0.047,0.294,-5.337
0.159,0.045,0.292,-5.337
0.171,0.048,0.292,-5.337
0.136,0.047,0.293,-5.337
0.190,0.042,0.294,-5.337
0.183,0.044,0.297,-5.337
0.199,0.045,0.297,-5.337
0.163,0.046,0.295,-5.337
0.135,0.046,0.294,-5.337
0.100,0.047,0.296,-5.337
0.138,0.048,0.292,-5.337
0.142,0.046,0.289,-5.337
0.127,0.044,0.286,-5.337
0.168,0.045,0.285,-5.337
0.145,0.047,0.287,-5.337
0.171,0.043,0.290,-5.337
0.212,0.042,0.291,-5.337
0.168,0.044,0.292,-5.337
0.176,0.047,0.295,-5.337
0.140,0.047,0.294,-5.337
0.083,0.051,0.293,-5.337
0.112,0.048,0.290,-5.337
0.212,0.046,0.292,-5.337
0.209,0.048,0.294,-5.337
0.155,0.050,0.294,-5.337
0.121,0.050,0.294,-5.337
0.134,0.049,0.295,-5.337
0.086,0.048,0.292,-5.337
0.113,0.045,0.288,-5.337
0.170,0.046,0.287,-5.337
0.162,0.046,0.291,-5.337
0.159,0.046,0.295,-5.337
0.163,0.046,0.297,-5.337
0.185,0.045,0.297,-5.337
0.219,0.044,0.294,-5.337
0.172,0.047,0.293,-5.337
0.146,0.049,0.295,-5.337
0.164,0.046,0.295,-5.337
0.160,0.046,0.291,-5.337
0.168,0.046,0.287,-5.337
0.173,0.044,0.285,-5.337
0.190,0.045,0.289,-5.337
0.192,0.046,0.292,-5.337
0.217,0.042,0.295,-5.337
0.203,0.042,0.294,-5.337
0.125,0.048,0.293,-5.337
0.138,0.050,0.289,-5.337
0.200,0.049,0.289,-5.337
0.216,0.044,0.290,-5.337
0.181,0.042,0.292,-5.337
0.215,0.039,0.292,-5.337
0.213,0.040,0.293,-5.337
0.164,0.043,0.291,-5.337
0.188,0.043,0.291,-5.337
0.208,0.042,0.289,-5.337
0.193,0.043,0.293,-5.337
0.190,0.043,0.293,-5.337
0.185,0.043,0.295,-5.337
0.187,0.041,0.291,-5.337
0.202,0.042,0.290,-5.337
0.198,0.043,0.293,-5.337
0.135,0.045,0.293,-5.337
0.112,0.043,0.292,-5.337
0.148,0.042,0.290,-5.337
0.224,0.042,0.296,-5.337
0.207,0.043,0.297,-5.337
0.172,0.046,0.293,-5.337
0.217,0.044,0.288,-5.337
0.185,0.047,0.290,-5.337
0.178,0.049,0.294,-5.337
0.186,0.054,0.297,-5.337
0.177,0.052,0.296,-5.337
0.209,0.048,0.293,-5.337
0.226,0.048,0.291,-5.337
0.201,0.049,0.290,-5.337
0.209,0.047,0.294,-5.337
0.243,0.047,0.294,-5.337
0.196,0.048,0.290,-5.337
0.202,0.048,0.290,-5.337
0.226,0.044,0.291,-5.337
0.243,0.044,0.292,-5.337
0.223,0.045,0.293,-5.337
0.191,0.044,0.290,-5.337
0.166,0.045,0.290,-5.337
0.195,0.047,0.291,-5.337
0.220,0.046,0.289,-5.337
0.229,0.043,0.288,-5.337
0.214,0.043,0.290,-5.337
0.191,0.044,0.291,-5.337
0.203,0.045,0.292,-5.337
0.194,0.045,0.293,-5.337
0.189,0.046,0.294,-5.337
0.207,0.045,0.290,-5.337
0.201,0.048,0.293,-5.337
0.220,0.049,0.296,-5.337
0.268,0.046,0.297,-5.337
0.254,0.045,0.292,-5.337
0.247,0.043,0.291,-5.337
0.221,0.044,0.289,-5.337
0.229,0.046,0.290,-5.337
0.266,0.046,0.293,-5.337
0.254,0.049,0.294,-5.337
0.208,0.051,0.295,-5.337
0.162,0.051,0.293,-5.337
0.165,0.047,0.294,-5.337
0.175,0.049,0.296,-5.337
0.171,0.051,0.294,-5.337
0.157,0.049,0.291,-5.337
0.233,0.046,0.288,-5.337
0.258,0.045,0.287,-5.337
0.192,0.048,0.290,-5.337
0.141,0.051,0.292,-5.337
0.171,0.052,0.295,-5.337
0.189,0.053,0.292,-5.337
0.158,0.057,0.291,-5.337
0.168,0.053,0.288,-5.337
0.127,0.049,0.289,-5.337
0.120,0.049,0.293,-5.337
0.205,0.052,0.299,-5.337
0.278,0.054,0.297,-5.337
0.263,0.052,0.295,-5.337
0.212,0.052,0.294,-5.337
0.186,0.054,0.295,-5.337
0.148,0.055,0.293,-5.337
0.192,0.053,0.292,-5.337
0.286,0.047,0.294,-5.337
0.299,0.049,0.297,-5.337
0.200,0.051,0.298,-5.337
0.174,0.054,0.300,-5.337
0.197,0.050,0.297,-5.337
0.229,0.048,0.291,-5.337
0.237,0.049,0.286,-5.337
0.171,0.053,0.288,-5.337
0.156,0.052,0.294,-5.337
0.190,0.054,0.297,-5.337
0.231,0.053,0.295,-5.337
0.263,0.052,0.291,-5.337
0.236,0.050,0.291,-5.337
0.192,0.053,0.293,-5.337
0.205,0.050,0.293,-5.337
0.224,0.046,0.288,-5.337
0.241,0.046,0.288,-5.337
0.243,0.050,0.290,-5.337
0.202,0.053,0.295,-5.337
0.213,0.054,0.300,-5.337
0.216,0.054,0.300,-5.337
0.190,0.054,0.296,-5.337
0.244,0.058,0.293,-5.337
0.258,0.055,0.294,-5.337
0.210,0.057,0.294,-5.337
0.217,0.058,0.293,-5.337
0.194,0.059,0.294,-5.337
0.153,0.054,0.295,-5.337
0.216,0.052,0.295,-5.337
0.270,0.055,0.292,-5.337
0.215,0.059,0.291,-5.337
0.182,0.062,0.291,-5.337
0.199,0.063,0.293,-5.337
0.194,0.064,0.296,-5.337
0.129,0.063,0.296,-5.337
0.118,0.060,0.296,-5.337
0.174,0.060,0.295,-5.337
0.276,0.054,0.294,-5.337
0.314,0.055,0.290,-5.337
0.252,0.058,0.293,-5.337
0.238,0.056,0.292,-5.337
0.258,0.055,0.292,-5.337
0.238,0.054,0.290,-5.337
0.173,0.057,0.292,-5.337
0.215,0.052,0.291,-5.337
0.333,0.051,0.290,-5.337
0.323,0.056,0.289,-5.337
0.246,0.057,0.291,-5.337
0.263,0.050,0.293,-5.337
0.297,0.048,0.293,-5.337
0.275,0.052,0.292,-5.337
0.211,0.055,0.291,-5.337
0.172,0.057,0.292,-5.337
0.159,0.058,0.293,-5.337
0.167,0.062,0.292,-5.337
0.232,0.057,0.291,-5.337
0.290,0.050,0.293,-5.337
0.253,0.053,0.295,-5.337
0.222,0.056,0.297,-5.337
0.266,0.057,0.298,-5.337
0.255,0.055,0.296,-5.337
0.240,0.053,0.293,-5.337
0.235,0.054,0.292,-5.337
0.281,0.054,0.291,-5.337
0.317,0.053,0.291,-5.337
0.270,0.053,0.292,-5.337
0.238,0.056,0.293,-5.337
0.234,0.057,0.291,-5.337
0.290,0.056,0.291,-5.337
0.323,0.053,0.292,-5.337
0.298,0.054,0.292,-5.337
0.210,0.058,0.290,-5.337
0.226,0.056,0.291,-5.337
0.273,0.054,0.294,-5.337
0.312,0.054,0.294,-5.337
0.275,0.055,0.293,-5.337
0.234,0.058,0.291,-5.337
0.211,0.056,0.290,-5.337
0.185,0.057,0.294,-5.337
0.172,0.054,0.295,-5.337
0.190,0.054,0.293,-5.337
0.250,0.048,0.295,-5.337
0.270,0.047,0.298,-5.337
0.223,0.050,0.297,-5.337
0.227,0.051,0.292,-5.337
0.286,0.049,0.290,-5.337
0.307,0.048,0.294,-5.337
0.258,0.051,0.298,-5.337
0.218,0.055,0.292,-5.337
0.196,0.054,0.290,-5.337
0.226,0.051,0.295,-5.337
0.258,0.050,0.294,-5.337
0.224,0.052,0.291,-5.337
0.235,0.047,0.293,-5.337
0.198,0.048,0.294,-5.337
0.171,0.049,0.296,-5.337
0.208,0.047,0.294,-5.337
0.266,0.047,0.291,-5.337
0.200,0.047,0.292,-5.337
0.231,0.047,0.292,-5.337
0.244,0.046,0.291,-5.337
0.225,0.047,0.289,-5.337
0.245,0.047,0.288,-5.337
0.257,0.046,0.289,-5.337
0.264,0.047,0.291,-5.337
0.235,0.050,0.293,-5.337
0.237,0.050,0.297,-5.337
0.212,0.048,0.292,-5.337
0.186,0.050,0.290,-5.337
0.175,0.049,0.291,-5.337
0.223,0.047,0.292,-5.337
0.241,0.046,0.288,-5.337
0.210,0.045,0.291,-5.337
0.174,0.046,0.295,-5.337
0.181,0.044,0.299,-5.337
0.228,0.043,0.300,-5.337
0.208,0.045,0.297,-5.337
0.174,0.044,0.293,-5.337
0.190,0.045,0.292,-5.337
0.160,0.046,0.291,-5.337
0.153,0.048,0.288,-5.337
0.188,0.046,0.288,-5.337
0.279,0.042,0.291,-5.337
0.270,0.044,0.293,-5.337
0.175,0.049,0.295,-5.337
0.180,0.049,0.295,-5.337
0.253,0.044,0.294,-5.337
0.293,0.041,0.294,-5.337
0.240,0.044,0.294,-5.337
0.195,0.047,0.292,-5.337
0.220,0.046,0.289,-5.337
0.233,0.044,0.290,-5.337
0.215,0.044,0.293,-5.337
0.206,0.044,0.295,-5.337
0.194,0.046,0.295,-5.337
0.235,0.044,0.293,-5.337
0.222,0.043,0.293,-5.337
0.250,0.042,0.297,-5.337
0.237,0.041,0.296,-5.337
0.247,0.041,0.292,-5.337
0.253,0.041,0.289,-5.337
0.218,0.043,0.289,-5.337
0.215,0.042,0.292,-5.337
0.246,0.043,0.295,-5.337
0.230,0.040,0.296,-5.337
0.259,0.037,0.297,-5.337
0.261,0.040,0.295,-5.337
0.276,0.040,0.294,-5.337
0.266,0.037,0.293,-5.337
0.233,0.040,0.290,-5.337
0.215,0.041,0.292,-5.337
0.190,0.042,0.292,-5.337
0.187,0.042,0.290,-5.337
0.208,0.040,0.290,-5.337
0.208,0.037,0.291,-5.337
0.251,0.034,0.290,-5.337
0.240,0.038,0.292,-5.337
0.216,0.040,0.292,-5.337
0.211,0.038,0.293,-5.337
0.210,0.035,0.294,-5.337
0.290,0.033,0.297,-5.337
0.260,0.036,0.295,-5.337
0.190,0.038,0.293,-5.337
0.204,0.037,0.293,-5.337
0.187,0.039,0.294,-5.337
0.142,0.035,0.292,-5.337
0.137,0.039,0.289,-5.337
0.154,0.041,0.289,-5.337
0.167,0.042,0.293,-5.337
0.189,0.041,0.297,-5.337
0.194,0.039,0.296,-5.337
0.221,0.035,0.295,-5.337
0.198,0.037,0.296,-5.337
0.159,0.038,0.296,-5.337
0.190,0.036,0.291,-5.337
0.192,0.037,0.290,-5.337
0.156,0.037,0.294,-5.337
0.169,0.035,0.297,-5.337
0.194,0.036,0.294,-5.337
0.251,0.039,0.291,-5.337
0.229,0.038,0.291,-5.337
0.166,0.036,0.293,-5.337
0.207,0.036,0.293,-5.337
0.230,0.038,0.294,-5.337
0.248,0.037,0.296,-5.337
0.234,0.036,0.296,-5.337
0.198,0.033,0.295,-5.337
0.196,0.032,0.296,-5.337
0.192,0.032,0.291,-5.337
0.177,0.034,0.289,-5.337
0.166,0.034,0.292,-5.337
0.199,0.035,0.295,-5.337
0.251,0.035,0.293,-5.337
0.249,0.034,0.292,-5.337
0.234,0.035,0.291,-5.337
0.218,0.035,0.295,-5.337
0.232,0.032,0.298,-5.337
0.202,0.033,0.296,-5.337
0.200,0.031,0.296,-5.337
0.209,0.030,0.299,-5.337
0.254,0.028,0.300,-5.337
0.243,0.032,0.295,-5.337
0.178,0.036,0.292,-5.337
0.247,0.032,0.294,-5.337
0.254,0.035,0.295,-5.337
0.158,0.037,0.293,-5.337
0.129,0.038,0.292,-5.337
0.196,0.035,0.294,-5.337
0.245,0.036,0.298,-5.337
0.216,0.035,0.295,-5.337
0.197,0.036,0.290,-5.337
0.194,0.036,0.289,-5.337
0.226,0.036,0.292,-5.337
0.263,0.034,0.292,-5.337
0.231,0.037,0.290,-5.337
0.197,0.038,0.288,-5.337
0.132,0.041,0.288,-5.337
0.151,0.038,0.294,-5.337
0.151,0.037,0.299,-5.337
0.128,0.034,0.297,-5.337
0.148,0.031,0.294,-5.337
0.151,0.035,0.292,-5.337
0.155,0.034,0.290,-5.337
0.206,0.031,0.290,-5.337
0.191,0.032,0.289,-5.337
0.180,0.032,0.291,-5.337
0.197,0.031,0.294,-5.337
0.202,0.032,0.293,-5.337
0.188,0.033,0.293,-5.337
0.190,0.029,0.292,-5.337
0.181,0.027,0.291,-5.337
0.166,0.029,0.293,-5.337
0.191,0.031,0.292,-5.337
0.205,0.032,0.293,-5.337
0.210,0.031,0.295,-5.337
0.175,0.032,0.296,-5.337
0.166,0.034,0.290,-5.337
0.191,0.036,0.289,-5.337
0.172,0.035,0.290,-5.337
0.135,0.037,0.289,-5.337
0.102,0.036,0.291,-5.337
0.173,0.036,0.294,-5.337
0.158,0.036,0.296,-5.337
0.129,0.034,0.294,-5.337
0.134,0.032,0.294,-5.337
0.204,0.030,0.297,-5.337
0.186,0.034,0.295,-5.337
0.155,0.035,0.295,-5.337
0.181,0.031,0.293,-5.337
0.170,0.034,0.292,-5.337
0.182,0.032,0.289,-5.337
0.197,0.035,0.289,-5.337
0.221,0.034,0.292,-5.337
0.231,0.030,0.296,-5.337
0.213,0.031,0.296,-5.337
0.209,0.032,0.292,-5.337
0.221,0.030,0.292,-5.337
0.160,0.031,0.294,-5.337
0.169,0.028,0.298,-5.337
0.203,0.029,0.300,-5.337
0.187,0.034,0.299,-5.337
0.167,0.033,0.292,-5.337
0.152,0.034,0.288,-5.337
0.194,0.034,0.289,-5.337
0.184,0.033,0.291,-5.337
0.152,0.033,0.292,-5.337
0.103,0.033,0.297,-5.337
0.140,0.035,0.296,-5.337
0.178,0.037,0.295,-5.337
0.178,0.034,0.295,-5.337
0.139,0.031,0.295,-5.337
0.134,0.031,0.295,-5.337
0.123,0.035,0.297,-5.337
0.202,0.030,0.297,-5.337
0.245,0.027,0.293,-5.337
0.130,0.030,0.291,-5.337
0.080,0.034,0.290,-5.337
0.114,0.034,0.291,-5.337
0.169,0.035,0.287,-5.337
0.209,0.031,0.292,-5.337
0.268,0.026,0.297,-5.337
0.254,0.027,0.297,-5.337
0.178,0.032,0.292,-5.337
0.130,0.033,0.294,-5.337
0.118,0.032,0.295,-5.337
0.088,0.035,0.296,-5.337
0.125,0.036,0.293,-5.337
0.209,0.031,0.291,-5.337
0.229,0.033,0.291,-5.337
0.214,0.034,0.292,-5.337
0.203,0.033,0.291,-5.337
0.244,0.030,0.292,-5.337
0.247,0.030,0.294,-5.337
0.163,0.032,0.295,-5.337
0.140,0.030,0.293,-5.337
0.197,0.031,0.291,-5.337
0.149,0.035,0.292,-5.337
0.104,0.036,0.294,-5.337
0.148,0.035,0.292,-5.337
0.172,0.037,0.291,-5.337
0.115,0.038,0.288,-5.337
0.115,0.032,0.292,-5.337
0.195,0.032,0.298,-5.337
0.194,0.035,0.296,-5.337
0.162,0.035,0.293,-5.337
0.173,0.035,0.293,-5.337
0.152,0.035,0.294,-5.337
0.138,0.034,0.290,-5.337
0.173,0.034,0.288,-5.337
0.214,0.033,0.290,-5.337
0.159,0.036,0.293,-5.337
0.107,0.039,0.293,-5.337
0.135,0.038,0.292,-5.337
0.156,0.030,0.293,-5.337
0.180,0.030,0.295,-5.337
0.128,0.032,0.292,-5.337
0.063,0.036,0.286,-5.337
0.020,0.033,0.286,-5.337
0.039,0.033,0.292,-5.337
0.117,0.032,0.295,-5.337
0.174,0.032,0.292,-5.337
0.156,0.033,0.293,-5.337
0.128,0.032,0.296,-5.337
0.161,0.029,0.296,-5.337
0.187,0.030,0.294,-5.337
0.164,0.033,0.292,-5.337
0.140,0.033,0.289,-5.337
0.165,0.031,0.285,-5.337
0.166,0.034,0.287,-5.337
0.168,0.031,0.293,-5.337
0.192,0.033,0.296,-5.337
0.125,0.035,0.296,-5.337
0.136,0.033,0.290,-5.337
0.172,0.029,0.286,-5.337
0.186,0.032,0.285,-5.337
0.149,0.034,0.291,-5.337
0.164,0.030,0.295,-5.337
0.132,0.030,0.294,-5.337
0.120,0.028,0.293,-5.337
0.171,0.030,0.291,-5.337
0.231,0.028,0.289,-5.337
0.230,0.027,0.289,-5.337
0.109,0.032,0.291,-5.337
0.097,0.035,0.294,-5.337
0.150,0.034,0.295,-5.337
0.137,0.035,0.293,-5.337
0.133,0.034,0.290,-5.337
0.163,0.036,0.292,-5.337
0.242,0.037,0.295,-5.337
0.199,0.038,0.293,-5.337
0.110,0.035,0.296,-5.337
0.069,0.037,0.299,-5.337
0.112,0.035,0.296,-5.337
0.124,0.037,0.290,-5.337
0.098,0.036,0.288,-5.337
0.090,0.035,0.290,-5.337
0.138,0.034,0.292,-5.337
0.197,0.035,0.291,-5.337
0.233,0.034,0.292,-5.337
0.215,0.035,0.291,-5.337
0.142,0.040,0.295,-5.337
0.097,0.040,0.294,-5.337
0.078,0.044,0.291,-5.337
0.076,0.042,0.290,-5.337
0.179,0.040,0.291,-5.337
0.193,0.043,0.290,-5.337
0.118,0.045,0.292,-5.337
0.111,0.044,0.297,-5.337
0.135,0.042,0.300,-5.337
0.120,0.044,0.295,-5.337
0.137,0.041,0.289,-5.337
0.200,0.041,0.287,-5.337
0.194,0.043,0.289,-5.337
0.173,0.044,0.291,-5.337
0.207,0.042,0.292,-5.337
0.187,0.038,0.294,-5.337
0.169,0.039,0.297,-5.337
0.146,0.041,0.295,-5.337
0.096,0.044,0.290,-5.337
0.113,0.042,0.295,-5.337
0.142,0.039,0.298,-5.337
0.136,0.036,0.296,-5.337
0.146,0.036,0.289,-5.337
0.167,0.038,0.289,-5.337
0.162,0.039,0.290,-5.337
0.119,0.041,0.291,-5.337
0.099,0.038,0.291,-5.337
0.130,0.034,0.294,-5.337
0.161,0.035,0.292,-5.337
0.204,0.037,0.292,-5.337
0.201,0.038,0.291,-5.337
0.213,0.039,0.294,-5.337
0.180,0.038,0.295,-5.337
0.116,0.042,0.295,-5.337
0.135,0.044,0.291,-5.337
0.159,0.042,0.292,-5.337
0.130,0.042,0.292,-5.337
0.100,0.040,0.292,-5.337
0.187,0.039,0.293,-5.337
0.209,0.042,0.292,-5.337
0.099,0.044,0.291,-5.337
0.064,0.043,0.291,-5.337
0.098,0.040,0.291,-5.337
0.139,0.035,0.292,-5.337
0.128,0.034,0.293,-5.337
0.107,0.037,0.292,-5.337
0.098,0.037,0.292,-5.337
0.146,0.039,0.292,-5.337
0.181,0.041,0.293,-5.337
0.127,0.040,0.295,-5.337
0.107,0.041,0.297,-5.337
0.161,0.045,0.295,-5.337
0.159,0.042,0.295,-5.337
0.180,0.041,0.294,-5.337
0.201,0.045,0.290,-5.337
0.160,0.044,0.288,-5.337
0.176,0.046,0.293,-5.337
0.178,0.045,0.294,-5.337
0.214,0.045,0.296,-5.337
0.210,0.043,0.296,-5.337
0.159,0.047,0.293,-5.337
0.145,0.046,0.290,-5.337
0.177,0.042,0.290,-5.337
0.203,0.043,0.292,-5.337
0.219,0.046,0.293,-5.337
0.193,0.045,0.292,-5.337
0.194,0.047,0.292,-5.337
0.180,0.046,0.291,-5.337
0.179,0.042,0.291,-5.337
0.136,0.045,0.293,-5.337
0.107,0.048,0.292,-5.337
0.114,0.049,0.292,-5.337
0.154,0.047,0.292,-5.337
0.207,0.047,0.295,-5.337
0.208,0.046,0.293,-5.337
0.225,0.047,0.290,-5.337
0.234,0.045,0.292,-5.337
0.220,0.046,0.295,-5.337
0.252,0.045,0.297,-5.337
0.216,0.049,0.295,-5.337
0.118,0.054,0.293,-5.337
0.160,0.053,0.293,-5.337
0.185,0.055,0.295,-5.337
0.134,0.055,0.296,-5.337
0.163,0.054,0.295,-5.337
0.168,0.051,0.293,-5.337
0.180,0.048,0.294,-5.337
0.177,0.048,0.293,-5.337
0.165,0.051,0.292,-5.337
0.223,0.052,0.287,-5.337
0.229,0.052,0.284,-5.337
0.205,0.053,0.285,-5.337
0.185,0.052,0.292,-5.337
0.168,0.052,0.293,-5.337
0.128,0.052,0.295,-5.337
0.105,0.051,0.293,-5.337
0.147,0.050,0.292,-5.337
0.191,0.053,0.292,-5.337
0.131,0.056,0.294,-5.337
0.082,0.056,0.294,-5.337
0.111,0.056,0.294,-5.337
0.189,0.053,0.294,-5.337
0.232,0.055,0.295,-5.337
0.198,0.056,0.296,-5.337
0.146,0.057,0.294,-5.337
0.178,0.056,0.294,-5.337
0.171,0.055,0.295,-5.337
0.159,0.053,0.296,-5.337
0.210,0.048,0.294,-5.337
0.266,0.049,0.296,-5.337
0.235,0.052,0.295,-5.337
0.265,0.053,0.294,-5.337
0.308,0.053,0.293,-5.337
0.264,0.051,0.295,-5.337
0.227,0.051,0.292,-5.337
0.130,0.055,0.294,-5.337
0.088,0.054,0.294,-5.337
0.138,0.055,0.292,-5.337
0.156,0.057,0.289,-5.337
0.184,0.059,0.291,-5.337
0.223,0.058,0.292,-5.337
0.244,0.057,0.294,-5.337
0.185,0.058,0.297,-5.337
0.169,0.058,0.297,-5.337
0.173,0.055,0.296,-5.337
0.197,0.052,0.292,-5.337
0.169,0.054,0.287,-5.337
0.206,0.054,0.286,-5.337
0.233,0.053,0.290,-5.337
0.155,0.057,0.294,-5.337
0.107,0.057,0.297,-5.337
0.163,0.057,0.297,-5.337
0.182,0.057,0.293,-5.337
0.207,0.060,0.291,-5.337
0.208,0.061,0.292,-5.337
0.201,0.059,0.293,-5.337
0.240,0.056,0.293,-5.337
0.268,0.055,0.296,-5.337
0.258,0.058,0.294,-5.337
0.258,0.058,0.288,-5.337
0.281,0.054,0.286,-5.337
0.258,0.055,0.291,-5.337
0.185,0.057,0.297,-5.337
0.158,0.056,0.294,-5.337
0.185,0.056,0.288,-5.337
0.187,0.059,0.287,-5.337
0.163,0.058,0.290,-5.337
0.177,0.057,0.290,-5.337
0.162,0.060,0.291,-5.337
0.158,0.058,0.293,-5.337
0.160,0.056,0.294,-5.337
0.171,0.056,0.296,-5.337
0.161,0.059,0.295,-5.337
0.223,0.056,0.292,-5.337
0.218,0.057,0.289,-5.337
0.130,0.062,0.292,-5.337
0.069,0.062,0.296,-5.337
0.063,0.061,0.294,-5.337
0.107,0.061,0.292,-5.337
0.182,0.058,0.294,-5.337
0.266,0.056,0.295,-5.337
0.250,0.058,0.298,-5.337
0.302,0.056,0.297,-5.337
0.317,0.052,0.294,-5.337
0.306,0.052,0.291,-5.337
0.225,0.056,0.292,-5.337
0.181,0.056,0.289,-5.337
0.188,0.058,0.289,-5.337
0.226,0.054,0.290,-5.337
0.278,0.055,0.293,-5.337
0.271,0.056,0.292,-5.337
0.265,0.054,0.297,-5.337
0.204,0.059,0.299,-5.337
0.233,0.060,0.298,-5.337
0.250,0.059,0.296,-5.337
0.203,0.062,0.295,-5.337
0.162,0.061,0.293,-5.337
0.155,0.061,0.297,-5.337
0.192,0.063,0.297,-5.337
0.294,0.060,0.293,-5.337
0.281,0.058,0.287,-5.337
0.214,0.060,0.289,-5.337
0.154,0.061,0.290,-5.337
0.157,0.059,0.292,-5.337
0.244,0.057,0.295,-5.337
0.308,0.057,0.297,-5.337
0.280,0.059,0.296,-5.337
0.231,0.060,0.293,-5.337
0.206,0.061,0.295,-5.337
0.227,0.063,0.294,-5.337
0.225,0.066,0.297,-5.337
0.220,0.067,0.300,-5.337
0.224,0.065,0.304,-5.337
0.255,0.059,0.299,-5.337
0.271,0.058,0.298,-5.337
0.212,0.061,0.295,-5.337
0.198,0.061,0.293,-5.337
0.242,0.061,0.292,-5.337
0.229,0.060,0.293,-5.337
0.231,0.055,0.293,-5.337
0.252,0.054,0.295,-5.337
0.245,0.056,0.292,-5.337
0.182,0.055,0.289,-5.337
0.142,0.053,0.291,-5.337
0.150,0.056,0.294,-5.337
0.200,0.057,0.288,-5.337
0.209,0.063,0.289,-5.337
0.195,0.062,0.291,-5.337
0.175,0.059,0.288,-5.337
0.218,0.056,0.293,-5.337
0.252,0.059,0.296,-5.337
0.229,0.059,0.294,-5.337
0.247,0.056,0.288,-5.337
0.273,0.056,0.289,-5.337
0.267,0.058,0.292,-5.337
0.297,0.056,0.296,-5.337
0.338,0.054,0.297,-5.337
0.266,0.057,0.298,-5.337
0.237,0.058,0.296,-5.337
0.258,0.060,0.296,-5.337
0.297,0.056,0.295,-5.337
0.280,0.059,0.293,-5.337
0.277,0.057,0.289,-5.337
0.246,0.056,0.290,-5.337
0.206,0.053,0.292,-5.337
0.197,0.053,0.293,-5.337
0.226,0.056,0.291,-5.337
0.180,0.062,0.292,-5.337
0.193,0.062,0.289,-5.337
0.265,0.056,0.289,-5.337
0.317,0.056,0.288,-5.337
0.299,0.060,0.291,-5.337
0.264,0.060,0.297,-5.337
0.206,0.062,0.298,-5.337
0.201,0.060,0.296,-5.337
0.261,0.056,0.293,-5.337
0.277,0.054,0.291,-5.337
0.173,0.056,0.288,-5.337
0.112,0.055,0.287,-5.337
0.144,0.051,0.288,-5.337
0.206,0.052,0.289,-5.337
0.257,0.052,0.290,-5.337
0.321,0.050,0.293,-5.337
0.312,0.054,0.293,-5.337
0.243,0.057,0.294,-5.337
0.237,0.051,0.294,-5.337
0.260,0.050,0.294,-5.337
0.254,0.049,0.293,-5.337
0.175,0.053,0.294,-5.337
0.220,0.050,0.296,-5.337
0.275,0.050,0.293,-5.337
0.272,0.051,0.292,-5.337
0.222,0.053,0.293,-5.337
0.210,0.052,0.292,-5.337
0.218,0.052,0.290,-5.337
0.229,0.051,0.292,-5.337
0.250,0.048,0.292,-5.337
0.240,0.046,0.293,-5.337
0.203,0.049,0.295,-5.337
0.210,0.051,0.295,-5.337
0.216,0.050,0.290,-5.337
0.223,0.047,0.287,-5.337
0.196,0.048,0.288,-5.337
0.174,0.053,0.293,-5.337
0.175,0.048,0.292,-5.337
0.205,0.045,0.292,-5.337
0.200,0.045,0.290,-5.337
0.167,0.051,0.293,-5.337
0.158,0.052,0.294,-5.337
0.236,0.049,0.294,-5.337
0.245,0.050,0.292,-5.337
0.195,0.053,0.290,-5.337
0.242,0.047,0.291,-5.337
0.290,0.047,0.294,-5.337
0.304,0.045,0.293,-5.337
0.366,0.043,0.293,-5.337
0.344,0.044,0.295,-5.337
0.250,0.047,0.298,-5.337
0.182,0.050,0.297,-5.337
0.173,0.050,0.296,-5.337
0.191,0.046,0.295,-5.337
0.218,0.044,0.292,-5.337
0.203,0.045,0.290,-5.337
0.186,0.046,0.293,-5.337
0.182,0.046,0.300,-5.337
0.164,0.048,0.301,-5.337
0.124,0.051,0.297,-5.337
0.162,0.049,0.290,-5.337
0.190,0.045,0.287,-5.337
0.233,0.045,0.284,-5.337
0.267,0.046,0.289,-5.337
0.254,0.047,0.294,-5.337
0.226,0.050,0.300,-5.337
0.209,0.048,0.300,-5.337
0.215,0.048,0.294,-5.337
0.273,0.045,0.290,-5.337
0.241,0.048,0.288,-5.337
0.170,0.052,0.290,-5.337
0.229,0.047,0.294,-5.337
0.277,0.044,0.299,-5.337
0.285,0.045,0.300,-5.337
0.204,0.050,0.297,-5.337
0.141,0.049,0.294,-5.337
0.163,0.048,0.290,-5.337
0.200,0.044,0.288,-5.337
0.215,0.043,0.287,-5.337
0.228,0.041,0.293,-5.337
0.222,0.042,0.295,-5.337
0.181,0.045,0.293,-5.337
0.164,0.042,0.294,-5.337
0.192,0.045,0.296,-5.337
0.213,0.043,0.296,-5.337
0.238,0.040,0.290,-5.337
0.229,0.042,0.292,-5.337
0.188,0.046,0.292,-5.337
0.243,0.045,0.292,-5.337
0.304,0.040,0.290,-5.337
0.275,0.044,0.295,-5.337
0.177,0.046,0.294,-5.337
0.194,0.046,0.293,-5.337
0.208,0.042,0.291,-5.337
0.213,0.042,0.290,-5.337
0.220,0.042,0.290,-5.337
0.214,0.043,0.292,-5.337
0.245,0.041,0.290,-5.337
0.260,0.041,0.292,-5.337
0.222,0.042,0.293,-5.337
0.213,0.045,0.295,-5.337
0.200,0.046,0.294,-5.337
0.157,0.043,0.296,-5.337
0.157,0.038,0.297,-5.337
0.158,0.042,0.294,-5.337
0.150,0.043,0.292,-5.337
0.161,0.042,0.294,-5.337
0.161,0.042,0.296,-5.337
0.175,0.038,0.293,-5.337
0.202,0.041,0.295,-5.337
0.186,0.039,0.294,-5.337
0.194,0.039,0.292,-5.337
0.204,0.038,0.287,-5.337
0.179,0.041,0.293,-5.337
0.133,0.041,0.295,-5.337
0.166,0.043,0.291,-5.337
0.213,0.039,0.287,-5.337
0.222,0.037,0.288,-5.337
0.207,0.037,0.288,-5.337
0.208,0.038,0.291,-5.337
0.230,0.037,0.296,-5.337
0.204,0.041,0.297,-5.337
0.152,0.043,0.292,-5.337
0.150,0.044,0.292,-5.337
0.174,0.044,0.292,-5.337
0.137,0.041,0.295,-5.337
0.150,0.037,0.292,-5.337
0.215,0.040,0.289,-5.337
0.197,0.040,0.289,-5.337
0.178,0.042,0.290,-5.337
0.163,0.040,0.293,-5.337
0.200,0.037,0.295,-5.337
0.299,0.038,0.294,-5.337
0.283,0.040,0.295,-5.337
0.182,0.040,0.295,-5.337
0.167,0.041,0.291,-5.337
0.201,0.041,0.288,-5.337
0.155,0.042,0.285,-5.337
0.078,0.045,0.287,-5.337
0.076,0.044,0.289,-5.337
0.151,0.043,0.287,-5.337
0.221,0.042,0.289,-5.337
0.176,0.040,0.297,-5.337
0.151,0.035,0.299,-5.337
0.157,0.036,0.297,-5.337
0.133,0.036,0.295,-5.337
0.157,0.037,0.292,-5.337
0.166,0.039,0.294,-5.337
0.208,0.036,0.297,-5.337
0.238,0.034,0.295,-5.337
0.258,0.035,0.295,-5.337
0.214,0.038,0.296,-5.337
0.153,0.039,0.293,-5.337
0.149,0.037,0.292,-5.337
0.203,0.038,0.292,-5.337
0.222,0.039,0.293,-5.337
0.154,0.038,0.293,-5.337
0.150,0.038,0.297,-5.337
0.142,0.036,0.295,-5.337
0.156,0.037,0.290,-5.337
0.195,0.039,0.291,-5.337
0.175,0.041,0.295,-5.337
0.119,0.041,0.296,-5.337
0.163,0.041,0.294,-5.337
0.131,0.039,0.292,-5.337
0.114,0.037,0.292,-5.337
0.144,0.036,0.292,-5.337
0.155,0.036,0.292,-5.337
0.166,0.035,0.295,-5.337
0.150,0.036,0.298,-5.337
0.210,0.034,0.293,-5.337
0.263,0.034,0.293,-5.337
0.236,0.035,0.292,-5.337
0.172,0.037,0.293,-5.337
0.127,0.039,0.292,-5.337
0.166,0.034,0.292,-5.337
0.203,0.030,0.292,-5.337
0.169,0.034,0.292,-5.337
0.180,0.033,0.292,-5.337
0.198,0.032,0.290,-5.337
0.146,0.034,0.290,-5.337
0.162,0.031,0.290,-5.337
0.228,0.031,0.291,-5.337
0.214,0.031,0.294,-5.337
0.207,0.033,0.297,-5.337
0.128,0.036,0.292,-5.337
0.083,0.036,0.289,-5.337
0.149,0.035,0.286,-5.337
0.161,0.034,0.286,-5.337
0.126,0.034,0.291,-5.337
0.110,0.032,0.294,-5.337
0.140,0.030,0.294,-5.337
0.224,0.030,0.294,-5.337
0.266,0.030,0.291,-5.337
0.199,0.029,0.290,-5.337
0.158,0.026,0.293,-5.337
0.166,0.025,0.294,-5.337
0.185,0.027,0.290,-5.337
0.162,0.030,0.290,-5.337
0.174,0.027,0.293,-5.337
0.208,0.026,0.294,-5.337
0.239,0.026,0.294,-5.337
0.202,0.029,0.294,-5.337
0.156,0.030,0.296,-5.337
0.139,0.027,0.293,-5.337
0.140,0.033,0.291,-5.337
0.188,0.033,0.292,-5.337
0.195,0.032,0.296,-5.337
0.136,0.033,0.297,-5.337
0.093,0.032,0.299,-5.337
0.146,0.032,0.296,-5.337
0.177,0.033,0.291,-5.337
0.185,0.033,0.288,-5.337
0.206,0.034,0.293,-5.337
0.226,0.034,0.292,-5.337
0.181,0.035,0.290,-5.337
0.120,0.036,0.291,-5.337
0.089,0.039,0.293,-5.337
0.079,0.041,0.296,-5.337
0.087,0.044,0.297,-5.337
0.173,0.041,0.292,-5.337
0.217,0.039,0.289,-5.337
0.188,0.037,0.289,-5.337
0.164,0.039,0.290,-5.337
0.132,0.038,0.292,-5.337
0.190,0.035,0.293,-5.337
0.256,0.035,0.292,-5.337
0.251,0.035,0.290,-5.337
0.231,0.036,0.292,-5.337
0.211,0.035,0.298,-5.337
0.189,0.035,0.301,-5.337
0.170,0.037,0.295,-5.337
0.152,0.041,0.291,-5.337
0.109,0.043,0.292,-5.337
0.123,0.044,0.296,-5.337
0.138,0.042,0.297,-5.337
0.190,0.037,0.298,-5.337
0.192,0.036,0.296,-5.337
0.130,0.038,0.293,-5.337
0.128,0.036,0.290,-5.337
0.153,0.034,0.290,-5.337
0.124,0.032,0.291,-5.337
0.113,0.030,0.293,-5.337
0.158,0.032,0.292,-5.337
0.172,0.037,0.290,-5.337
0.157,0.034,0.289,-5.337
0.205,0.031,0.288,-5.337
0.221,0.033,0.288,-5.337
0.129,0.037,0.293,-5.337
0.066,0.039,0.297,-5.337
0.115,0.039,0.298,-5.337
0.138,0.040,0.297,-5.337
0.171,0.039,0.295,-5.337
0.178,0.036,0.293,-5.337
0.178,0.038,0.293,-5.337
0.135,0.038,0.291,-5.337
0.091,0.039,0.286,-5.337
0.113,0.039,0.285,-5.337
0.139,0.039,0.286,-5.337
0.173,0.035,0.292,-5.337
0.201,0.036,0.300,-5.337
0.188,0.039,0.298,-5.337
0.176,0.035,0.295,-5.337
0.137,0.038,0.293,-5.337
0.098,0.041,0.290,-5.337
0.123,0.040,0.289,-5.337
0.128,0.036,0.290,-5.337
0.142,0.038,0.291,-5.337
0.152,0.037,0.290,-5.337
0.160,0.038,0.291,-5.337
0.146,0.040,0.293,-5.337
0.202,0.037,0.293,-5.337
0.173,0.039,0.289,-5.337
0.117,0.039,0.290,-5.337
0.130,0.042,0.292,-5.337
0.144,0.043,0.293,-5.337
0.141,0.042,0.292,-5.337
0.142,0.040,0.292,-5.337
0.154,0.039,0.296,-5.337
0.137,0.042,0.294,-5.337
0.135,0.042,0.292,-5.337
0.183,0.039,0.287,-5.337
0.231,0.040,0.286,-5.337
0.233,0.042,0.287,-5.337
0.182,0.045,0.291,-5.337
0.166,0.042,0.293,-5.337
0.201,0.042,0.295,-5.337
0.149,0.045,0.292,-5.337
0.158,0.048,0.292,-5.337
0.180,0.043,0.294,-5.337
0.169,0.042,0.294,-5.337
0.137,0.042,0.293,-5.337
0.164,0.041,0.292,-5.337
0.217,0.041,0.292,-5.337
0.233,0.042,0.293,-5.337
0.187,0.044,0.293,-5.337
0.167,0.046,0.292,-5.337
0.126,0.050,0.288,-5.337
0.131,0.048,0.286,-5.337
0.175,0.044,0.290,-5.337
0.192,0.045,0.293,-5.337
0.107,0.048,0.295,-5.337
0.105,0.048,0.293,-5.337
0.105,0.047,0.294,-5.337
0.107,0.044,0.294,-5.337
0.196,0.045,0.295,-5.337
0.232,0.047,0.295,-5.337
0.162,0.050,0.299,-5.337
0.145,0.048,0.295,-5.337
0.185,0.044,0.290,-5.337
0.203,0.045,0.291,-5.337
0.181,0.048,0.293,-5.337
0.167,0.045,0.291,-5.337
0.162,0.044,0.290,-5.337
0.182,0.045,0.292,-5.337
0.181,0.043,0.291,-5.337
0.187,0.044,0.291,-5.337
0.160,0.044,0.292,-5.337
0.154,0.043,0.293,-5.337
0.199,0.050,0.294,-5.337
0.210,0.050,0.294,-5.337
0.210,0.048,0.293,-5.337
0.139,0.048,0.291,-5.337
0.095,0.049,0.294,-5.337
0.202,0.048,0.295,-5.337
0.206,0.051,0.294,-5.337
0.118,0.049,0.291,-5.337
0.093,0.052,0.292,-5.337
0.168,0.049,0.295,-5.337
0.232,0.047,0.296,-5.337
0.260,0.045,0.294,-5.337
0.263,0.044,0.290,-5.337
0.204,0.045,0.292,-5.337
0.139,0.046,0.292,-5.337
0.191,0.049,0.292,-5.337
0.192,0.050,0.294,-5.337
0.181,0.048,0.297,-5.337
0.174,0.042,0.294,-5.337
0.151,0.041,0.290,-5.337
0.119,0.043,0.288,-5.337
0.107,0.049,0.288,-5.337
0.089,0.049,0.288,-5.337
0.116,0.049,0.290,-5.337
0.158,0.048,0.292,-5.337
0.157,0.049,0.295,-5.337
0.142,0.049,0.295,-5.337
0.198,0.047,0.294,-5.337
0.245,0.046,0.293,-5.337
0.241,0.044,0.291,-5.337
0.175,0.043,0.294,-5.337
0.137,0.047,0.296,-5.337
0.194,0.044,0.296,-5.337
0.207,0.045,0.291,-5.337
0.138,0.047,0.288,-5.337
0.103,0.048,0.288,-5.337
0.140,0.048,0.289,-5.337
0.188,0.050,0.290,-5.337
0.216,0.053,0.292,-5.337
0.243,0.053,0.291,-5.337
0.265,0.053,0.291,-5.337
0.239,0.054,0.292,-5.337
0.216,0.050,0.292,-5.337
0.267,0.050,0.289,-5.337
0.284,0.050,0.289,-5.337
0.268,0.051,0.290,-5.337
0.179,0.057,0.286,-5.337
0.161,0.057,0.284,-5.337
0.188,0.054,0.287,-5.337
0.230,0.049,0.294,-5.337
0.195,0.052,0.296,-5.337
0.184,0.054,0.294,-5.337
0.191,0.053,0.290,-5.337
0.228,0.052,0.290,-5.337
0.208,0.054,0.293,-5.337
0.176,0.052,0.296,-5.337
0.197,0.049,0.296,-5.337
0.217,0.051,0.292,-5.337
0.213,0.052,0.290,-5.337
0.170,0.056,0.290,-5.337
0.184,0.054,0.290,-5.337
0.202,0.056,0.290,-5.337
0.185,0.057,0.292,-5.337
0.189,0.059,0.290,-5.337
0.171,0.054,0.290,-5.337
0.159,0.051,0.290,-5.337
0.195,0.051,0.289,-5.337
0.176,0.051,0.289,-5.337
0.153,0.052,0.291,-5.337
0.166,0.054,0.290,-5.337
0.194,0.053,0.290,-5.337
0.258,0.054,0.297,-5.337
0.210,0.056,0.299,-5.337
0.124,0.062,0.293,-5.337
0.153,0.058,0.291,-5.337
0.226,0.054,0.291,-5.337
0.247,0.053,0.292,-5.337
0.231,0.056,0.290,-5.337
0.254,0.053,0.292,-5.337
0.230,0.052,0.292,-5.337
0.227,0.054,0.292,-5.337
0.255,0.055,0.291,-5.337
0.199,0.056,0.292,-5.337
0.181,0.054,0.292,-5.337
0.217,0.053,0.296,-5.337
0.198,0.053,0.297,-5.337
0.195,0.055,0.294,-5.337
0.217,0.058,0.288,-5.337
0.208,0.061,0.287,-5.337
0.211,0.061,0.290,-5.337
0.215,0.058,0.292,-5.337
0.205,0.058,0.294,-5.337
0.195,0.060,0.296,-5.337
0.196,0.059,0.296,-5.337
0.146,0.053,0.297,-5.337
0.166,0.050,0.295,-5.337
0.234,0.049,0.291,-5.337
0.214,0.052,0.289,-5.337
0.135,0.054,0.288,-5.337
0.119,0.053,0.291,-5.337
0.198,0.052,0.292,-5.337
0.302,0.050,0.293,-5.337
0.297,0.052,0.295,-5.337
0.172,0.058,0.298,-5.337
0.109,0.055,0.293,-5.337
0.183,0.054,0.291,-5.337
0.267,0.053,0.294,-5.337
0.275,0.051,0.295,-5.337
0.267,0.049,0.293,-5.337
0.221,0.051,0.291,-5.337
0.204,0.052,0.290,-5.337
0.216,0.055,0.290,-5.337
0.197,0.055,0.291,-5.337
0.259,0.055,0.292,-5.337
0.268,0.056,0.293,-5.337
0.231,0.059,0.292,-5.337
0.181,0.061,0.293,-5.337
0.172,0.063,0.296,-5.337
0.218,0.057,0.296,-5.337
0.234,0.056,0.297,-5.337
0.261,0.055,0.296,-5.337
0.242,0.055,0.294,-5.337
0.253,0.053,0.294,-5.337
0.260,0.053,0.296,-5.337
0.196,0.056,0.295,-5.337
0.178,0.055,0.294,-5.337
0.228,0.054,0.294,-5.337
0.195,0.055,0.291,-5.337
0.162,0.056,0.289,-5.337
0.175,0.051,0.287,-5.337
0.211,0.048,0.292,-5.337
0.238,0.050,0.294,-5.337
0.239,0.051,0.292,-5.337
0.218,0.055,0.291,-5.337
0.255,0.056,0.296,-5.337
0.253,0.053,0.296,-5.337
0.270,0.051,0.295,-5.337
0.249,0.053,0.293,-5.337
0.226,0.056,0.293,-5.337
0.255,0.056,0.294,-5.337
0.250,0.052,0.291,-5.337
0.275,0.048,0.289,-5.337
0.252,0.056,0.293,-5.337
0.201,0.056,0.300,-5.337
0.171,0.054,0.298,-5.337
0.167,0.051,0.292,-5.337
0.174,0.051,0.290,-5.337
0.175,0.049,0.292,-5.337
0.219,0.052,0.290,-5.337
0.218,0.057,0.289,-5.337
0.225,0.055,0.292,-5.337
0.233,0.053,0.293,-5.337
0.239,0.054,0.293,-5.337
0.213,0.055,0.295,-5.337
0.180,0.057,0.296,-5.337
0.149,0.059,0.293,-5.337
0.138,0.062,0.289,-5.337
0.178,0.059,0.288,-5.337
0.213,0.056,0.290,-5.337
0.182,0.060,0.294,-5.337
0.194,0.059,0.297,-5.337
0.265,0.056,0.296,-5.337
0.250,0.054,0.294,-5.337
0.207,0.055,0.292,-5.337
0.152,0.059,0.292,-5.337
0.156,0.058,0.293,-5.337
0.225,0.052,0.294,-5.337
0.248,0.051,0.294,-5.337
0.247,0.055,0.293,-5.337
0.245,0.058,0.293,-5.337
0.232,0.058,0.293,-5.337
0.274,0.051,0.293,-5.337
0.319,0.047,0.292,-5.337
0.277,0.049,0.289,-5.337
0.213,0.054,0.289,-5.337
0.220,0.056,0.288,-5.337
0.260,0.050,0.289,-5.337
0.226,0.050,0.291,-5.337
0.154,0.053,0.297,-5.337
0.196,0.052,0.296,-5.337
0.258,0.050,0.291,-5.337
0.269,0.049,0.291,-5.337
0.265,0.050,0.295,-5.337
0.264,0.050,0.295,-5.337
0.284,0.054,0.298,-5.337
0.317,0.048,0.297,-5.337
0.296,0.045,0.293,-5.337
0.235,0.048,0.291,-5.337
0.244,0.050,0.291,-5.337
0.294,0.047,0.291,-5.337
0.216,0.049,0.292,-5.337
0.157,0.050,0.290,-5.337
0.214,0.046,0.289,-5.337
0.230,0.049,0.288,-5.337
0.220,0.053,0.290,-5.337
0.243,0.050,0.293,-5.337
0.231,0.051,0.295,-5.337
0.276,0.047,0.294,-5.337
0.262,0.049,0.291,-5.337
0.174,0.050,0.292,-5.337
0.156,0.049,0.291,-5.337
0.197,0.045,0.291,-5.337
0.269,0.044,0.292,-5.337
0.318,0.044,0.294,-5.337
0.360,0.043,0.292,-5.337
0.317,0.043,0.293,-5.337
0.271,0.044,0.297,-5.337
0.179,0.048,0.300,-5.337
0.150,0.047,0.294,-5.337
0.213,0.045,0.286,-5.337
0.219,0.046,0.286,-5.337
0.151,0.045,0.289,-5.337
0.152,0.043,0.290,-5.337
0.185,0.045,0.290,-5.337
0.214,0.043,0.290,-5.337
0.246,0.041,0.294,-5.337
0.265,0.040,0.296,-5.337
0.261,0.043,0.292,-5.337
0.251,0.045,0.288,-5.337
0.202,0.046,0.288,-5.337
0.212,0.045,0.290,-5.337
0.246,0.048,0.292,-5.337
0.185,0.048,0.292,-5.337
0.186,0.045,0.292,-5.337
0.271,0.045,0.295,-5.337
0.219,0.049,0.294,-5.337
0.160,0.053,0.293,-5.337
0.193,0.049,0.290,-5.337
0.268,0.041,0.292,-5.337
0.292,0.042,0.293,-5.337
0.242,0.042,0.292,-5.337
0.191,0.043,0.290,-5.337
0.125,0.045,0.290,-5.337
0.126,0.045,0.289,-5.337
0.171,0.048,0.290,-5.337
0.205,0.047,0.292,-5.337
0.182,0.047,0.294,-5.337
0.172,0.045,0.296,-5.337
0.226,0.043,0.296,-5.337
0.248,0.040,0.291,-5.337
0.281,0.040,0.287,-5.337
0.221,0.040,0.288,-5.337
0.206,0.038,0.290,-5.337
0.265,0.039,0.292,-5.337
0.270,0.039,0.292,-5.337
0.260,0.039,0.292,-5.337
0.199,0.038,0.290,-5.337
0.189,0.035,0.291,-5.337
0.224,0.036,0.291,-5.337
0.211,0.039,0.294,-5.337
0.151,0.038,0.293,-5.337
0.171,0.038,0.292,-5.337
0.196,0.041,0.294,-5.337
0.223,0.042,0.295,-5.337
0.207,0.040,0.292,-5.337
0.150,0.038,0.291,-5.337
0.164,0.039,0.292,-5.337
0.157,0.039,0.292,-5.337
0.217,0.039,0.294,-5.337
0.276,0.039,0.295,-5.337
0.268,0.038,0.295,-5.337
0.251,0.034,0.296,-5.337
0.164,0.038,0.294,-5.337
0.152,0.037,0.292,-5.337
0.199,0.034,0.293,-5.337
0.182,0.037,0.287,-5.337
0.195,0.036,0.286,-5.337
0.257,0.033,0.288,-5.337
0.289,0.035,0.292,-5.337
0.254,0.035,0.294,-5.337
0.241,0.033,0.294,-5.337
0.210,0.036,0.293,-5.337
0.148,0.037,0.293,-5.337
0.158,0.037,0.294,-5.337
0.152,0.043,0.294,-5.337
0.150,0.042,0.296,-5.337
0.187,0.041,0.300,-5.337
0.170,0.042,0.296,-5.337
0.151,0.044,0.295,-5.337
0.142,0.046,0.291,-5.337
0.111,0.048,0.287,-5.337
0.100,0.046,0.288,-5.337
0.170,0.036,0.294,-5.337
0.249,0.033,0.297,-5.337
0.202,0.038,0.293,-5.337
0.144,0.039,0.290,-5.337
0.132,0.042,0.293,-5.337
0.160,0.039,0.294,-5.337
0.205,0.036,0.292,-5.337
0.196,0.035,0.291,-5.337
0.173,0.036,0.294,-5.337
0.157,0.036,0.297,-5.337
0.197,0.037,0.296,-5.337
0.195,0.037,0.291,-5.337
0.175,0.031,0.290,-5.337
0.183,0.029,0.292,-5.337
0.236,0.032,0.292,-5.337
0.247,0.033,0.292,-5.337
0.200,0.030,0.290,-5.337
0.192,0.030,0.289,-5.337
0.210,0.030,0.293,-5.337
0.174,0.030,0.298,-5.337
0.148,0.029,0.296,-5.337
0.183,0.029,0.294,-5.337
0.157,0.031,0.292,-5.337
0.117,0.035,0.290,-5.337
0.141,0.032,0.286,-5.337
0.219,0.028,0.288,-5.337
0.221,0.028,0.291,-5.337
0.160,0.030,0.295,-5.337
0.163,0.029,0.297,-5.337
0.167,0.030,0.291,-5.337
0.220,0.029,0.286,-5.337
0.248,0.031,0.290,-5.337
0.247,0.033,0.292,-5.337
0.209,0.034,0.295,-5.337
0.130,0.034,0.294,-5.337
0.119,0.033,0.291,-5.337
0.177,0.036,0.290,-5.337
0.148,0.039,0.294,-5.337
0.150,0.042,0.298,-5.337
0.185,0.042,0.296,-5.337
0.209,0.038,0.294,-5.337
0.192,0.035,0.290,-5.337
0.155,0.038,0.288,-5.337
0.162,0.036,0.288,-5.337
0.205,0.036,0.292,-5.337
0.211,0.036,0.290,-5.337
0.165,0.031,0.288,-5.337
0.163,0.034,0.289,-5.337
0.173,0.036,0.290,-5.337
0.167,0.034,0.289,-5.337
0.136,0.037,0.292,-5.337
0.136,0.037,0.295,-5.337
0.167,0.039,0.297,-5.337
0.155,0.038,0.296,-5.337
0.136,0.039,0.292,-5.337
0.152,0.036,0.291,-5.337
0.143,0.040,0.291,-5.337
0.142,0.039,0.289,-5.337
0.171,0.035,0.287,-5.337
0.218,0.033,0.291,-5.337
0.203,0.031,0.296,-5.337
0.186,0.031,0.295,-5.337
0.186,0.029,0.290,-5.337
0.221,0.030,0.289,-5.337
0.217,0.030,0.290,-5.337
0.205,0.035,0.291,-5.337
0.157,0.034,0.292,-5.337
0.176,0.032,0.294,-5.337
0.185,0.034,0.291,-5.337
0.126,0.039,0.291,-5.337
0.096,0.042,0.292,-5.337
0.110,0.042,0.296,-5.337
0.114,0.037,0.295,-5.337
0.121,0.033,0.295,-5.337
0.117,0.036,0.292,-5.337
0.167,0.034,0.292,-5.337
0.187,0.032,0.296,-5.337
0.172,0.032,0.299,-5.337
0.187,0.035,0.296,-5.337
0.177,0.035,0.292,-5.337
0.144,0.033,0.288,-5.337
0.151,0.033,0.287,-5.337
0.200,0.034,0.291,-5.337
0.183,0.036,0.292,-5.337
0.163,0.037,0.292,-5.337
0.176,0.037,0.290,-5.337
0.161,0.038,0.290,-5.337
0.154,0.038,0.293,-5.337
0.183,0.040,0.297,-5.337
0.158,0.038,0.296,-5.337
0.208,0.032,0.294,-5.337
0.209,0.032,0.291,-5.337
0.167,0.032,0.293,-5.337
0.197,0.029,0.293,-5.337
0.221,0.031,0.295,-5.337
0.184,0.034,0.295,-5.337
0.141,0.036,0.297,-5.337
0.154,0.030,0.295,-5.337
0.187,0.030,0.291,-5.337
0.161,0.031,0.290,-5.337
0.157,0.032,0.292,-5.337
0.204,0.030,0.291,-5.337
0.167,0.029,0.292,-5.337
0.184,0.027,0.295,-5.337
0.216,0.028,0.295,-5.337
0.209,0.030,0.292,-5.337
0.178,0.031,0.289,-5.337
0.142,0.033,0.289,-5.337
0.124,0.034,0.294,-5.337
0.129,0.035,0.300,-5.337
0.127,0.037,0.297,-5.337
0.120,0.035,0.289,-5.337
0.133,0.034,0.288,-5.337
0.136,0.033,0.292,-5.337
0.138,0.033,0.293,-5.337
0.165,0.034,0.297,-5.337
0.114,0.037,0.296,-5.337
0.142,0.036,0.296,-5.337
0.141,0.038,0.292,-5.337
0.184,0.035,0.294,-5.337
0.221,0.031,0.292,-5.337
0.229,0.030,0.293,-5.337
0.193,0.028,0.294,-5.337
0.188,0.028,0.295,-5.337
0.186,0.028,0.294,-5.337
0.132,0.031,0.293,-5.337
0.087,0.032,0.294,-5.337
0.095,0.031,0.296,-5.337
0.060,0.031,0.292,-5.337
0.074,0.029,0.287,-5.337
0.076,0.030,0.288,-5.337
0.115,0.032,0.291,-5.337
0.180,0.031,0.292,-5.337
0.177,0.032,0.293,-5.337
0.123,0.032,0.295,-5.337
0.106,0.031,0.297,-5.337
0.114,0.029,0.295,-5.337
0.156,0.028,0.292,-5.337
0.203,0.028,0.292,-5.337
0.185,0.031,0.291,-5.337
0.117,0.032,0.292,-5.337
0.091,0.034,0.293,-5.337
0.127,0.032,0.297,-5.337
0.179,0.030,0.297,-5.337
0.157,0.031,0.298,-5.337
0.174,0.029,0.294,-5.337
0.199,0.028,0.288,-5.337
0.173,0.031,0.288,-5.337
0.167,0.036,0.291,-5.337
0.113,0.035,0.295,-5.337
0.084,0.031,0.297,-5.337
0.157,0.032,0.296,-5.337
0.170,0.033,0.297,-5.337
0.135,0.031,0.297,-5.337
0.082,0.032,0.294,-5.337
0.079,0.031,0.291,-5.337
0.091,0.032,0.290,-5.337
0.114,0.032,0.289,-5.337
0.095,0.035,0.291,-5.337
0.113,0.033,0.295,-5.337
0.156,0.030,0.293,-5.337
0.158,0.034,0.292,-5.337
0.145,0.039,0.295,-5.337
0.141,0.040,0.298,-5.337
0.164,0.038,0.298,-5.337
0.175,0.039,0.296,-5.337
0.171,0.038,0.295,-5.337
0.119,0.042,0.296,-5.337
0.107,0.044,0.293,-5.337
0.156,0.043,0.293,-5.337
0.183,0.043,0.292,-5.337
0.192,0.042,0.292,-5.337
0.167,0.040,0.287,-5.337
0.199,0.036,0.285,-5.337
0.223,0.033,0.285,-5.337
0.201,0.032,0.292,-5.337
0.096,0.036,0.299,-5.337
0.018,0.037,0.300,-5.337
0.085,0.035,0.296,-5.337
0.133,0.037,0.292,-5.337
0.091,0.037,0.287,-5.337
0.073,0.036,0.287,-5.337
0.143,0.034,0.289,-5.337
0.164,0.032,0.289,-5.337
0.155,0.034,0.291,-5.337
0.109,0.037,0.294,-5.337
0.102,0.035,0.294,-5.337
0.181,0.035,0.292,-5.337
0.240,0.032,0.288,-5.337
0.237,0.034,0.289,-5.337
0.212,0.038,0.294,-5.337
0.203,0.036,0.296,-5.337
0.158,0.038,0.297,-5.337
0.155,0.037,0.294,-5.337
0.169,0.035,0.292,-5.337
0.133,0.038,0.289,-5.337
0.099,0.040,0.289,-5.337
0.147,0.033,0.292,-5.337
0.206,0.036,0.293,-5.337
0.188,0.040,0.294,-5.337
0.131,0.044,0.293,-5.337
0.140,0.041,0.291,-5.337
0.133,0.042,0.289,-5.337
0.117,0.041,0.291,-5.337
0.135,0.039,0.296,-5.337
0.149,0.046,0.296,-5.337
0.170,0.046,0.293,-5.337
0.186,0.042,0.291,-5.337
0.147,0.045,0.288,-5.337
0.075,0.051,0.285,-5.337
0.058,0.048,0.287,-5.337
0.052,0.046,0.295,-5.337
0.053,0.049,0.296,-5.337
0.064,0.048,0.299,-5.337
0.064,0.047,0.298,-5.337
0.117,0.047,0.298,-5.337
0.162,0.051,0.293,-5.337
0.139,0.049,0.291,-5.337
0.106,0.047,0.288,-5.337
0.179,0.044,0.288,-5.337
0.181,0.044,0.287,-5.337
0.185,0.049,0.292,-5.337
0.210,0.046,0.292,-5.337
0.216,0.043,0.293,-5.337
0.185,0.041,0.295,-5.337
0.190,0.041,0.295,-5.337
0.199,0.043,0.292,-5.337
0.128,0.046,0.287,-5.337
0.082,0.050,0.286,-5.337
0.090,0.049,0.291,-5.337
0.119,0.047,0.294,-5.337
0.161,0.046,0.291,-5.337
0.209,0.048,0.288,-5.337
0.198,0.047,0.287,-5.337
0.179,0.046,0.292,-5.337
0.179,0.048,0.298,-5.337
0.136,0.051,0.299,-5.337
0.146,0.049,0.296,-5.337
0.207,0.047,0.293,-5.337
0.157,0.046,0.291,-5.337
0.105,0.045,0.292,-5.337
0.121,0.046,0.289,-5.337
0.169,0.048,0.290,-5.337
0.200,0.050,0.294,-5.337
0.193,0.053,0.297,-5.337
0.179,0.053,0.296,-5.337
0.162,0.054,0.292,-5.337
0.132,0.056,0.289,-5.337
0.126,0.054,0.289,-5.337
0.175,0.050,0.289,-5.337
0.187,0.053,0.289,-5.337
0.152,0.052,0.289,-5.337
0.181,0.052,0.292,-5.337
0.217,0.053,0.294,-5.337
0.144,0.054,0.296,-5.337
0.154,0.050,0.296,-5.337
0.169,0.050,0.295,-5.337
0.122,0.050,0.292,-5.337
0.149,0.048,0.290,-5.337
0.173,0.045,0.291,-5.337
0.207,0.044,0.290,-5.337
0.251,0.046,0.293,-5.337
0.245,0.049,0.289,-5.337
0.187,0.047,0.286,-5.337
0.149,0.046,0.288,-5.337
0.137,0.051,0.295,-5.337
0.158,0.054,0.296,-5.337
0.152,0.052,0.295,-5.337
0.195,0.050,0.291,-5.337
0.162,0.054,0.288,-5.337
0.153,0.050,0.293,-5.337
0.210,0.049,0.297,-5.337
0.205,0.048,0.300,-5.337
0.184,0.048,0.298,-5.337
0.204,0.048,0.296,-5.337
0.186,0.052,0.295,-5.337
0.180,0.051,0.292,-5.337
0.168,0.052,0.294,-5.337
0.199,0.053,0.294,-5.337
0.245,0.051,0.294,-5.337
0.217,0.052,0.295,-5.337
0.167,0.057,0.296,-5.337
0.238,0.056,0.290,-5.337
0.279,0.055,0.284,-5.337
0.204,0.057,0.284,-5.337
0.191,0.058,0.289,-5.337
0.235,0.056,0.293,-5.337
0.269,0.057,0.290,-5.337
0.182,0.058,0.291,-5.337
0.157,0.058,0.291,-5.337
0.176,0.057,0.295,-5.337
0.153,0.058,0.293,-5.337
0.159,0.057,0.290,-5.337
0.161,0.056,0.288,-5.337
0.173,0.056,0.288,-5.337
0.200,0.061,0.290,-5.337
0.207,0.062,0.296,-5.337
0.238,0.054,0.298,-5.337
0.229,0.053,0.299,-5.337
0.211,0.053,0.298,-5.337
0.199,0.055,0.295,-5.337
0.230,0.052,0.291,-5.337
0.218,0.056,0.291,-5.337
0.218,0.060,0.291,-5.337
0.213,0.060,0.292,-5.337
0.200,0.060,0.293,-5.337
0.182,0.061,0.295,-5.337
0.140,0.065,0.296,-5.337
0.152,0.062,0.296,-5.337
0.172,0.057,0.296,-5.337
0.159,0.056,0.294,-5.337
0.184,0.057,0.290,-5.337
0.216,0.054,0.282,-5.337
0.253,0.055,0.285,-5.337
0.238,0.059,0.289,-5.337
0.257,0.060,0.293,-5.337
0.233,0.061,0.295,-5.337
0.230,0.060,0.296,-5.337
0.209,0.060,0.295,-5.337
0.168,0.063,0.294,-5.337
0.133,0.062,0.294,-5.337
0.137,0.062,0.292,-5.337
0.152,0.063,0.290,-5.337
0.172,0.063,0.291,-5.337
0.180,0.065,0.295,-5.337
0.219,0.063,0.297,-5.337
0.260,0.061,0.296,-5.337
0.219,0.061,0.292,-5.337
0.192,0.064,0.290,-5.337
0.225,0.061,0.294,-5.337
0.236,0.061,0.295,-5.337
0.224,0.059,0.296,-5.337
0.214,0.062,0.297,-5.337
0.219,0.060,0.294,-5.337
0.217,0.057,0.292,-5.337
0.165,0.060,0.293,-5.337
0.135,0.064,0.297,-5.337
0.143,0.063,0.293,-5.337
0.147,0.066,0.291,-5.337
0.203,0.062,0.293,-5.337
0.246,0.059,0.296,-5.337
0.213,0.058,0.298,-5.337
0.187,0.060,0.298,-5.337
0.213,0.058,0.294,-5.337
0.263,0.057,0.290,-5.337
0.285,0.056,0.292,-5.337
0.230,0.061,0.295,-5.337
0.158,0.063,0.296,-5.337
0.176,0.061,0.293,-5.337
0.173,0.059,0.291,-5.337
0.239,0.055,0.292,-5.337
0.317,0.054,0.294,-5.337
0.281,0.061,0.296,-5.337
0.187,0.063,0.296,-5.337
0.183,0.062,0.293,-5.337
0.221,0.060,0.292,-5.337
0.278,0.058,0.292,-5.337
0.276,0.055,0.292,-5.337
0.208,0.056,0.291,-5.337
0.185,0.054,0.292,-5.337
0.203,0.054,0.290,-5.337
0.196,0.055,0.291,-5.337
0.202,0.056,0.293,-5.337
0.189,0.061,0.294,-5.337
0.169,0.060,0.294,-5.337
0.146,0.059,0.294,-5.337
0.133,0.061,0.297,-5.337
0.143,0.059,0.296,-5.337
0.162,0.056,0.294,-5.337
0.196,0.055,0.292,-5.337
0.265,0.052,0.290,-5.337
0.352,0.051,0.292,-5.337
0.295,0.055,0.296,-5.337
0.203,0.055,0.301,-5.337
0.154,0.057,0.301,-5.337
0.220,0.057,0.296,-5.337
0.248,0.059,0.291,-5.337
0.231,0.057,0.289,-5.337
0.267,0.054,0.294,-5.337
0.257,0.060,0.297,-5.337
0.219,0.061,0.300,-5.337
0.295,0.057,0.297,-5.337
0.314,0.057,0.295,-5.337
0.222,0.058,0.293,-5.337
0.153,0.056,0.297,-5.337
0.193,0.053,0.296,-5.337
0.248,0.056,0.297,-5.337
0.202,0.060,0.296,-5.337
0.169,0.058,0.297,-5.337
0.175,0.053,0.293,-5.337
0.150,0.052,0.290,-5.337
0.173,0.050,0.290,-5.337
0.210,0.052,0.292,-5.337
0.233,0.052,0.293,-5.337
0.252,0.052,0.295,-5.337
0.196,0.052,0.295,-5.337
0.137,0.053,0.295,-5.337
0.174,0.051,0.298,-5.337
0.190,0.052,0.298,-5.337
0.236,0.053,0.292,-5.337
0.271,0.054,0.290,-5.337
0.285,0.051,0.293,-5.337
0.286,0.049,0.296,-5.337
0.277,0.049,0.295,-5.337
0.244,0.047,0.293,-5.337
0.237,0.048,0.295,-5.337
0.255,0.050,0.295,-5.337
0.154,0.052,0.294,-5.337
0.207,0.049,0.293,-5.337
0.264,0.049,0.293,-5.337
0.272,0.050,0.291,-5.337
0.243,0.051,0.292,-5.337
0.206,0.046,0.291,-5.337
0.270,0.044,0.291,-5.337
0.285,0.046,0.291,-5.337
0.226,0.049,0.293,-5.337
0.215,0.044,0.296,-5.337
0.223,0.045,0.299,-5.337
0.203,0.048,0.299,-5.337
0.193,0.048,0.295,-5.337
0.168,0.047,0.292,-5.337
0.187,0.045,0.294,-5.337
0.225,0.044,0.297,-5.337
0.271,0.044,0.295,-5.337
0.283,0.044,0.295,-5.337
0.247,0.044,0.295,-5.337
0.199,0.044,0.296,-5.337
0.152,0.044,0.299,-5.337
0.163,0.049,0.299,-5.337
0.200,0.046,0.296,-5.337
0.198,0.043,0.294,-5.337
0.245,0.042,0.294,-5.337
0.193,0.048,0.293,-5.337
0.192,0.046,0.292,-5.337
0.269,0.045,0.294,-5.337
0.295,0.045,0.299,-5.337
0.233,0.045,0.301,-5.337
0.183,0.047,0.296,-5.337
0.196,0.048,0.295,-5.337
0.212,0.045,0.294,-5.337
0.225,0.046,0.293,-5.337
0.220,0.046,0.293,-5.337
0.173,0.051,0.293,-5.337
0.143,0.047,0.290,-5.337
0.174,0.041,0.290,-5.337
0.222,0.039,0.293,-5.337
0.218,0.038,0.294,-5.337
0.235,0.036,0.295,-5.337
0.225,0.038,0.298,-5.337
0.207,0.044,0.296,-5.337
0.237,0.045,0.292,-5.337
0.273,0.045,0.291,-5.337
0.303,0.042,0.296,-5.337
0.271,0.037,0.302,-5.337
0.252,0.035,0.300,-5.337
0.271,0.035,0.293,-5.337
0.241,0.036,0.287,-5.337
0.241,0.034,0.289,-5.337
0.250,0.035,0.293,-5.337
0.216,0.037,0.296,-5.337
0.226,0.039,0.295,-5.337
0.204,0.039,0.296,-5.337
0.152,0.039,0.296,-5.337
0.155,0.041,0.290,-5.337
0.146,0.042,0.287,-5.337
0.142,0.044,0.291,-5.337
0.152,0.043,0.294,-5.337
0.212,0.043,0.294,-5.337
0.253,0.046,0.294,-5.337
0.228,0.046,0.295,-5.337
0.178,0.046,0.295,-5.337
0.160,0.046,0.295,-5.337
0.182,0.041,0.294,-5.337
0.165,0.041,0.294,-5.337
0.183,0.041,0.298,-5.337
0.159,0.041,0.298,-5.337
0.166,0.040,0.296,-5.337
0.219,0.041,0.294,-5.337
0.208,0.041,0.292,-5.337
0.148,0.043,0.295,-5.337
0.195,0.042,0.296,-5.337
0.287,0.038,0.292,-5.337
0.259,0.036,0.289,-5.337
0.202,0.037,0.288,-5.337
0.204,0.036,0.291,-5.337
0.219,0.039,0.292,-5.337
0.169,0.046,0.294,-5.337
0.188,0.044,0.292,-5.337
0.246,0.043,0.294,-5.337
0.193,0.044,0.298,-5.337
0.201,0.041,0.297,-5.337
0.231,0.040,0.293,-5.337
0.247,0.039,0.290,-5.337
0.188,0.038,0.296,-5.337
0.163,0.036,0.297,-5.337
0.246,0.032,0.294,-5.337
0.217,0.033,0.292,-5.337
0.163,0.034,0.296,-5.337
0.192,0.034,0.296,-5.337
0.192,0.036,0.294,-5.337
0.199,0.037,0.293,-5.337
0.247,0.033,0.294,-5.337
0.241,0.032,0.294,-5.337
0.231,0.035,0.296,-5.337
0.198,0.032,0.295,-5.337
0.179,0.033,0.296,-5.337
0.196,0.033,0.295,-5.337
0.160,0.036,0.292,-5.337
0.158,0.038,0.289,-5.337
0.171,0.041,0.291,-5.337
0.108,0.038,0.289,-5.337
0.098,0.041,0.289,-5.337
0.145,0.040,0.290,-5.337
0.152,0.040,0.291,-5.337
0.146,0.035,0.298,-5.337
0.171,0.035,0.306,-5.337
0.216,0.036,0.306,-5.337
0.187,0.038,0.300,-5.337
0.172,0.039,0.294,-5.337
0.171,0.040,0.291,-5.337
0.207,0.036,0.291,-5.337
0.242,0.035,0.292,-5.337
0.227,0.038,0.292,-5.337
0.178,0.039,0.295,-5.337
0.163,0.040,0.295,-5.337
0.187,0.039,0.292,-5.337
0.199,0.035,0.293,-5.337
0.225,0.033,0.293,-5.337
0.201,0.035,0.294,-5.337
0.187,0.036,0.293,-5.337
0.207,0.035,0.292,-5.337
0.191,0.036,0.292,-5.337
0.127,0.042,0.295,-5.337
0.084,0.041,0.296,-5.337
0.104,0.037,0.297,-5.337
0.120,0.038,0.295,-5.337
0.113,0.039,0.292,-5.337
0.177,0.033,0.292,-5.337
0.267,0.030,0.292,-5.337
0.212,0.034,0.293,-5.337
0.110,0.039,0.292,-5.337
0.093,0.039,0.293,-5.337
0.132,0.037,0.295,-5.337
0.192,0.035,0.295,-5.337
0.198,0.036,0.294,-5.337
0.163,0.035,0.297,-5.337
0.177,0.034,0.299,-5.337
0.205,0.034,0.298,-5.337
0.232,0.035,0.295,-5.337
0.223,0.035,0.294,-5.337
0.180,0.035,0.294,-5.337
0.217,0.032,0.297,-5.337
0.204,0.035,0.294,-5.337
0.182,0.037,0.288,-5.337
0.188,0.037,0.287,-5.337
0.222,0.035,0.292,-5.337
0.206,0.034,0.292,-5.337
0.122,0.038,0.294,-5.337
0.134,0.034,0.293,-5.337
0.177,0.038,0.294,-5.337
0.183,0.040,0.291,-5.337
0.209,0.037,0.288,-5.337
0.198,0.036,0.288,-5.337
0.235,0.033,0.292,-5.337
0.215,0.030,0.296,-5.337
0.179,0.030,0.300,-5.337
0.188,0.028,0.297,-5.337
0.191,0.032,0.295,-5.337
0.192,0.031,0.292,-5.337
0.175,0.030,0.291,-5.337
0.197,0.030,0.289,-5.337
0.225,0.031,0.291,-5.337
0.214,0.031,0.291,-5.337
0.177,0.033,0.292,-5.337
0.136,0.031,0.292,-5.337
0.150,0.030,0.292,-5.337
0.162,0.033,0.295,-5.337
0.180,0.034,0.295,-5.337
0.183,0.032,0.293,-5.337
0.104,0.036,0.289,-5.337
0.128,0.034,0.292,-5.337
0.167,0.031,0.292,-5.337
0.085,0.035,0.293,-5.337
0.022,0.036,0.295,-5.337
0.057,0.038,0.295,-5.337
0.132,0.032,0.294,-5.337
0.153,0.032,0.295,-5.337
0.121,0.033,0.294,-5.337
0.122,0.033,0.292,-5.337
0.216,0.027,0.292,-5.337
0.267,0.024,0.292,-5.337
0.227,0.025,0.294,-5.337
0.187,0.025,0.293,-5.337
0.172,0.022,0.291,-5.337
0.159,0.026,0.291,-5.337
0.159,0.029,0.291,-5.337
0.138,0.033,0.296,-5.337
0.144,0.037,0.297,-5.337
0.169,0.032,0.292,-5.337
0.168,0.031,0.291,-5.337
0.161,0.033,0.294,-5.337
0.171,0.034,0.296,-5.337
0.129,0.036,0.294,-5.337
0.177,0.034,0.294,-5.337
0.197,0.035,0.292,-5.337
0.142,0.037,0.293,-5.337
0.142,0.035,0.294,-5.337
0.154,0.031,0.291,-5.337
0.135,0.032,0.291,-5.337
0.129,0.033,0.293,-5.337
0.128,0.031,0.293,-5.337
0.135,0.031,0.296,-5.337
0.145,0.034,0.295,-5.337
0.153,0.036,0.291,-5.337
0.157,0.035,0.290,-5.337
0.166,0.034,0.294,-5.337
0.149,0.033,0.295,-5.337
0.175,0.033,0.296,-5.337
0.199,0.033,0.298,-5.337
0.197,0.034,0.296,-5.337
0.174,0.034,0.292,-5.337
0.188,0.033,0.289,-5.337
0.190,0.033,0.288,-5.337
0.209,0.032,0.291,-5.337
0.224,0.033,0.295,-5.337
0.141,0.035,0.298,-5.337
0.059,0.040,0.302,-5.337
0.060,0.039,0.300,-5.337
0.105,0.038,0.295,-5.337
0.100,0.040,0.289,-5.337
0.087,0.035,0.290,-5.337
0.079,0.032,0.291,-5.337
0.035,0.033,0.294,-5.337
0.077,0.033,0.294,-5.337
0.148,0.031,0.290,-5.337
0.097,0.032,0.291,-5.337
0.081,0.032,0.296,-5.337
0.090,0.033,0.297,-5.337
0.133,0.032,0.294,-5.337
0.152,0.030,0.292,-5.337
0.175,0.027,0.293,-5.337
0.235,0.026,0.290,-5.337
0.222,0.031,0.288,-5.337
0.190,0.033,0.288,-5.337
0.163,0.030,0.291,-5.337
0.195,0.028,0.294,-5.337
0.208,0.030,0.297,-5.337
0.184,0.031,0.294,-5.337
0.163,0.032,0.293,-5.337
0.125,0.031,0.292,-5.337
0.082,0.034,0.294,-5.337
0.094,0.038,0.296,-5.337
0.121,0.038,0.296,-5.337
0.132,0.035,0.297,-5.337
0.143,0.035,0.293,-5.337
0.147,0.038,0.291,-5.337
0.183,0.037,0.290,-5.337
0.161,0.036,0.291,-5.337
0.124,0.038,0.291,-5.337
0.129,0.042,0.293,-5.337
0.149,0.039,0.294,-5.337
0.121,0.039,0.295,-5.337
0.146,0.036,0.296,-5.337
0.160,0.036,0.295,-5.337
0.118,0.033,0.294,-5.337
0.109,0.032,0.295,-5.337
0.135,0.030,0.294,-5.337
0.150,0.031,0.295,-5.337
0.123,0.035,0.298,-5.337
0.143,0.033,0.299,-5.337
0.178,0.035,0.296,-5.337
0.185,0.038,0.294,-5.337
0.178,0.038,0.292,-5.337
0.160,0.036,0.287,-5.337
0.155,0.039,0.286,-5.337
0.160,0.037,0.289,-5.337
0.154,0.037,0.296,-5.337
0.088,0.040,0.297,-5.337
0.089,0.039,0.300,-5.337
0.165,0.037,0.302,-5.337
0.175,0.035,0.302,-5.337
0.138,0.035,0.294,-5.337
0.087,0.040,0.287,-5.337
0.042,0.039,0.289,-5.337
0.109,0.034,0.294,-5.337
0.148,0.032,0.295,-5.337
0.134,0.036,0.292,-5.337
0.126,0.037,0.291,-5.337
0.130,0.039,0.292,-5.337
0.161,0.036,0.292,-5.337
0.159,0.036,0.293,-5.337
0.201,0.037,0.294,-5.337
0.226,0.038,0.297,-5.337
0.172,0.039,0.298,-5.337
0.190,0.037,0.297,-5.337
0.264,0.034,0.292,-5.337
0.282,0.038,0.292,-5.337
0.267,0.039,0.296,-5.337
0.180,0.043,0.299,-5.337
0.131,0.041,0.299,-5.337
0.199,0.040,0.297,-5.337
0.216,0.041,0.294,-5.337
0.160,0.042,0.291,-5.337
0.210,0.042,0.293,-5.337
0.208,0.044,0.293,-5.337
0.104,0.046,0.296,-5.337
0.040,0.046,0.297,-5.337
0.044,0.044,0.295,-5.337
0.090,0.042,0.290,-5.337
0.102,0.044,0.290,-5.337
0.156,0.043,0.293,-5.337
0.200,0.043,0.294,-5.337
0.172,0.043,0.292,-5.337
0.164,0.039,0.294,-5.337
0.153,0.042,0.298,-5.337
0.136,0.043,0.297,-5.337
0.148,0.047,0.297,-5.337
0.141,0.051,0.295,-5.337
0.095,0.049,0.289,-5.337
0.124,0.048,0.287,-5.337
0.139,0.048,0.290,-5.337
0.080,0.046,0.291,-5.337
0.092,0.045,0.292,-5.337
0.184,0.045,0.291,-5.337
0.245,0.048,0.289,-5.337
0.190,0.050,0.289,-5.337
0.157,0.044,0.294,-5.337
0.185,0.042,0.297,-5.337
0.193,0.049,0.297,-5.337
0.162,0.050,0.293,-5.337
0.137,0.047,0.291,-5.337
0.126,0.046,0.292,-5.337
0.163,0.050,0.294,-5.337
0.147,0.048,0.292,-5.337
0.133,0.047,0.289,-5.337
0.180,0.043,0.287,-5.337
0.207,0.042,0.288,-5.337
0.184,0.040,0.287,-5.337
0.217,0.044,0.292,-5.337
0.245,0.046,0.297,-5.337
0.188,0.048,0.297,-5.337
0.204,0.046,0.294,-5.337
0.212,0.043,0.291,-5.337
0.216,0.043,0.290,-5.337
0.238,0.042,0.289,-5.337
0.271,0.038,0.287,-5.337
0.266,0.042,0.292,-5.337
0.199,0.045,0.296,-5.337
0.155,0.048,0.297,-5.337
0.222,0.043,0.298,-5.337
0.270,0.045,0.298,-5.337
0.215,0.051,0.296,-5.337
0.187,0.050,0.292,-5.337
0.183,0.047,0.291,-5.337
0.186,0.047,0.289,-5.337
0.205,0.050,0.291,-5.337
0.221,0.052,0.290,-5.337
0.163,0.054,0.289,-5.337
0.161,0.052,0.288,-5.337
0.192,0.053,0.289,-5.337
0.212,0.052,0.290,-5.337
0.150,0.052,0.293,-5.337
0.177,0.050,0.294,-5.337
0.229,0.054,0.291,-5.337
0.159,0.057,0.289,-5.337
0.088,0.054,0.292,-5.337
0.064,0.051,0.294,-5.337
0.149,0.052,0.296,-5.337
0.192,0.053,0.295,-5.337
0.236,0.049,0.290,-5.337
0.210,0.048,0.289,-5.337
0.151,0.047,0.292,-5.337
0.129,0.045,0.294,-5.337
0.180,0.046,0.292,-5.337
0.235,0.051,0.290,-5.337
0.233,0.051,0.291,-5.337
0.251,0.051,0.294,-5.337
0.200,0.049,0.294,-5.337
0.170,0.048,0.290,-5.337
0.183,0.043,0.287,-5.337
0.208,0.045,0.291,-5.337
0.162,0.049,0.291,-5.337
0.134,0.054,0.291,-5.337
0.161,0.053,0.289,-5.337
0.137,0.054,0.289,-5.337
0.168,0.051,0.288,-5.337
0.177,0.051,0.290,-5.337
0.131,0.052,0.296,-5.337
0.143,0.050,0.301,-5.337
0.154,0.049,0.298,-5.337
0.165,0.050,0.294,-5.337
0.186,0.052,0.290,-5.337
0.220,0.051,0.291,-5.337
0.209,0.052,0.295,-5.337
0.203,0.053,0.296,-5.337
0.188,0.052,0.294,-5.337
0.185,0.053,0.293,-5.337
0.192,0.055,0.292,-5.337
0.130,0.056,0.292,-5.337
0.091,0.058,0.293,-5.337
0.173,0.055,0.292,-5.337
0.234,0.055,0.291,-5.337
0.235,0.055,0.289,-5.337
0.201,0.055,0.289,-5.337
0.164,0.054,0.290,-5.337
0.191,0.054,0.293,-5.337
0.261,0.052,0.299,-5.337
0.264,0.055,0.297,-5.337
0.174,0.055,0.291,-5.337
0.144,0.054,0.289,-5.337
0.172,0.053,0.292,-5.337
0.240,0.052,0.295,-5.337
0.242,0.051,0.294,-5.337
0.186,0.053,0.294,-5.337
0.139,0.058,0.294,-5.337
0.155,0.057,0.294,-5.337
0.141,0.057,0.293,-5.337
0.199,0.057,0.294,-5.337
0.261,0.054,0.294,-5.337
0.227,0.053,0.292,-5.337
0.198,0.051,0.290,-5.337
0.241,0.051,0.292,-5.337
0.282,0.049,0.294,-5.337
0.276,0.049,0.293,-5.337
0.268,0.052,0.292,-5.337
0.275,0.051,0.290,-5.337
0.218,0.052,0.292,-5.337
0.242,0.051,0.292,-5.337
0.249,0.054,0.290,-5.337
0.214,0.054,0.291,-5.337
0.130,0.055,0.294,-5.337
0.129,0.054,0.294,-5.337
0.244,0.051,0.293,-5.337
0.279,0.052,0.293,-5.337
0.260,0.052,0.295,-5.337
0.218,0.053,0.293,-5.337
0.192,0.052,0.291,-5.337
0.203,0.054,0.290,-5.337
0.219,0.053,0.295,-5.337
0.200,0.056,0.297,-5.337
0.194,0.058,0.295,-5.337
0.173,0.059,0.295,-5.337
0.186,0.059,0.292,-5.337
0.144,0.061,0.292,-5.337
0.149,0.061,0.292,-5.337
0.183,0.061,0.292,-5.337
0.182,0.062,0.293,-5.337
0.204,0.062,0.292,-5.337
0.235,0.058,0.288,-5.337
0.218,0.060,0.286,-5.337
0.173,0.060,0.289,-5.337
0.138,0.063,0.291,-5.337
0.132,0.062,0.291,-5.337
0.203,0.057,0.290,-5.337
0.259,0.055,0.291,-5.337
0.232,0.056,0.294,-5.337
0.191,0.055,0.292,-5.337
0.185,0.058,0.289,-5.337
0.154,0.058,0.294,-5.337
0.174,0.057,0.299,-5.337
0.229,0.057,0.297,-5.337
0.225,0.059,0.292,-5.337
0.212,0.059,0.290,-5.337
0.189,0.059,0.292,-5.337
0.197,0.060,0.298,-5.337
0.215,0.062,0.301,-5.337
0.240,0.059,0.296,-5.337
0.257,0.059,0.291,-5.337
0.238,0.061,0.288,-5.337
0.188,0.057,0.288,-5.337
0.200,0.056,0.289,-5.337
0.258,0.056,0.290,-5.337
0.325,0.055,0.292,-5.337
0.307,0.053,0.290,-5.337
0.260,0.056,0.292,-5.337
0.244,0.058,0.290,-5.337
0.259,0.059,0.289,-5.337
0.261,0.058,0.287,-5.337
0.273,0.059,0.289,-5.337
0.253,0.060,0.291,-5.337
0.219,0.061,0.293,-5.337
0.168,0.062,0.295,-5.337
0.192,0.059,0.296,-5.337
0.215,0.054,0.293,-5.337
0.238,0.054,0.292,-5.337
0.251,0.058,0.292,-5.337
0.218,0.060,0.292,-5.337
0.199,0.059,0.292,-5.337
0.238,0.057,0.292,-5.337
0.206,0.057,0.297,-5.337
0.162,0.056,0.297,-5.337
0.138,0.056,0.293,-5.337
0.213,0.054,0.291,-5.337
0.261,0.056,0.293,-5.337
0.299,0.054,0.289,-5.337
0.282,0.054,0.287,-5.337
0.207,0.052,0.290,-5.337
0.163,0.053,0.295,-5.337
0.167,0.054,0.295,-5.337
0.200,0.054,0.294,-5.337
0.238,0.053,0.295,-5.337
0.206,0.054,0.296,-5.337
0.162,0.052,0.294,-5.337
0.200,0.052,0.293,-5.337
0.202,0.051,0.294,-5.337
0.212,0.050,0.293,-5.337
0.245,0.050,0.293,-5.337
0.260,0.051,0.295,-5.337
0.260,0.051,0.295,-5.337
0.177,0.053,0.295,-5.337
0.163,0.054,0.291,-5.337
0.184,0.056,0.287,-5.337
0.174,0.054,0.286,-5.337
0.184,0.054,0.289,-5.337
0.202,0.051,0.292,-5.337
0.254,0.047,0.294,-5.337
0.292,0.045,0.298,-5.337
0.299,0.047,0.295,-5.337
0.211,0.049,0.289,-5.337
0.212,0.046,0.286,-5.337
0.255,0.045,0.291,-5.337
0.221,0.046,0.293,-5.337
0.198,0.048,0.295,-5.337
0.225,0.047,0.298,-5.337
0.227,0.047,0.296,-5.337
0.269,0.043,0.293,-5.337
0.254,0.043,0.294,-5.337
0.209,0.045,0.297,-5.337
0.223,0.047,0.296,-5.337
0.185,0.048,0.294,-5.337
0.111,0.048,0.292,-5.337
0.150,0.046,0.290,-5.337
0.220,0.046,0.292,-5.337
0.242,0.044,0.298,-5.337
0.247,0.042,0.300,-5.337
0.204,0.045,0.296,-5.337
0.158,0.048,0.293,-5.337
0.191,0.046,0.294,-5.337
0.214,0.043,0.295,-5.337
0.195,0.044,0.293,-5.337
0.147,0.049,0.291,-5.337
0.098,0.048,0.291,-5.337
0.141,0.043,0.290,-5.337
0.238,0.039,0.294,-5.337
0.239,0.043,0.294,-5.337
0.140,0.047,0.292,-5.337
0.110,0.048,0.291,-5.337
0.142,0.047,0.294,-5.337
0.207,0.046,0.296,-5.337
0.223,0.048,0.300,-5.337
0.213,0.042,0.301,-5.337
0.260,0.041,0.300,-5.337
0.256,0.040,0.294,-5.337
0.261,0.040,0.293,-5.337
0.248,0.040,0.292,-5.337
0.221,0.040,0.290,-5.337
0.253,0.038,0.291,-5.337
0.333,0.039,0.295,-5.337
0.309,0.040,0.294,-5.337
0.274,0.042,0.295,-5.337
0.224,0.044,0.294,-5.337
0.241,0.041,0.292,-5.337
0.273,0.041,0.295,-5.337
0.224,0.043,0.297,-5.337
0.199,0.044,0.296,-5.337
0.189,0.045,0.295,-5.337
0.193,0.044,0.296,-5.337
0.219,0.041,0.294,-5.337
0.234,0.043,0.292,-5.337
0.214,0.047,0.288,-5.337
0.211,0.045,0.292,-5.337
0.183,0.048,0.297,-5.337
0.148,0.047,0.299,-5.337
0.208,0.043,0.296,-5.337
0.279,0.041,0.296,-5.337
0.262,0.040,0.297,-5.337
0.229,0.041,0.295,-5.337
0.201,0.039,0.293,-5.337
0.232,0.037,0.292,-5.337
0.240,0.037,0.293,-5.337
0.206,0.042,0.294,-5.337
0.144,0.043,0.294,-5.337
0.175,0.039,0.294,-5.337
0.195,0.037,0.291,-5.337
0.205,0.043,0.288,-5.337
0.202,0.044,0.286,-5.337
0.223,0.042,0.289,-5.337
0.185,0.041,0.293,-5.337
0.098,0.045,0.295,-5.337
0.102,0.045,0.298,-5.337
0.159,0.046,0.297,-5.337
0.180,0.043,0.294,-5.337
0.221,0.039,0.290,-5.337
0.250,0.038,0.292,-5.337
0.192,0.040,0.296,-5.337
0.174,0.038,0.300,-5.337
0.209,0.035,0.298,-5.337
0.258,0.036,0.292,-5.337
0.233,0.035,0.288,-5.337
0.145,0.036,0.291,-5.337
0.167,0.036,0.294,-5.337
0.148,0.042,0.294,-5.337
0.099,0.040,0.292,-5.337
0.139,0.035,0.291,-5.337
0.176,0.030,0.287,-5.337
0.185,0.029,0.288,-5.337
0.179,0.029,0.292,-5.337
0.171,0.031,0.295,-5.337
0.199,0.030,0.293,-5.337
0.216,0.028,0.293,-5.337
0.223,0.029,0.292,-5.337
0.221,0.028,0.290,-5.337
0.216,0.028,0.292,-5.337
0.205,0.031,0.294,-5.337
0.215,0.030,0.292,-5.337
0.203,0.028,0.291,-5.337
0.211,0.028,0.292,-5.337
0.230,0.032,0.290,-5.337
0.195,0.036,0.293,-5.337
0.167,0.035,0.295,-5.337
0.174,0.033,0.294,-5.337
0.237,0.031,0.294,-5.337
0.238,0.032,0.298,-5.337
0.160,0.035,0.299,-5.337
0.139,0.034,0.293,-5.337
0.136,0.036,0.290,-5.337
0.138,0.035,0.289,-5.337
0.108,0.035,0.292,-5.337
0.145,0.034,0.293,-5.337
0.184,0.034,0.291,-5.337
0.213,0.031,0.288,-5.337
0.205,0.034,0.292,-5.337
0.226,0.033,0.292,-5.337
0.208,0.031,0.290,-5.337
0.153,0.033,0.290,-5.337
0.123,0.036,0.292,-5.337
0.126,0.037,0.293,-5.337
0.168,0.037,0.291,-5.337
0.167,0.036,0.289,-5.337
0.143,0.032,0.293,-5.337
0.147,0.026,0.295,-5.337
0.149,0.028,0.298,-5.337
0.154,0.031,0.294,-5.337
0.182,0.032,0.293,-5.337
0.169,0.029,0.291,-5.337
0.158,0.030,0.292,-5.337
0.126,0.034,0.293,-5.337
0.129,0.037,0.294,-5.337
0.111,0.030,0.294,-5.337
0.109,0.027,0.293,-5.337
0.112,0.029,0.292,-5.337
0.105,0.035,0.291,-5.337
0.153,0.032,0.291,-5.337
0.158,0.030,0.289,-5.337
0.167,0.031,0.289,-5.337
0.164,0.034,0.293,-5.337
0.172,0.032,0.294,-5.337
0.189,0.033,0.292,-5.337
0.181,0.033,0.294,-5.337
0.207,0.029,0.296,-5.337
0.243,0.029,0.301,-5.337
0.199,0.032,0.302,-5.337
0.141,0.036,0.299,-5.337
0.065,0.038,0.296,-5.337
0.064,0.037,0.294,-5.337
0.117,0.038,0.292,-5.337
0.208,0.036,0.288,-5.337
0.204,0.034,0.286,-5.337
0.112,0.031,0.291,-5.337
0.075,0.033,0.295,-5.337
0.093,0.037,0.297,-5.337
0.155,0.035,0.294,-5.337
0.157,0.032,0.292,-5.337
0.177,0.030,0.290,-5.337
0.162,0.037,0.293,-5.337
0.145,0.035,0.292,-5.337
0.140,0.031,0.289,-5.337
0.103,0.033,0.292,-5.337
0.131,0.035,0.296,-5.337
0.175,0.033,0.294,-5.337
0.262,0.031,0.291,-5.337
0.292,0.030,0.289,-5.337
0.222,0.035,0.292,-5.337
0.130,0.036,0.295,-5.337
0.083,0.037,0.292,-5.337
0.124,0.035,0.290,-5.337
0.147,0.034,0.292,-5.337
0.143,0.038,0.294,-5.337
0.205,0.035,0.294,-5.337
0.247,0.034,0.296,-5.337
0.228,0.035,0.294,-5.337
0.163,0.036,0.294,-5.337
0.110,0.036,0.292,-5.337
0.119,0.035,0.293,-5.337
0.174,0.034,0.292,-5.337
0.180,0.035,0.294,-5.337
0.100,0.037,0.294,-5.337
0.092,0.035,0.293,-5.337
0.174,0.033,0.293,-5.337
0.144,0.033,0.292,-5.337
0.124,0.032,0.291,-5.337
0.135,0.030,0.291,-5.337
0.142,0.030,0.295,-5.337
0.115,0.033,0.298,-5.337
0.094,0.033,0.297,-5.337
0.154,0.028,0.295,-5.337
0.219,0.029,0.293,-5.337
0.190,0.031,0.292,-5.337
0.122,0.030,0.292,-5.337
0.137,0.029,0.291,-5.337
0.140,0.030,0.289,-5.337
0.104,0.028,0.290,-5.337
0.129,0.030,0.291,-5.337
0.158,0.031,0.291,-5.337
0.135,0.033,0.295,-5.337
0.120,0.033,0.291,-5.337
0.149,0.031,0.287,-5.337
0.149,0.031,0.288,-5.337
0.123,0.035,0.290,-5.337
0.131,0.036,0.287,-5.337
0.150,0.040,0.292,-5.337
0.168,0.037,0.294,-5.337
0.170,0.035,0.293,-5.337
0.106,0.035,0.294,-5.337
0.076,0.038,0.300,-5.337
0.071,0.035,0.301,-5.337
0.107,0.031,0.299,-5.337
0.165,0.032,0.295,-5.337
0.160,0.033,0.292,-5.337
0.133,0.033,0.290,-5.337
0.137,0.032,0.290,-5.337
0.134,0.030,0.288,-5.337
0.120,0.032,0.286,-5.337
0.166,0.028,0.285,-5.337
0.202,0.029,0.286,-5.337
0.127,0.033,0.288,-5.337
0.062,0.033,0.291,-5.337
0.095,0.028,0.293,-5.337
0.160,0.031,0.291,-5.337
0.198,0.035,0.291,-5.337
0.147,0.038,0.291,-5.337
0.100,0.039,0.295,-5.337
0.035,0.037,0.296,-5.337
0.055,0.038,0.296,-5.337
0.132,0.034,0.292,-5.337
0.169,0.033,0.287,-5.337
0.156,0.034,0.284,-5.337
0.154,0.034,0.286,-5.337
0.187,0.033,0.292,-5.337
0.221,0.036,0.292,-5.337
0.167,0.040,0.292,-5.337
0.118,0.036,0.292,-5.337
0.159,0.034,0.294,-5.337
0.175,0.031,0.295,-5.337
0.202,0.031,0.298,-5.337
0.179,0.033,0.297,-5.337
0.139,0.032,0.294,-5.337
0.145,0.032,0.291,-5.337
0.154,0.033,0.292,-5.337
0.134,0.034,0.292,-5.337
0.038,0.035,0.296,-5.337
0.005,0.037,0.297,-5.337
0.057,0.038,0.297,-5.337
0.100,0.041,0.293,-5.337
0.149,0.040,0.290,-5.337
0.126,0.041,0.290,-5.337
0.094,0.042,0.293,-5.337
0.052,0.041,0.292,-5.337
0.066,0.040,0.290,-5.337
0.103,0.041,0.289,-5.337
0.102,0.044,0.290,-5.337
0.131,0.044,0.292,-5.337
0.168,0.047,0.294,-5.337
0.173,0.044,0.294,-5.337
0.149,0.042,0.295,-5.337
0.106,0.039,0.297,-5.337
0.152,0.036,0.296,-5.337
0.249,0.034,0.289,-5.337
0.289,0.036,0.287,-5.337
0.219,0.039,0.289,-5.337
0.173,0.041,0.292,-5.337
0.154,0.041,0.295,-5.337
0.216,0.037,0.297,-5.337
0.253,0.033,0.293,-5.337
0.236,0.038,0.292,-5.337
0.161,0.042,0.296,-5.337
0.117,0.044,0.294,-5.337
0.132,0.041,0.291,-5.337
0.134,0.041,0.287,-5.337
0.092,0.043,0.288,-5.337
0.084,0.043,0.292,-5.337
0.115,0.044,0.296,-5.337
0.170,0.043,0.295,-5.337
0.183,0.042,0.292,-5.337
0.138,0.042,0.293,-5.337
0.139,0.042,0.296,-5.337
0.178,0.041,0.297,-5.337
0.140,0.038,0.295,-5.337
0.093,0.041,0.297,-5.337
0.104,0.041,0.298,-5.337
0.190,0.039,0.299,-5.337
0.210,0.040,0.298,-5.337
0.136,0.038,0.292,-5.337
0.095,0.039,0.293,-5.337
0.139,0.038,0.297,-5.337
0.216,0.039,0.296,-5.337
0.185,0.041,0.293,-5.337
0.109,0.042,0.294,-5.337
0.093,0.041,0.295,-5.337
0.152,0.043,0.295,-5.337
0.218,0.042,0.294,-5.337
0.230,0.040,0.293,-5.337
0.175,0.045,0.294,-5.337
0.119,0.047,0.296,-5.337
0.123,0.046,0.300,-5.337
0.158,0.044,0.300,-5.337
0.157,0.047,0.296,-5.337
0.136,0.045,0.292,-5.337
0.195,0.042,0.294,-5.337
0.198,0.042,0.296,-5.337
0.230,0.042,0.298,-5.337
0.218,0.041,0.297,-5.337
0.138,0.046,0.295,-5.337
0.105,0.046,0.293,-5.337
0.128,0.041,0.288,-5.337
0.129,0.040,0.291,-5.337
0.104,0.042,0.293,-5.337
0.096,0.044,0.293,-5.337
0.109,0.046,0.293,-5.337
0.145,0.045,0.293,-5.337
0.127,0.043,0.293,-5.337
0.134,0.045,0.295,-5.337
0.146,0.041,0.298,-5.337
0.216,0.038,0.298,-5.337
0.217,0.040,0.295,-5.337
0.127,0.044,0.294,-5.337
0.084,0.044,0.294,-5.337
0.116,0.046,0.299,-5.337
0.135,0.047,0.298,-5.337
0.175,0.047,0.296,-5.337
0.220,0.045,0.292,-5.337
0.216,0.046,0.293,-5.337
0.202,0.044,0.295,-5.337
0.210,0.045,0.296,-5.337
0.211,0.045,0.295,-5.337
0.259,0.045,0.294,-5.337
0.288,0.045,0.294,-5.337
0.226,0.052,0.292,-5.337
0.172,0.051,0.290,-5.337
0.194,0.053,0.294,-5.337
0.196,0.052,0.297,-5.337
0.163,0.053,0.292,-5.337
0.163,0.052,0.290,-5.337
0.180,0.051,0.291,-5.337
0.161,0.046,0.293,-5.337
0.170,0.045,0.292,-5.337
0.158,0.048,0.292,-5.337
0.193,0.048,0.290,-5.337
0.209,0.048,0.291,-5.337
0.193,0.048,0.293,-5.337
0.171,0.047,0.299,-5.337
0.169,0.050,0.299,-5.337
0.192,0.052,0.295,-5.337
0.220,0.052,0.289,-5.337
0.234,0.048,0.290,-5.337
0.175,0.050,0.291,-5.337
0.130,0.049,0.289,-5.337
0.147,0.046,0.289,-5.337
0.204,0.043,0.294,-5.337
0.235,0.047,0.295,-5.337
0.222,0.051,0.293,-5.337
0.198,0.053,0.289,-5.337
0.209,0.049,0.288,-5.337
0.238,0.046,0.286,-5.337
0.182,0.049,0.288,-5.337
0.129,0.053,0.291,-5.337
0.141,0.055,0.293,-5.337
0.142,0.053,0.296,-5.337
0.161,0.051,0.294,-5.337
0.200,0.050,0.291,-5.337
0.206,0.053,0.288,-5.337
0.234,0.052,0.293,-5.337
0.222,0.049,0.296,-5.337
0.204,0.051,0.297,-5.337
0.208,0.049,0.291,-5.337
0.240,0.051,0.291,-5.337
0.279,0.049,0.291,-5.337
0.224,0.052,0.296,-5.337
0.162,0.050,0.294,-5.337
0.226,0.051,0.293,-5.337
0.239,0.053,0.291,-5.337
0.182,0.057,0.293,-5.337
0.161,0.054,0.294,-5.337
0.178,0.052,0.294,-5.337
0.211,0.048,0.291,-5.337
0.239,0.050,0.291,-5.337
0.201,0.052,0.291,-5.337
0.178,0.053,0.292,-5.337
0.160,0.052,0.294,-5.337
0.133,0.055,0.298,-5.337
0.172,0.055,0.299,-5.337
0.220,0.053,0.294,-5.337
0.199,0.047,0.289,-5.337
0.208,0.045,0.291,-5.337
0.243,0.047,0.292,-5.337
0.209,0.050,0.290,-5.337
0.147,0.054,0.291,-5.337
0.127,0.054,0.288,-5.337
0.188,0.052,0.290,-5.337
0.201,0.054,0.291,-5.337
0.145,0.056,0.289,-5.337
0.183,0.053,0.288,-5.337
0.190,0.054,0.291,-5.337
0.267,0.050,0.292,-5.337
0.255,0.049,0.295,-5.337
0.121,0.048,0.299,-5.337
0.101,0.046,0.299,-5.337
0.168,0.044,0.295,-5.337
0.224,0.043,0.292,-5.337
0.220,0.044,0.291,-5.337
0.242,0.048,0.291,-5.337
0.255,0.051,0.289,-5.337
0.251,0.048,0.290,-5.337
0.284,0.046,0.293,-5.337
0.256,0.052,0.296,-5.337
0.178,0.053,0.296,-5.337
0.203,0.052,0.294,-5.337
0.242,0.055,0.294,-5.337
0.162,0.058,0.292,-5.337
0.180,0.056,0.293,-5.337
0.206,0.051,0.295,-5.337
0.199,0.057,0.294,-5.337
0.142,0.059,0.292,-5.337
0.147,0.058,0.295,-5.337
0.177,0.057,0.299,-5.337
0.208,0.060,0.297,-5.337
0.159,0.063,0.293,-5.337
0.130,0.059,0.291,-5.337
0.229,0.050,0.288,-5.337
0.341,0.048,0.287,-5.337
0.271,0.053,0.289,-5.337
0.188,0.056,0.293,-5.337
0.187,0.052,0.298,-5.337
0.193,0.055,0.295,-5.337
0.164,0.055,0.290,-5.337
0.192,0.053,0.288,-5.337
0.280,0.050,0.287,-5.337
0.315,0.057,0.289,-5.337
0.264,0.062,0.291,-5.337
0.251,0.062,0.294,-5.337
0.235,0.059,0.295,-5.337
0.253,0.055,0.297,-5.337
0.252,0.051,0.298,-5.337
0.242,0.051,0.296,-5.337
0.234,0.053,0.295,-5.337
0.266,0.054,0.290,-5.337
0.276,0.054,0.289,-5.337
0.274,0.054,0.291,-5.337
0.247,0.052,0.296,-5.337
0.250,0.049,0.292,-5.337
0.205,0.053,0.290,-5.337
0.176,0.058,0.289,-5.337
0.174,0.060,0.291,-5.337
0.154,0.060,0.293,-5.337
0.173,0.059,0.293,-5.337
0.185,0.058,0.292,-5.337
0.179,0.060,0.293,-5.337
0.206,0.055,0.297,-5.337
0.231,0.054,0.299,-5.337
0.264,0.054,0.298,-5.337
0.232,0.056,0.294,-5.337
0.213,0.057,0.293,-5.337
0.230,0.058,0.290,-5.337
0.214,0.059,0.286,-5.337
0.181,0.060,0.289,-5.337
0.168,0.062,0.296,-5.337
0.180,0.061,0.296,-5.337
0.198,0.057,0.294,-5.337
0.229,0.055,0.292,-5.337
0.261,0.054,0.292,-5.337
0.308,0.058,0.291,-5.337
0.339,0.054,0.290,-5.337
0.279,0.057,0.286,-5.337
0.184,0.060,0.289,-5.337
0.185,0.058,0.292,-5.337
0.258,0.057,0.296,-5.337
0.317,0.058,0.295,-5.337
0.250,0.060,0.289,-5.337
0.206,0.059,0.286,-5.337
0.239,0.059,0.285,-5.337
0.253,0.056,0.288,-5.337
0.222,0.057,0.292,-5.337
0.271,0.055,0.293,-5.337
0.292,0.053,0.292,-5.337
0.258,0.055,0.293,-5.337
0.254,0.053,0.290,-5.337
0.325,0.053,0.288,-5.337
0.305,0.054,0.292,-5.337
0.260,0.054,0.292,-5.337
0.251,0.055,0.287,-5.337
0.248,0.054,0.290,-5.337
0.264,0.053,0.292,-5.337
0.296,0.054,0.294,-5.337
0.290,0.058,0.294,-5.337
0.231,0.061,0.292,-5.337
0.244,0.063,0.290,-5.337
0.230,0.062,0.294,-5.337
0.162,0.057,0.296,-5.337
0.125,0.057,0.299,-5.337
0.191,0.055,0.296,-5.337
0.223,0.054,0.292,-5.337
0.219,0.050,0.288,-5.337
0.245,0.047,0.291,-5.337
0.192,0.049,0.291,-5.337
0.167,0.052,0.289,-5.337
0.175,0.050,0.289,-5.337
0.249,0.052,0.292,-5.337
0.256,0.053,0.293,-5.337
0.221,0.054,0.295,-5.337
0.235,0.054,0.295,-5.337
0.182,0.053,0.293,-5.337
0.245,0.046,0.291,-5.337
0.319,0.046,0.292,-5.337
0.278,0.052,0.293,-5.337
0.261,0.052,0.293,-5.337
0.228,0.051,0.295,-5.337
0.196,0.053,0.296,-5.337
0.179,0.052,0.295,-5.337
0.155,0.053,0.293,-5.337
0.167,0.054,0.294,-5.337
0.159,0.055,0.290,-5.337
0.194,0.052,0.288,-5.337
0.190,0.050,0.289,-5.337
0.165,0.054,0.290,-5.337
0.219,0.051,0.290,-5.337
0.226,0.050,0.293,-5.337
0.197,0.052,0.297,-5.337
0.200,0.051,0.293,-5.337
0.205,0.051,0.291,-5.337
0.194,0.052,0.294,-5.337
0.180,0.051,0.292,-5.337
0.214,0.047,0.294,-5.337
0.256,0.049,0.298,-5.337
0.276,0.051,0.300,-5.337
0.223,0.051,0.300,-5.337
0.185,0.052,0.295,-5.337
0.185,0.051,0.292,-5.337
0.242,0.049,0.291,-5.337
0.221,0.048,0.290,-5.337
0.179,0.047,0.289,-5.337
0.185,0.048,0.292,-5.337
0.193,0.047,0.297,-5.337
0.184,0.047,0.298,-5.337
0.208,0.045,0.295,-5.337
0.208,0.045,0.293,-5.337
0.200,0.046,0.290,-5.337
0.177,0.045,0.286,-5.337
0.201,0.042,0.288,-5.337
0.203,0.043,0.293,-5.337
0.213,0.045,0.294,-5.337
0.257,0.039,0.297,-5.337
0.271,0.036,0.298,-5.337
0.211,0.040,0.300,-5.337
0.202,0.043,0.301,-5.337
0.229,0.044,0.297,-5.337
0.211,0.043,0.294,-5.337
0.226,0.044,0.293,-5.337
0.246,0.040,0.290,-5.337
0.225,0.040,0.291,-5.337
0.204,0.040,0.293,-5.337
0.219,0.044,0.296,-5.337
0.217,0.044,0.297,-5.337
0.233,0.041,0.296,-5.337
0.199,0.041,0.298,-5.337
0.213,0.043,0.300,-5.337
0.236,0.044,0.296,-5.337
0.239,0.040,0.292,-5.337
0.227,0.038,0.297,-5.337
0.206,0.038,0.298,-5.337
0.217,0.042,0.296,-5.337
0.183,0.044,0.294,-5.337
0.195,0.043,0.293,-5.337
0.225,0.047,0.293,-5.337
0.174,0.047,0.296,-5.337
0.148,0.044,0.297,-5.337
0.177,0.041,0.299,-5.337
0.191,0.040,0.299,-5.337
0.190,0.044,0.301,-5.337
0.170,0.042,0.297,-5.337
0.173,0.039,0.296,-5.337
0.202,0.038,0.298,-5.337
0.214,0.040,0.301,-5.337
0.202,0.038,0.300,-5.337
0.221,0.036,0.298,-5.337
0.294,0.034,0.297,-5.337
0.326,0.036,0.295,-5.337
0.218,0.038,0.294,-5.337
0.162,0.040,0.294,-5.337
0.175,0.042,0.290,-5.337
0.208,0.040,0.290,-5.337
0.172,0.039,0.291,-5.337
0.150,0.040,0.290,-5.337
0.194,0.038,0.291,-5.337
0.174,0.042,0.294,-5.337
0.165,0.044,0.300,-5.337
0.172,0.038,0.301,-5.337
0.119,0.037,0.299,-5.337
0.150,0.035,0.299,-5.337
0.198,0.037,0.298,-5.337
0.178,0.037,0.294,-5.337
0.156,0.039,0.292,-5.337
0.167,0.037,0.292,-5.337
0.192,0.037,0.288,-5.337
0.220,0.037,0.285,-5.337
0.243,0.037,0.289,-5.337
0.220,0.040,0.295,-5.337
0.195,0.042,0.296,-5.337
0.202,0.041,0.295,-5.337
0.206,0.037,0.291,-5.337
0.177,0.036,0.287,-5.337
0.128,0.038,0.290,-5.337
0.132,0.038,0.294,-5.337
0.147,0.037,0.294,-5.337
0.141,0.037,0.293,-5.337
0.172,0.037,0.295,-5.337
0.188,0.036,0.297,-5.337
0.208,0.034,0.293,-5.337
0.212,0.035,0.289,-5.337
0.179,0.034,0.288,-5.337
0.188,0.033,0.293,-5.337
0.214,0.034,0.292,-5.337
0.182,0.037,0.292,-5.337
0.131,0.037,0.292,-5.337
0.142,0.040,0.293,-5.337
0.135,0.041,0.293,-5.337
0.163,0.041,0.298,-5.337
0.163,0.039,0.299,-5.337
0.176,0.036,0.296,-5.337
0.252,0.031,0.293,-5.337
0.246,0.033,0.292,-5.337
0.222,0.035,0.292,-5.337
0.168,0.037,0.291,-5.337
0.124,0.037,0.289,-5.337
0.215,0.037,0.293,-5.337
0.232,0.039,0.295,-5.337
0.222,0.039,0.294,-5.337
0.236,0.036,0.297,-5.337
0.185,0.035,0.298,-5.337
0.126,0.039,0.294,-5.337
0.148,0.035,0.290,-5.337
0.144,0.037,0.291,-5.337
0.124,0.035,0.289,-5.337
0.135,0.035,0.290,-5.337
0.129,0.035,0.291,-5.337
0.138,0.036,0.290,-5.337
0.161,0.033,0.288,-5.337
0.197,0.031,0.292,-5.337
0.208,0.030,0.296,-5.337
0.201,0.032,0.297,-5.337
0.174,0.033,0.294,-5.337
0.184,0.033,0.291,-5.337
0.161,0.029,0.291,-5.337
0.159,0.027,0.291,-5.337
0.152,0.030,0.287,-5.337
0.179,0.034,0.287,-5.337
0.220,0.034,0.295,-5.337
0.225,0.034,0.300,-5.337
0.189,0.035,0.298,-5.337
0.120,0.039,0.295,-5.337
0.125,0.035,0.294,-5.337
0.201,0.029,0.294,-5.337
0.216,0.033,0.291,-5.337
0.158,0.035,0.287,-5.337
0.124,0.035,0.288,-5.337
0.153,0.032,0.291,-5.337
0.231,0.030,0.292,-5.337
0.306,0.028,0.290,-5.337
0.273,0.030,0.290,-5.337
0.195,0.036,0.290,-5.337
0.175,0.035,0.294,-5.337
0.218,0.031,0.295,-5.337
0.204,0.036,0.292,-5.337
0.157,0.039,0.290,-5.337
0.124,0.038,0.293,-5.337
0.113,0.035,0.295,-5.337
0.081,0.041,0.295,-5.337
0.096,0.039,0.295,-5.337
0.172,0.041,0.292,-5.337
0.221,0.039,0.291,-5.337
0.184,0.036,0.293,-5.337
0.127,0.035,0.297,-5.337
0.074,0.038,0.297,-5.337
0.068,0.037,0.294,-5.337
0.122,0.034,0.294,-5.337
0.151,0.035,0.292,-5.337
0.121,0.033,0.289,-5.337
0.088,0.030,0.290,-5.337
0.149,0.027,0.291,-5.337
0.197,0.029,0.292,-5.337
0.160,0.032,0.293,-5.337
0.197,0.031,0.293,-5.337
0.195,0.034,0.292,-5.337
0.194,0.034,0.294,-5.337
0.167,0.035,0.292,-5.337
0.123,0.036,0.290,-5.337
0.176,0.031,0.292,-5.337
0.239,0.032,0.296,-5.337
0.127,0.037,0.297,-5.337
0.082,0.037,0.292,-5.337
0.155,0.034,0.291,-5.337
0.157,0.035,0.291,-5.337
0.132,0.034,0.287,-5.337
0.177,0.030,0.284,-5.337
0.205,0.030,0.287,-5.337
0.156,0.033,0.292,-5.337
0.157,0.033,0.291,-5.337
0.208,0.033,0.292,-5.337
0.164,0.032,0.294,-5.337
0.124,0.032,0.293,-5.337
0.183,0.031,0.292,-5.337
0.282,0.029,0.293,-5.337
0.238,0.030,0.295,-5.337
0.179,0.034,0.294,-5.337
0.175,0.035,0.293,-5.337
0.180,0.036,0.291,-5.337
0.148,0.037,0.291,-5.337
0.144,0.035,0.288,-5.337
0.116,0.034,0.290,-5.337
0.163,0.030,0.291,-5.337
0.157,0.034,0.291,-5.337
0.047,0.036,0.289,-5.337
0.042,0.032,0.290,-5.337
0.077,0.034,0.290,-5.337
0.119,0.036,0.293,-5.337
0.175,0.032,0.291,-5.337
0.167,0.032,0.291,-5.337
0.191,0.030,0.287,-5.337
0.237,0.030,0.288,-5.337
0.228,0.033,0.292,-5.337
0.175,0.034,0.294,-5.337
0.123,0.035,0.288,-5.337
0.165,0.032,0.288,-5.337
0.180,0.033,0.292,-5.337
0.212,0.033,0.293,-5.337
0.216,0.032,0.293,-5.337
0.191,0.034,0.292,-5.337
0.157,0.036,0.290,-5.337
0.104,0.036,0.291,-5.337
0.091,0.034,0.293,-5.337
0.099,0.034,0.294,-5.337
0.125,0.036,0.295,-5.337
0.150,0.035,0.297,-5.337
0.189,0.034,0.300,-5.337
0.215,0.032,0.295,-5.337
0.157,0.033,0.288,-5.337
0.110,0.034,0.281,-5.337
0.119,0.036,0.284,-5.337
0.175,0.034,0.287,-5.337
0.195,0.034,0.289,-5.337
0.141,0.037,0.290,-5.337
0.144,0.041,0.293,-5.337
0.174,0.041,0.295,-5.337
0.148,0.039,0.294,-5.337
0.149,0.038,0.289,-5.337
0.203,0.037,0.288,-5.337
0.196,0.040,0.290,-5.337
0.140,0.042,0.293,-5.337
0.120,0.042,0.292,-5.337
0.117,0.040,0.290,-5.337
0.130,0.037,0.289,-5.337
0.109,0.039,0.289,-5.337
0.086,0.036,0.292,-5.337
0.139,0.036,0.294,-5.337
0.185,0.036,0.294,-5.337
0.202,0.036,0.294,-5.337
0.192,0.037,0.292,-5.337
0.184,0.038,0.289,-5.337
0.162,0.041,0.287,-5.337
0.097,0.043,0.287,-5.337
0.030,0.042,0.288,-5.337
0.092,0.034,0.291,-5.337
0.143,0.031,0.294,-5.337
0.150,0.035,0.296,-5.337
0.123,0.037,0.296,-5.337
0.137,0.037,0.293,-5.337
0.227,0.036,0.292,-5.337
0.273,0.034,0.293,-5.337
0.198,0.032,0.292,-5.337
0.112,0.035,0.291,-5.337
0.137,0.042,0.289,-5.337
0.146,0.046,0.290,-5.337
0.183,0.041,0.291,-5.337
0.184,0.036,0.290,-5.337
0.194,0.037,0.289,-5.337
0.176,0.039,0.294,-5.337
0.167,0.036,0.298,-5.337
0.202,0.038,0.296,-5.337
0.203,0.041,0.289,-5.337
0.172,0.044,0.287,-5.337
0.164,0.043,0.287,-5.337
0.194,0.041,0.290,-5.337
0.234,0.037,0.290,-5.337
0.210,0.038,0.290,-5.337
0.169,0.040,0.288,-5.337
0.120,0.042,0.289,-5.337
0.138,0.039,0.288,-5.337
0.187,0.038,0.290,-5.337
0.190,0.042,0.293,-5.337
0.162,0.046,0.294,-5.337
0.173,0.040,0.289,-5.337
0.186,0.038,0.288,-5.337
0.173,0.040,0.290,-5.337
0.159,0.042,0.291,-5.337
0.150,0.042,0.292,-5.337
0.151,0.042,0.294,-5.337
0.172,0.045,0.296,-5.337
0.179,0.046,0.296,-5.337
0.164,0.043,0.292,-5.337
0.217,0.039,0.287,-5.337
0.201,0.040,0.288,-5.337
0.108,0.046,0.294,-5.337
0.116,0.048,0.296,-5.337
0.149,0.048,0.292,-5.337
0.151,0.047,0.294,-5.337
0.132,0.048,0.297,-5.337
0.146,0.049,0.297,-5.337
0.148,0.050,0.293,-5.337
0.204,0.048,0.290,-5.337
0.250,0.045,0.288,-5.337
0.185,0.048,0.289,-5.337
0.157,0.047,0.292,-5.337
0.217,0.044,0.296,-5.337
0.186,0.043,0.296,-5.337
0.147,0.046,0.294,-5.337
0.206,0.044,0.291,-5.337
0.213,0.046,0.292,-5.337
0.119,0.045,0.295,-5.337
0.136,0.044,0.293,-5.337
0.216,0.043,0.292,-5.337
0.195,0.046,0.295,-5.337
0.137,0.045,0.297,-5.337
0.207,0.042,0.292,-5.337
0.249,0.046,0.292,-5.337
0.218,0.047,0.293,-5.337
0.182,0.047,0.293,-5.337
0.154,0.048,0.291,-5.337
0.157,0.047,0.292,-5.337
0.209,0.047,0.292,-5.337
0.189,0.050,0.291,-5.337
0.184,0.048,0.291,-5.337
0.212,0.048,0.295,-5.337
0.261,0.047,0.297,-5.337
0.228,0.050,0.295,-5.337
0.110,0.052,0.293,-5.337
0.093,0.051,0.296,-5.337
0.143,0.049,0.296,-5.337
0.218,0.048,0.291,-5.337
0.196,0.050,0.289,-5.337
0.171,0.050,0.294,-5.337
0.174,0.052,0.299,-5.337
0.217,0.054,0.298,-5.337
0.215,0.054,0.293,-5.337
0.182,0.050,0.290,-5.337
0.183,0.049,0.290,-5.337
0.175,0.055,0.291,-5.337
0.228,0.052,0.292,-5.337
0.189,0.054,0.295,-5.337
0.131,0.051,0.295,-5.337
0.179,0.049,0.294,-5.337
0.219,0.049,0.294,-5.337
0.222,0.052,0.291,-5.337
0.182,0.051,0.295,-5.337
0.165,0.048,0.295,-5.337
0.176,0.052,0.298,-5.337
0.237,0.055,0.298,-5.337
0.242,0.054,0.295,-5.337
0.166,0.054,0.290,-5.337
0.161,0.053,0.293,-5.337
0.213,0.050,0.296,-5.337
0.265,0.049,0.296,-5.337
0.225,0.051,0.295,-5.337
0.168,0.052,0.291,-5.337
0.180,0.053,0.285,-5.337
0.209,0.049,0.280,-5.337
0.254,0.046,0.282,-5.337
0.244,0.050,0.290,-5.337
0.217,0.053,0.293,-5.337
0.211,0.055,0.295,-5.337
0.188,0.054,0.295,-5.337
0.134,0.054,0.296,-5.337
0.064,0.052,0.293,-5.337
0.129,0.045,0.292,-5.337
0.207,0.045,0.293,-5.337
0.221,0.050,0.295,-5.337
0.148,0.054,0.295,-5.337
0.173,0.054,0.291,-5.337
0.225,0.047,0.290,-5.337
0.249,0.047,0.292,-5.337
0.195,0.050,0.292,-5.337
0.212,0.050,0.289,-5.337
0.244,0.052,0.290,-5.337
0.282,0.051,0.294,-5.337
0.241,0.051,0.296,-5.337
0.190,0.050,0.293,-5.337
0.167,0.053,0.292,-5.337
0.209,0.051,0.293,-5.337
0.255,0.051,0.296,-5.337
0.265,0.050,0.296,-5.337
0.254,0.052,0.295,-5.337
0.240,0.053,0.293,-5.337
0.228,0.051,0.292,-5.337
0.229,0.051,0.287,-5.337
0.251,0.054,0.283,-5.337
0.230,0.056,0.281,-5.337
0.155,0.056,0.287,-5.337
0.227,0.051,0.292,-5.337
0.243,0.051,0.291,-5.337
0.217,0.051,0.290,-5.337
0.169,0.054,0.291,-5.337
0.128,0.054,0.292,-5.337
0.170,0.052,0.292,-5.337
0.190,0.048,0.295,-5.337
0.213,0.049,0.293,-5.337
0.207,0.050,0.291,-5.337
0.215,0.051,0.290,-5.337
0.190,0.051,0.294,-5.337
0.220,0.048,0.298,-5.337
0.226,0.047,0.299,-5.337
0.219,0.049,0.293,-5.337
0.235,0.052,0.286,-5.337
0.213,0.053,0.285,-5.337
0.205,0.053,0.290,-5.337
0.207,0.053,0.297,-5.337
0.184,0.056,0.295,-5.337
0.190,0.054,0.288,-5.337
0.196,0.055,0.287,-5.337
0.201,0.056,0.289,-5.337
0.237,0.058,0.291,-5.337
0.249,0.056,0.291,-5.337
0.302,0.053,0.294,-5.337
0.278,0.052,0.295,-5.337
0.286,0.051,0.292,-5.337
0.228,0.052,0.292,-5.337
0.203,0.054,0.289,-5.337
0.239,0.054,0.290,-5.337
0.218,0.055,0.291,-5.337
0.126,0.056,0.294,-5.337
0.097,0.056,0.295,-5.337
0.206,0.053,0.295,-5.337
0.246,0.052,0.296,-5.337
0.195,0.053,0.296,-5.337
0.214,0.053,0.293,-5.337
0.238,0.055,0.292,-5.337
0.246,0.055,0.294,-5.337
0.299,0.050,0.293,-5.337
0.250,0.050,0.292,-5.337
0.180,0.051,0.292,-5.337
0.150,0.055,0.291,-5.337
0.140,0.057,0.290,-5.337
0.212,0.055,0.292,-5.337
0.257,0.056,0.295,-5.337
0.216,0.056,0.294,-5.337
0.207,0.054,0.291,-5.337
0.269,0.054,0.292,-5.337
0.259,0.053,0.291,-5.337
0.260,0.052,0.289,-5.337
0.308,0.052,0.290,-5.337
0.332,0.054,0.289,-5.337
0.272,0.056,0.287,-5.337
0.258,0.057,0.290,-5.337
0.217,0.055,0.293,-5.337
0.228,0.055,0.297,-5.337
0.247,0.059,0.294,-5.337
0.258,0.058,0.290,-5.337
0.253,0.059,0.291,-5.337
0.223,0.058,0.289,-5.337
0.215,0.054,0.287,-5.337
0.252,0.051,0.285,-5.337
0.314,0.050,0.287,-5.337
0.338,0.053,0.292,-5.337
0.247,0.056,0.295,-5.337
0.184,0.055,0.294,-5.337
0.220,0.050,0.293,-5.337
0.227,0.052,0.295,-5.337
0.204,0.052,0.292,-5.337
0.210,0.054,0.289,-5.337
0.236,0.056,0.290,-5.337
0.304,0.055,0.291,-5.337
0.311,0.057,0.294,-5.337
0.254,0.056,0.297,-5.337
0.259,0.052,0.299,-5.337
0.248,0.052,0.297,-5.337
0.248,0.052,0.294,-5.337
0.227,0.051,0.291,-5.337
0.177,0.053,0.291,-5.337
0.240,0.052,0.291,-5.337
0.243,0.052,0.290,-5.337
0.221,0.052,0.289,-5.337
0.235,0.051,0.287,-5.337
0.296,0.052,0.283,-5.337
0.330,0.049,0.282,-5.337
0.329,0.049,0.288,-5.337
0.281,0.053,0.293,-5.337
0.246,0.054,0.293,-5.337
0.255,0.051,0.292,-5.337
0.295,0.050,0.291,-5.337
0.262,0.053,0.293,-5.337
0.204,0.056,0.298,-5.337
0.216,0.057,0.298,-5.337
0.214,0.056,0.294,-5.337
0.180,0.053,0.291,-5.337
0.191,0.054,0.292,-5.337
0.246,0.053,0.290,-5.337
0.275,0.052,0.286,-5.337
0.250,0.053,0.287,-5.337
0.204,0.054,0.290,-5.337
0.199,0.053,0.293,-5.337
0.217,0.052,0.297,-5.337
0.204,0.052,0.298,-5.337
0.228,0.054,0.295,-5.337
0.244,0.050,0.288,-5.337
0.236,0.051,0.287,-5.337
0.236,0.054,0.289,-5.337
0.241,0.055,0.288,-5.337
0.256,0.053,0.288,-5.337
0.267,0.056,0.295,-5.337
0.216,0.050,0.299,-5.337
0.207,0.048,0.297,-5.337
0.223,0.049,0.289,-5.337
0.232,0.051,0.282,-5.337
0.235,0.046,0.281,-5.337
0.213,0.047,0.289,-5.337
0.142,0.050,0.292,-5.337
0.160,0.049,0.294,-5.337
0.232,0.047,0.294,-5.337
0.245,0.045,0.294,-5.337
0.244,0.045,0.294,-5.337
0.262,0.043,0.293,-5.337
0.273,0.042,0.295,-5.337
0.223,0.044,0.295,-5.337
0.210,0.044,0.295,-5.337
0.250,0.042,0.296,-5.337
0.287,0.042,0.296,-5.337
0.257,0.044,0.292,-5.337
0.235,0.043,0.291,-5.337
0.195,0.043,0.289,-5.337
0.224,0.040,0.289,-5.337
0.267,0.040,0.294,-5.337
0.234,0.042,0.299,-5.337
0.208,0.041,0.297,-5.337
0.233,0.042,0.291,-5.337
0.257,0.041,0.289,-5.337
0.271,0.042,0.287,-5.337
0.278,0.043,0.291,-5.337
0.236,0.044,0.294,-5.337
0.231,0.045,0.291,-5.337
0.219,0.045,0.288,-5.337
0.174,0.047,0.292,-5.337
0.172,0.046,0.295,-5.337
0.191,0.046,0.295,-5.337
0.170,0.046,0.293,-5.337
0.175,0.044,0.297,-5.337
0.167,0.045,0.292,-5.337
0.196,0.041,0.292,-5.337
0.209,0.045,0.297,-5.337
0.164,0.048,0.296,-5.337
0.123,0.047,0.291,-5.337
0.170,0.043,0.291,-5.337
0.273,0.035,0.291,-5.337
0.282,0.036,0.294,-5.337
0.249,0.038,0.296,-5.337
0.200,0.043,0.293,-5.337
0.177,0.043,0.291,-5.337
0.177,0.046,0.290,-5.337
0.161,0.044,0.289,-5.337
0.161,0.043,0.290,-5.337
0.155,0.046,0.290,-5.337
0.179,0.047,0.291,-5.337
0.198,0.048,0.294,-5.337
0.187,0.044,0.295,-5.337
0.211,0.040,0.289,-5.337
0.222,0.041,0.286,-5.337
0.278,0.041,0.287,-5.337
0.313,0.041,0.292,-5.337
0.263,0.039,0.297,-5.337
0.234,0.042,0.298,-5.337
0.218,0.044,0.298,-5.337
0.200,0.042,0.297,-5.337
0.172,0.040,0.295,-5.337
0.209,0.038,0.292,-5.337
0.229,0.037,0.291,-5.337
0.215,0.040,0.291,-5.337
0.161,0.042,0.295,-5.337
0.146,0.041,0.297,-5.337
0.186,0.039,0.295,-5.337
0.175,0.040,0.290,-5.337
0.203,0.038,0.291,-5.337
0.208,0.038,0.293,-5.337
0.187,0.042,0.294,-5.337
0.187,0.040,0.293,-5.337
0.196,0.035,0.293,-5.337
0.249,0.031,0.290,-5.337
0.247,0.031,0.289,-5.337
0.220,0.032,0.292,-5.337
0.165,0.036,0.298,-5.337
0.178,0.037,0.296,-5.337
0.209,0.034,0.293,-5.337
0.211,0.032,0.292,-5.337
0.206,0.037,0.293,-5.337
0.218,0.037,0.295,-5.337
0.135,0.038,0.296,-5.337
0.153,0.034,0.296,-5.337
0.210,0.034,0.297,-5.337
0.228,0.032,0.298,-5.337
0.245,0.033,0.293,-5.337
0.219,0.036,0.292,-5.337
0.166,0.039,0.291,-5.337
0.138,0.040,0.294,-5.337
0.171,0.039,0.293,-5.337
0.197,0.036,0.295,-5.337
0.227,0.034,0.296,-5.337
0.226,0.037,0.297,-5.337
0.234,0.038,0.296,-5.337
0.183,0.039,0.295,-5.337
0.139,0.036,0.292,-5.337
0.212,0.031,0.290,-5.337
0.205,0.035,0.291,-5.337
0.168,0.041,0.298,-5.337
0.157,0.045,0.301,-5.337
0.172,0.045,0.299,-5.337
0.158,0.042,0.291,-5.337
0.152,0.040,0.289,-5.337
0.145,0.038,0.293,-5.337
0.113,0.038,0.293,-5.337
0.125,0.034,0.295,-5.337
0.196,0.032,0.298,-5.337
0.177,0.032,0.300,-5.337
0.196,0.032,0.298,-5.337
0.235,0.034,0.296,-5.337
0.185,0.032,0.294,-5.337
0.178,0.028,0.292,-5.337
0.216,0.027,0.285,-5.337
0.230,0.030,0.286,-5.337
0.223,0.032,0.293,-5.337
0.185,0.035,0.296,-5.337
0.156,0.032,0.293,-5.337
0.171,0.031,0.292,-5.337
0.222,0.031,0.292,-5.337
0.190,0.033,0.295,-5.337
0.154,0.035,0.297,-5.337
0.150,0.037,0.297,-5.337
0.119,0.038,0.294,-5.337
0.069,0.040,0.297,-5.337
0.118,0.037,0.296,-5.337
0.181,0.035,0.294,-5.337
0.183,0.031,0.292,-5.337
0.160,0.029,0.289,-5.337
0.167,0.028,0.287,-5.337
0.221,0.034,0.290,-5.337
0.258,0.032,0.294,-5.337
0.243,0.030,0.293,-5.337
0.227,0.031,0.294,-5.337
0.174,0.034,0.295,-5.337
0.177,0.033,0.293,-5.337
0.231,0.029,0.290,-5.337
0.214,0.028,0.291,-5.337
0.177,0.031,0.290,-5.337
0.149,0.032,0.291,-5.337
0.176,0.031,0.292,-5.337
0.170,0.034,0.294,-5.337
0.178,0.033,0.296,-5.337
0.207,0.032,0.295,-5.337
0.198,0.034,0.292,-5.337
0.178,0.035,0.289,-5.337
0.150,0.035,0.289,-5.337
0.168,0.031,0.293,-5.337
0.158,0.032,0.295,-5.337
0.140,0.035,0.291,-5.337
0.115,0.035,0.288,-5.337
0.120,0.035,0.288,-5.337
0.145,0.034,0.293,-5.337
0.158,0.036,0.294,-5.337
0.132,0.035,0.293,-5.337
0.106,0.033,0.291,-5.337
0.127,0.033,0.293,-5.337
0.200,0.032,0.295,-5.337
0.262,0.029,0.297,-5.337
0.259,0.027,0.292,-5.337
0.214,0.029,0.291,-5.337
0.215,0.031,0.291,-5.337
0.166,0.033,0.292,-5.337
0.170,0.030,0.295,-5.337
0.262,0.027,0.294,-5.337
0.262,0.029,0.293,-5.337
0.183,0.034,0.294,-5.337
0.169,0.032,0.295,-5.337
0.123,0.033,0.294,-5.337
0.107,0.029,0.290,-5.337
0.142,0.030,0.290,-5.337
0.143,0.030,0.291,-5.337
0.154,0.031,0.290,-5.337
0.200,0.026,0.284,-5.337
0.198,0.028,0.285,-5.337
0.156,0.032,0.291,-5.337
0.142,0.032,0.296,-5.337
0.183,0.027,0.297,-5.337
0.211,0.022,0.298,-5.337
0.169,0.023,0.294,-5.337
0.142,0.028,0.288,-5.337
0.128,0.027,0.288,-5.337
0.201,0.021,0.290,-5.337
0.228,0.023,0.292,-5.337
0.178,0.029,0.292,-5.337
0.177,0.027,0.291,-5.337
0.151,0.024,0.289,-5.337
0.137,0.027,0.290,-5.337
0.167,0.031,0.289,-5.337
0.140,0.034,0.290,-5.337
0.154,0.029,0.291,-5.337
0.169,0.031,0.289,-5.337
0.136,0.031,0.288,-5.337
0.127,0.029,0.292,-5.337
0.147,0.027,0.297,-5.337
0.155,0.031,0.299,-5.337
0.198,0.032,0.295,-5.337
0.151,0.035,0.289,-5.337
0.102,0.036,0.290,-5.337
0.148,0.033,0.291,-5.337
0.134,0.032,0.292,-5.337
0.117,0.031,0.294,-5.337
0.155,0.029,0.292,-5.337
0.130,0.029,0.291,-5.337
0.120,0.031,0.289,-5.337
0.140,0.031,0.287,-5.337
0.187,0.029,0.288,-5.337
0.193,0.028,0.291,-5.337
0.185,0.027,0.294,-5.337
0.140,0.029,0.291,-5.337
0.127,0.029,0.290,-5.337
0.140,0.028,0.289,-5.337
0.189,0.029,0.292,-5.337
0.189,0.030,0.295,-5.337
0.132,0.035,0.296,-5.337
0.117,0.034,0.293,-5.337
0.149,0.033,0.289,-5.337
0.210,0.032,0.289,-5.337
0.216,0.033,0.290,-5.337
0.195,0.031,0.289,-5.337
0.196,0.031,0.291,-5.337
0.180,0.032,0.291,-5.337
0.098,0.034,0.292,-5.337
0.135,0.035,0.291,-5.337
0.164,0.033,0.290,-5.337
0.206,0.030,0.284,-5.337
0.171,0.033,0.286,-5.337
0.117,0.037,0.296,-5.337
0.135,0.032,0.297,-5.337
0.192,0.029,0.292,-5.337
0.135,0.036,0.290,-5.337
0.090,0.037,0.292,-5.337
0.128,0.034,0.289,-5.337
0.125,0.034,0.289,-5.337
0.138,0.035,0.290,-5.337
0.093,0.039,0.291,-5.337
0.154,0.038,0.289,-5.337
0.187,0.038,0.287,-5.337
0.133,0.040,0.287,-5.337
0.121,0.040,0.291,-5.337
0.173,0.039,0.292,-5.337
0.143,0.042,0.291,-5.337
0.164,0.036,0.291,-5.337
0.191,0.035,0.292,-5.337
0.183,0.034,0.292,-5.337
0.186,0.037,0.292,-5.337
0.170,0.040,0.292,-5.337
0.157,0.041,0.290,-5.337
0.128,0.042,0.287,-5.337
0.104,0.040,0.289,-5.337
0.111,0.038,0.292,-5.337
0.163,0.037,0.292,-5.337
0.184,0.036,0.291,-5.337
0.154,0.036,0.292,-5.337
0.142,0.037,0.292,-5.337
0.171,0.036,0.289,-5.337
0.187,0.034,0.287,-5.337
0.202,0.035,0.288,-5.337
0.166,0.040,0.294,-5.337
0.149,0.038,0.293,-5.337
0.106,0.039,0.289,-5.337
0.105,0.038,0.287,-5.337
0.105,0.038,0.290,-5.337
0.154,0.036,0.291,-5.337
0.175,0.037,0.289,-5.337
0.187,0.036,0.288,-5.337
0.191,0.037,0.290,-5.337
0.176,0.039,0.291,-5.337
0.163,0.039,0.290,-5.337
0.111,0.040,0.289,-5.337
0.101,0.041,0.291,-5.337
0.160,0.036,0.296,-5.337
0.187,0.035,0.297,-5.337
0.174,0.039,0.295,-5.337
0.154,0.042,0.292,-5.337
0.106,0.043,0.289,-5.337
0.087,0.044,0.290,-5.337
0.099,0.040,0.290,-5.337
0.108,0.041,0.289,-5.337
0.144,0.037,0.287,-5.337
0.188,0.037,0.289,-5.337
0.192,0.038,0.292,-5.337
0.181,0.038,0.294,-5.337
0.102,0.038,0.296,-5.337
0.060,0.041,0.293,-5.337
0.127,0.041,0.290,-5.337
0.162,0.043,0.289,-5.337
0.147,0.045,0.290,-5.337
0.158,0.043,0.287,-5.337
0.208,0.042,0.289,-5.337
0.235,0.040,0.291,-5.337
0.246,0.042,0.290,-5.337
0.244,0.046,0.291,-5.337
0.184,0.050,0.297,-5.337
0.104,0.050,0.294,-5.337
0.166,0.050,0.289,-5.337
0.213,0.048,0.288,-5.337
0.149,0.049,0.291,-5.337
0.104,0.049,0.291,-5.337
0.152,0.046,0.291,-5.337
0.255,0.043,0.293,-5.337
0.259,0.047,0.294,-5.337
0.173,0.050,0.290,-5.337
0.128,0.048,0.287,-5.337
0.162,0.046,0.288,-5.337
0.209,0.046,0.294,-5.337
0.206,0.045,0.297,-5.337
0.218,0.040,0.296,-5.337
0.224,0.040,0.294,-5.337
0.182,0.041,0.293,-5.337
0.116,0.046,0.291,-5.337
0.095,0.045,0.289,-5.337
0.085,0.044,0.287,-5.337
0.109,0.048,0.288,-5.337
0.169,0.049,0.286,-5.337
0.149,0.049,0.286,-5.337
0.089,0.048,0.288,-5.337
0.149,0.047,0.287,-5.337
0.199,0.046,0.288,-5.337
0.204,0.047,0.292,-5.337
0.166,0.047,0.296,-5.337
0.166,0.047,0.295,-5.337
0.188,0.046,0.292,-5.337
0.213,0.047,0.288,-5.337
0.231,0.049,0.285,-5.337
0.243,0.047,0.285,-5.337
0.242,0.047,0.290,-5.337
0.219,0.050,0.292,-5.337
0.218,0.048,0.291,-5.337
0.189,0.047,0.293,-5.337
0.160,0.049,0.293,-5.337
0.184,0.050,0.293,-5.337
0.189,0.051,0.291,-5.337
0.211,0.050,0.291,-5.337
0.211,0.051,0.289,-5.337
0.158,0.052,0.290,-5.337
0.153,0.053,0.289,-5.337
0.162,0.056,0.293,-5.337
0.187,0.055,0.297,-5.337
0.204,0.055,0.298,-5.337
0.225,0.052,0.295,-5.337
0.232,0.052,0.290,-5.337
0.193,0.050,0.286,-5.337
0.188,0.050,0.289,-5.337
0.183,0.051,0.292,-5.337
0.220,0.052,0.295,-5.337
0.233,0.049,0.295,-5.337
0.162,0.053,0.293,-5.337
0.099,0.054,0.289,-5.337
0.166,0.052,0.289,-5.337
0.208,0.050,0.292,-5.337
0.193,0.051,0.295,-5.337
0.179,0.053,0.298,-5.337
0.173,0.051,0.299,-5.337
0.122,0.051,0.298,-5.337
0.075,0.055,0.293,-5.337
0.153,0.055,0.292,-5.337
0.180,0.056,0.292,-5.337
0.105,0.056,0.292,-5.337
0.164,0.048,0.290,-5.337
0.232,0.048,0.292,-5.337
0.296,0.052,0.294,-5.337
0.259,0.054,0.296,-5.337
0.190,0.053,0.294,-5.337
0.182,0.052,0.291,-5.337
0.227,0.050,0.292,-5.337
0.210,0.054,0.296,-5.337
0.209,0.054,0.294,-5.337
0.222,0.050,0.293,-5.337
0.249,0.049,0.295,-5.337
0.232,0.053,0.295,-5.337
0.214,0.054,0.294,-5.337
0.141,0.057,0.296,-5.337
0.129,0.057,0.300,-5.337
0.183,0.054,0.297,-5.337
0.254,0.051,0.294,-5.337
0.273,0.053,0.289,-5.337
0.211,0.054,0.289,-5.337
0.182,0.054,0.293,-5.337
0.220,0.052,0.297,-5.337
0.253,0.054,0.294,-5.337
0.192,0.059,0.294,-5.337
0.181,0.058,0.296,-5.337
0.193,0.058,0.299,-5.337
0.223,0.058,0.295,-5.337
0.246,0.056,0.290,-5.337
0.215,0.056,0.290,-5.337
0.202,0.055,0.294,-5.337
0.214,0.052,0.298,-5.337
0.213,0.053,0.297,-5.337
0.209,0.051,0.294,-5.337
0.266,0.052,0.293,-5.337
0.256,0.056,0.290,-5.337
0.216,0.055,0.288,-5.337
0.167,0.056,0.291,-5.337
0.137,0.058,0.295,-5.337
0.208,0.055,0.290,-5.337
0.234,0.056,0.285,-5.337
0.201,0.057,0.285,-5.337
0.213,0.054,0.290,-5.337
0.239,0.056,0.288,-5.337
0.258,0.057,0.285,-5.337
0.310,0.055,0.288,-5.337
0.353,0.054,0.290,-5.337
0.297,0.058,0.291,-5.337
0.190,0.062,0.292,-5.337
0.208,0.061,0.295,-5.337
0.217,0.060,0.292,-5.337
0.219,0.062,0.291,-5.337
0.220,0.064,0.291,-5.337
0.241,0.064,0.292,-5.337
0.248,0.063,0.292,-5.337
0.218,0.065,0.291,-5.337
0.225,0.060,0.293,-5.337
0.239,0.062,0.294,-5.337
0.214,0.060,0.293,-5.337
0.173,0.066,0.290,-5.337
0.186,0.067,0.291,-5.337
0.221,0.064,0.292,-5.337
0.270,0.063,0.292,-5.337
0.298,0.063,0.289,-5.337
0.240,0.063,0.287,-5.337
0.237,0.062,0.289,-5.337
0.272,0.062,0.292,-5.337
0.289,0.061,0.294,-5.337
0.307,0.060,0.293,-5.337
0.310,0.058,0.294,-5.337
0.321,0.056,0.295,-5.337
0.343,0.056,0.290,-5.337
0.279,0.060,0.285,-5.337
0.205,0.062,0.285,-5.337
0.246,0.062,0.290,-5.337
0.313,0.059,0.293,-5.337
0.284,0.060,0.293,-5.337
0.201,0.060,0.290,-5.337
0.196,0.060,0.290,-5.337
0.235,0.054,0.290,-5.337
0.248,0.054,0.288,-5.337
0.235,0.059,0.290,-5.337
0.213,0.061,0.292,-5.337
0.199,0.060,0.295,-5.337
0.191,0.057,0.294,-5.337
0.161,0.057,0.290,-5.337
0.171,0.059,0.290,-5.337
0.215,0.057,0.291,-5.337
0.242,0.057,0.291,-5.337
0.194,0.061,0.295,-5.337
0.204,0.060,0.295,-5.337
0.243,0.057,0.290,-5.337
0.228,0.058,0.285,-5.337
0.255,0.058,0.289,-5.337
0.290,0.057,0.291,-5.337
0.240,0.061,0.297,-5.337
0.222,0.059,0.293,-5.337
0.217,0.060,0.290,-5.337
0.232,0.057,0.289,-5.337
0.251,0.060,0.289,-5.337
