[Parameters]
Operating Mode, Feedback
Subject  AA..ZZ, WT
Session  0..99, 43
No. Trials (1..9999), 500
Mouse Number, 1
Pressure Probe Serial Port, \00\00\00\04COM4
Save additional csv file, TRUE
Save using mouse number, FALSE
A/D Monitor Rate (Hz), 30000.000000
A/D Stimulate Rate (Hz), 30000.000000
A/D input range (+/- V), 5
No. Channels to acquire (N), 2
Pre-Stim Acq. time (ms), 100.000000
Post-Stim Acq. time (ms), 900.000000
Analysis window parameters.M-response Start (ms), 1.100000
Analysis window parameters.M-response Duration (ms), 5.500000
Analysis window parameters.H-response Duration (ms), 6.000000
Analysis window parameters.H-response Start (ms), 6.500000
Feedback window, H response
Proportional gain, 0.100000
Target value, 6.700000
Feedback Ch., 1
Stim Channel to Control (1-4), 4
Trial, 32
Wait for EMG Conditions, FALSE
Channel to monitor (0 - N-1), 1
EMG Hi Limit, 2.000000
EMG Lo Limit, 0.001000
Inter-Stim delay (sec), 10.000000
EMG Monitor Mode, Mean
Time to run Long Stim.(sec), 30
Save Long Stim Data?, OFF
BURST Save time (ms), 1000
BURST Save Interval (x above), 10
Long-Stim. Rep. Rate (Hz), 10.000000
Stim type cluster array.<size(s)>, 4
Stim type cluster array 0.Stimulus Output, Electrical
Stim type cluster array 1.Stimulus Output, OFF
Stim type cluster array 2.Stimulus Output, OFF
Stim type cluster array 3.Stimulus Output, Motor Length
Stim specs cluster array.<size(s)>, 4
Stim specs cluster array 0.Initial Stimulus ampl., 0.300000
Stim specs cluster array 0.Maximum Stimulus, 1.120000
Stim specs cluster array 0.#Pulses in train, 4
Stim specs cluster array 0.Peak Level time (ms), 1.000000
Stim specs cluster array 0.Total pulse period (ms), 150.000000
Stim specs cluster array 0.Start Delay (ms), -50.000000
Stim specs cluster array 0.Pulse Shape, Square
Stim specs cluster array 0.Ramp/Rel. time (ms), 0.100000
Stim specs cluster array 0.Peak Amplitude (V), 0.120000
Stim specs cluster array 1.Initial Stimulus ampl., 0.000000
Stim specs cluster array 1.Maximum Stimulus, 0.000000
Stim specs cluster array 1.#Pulses in train, 3
Stim specs cluster array 1.Peak Level time (ms), 29.000000
Stim specs cluster array 1.Total pulse period (ms), 200.000000
Stim specs cluster array 1.Start Delay (ms), 0.000000
Stim specs cluster array 1.Pulse Shape, Square
Stim specs cluster array 1.Ramp/Rel. time (ms), 0.000000
Stim specs cluster array 1.Peak Amplitude (V), 2.000000
Stim specs cluster array 2.Initial Stimulus ampl., 0.000000
Stim specs cluster array 2.Maximum Stimulus, 0.000000
Stim specs cluster array 2.#Pulses in train, 1
Stim specs cluster array 2.Peak Level time (ms), 25.000000
Stim specs cluster array 2.Total pulse period (ms), 200.000000
Stim specs cluster array 2.Start Delay (ms), 0.000000
Stim specs cluster array 2.Pulse Shape, Square
Stim specs cluster array 2.Ramp/Rel. time (ms), 20.000000
Stim specs cluster array 2.Peak Amplitude (V), 10.000000
Stim specs cluster array 3.Initial Stimulus ampl., 0.000000
Stim specs cluster array 3.Maximum Stimulus, 20.000000
Stim specs cluster array 3.#Pulses in train, 25
Stim specs cluster array 3.Peak Level time (ms), 0.100000
Stim specs cluster array 3.Total pulse period (ms), 4.000000
Stim specs cluster array 3.Start Delay (ms), 205.000000
Stim specs cluster array 3.Pulse Shape, Triangle
Stim specs cluster array 3.Ramp/Rel. time (ms), 3.000000
Stim specs cluster array 3.Peak Amplitude (V), 0.500000
Force cal. (mN/Volt), 100.000000
Force Range (mN), 100.000000
Length cal. (mm/Volt), 10.000000
Length Range (mm), 10.000000
Stim. 1, 0.300000
Stim. 2, 0.000000
Stim. 3, 0.000000
Stim. 4, 0.000000
Monitor acquire time (ms), 100.000000
EMG graph Ymax, 0.100000
Travel limit (mm), 20.000000
Use Pressure Probe, FALSE
Pressure goal (g), 100
Speed (mm/sec), 5.000000
Dwell time (ms), 100.000000
Pressure limit (g), 500.000000
Channel amplitude offset, 0.000000

[DATA]

0.181,0.045,0.281,-5.337
0.137,0.046,0.278,-5.337
0.105,0.047,0.278,-5.337
0.140,0.043,0.282,-5.337
0.177,0.041,0.282,-5.337
0.234,0.037,0.283,-5.337
0.205,0.039,0.284,-5.337
0.229,0.041,0.286,-5.337
0.183,0.039,0.283,-5.337
0.181,0.041,0.280,-5.337
0.201,0.044,0.276,-5.337
0.270,0.045,0.279,-5.337
0.301,0.041,0.280,-5.337
0.251,0.041,0.279,-5.337
0.183,0.042,0.275,-5.337
0.155,0.046,0.280,-5.337
0.197,0.043,0.284,-5.337
0.202,0.042,0.285,-5.337
0.185,0.044,0.282,-5.337
0.209,0.042,0.280,-5.337
0.226,0.042,0.278,-5.337
0.245,0.043,0.279,-5.337
0.242,0.045,0.283,-5.337
0.205,0.045,0.285,-5.337
0.170,0.042,0.284,-5.337
0.178,0.040,0.279,-5.337
0.153,0.040,0.279,-5.337
0.195,0.038,0.283,-5.337
0.246,0.038,0.288,-5.337
0.265,0.037,0.285,-5.337
0.288,0.036,0.280,-5.337
0.213,0.037,0.277,-5.337
0.182,0.040,0.276,-5.337
0.233,0.036,0.277,-5.337
0.325,0.036,0.280,-5.337
0.335,0.036,0.283,-5.337
0.212,0.038,0.286,-5.337
0.180,0.036,0.285,-5.337
0.158,0.039,0.284,-5.337
0.113,0.041,0.279,-5.337
0.203,0.038,0.276,-5.337
0.241,0.036,0.275,-5.337
0.237,0.038,0.278,-5.337
0.273,0.038,0.281,-5.337
0.260,0.038,0.282,-5.337
0.176,0.037,0.282,-5.337
0.224,0.034,0.282,-5.337
0.187,0.035,0.282,-5.337
0.099,0.037,0.280,-5.337
0.120,0.036,0.280,-5.337
0.198,0.036,0.279,-5.337
0.213,0.041,0.280,-5.337
0.184,0.038,0.280,-5.337
0.103,0.041,0.280,-5.337
0.092,0.042,0.283,-5.337
0.070,0.043,0.282,-5.337
0.051,0.037,0.277,-5.337
0.066,0.035,0.278,-5.337
0.127,0.035,0.281,-5.337
0.165,0.033,0.280,-5.337
0.177,0.034,0.281,-5.337
0.171,0.035,0.281,-5.337
0.158,0.038,0.279,-5.337
0.098,0.041,0.276,-5.337
0.101,0.040,0.280,-5.337
0.128,0.037,0.286,-5.337
0.118,0.037,0.286,-5.337
0.148,0.035,0.285,-5.337
0.166,0.035,0.286,-5.337
0.155,0.037,0.284,-5.337
0.147,0.036,0.283,-5.337
0.126,0.038,0.278,-5.337
0.117,0.040,0.274,-5.337
0.150,0.039,0.271,-5.337
0.200,0.036,0.271,-5.337
0.180,0.037,0.274,-5.337
0.131,0.040,0.281,-5.337
0.188,0.036,0.285,-5.337
0.252,0.036,0.284,-5.337
0.214,0.035,0.283,-5.337
0.161,0.035,0.282,-5.337
0.164,0.040,0.277,-5.337
0.214,0.040,0.278,-5.337
0.162,0.038,0.280,-5.337
0.109,0.036,0.283,-5.337
0.122,0.038,0.282,-5.337
0.174,0.037,0.279,-5.337
0.170,0.036,0.277,-5.337
0.155,0.037,0.278,-5.337
0.141,0.038,0.277,-5.337
0.193,0.037,0.277,-5.337
0.186,0.040,0.283,-5.337
0.113,0.041,0.285,-5.337
0.093,0.042,0.281,-5.337
0.118,0.037,0.276,-5.337
0.182,0.037,0.278,-5.337
0.206,0.042,0.279,-5.337
0.214,0.039,0.275,-5.337
0.234,0.040,0.275,-5.337
0.169,0.044,0.280,-5.337
0.094,0.041,0.282,-5.337
0.113,0.039,0.282,-5.337
0.158,0.034,0.281,-5.337
0.167,0.035,0.280,-5.337
0.123,0.040,0.279,-5.337
0.144,0.039,0.282,-5.337
0.187,0.035,0.284,-5.337
0.197,0.036,0.280,-5.337
0.160,0.036,0.276,-5.337
0.107,0.037,0.271,-5.337
0.115,0.037,0.271,-5.337
0.091,0.033,0.276,-5.337
0.111,0.036,0.280,-5.337
0.098,0.038,0.278,-5.337
0.175,0.035,0.278,-5.337
0.202,0.037,0.284,-5.337
0.182,0.038,0.286,-5.337
0.187,0.035,0.281,-5.337
0.178,0.038,0.278,-5.337
0.161,0.038,0.276,-5.337
0.125,0.038,0.276,-5.337
0.095,0.037,0.277,-5.337
0.081,0.037,0.277,-5.337
0.121,0.036,0.277,-5.337
0.142,0.038,0.275,-5.337
0.109,0.038,0.275,-5.337
0.142,0.037,0.275,-5.337
0.169,0.034,0.275,-5.337
0.167,0.032,0.278,-5.337
0.150,0.035,0.280,-5.337
0.176,0.034,0.283,-5.337
0.150,0.034,0.282,-5.337
0.095,0.034,0.276,-5.337
0.070,0.035,0.274,-5.337
0.086,0.039,0.275,-5.337
0.112,0.039,0.277,-5.337
0.144,0.031,0.276,-5.337
0.187,0.032,0.278,-5.337
0.185,0.037,0.280,-5.337
0.151,0.039,0.286,-5.337
0.140,0.040,0.283,-5.337
0.160,0.040,0.277,-5.337
0.202,0.038,0.274,-5.337
0.188,0.038,0.275,-5.337
0.138,0.038,0.276,-5.337
0.138,0.041,0.282,-5.337
0.174,0.039,0.285,-5.337
0.202,0.037,0.286,-5.337
0.236,0.033,0.283,-5.337
0.233,0.036,0.281,-5.337
0.237,0.034,0.278,-5.337
0.213,0.036,0.278,-5.337
0.199,0.032,0.275,-5.337
0.183,0.036,0.275,-5.337
0.119,0.041,0.274,-5.337
0.114,0.041,0.273,-5.337
0.086,0.041,0.273,-5.337
0.083,0.042,0.271,-5.337
0.113,0.042,0.272,-5.337
0.179,0.041,0.275,-5.337
0.208,0.039,0.280,-5.337
0.193,0.041,0.283,-5.337
0.104,0.043,0.284,-5.337
0.104,0.041,0.282,-5.337
0.233,0.036,0.283,-5.337
0.275,0.034,0.284,-5.337
0.235,0.036,0.285,-5.337
0.172,0.039,0.287,-5.337
0.138,0.040,0.285,-5.337
0.151,0.037,0.282,-5.337
0.133,0.038,0.281,-5.337
0.154,0.037,0.281,-5.337
0.142,0.037,0.281,-5.337
0.146,0.035,0.281,-5.337
0.172,0.032,0.280,-5.337
0.167,0.032,0.277,-5.337
0.113,0.037,0.274,-5.337
0.058,0.040,0.278,-5.337
0.124,0.036,0.282,-5.337
0.174,0.039,0.286,-5.337
0.151,0.042,0.282,-5.337
0.099,0.041,0.279,-5.337
0.075,0.036,0.275,-5.337
0.097,0.035,0.276,-5.337
0.083,0.039,0.280,-5.337
0.122,0.043,0.281,-5.337
0.142,0.043,0.281,-5.337
0.170,0.043,0.281,-5.337
0.145,0.039,0.278,-5.337
0.162,0.035,0.276,-5.337
0.176,0.038,0.277,-5.337
0.210,0.039,0.280,-5.337
0.181,0.037,0.280,-5.337
0.094,0.038,0.279,-5.337
0.113,0.039,0.281,-5.337
0.164,0.039,0.281,-5.337
0.109,0.040,0.276,-5.337
0.093,0.039,0.272,-5.337
0.135,0.036,0.272,-5.337
0.139,0.042,0.276,-5.337
0.153,0.037,0.280,-5.337
0.199,0.034,0.279,-5.337
0.198,0.034,0.281,-5.337
0.174,0.037,0.282,-5.337
0.145,0.040,0.282,-5.337
0.093,0.042,0.281,-5.337
0.129,0.040,0.279,-5.337
0.170,0.039,0.276,-5.337
0.188,0.041,0.276,-5.337
0.176,0.044,0.275,-5.337
0.163,0.045,0.277,-5.337
0.221,0.044,0.278,-5.337
0.200,0.047,0.277,-5.337
0.161,0.047,0.277,-5.337
0.190,0.046,0.280,-5.337
0.164,0.048,0.279,-5.337
0.215,0.047,0.281,-5.337
0.187,0.051,0.279,-5.337
0.119,0.051,0.278,-5.337
0.140,0.049,0.275,-5.337
0.189,0.042,0.277,-5.337
0.216,0.041,0.282,-5.337
0.197,0.045,0.282,-5.337
0.212,0.043,0.282,-5.337
0.218,0.042,0.279,-5.337
0.164,0.043,0.275,-5.337
0.166,0.046,0.271,-5.337
0.133,0.050,0.272,-5.337
0.110,0.049,0.278,-5.337
0.232,0.043,0.285,-5.337
0.280,0.044,0.285,-5.337
0.216,0.049,0.282,-5.337
0.138,0.053,0.281,-5.337
0.091,0.050,0.279,-5.337
0.123,0.045,0.276,-5.337
0.159,0.048,0.275,-5.337
0.201,0.049,0.276,-5.337
0.165,0.047,0.280,-5.337
0.223,0.047,0.280,-5.337
0.203,0.051,0.279,-5.337
0.124,0.053,0.280,-5.337
0.109,0.054,0.279,-5.337
0.096,0.053,0.276,-5.337
0.127,0.052,0.279,-5.337
0.158,0.048,0.282,-5.337
0.153,0.050,0.276,-5.337
0.169,0.052,0.272,-5.337
0.194,0.051,0.273,-5.337
0.134,0.054,0.278,-5.337
0.109,0.050,0.281,-5.337
0.192,0.047,0.286,-5.337
0.188,0.049,0.286,-5.337
0.154,0.049,0.284,-5.337
0.170,0.047,0.278,-5.337
0.189,0.047,0.277,-5.337
0.161,0.048,0.275,-5.337
0.156,0.048,0.278,-5.337
0.245,0.045,0.279,-5.337
0.255,0.048,0.280,-5.337
0.233,0.050,0.282,-5.337
0.228,0.051,0.281,-5.337
0.236,0.050,0.280,-5.337
0.199,0.052,0.279,-5.337
0.147,0.053,0.278,-5.337
0.124,0.054,0.279,-5.337
0.195,0.054,0.281,-5.337
0.233,0.052,0.280,-5.337
0.218,0.051,0.279,-5.337
0.191,0.052,0.275,-5.337
0.202,0.053,0.278,-5.337
0.216,0.049,0.276,-5.337
0.206,0.050,0.277,-5.337
0.209,0.055,0.275,-5.337
0.217,0.054,0.278,-5.337
0.204,0.052,0.280,-5.337
0.192,0.054,0.283,-5.337
0.145,0.053,0.281,-5.337
0.141,0.053,0.279,-5.337
0.129,0.053,0.278,-5.337
0.216,0.053,0.279,-5.337
0.228,0.052,0.280,-5.337
0.191,0.054,0.282,-5.337
0.210,0.053,0.285,-5.337
0.261,0.055,0.283,-5.337
0.213,0.058,0.278,-5.337
0.191,0.057,0.276,-5.337
0.226,0.055,0.275,-5.337
0.254,0.056,0.276,-5.337
0.246,0.057,0.278,-5.337
0.191,0.058,0.282,-5.337
0.264,0.055,0.282,-5.337
0.263,0.058,0.279,-5.337
0.182,0.060,0.278,-5.337
0.189,0.058,0.278,-5.337
0.252,0.054,0.277,-5.337
0.193,0.057,0.274,-5.337
0.126,0.058,0.275,-5.337
0.176,0.055,0.280,-5.337
0.203,0.054,0.284,-5.337
0.164,0.052,0.282,-5.337
0.195,0.055,0.276,-5.337
0.265,0.054,0.273,-5.337
0.296,0.051,0.280,-5.337
0.312,0.048,0.282,-5.337
0.230,0.052,0.281,-5.337
0.153,0.053,0.280,-5.337
0.220,0.053,0.278,-5.337
0.182,0.055,0.283,-5.337
0.224,0.055,0.288,-5.337
0.299,0.055,0.286,-5.337
0.272,0.054,0.281,-5.337
0.227,0.053,0.281,-5.337
0.180,0.052,0.278,-5.337
0.160,0.054,0.277,-5.337
0.192,0.055,0.276,-5.337
0.253,0.054,0.277,-5.337
0.257,0.056,0.277,-5.337
0.213,0.059,0.282,-5.337
0.180,0.061,0.282,-5.337
0.195,0.060,0.280,-5.337
0.215,0.057,0.279,-5.337
0.279,0.053,0.282,-5.337
0.297,0.050,0.283,-5.337
0.264,0.055,0.282,-5.337
0.272,0.054,0.278,-5.337
0.278,0.053,0.276,-5.337
0.180,0.052,0.275,-5.337
0.162,0.053,0.277,-5.337
0.220,0.053,0.276,-5.337
0.280,0.058,0.278,-5.337
0.262,0.061,0.278,-5.337
0.207,0.061,0.279,-5.337
0.184,0.058,0.282,-5.337
0.235,0.058,0.284,-5.337
0.213,0.059,0.283,-5.337
0.158,0.059,0.278,-5.337
0.257,0.055,0.279,-5.337
0.335,0.055,0.279,-5.337
0.237,0.057,0.277,-5.337
0.168,0.059,0.275,-5.337
0.229,0.055,0.280,-5.337
0.256,0.056,0.282,-5.337
0.262,0.058,0.280,-5.337
0.215,0.055,0.277,-5.337
0.238,0.056,0.281,-5.337
0.228,0.057,0.283,-5.337
0.232,0.055,0.283,-5.337
0.248,0.055,0.283,-5.337
0.230,0.054,0.279,-5.337
0.253,0.053,0.276,-5.337
0.270,0.056,0.276,-5.337
0.210,0.060,0.276,-5.337
0.252,0.057,0.275,-5.337
0.328,0.056,0.274,-5.337
0.261,0.057,0.274,-5.337
0.218,0.059,0.279,-5.337
0.211,0.058,0.281,-5.337
0.227,0.062,0.283,-5.337
0.228,0.064,0.282,-5.337
0.151,0.064,0.279,-5.337
0.182,0.059,0.274,-5.337
0.279,0.057,0.274,-5.337
0.297,0.056,0.273,-5.337
0.260,0.054,0.276,-5.337
0.229,0.056,0.279,-5.337
0.258,0.058,0.281,-5.337
0.284,0.057,0.282,-5.337
0.286,0.058,0.284,-5.337
0.297,0.052,0.279,-5.337
0.245,0.057,0.275,-5.337
0.173,0.057,0.276,-5.337
0.170,0.057,0.278,-5.337
0.224,0.053,0.276,-5.337
0.240,0.054,0.279,-5.337
0.189,0.059,0.280,-5.337
0.167,0.058,0.277,-5.337
0.162,0.054,0.276,-5.337
0.161,0.053,0.277,-5.337
0.187,0.056,0.278,-5.337
0.200,0.055,0.276,-5.337
0.212,0.053,0.275,-5.337
0.205,0.056,0.279,-5.337
0.211,0.057,0.283,-5.337
0.236,0.056,0.280,-5.337
0.263,0.057,0.278,-5.337
0.280,0.056,0.274,-5.337
0.313,0.055,0.276,-5.337
0.283,0.061,0.277,-5.337
0.262,0.063,0.278,-5.337
0.268,0.058,0.277,-5.337
0.294,0.058,0.275,-5.337
0.355,0.057,0.274,-5.337
0.280,0.059,0.279,-5.337
0.225,0.059,0.282,-5.337
0.179,0.061,0.284,-5.337
0.171,0.063,0.282,-5.337
0.230,0.058,0.279,-5.337
0.228,0.059,0.277,-5.337
0.209,0.060,0.276,-5.337
0.241,0.060,0.274,-5.337
0.195,0.065,0.274,-5.337
0.197,0.061,0.274,-5.337
0.217,0.061,0.276,-5.337
0.253,0.061,0.280,-5.337
0.260,0.061,0.279,-5.337
0.201,0.059,0.278,-5.337
0.220,0.060,0.275,-5.337
0.254,0.058,0.273,-5.337
0.238,0.056,0.274,-5.337
0.181,0.056,0.280,-5.337
0.167,0.054,0.281,-5.337
0.200,0.054,0.278,-5.337
0.230,0.052,0.274,-5.337
0.232,0.056,0.273,-5.337
0.297,0.053,0.273,-5.337
0.380,0.049,0.276,-5.337
0.315,0.049,0.279,-5.337
0.257,0.052,0.278,-5.337
0.275,0.052,0.276,-5.337
0.332,0.049,0.275,-5.337
0.275,0.049,0.276,-5.337
0.267,0.046,0.277,-5.337
0.241,0.047,0.277,-5.337
0.174,0.052,0.275,-5.337
0.163,0.053,0.272,-5.337
0.165,0.053,0.270,-5.337
0.172,0.050,0.274,-5.337
0.176,0.050,0.276,-5.337
0.287,0.049,0.278,-5.337
0.318,0.050,0.276,-5.337
0.210,0.053,0.272,-5.337
0.178,0.052,0.271,-5.337
0.261,0.051,0.275,-5.337
0.292,0.051,0.279,-5.337
0.259,0.054,0.278,-5.337
0.178,0.054,0.276,-5.337
0.133,0.053,0.275,-5.337
0.148,0.054,0.275,-5.337
0.230,0.050,0.275,-5.337
0.204,0.050,0.274,-5.337
0.211,0.052,0.277,-5.337
0.202,0.052,0.276,-5.337
0.186,0.051,0.274,-5.337
0.240,0.047,0.276,-5.337
0.279,0.051,0.278,-5.337
0.252,0.049,0.277,-5.337
0.292,0.047,0.275,-5.337
0.299,0.049,0.276,-5.337
0.229,0.050,0.276,-5.337
0.196,0.049,0.275,-5.337
0.219,0.046,0.277,-5.337
0.234,0.047,0.279,-5.337
0.242,0.046,0.278,-5.337
0.307,0.043,0.276,-5.337
0.275,0.044,0.272,-5.337
0.218,0.047,0.271,-5.337
0.277,0.044,0.271,-5.337
0.309,0.045,0.275,-5.337
0.196,0.046,0.277,-5.337
0.170,0.045,0.275,-5.337
0.227,0.048,0.274,-5.337
0.256,0.048,0.275,-5.337
0.289,0.048,0.274,-5.337
0.290,0.049,0.273,-5.337
0.203,0.046,0.275,-5.337
0.209,0.046,0.277,-5.337
0.220,0.047,0.276,-5.337
0.174,0.047,0.272,-5.337
0.182,0.045,0.270,-5.337
0.224,0.044,0.271,-5.337
0.176,0.046,0.273,-5.337
0.131,0.049,0.272,-5.337
0.163,0.048,0.272,-5.337
0.251,0.042,0.276,-5.337
0.267,0.042,0.277,-5.337
0.208,0.042,0.274,-5.337
0.218,0.043,0.269,-5.337
0.242,0.044,0.270,-5.337
0.221,0.041,0.275,-5.337
0.240,0.040,0.279,-5.337
0.159,0.047,0.281,-5.337
0.119,0.045,0.281,-5.337
0.125,0.043,0.279,-5.337
0.163,0.041,0.273,-5.337
0.185,0.043,0.269,-5.337
0.161,0.040,0.268,-5.337
0.204,0.037,0.271,-5.337
0.216,0.040,0.273,-5.337
0.177,0.045,0.275,-5.337
0.186,0.043,0.274,-5.337
0.250,0.040,0.270,-5.337
0.230,0.042,0.272,-5.337
0.236,0.044,0.275,-5.337
0.227,0.043,0.274,-5.337
0.272,0.042,0.272,-5.337
0.257,0.043,0.273,-5.337
0.273,0.042,0.275,-5.337
0.242,0.044,0.277,-5.337
0.131,0.045,0.276,-5.337
0.141,0.045,0.275,-5.337
0.229,0.044,0.274,-5.337
0.262,0.045,0.273,-5.337
0.242,0.041,0.274,-5.337
0.167,0.043,0.277,-5.337
0.126,0.041,0.275,-5.337
0.154,0.039,0.274,-5.337
0.232,0.040,0.276,-5.337
0.281,0.041,0.276,-5.337
0.327,0.040,0.275,-5.337
0.278,0.043,0.276,-5.337
0.142,0.045,0.276,-5.337
0.110,0.045,0.273,-5.337
0.120,0.046,0.274,-5.337
0.140,0.046,0.273,-5.337
0.160,0.043,0.274,-5.337
0.188,0.042,0.273,-5.337
0.173,0.042,0.274,-5.337
0.215,0.042,0.273,-5.337
0.228,0.042,0.275,-5.337
0.270,0.036,0.275,-5.337
0.277,0.033,0.274,-5.337
0.269,0.036,0.277,-5.337
0.252,0.037,0.281,-5.337
0.226,0.033,0.281,-5.337
0.225,0.033,0.278,-5.337
0.219,0.032,0.276,-5.337
0.190,0.034,0.274,-5.337
0.207,0.035,0.272,-5.337
0.159,0.040,0.272,-5.337
0.120,0.038,0.276,-5.337
0.134,0.038,0.277,-5.337
0.129,0.038,0.276,-5.337
0.179,0.036,0.276,-5.337
0.132,0.038,0.276,-5.337
0.123,0.037,0.272,-5.337
0.188,0.036,0.271,-5.337
0.259,0.034,0.271,-5.337
0.234,0.037,0.269,-5.337
0.194,0.037,0.267,-5.337
0.150,0.035,0.271,-5.337
0.187,0.037,0.273,-5.337
0.222,0.038,0.275,-5.337
0.153,0.040,0.277,-5.337
0.088,0.042,0.278,-5.337
0.152,0.040,0.277,-5.337
0.212,0.040,0.275,-5.337
0.151,0.041,0.276,-5.337
0.143,0.041,0.278,-5.337
0.226,0.039,0.277,-5.337
0.322,0.037,0.277,-5.337
0.296,0.039,0.275,-5.337
0.285,0.037,0.274,-5.337
0.227,0.039,0.276,-5.337
0.156,0.036,0.276,-5.337
0.158,0.036,0.274,-5.337
0.172,0.034,0.275,-5.337
0.150,0.036,0.277,-5.337
0.173,0.037,0.275,-5.337
0.234,0.036,0.272,-5.337
0.221,0.035,0.271,-5.337
0.214,0.033,0.275,-5.337
0.158,0.034,0.278,-5.337
0.106,0.038,0.277,-5.337
0.078,0.040,0.272,-5.337
0.109,0.037,0.271,-5.337
0.153,0.039,0.275,-5.337
0.096,0.041,0.282,-5.337
0.041,0.040,0.282,-5.337
0.092,0.040,0.277,-5.337
0.178,0.037,0.277,-5.337
0.208,0.038,0.275,-5.337
0.176,0.039,0.276,-5.337
0.175,0.038,0.276,-5.337
0.171,0.037,0.276,-5.337
0.156,0.035,0.276,-5.337
0.152,0.036,0.280,-5.337
0.159,0.038,0.281,-5.337
0.180,0.035,0.278,-5.337
0.182,0.035,0.271,-5.337
0.167,0.039,0.272,-5.337
0.173,0.040,0.275,-5.337
0.179,0.040,0.276,-5.337
0.190,0.042,0.277,-5.337
0.166,0.042,0.278,-5.337
0.167,0.041,0.277,-5.337
0.196,0.039,0.276,-5.337
0.136,0.039,0.278,-5.337
0.141,0.041,0.278,-5.337
0.161,0.041,0.278,-5.337
0.232,0.039,0.279,-5.337
0.225,0.037,0.278,-5.337
0.196,0.036,0.274,-5.337
0.252,0.036,0.272,-5.337
0.234,0.039,0.275,-5.337
0.155,0.041,0.276,-5.337
0.066,0.040,0.275,-5.337
0.114,0.038,0.273,-5.337
0.196,0.036,0.274,-5.337
0.181,0.037,0.278,-5.337
0.061,0.040,0.279,-5.337
0.017,0.041,0.277,-5.337
0.078,0.037,0.271,-5.337
0.154,0.035,0.274,-5.337
0.241,0.032,0.276,-5.337
0.186,0.036,0.275,-5.337
0.130,0.038,0.273,-5.337
0.185,0.037,0.274,-5.337
0.236,0.034,0.275,-5.337
0.188,0.032,0.277,-5.337
0.147,0.033,0.279,-5.337
0.118,0.039,0.281,-5.337
0.151,0.036,0.276,-5.337
0.139,0.037,0.272,-5.337
0.100,0.042,0.275,-5.337
0.120,0.042,0.279,-5.337
0.177,0.041,0.275,-5.337
0.216,0.042,0.271,-5.337
0.208,0.042,0.271,-5.337
0.190,0.041,0.276,-5.337
0.187,0.040,0.275,-5.337
0.197,0.038,0.272,-5.337
0.171,0.037,0.273,-5.337
0.179,0.037,0.272,-5.337
0.188,0.036,0.269,-5.337
0.177,0.039,0.267,-5.337
0.102,0.044,0.273,-5.337
0.074,0.044,0.278,-5.337
0.182,0.039,0.281,-5.337
0.199,0.041,0.278,-5.337
0.124,0.040,0.275,-5.337
0.103,0.035,0.277,-5.337
0.102,0.034,0.278,-5.337
0.099,0.036,0.279,-5.337
0.146,0.038,0.278,-5.337
0.133,0.040,0.275,-5.337
0.104,0.039,0.270,-5.337
0.101,0.042,0.271,-5.337
0.170,0.041,0.272,-5.337
0.145,0.040,0.276,-5.337
0.166,0.038,0.279,-5.337
0.231,0.039,0.278,-5.337
0.212,0.041,0.274,-5.337
0.141,0.045,0.272,-5.337
0.134,0.041,0.271,-5.337
0.215,0.034,0.275,-5.337
0.228,0.033,0.279,-5.337
0.182,0.032,0.279,-5.337
0.195,0.034,0.274,-5.337
0.180,0.037,0.271,-5.337
0.147,0.037,0.268,-5.337
0.156,0.037,0.271,-5.337
0.146,0.038,0.272,-5.337
0.124,0.037,0.274,-5.337
0.184,0.032,0.273,-5.337
0.214,0.033,0.271,-5.337
0.215,0.034,0.266,-5.337
0.201,0.037,0.267,-5.337
0.129,0.039,0.272,-5.337
0.092,0.042,0.277,-5.337
0.139,0.040,0.278,-5.337
0.164,0.039,0.278,-5.337
0.173,0.038,0.276,-5.337
0.180,0.038,0.274,-5.337
0.171,0.041,0.269,-5.337
0.201,0.041,0.271,-5.337
0.177,0.040,0.275,-5.337
0.177,0.040,0.276,-5.337
0.163,0.042,0.275,-5.337
0.190,0.043,0.276,-5.337
0.218,0.043,0.279,-5.337
0.178,0.038,0.280,-5.337
0.164,0.038,0.276,-5.337
0.211,0.040,0.276,-5.337
0.155,0.044,0.275,-5.337
0.095,0.041,0.271,-5.337
0.087,0.043,0.273,-5.337
0.160,0.042,0.274,-5.337
0.169,0.045,0.273,-5.337
0.168,0.045,0.273,-5.337
0.219,0.044,0.274,-5.337
0.224,0.045,0.275,-5.337
0.190,0.045,0.278,-5.337
0.145,0.043,0.279,-5.337
0.116,0.044,0.275,-5.337
0.117,0.039,0.274,-5.337
0.053,0.042,0.276,-5.337
0.081,0.042,0.274,-5.337
0.145,0.039,0.272,-5.337
0.213,0.039,0.274,-5.337
0.217,0.041,0.277,-5.337
0.211,0.040,0.277,-5.337
0.264,0.038,0.273,-5.337
0.269,0.039,0.272,-5.337
0.161,0.039,0.272,-5.337
0.080,0.042,0.272,-5.337
0.001,0.045,0.270,-5.337
0.025,0.045,0.273,-5.337
0.067,0.044,0.277,-5.337
0.067,0.044,0.280,-5.337
0.113,0.042,0.277,-5.337
0.147,0.043,0.274,-5.337
0.132,0.044,0.273,-5.337
0.081,0.045,0.276,-5.337
0.037,0.044,0.277,-5.337
0.101,0.044,0.276,-5.337
0.144,0.043,0.273,-5.337
0.100,0.044,0.270,-5.337
0.122,0.042,0.270,-5.337
0.172,0.045,0.269,-5.337
0.223,0.041,0.268,-5.337
0.206,0.039,0.272,-5.337
0.197,0.039,0.276,-5.337
0.235,0.042,0.276,-5.337
0.167,0.048,0.276,-5.337
0.112,0.049,0.276,-5.337
0.069,0.047,0.275,-5.337
0.116,0.045,0.277,-5.337
0.189,0.045,0.278,-5.337
0.183,0.049,0.273,-5.337
0.163,0.052,0.272,-5.337
0.172,0.054,0.273,-5.337
0.198,0.055,0.276,-5.337
0.207,0.055,0.278,-5.337
0.211,0.053,0.279,-5.337
0.218,0.053,0.277,-5.337
0.175,0.054,0.275,-5.337
0.157,0.056,0.275,-5.337
0.167,0.055,0.274,-5.337
0.179,0.054,0.274,-5.337
0.179,0.054,0.275,-5.337
0.219,0.054,0.274,-5.337
0.170,0.056,0.273,-5.337
0.030,0.055,0.275,-5.337
0.070,0.048,0.276,-5.337
0.177,0.045,0.276,-5.337
0.256,0.048,0.275,-5.337
0.287,0.051,0.273,-5.337
0.160,0.048,0.273,-5.337
0.109,0.049,0.276,-5.337
0.180,0.048,0.275,-5.337
0.220,0.048,0.275,-5.337
0.181,0.048,0.275,-5.337
0.149,0.049,0.277,-5.337
0.165,0.051,0.275,-5.337
0.192,0.050,0.277,-5.337
0.227,0.051,0.276,-5.337
0.220,0.050,0.275,-5.337
0.209,0.049,0.276,-5.337
0.207,0.050,0.276,-5.337
0.159,0.052,0.276,-5.337
0.186,0.055,0.276,-5.337
0.247,0.052,0.275,-5.337
0.234,0.049,0.276,-5.337
0.254,0.051,0.278,-5.337
0.196,0.053,0.275,-5.337
0.195,0.050,0.270,-5.337
0.223,0.052,0.271,-5.337
0.218,0.051,0.277,-5.337
0.235,0.046,0.277,-5.337
0.228,0.049,0.274,-5.337
0.186,0.051,0.274,-5.337
0.159,0.049,0.276,-5.337
0.134,0.047,0.274,-5.337
0.190,0.047,0.272,-5.337
0.169,0.047,0.273,-5.337
0.154,0.050,0.278,-5.337
0.144,0.055,0.280,-5.337
0.166,0.052,0.278,-5.337
0.247,0.045,0.278,-5.337
0.274,0.049,0.279,-5.337
0.251,0.051,0.275,-5.337
0.236,0.052,0.271,-5.337
0.198,0.053,0.268,-5.337
0.128,0.057,0.269,-5.337
0.172,0.055,0.273,-5.337
0.216,0.058,0.275,-5.337
0.245,0.058,0.278,-5.337
0.232,0.055,0.279,-5.337
0.170,0.055,0.277,-5.337
0.166,0.059,0.272,-5.337
0.133,0.058,0.274,-5.337
0.126,0.058,0.274,-5.337
0.221,0.055,0.274,-5.337
0.269,0.059,0.274,-5.337
0.221,0.061,0.275,-5.337
0.121,0.062,0.276,-5.337
0.140,0.060,0.276,-5.337
0.167,0.057,0.273,-5.337
0.240,0.055,0.277,-5.337
0.185,0.058,0.280,-5.337
0.166,0.057,0.277,-5.337
0.218,0.055,0.275,-5.337
0.216,0.052,0.274,-5.337
0.223,0.051,0.277,-5.337
0.237,0.052,0.277,-5.337
0.218,0.053,0.274,-5.337
0.203,0.052,0.274,-5.337
0.230,0.054,0.276,-5.337
0.206,0.055,0.277,-5.337
0.193,0.055,0.277,-5.337
0.203,0.055,0.277,-5.337
0.211,0.054,0.278,-5.337
0.208,0.051,0.276,-5.337
0.233,0.055,0.277,-5.337
0.160,0.057,0.279,-5.337
0.105,0.058,0.279,-5.337
0.173,0.055,0.276,-5.337
0.296,0.051,0.274,-5.337
0.323,0.051,0.274,-5.337
0.298,0.054,0.276,-5.337
0.269,0.054,0.276,-5.337
0.189,0.057,0.274,-5.337
0.188,0.057,0.273,-5.337
0.203,0.058,0.274,-5.337
0.189,0.059,0.277,-5.337
0.233,0.058,0.281,-5.337
0.278,0.056,0.280,-5.337
0.189,0.059,0.280,-5.337
0.201,0.060,0.280,-5.337
0.308,0.060,0.278,-5.337
0.298,0.062,0.280,-5.337
0.270,0.059,0.281,-5.337
0.208,0.060,0.278,-5.337
0.173,0.056,0.275,-5.337
0.245,0.051,0.274,-5.337
0.322,0.051,0.274,-5.337
0.338,0.052,0.274,-5.337
0.244,0.057,0.273,-5.337
0.186,0.057,0.274,-5.337
0.185,0.054,0.275,-5.337
0.172,0.055,0.279,-5.337
0.262,0.053,0.279,-5.337
0.268,0.054,0.278,-5.337
0.295,0.054,0.275,-5.337
0.302,0.054,0.273,-5.337
0.210,0.056,0.278,-5.337
0.155,0.058,0.281,-5.337
0.190,0.055,0.279,-5.337
0.263,0.053,0.274,-5.337
0.262,0.055,0.275,-5.337
0.204,0.057,0.281,-5.337
0.159,0.054,0.283,-5.337
0.182,0.050,0.277,-5.337
0.212,0.053,0.274,-5.337
0.217,0.056,0.279,-5.337
0.199,0.057,0.285,-5.337
0.178,0.055,0.283,-5.337
0.259,0.054,0.280,-5.337
0.247,0.054,0.279,-5.337
0.289,0.051,0.280,-5.337
0.271,0.051,0.277,-5.337
0.236,0.054,0.278,-5.337
0.194,0.054,0.278,-5.337
0.239,0.054,0.280,-5.337
0.300,0.054,0.280,-5.337
0.272,0.057,0.280,-5.337
0.263,0.055,0.279,-5.337
0.268,0.054,0.276,-5.337
0.289,0.056,0.272,-5.337
0.301,0.057,0.271,-5.337
0.305,0.057,0.274,-5.337
0.238,0.058,0.277,-5.337
0.263,0.056,0.278,-5.337
0.269,0.058,0.277,-5.337
0.244,0.061,0.280,-5.337
0.239,0.062,0.283,-5.337
0.267,0.062,0.286,-5.337
0.216,0.066,0.281,-5.337
0.233,0.064,0.277,-5.337
0.263,0.067,0.278,-5.337
0.283,0.063,0.283,-5.337
0.277,0.059,0.278,-5.337
0.289,0.059,0.275,-5.337
0.301,0.055,0.275,-5.337
0.256,0.057,0.277,-5.337
0.253,0.058,0.276,-5.337
0.243,0.061,0.273,-5.337
0.270,0.060,0.274,-5.337
0.297,0.060,0.279,-5.337
0.276,0.062,0.282,-5.337
0.249,0.062,0.283,-5.337
0.290,0.060,0.282,-5.337
0.262,0.060,0.280,-5.337
0.222,0.061,0.277,-5.337
0.155,0.061,0.276,-5.337
0.207,0.059,0.274,-5.337
0.288,0.058,0.276,-5.337
0.279,0.059,0.274,-5.337
0.287,0.059,0.270,-5.337
0.357,0.057,0.275,-5.337
0.353,0.064,0.278,-5.337
0.315,0.062,0.276,-5.337
0.315,0.059,0.272,-5.337
0.323,0.058,0.272,-5.337
0.265,0.059,0.273,-5.337
0.274,0.057,0.277,-5.337
0.229,0.055,0.275,-5.337
0.196,0.059,0.274,-5.337
0.140,0.065,0.276,-5.337
0.147,0.060,0.280,-5.337
0.174,0.060,0.279,-5.337
0.151,0.061,0.275,-5.337
0.171,0.061,0.274,-5.337
0.212,0.060,0.276,-5.337
0.270,0.058,0.275,-5.337
0.305,0.057,0.275,-5.337
0.245,0.062,0.276,-5.337
0.236,0.061,0.279,-5.337
0.239,0.059,0.281,-5.337
0.296,0.056,0.280,-5.337
0.295,0.054,0.277,-5.337
0.208,0.058,0.271,-5.337
0.162,0.061,0.270,-5.337
0.163,0.059,0.274,-5.337
0.199,0.058,0.275,-5.337
0.182,0.058,0.270,-5.337
0.196,0.055,0.272,-5.337
0.239,0.058,0.273,-5.337
0.292,0.062,0.274,-5.337
0.270,0.064,0.276,-5.337
0.188,0.065,0.275,-5.337
0.091,0.064,0.272,-5.337
0.168,0.060,0.273,-5.337
0.333,0.054,0.276,-5.337
0.339,0.052,0.278,-5.337
0.286,0.053,0.278,-5.337
0.268,0.053,0.278,-5.337
0.329,0.050,0.279,-5.337
0.327,0.052,0.281,-5.337
0.290,0.052,0.278,-5.337
0.281,0.053,0.272,-5.337
0.235,0.054,0.272,-5.337
0.162,0.057,0.276,-5.337
0.159,0.058,0.277,-5.337
0.182,0.059,0.273,-5.337
0.197,0.055,0.273,-5.337
0.317,0.050,0.275,-5.337
0.317,0.051,0.274,-5.337
0.223,0.057,0.272,-5.337
0.187,0.057,0.276,-5.337
0.289,0.055,0.276,-5.337
0.292,0.055,0.275,-5.337
0.208,0.054,0.279,-5.337
0.242,0.053,0.282,-5.337
0.258,0.050,0.279,-5.337
0.291,0.051,0.273,-5.337
0.272,0.054,0.271,-5.337
0.234,0.055,0.275,-5.337
0.273,0.051,0.279,-5.337
0.273,0.054,0.276,-5.337
0.217,0.056,0.270,-5.337
0.236,0.053,0.271,-5.337
0.205,0.049,0.276,-5.337
0.207,0.049,0.276,-5.337
0.233,0.054,0.273,-5.337
0.227,0.055,0.273,-5.337
0.202,0.053,0.278,-5.337
0.150,0.050,0.280,-5.337
0.229,0.050,0.282,-5.337
0.306,0.047,0.280,-5.337
0.231,0.051,0.281,-5.337
0.137,0.055,0.277,-5.337
0.168,0.054,0.278,-5.337
0.183,0.050,0.276,-5.337
0.194,0.051,0.278,-5.337
0.220,0.051,0.274,-5.337
0.233,0.054,0.272,-5.337
0.177,0.056,0.269,-5.337
0.179,0.054,0.269,-5.337
0.275,0.050,0.274,-5.337
0.275,0.051,0.278,-5.337
0.259,0.049,0.279,-5.337
0.285,0.049,0.280,-5.337
0.288,0.047,0.279,-5.337
0.296,0.048,0.279,-5.337
0.290,0.050,0.280,-5.337
0.288,0.046,0.278,-5.337
0.273,0.042,0.274,-5.337
0.217,0.046,0.270,-5.337
0.155,0.047,0.272,-5.337
0.217,0.048,0.271,-5.337
0.232,0.051,0.275,-5.337
0.129,0.056,0.278,-5.337
0.124,0.053,0.281,-5.337
0.228,0.048,0.282,-5.337
0.285,0.049,0.283,-5.337
0.227,0.052,0.283,-5.337
0.124,0.050,0.278,-5.337
0.168,0.049,0.272,-5.337
0.268,0.048,0.269,-5.337
0.322,0.047,0.269,-5.337
0.262,0.049,0.274,-5.337
0.210,0.046,0.278,-5.337
0.198,0.047,0.278,-5.337
0.204,0.049,0.281,-5.337
0.238,0.050,0.280,-5.337
0.235,0.051,0.276,-5.337
0.218,0.048,0.273,-5.337
0.176,0.050,0.272,-5.337
0.125,0.049,0.272,-5.337
0.200,0.048,0.274,-5.337
0.201,0.051,0.275,-5.337
0.195,0.048,0.274,-5.337
0.241,0.048,0.273,-5.337
0.233,0.051,0.274,-5.337
0.225,0.047,0.274,-5.337
0.177,0.050,0.277,-5.337
0.151,0.051,0.279,-5.337
0.218,0.047,0.279,-5.337
0.180,0.045,0.275,-5.337
0.151,0.045,0.276,-5.337
0.214,0.042,0.277,-5.337
0.204,0.042,0.274,-5.337
0.186,0.041,0.271,-5.337
0.156,0.045,0.276,-5.337
0.178,0.045,0.281,-5.337
0.181,0.043,0.282,-5.337
0.190,0.044,0.276,-5.337
0.162,0.046,0.272,-5.337
0.122,0.044,0.276,-5.337
0.120,0.048,0.279,-5.337
0.182,0.045,0.279,-5.337
0.277,0.039,0.277,-5.337
0.286,0.039,0.275,-5.337
0.202,0.042,0.276,-5.337
0.138,0.043,0.279,-5.337
0.193,0.042,0.278,-5.337
0.293,0.043,0.277,-5.337
0.300,0.040,0.277,-5.337
0.240,0.043,0.273,-5.337
0.195,0.041,0.271,-5.337
0.254,0.043,0.273,-5.337
0.223,0.041,0.273,-5.337
0.176,0.044,0.273,-5.337
0.205,0.039,0.275,-5.337
0.235,0.042,0.276,-5.337
0.236,0.042,0.279,-5.337
0.200,0.043,0.280,-5.337
0.180,0.041,0.278,-5.337
0.182,0.039,0.277,-5.337
0.120,0.047,0.275,-5.337
0.142,0.047,0.274,-5.337
0.219,0.042,0.275,-5.337
0.228,0.038,0.275,-5.337
0.184,0.039,0.276,-5.337
0.178,0.040,0.276,-5.337
0.098,0.042,0.276,-5.337
0.147,0.040,0.272,-5.337
0.195,0.041,0.274,-5.337
0.246,0.038,0.278,-5.337
0.265,0.038,0.281,-5.337
0.225,0.039,0.278,-5.337
0.179,0.041,0.277,-5.337
0.134,0.045,0.276,-5.337
0.138,0.046,0.278,-5.337
0.173,0.045,0.276,-5.337
0.150,0.047,0.273,-5.337
0.183,0.043,0.273,-5.337
0.216,0.040,0.276,-5.337
0.189,0.042,0.276,-5.337
0.158,0.042,0.273,-5.337
0.170,0.044,0.273,-5.337
0.137,0.045,0.274,-5.337
0.180,0.043,0.277,-5.337
0.175,0.041,0.276,-5.337
0.191,0.042,0.274,-5.337
0.251,0.041,0.271,-5.337
0.235,0.044,0.271,-5.337
0.173,0.044,0.273,-5.337
0.178,0.039,0.277,-5.337
0.225,0.036,0.276,-5.337
0.284,0.036,0.276,-5.337
0.310,0.035,0.277,-5.337
0.178,0.040,0.279,-5.337
0.114,0.041,0.274,-5.337
0.226,0.037,0.270,-5.337
0.240,0.041,0.275,-5.337
0.168,0.042,0.281,-5.337
0.125,0.043,0.283,-5.337
0.161,0.043,0.278,-5.337
0.146,0.042,0.275,-5.337
0.173,0.043,0.279,-5.337
0.192,0.042,0.280,-5.337
0.193,0.043,0.277,-5.337
0.193,0.043,0.272,-5.337
0.185,0.044,0.270,-5.337
0.219,0.040,0.272,-5.337
0.207,0.039,0.273,-5.337
0.153,0.042,0.275,-5.337
0.184,0.044,0.278,-5.337
0.179,0.045,0.280,-5.337
0.162,0.043,0.280,-5.337
0.169,0.040,0.281,-5.337
0.137,0.044,0.276,-5.337
0.153,0.042,0.273,-5.337
0.187,0.042,0.272,-5.337
0.190,0.039,0.274,-5.337
0.213,0.036,0.275,-5.337
0.225,0.038,0.276,-5.337
0.224,0.039,0.280,-5.337
0.155,0.042,0.280,-5.337
0.120,0.037,0.279,-5.337
0.181,0.034,0.280,-5.337
0.146,0.038,0.281,-5.337
0.160,0.038,0.279,-5.337
0.228,0.033,0.278,-5.337
0.182,0.032,0.278,-5.337
0.185,0.033,0.277,-5.337
0.155,0.032,0.277,-5.337
0.100,0.035,0.275,-5.337
0.141,0.039,0.273,-5.337
0.163,0.040,0.275,-5.337
0.131,0.038,0.278,-5.337
0.136,0.036,0.283,-5.337
0.164,0.038,0.282,-5.337
0.150,0.037,0.280,-5.337
0.177,0.034,0.277,-5.337
0.148,0.035,0.279,-5.337
0.098,0.036,0.281,-5.337
0.146,0.037,0.280,-5.337
0.170,0.039,0.276,-5.337
0.203,0.040,0.275,-5.337
0.167,0.041,0.276,-5.337
0.175,0.042,0.279,-5.337
0.210,0.041,0.279,-5.337
0.212,0.038,0.278,-5.337
0.152,0.038,0.275,-5.337
0.106,0.040,0.276,-5.337
0.070,0.041,0.277,-5.337
0.085,0.042,0.278,-5.337
0.144,0.041,0.279,-5.337
0.170,0.042,0.279,-5.337
0.191,0.042,0.280,-5.337
0.232,0.039,0.282,-5.337
0.265,0.036,0.283,-5.337
0.221,0.040,0.279,-5.337
0.120,0.038,0.275,-5.337
0.105,0.039,0.274,-5.337
0.096,0.041,0.279,-5.337
0.101,0.042,0.280,-5.337
0.142,0.040,0.280,-5.337
0.183,0.039,0.280,-5.337
0.205,0.039,0.282,-5.337
0.171,0.039,0.279,-5.337
0.217,0.036,0.274,-5.337
0.260,0.037,0.272,-5.337
0.229,0.041,0.274,-5.337
0.179,0.040,0.276,-5.337
0.247,0.037,0.277,-5.337
0.183,0.042,0.277,-5.337
0.121,0.043,0.278,-5.337
0.102,0.042,0.276,-5.337
0.128,0.040,0.276,-5.337
0.175,0.040,0.277,-5.337
0.110,0.044,0.274,-5.337
0.055,0.040,0.272,-5.337
0.062,0.037,0.273,-5.337
0.095,0.041,0.277,-5.337
0.128,0.039,0.279,-5.337
0.171,0.039,0.279,-5.337
0.196,0.042,0.278,-5.337
0.153,0.043,0.279,-5.337
0.053,0.042,0.276,-5.337
0.068,0.043,0.276,-5.337
0.170,0.042,0.274,-5.337
0.206,0.042,0.275,-5.337
0.150,0.042,0.276,-5.337
0.177,0.040,0.276,-5.337
0.165,0.038,0.277,-5.337
0.144,0.036,0.277,-5.337
0.132,0.035,0.273,-5.337
0.121,0.039,0.271,-5.337
0.101,0.038,0.272,-5.337
0.109,0.039,0.276,-5.337
0.140,0.036,0.277,-5.337
0.155,0.037,0.274,-5.337
0.102,0.040,0.273,-5.337
0.088,0.041,0.273,-5.337
0.131,0.043,0.276,-5.337
0.144,0.046,0.274,-5.337
0.163,0.042,0.274,-5.337
0.161,0.041,0.275,-5.337
0.182,0.042,0.278,-5.337
0.139,0.046,0.277,-5.337
0.121,0.048,0.275,-5.337
0.150,0.048,0.273,-5.337
0.181,0.046,0.278,-5.337
0.187,0.047,0.279,-5.337
0.142,0.048,0.278,-5.337
0.133,0.051,0.277,-5.337
0.136,0.052,0.276,-5.337
0.124,0.049,0.276,-5.337
0.194,0.049,0.275,-5.337
0.201,0.047,0.273,-5.337
0.250,0.043,0.271,-5.337
0.148,0.046,0.274,-5.337
0.081,0.046,0.275,-5.337
0.162,0.044,0.274,-5.337
0.249,0.047,0.275,-5.337
0.262,0.046,0.275,-5.337
0.190,0.045,0.273,-5.337
0.101,0.045,0.274,-5.337
0.119,0.045,0.272,-5.337
0.171,0.044,0.270,-5.337
0.193,0.047,0.273,-5.337
0.158,0.049,0.279,-5.337
0.140,0.049,0.280,-5.337
0.161,0.053,0.278,-5.337
0.175,0.049,0.272,-5.337
0.190,0.045,0.271,-5.337
0.188,0.042,0.272,-5.337
0.170,0.042,0.272,-5.337
0.189,0.043,0.274,-5.337
0.184,0.050,0.279,-5.337
0.184,0.047,0.280,-5.337
0.153,0.045,0.280,-5.337
0.104,0.044,0.278,-5.337
0.143,0.048,0.276,-5.337
0.214,0.049,0.274,-5.337
0.235,0.048,0.270,-5.337
0.185,0.048,0.272,-5.337
0.160,0.046,0.275,-5.337
0.191,0.044,0.276,-5.337
0.184,0.043,0.274,-5.337
0.212,0.045,0.273,-5.337
0.225,0.047,0.276,-5.337
0.204,0.047,0.279,-5.337
0.192,0.048,0.276,-5.337
0.131,0.051,0.274,-5.337
0.158,0.053,0.272,-5.337
0.228,0.048,0.274,-5.337
0.276,0.044,0.277,-5.337
0.204,0.049,0.275,-5.337
0.067,0.050,0.273,-5.337
0.063,0.053,0.274,-5.337
0.105,0.051,0.277,-5.337
0.083,0.054,0.277,-5.337
0.078,0.050,0.276,-5.337
0.151,0.048,0.274,-5.337
0.217,0.047,0.273,-5.337
0.218,0.047,0.272,-5.337
0.219,0.048,0.272,-5.337
0.227,0.045,0.274,-5.337
0.212,0.047,0.273,-5.337
0.171,0.051,0.274,-5.337
0.136,0.055,0.276,-5.337
0.145,0.054,0.277,-5.337
0.185,0.049,0.277,-5.337
0.231,0.049,0.274,-5.337
0.299,0.049,0.273,-5.337
0.293,0.047,0.274,-5.337
0.198,0.046,0.278,-5.337
0.203,0.047,0.281,-5.337
0.240,0.050,0.278,-5.337
0.176,0.050,0.272,-5.337
0.130,0.054,0.270,-5.337
0.140,0.052,0.271,-5.337
0.179,0.049,0.274,-5.337
0.142,0.050,0.277,-5.337
0.116,0.052,0.278,-5.337
0.123,0.050,0.279,-5.337
0.171,0.048,0.281,-5.337
0.234,0.047,0.280,-5.337
0.182,0.048,0.275,-5.337
0.170,0.047,0.273,-5.337
0.161,0.047,0.273,-5.337
0.236,0.042,0.277,-5.337
0.249,0.042,0.276,-5.337
0.171,0.047,0.274,-5.337
0.154,0.048,0.267,-5.337
0.181,0.050,0.267,-5.337
0.201,0.047,0.268,-5.337
0.175,0.049,0.269,-5.337
0.091,0.053,0.270,-5.337
0.103,0.053,0.274,-5.337
0.206,0.051,0.277,-5.337
0.171,0.052,0.281,-5.337
0.160,0.049,0.281,-5.337
0.198,0.051,0.278,-5.337
0.223,0.050,0.275,-5.337
0.247,0.051,0.271,-5.337
0.226,0.050,0.270,-5.337
0.197,0.051,0.273,-5.337
0.210,0.053,0.278,-5.337
0.248,0.053,0.280,-5.337
0.266,0.051,0.281,-5.337
0.230,0.051,0.278,-5.337
0.190,0.053,0.272,-5.337
0.180,0.053,0.270,-5.337
0.222,0.052,0.274,-5.337
0.231,0.050,0.274,-5.337
0.159,0.053,0.272,-5.337
0.110,0.053,0.269,-5.337
0.146,0.052,0.269,-5.337
0.145,0.051,0.272,-5.337
0.200,0.053,0.277,-5.337
0.234,0.053,0.276,-5.337
0.210,0.053,0.274,-5.337
0.155,0.051,0.275,-5.337
0.142,0.050,0.279,-5.337
0.157,0.049,0.278,-5.337
0.149,0.052,0.275,-5.337
0.215,0.052,0.276,-5.337
0.225,0.054,0.279,-5.337
0.210,0.052,0.274,-5.337
0.201,0.054,0.271,-5.337
0.226,0.052,0.273,-5.337
0.271,0.054,0.276,-5.337
0.214,0.056,0.276,-5.337
0.157,0.059,0.275,-5.337
0.225,0.055,0.274,-5.337
0.307,0.051,0.275,-5.337
0.291,0.053,0.277,-5.337
0.235,0.054,0.278,-5.337
0.258,0.055,0.278,-5.337
0.274,0.052,0.275,-5.337
0.258,0.054,0.275,-5.337
0.220,0.055,0.277,-5.337
0.194,0.055,0.277,-5.337
0.151,0.058,0.272,-5.337
0.198,0.057,0.274,-5.337
0.266,0.053,0.278,-5.337
0.263,0.056,0.280,-5.337
0.280,0.056,0.279,-5.337
0.300,0.056,0.277,-5.337
0.267,0.057,0.276,-5.337
0.177,0.058,0.276,-5.337
0.220,0.053,0.274,-5.337
0.272,0.055,0.271,-5.337
0.259,0.059,0.272,-5.337
0.179,0.059,0.272,-5.337
0.145,0.054,0.273,-5.337
0.200,0.054,0.275,-5.337
0.226,0.052,0.279,-5.337
0.220,0.055,0.281,-5.337
0.225,0.057,0.280,-5.337
0.225,0.059,0.273,-5.337
0.179,0.060,0.274,-5.337
0.211,0.061,0.272,-5.337
0.207,0.062,0.271,-5.337
0.187,0.061,0.273,-5.337
0.207,0.062,0.278,-5.337
0.214,0.059,0.276,-5.337
0.228,0.057,0.278,-5.337
0.228,0.054,0.276,-5.337
0.268,0.055,0.279,-5.337
0.282,0.054,0.284,-5.337
0.235,0.058,0.282,-5.337
0.212,0.056,0.277,-5.337
0.270,0.058,0.275,-5.337
0.237,0.060,0.276,-5.337
0.196,0.060,0.277,-5.337
0.197,0.057,0.275,-5.337
0.231,0.057,0.272,-5.337
0.211,0.060,0.268,-5.337
0.220,0.062,0.271,-5.337
0.249,0.065,0.273,-5.337
0.270,0.065,0.274,-5.337
0.284,0.059,0.278,-5.337
0.315,0.058,0.278,-5.337
0.266,0.058,0.278,-5.337
0.268,0.059,0.275,-5.337
0.336,0.060,0.278,-5.337
0.336,0.062,0.278,-5.337
0.253,0.066,0.279,-5.337
0.185,0.064,0.281,-5.337
0.197,0.066,0.282,-5.337
0.174,0.063,0.279,-5.337
0.164,0.062,0.278,-5.337
0.226,0.062,0.274,-5.337
0.159,0.065,0.274,-5.337
0.107,0.065,0.274,-5.337
0.195,0.063,0.275,-5.337
0.220,0.061,0.273,-5.337
0.211,0.061,0.274,-5.337
0.260,0.059,0.277,-5.337
0.246,0.063,0.280,-5.337
0.159,0.067,0.281,-5.337
0.117,0.069,0.279,-5.337
0.194,0.064,0.278,-5.337
0.239,0.064,0.277,-5.337
0.267,0.062,0.278,-5.337
0.326,0.061,0.273,-5.337
0.283,0.063,0.271,-5.337
0.280,0.063,0.270,-5.337
0.286,0.063,0.272,-5.337
0.256,0.064,0.275,-5.337
0.220,0.068,0.277,-5.337
0.249,0.066,0.281,-5.337
0.360,0.062,0.282,-5.337
0.390,0.062,0.280,-5.337
0.329,0.063,0.276,-5.337
0.264,0.065,0.278,-5.337
0.254,0.066,0.280,-5.337
0.328,0.063,0.281,-5.337
0.302,0.065,0.283,-5.337
0.274,0.068,0.282,-5.337
0.231,0.068,0.278,-5.337
0.216,0.065,0.276,-5.337
0.225,0.068,0.276,-5.337
0.253,0.067,0.279,-5.337
0.238,0.070,0.278,-5.337
0.224,0.072,0.277,-5.337
0.255,0.068,0.273,-5.337
0.236,0.068,0.272,-5.337
0.201,0.064,0.275,-5.337
0.247,0.056,0.279,-5.337
0.262,0.057,0.281,-5.337
0.207,0.064,0.280,-5.337
0.240,0.067,0.278,-5.337
0.292,0.061,0.276,-5.337
0.304,0.056,0.275,-5.337
0.285,0.061,0.276,-5.337
0.368,0.062,0.279,-5.337
0.363,0.064,0.279,-5.337
0.336,0.067,0.274,-5.337
0.290,0.067,0.271,-5.337
0.281,0.066,0.274,-5.337
0.267,0.066,0.278,-5.337
0.228,0.066,0.278,-5.337
0.133,0.068,0.274,-5.337
0.134,0.067,0.272,-5.337
0.188,0.063,0.275,-5.337
0.214,0.063,0.276,-5.337
0.178,0.065,0.275,-5.337
0.162,0.063,0.278,-5.337
0.254,0.061,0.279,-5.337
0.244,0.061,0.280,-5.337
0.246,0.058,0.280,-5.337
0.238,0.060,0.277,-5.337
0.196,0.061,0.275,-5.337
0.101,0.062,0.273,-5.337
0.179,0.056,0.271,-5.337
0.262,0.059,0.272,-5.337
0.234,0.062,0.273,-5.337
0.173,0.062,0.273,-5.337
0.157,0.060,0.274,-5.337
0.194,0.055,0.274,-5.337
0.215,0.052,0.276,-5.337
0.235,0.058,0.278,-5.337
0.241,0.058,0.277,-5.337
0.218,0.055,0.272,-5.337
0.200,0.056,0.272,-5.337
0.217,0.054,0.270,-5.337
0.290,0.050,0.272,-5.337
0.305,0.050,0.275,-5.337
0.309,0.052,0.277,-5.337
0.235,0.054,0.279,-5.337
0.261,0.054,0.278,-5.337
0.329,0.051,0.274,-5.337
0.285,0.049,0.275,-5.337
0.251,0.049,0.275,-5.337
0.230,0.053,0.275,-5.337
0.236,0.053,0.276,-5.337
0.297,0.051,0.279,-5.337
0.259,0.050,0.280,-5.337
0.214,0.050,0.277,-5.337
0.149,0.050,0.276,-5.337
0.148,0.051,0.274,-5.337
0.178,0.049,0.274,-5.337
0.171,0.048,0.277,-5.337
0.194,0.048,0.277,-5.337
0.235,0.050,0.273,-5.337
0.258,0.048,0.269,-5.337
0.215,0.048,0.269,-5.337
0.161,0.048,0.270,-5.337
0.161,0.047,0.273,-5.337
0.219,0.048,0.279,-5.337
0.243,0.046,0.281,-5.337
0.219,0.047,0.281,-5.337
0.211,0.047,0.278,-5.337
0.217,0.048,0.278,-5.337
0.278,0.049,0.274,-5.337
0.338,0.047,0.274,-5.337
0.293,0.043,0.272,-5.337
0.253,0.047,0.271,-5.337
0.212,0.050,0.270,-5.337
0.237,0.049,0.273,-5.337
0.300,0.045,0.276,-5.337
0.293,0.047,0.278,-5.337
0.241,0.044,0.275,-5.337
0.264,0.046,0.275,-5.337
0.318,0.043,0.276,-5.337
0.295,0.044,0.278,-5.337
0.223,0.045,0.281,-5.337
0.204,0.045,0.281,-5.337
0.201,0.045,0.277,-5.337
0.194,0.044,0.275,-5.337
0.238,0.043,0.274,-5.337
0.230,0.046,0.274,-5.337
0.181,0.047,0.271,-5.337
0.173,0.045,0.271,-5.337
0.218,0.043,0.274,-5.337
0.215,0.048,0.279,-5.337
0.142,0.048,0.281,-5.337
0.139,0.047,0.280,-5.337
0.196,0.048,0.278,-5.337
0.197,0.047,0.274,-5.337
0.133,0.050,0.271,-5.337
0.145,0.046,0.271,-5.337
0.205,0.044,0.273,-5.337
0.241,0.042,0.275,-5.337
0.209,0.047,0.275,-5.337
0.154,0.045,0.272,-5.337
0.156,0.046,0.272,-5.337
0.172,0.047,0.274,-5.337
0.181,0.049,0.277,-5.337
0.219,0.047,0.278,-5.337
0.197,0.046,0.279,-5.337
0.191,0.045,0.275,-5.337
0.220,0.045,0.274,-5.337
0.235,0.046,0.280,-5.337
0.175,0.047,0.276,-5.337
0.121,0.049,0.269,-5.337
0.154,0.045,0.268,-5.337
0.203,0.049,0.273,-5.337
0.177,0.049,0.279,-5.337
0.189,0.046,0.282,-5.337
0.201,0.042,0.280,-5.337
0.186,0.043,0.277,-5.337
0.131,0.044,0.274,-5.337
0.106,0.044,0.274,-5.337
0.159,0.045,0.274,-5.337
0.153,0.049,0.274,-5.337
0.168,0.045,0.276,-5.337
0.195,0.042,0.278,-5.337
0.267,0.042,0.278,-5.337
0.291,0.039,0.276,-5.337
0.203,0.039,0.273,-5.337
0.145,0.042,0.275,-5.337
0.176,0.045,0.280,-5.337
0.207,0.047,0.277,-5.337
0.192,0.043,0.275,-5.337
0.215,0.037,0.272,-5.337
0.233,0.035,0.272,-5.337
0.224,0.039,0.270,-5.337
0.193,0.041,0.273,-5.337
0.236,0.038,0.273,-5.337
0.266,0.038,0.276,-5.337
0.243,0.038,0.274,-5.337
0.239,0.041,0.273,-5.337
0.193,0.043,0.277,-5.337
0.152,0.045,0.279,-5.337
0.197,0.042,0.279,-5.337
0.232,0.043,0.274,-5.337
0.210,0.044,0.273,-5.337
0.243,0.042,0.276,-5.337
0.253,0.044,0.277,-5.337
0.177,0.047,0.278,-5.337
0.156,0.047,0.278,-5.337
0.102,0.045,0.274,-5.337
0.142,0.040,0.271,-5.337
0.208,0.039,0.274,-5.337
0.220,0.045,0.278,-5.337
0.162,0.047,0.274,-5.337
0.104,0.048,0.272,-5.337
0.054,0.048,0.268,-5.337
0.108,0.045,0.268,-5.337
0.238,0.043,0.271,-5.337
0.243,0.045,0.275,-5.337
0.168,0.046,0.272,-5.337
0.147,0.046,0.273,-5.337
0.180,0.043,0.275,-5.337
0.177,0.044,0.279,-5.337
0.147,0.041,0.276,-5.337
0.217,0.037,0.272,-5.337
0.293,0.034,0.271,-5.337
0.236,0.040,0.272,-5.337
0.114,0.044,0.275,-5.337
0.150,0.044,0.280,-5.337
0.210,0.046,0.280,-5.337
0.249,0.046,0.278,-5.337
0.245,0.042,0.279,-5.337
0.245,0.039,0.279,-5.337
0.228,0.037,0.275,-5.337
0.172,0.041,0.272,-5.337
0.141,0.045,0.272,-5.337
0.167,0.043,0.274,-5.337
0.227,0.040,0.276,-5.337
0.209,0.044,0.273,-5.337
0.133,0.042,0.272,-5.337
0.136,0.044,0.272,-5.337
0.208,0.046,0.277,-5.337
0.183,0.048,0.279,-5.337
0.171,0.048,0.278,-5.337
0.142,0.047,0.277,-5.337
0.110,0.048,0.277,-5.337
0.150,0.042,0.275,-5.337
0.198,0.041,0.272,-5.337
0.238,0.040,0.273,-5.337
0.236,0.044,0.273,-5.337
0.142,0.046,0.276,-5.337
0.078,0.046,0.278,-5.337
0.085,0.044,0.274,-5.337
0.125,0.044,0.271,-5.337
0.158,0.042,0.272,-5.337
0.166,0.040,0.273,-5.337
0.152,0.041,0.273,-5.337
0.171,0.043,0.277,-5.337
0.161,0.044,0.284,-5.337
0.160,0.045,0.283,-5.337
0.142,0.046,0.279,-5.337
0.192,0.043,0.274,-5.337
0.236,0.042,0.276,-5.337
0.192,0.045,0.274,-5.337
0.100,0.042,0.274,-5.337
0.111,0.043,0.272,-5.337
0.204,0.044,0.274,-5.337
0.232,0.042,0.274,-5.337
0.204,0.041,0.277,-5.337
0.149,0.044,0.276,-5.337
0.094,0.048,0.272,-5.337
0.111,0.045,0.271,-5.337
0.162,0.038,0.276,-5.337
0.248,0.038,0.277,-5.337
0.173,0.044,0.274,-5.337
0.070,0.046,0.276,-5.337
0.098,0.045,0.279,-5.337
0.189,0.041,0.276,-5.337
0.155,0.043,0.273,-5.337
0.058,0.042,0.274,-5.337
0.100,0.038,0.277,-5.337
0.217,0.040,0.278,-5.337
0.217,0.043,0.277,-5.337
0.163,0.041,0.276,-5.337
0.150,0.041,0.275,-5.337
0.170,0.039,0.275,-5.337
0.190,0.039,0.272,-5.337
0.155,0.045,0.271,-5.337
0.179,0.045,0.273,-5.337
0.112,0.046,0.275,-5.337
0.079,0.042,0.275,-5.337
0.104,0.043,0.278,-5.337
0.116,0.042,0.279,-5.337
0.162,0.041,0.277,-5.337
0.211,0.038,0.272,-5.337
0.211,0.038,0.276,-5.337
0.169,0.041,0.280,-5.337
0.087,0.043,0.283,-5.337
0.075,0.047,0.281,-5.337
0.142,0.046,0.277,-5.337
0.172,0.044,0.277,-5.337
0.174,0.043,0.278,-5.337
0.159,0.044,0.277,-5.337
0.139,0.042,0.275,-5.337
0.155,0.045,0.275,-5.337
0.078,0.046,0.274,-5.337
0.029,0.046,0.280,-5.337
0.099,0.042,0.279,-5.337
0.165,0.041,0.278,-5.337
0.180,0.042,0.278,-5.337
0.165,0.047,0.277,-5.337
0.199,0.048,0.275,-5.337
0.177,0.051,0.276,-5.337
0.113,0.050,0.279,-5.337
0.200,0.042,0.277,-5.337
0.282,0.043,0.277,-5.337
0.280,0.044,0.278,-5.337
0.224,0.042,0.282,-5.337
0.227,0.041,0.285,-5.337
0.149,0.043,0.285,-5.337
0.132,0.046,0.279,-5.337
0.219,0.042,0.275,-5.337
0.249,0.039,0.270,-5.337
0.201,0.042,0.273,-5.337
0.178,0.043,0.277,-5.337
0.157,0.044,0.282,-5.337
0.105,0.044,0.282,-5.337
0.106,0.044,0.278,-5.337
0.182,0.041,0.272,-5.337
0.179,0.043,0.273,-5.337
0.156,0.045,0.275,-5.337
0.176,0.043,0.278,-5.337
0.174,0.046,0.277,-5.337
0.205,0.044,0.275,-5.337
0.194,0.043,0.276,-5.337
0.179,0.044,0.277,-5.337
0.237,0.040,0.279,-5.337
0.243,0.043,0.281,-5.337
0.196,0.045,0.279,-5.337
0.193,0.041,0.278,-5.337
0.223,0.042,0.279,-5.337
0.214,0.047,0.275,-5.337
0.217,0.046,0.272,-5.337
0.246,0.048,0.274,-5.337
0.164,0.051,0.279,-5.337
0.157,0.048,0.282,-5.337
0.193,0.047,0.283,-5.337
0.157,0.045,0.275,-5.337
0.112,0.043,0.272,-5.337
0.070,0.044,0.274,-5.337
0.131,0.041,0.275,-5.337
0.185,0.044,0.278,-5.337
0.153,0.050,0.282,-5.337
0.102,0.050,0.277,-5.337
0.166,0.049,0.271,-5.337
0.179,0.050,0.272,-5.337
0.141,0.052,0.277,-5.337
0.201,0.049,0.277,-5.337
0.216,0.051,0.279,-5.337
0.191,0.050,0.279,-5.337
0.211,0.049,0.279,-5.337
0.246,0.044,0.274,-5.337
0.176,0.047,0.271,-5.337
0.127,0.051,0.271,-5.337
0.148,0.048,0.274,-5.337
0.218,0.044,0.275,-5.337
0.174,0.046,0.273,-5.337
0.130,0.047,0.272,-5.337
0.184,0.044,0.273,-5.337
0.202,0.045,0.276,-5.337
0.151,0.048,0.275,-5.337
0.099,0.052,0.276,-5.337
0.085,0.053,0.273,-5.337
0.109,0.050,0.276,-5.337
0.134,0.050,0.276,-5.337
0.110,0.053,0.277,-5.337
0.078,0.052,0.276,-5.337
0.045,0.053,0.277,-5.337
0.067,0.050,0.277,-5.337
0.157,0.051,0.275,-5.337
0.226,0.053,0.276,-5.337
0.292,0.050,0.280,-5.337
0.334,0.048,0.277,-5.337
0.254,0.049,0.274,-5.337
0.192,0.050,0.279,-5.337
0.176,0.053,0.283,-5.337
0.208,0.052,0.278,-5.337
0.130,0.054,0.275,-5.337
0.116,0.054,0.275,-5.337
0.144,0.050,0.276,-5.337
0.186,0.049,0.275,-5.337
0.179,0.050,0.275,-5.337
0.175,0.052,0.274,-5.337
0.169,0.051,0.273,-5.337
0.216,0.047,0.275,-5.337
0.270,0.048,0.275,-5.337
0.218,0.048,0.274,-5.337
0.177,0.050,0.268,-5.337
0.193,0.052,0.270,-5.337
0.176,0.056,0.271,-5.337
0.141,0.054,0.271,-5.337
0.142,0.051,0.272,-5.337
0.275,0.048,0.274,-5.337
0.246,0.052,0.274,-5.337
0.179,0.053,0.275,-5.337
0.194,0.051,0.275,-5.337
0.152,0.052,0.274,-5.337
0.116,0.052,0.275,-5.337
0.088,0.052,0.278,-5.337
0.125,0.046,0.278,-5.337
0.176,0.048,0.277,-5.337
0.229,0.049,0.277,-5.337
0.231,0.047,0.275,-5.337
0.215,0.044,0.277,-5.337
0.145,0.046,0.280,-5.337
0.082,0.052,0.279,-5.337
0.123,0.054,0.276,-5.337
0.201,0.056,0.275,-5.337
0.199,0.055,0.270,-5.337
0.147,0.055,0.270,-5.337
0.126,0.052,0.271,-5.337
0.165,0.053,0.276,-5.337
0.157,0.051,0.277,-5.337
0.173,0.052,0.278,-5.337
0.185,0.053,0.275,-5.337
0.170,0.055,0.276,-5.337
0.170,0.057,0.280,-5.337
0.204,0.057,0.278,-5.337
0.224,0.055,0.270,-5.337
0.254,0.056,0.271,-5.337
0.271,0.054,0.269,-5.337
0.292,0.053,0.266,-5.337
0.339,0.048,0.271,-5.337
0.286,0.052,0.276,-5.337
0.216,0.053,0.278,-5.337
0.186,0.055,0.278,-5.337
0.179,0.053,0.277,-5.337
0.270,0.051,0.275,-5.337
0.282,0.054,0.275,-5.337
0.250,0.056,0.275,-5.337
0.186,0.059,0.275,-5.337
0.137,0.059,0.276,-5.337
0.137,0.059,0.279,-5.337
0.156,0.058,0.280,-5.337
0.160,0.057,0.280,-5.337
0.213,0.055,0.277,-5.337
0.182,0.057,0.271,-5.337
0.167,0.057,0.270,-5.337
0.129,0.059,0.275,-5.337
0.133,0.054,0.279,-5.337
0.153,0.051,0.279,-5.337
0.199,0.051,0.276,-5.337
0.182,0.056,0.271,-5.337
0.160,0.057,0.270,-5.337
0.175,0.057,0.275,-5.337
0.197,0.057,0.277,-5.337
0.257,0.056,0.275,-5.337
0.254,0.058,0.276,-5.337
0.219,0.058,0.275,-5.337
0.153,0.058,0.275,-5.337
0.127,0.061,0.275,-5.337
0.195,0.059,0.275,-5.337
0.192,0.059,0.271,-5.337
0.186,0.057,0.273,-5.337
0.252,0.056,0.274,-5.337
0.263,0.062,0.275,-5.337
0.283,0.061,0.273,-5.337
0.333,0.060,0.272,-5.337
0.294,0.061,0.272,-5.337
0.217,0.062,0.273,-5.337
0.188,0.060,0.276,-5.337
0.176,0.065,0.280,-5.337
0.185,0.063,0.277,-5.337
0.265,0.061,0.275,-5.337
0.244,0.064,0.276,-5.337
0.146,0.065,0.275,-5.337
0.140,0.062,0.271,-5.337
0.171,0.058,0.269,-5.337
0.234,0.054,0.270,-5.337
0.241,0.056,0.273,-5.337
0.261,0.056,0.275,-5.337
0.256,0.055,0.276,-5.337
0.217,0.055,0.277,-5.337
0.233,0.058,0.276,-5.337
0.268,0.056,0.277,-5.337
0.212,0.059,0.277,-5.337
0.196,0.059,0.275,-5.337
0.254,0.059,0.271,-5.337
0.272,0.059,0.274,-5.337
0.192,0.065,0.276,-5.337
0.109,0.068,0.276,-5.337
0.172,0.062,0.275,-5.337
0.224,0.062,0.273,-5.337
0.323,0.058,0.272,-5.337
0.316,0.063,0.273,-5.337
0.202,0.065,0.275,-5.337
0.139,0.065,0.277,-5.337
0.197,0.064,0.278,-5.337
0.212,0.061,0.277,-5.337
0.192,0.063,0.276,-5.337
0.156,0.064,0.275,-5.337
0.189,0.062,0.280,-5.337
0.249,0.062,0.279,-5.337
0.245,0.064,0.274,-5.337
0.196,0.067,0.271,-5.337
0.191,0.069,0.272,-5.337
0.207,0.064,0.274,-5.337
0.236,0.062,0.277,-5.337
0.193,0.064,0.278,-5.337
0.258,0.063,0.277,-5.337
0.323,0.063,0.274,-5.337
0.252,0.067,0.272,-5.337
0.246,0.066,0.271,-5.337
0.301,0.064,0.271,-5.337
0.315,0.058,0.270,-5.337
0.292,0.058,0.274,-5.337
0.232,0.061,0.280,-5.337
0.191,0.063,0.280,-5.337
0.285,0.061,0.279,-5.337
0.337,0.060,0.279,-5.337
0.282,0.063,0.279,-5.337
0.177,0.064,0.277,-5.337
0.199,0.063,0.274,-5.337
0.270,0.059,0.271,-5.337
0.268,0.062,0.275,-5.337
0.229,0.063,0.280,-5.337
0.235,0.065,0.282,-5.337
0.234,0.065,0.281,-5.337
0.304,0.061,0.280,-5.337
0.343,0.058,0.278,-5.337
0.292,0.059,0.276,-5.337
0.238,0.059,0.275,-5.337
0.181,0.063,0.276,-5.337
0.205,0.062,0.273,-5.337
0.189,0.064,0.273,-5.337
0.225,0.059,0.275,-5.337
0.266,0.054,0.277,-5.337
0.284,0.054,0.276,-5.337
0.234,0.057,0.276,-5.337
0.168,0.059,0.277,-5.337
0.202,0.061,0.276,-5.337
0.298,0.059,0.271,-5.337
0.257,0.061,0.269,-5.337
0.233,0.061,0.272,-5.337
0.260,0.061,0.272,-5.337
0.243,0.061,0.276,-5.337
0.251,0.060,0.280,-5.337
0.268,0.059,0.281,-5.337
0.275,0.057,0.278,-5.337
0.225,0.059,0.276,-5.337
0.237,0.061,0.274,-5.337
0.239,0.065,0.275,-5.337
0.194,0.062,0.275,-5.337
0.164,0.061,0.278,-5.337
0.189,0.063,0.280,-5.337
0.200,0.063,0.281,-5.337
0.228,0.058,0.280,-5.337
0.274,0.057,0.277,-5.337
0.245,0.059,0.273,-5.337
0.280,0.063,0.275,-5.337
0.310,0.064,0.278,-5.337
0.247,0.064,0.280,-5.337
0.233,0.062,0.278,-5.337
0.267,0.062,0.278,-5.337
0.285,0.061,0.279,-5.337
0.304,0.059,0.278,-5.337
0.305,0.060,0.276,-5.337
0.307,0.060,0.278,-5.337
0.330,0.058,0.280,-5.337
0.316,0.056,0.280,-5.337
0.341,0.059,0.280,-5.337
0.302,0.060,0.276,-5.337
0.237,0.059,0.274,-5.337
0.138,0.062,0.275,-5.337
0.157,0.063,0.273,-5.337
0.229,0.056,0.270,-5.337
0.283,0.056,0.273,-5.337
0.281,0.058,0.277,-5.337
0.311,0.059,0.280,-5.337
0.307,0.059,0.284,-5.337
0.291,0.060,0.283,-5.337
0.255,0.059,0.279,-5.337
0.233,0.058,0.277,-5.337
0.215,0.057,0.280,-5.337
0.240,0.060,0.282,-5.337
0.246,0.059,0.280,-5.337
0.303,0.054,0.274,-5.337
0.296,0.055,0.274,-5.337
0.289,0.054,0.277,-5.337
0.254,0.054,0.282,-5.337
0.225,0.054,0.284,-5.337
0.218,0.051,0.283,-5.337
0.240,0.049,0.281,-5.337
0.158,0.052,0.279,-5.337
0.198,0.049,0.277,-5.337
0.274,0.048,0.279,-5.337
0.246,0.051,0.277,-5.337
0.220,0.052,0.277,-5.337
0.217,0.052,0.277,-5.337
0.265,0.055,0.277,-5.337
0.278,0.054,0.278,-5.337
0.270,0.053,0.282,-5.337
0.330,0.050,0.285,-5.337
0.330,0.050,0.284,-5.337
0.298,0.049,0.282,-5.337
0.254,0.050,0.282,-5.337
0.230,0.050,0.281,-5.337
0.217,0.052,0.280,-5.337
0.251,0.051,0.278,-5.337
0.278,0.052,0.277,-5.337
0.235,0.055,0.278,-5.337
0.228,0.056,0.279,-5.337
0.230,0.054,0.276,-5.337
0.214,0.054,0.275,-5.337
0.202,0.052,0.280,-5.337
0.183,0.053,0.281,-5.337
0.224,0.050,0.281,-5.337
0.265,0.052,0.278,-5.337
0.205,0.055,0.279,-5.337
0.192,0.051,0.276,-5.337
0.215,0.051,0.273,-5.337
0.227,0.051,0.272,-5.337
0.211,0.054,0.275,-5.337
0.179,0.055,0.278,-5.337
0.186,0.056,0.277,-5.337
0.215,0.053,0.280,-5.337
0.168,0.054,0.282,-5.337
0.143,0.051,0.282,-5.337
0.185,0.048,0.281,-5.337
0.237,0.047,0.279,-5.337
0.230,0.050,0.276,-5.337
0.203,0.053,0.274,-5.337
0.222,0.052,0.274,-5.337
0.248,0.053,0.277,-5.337
0.221,0.054,0.277,-5.337
0.210,0.050,0.276,-5.337
0.271,0.048,0.271,-5.337
0.224,0.046,0.271,-5.337
0.194,0.049,0.273,-5.337
0.275,0.050,0.279,-5.337
0.255,0.051,0.280,-5.337
0.210,0.052,0.281,-5.337
0.152,0.051,0.277,-5.337
0.143,0.051,0.275,-5.337
0.152,0.049,0.274,-5.337
0.175,0.050,0.274,-5.337
0.200,0.044,0.272,-5.337
0.254,0.045,0.275,-5.337
0.287,0.049,0.278,-5.337
0.251,0.049,0.279,-5.337
0.199,0.049,0.277,-5.337
0.213,0.050,0.278,-5.337
0.224,0.052,0.280,-5.337
0.194,0.052,0.282,-5.337
0.202,0.052,0.279,-5.337
0.124,0.054,0.270,-5.337
0.044,0.053,0.270,-5.337
0.060,0.048,0.272,-5.337
0.147,0.044,0.276,-5.337
0.197,0.044,0.274,-5.337
0.206,0.044,0.276,-5.337
0.234,0.044,0.278,-5.337
0.284,0.045,0.280,-5.337
0.296,0.043,0.280,-5.337
0.294,0.041,0.279,-5.337
0.212,0.042,0.276,-5.337
0.191,0.044,0.276,-5.337
0.220,0.042,0.278,-5.337
0.273,0.041,0.280,-5.337
0.207,0.042,0.278,-5.337
0.149,0.040,0.273,-5.337
0.241,0.033,0.269,-5.337
0.252,0.037,0.268,-5.337
0.174,0.042,0.271,-5.337
0.131,0.042,0.275,-5.337
0.254,0.041,0.280,-5.337
0.285,0.037,0.281,-5.337
0.200,0.037,0.278,-5.337
0.142,0.039,0.276,-5.337
0.139,0.040,0.278,-5.337
0.206,0.037,0.280,-5.337
0.247,0.038,0.283,-5.337
0.206,0.039,0.281,-5.337
0.139,0.034,0.277,-5.337
0.214,0.031,0.272,-5.337
0.207,0.037,0.275,-5.337
0.169,0.040,0.276,-5.337
0.156,0.041,0.276,-5.337
0.209,0.039,0.279,-5.337
0.245,0.038,0.279,-5.337
0.257,0.037,0.276,-5.337
0.235,0.040,0.276,-5.337
0.182,0.038,0.274,-5.337
0.122,0.040,0.274,-5.337
0.172,0.035,0.276,-5.337
0.228,0.035,0.276,-5.337
0.121,0.038,0.277,-5.337
0.092,0.038,0.278,-5.337
0.134,0.042,0.275,-5.337
0.150,0.042,0.273,-5.337
0.136,0.045,0.276,-5.337
0.132,0.043,0.280,-5.337
0.138,0.041,0.283,-5.337
0.180,0.043,0.282,-5.337
0.180,0.042,0.281,-5.337
0.156,0.041,0.275,-5.337
0.176,0.039,0.272,-5.337
0.178,0.037,0.275,-5.337
0.203,0.040,0.282,-5.337
0.198,0.042,0.281,-5.337
0.146,0.042,0.276,-5.337
0.138,0.043,0.270,-5.337
0.181,0.040,0.269,-5.337
0.181,0.036,0.270,-5.337
0.192,0.038,0.274,-5.337
0.193,0.039,0.276,-5.337
0.167,0.037,0.278,-5.337
0.191,0.037,0.280,-5.337
0.188,0.039,0.280,-5.337
0.148,0.037,0.277,-5.337
0.143,0.035,0.276,-5.337
0.136,0.034,0.272,-5.337
0.231,0.031,0.267,-5.337
0.254,0.031,0.267,-5.337
0.208,0.033,0.272,-5.337
0.156,0.032,0.278,-5.337
0.180,0.032,0.281,-5.337
0.207,0.036,0.285,-5.337
0.219,0.034,0.282,-5.337
0.240,0.035,0.281,-5.337
0.289,0.033,0.279,-5.337
0.228,0.034,0.276,-5.337
0.199,0.032,0.274,-5.337
0.166,0.031,0.275,-5.337
0.185,0.034,0.277,-5.337
0.177,0.038,0.277,-5.337
0.157,0.038,0.276,-5.337
0.144,0.037,0.274,-5.337
0.131,0.035,0.275,-5.337
0.098,0.035,0.277,-5.337
0.110,0.034,0.275,-5.337
0.194,0.034,0.275,-5.337
0.248,0.035,0.279,-5.337
0.203,0.040,0.282,-5.337
0.142,0.039,0.283,-5.337
0.117,0.035,0.281,-5.337
0.138,0.033,0.279,-5.337
0.188,0.036,0.275,-5.337
0.150,0.038,0.274,-5.337
0.112,0.035,0.271,-5.337
0.160,0.032,0.273,-5.337
0.153,0.033,0.273,-5.337
0.172,0.036,0.275,-5.337
0.244,0.034,0.274,-5.337
0.220,0.037,0.279,-5.337
0.189,0.033,0.281,-5.337
0.193,0.036,0.281,-5.337
0.175,0.034,0.280,-5.337
0.165,0.032,0.277,-5.337
0.176,0.032,0.273,-5.337
0.181,0.033,0.273,-5.337
0.209,0.031,0.273,-5.337
0.198,0.035,0.273,-5.337
0.119,0.037,0.273,-5.337
0.075,0.036,0.275,-5.337
0.125,0.034,0.276,-5.337
0.161,0.036,0.273,-5.337
0.161,0.034,0.275,-5.337
0.137,0.038,0.279,-5.337
0.148,0.035,0.281,-5.337
0.153,0.034,0.281,-5.337
0.182,0.032,0.278,-5.337
0.184,0.029,0.272,-5.337
0.155,0.034,0.272,-5.337
0.125,0.036,0.274,-5.337
0.135,0.032,0.277,-5.337
0.138,0.031,0.277,-5.337
0.107,0.032,0.277,-5.337
0.093,0.030,0.278,-5.337
0.154,0.027,0.277,-5.337
0.167,0.029,0.272,-5.337
0.192,0.031,0.269,-5.337
0.151,0.036,0.272,-5.337
0.160,0.033,0.277,-5.337
0.230,0.029,0.280,-5.337
0.188,0.036,0.280,-5.337
0.103,0.041,0.281,-5.337
0.099,0.038,0.283,-5.337
0.160,0.033,0.282,-5.337
0.196,0.032,0.280,-5.337
0.147,0.035,0.279,-5.337
0.127,0.039,0.277,-5.337
0.163,0.036,0.280,-5.337
0.226,0.035,0.282,-5.337
0.201,0.038,0.282,-5.337
0.181,0.034,0.277,-5.337
0.242,0.035,0.274,-5.337
0.252,0.038,0.272,-5.337
0.169,0.039,0.272,-5.337
0.164,0.037,0.273,-5.337
0.189,0.036,0.276,-5.337
0.169,0.034,0.274,-5.337
0.168,0.035,0.274,-5.337
0.163,0.037,0.278,-5.337
0.171,0.037,0.280,-5.337
0.152,0.036,0.275,-5.337
0.158,0.036,0.273,-5.337
0.174,0.034,0.275,-5.337
0.141,0.036,0.275,-5.337
0.170,0.034,0.274,-5.337
0.192,0.032,0.277,-5.337
0.200,0.031,0.278,-5.337
0.219,0.034,0.276,-5.337
0.182,0.039,0.276,-5.337
0.148,0.039,0.275,-5.337
0.095,0.040,0.278,-5.337
0.034,0.035,0.280,-5.337
0.071,0.033,0.280,-5.337
0.136,0.032,0.278,-5.337
0.179,0.030,0.276,-5.337
0.142,0.030,0.277,-5.337
0.092,0.034,0.279,-5.337
0.157,0.031,0.278,-5.337
0.234,0.032,0.279,-5.337
0.161,0.035,0.274,-5.337
0.108,0.038,0.274,-5.337
0.149,0.034,0.276,-5.337
0.195,0.034,0.279,-5.337
0.202,0.034,0.281,-5.337
0.202,0.034,0.281,-5.337
0.202,0.030,0.277,-5.337
0.168,0.030,0.278,-5.337
0.204,0.033,0.279,-5.337
0.147,0.034,0.278,-5.337
0.116,0.034,0.277,-5.337
0.194,0.035,0.275,-5.337
0.231,0.034,0.271,-5.337
0.200,0.037,0.273,-5.337
0.182,0.038,0.276,-5.337
0.180,0.035,0.276,-5.337
0.185,0.033,0.280,-5.337
0.205,0.039,0.282,-5.337
0.163,0.043,0.282,-5.337
0.138,0.040,0.278,-5.337
0.113,0.040,0.274,-5.337
0.105,0.042,0.276,-5.337
0.132,0.041,0.283,-5.337
0.142,0.041,0.284,-5.337
0.071,0.041,0.283,-5.337
0.082,0.036,0.282,-5.337
0.186,0.036,0.278,-5.337
0.174,0.038,0.274,-5.337
0.168,0.038,0.273,-5.337
0.159,0.037,0.274,-5.337
0.134,0.039,0.276,-5.337
0.077,0.042,0.280,-5.337
0.072,0.042,0.280,-5.337
0.158,0.041,0.279,-5.337
0.206,0.040,0.279,-5.337
0.256,0.038,0.279,-5.337
0.282,0.037,0.281,-5.337
0.218,0.042,0.281,-5.337
0.172,0.042,0.277,-5.337
0.211,0.040,0.274,-5.337
0.203,0.038,0.275,-5.337
0.178,0.039,0.279,-5.337
0.150,0.042,0.279,-5.337
0.136,0.043,0.277,-5.337
0.119,0.042,0.276,-5.337
0.126,0.040,0.273,-5.337
0.197,0.036,0.271,-5.337
0.206,0.042,0.275,-5.337
0.212,0.043,0.282,-5.337
0.208,0.043,0.286,-5.337
0.150,0.044,0.287,-5.337
0.136,0.038,0.285,-5.337
0.206,0.037,0.284,-5.337
0.283,0.040,0.282,-5.337
0.249,0.041,0.279,-5.337
0.227,0.044,0.277,-5.337
0.214,0.042,0.277,-5.337
0.176,0.045,0.274,-5.337
0.185,0.040,0.279,-5.337
0.204,0.038,0.280,-5.337
0.136,0.040,0.281,-5.337
0.079,0.043,0.278,-5.337
0.117,0.044,0.277,-5.337
0.179,0.045,0.275,-5.337
0.190,0.045,0.276,-5.337
0.204,0.041,0.276,-5.337
0.268,0.041,0.275,-5.337
0.200,0.043,0.278,-5.337
0.121,0.044,0.278,-5.337
0.243,0.044,0.280,-5.337
0.235,0.046,0.280,-5.337
0.133,0.045,0.275,-5.337
0.187,0.043,0.273,-5.337
0.250,0.044,0.274,-5.337
0.208,0.048,0.276,-5.337
0.108,0.052,0.279,-5.337
0.137,0.050,0.282,-5.337
0.177,0.053,0.281,-5.337
0.176,0.052,0.279,-5.337
0.159,0.046,0.275,-5.337
0.164,0.043,0.274,-5.337
0.168,0.045,0.280,-5.337
0.117,0.046,0.281,-5.337
0.107,0.047,0.276,-5.337
0.187,0.046,0.272,-5.337
0.217,0.047,0.274,-5.337
0.152,0.049,0.276,-5.337
0.138,0.050,0.277,-5.337
0.168,0.050,0.277,-5.337
0.185,0.047,0.281,-5.337
0.243,0.043,0.281,-5.337
0.273,0.046,0.280,-5.337
0.231,0.045,0.277,-5.337
0.193,0.048,0.274,-5.337
0.206,0.049,0.277,-5.337
0.211,0.048,0.278,-5.337
0.173,0.048,0.276,-5.337
0.164,0.046,0.276,-5.337
0.238,0.047,0.274,-5.337
0.208,0.050,0.271,-5.337
0.221,0.048,0.272,-5.337
0.216,0.046,0.274,-5.337
0.193,0.051,0.280,-5.337
0.115,0.057,0.283,-5.337
0.085,0.055,0.280,-5.337
0.143,0.049,0.276,-5.337
0.219,0.047,0.277,-5.337
0.169,0.049,0.276,-5.337
0.171,0.052,0.277,-5.337
0.215,0.054,0.277,-5.337
0.201,0.051,0.272,-5.337
0.235,0.043,0.273,-5.337
0.251,0.044,0.276,-5.337
0.217,0.046,0.277,-5.337
0.220,0.047,0.275,-5.337
0.200,0.050,0.276,-5.337
0.119,0.053,0.282,-5.337
0.106,0.049,0.284,-5.337
0.191,0.049,0.282,-5.337
0.236,0.050,0.277,-5.337
0.227,0.051,0.275,-5.337
0.175,0.051,0.277,-5.337
0.170,0.049,0.278,-5.337
0.219,0.050,0.280,-5.337
0.259,0.050,0.275,-5.337
0.244,0.050,0.275,-5.337
0.190,0.051,0.272,-5.337
0.175,0.051,0.272,-5.337
0.224,0.049,0.272,-5.337
0.201,0.050,0.275,-5.337
0.124,0.054,0.276,-5.337
0.203,0.052,0.276,-5.337
0.306,0.050,0.273,-5.337
0.309,0.047,0.271,-5.337
0.229,0.048,0.269,-5.337
0.201,0.050,0.273,-5.337
0.281,0.049,0.283,-5.337
0.317,0.048,0.286,-5.337
0.285,0.050,0.282,-5.337
0.205,0.049,0.280,-5.337
0.235,0.049,0.280,-5.337
0.284,0.049,0.279,-5.337
0.277,0.052,0.278,-5.337
0.282,0.049,0.278,-5.337
0.293,0.046,0.277,-5.337
0.249,0.047,0.278,-5.337
0.227,0.048,0.280,-5.337
0.225,0.048,0.277,-5.337
0.195,0.051,0.277,-5.337
0.207,0.050,0.276,-5.337
0.249,0.053,0.274,-5.337
0.243,0.057,0.269,-5.337
0.218,0.058,0.273,-5.337
0.185,0.056,0.278,-5.337
0.185,0.056,0.277,-5.337
0.179,0.059,0.271,-5.337
0.188,0.060,0.271,-5.337
0.153,0.059,0.274,-5.337
0.144,0.059,0.274,-5.337
0.243,0.055,0.274,-5.337
0.271,0.054,0.278,-5.337
0.247,0.053,0.281,-5.337
0.180,0.054,0.281,-5.337
0.178,0.056,0.277,-5.337
0.252,0.060,0.276,-5.337
0.278,0.062,0.275,-5.337
0.282,0.058,0.273,-5.337
0.335,0.053,0.274,-5.337
0.349,0.054,0.274,-5.337
0.253,0.057,0.275,-5.337
0.224,0.058,0.276,-5.337
0.192,0.059,0.278,-5.337
0.157,0.058,0.277,-5.337
0.177,0.061,0.276,-5.337
0.155,0.060,0.277,-5.337
0.137,0.058,0.277,-5.337
0.127,0.059,0.276,-5.337
0.153,0.058,0.275,-5.337
0.273,0.054,0.276,-5.337
0.329,0.051,0.278,-5.337
0.329,0.052,0.279,-5.337
0.240,0.055,0.279,-5.337
0.258,0.051,0.279,-5.337
0.241,0.052,0.279,-5.337
0.180,0.055,0.277,-5.337
0.221,0.057,0.273,-5.337
0.292,0.057,0.273,-5.337
0.270,0.055,0.274,-5.337
0.203,0.059,0.275,-5.337
0.128,0.064,0.274,-5.337
0.143,0.059,0.277,-5.337
0.250,0.051,0.277,-5.337
0.342,0.051,0.275,-5.337
0.309,0.052,0.273,-5.337
0.238,0.056,0.277,-5.337
0.175,0.055,0.277,-5.337
0.186,0.053,0.275,-5.337
0.239,0.054,0.279,-5.337
0.272,0.056,0.283,-5.337
0.331,0.054,0.282,-5.337
0.332,0.056,0.283,-5.337
0.309,0.054,0.281,-5.337
0.229,0.055,0.278,-5.337
0.188,0.056,0.276,-5.337
0.232,0.052,0.277,-5.337
0.333,0.046,0.279,-5.337
0.333,0.053,0.278,-5.337
0.225,0.059,0.277,-5.337
0.171,0.058,0.274,-5.337
0.148,0.057,0.272,-5.337
0.168,0.056,0.270,-5.337
0.202,0.057,0.275,-5.337
0.260,0.053,0.276,-5.337
0.294,0.056,0.276,-5.337
0.247,0.059,0.273,-5.337
0.174,0.059,0.276,-5.337
0.197,0.058,0.277,-5.337
0.280,0.054,0.275,-5.337
0.271,0.055,0.271,-5.337
0.226,0.057,0.275,-5.337
0.257,0.054,0.281,-5.337
0.259,0.053,0.284,-5.337
0.256,0.052,0.279,-5.337
0.263,0.054,0.275,-5.337
0.262,0.053,0.273,-5.337
0.262,0.052,0.273,-5.337
0.237,0.049,0.276,-5.337
0.233,0.049,0.274,-5.337
0.294,0.047,0.275,-5.337
0.356,0.048,0.278,-5.337
0.325,0.056,0.280,-5.337
0.266,0.059,0.280,-5.337
0.245,0.055,0.280,-5.337
0.319,0.054,0.280,-5.337
0.286,0.055,0.279,-5.337
0.233,0.057,0.275,-5.337
0.243,0.061,0.277,-5.337
0.273,0.057,0.278,-5.337
0.281,0.054,0.281,-5.337
0.268,0.054,0.282,-5.337
0.262,0.055,0.281,-5.337
0.303,0.057,0.275,-5.337
0.248,0.060,0.273,-5.337
0.186,0.057,0.273,-5.337
0.224,0.060,0.276,-5.337
0.230,0.060,0.276,-5.337
0.213,0.057,0.277,-5.337
0.230,0.057,0.279,-5.337
0.286,0.058,0.276,-5.337
0.288,0.056,0.274,-5.337
0.251,0.056,0.273,-5.337
0.199,0.056,0.278,-5.337
0.181,0.055,0.279,-5.337
0.241,0.055,0.280,-5.337
0.212,0.057,0.281,-5.337
0.155,0.059,0.280,-5.337
0.216,0.059,0.276,-5.337
0.270,0.057,0.275,-5.337
0.262,0.060,0.277,-5.337
0.243,0.055,0.277,-5.337
0.270,0.054,0.276,-5.337
0.355,0.053,0.279,-5.337
0.371,0.055,0.280,-5.337
0.249,0.058,0.280,-5.337
0.261,0.052,0.280,-5.337
0.260,0.053,0.279,-5.337
0.208,0.051,0.280,-5.337
0.163,0.049,0.281,-5.337
0.240,0.046,0.281,-5.337
0.236,0.050,0.276,-5.337
0.225,0.051,0.272,-5.337
0.200,0.051,0.272,-5.337
0.194,0.051,0.273,-5.337
0.258,0.048,0.277,-5.337
0.299,0.046,0.278,-5.337
0.321,0.047,0.277,-5.337
0.298,0.048,0.278,-5.337
0.330,0.049,0.281,-5.337
0.318,0.049,0.278,-5.337
0.242,0.049,0.273,-5.337
0.281,0.049,0.275,-5.337
0.320,0.051,0.277,-5.337
0.312,0.049,0.277,-5.337
0.226,0.050,0.274,-5.337
0.132,0.052,0.276,-5.337
0.181,0.054,0.280,-5.337
0.186,0.055,0.282,-5.337
0.193,0.049,0.280,-5.337
0.231,0.046,0.279,-5.337
0.236,0.043,0.279,-5.337
0.236,0.043,0.279,-5.337
0.254,0.045,0.280,-5.337
0.300,0.047,0.281,-5.337
0.333,0.046,0.283,-5.337
0.292,0.045,0.285,-5.337
0.260,0.045,0.283,-5.337
0.227,0.047,0.282,-5.337
0.230,0.046,0.279,-5.337
0.228,0.049,0.277,-5.337
0.245,0.051,0.280,-5.337
0.203,0.050,0.281,-5.337
0.202,0.048,0.283,-5.337
0.233,0.045,0.284,-5.337
0.250,0.045,0.284,-5.337
0.275,0.050,0.280,-5.337
0.206,0.053,0.278,-5.337
0.246,0.048,0.278,-5.337
0.272,0.047,0.280,-5.337
0.259,0.049,0.278,-5.337
0.274,0.047,0.277,-5.337
0.210,0.048,0.278,-5.337
0.165,0.048,0.277,-5.337
0.185,0.046,0.276,-5.337
0.160,0.047,0.276,-5.337
0.221,0.045,0.281,-5.337
0.216,0.047,0.285,-5.337
0.240,0.046,0.285,-5.337
0.245,0.044,0.285,-5.337
0.258,0.043,0.286,-5.337
0.230,0.049,0.283,-5.337
0.247,0.047,0.280,-5.337
0.219,0.044,0.279,-5.337
0.214,0.044,0.282,-5.337
0.259,0.045,0.279,-5.337
0.232,0.046,0.278,-5.337
0.187,0.046,0.275,-5.337
0.210,0.048,0.274,-5.337
0.308,0.044,0.277,-5.337
0.290,0.045,0.281,-5.337
0.247,0.042,0.281,-5.337
0.264,0.041,0.279,-5.337
0.276,0.042,0.279,-5.337
0.220,0.044,0.282,-5.337
0.104,0.045,0.284,-5.337
0.108,0.044,0.280,-5.337
0.160,0.043,0.278,-5.337
0.242,0.038,0.277,-5.337
0.275,0.040,0.275,-5.337
0.219,0.043,0.273,-5.337
0.146,0.044,0.275,-5.337
0.122,0.041,0.276,-5.337
0.161,0.039,0.275,-5.337
0.226,0.039,0.284,-5.337
0.194,0.040,0.284,-5.337
0.183,0.038,0.279,-5.337
0.227,0.037,0.280,-5.337
0.272,0.038,0.280,-5.337
0.200,0.037,0.278,-5.337
0.120,0.041,0.275,-5.337
0.158,0.042,0.276,-5.337
0.235,0.039,0.277,-5.337
0.277,0.038,0.281,-5.337
0.218,0.042,0.279,-5.337
0.131,0.042,0.277,-5.337
0.142,0.040,0.278,-5.337
0.242,0.039,0.281,-5.337
0.277,0.035,0.283,-5.337
0.233,0.035,0.282,-5.337
0.199,0.039,0.280,-5.337
0.137,0.043,0.278,-5.337
0.101,0.040,0.275,-5.337
0.129,0.038,0.270,-5.337
0.114,0.040,0.271,-5.337
0.101,0.038,0.276,-5.337
0.166,0.037,0.279,-5.337
0.171,0.037,0.279,-5.337
0.186,0.038,0.278,-5.337
0.228,0.035,0.275,-5.337
0.283,0.033,0.274,-5.337
0.317,0.034,0.277,-5.337
0.289,0.037,0.279,-5.337
0.259,0.036,0.279,-5.337
0.232,0.038,0.281,-5.337
0.161,0.039,0.281,-5.337
0.162,0.040,0.279,-5.337
0.176,0.041,0.277,-5.337
0.163,0.042,0.277,-5.337
0.137,0.041,0.277,-5.337
0.184,0.039,0.278,-5.337
0.181,0.039,0.278,-5.337
0.188,0.037,0.278,-5.337
0.267,0.035,0.277,-5.337
0.212,0.037,0.276,-5.337
0.083,0.041,0.277,-5.337
0.118,0.039,0.277,-5.337
0.195,0.037,0.275,-5.337
0.170,0.038,0.276,-5.337
0.212,0.038,0.276,-5.337
0.241,0.036,0.277,-5.337
0.240,0.035,0.278,-5.337
0.137,0.041,0.278,-5.337
0.073,0.044,0.278,-5.337
0.089,0.046,0.276,-5.337
0.091,0.045,0.275,-5.337
0.241,0.038,0.278,-5.337
0.337,0.039,0.283,-5.337
0.291,0.037,0.281,-5.337
0.188,0.039,0.279,-5.337
0.188,0.040,0.276,-5.337
0.205,0.036,0.273,-5.337
0.193,0.038,0.273,-5.337
0.175,0.036,0.276,-5.337
0.194,0.037,0.278,-5.337
0.216,0.037,0.275,-5.337
0.184,0.035,0.269,-5.337
0.186,0.034,0.271,-5.337
0.206,0.037,0.278,-5.337
0.191,0.034,0.283,-5.337
0.134,0.034,0.280,-5.337
0.128,0.037,0.275,-5.337
0.118,0.038,0.271,-5.337
0.178,0.038,0.274,-5.337
0.175,0.038,0.280,-5.337
0.109,0.042,0.281,-5.337
0.102,0.043,0.279,-5.337
0.140,0.039,0.278,-5.337
0.130,0.039,0.278,-5.337
0.148,0.037,0.277,-5.337
0.205,0.037,0.278,-5.337
0.204,0.039,0.280,-5.337
0.125,0.043,0.279,-5.337
0.178,0.037,0.278,-5.337
0.244,0.035,0.280,-5.337
0.199,0.035,0.276,-5.337
0.174,0.036,0.271,-5.337
0.159,0.036,0.271,-5.337
0.193,0.035,0.273,-5.337
0.208,0.033,0.276,-5.337
0.176,0.034,0.282,-5.337
0.125,0.035,0.280,-5.337
0.200,0.034,0.276,-5.337
0.214,0.036,0.277,-5.337
0.148,0.039,0.276,-5.337
0.113,0.037,0.275,-5.337
0.186,0.035,0.275,-5.337
0.241,0.038,0.281,-5.337
0.153,0.040,0.282,-5.337
0.131,0.040,0.280,-5.337
0.177,0.036,0.276,-5.337
0.171,0.037,0.278,-5.337
0.159,0.038,0.281,-5.337
0.165,0.040,0.279,-5.337
0.156,0.041,0.277,-5.337
0.103,0.042,0.277,-5.337
0.123,0.040,0.276,-5.337
0.159,0.039,0.277,-5.337
0.204,0.036,0.278,-5.337
0.167,0.033,0.281,-5.337
0.222,0.032,0.280,-5.337
0.312,0.034,0.279,-5.337
0.246,0.036,0.279,-5.337
0.190,0.036,0.278,-5.337
0.130,0.034,0.273,-5.337
0.102,0.035,0.271,-5.337
0.211,0.035,0.276,-5.337
0.228,0.036,0.279,-5.337
0.158,0.037,0.276,-5.337
0.082,0.039,0.274,-5.337
0.070,0.040,0.277,-5.337
0.086,0.038,0.277,-5.337
0.125,0.040,0.274,-5.337
0.094,0.041,0.270,-5.337
0.131,0.037,0.274,-5.337
0.151,0.038,0.278,-5.337
0.141,0.040,0.281,-5.337
0.157,0.039,0.283,-5.337
0.167,0.038,0.282,-5.337
0.114,0.043,0.280,-5.337
0.110,0.043,0.277,-5.337
0.159,0.040,0.274,-5.337
0.156,0.041,0.274,-5.337
0.171,0.038,0.277,-5.337
0.156,0.040,0.278,-5.337
0.152,0.044,0.279,-5.337
0.200,0.040,0.276,-5.337
0.235,0.037,0.278,-5.337
0.261,0.038,0.282,-5.337
0.242,0.040,0.280,-5.337
0.124,0.039,0.277,-5.337
0.073,0.038,0.277,-5.337
0.167,0.033,0.276,-5.337
0.211,0.036,0.276,-5.337
0.126,0.037,0.275,-5.337
0.067,0.035,0.277,-5.337
0.095,0.032,0.280,-5.337
0.155,0.032,0.277,-5.337
0.207,0.031,0.273,-5.337
0.235,0.027,0.273,-5.337
0.183,0.029,0.274,-5.337
0.155,0.032,0.278,-5.337
0.192,0.034,0.279,-5.337
0.169,0.034,0.280,-5.337
0.129,0.032,0.280,-5.337
0.153,0.033,0.280,-5.337
0.217,0.031,0.281,-5.337
0.234,0.035,0.281,-5.337
0.201,0.034,0.278,-5.337
0.155,0.035,0.276,-5.337
0.096,0.035,0.277,-5.337
0.113,0.032,0.276,-5.337
0.144,0.032,0.273,-5.337
0.114,0.034,0.272,-5.337
0.143,0.036,0.274,-5.337
0.184,0.034,0.280,-5.337
0.175,0.035,0.284,-5.337
0.156,0.035,0.283,-5.337
0.147,0.032,0.280,-5.337
0.157,0.030,0.275,-5.337
0.127,0.031,0.274,-5.337
0.133,0.035,0.274,-5.337
0.145,0.037,0.275,-5.337
0.185,0.033,0.277,-5.337
0.224,0.034,0.275,-5.337
0.211,0.037,0.274,-5.337
0.258,0.036,0.276,-5.337
0.237,0.038,0.277,-5.337
0.169,0.042,0.276,-5.337
0.115,0.044,0.275,-5.337
0.103,0.042,0.279,-5.337
0.132,0.041,0.282,-5.337
0.141,0.041,0.282,-5.337
0.103,0.045,0.281,-5.337
0.105,0.047,0.278,-5.337
0.105,0.046,0.275,-5.337
0.036,0.045,0.273,-5.337
0.062,0.044,0.276,-5.337
0.143,0.042,0.280,-5.337
0.198,0.038,0.283,-5.337
0.184,0.039,0.279,-5.337
0.166,0.042,0.275,-5.337
0.160,0.045,0.270,-5.337
0.132,0.046,0.273,-5.337
0.140,0.044,0.279,-5.337
0.155,0.044,0.284,-5.337
0.139,0.045,0.280,-5.337
0.166,0.046,0.276,-5.337
0.218,0.045,0.274,-5.337
0.185,0.046,0.276,-5.337
0.199,0.042,0.277,-5.337
0.206,0.039,0.273,-5.337
0.183,0.037,0.274,-5.337
0.190,0.040,0.277,-5.337
0.160,0.041,0.280,-5.337
0.216,0.039,0.279,-5.337
0.228,0.038,0.277,-5.337
0.217,0.040,0.277,-5.337
0.215,0.040,0.280,-5.337
0.184,0.040,0.279,-5.337
0.187,0.035,0.278,-5.337
0.159,0.035,0.275,-5.337
0.119,0.034,0.274,-5.337
0.205,0.036,0.275,-5.337
0.231,0.040,0.281,-5.337
0.144,0.045,0.284,-5.337
0.117,0.045,0.283,-5.337
0.185,0.041,0.281,-5.337
0.270,0.042,0.279,-5.337
0.295,0.042,0.275,-5.337
0.191,0.046,0.272,-5.337
0.128,0.046,0.277,-5.337
0.097,0.045,0.282,-5.337
0.113,0.042,0.282,-5.337
0.133,0.039,0.282,-5.337
0.177,0.039,0.282,-5.337
0.129,0.042,0.281,-5.337
0.137,0.046,0.278,-5.337
0.198,0.050,0.276,-5.337
0.192,0.050,0.281,-5.337
0.178,0.047,0.284,-5.337
0.154,0.049,0.285,-5.337
0.125,0.052,0.282,-5.337
0.108,0.052,0.281,-5.337
0.119,0.051,0.277,-5.337
0.095,0.050,0.275,-5.337
0.113,0.053,0.273,-5.337
0.198,0.052,0.276,-5.337
0.298,0.048,0.277,-5.337
0.249,0.050,0.280,-5.337
0.147,0.051,0.279,-5.337
0.136,0.050,0.277,-5.337
0.176,0.049,0.275,-5.337
0.232,0.050,0.276,-5.337
0.286,0.053,0.279,-5.337
0.263,0.054,0.282,-5.337
0.229,0.054,0.281,-5.337
0.204,0.055,0.282,-5.337
0.164,0.052,0.284,-5.337
0.177,0.046,0.283,-5.337
0.170,0.049,0.282,-5.337
0.166,0.051,0.282,-5.337
0.164,0.051,0.282,-5.337
0.169,0.051,0.278,-5.337
0.203,0.054,0.277,-5.337
0.212,0.054,0.278,-5.337
0.231,0.052,0.282,-5.337
0.194,0.052,0.283,-5.337
0.128,0.054,0.280,-5.337
0.094,0.053,0.279,-5.337
0.178,0.051,0.278,-5.337
0.206,0.052,0.278,-5.337
0.167,0.052,0.277,-5.337
0.219,0.050,0.274,-5.337
0.168,0.054,0.274,-5.337
0.169,0.051,0.274,-5.337
0.187,0.053,0.278,-5.337
0.185,0.056,0.283,-5.337
0.171,0.057,0.285,-5.337
0.203,0.055,0.284,-5.337
0.183,0.058,0.280,-5.337
0.159,0.057,0.276,-5.337
0.206,0.057,0.275,-5.337
0.199,0.057,0.281,-5.337
0.175,0.054,0.286,-5.337
0.128,0.053,0.286,-5.337
0.148,0.055,0.277,-5.337
0.195,0.056,0.274,-5.337
0.252,0.057,0.276,-5.337
0.265,0.057,0.279,-5.337
0.239,0.056,0.273,-5.337
0.205,0.057,0.273,-5.337
0.128,0.059,0.279,-5.337
0.067,0.059,0.283,-5.337
0.085,0.059,0.281,-5.337
0.124,0.061,0.279,-5.337
0.086,0.062,0.278,-5.337
0.069,0.061,0.276,-5.337
0.118,0.061,0.274,-5.337
0.181,0.061,0.275,-5.337
0.253,0.056,0.276,-5.337
0.223,0.054,0.280,-5.337
0.207,0.056,0.281,-5.337
0.122,0.058,0.282,-5.337
0.163,0.057,0.278,-5.337
0.240,0.058,0.274,-5.337
0.221,0.059,0.273,-5.337
0.189,0.059,0.275,-5.337
0.200,0.060,0.275,-5.337
0.217,0.058,0.276,-5.337
0.308,0.056,0.280,-5.337
0.282,0.059,0.279,-5.337
0.207,0.059,0.279,-5.337
0.172,0.059,0.273,-5.337
0.204,0.059,0.274,-5.337
0.224,0.056,0.273,-5.337
0.219,0.058,0.276,-5.337
0.229,0.059,0.277,-5.337
0.212,0.061,0.275,-5.337
0.205,0.057,0.278,-5.337
0.226,0.057,0.279,-5.337
0.230,0.060,0.278,-5.337
0.209,0.062,0.277,-5.337
0.218,0.062,0.273,-5.337
0.145,0.062,0.275,-5.337
0.115,0.059,0.279,-5.337
0.175,0.059,0.277,-5.337
0.263,0.059,0.276,-5.337
0.279,0.055,0.277,-5.337
0.310,0.054,0.279,-5.337
0.280,0.055,0.283,-5.337
0.269,0.058,0.281,-5.337
0.288,0.057,0.277,-5.337
0.276,0.058,0.277,-5.337
0.234,0.059,0.275,-5.337
0.209,0.058,0.278,-5.337
0.204,0.058,0.278,-5.337
0.239,0.058,0.277,-5.337
0.238,0.058,0.277,-5.337
0.273,0.060,0.278,-5.337
0.275,0.060,0.275,-5.337
0.254,0.060,0.274,-5.337
0.278,0.061,0.276,-5.337
0.244,0.061,0.280,-5.337
0.198,0.064,0.279,-5.337
0.156,0.066,0.278,-5.337
0.139,0.064,0.279,-5.337
0.202,0.061,0.282,-5.337
0.231,0.059,0.281,-5.337
0.210,0.063,0.278,-5.337
0.242,0.064,0.277,-5.337
0.281,0.061,0.275,-5.337
0.282,0.059,0.276,-5.337
0.257,0.058,0.278,-5.337
0.297,0.057,0.282,-5.337
0.304,0.055,0.279,-5.337
0.259,0.056,0.272,-5.337
0.275,0.055,0.271,-5.337
0.255,0.058,0.276,-5.337
0.232,0.056,0.279,-5.337
0.267,0.058,0.279,-5.337
0.256,0.061,0.278,-5.337
0.236,0.060,0.277,-5.337
0.267,0.060,0.276,-5.337
0.218,0.063,0.279,-5.337
0.167,0.066,0.279,-5.337
0.169,0.064,0.279,-5.337
0.223,0.062,0.280,-5.337
0.241,0.067,0.280,-5.337
0.218,0.068,0.277,-5.337
0.235,0.066,0.273,-5.337
0.322,0.060,0.273,-5.337
0.306,0.062,0.276,-5.337
0.262,0.064,0.279,-5.337
0.280,0.064,0.276,-5.337
0.308,0.062,0.273,-5.337
0.238,0.062,0.274,-5.337
0.146,0.064,0.282,-5.337
0.158,0.064,0.281,-5.337
0.123,0.063,0.278,-5.337
0.092,0.061,0.274,-5.337
0.157,0.062,0.273,-5.337
0.205,0.064,0.278,-5.337
0.266,0.062,0.283,-5.337
0.262,0.061,0.283,-5.337
0.278,0.062,0.279,-5.337
0.310,0.061,0.277,-5.337
0.283,0.056,0.277,-5.337
0.273,0.057,0.277,-5.337
0.271,0.059,0.277,-5.337
0.236,0.063,0.275,-5.337
0.208,0.064,0.276,-5.337
0.259,0.063,0.278,-5.337
0.265,0.064,0.280,-5.337
0.205,0.062,0.280,-5.337
0.224,0.061,0.276,-5.337
0.292,0.063,0.277,-5.337
0.246,0.065,0.272,-5.337
0.211,0.063,0.271,-5.337
0.250,0.055,0.274,-5.337
0.296,0.059,0.277,-5.337
0.273,0.062,0.278,-5.337
0.184,0.067,0.279,-5.337
0.154,0.067,0.279,-5.337
0.197,0.064,0.281,-5.337
0.218,0.059,0.284,-5.337
0.252,0.059,0.283,-5.337
0.212,0.064,0.278,-5.337
0.221,0.064,0.276,-5.337
0.262,0.061,0.275,-5.337
0.300,0.062,0.275,-5.337
0.300,0.060,0.272,-5.337
0.270,0.061,0.276,-5.337
0.228,0.063,0.280,-5.337
0.192,0.064,0.281,-5.337
0.215,0.066,0.278,-5.337
0.179,0.066,0.275,-5.337
0.187,0.065,0.278,-5.337
0.221,0.061,0.279,-5.337
0.262,0.059,0.277,-5.337
0.325,0.058,0.276,-5.337
0.308,0.060,0.279,-5.337
0.230,0.064,0.280,-5.337
0.202,0.060,0.281,-5.337
0.296,0.056,0.277,-5.337
0.338,0.055,0.274,-5.337
0.273,0.057,0.274,-5.337
0.181,0.059,0.277,-5.337
0.194,0.056,0.280,-5.337
0.277,0.060,0.284,-5.337
0.242,0.063,0.282,-5.337
0.168,0.062,0.278,-5.337
0.247,0.054,0.273,-5.337
0.256,0.055,0.274,-5.337
0.239,0.053,0.274,-5.337
0.268,0.055,0.276,-5.337
0.238,0.054,0.278,-5.337
0.138,0.053,0.281,-5.337
0.133,0.054,0.284,-5.337
0.194,0.051,0.283,-5.337
0.210,0.050,0.280,-5.337
0.183,0.052,0.276,-5.337
0.154,0.053,0.273,-5.337
0.160,0.055,0.274,-5.337
0.222,0.050,0.276,-5.337
0.268,0.047,0.277,-5.337
0.257,0.048,0.281,-5.337
0.203,0.048,0.279,-5.337
0.167,0.051,0.278,-5.337
0.195,0.050,0.278,-5.337
0.242,0.051,0.279,-5.337
0.304,0.049,0.277,-5.337
0.333,0.050,0.275,-5.337
0.284,0.048,0.272,-5.337
0.177,0.052,0.273,-5.337
0.256,0.047,0.278,-5.337
0.289,0.047,0.282,-5.337
0.220,0.050,0.278,-5.337
0.219,0.051,0.276,-5.337
0.152,0.052,0.278,-5.337
0.173,0.049,0.279,-5.337
0.240,0.048,0.280,-5.337
0.222,0.050,0.279,-5.337
0.165,0.052,0.275,-5.337
0.176,0.051,0.274,-5.337
0.299,0.047,0.277,-5.337
0.321,0.050,0.282,-5.337
0.258,0.055,0.286,-5.337
0.224,0.056,0.283,-5.337
0.208,0.057,0.278,-5.337
0.129,0.054,0.273,-5.337
0.197,0.053,0.273,-5.337
0.260,0.051,0.276,-5.337
0.292,0.049,0.279,-5.337
0.219,0.051,0.280,-5.337
0.144,0.050,0.283,-5.337
0.178,0.049,0.283,-5.337
0.287,0.048,0.283,-5.337
0.308,0.048,0.283,-5.337
0.272,0.046,0.283,-5.337
0.219,0.048,0.279,-5.337
0.223,0.050,0.279,-5.337
0.271,0.048,0.281,-5.337
0.201,0.046,0.280,-5.337
0.087,0.051,0.280,-5.337
0.079,0.053,0.280,-5.337
0.182,0.050,0.282,-5.337
0.287,0.049,0.279,-5.337
0.268,0.051,0.278,-5.337
0.214,0.051,0.277,-5.337
0.143,0.054,0.278,-5.337
0.151,0.049,0.279,-5.337
0.166,0.050,0.283,-5.337
0.181,0.050,0.284,-5.337
0.120,0.052,0.284,-5.337
0.124,0.046,0.281,-5.337
0.193,0.046,0.278,-5.337
0.202,0.047,0.278,-5.337
0.131,0.049,0.278,-5.337
0.111,0.048,0.276,-5.337
0.150,0.044,0.273,-5.337
0.216,0.042,0.273,-5.337
0.180,0.045,0.278,-5.337
0.184,0.046,0.280,-5.337
0.207,0.046,0.280,-5.337
0.186,0.043,0.283,-5.337
0.175,0.042,0.283,-5.337
0.251,0.043,0.284,-5.337
0.270,0.043,0.285,-5.337
0.235,0.041,0.288,-5.337
0.216,0.042,0.285,-5.337
0.200,0.044,0.282,-5.337
0.242,0.041,0.277,-5.337
0.308,0.041,0.277,-5.337
0.273,0.041,0.277,-5.337
0.247,0.040,0.280,-5.337
0.271,0.039,0.283,-5.337
0.197,0.043,0.282,-5.337
0.171,0.043,0.282,-5.337
0.167,0.043,0.282,-5.337
0.179,0.041,0.279,-5.337
0.181,0.042,0.276,-5.337
0.144,0.044,0.275,-5.337
0.142,0.047,0.277,-5.337
0.133,0.047,0.279,-5.337
0.122,0.045,0.279,-5.337
0.190,0.043,0.280,-5.337
0.212,0.044,0.282,-5.337
0.231,0.045,0.285,-5.337
0.233,0.041,0.284,-5.337
0.222,0.041,0.281,-5.337
0.200,0.045,0.277,-5.337
0.146,0.046,0.279,-5.337
0.090,0.044,0.277,-5.337
0.145,0.044,0.279,-5.337
0.256,0.042,0.278,-5.337
0.223,0.043,0.277,-5.337
0.211,0.039,0.279,-5.337
0.247,0.038,0.283,-5.337
0.251,0.039,0.281,-5.337
0.222,0.041,0.279,-5.337
0.199,0.041,0.276,-5.337
0.158,0.044,0.277,-5.337
0.098,0.045,0.279,-5.337
0.099,0.044,0.281,-5.337
0.170,0.042,0.285,-5.337
0.173,0.047,0.287,-5.337
0.125,0.046,0.284,-5.337
0.186,0.043,0.282,-5.337
0.239,0.040,0.279,-5.337
0.261,0.042,0.277,-5.337
0.292,0.042,0.281,-5.337
0.209,0.044,0.282,-5.337
0.199,0.044,0.279,-5.337
0.213,0.047,0.274,-5.337
0.286,0.043,0.275,-5.337
0.286,0.040,0.280,-5.337
0.247,0.041,0.281,-5.337
0.236,0.042,0.279,-5.337
0.270,0.041,0.278,-5.337
0.222,0.043,0.276,-5.337
0.148,0.044,0.277,-5.337
0.158,0.041,0.277,-5.337
0.140,0.038,0.277,-5.337
0.120,0.037,0.278,-5.337
0.137,0.038,0.283,-5.337
0.168,0.040,0.284,-5.337
0.150,0.039,0.283,-5.337
0.130,0.040,0.279,-5.337
0.143,0.036,0.278,-5.337
0.138,0.036,0.281,-5.337
0.172,0.038,0.283,-5.337
0.207,0.036,0.282,-5.337
0.140,0.040,0.274,-5.337
0.059,0.038,0.273,-5.337
0.129,0.031,0.275,-5.337
0.230,0.035,0.276,-5.337
0.175,0.040,0.278,-5.337
0.158,0.039,0.280,-5.337
0.136,0.042,0.277,-5.337
0.131,0.041,0.275,-5.337
0.166,0.038,0.275,-5.337
0.177,0.042,0.281,-5.337
0.157,0.037,0.282,-5.337
0.158,0.033,0.278,-5.337
0.146,0.034,0.277,-5.337
0.170,0.035,0.279,-5.337
0.213,0.032,0.281,-5.337
0.162,0.036,0.281,-5.337
0.098,0.040,0.281,-5.337
0.110,0.040,0.283,-5.337
0.177,0.037,0.277,-5.337
0.280,0.035,0.271,-5.337
0.278,0.037,0.274,-5.337
0.192,0.036,0.278,-5.337
0.182,0.034,0.281,-5.337
0.149,0.042,0.283,-5.337
0.099,0.043,0.282,-5.337
0.065,0.040,0.278,-5.337
0.087,0.042,0.277,-5.337
0.086,0.043,0.278,-5.337
0.149,0.041,0.278,-5.337
0.190,0.037,0.277,-5.337
0.147,0.037,0.276,-5.337
0.126,0.042,0.276,-5.337
0.115,0.041,0.276,-5.337
0.202,0.040,0.277,-5.337
0.251,0.038,0.281,-5.337
0.173,0.040,0.280,-5.337
0.079,0.043,0.277,-5.337
0.127,0.042,0.275,-5.337
0.240,0.038,0.275,-5.337
0.229,0.036,0.278,-5.337
0.165,0.039,0.281,-5.337
0.167,0.041,0.280,-5.337
0.163,0.039,0.280,-5.337
0.187,0.034,0.278,-5.337
0.202,0.032,0.275,-5.337
0.190,0.033,0.278,-5.337
0.169,0.034,0.281,-5.337
0.144,0.034,0.283,-5.337
0.125,0.036,0.282,-5.337
0.112,0.035,0.281,-5.337
0.106,0.033,0.277,-5.337
0.143,0.031,0.275,-5.337
0.168,0.030,0.277,-5.337
0.098,0.033,0.281,-5.337
0.115,0.033,0.284,-5.337
0.199,0.031,0.280,-5.337
0.155,0.032,0.279,-5.337
0.089,0.035,0.278,-5.337
0.121,0.033,0.277,-5.337
0.241,0.032,0.280,-5.337
0.223,0.034,0.280,-5.337
0.179,0.036,0.280,-5.337
0.198,0.034,0.278,-5.337
0.178,0.034,0.277,-5.337
0.139,0.033,0.278,-5.337
0.115,0.034,0.278,-5.337
0.133,0.032,0.276,-5.337
0.130,0.035,0.274,-5.337
0.089,0.038,0.276,-5.337
0.146,0.033,0.273,-5.337
0.175,0.032,0.277,-5.337
0.128,0.035,0.284,-5.337
0.139,0.037,0.285,-5.337
0.123,0.039,0.281,-5.337
0.154,0.038,0.273,-5.337
0.138,0.036,0.274,-5.337
0.125,0.036,0.280,-5.337
0.144,0.038,0.282,-5.337
0.131,0.037,0.281,-5.337
0.131,0.036,0.277,-5.337
0.175,0.034,0.272,-5.337
0.111,0.037,0.271,-5.337
0.023,0.041,0.273,-5.337
0.073,0.039,0.271,-5.337
0.141,0.032,0.275,-5.337
0.158,0.031,0.280,-5.337
0.143,0.036,0.280,-5.337
0.098,0.036,0.281,-5.337
0.128,0.034,0.277,-5.337
0.219,0.035,0.276,-5.337
0.220,0.038,0.277,-5.337
0.152,0.036,0.278,-5.337
0.157,0.034,0.280,-5.337
0.218,0.035,0.283,-5.337
0.286,0.031,0.280,-5.337
0.164,0.034,0.280,-5.337
0.041,0.034,0.275,-5.337
0.071,0.034,0.274,-5.337
0.155,0.035,0.278,-5.337
0.271,0.032,0.282,-5.337
0.231,0.030,0.280,-5.337
0.227,0.029,0.278,-5.337
0.221,0.030,0.277,-5.337
0.133,0.033,0.276,-5.337
0.095,0.033,0.276,-5.337
0.113,0.037,0.278,-5.337
0.032,0.043,0.275,-5.337
-0.027,0.042,0.272,-5.337
0.039,0.036,0.275,-5.337
0.153,0.037,0.278,-5.337
0.245,0.036,0.280,-5.337
0.268,0.034,0.277,-5.337
0.153,0.037,0.275,-5.337
0.013,0.038,0.275,-5.337
0.038,0.036,0.278,-5.337
0.102,0.035,0.282,-5.337
0.090,0.035,0.282,-5.337
0.110,0.034,0.277,-5.337
0.164,0.033,0.278,-5.337
0.217,0.032,0.278,-5.337
0.230,0.032,0.277,-5.337
0.234,0.037,0.273,-5.337
0.155,0.040,0.273,-5.337
0.130,0.040,0.276,-5.337
0.154,0.039,0.277,-5.337
0.156,0.035,0.277,-5.337
0.136,0.035,0.277,-5.337
0.113,0.036,0.280,-5.337
0.169,0.036,0.284,-5.337
0.169,0.039,0.284,-5.337
0.107,0.038,0.280,-5.337
0.096,0.039,0.276,-5.337
0.137,0.038,0.275,-5.337
0.111,0.038,0.277,-5.337
0.114,0.042,0.281,-5.337
0.170,0.039,0.284,-5.337
0.164,0.037,0.281,-5.337
0.162,0.040,0.276,-5.337
0.173,0.042,0.275,-5.337
0.148,0.040,0.277,-5.337
0.146,0.041,0.275,-5.337
0.119,0.043,0.279,-5.337
0.151,0.043,0.279,-5.337
0.219,0.043,0.276,-5.337
0.190,0.042,0.273,-5.337
0.099,0.045,0.274,-5.337
0.126,0.042,0.277,-5.337
0.233,0.036,0.278,-5.337
0.227,0.041,0.281,-5.337
0.179,0.044,0.282,-5.337
0.234,0.043,0.279,-5.337
0.235,0.041,0.276,-5.337
0.230,0.042,0.275,-5.337
0.224,0.040,0.275,-5.337
0.218,0.040,0.277,-5.337
0.155,0.044,0.277,-5.337
0.155,0.043,0.280,-5.337
0.254,0.045,0.281,-5.337
0.268,0.045,0.280,-5.337
0.187,0.050,0.280,-5.337
0.109,0.051,0.284,-5.337
0.147,0.048,0.280,-5.337
0.160,0.047,0.278,-5.337
0.090,0.045,0.274,-5.337
0.120,0.042,0.279,-5.337
0.181,0.041,0.284,-5.337
0.207,0.047,0.286,-5.337
0.230,0.047,0.282,-5.337
0.215,0.049,0.279,-5.337
0.189,0.047,0.274,-5.337
0.171,0.047,0.275,-5.337
0.118,0.050,0.279,-5.337
0.082,0.051,0.281,-5.337
0.075,0.051,0.281,-5.337
0.117,0.051,0.280,-5.337
0.128,0.050,0.276,-5.337
0.100,0.051,0.274,-5.337
0.068,0.052,0.275,-5.337
0.160,0.049,0.278,-5.337
0.208,0.046,0.279,-5.337
0.192,0.048,0.283,-5.337
0.106,0.050,0.288,-5.337
0.052,0.054,0.287,-5.337
0.061,0.054,0.286,-5.337
0.139,0.050,0.282,-5.337
0.218,0.052,0.282,-5.337
0.198,0.053,0.281,-5.337
0.178,0.049,0.282,-5.337
0.182,0.049,0.280,-5.337
0.167,0.053,0.274,-5.337
0.109,0.052,0.271,-5.337
0.089,0.046,0.276,-5.337
0.132,0.046,0.279,-5.337
0.228,0.048,0.279,-5.337
0.262,0.049,0.278,-5.337
0.237,0.049,0.280,-5.337
0.316,0.047,0.282,-5.337
0.318,0.049,0.280,-5.337
0.252,0.056,0.280,-5.337
0.220,0.057,0.280,-5.337
0.181,0.055,0.281,-5.337
0.154,0.054,0.283,-5.337
0.182,0.053,0.285,-5.337
0.250,0.055,0.284,-5.337
0.184,0.060,0.282,-5.337
0.103,0.058,0.281,-5.337
0.085,0.060,0.279,-5.337
0.205,0.058,0.275,-5.337
0.240,0.059,0.274,-5.337
0.223,0.058,0.279,-5.337
0.195,0.055,0.282,-5.337
0.222,0.053,0.286,-5.337
0.219,0.053,0.284,-5.337
0.207,0.054,0.279,-5.337
0.213,0.052,0.278,-5.337
0.216,0.053,0.281,-5.337
0.231,0.053,0.282,-5.337
0.215,0.054,0.279,-5.337
0.220,0.054,0.279,-5.337
0.211,0.056,0.281,-5.337
0.205,0.059,0.285,-5.337
0.134,0.060,0.288,-5.337
0.172,0.058,0.285,-5.337
0.210,0.056,0.282,-5.337
0.215,0.057,0.280,-5.337
0.262,0.057,0.278,-5.337
0.261,0.058,0.272,-5.337
0.220,0.061,0.273,-5.337
0.227,0.060,0.279,-5.337
0.246,0.063,0.284,-5.337
0.158,0.064,0.284,-5.337
0.110,0.061,0.284,-5.337
0.156,0.058,0.281,-5.337
0.146,0.064,0.278,-5.337
0.101,0.061,0.278,-5.337
0.102,0.065,0.281,-5.337
0.155,0.061,0.281,-5.337
0.235,0.062,0.280,-5.337
0.263,0.061,0.280,-5.337
0.228,0.060,0.282,-5.337
0.205,0.061,0.282,-5.337
0.200,0.063,0.280,-5.337
0.181,0.064,0.278,-5.337
0.168,0.060,0.281,-5.337
0.174,0.059,0.283,-5.337
0.200,0.059,0.283,-5.337
0.236,0.059,0.285,-5.337
0.185,0.064,0.285,-5.337
0.143,0.066,0.283,-5.337
0.166,0.064,0.284,-5.337
0.225,0.061,0.287,-5.337
0.274,0.060,0.283,-5.337
0.289,0.060,0.276,-5.337
0.278,0.061,0.273,-5.337
0.271,0.061,0.276,-5.337
0.314,0.056,0.279,-5.337
0.298,0.058,0.279,-5.337
0.284,0.058,0.281,-5.337
0.248,0.062,0.281,-5.337
0.177,0.061,0.280,-5.337
0.174,0.059,0.279,-5.337
0.278,0.058,0.275,-5.337
0.378,0.058,0.272,-5.337
0.350,0.055,0.273,-5.337
0.235,0.058,0.272,-5.337
0.200,0.058,0.275,-5.337
0.238,0.055,0.278,-5.337
0.266,0.054,0.279,-5.337
0.246,0.055,0.279,-5.337
0.156,0.055,0.281,-5.337
0.203,0.055,0.279,-5.337
0.275,0.058,0.280,-5.337
0.199,0.064,0.281,-5.337
0.138,0.064,0.279,-5.337
0.149,0.062,0.280,-5.337
0.155,0.062,0.281,-5.337
0.214,0.060,0.283,-5.337
0.198,0.063,0.281,-5.337
0.218,0.062,0.279,-5.337
0.244,0.057,0.279,-5.337
0.176,0.059,0.277,-5.337
0.113,0.063,0.278,-5.337
0.120,0.061,0.285,-5.337
0.176,0.057,0.286,-5.337
0.210,0.058,0.282,-5.337
0.248,0.055,0.281,-5.337
0.288,0.058,0.281,-5.337
0.269,0.059,0.279,-5.337
0.254,0.056,0.280,-5.337
0.266,0.053,0.278,-5.337
0.280,0.052,0.278,-5.337
0.242,0.055,0.277,-5.337
0.246,0.054,0.276,-5.337
0.262,0.052,0.277,-5.337
0.244,0.056,0.280,-5.337
0.258,0.057,0.282,-5.337
0.240,0.059,0.282,-5.337
0.189,0.059,0.280,-5.337
0.246,0.059,0.276,-5.337
0.305,0.060,0.273,-5.337
0.289,0.064,0.273,-5.337
0.236,0.063,0.279,-5.337
0.246,0.061,0.283,-5.337
0.311,0.062,0.283,-5.337
0.314,0.064,0.282,-5.337
0.247,0.065,0.280,-5.337
0.260,0.061,0.278,-5.337
0.270,0.060,0.276,-5.337
0.195,0.064,0.275,-5.337
0.210,0.064,0.278,-5.337
0.257,0.065,0.280,-5.337
0.255,0.064,0.279,-5.337
0.221,0.065,0.278,-5.337
0.250,0.064,0.281,-5.337
0.267,0.060,0.283,-5.337
0.232,0.057,0.282,-5.337
0.233,0.057,0.281,-5.337
0.232,0.060,0.279,-5.337
0.178,0.062,0.278,-5.337
0.193,0.059,0.281,-5.337
0.223,0.058,0.280,-5.337
0.203,0.061,0.279,-5.337
0.255,0.059,0.281,-5.337
0.245,0.058,0.281,-5.337
0.224,0.057,0.277,-5.337
0.189,0.060,0.274,-5.337
0.169,0.063,0.273,-5.337
0.227,0.064,0.277,-5.337
0.265,0.060,0.279,-5.337
0.245,0.058,0.280,-5.337
0.197,0.061,0.280,-5.337
0.224,0.060,0.280,-5.337
0.257,0.059,0.282,-5.337
0.297,0.060,0.280,-5.337
0.281,0.062,0.277,-5.337
0.280,0.056,0.274,-5.337
0.277,0.058,0.276,-5.337
0.265,0.057,0.278,-5.337
0.280,0.058,0.282,-5.337
0.321,0.056,0.281,-5.337
0.365,0.053,0.280,-5.337
0.356,0.052,0.278,-5.337
0.281,0.057,0.280,-5.337
0.266,0.055,0.280,-5.337
0.255,0.051,0.282,-5.337
0.188,0.054,0.281,-5.337
0.231,0.051,0.277,-5.337
0.326,0.048,0.272,-5.337
0.297,0.047,0.272,-5.337
0.252,0.051,0.276,-5.337
0.188,0.056,0.281,-5.337
0.148,0.057,0.282,-5.337
0.193,0.056,0.278,-5.337
0.247,0.056,0.278,-5.337
0.250,0.056,0.276,-5.337
0.266,0.056,0.277,-5.337
0.287,0.054,0.282,-5.337
0.306,0.055,0.286,-5.337
0.271,0.057,0.287,-5.337
0.291,0.056,0.287,-5.337
0.331,0.052,0.283,-5.337
0.277,0.055,0.278,-5.337
0.203,0.058,0.275,-5.337
0.206,0.057,0.277,-5.337
0.245,0.051,0.277,-5.337
0.299,0.054,0.277,-5.337
0.239,0.056,0.279,-5.337
0.274,0.051,0.283,-5.337
0.320,0.049,0.285,-5.337
0.236,0.052,0.282,-5.337
0.194,0.054,0.273,-5.337
0.265,0.052,0.271,-5.337
0.292,0.046,0.275,-5.337
0.215,0.047,0.280,-5.337
0.171,0.050,0.279,-5.337
0.244,0.049,0.276,-5.337
0.258,0.049,0.277,-5.337
0.267,0.051,0.279,-5.337
0.239,0.053,0.279,-5.337
0.247,0.053,0.277,-5.337
0.248,0.056,0.275,-5.337
0.242,0.054,0.275,-5.337
0.266,0.050,0.278,-5.337
0.266,0.049,0.281,-5.337
0.274,0.049,0.284,-5.337
0.192,0.054,0.282,-5.337
0.149,0.056,0.280,-5.337
0.196,0.054,0.278,-5.337
0.250,0.053,0.277,-5.337
0.211,0.051,0.277,-5.337
0.096,0.054,0.281,-5.337
0.118,0.057,0.282,-5.337
0.207,0.057,0.283,-5.337
0.210,0.058,0.281,-5.337
0.200,0.057,0.281,-5.337
0.208,0.055,0.279,-5.337
0.182,0.054,0.279,-5.337
0.215,0.052,0.279,-5.337
0.254,0.052,0.279,-5.337
0.291,0.050,0.280,-5.337
0.271,0.049,0.281,-5.337
0.218,0.049,0.282,-5.337
0.195,0.055,0.284,-5.337
0.210,0.056,0.285,-5.337
0.230,0.056,0.280,-5.337
0.221,0.055,0.280,-5.337
0.194,0.057,0.279,-5.337
0.220,0.054,0.276,-5.337
0.209,0.051,0.277,-5.337
0.177,0.049,0.280,-5.337
0.250,0.048,0.278,-5.337
0.275,0.049,0.279,-5.337
0.279,0.047,0.277,-5.337
0.282,0.048,0.278,-5.337
0.229,0.051,0.280,-5.337
0.129,0.052,0.281,-5.337
0.104,0.052,0.281,-5.337
0.172,0.049,0.282,-5.337
0.294,0.048,0.281,-5.337
0.305,0.051,0.281,-5.337
0.248,0.053,0.282,-5.337
0.241,0.048,0.280,-5.337
0.227,0.049,0.278,-5.337
0.172,0.051,0.278,-5.337
0.138,0.051,0.280,-5.337
0.162,0.049,0.279,-5.337
0.222,0.047,0.281,-5.337
0.286,0.046,0.281,-5.337
0.220,0.047,0.281,-5.337
0.199,0.044,0.282,-5.337
0.184,0.046,0.283,-5.337
0.210,0.046,0.277,-5.337
0.195,0.048,0.276,-5.337
0.203,0.042,0.278,-5.337
0.255,0.040,0.281,-5.337
0.212,0.048,0.282,-5.337
0.124,0.053,0.281,-5.337
0.119,0.047,0.282,-5.337
0.169,0.046,0.280,-5.337
0.246,0.045,0.279,-5.337
0.315,0.046,0.279,-5.337
0.310,0.047,0.282,-5.337
0.279,0.049,0.282,-5.337
0.271,0.045,0.280,-5.337
0.243,0.047,0.280,-5.337
0.249,0.046,0.283,-5.337
0.220,0.048,0.284,-5.337
0.179,0.047,0.285,-5.337
0.139,0.048,0.281,-5.337
0.112,0.048,0.284,-5.337
0.151,0.046,0.288,-5.337
0.227,0.042,0.288,-5.337
0.248,0.044,0.281,-5.337
0.204,0.046,0.278,-5.337
0.216,0.046,0.278,-5.337
0.190,0.047,0.279,-5.337
0.164,0.047,0.280,-5.337
0.192,0.045,0.281,-5.337
0.236,0.043,0.280,-5.337
0.216,0.044,0.277,-5.337
0.143,0.044,0.277,-5.337
0.167,0.041,0.278,-5.337
0.205,0.041,0.278,-5.337
0.225,0.042,0.279,-5.337
0.188,0.041,0.286,-5.337
0.193,0.038,0.285,-5.337
0.195,0.042,0.286,-5.337
0.173,0.039,0.284,-5.337
0.181,0.037,0.281,-5.337
0.259,0.039,0.276,-5.337
0.245,0.040,0.277,-5.337
0.205,0.037,0.280,-5.337
0.179,0.040,0.285,-5.337
0.219,0.042,0.284,-5.337
0.205,0.043,0.282,-5.337
0.228,0.041,0.280,-5.337
0.228,0.043,0.282,-5.337
0.175,0.042,0.281,-5.337
0.156,0.044,0.282,-5.337
0.173,0.045,0.280,-5.337
0.203,0.044,0.281,-5.337
0.185,0.045,0.283,-5.337
0.143,0.045,0.282,-5.337
0.155,0.043,0.280,-5.337
0.178,0.042,0.280,-5.337
0.223,0.040,0.279,-5.337
0.241,0.039,0.279,-5.337
0.233,0.038,0.283,-5.337
0.248,0.039,0.282,-5.337
0.241,0.039,0.282,-5.337
0.201,0.039,0.281,-5.337
0.156,0.039,0.282,-5.337
0.146,0.036,0.283,-5.337
0.205,0.036,0.284,-5.337
0.218,0.040,0.281,-5.337
0.180,0.042,0.280,-5.337
0.160,0.036,0.282,-5.337
0.178,0.038,0.286,-5.337
0.151,0.043,0.286,-5.337
0.138,0.043,0.283,-5.337
0.157,0.039,0.280,-5.337
0.186,0.037,0.280,-5.337
0.204,0.038,0.281,-5.337
0.195,0.038,0.281,-5.337
0.228,0.038,0.279,-5.337
0.230,0.037,0.281,-5.337
0.175,0.039,0.284,-5.337
0.152,0.039,0.286,-5.337
0.190,0.043,0.282,-5.337
0.187,0.043,0.277,-5.337
0.129,0.045,0.281,-5.337
0.175,0.041,0.283,-5.337
0.191,0.038,0.285,-5.337
0.166,0.040,0.284,-5.337
0.142,0.042,0.285,-5.337
0.111,0.037,0.283,-5.337
0.103,0.039,0.280,-5.337
0.141,0.039,0.276,-5.337
0.147,0.041,0.279,-5.337
0.207,0.037,0.282,-5.337
0.210,0.035,0.282,-5.337
0.196,0.037,0.279,-5.337
0.179,0.038,0.278,-5.337
0.244,0.034,0.278,-5.337
0.191,0.035,0.281,-5.337
0.131,0.035,0.282,-5.337
0.206,0.033,0.284,-5.337
0.205,0.037,0.285,-5.337
0.151,0.039,0.281,-5.337
0.184,0.035,0.276,-5.337
0.217,0.038,0.276,-5.337
0.163,0.040,0.280,-5.337
0.146,0.038,0.281,-5.337
0.191,0.038,0.284,-5.337
0.112,0.041,0.285,-5.337
0.088,0.042,0.286,-5.337
0.112,0.039,0.282,-5.337
0.149,0.040,0.281,-5.337
0.109,0.042,0.279,-5.337
0.082,0.039,0.277,-5.337
0.185,0.036,0.280,-5.337
0.229,0.041,0.282,-5.337
0.195,0.041,0.278,-5.337
0.179,0.039,0.280,-5.337
0.133,0.039,0.279,-5.337
0.117,0.039,0.274,-5.337
0.174,0.038,0.271,-5.337
0.206,0.037,0.275,-5.337
0.201,0.035,0.278,-5.337
0.179,0.039,0.282,-5.337
0.152,0.039,0.286,-5.337
0.174,0.033,0.286,-5.337
0.153,0.035,0.287,-5.337
0.071,0.038,0.286,-5.337
0.087,0.041,0.284,-5.337
0.133,0.041,0.280,-5.337
0.119,0.041,0.281,-5.337
0.150,0.040,0.281,-5.337
0.173,0.040,0.278,-5.337
0.150,0.038,0.275,-5.337
0.129,0.037,0.279,-5.337
0.172,0.037,0.279,-5.337
0.228,0.038,0.280,-5.337
0.205,0.036,0.281,-5.337
0.192,0.037,0.278,-5.337
0.158,0.036,0.279,-5.337
0.164,0.037,0.280,-5.337
0.119,0.037,0.280,-5.337
0.068,0.042,0.281,-5.337
0.169,0.039,0.281,-5.337
0.241,0.038,0.280,-5.337
0.222,0.036,0.279,-5.337
0.166,0.038,0.279,-5.337
0.166,0.037,0.280,-5.337
0.235,0.038,0.282,-5.337
0.200,0.037,0.283,-5.337
0.124,0.041,0.281,-5.337
0.101,0.041,0.279,-5.337
0.100,0.036,0.275,-5.337
0.048,0.038,0.273,-5.337
0.066,0.038,0.276,-5.337
0.141,0.038,0.281,-5.337
0.182,0.040,0.283,-5.337
0.184,0.036,0.282,-5.337
0.187,0.033,0.277,-5.337
0.104,0.034,0.278,-5.337
0.144,0.031,0.278,-5.337
0.195,0.034,0.278,-5.337
0.165,0.036,0.277,-5.337
0.101,0.035,0.280,-5.337
0.156,0.028,0.285,-5.337
0.123,0.033,0.287,-5.337
0.070,0.037,0.281,-5.337
0.162,0.036,0.275,-5.337
0.193,0.037,0.276,-5.337
0.233,0.034,0.278,-5.337
0.227,0.032,0.278,-5.337
0.170,0.030,0.279,-5.337
0.193,0.033,0.279,-5.337
0.180,0.034,0.276,-5.337
0.152,0.033,0.274,-5.337
0.147,0.032,0.275,-5.337
0.129,0.036,0.278,-5.337
0.086,0.038,0.281,-5.337
0.076,0.037,0.287,-5.337
0.107,0.033,0.287,-5.337
0.130,0.032,0.281,-5.337
0.203,0.032,0.277,-5.337
0.208,0.034,0.279,-5.337
0.203,0.032,0.280,-5.337
0.194,0.035,0.279,-5.337
0.194,0.034,0.278,-5.337
0.244,0.031,0.279,-5.337
0.219,0.032,0.280,-5.337
0.160,0.036,0.279,-5.337
0.111,0.039,0.277,-5.337
0.131,0.037,0.276,-5.337
0.118,0.035,0.276,-5.337
0.075,0.038,0.279,-5.337
0.060,0.038,0.283,-5.337
0.072,0.037,0.284,-5.337
0.080,0.033,0.280,-5.337
0.129,0.032,0.275,-5.337
0.163,0.032,0.278,-5.337
0.189,0.033,0.282,-5.337
0.209,0.036,0.286,-5.337
0.152,0.039,0.286,-5.337
0.072,0.043,0.282,-5.337
0.107,0.040,0.275,-5.337
0.197,0.038,0.274,-5.337
0.188,0.040,0.278,-5.337
0.153,0.038,0.279,-5.337
0.142,0.035,0.278,-5.337
0.136,0.039,0.279,-5.337
0.082,0.042,0.282,-5.337
0.092,0.044,0.285,-5.337
0.112,0.042,0.282,-5.337
0.086,0.042,0.281,-5.337
0.148,0.043,0.279,-5.337
0.187,0.047,0.277,-5.337
0.114,0.049,0.276,-5.337
0.080,0.049,0.281,-5.337
0.059,0.045,0.283,-5.337
0.112,0.042,0.281,-5.337
0.197,0.043,0.280,-5.337
0.224,0.044,0.280,-5.337
0.252,0.043,0.282,-5.337
0.239,0.043,0.283,-5.337
0.177,0.043,0.281,-5.337
0.161,0.045,0.280,-5.337
0.173,0.047,0.283,-5.337
0.230,0.043,0.284,-5.337
0.207,0.043,0.282,-5.337
0.129,0.042,0.279,-5.337
0.085,0.046,0.274,-5.337
0.130,0.047,0.272,-5.337
0.133,0.048,0.277,-5.337
0.116,0.049,0.282,-5.337
0.113,0.050,0.280,-5.337
0.146,0.047,0.277,-5.337
0.163,0.046,0.275,-5.337
0.172,0.047,0.276,-5.337
0.110,0.050,0.279,-5.337
0.101,0.049,0.284,-5.337
0.116,0.045,0.287,-5.337
0.176,0.046,0.286,-5.337
0.199,0.047,0.281,-5.337
0.158,0.045,0.277,-5.337
0.121,0.049,0.276,-5.337
0.154,0.051,0.278,-5.337
0.196,0.053,0.279,-5.337
0.161,0.051,0.281,-5.337
0.157,0.047,0.282,-5.337
0.159,0.049,0.279,-5.337
0.166,0.049,0.274,-5.337
0.192,0.048,0.273,-5.337
0.184,0.045,0.278,-5.337
0.174,0.052,0.281,-5.337
0.123,0.053,0.284,-5.337
0.093,0.054,0.283,-5.337
0.139,0.050,0.280,-5.337
0.155,0.050,0.278,-5.337
0.168,0.053,0.281,-5.337
0.158,0.054,0.285,-5.337
0.153,0.053,0.287,-5.337
0.192,0.051,0.285,-5.337
0.216,0.054,0.280,-5.337
0.189,0.053,0.274,-5.337
0.187,0.053,0.272,-5.337
0.215,0.048,0.275,-5.337
0.247,0.048,0.277,-5.337
0.228,0.049,0.277,-5.337
0.199,0.047,0.278,-5.337
0.191,0.049,0.278,-5.337
0.194,0.051,0.283,-5.337
0.232,0.050,0.285,-5.337
0.231,0.047,0.284,-5.337
0.198,0.049,0.281,-5.337
0.221,0.051,0.277,-5.337
0.279,0.048,0.276,-5.337
0.205,0.049,0.277,-5.337
0.221,0.043,0.278,-5.337
0.298,0.043,0.279,-5.337
0.280,0.047,0.280,-5.337
0.321,0.047,0.281,-5.337
0.323,0.043,0.281,-5.337
0.287,0.045,0.284,-5.337
0.214,0.051,0.286,-5.337
0.151,0.055,0.281,-5.337
0.178,0.054,0.279,-5.337
0.199,0.054,0.279,-5.337
0.170,0.057,0.279,-5.337
0.153,0.056,0.283,-5.337
0.156,0.057,0.287,-5.337
0.112,0.055,0.286,-5.337
0.184,0.052,0.282,-5.337
0.243,0.053,0.277,-5.337
0.209,0.058,0.276,-5.337
0.172,0.056,0.280,-5.337
0.205,0.052,0.281,-5.337
0.154,0.056,0.280,-5.337
0.135,0.060,0.279,-5.337
0.132,0.056,0.277,-5.337
0.210,0.051,0.280,-5.337
0.224,0.050,0.280,-5.337
0.193,0.049,0.280,-5.337
0.193,0.048,0.279,-5.337
0.195,0.048,0.280,-5.337
0.243,0.049,0.282,-5.337
0.276,0.053,0.282,-5.337
0.208,0.052,0.279,-5.337
0.184,0.049,0.277,-5.337
0.232,0.050,0.280,-5.337
0.192,0.053,0.279,-5.337
0.130,0.053,0.281,-5.337
0.168,0.052,0.281,-5.337
0.181,0.054,0.282,-5.337
0.201,0.053,0.284,-5.337
0.219,0.053,0.284,-5.337
0.194,0.055,0.282,-5.337
0.166,0.057,0.282,-5.337
0.211,0.056,0.284,-5.337
0.257,0.057,0.287,-5.337
0.253,0.057,0.284,-5.337
0.174,0.061,0.282,-5.337
0.183,0.061,0.283,-5.337
0.232,0.058,0.282,-5.337
0.242,0.057,0.282,-5.337
0.242,0.057,0.281,-5.337
0.232,0.057,0.279,-5.337
0.224,0.058,0.278,-5.337
0.239,0.056,0.278,-5.337
0.257,0.055,0.280,-5.337
0.292,0.055,0.278,-5.337
0.302,0.056,0.281,-5.337
0.247,0.056,0.285,-5.337
0.258,0.058,0.285,-5.337
0.208,0.062,0.284,-5.337
0.131,0.062,0.280,-5.337
0.092,0.061,0.279,-5.337
0.112,0.060,0.279,-5.337
0.193,0.062,0.281,-5.337
0.292,0.056,0.280,-5.337
0.321,0.057,0.278,-5.337
0.278,0.056,0.278,-5.337
0.170,0.060,0.280,-5.337
0.184,0.060,0.285,-5.337
0.171,0.059,0.286,-5.337
0.227,0.055,0.284,-5.337
0.311,0.052,0.281,-5.337
0.249,0.058,0.282,-5.337
0.213,0.064,0.288,-5.337
0.194,0.063,0.288,-5.337
0.167,0.059,0.285,-5.337
0.172,0.058,0.282,-5.337
0.205,0.056,0.282,-5.337
0.236,0.054,0.281,-5.337
0.257,0.055,0.282,-5.337
0.262,0.057,0.284,-5.337
0.255,0.056,0.280,-5.337
0.222,0.056,0.279,-5.337
0.209,0.055,0.276,-5.337
0.228,0.054,0.276,-5.337
0.241,0.055,0.276,-5.337
0.249,0.055,0.280,-5.337
0.278,0.053,0.283,-5.337
0.225,0.060,0.286,-5.337
0.207,0.059,0.284,-5.337
0.242,0.057,0.281,-5.337
0.244,0.057,0.276,-5.337
0.204,0.060,0.275,-5.337
0.186,0.062,0.277,-5.337
0.174,0.062,0.283,-5.337
0.173,0.058,0.288,-5.337
0.189,0.060,0.287,-5.337
0.257,0.059,0.283,-5.337
0.291,0.058,0.280,-5.337
0.280,0.059,0.279,-5.337
0.247,0.062,0.278,-5.337
0.220,0.063,0.281,-5.337
0.219,0.066,0.283,-5.337
0.215,0.064,0.284,-5.337
0.225,0.058,0.281,-5.337
0.283,0.056,0.280,-5.337
0.253,0.055,0.277,-5.337
0.250,0.058,0.281,-5.337
0.217,0.061,0.280,-5.337
0.144,0.063,0.281,-5.337
0.200,0.059,0.284,-5.337
0.240,0.060,0.287,-5.337
0.242,0.061,0.286,-5.337
0.312,0.063,0.283,-5.337
0.346,0.059,0.276,-5.337
0.318,0.060,0.275,-5.337
0.247,0.062,0.276,-5.337
0.201,0.064,0.276,-5.337
0.230,0.063,0.278,-5.337
0.279,0.063,0.281,-5.337
0.251,0.064,0.283,-5.337
0.232,0.063,0.284,-5.337
0.225,0.062,0.282,-5.337
0.225,0.058,0.280,-5.337
0.214,0.057,0.281,-5.337
0.235,0.056,0.277,-5.337
0.259,0.055,0.273,-5.337
0.315,0.055,0.273,-5.337
0.273,0.056,0.278,-5.337
0.277,0.056,0.282,-5.337
0.235,0.059,0.282,-5.337
0.165,0.063,0.280,-5.337
0.165,0.061,0.283,-5.337
0.193,0.060,0.283,-5.337
0.271,0.058,0.279,-5.337
0.290,0.059,0.278,-5.337
0.252,0.061,0.280,-5.337
0.215,0.062,0.283,-5.337
0.220,0.061,0.284,-5.337
0.208,0.060,0.278,-5.337
0.217,0.059,0.275,-5.337
0.284,0.056,0.281,-5.337
0.282,0.055,0.282,-5.337
0.271,0.059,0.282,-5.337
0.292,0.060,0.282,-5.337
0.228,0.061,0.283,-5.337
0.175,0.060,0.280,-5.337
0.214,0.057,0.278,-5.337
0.215,0.059,0.278,-5.337
0.208,0.065,0.280,-5.337
0.178,0.063,0.282,-5.337
0.175,0.061,0.283,-5.337
0.203,0.059,0.280,-5.337
0.302,0.055,0.277,-5.337
0.304,0.054,0.276,-5.337
0.281,0.052,0.278,-5.337
0.260,0.054,0.282,-5.337
0.156,0.059,0.284,-5.337
0.143,0.053,0.283,-5.337
0.235,0.049,0.277,-5.337
0.301,0.050,0.273,-5.337
0.259,0.054,0.277,-5.337
0.184,0.055,0.285,-5.337
0.206,0.052,0.287,-5.337
0.188,0.057,0.285,-5.337
0.144,0.060,0.283,-5.337
0.166,0.059,0.282,-5.337
0.213,0.055,0.280,-5.337
0.232,0.053,0.277,-5.337
0.192,0.054,0.277,-5.337
0.185,0.057,0.280,-5.337
0.202,0.054,0.277,-5.337
0.170,0.052,0.275,-5.337
0.184,0.050,0.273,-5.337
0.292,0.050,0.276,-5.337
0.210,0.053,0.278,-5.337
0.169,0.050,0.282,-5.337
0.240,0.045,0.285,-5.337
0.239,0.051,0.285,-5.337
0.239,0.052,0.282,-5.337
0.245,0.050,0.281,-5.337
0.280,0.050,0.281,-5.337
0.297,0.049,0.281,-5.337
0.215,0.051,0.280,-5.337
0.206,0.048,0.281,-5.337
0.306,0.048,0.284,-5.337
0.233,0.050,0.285,-5.337
0.113,0.052,0.283,-5.337
0.104,0.049,0.280,-5.337
0.174,0.048,0.283,-5.337
0.255,0.048,0.284,-5.337
0.239,0.047,0.282,-5.337
0.174,0.046,0.279,-5.337
0.185,0.047,0.279,-5.337
0.275,0.049,0.276,-5.337
0.342,0.048,0.276,-5.337
0.281,0.048,0.278,-5.337
0.197,0.050,0.279,-5.337
0.263,0.047,0.281,-5.337
0.291,0.049,0.283,-5.337
0.336,0.044,0.283,-5.337
0.293,0.048,0.284,-5.337
0.194,0.049,0.284,-5.337
0.200,0.048,0.284,-5.337
0.188,0.050,0.285,-5.337
0.196,0.051,0.284,-5.337
0.161,0.049,0.284,-5.337
0.191,0.051,0.282,-5.337
0.196,0.050,0.277,-5.337
0.206,0.051,0.277,-5.337
0.234,0.051,0.282,-5.337
0.206,0.051,0.282,-5.337
0.200,0.049,0.283,-5.337
0.171,0.049,0.282,-5.337
0.112,0.052,0.284,-5.337
0.189,0.054,0.280,-5.337
0.250,0.050,0.281,-5.337
0.299,0.045,0.282,-5.337
0.337,0.046,0.281,-5.337
0.332,0.047,0.281,-5.337
0.302,0.047,0.285,-5.337
0.263,0.047,0.286,-5.337
0.175,0.052,0.283,-5.337
0.112,0.054,0.278,-5.337
0.105,0.056,0.279,-5.337
0.153,0.053,0.282,-5.337
0.264,0.047,0.281,-5.337
0.267,0.047,0.280,-5.337
0.227,0.048,0.280,-5.337
0.196,0.048,0.280,-5.337
0.213,0.048,0.277,-5.337
0.174,0.048,0.273,-5.337
0.162,0.045,0.274,-5.337
0.239,0.039,0.279,-5.337
0.261,0.040,0.280,-5.337
0.165,0.042,0.280,-5.337
0.206,0.043,0.280,-5.337
0.284,0.042,0.283,-5.337
0.257,0.046,0.282,-5.337
0.199,0.049,0.281,-5.337
0.198,0.046,0.281,-5.337
0.198,0.048,0.285,-5.337
0.230,0.049,0.284,-5.337
0.243,0.051,0.281,-5.337
0.192,0.051,0.280,-5.337
0.145,0.054,0.282,-5.337
0.136,0.050,0.282,-5.337
0.186,0.046,0.282,-5.337
0.169,0.047,0.278,-5.337
0.173,0.047,0.277,-5.337
0.248,0.048,0.280,-5.337
0.274,0.047,0.281,-5.337
0.208,0.050,0.276,-5.337
0.121,0.049,0.276,-5.337
0.087,0.048,0.281,-5.337
0.111,0.041,0.285,-5.337
0.179,0.039,0.282,-5.337
0.182,0.040,0.282,-5.337
0.149,0.042,0.283,-5.337
0.166,0.046,0.280,-5.337
0.129,0.050,0.278,-5.337
0.113,0.046,0.277,-5.337
0.065,0.048,0.274,-5.337
0.089,0.048,0.277,-5.337
0.197,0.045,0.280,-5.337
0.211,0.042,0.281,-5.337
0.167,0.043,0.283,-5.337
0.171,0.044,0.283,-5.337
0.156,0.043,0.283,-5.337
0.145,0.041,0.284,-5.337
0.174,0.041,0.286,-5.337
0.242,0.040,0.285,-5.337
0.257,0.043,0.286,-5.337
0.178,0.040,0.283,-5.337
0.168,0.036,0.276,-5.337
0.280,0.032,0.277,-5.337
0.248,0.035,0.280,-5.337
0.173,0.039,0.280,-5.337
0.190,0.038,0.278,-5.337
0.210,0.041,0.281,-5.337
0.176,0.039,0.284,-5.337
0.151,0.041,0.284,-5.337
0.137,0.039,0.280,-5.337
0.140,0.040,0.281,-5.337
0.132,0.039,0.283,-5.337
0.129,0.039,0.288,-5.337
0.198,0.034,0.286,-5.337
0.202,0.038,0.283,-5.337
0.200,0.040,0.280,-5.337
0.199,0.039,0.281,-5.337
0.161,0.038,0.283,-5.337
0.194,0.038,0.285,-5.337
0.194,0.040,0.283,-5.337
0.150,0.041,0.284,-5.337
0.117,0.040,0.282,-5.337
0.180,0.039,0.279,-5.337
0.213,0.039,0.278,-5.337
0.187,0.038,0.279,-5.337
0.219,0.038,0.279,-5.337
0.239,0.040,0.276,-5.337
0.163,0.041,0.278,-5.337
0.115,0.042,0.283,-5.337
0.149,0.039,0.287,-5.337
0.144,0.038,0.287,-5.337
0.205,0.038,0.284,-5.337
0.232,0.037,0.279,-5.337
0.218,0.041,0.278,-5.337
0.186,0.039,0.278,-5.337
0.208,0.038,0.279,-5.337
0.180,0.039,0.282,-5.337
0.083,0.045,0.282,-5.337
0.089,0.042,0.281,-5.337
0.187,0.036,0.280,-5.337
0.220,0.034,0.279,-5.337
0.183,0.037,0.278,-5.337
0.110,0.043,0.282,-5.337
0.098,0.045,0.286,-5.337
0.152,0.044,0.288,-5.337
0.164,0.044,0.285,-5.337
0.139,0.041,0.282,-5.337
0.186,0.038,0.280,-5.337
0.207,0.036,0.282,-5.337
0.224,0.034,0.282,-5.337
0.234,0.033,0.285,-5.337
0.245,0.035,0.283,-5.337
0.156,0.037,0.286,-5.337
0.180,0.034,0.289,-5.337
0.161,0.035,0.290,-5.337
0.111,0.040,0.285,-5.337
0.070,0.041,0.283,-5.337
0.073,0.040,0.282,-5.337
0.069,0.037,0.282,-5.337
0.100,0.033,0.278,-5.337
0.084,0.036,0.276,-5.337
0.128,0.033,0.277,-5.337
0.202,0.029,0.283,-5.337
0.188,0.030,0.287,-5.337
0.114,0.035,0.286,-5.337
0.055,0.037,0.281,-5.337
0.110,0.032,0.282,-5.337
0.144,0.030,0.284,-5.337
0.127,0.032,0.284,-5.337
0.162,0.032,0.285,-5.337
0.194,0.032,0.285,-5.337
0.269,0.030,0.284,-5.337
0.311,0.030,0.280,-5.337
0.235,0.036,0.280,-5.337
0.124,0.036,0.280,-5.337
0.199,0.033,0.281,-5.337
0.211,0.031,0.283,-5.337
0.200,0.030,0.284,-5.337
0.167,0.030,0.283,-5.337
0.121,0.036,0.282,-5.337
0.107,0.036,0.279,-5.337
0.111,0.038,0.279,-5.337
0.102,0.034,0.279,-5.337
0.161,0.032,0.281,-5.337
0.203,0.035,0.285,-5.337
0.205,0.035,0.285,-5.337
0.177,0.033,0.281,-5.337
0.122,0.037,0.281,-5.337
0.098,0.036,0.281,-5.337
0.186,0.035,0.281,-5.337
0.196,0.035,0.280,-5.337
0.149,0.036,0.281,-5.337
0.149,0.041,0.282,-5.337
0.117,0.041,0.279,-5.337
0.133,0.036,0.282,-5.337
0.200,0.035,0.282,-5.337
0.211,0.037,0.280,-5.337
0.153,0.038,0.278,-5.337
0.157,0.040,0.283,-5.337
0.158,0.038,0.282,-5.337
0.092,0.037,0.281,-5.337
0.085,0.036,0.282,-5.337
0.096,0.037,0.286,-5.337
0.157,0.035,0.285,-5.337
0.220,0.035,0.283,-5.337
0.252,0.034,0.281,-5.337
0.174,0.036,0.281,-5.337
0.194,0.034,0.282,-5.337
0.177,0.035,0.283,-5.337
0.113,0.031,0.280,-5.337
0.099,0.029,0.278,-5.337
0.139,0.029,0.280,-5.337
0.083,0.031,0.283,-5.337
0.085,0.028,0.284,-5.337
0.163,0.029,0.285,-5.337
0.110,0.034,0.283,-5.337
0.069,0.033,0.281,-5.337
0.086,0.032,0.280,-5.337
0.161,0.031,0.277,-5.337
0.179,0.032,0.275,-5.337
0.114,0.038,0.279,-5.337
0.070,0.039,0.282,-5.337
0.131,0.039,0.283,-5.337
0.170,0.038,0.286,-5.337
0.154,0.039,0.281,-5.337
0.125,0.041,0.277,-5.337
0.139,0.041,0.274,-5.337
0.200,0.038,0.272,-5.337
0.249,0.034,0.279,-5.337
0.214,0.034,0.283,-5.337
0.194,0.036,0.284,-5.337
0.242,0.038,0.284,-5.337
0.206,0.039,0.282,-5.337
0.166,0.036,0.281,-5.337
0.175,0.039,0.282,-5.337
0.146,0.036,0.283,-5.337
0.091,0.038,0.282,-5.337
0.145,0.040,0.283,-5.337
0.157,0.040,0.285,-5.337
0.159,0.043,0.281,-5.337
0.132,0.044,0.278,-5.337
0.095,0.044,0.276,-5.337
0.052,0.046,0.280,-5.337
0.050,0.042,0.278,-5.337
0.087,0.041,0.278,-5.337
0.156,0.045,0.277,-5.337
0.218,0.042,0.278,-5.337
0.206,0.041,0.278,-5.337
0.163,0.043,0.285,-5.337
0.150,0.042,0.288,-5.337
0.176,0.046,0.285,-5.337
0.143,0.047,0.281,-5.337
0.119,0.041,0.276,-5.337
0.139,0.042,0.278,-5.337
0.162,0.044,0.280,-5.337
0.177,0.046,0.283,-5.337
0.166,0.045,0.284,-5.337
0.216,0.045,0.284,-5.337
0.248,0.041,0.281,-5.337
0.216,0.042,0.276,-5.337
0.121,0.044,0.274,-5.337
0.058,0.047,0.277,-5.337
0.103,0.047,0.279,-5.337
0.176,0.044,0.280,-5.337
0.100,0.047,0.280,-5.337
0.069,0.046,0.284,-5.337
0.140,0.040,0.285,-5.337
0.171,0.040,0.287,-5.337
0.146,0.045,0.283,-5.337
0.087,0.047,0.280,-5.337
0.124,0.042,0.280,-5.337
0.152,0.041,0.283,-5.337
0.162,0.042,0.281,-5.337
0.213,0.043,0.279,-5.337
0.180,0.041,0.279,-5.337
0.127,0.040,0.279,-5.337
0.164,0.038,0.278,-5.337
0.175,0.038,0.278,-5.337
0.151,0.040,0.280,-5.337
0.142,0.043,0.281,-5.337
0.157,0.046,0.283,-5.337
0.114,0.051,0.285,-5.337
0.097,0.049,0.284,-5.337
0.114,0.047,0.280,-5.337
0.191,0.045,0.281,-5.337
0.240,0.043,0.280,-5.337
0.133,0.045,0.281,-5.337
0.095,0.046,0.281,-5.337
0.188,0.045,0.285,-5.337
0.274,0.044,0.284,-5.337
0.243,0.047,0.281,-5.337
0.190,0.046,0.281,-5.337
0.173,0.047,0.281,-5.337
0.135,0.047,0.279,-5.337
0.096,0.047,0.282,-5.337
0.186,0.045,0.286,-5.337
0.217,0.046,0.281,-5.337
0.169,0.047,0.276,-5.337
0.136,0.046,0.280,-5.337
0.176,0.046,0.279,-5.337
0.157,0.047,0.277,-5.337
0.162,0.049,0.279,-5.337
0.230,0.047,0.283,-5.337
0.247,0.046,0.288,-5.337
0.183,0.051,0.286,-5.337
0.122,0.048,0.281,-5.337
0.074,0.046,0.278,-5.337
0.142,0.045,0.282,-5.337
0.182,0.047,0.280,-5.337
0.211,0.048,0.279,-5.337
0.202,0.049,0.278,-5.337
0.153,0.051,0.277,-5.337
0.141,0.048,0.276,-5.337
0.093,0.048,0.280,-5.337
0.097,0.049,0.281,-5.337
0.087,0.052,0.282,-5.337
0.079,0.048,0.283,-5.337
0.088,0.050,0.282,-5.337
0.111,0.050,0.281,-5.337
0.167,0.051,0.283,-5.337
0.216,0.049,0.285,-5.337
0.217,0.050,0.288,-5.337
0.205,0.050,0.289,-5.337
0.184,0.046,0.283,-5.337
0.185,0.047,0.277,-5.337
0.232,0.049,0.275,-5.337
0.147,0.053,0.279,-5.337
0.146,0.052,0.281,-5.337
0.209,0.054,0.283,-5.337
0.187,0.057,0.283,-5.337
0.102,0.057,0.285,-5.337
0.059,0.056,0.285,-5.337
0.115,0.053,0.280,-5.337
0.145,0.054,0.275,-5.337
0.223,0.055,0.277,-5.337
0.276,0.053,0.277,-5.337
0.258,0.049,0.278,-5.337
0.233,0.048,0.279,-5.337
0.238,0.048,0.280,-5.337
0.270,0.046,0.278,-5.337
0.317,0.045,0.282,-5.337
0.261,0.048,0.284,-5.337
0.213,0.051,0.282,-5.337
0.303,0.050,0.283,-5.337
0.322,0.052,0.287,-5.337
0.183,0.055,0.284,-5.337
0.108,0.053,0.280,-5.337
0.112,0.053,0.279,-5.337
0.161,0.055,0.278,-5.337
0.224,0.054,0.278,-5.337
0.204,0.056,0.278,-5.337
0.169,0.055,0.280,-5.337
0.153,0.055,0.280,-5.337
0.193,0.055,0.281,-5.337
0.256,0.054,0.279,-5.337
0.212,0.055,0.279,-5.337
0.092,0.056,0.278,-5.337
0.076,0.056,0.281,-5.337
0.200,0.052,0.282,-5.337
0.242,0.053,0.284,-5.337
0.146,0.057,0.281,-5.337
0.118,0.056,0.276,-5.337
0.221,0.053,0.279,-5.337
0.269,0.056,0.282,-5.337
0.276,0.057,0.282,-5.337
0.243,0.054,0.279,-5.337
0.259,0.053,0.277,-5.337
0.213,0.058,0.279,-5.337
0.223,0.062,0.282,-5.337
0.204,0.061,0.281,-5.337
0.164,0.059,0.280,-5.337
0.184,0.062,0.279,-5.337
0.203,0.061,0.283,-5.337
0.144,0.064,0.281,-5.337
0.177,0.060,0.283,-5.337
0.280,0.058,0.284,-5.337
0.328,0.060,0.284,-5.337
0.275,0.065,0.284,-5.337
0.192,0.065,0.284,-5.337
0.201,0.063,0.280,-5.337
0.282,0.060,0.281,-5.337
0.292,0.061,0.283,-5.337
0.227,0.064,0.283,-5.337
0.189,0.064,0.278,-5.337
0.175,0.061,0.278,-5.337
0.179,0.063,0.285,-5.337
0.209,0.063,0.290,-5.337
0.224,0.062,0.287,-5.337
0.238,0.062,0.281,-5.337
0.199,0.065,0.275,-5.337
0.111,0.067,0.276,-5.337
0.134,0.071,0.282,-5.337
0.157,0.068,0.284,-5.337
0.198,0.062,0.285,-5.337
0.205,0.059,0.285,-5.337
0.177,0.060,0.285,-5.337
0.154,0.063,0.280,-5.337
0.110,0.063,0.281,-5.337
0.077,0.061,0.283,-5.337
0.158,0.062,0.284,-5.337
0.144,0.065,0.281,-5.337
0.109,0.064,0.280,-5.337
0.163,0.061,0.282,-5.337
0.204,0.063,0.284,-5.337
0.225,0.064,0.284,-5.337
0.214,0.065,0.285,-5.337
0.263,0.060,0.287,-5.337
0.305,0.057,0.284,-5.337
0.307,0.056,0.280,-5.337
0.302,0.057,0.282,-5.337
0.265,0.060,0.286,-5.337
0.172,0.061,0.284,-5.337
0.144,0.061,0.283,-5.337
0.201,0.063,0.283,-5.337
0.253,0.062,0.283,-5.337
0.215,0.065,0.283,-5.337
0.219,0.064,0.281,-5.337
0.202,0.062,0.276,-5.337
0.198,0.063,0.279,-5.337
0.230,0.060,0.282,-5.337
0.328,0.059,0.282,-5.337
0.331,0.057,0.280,-5.337
0.317,0.060,0.280,-5.337
0.254,0.063,0.283,-5.337
0.183,0.064,0.283,-5.337
0.187,0.063,0.282,-5.337
0.149,0.062,0.282,-5.337
0.158,0.061,0.283,-5.337
0.263,0.058,0.281,-5.337
0.348,0.056,0.280,-5.337
0.248,0.057,0.282,-5.337
0.182,0.057,0.283,-5.337
0.201,0.063,0.283,-5.337
0.174,0.066,0.285,-5.337
0.112,0.068,0.285,-5.337
0.178,0.064,0.284,-5.337
0.256,0.066,0.284,-5.337
0.219,0.067,0.287,-5.337
0.163,0.063,0.285,-5.337
0.237,0.056,0.280,-5.337
0.231,0.059,0.278,-5.337
0.178,0.062,0.280,-5.337
0.219,0.060,0.281,-5.337
0.272,0.059,0.285,-5.337
0.226,0.058,0.284,-5.337
0.228,0.061,0.282,-5.337
0.215,0.060,0.284,-5.337
0.214,0.060,0.287,-5.337
0.237,0.061,0.284,-5.337
0.261,0.059,0.280,-5.337
0.223,0.056,0.281,-5.337
0.204,0.056,0.283,-5.337
0.198,0.057,0.281,-5.337
0.149,0.061,0.276,-5.337
0.201,0.058,0.277,-5.337
0.217,0.057,0.277,-5.337
0.226,0.057,0.278,-5.337
0.260,0.059,0.281,-5.337
0.304,0.060,0.285,-5.337
0.310,0.059,0.284,-5.337
0.280,0.059,0.278,-5.337
0.267,0.057,0.272,-5.337
0.281,0.058,0.276,-5.337
0.270,0.059,0.282,-5.337
0.235,0.059,0.284,-5.337
0.251,0.058,0.285,-5.337
0.296,0.058,0.289,-5.337
0.266,0.061,0.286,-5.337
0.214,0.065,0.288,-5.337
0.222,0.062,0.284,-5.337
0.226,0.062,0.281,-5.337
0.212,0.063,0.282,-5.337
0.253,0.061,0.283,-5.337
0.261,0.058,0.283,-5.337
0.249,0.058,0.285,-5.337
0.226,0.063,0.286,-5.337
0.165,0.067,0.284,-5.337
0.181,0.060,0.282,-5.337
0.238,0.058,0.281,-5.337
0.296,0.057,0.283,-5.337
0.305,0.055,0.283,-5.337
0.251,0.059,0.281,-5.337
0.251,0.058,0.279,-5.337
0.295,0.056,0.280,-5.337
0.282,0.056,0.281,-5.337
0.262,0.056,0.278,-5.337
0.241,0.057,0.276,-5.337
0.257,0.057,0.281,-5.337
0.198,0.058,0.282,-5.337
0.173,0.062,0.284,-5.337
0.193,0.060,0.282,-5.337
0.252,0.060,0.285,-5.337
0.255,0.055,0.287,-5.337
0.258,0.055,0.285,-5.337
0.213,0.054,0.282,-5.337
0.242,0.053,0.280,-5.337
0.291,0.052,0.280,-5.337
0.246,0.050,0.280,-5.337
0.237,0.048,0.281,-5.337
0.236,0.054,0.281,-5.337
0.253,0.053,0.281,-5.337
0.264,0.049,0.280,-5.337
0.254,0.048,0.278,-5.337
0.233,0.047,0.278,-5.337
0.232,0.050,0.279,-5.337
0.233,0.050,0.280,-5.337
0.220,0.049,0.284,-5.337
0.213,0.047,0.282,-5.337
0.237,0.046,0.281,-5.337
0.234,0.047,0.280,-5.337
0.210,0.047,0.280,-5.337
0.219,0.046,0.279,-5.337
0.174,0.050,0.281,-5.337
0.175,0.049,0.282,-5.337
0.288,0.045,0.281,-5.337
0.264,0.040,0.281,-5.337
0.218,0.039,0.279,-5.337
0.200,0.043,0.280,-5.337
0.223,0.045,0.283,-5.337
0.221,0.045,0.283,-5.337
0.214,0.045,0.284,-5.337
0.157,0.045,0.283,-5.337
0.112,0.045,0.285,-5.337
0.196,0.046,0.286,-5.337
0.259,0.046,0.286,-5.337
0.235,0.048,0.288,-5.337
0.195,0.053,0.281,-5.337
0.185,0.053,0.276,-5.337
0.197,0.056,0.276,-5.337
0.186,0.055,0.280,-5.337
0.184,0.050,0.280,-5.337
0.255,0.051,0.282,-5.337
0.262,0.053,0.279,-5.337
0.241,0.054,0.281,-5.337
0.233,0.052,0.281,-5.337
0.198,0.053,0.280,-5.337
0.198,0.050,0.282,-5.337
0.204,0.053,0.286,-5.337
0.213,0.051,0.282,-5.337
0.221,0.048,0.278,-5.337
0.201,0.049,0.282,-5.337
0.235,0.050,0.286,-5.337
0.234,0.050,0.284,-5.337
0.174,0.049,0.281,-5.337
0.200,0.047,0.280,-5.337
0.214,0.049,0.280,-5.337
0.211,0.047,0.281,-5.337
0.243,0.045,0.281,-5.337
0.231,0.046,0.282,-5.337
0.217,0.045,0.285,-5.337
0.215,0.045,0.289,-5.337
0.160,0.049,0.286,-5.337
0.142,0.048,0.285,-5.337
0.188,0.042,0.284,-5.337
0.221,0.041,0.284,-5.337
0.244,0.044,0.281,-5.337
0.247,0.048,0.279,-5.337
0.197,0.048,0.278,-5.337
0.167,0.046,0.277,-5.337
0.189,0.045,0.280,-5.337
0.211,0.045,0.285,-5.337
0.220,0.047,0.287,-5.337
0.216,0.048,0.286,-5.337
0.242,0.042,0.280,-5.337
0.244,0.043,0.280,-5.337
0.115,0.050,0.282,-5.337
0.088,0.051,0.286,-5.337
0.176,0.047,0.286,-5.337
0.200,0.046,0.283,-5.337
0.202,0.047,0.279,-5.337
0.167,0.045,0.281,-5.337
0.210,0.041,0.283,-5.337
0.236,0.043,0.280,-5.337
0.201,0.046,0.280,-5.337
0.229,0.048,0.281,-5.337
0.196,0.047,0.284,-5.337
0.132,0.047,0.279,-5.337
0.151,0.049,0.279,-5.337
0.185,0.048,0.277,-5.337
0.173,0.047,0.280,-5.337
0.151,0.044,0.284,-5.337
0.192,0.045,0.285,-5.337
0.236,0.043,0.282,-5.337
0.205,0.043,0.278,-5.337
0.148,0.042,0.277,-5.337
0.188,0.041,0.279,-5.337
0.259,0.038,0.282,-5.337
0.323,0.042,0.283,-5.337
0.334,0.045,0.281,-5.337
0.252,0.044,0.281,-5.337
0.192,0.042,0.285,-5.337
0.160,0.042,0.286,-5.337
0.117,0.044,0.285,-5.337
0.056,0.046,0.281,-5.337
0.061,0.048,0.279,-5.337
0.112,0.044,0.276,-5.337
0.114,0.045,0.279,-5.337
0.129,0.047,0.279,-5.337
0.157,0.044,0.277,-5.337
0.187,0.043,0.276,-5.337
0.240,0.043,0.283,-5.337
0.247,0.045,0.286,-5.337
0.215,0.047,0.287,-5.337
0.185,0.045,0.282,-5.337
0.183,0.042,0.277,-5.337
0.222,0.039,0.278,-5.337
0.250,0.039,0.282,-5.337
0.187,0.035,0.279,-5.337
0.140,0.039,0.277,-5.337
0.137,0.042,0.279,-5.337
0.173,0.041,0.283,-5.337
0.150,0.039,0.284,-5.337
0.184,0.038,0.286,-5.337
0.207,0.036,0.285,-5.337
0.178,0.039,0.282,-5.337
0.207,0.040,0.282,-5.337
0.221,0.040,0.281,-5.337
0.153,0.041,0.280,-5.337
0.149,0.044,0.276,-5.337
0.167,0.045,0.277,-5.337
0.171,0.041,0.281,-5.337
0.153,0.041,0.284,-5.337
0.164,0.040,0.283,-5.337
0.212,0.041,0.285,-5.337
0.198,0.042,0.286,-5.337
0.186,0.040,0.285,-5.337
0.129,0.038,0.281,-5.337
0.090,0.037,0.280,-5.337
0.121,0.036,0.278,-5.337
0.163,0.037,0.278,-5.337
0.136,0.037,0.275,-5.337
0.115,0.037,0.273,-5.337
0.185,0.034,0.278,-5.337
0.189,0.035,0.282,-5.337
0.172,0.035,0.281,-5.337
0.216,0.033,0.278,-5.337
0.211,0.034,0.279,-5.337
0.067,0.036,0.278,-5.337
0.035,0.036,0.283,-5.337
0.098,0.037,0.285,-5.337
0.163,0.037,0.285,-5.337
0.194,0.035,0.283,-5.337
0.203,0.035,0.286,-5.337
0.115,0.038,0.287,-5.337
0.131,0.039,0.288,-5.337
0.167,0.038,0.285,-5.337
0.146,0.040,0.280,-5.337
0.157,0.037,0.275,-5.337
0.149,0.034,0.278,-5.337
0.114,0.034,0.280,-5.337
0.143,0.033,0.283,-5.337
0.189,0.029,0.284,-5.337
0.195,0.032,0.286,-5.337
0.179,0.032,0.284,-5.337
0.228,0.032,0.284,-5.337
0.182,0.036,0.283,-5.337
0.173,0.036,0.282,-5.337
0.245,0.034,0.282,-5.337
0.231,0.038,0.281,-5.337
0.176,0.039,0.280,-5.337
0.161,0.040,0.280,-5.337
0.192,0.037,0.283,-5.337
0.263,0.033,0.284,-5.337
0.217,0.034,0.286,-5.337
0.129,0.038,0.287,-5.337
0.057,0.040,0.287,-5.337
0.126,0.034,0.285,-5.337
0.213,0.032,0.282,-5.337
0.225,0.033,0.280,-5.337
0.163,0.039,0.283,-5.337
0.151,0.039,0.284,-5.337
0.177,0.036,0.285,-5.337
0.137,0.035,0.285,-5.337
0.021,0.035,0.286,-5.337
0.036,0.035,0.281,-5.337
0.120,0.034,0.276,-5.337
0.123,0.035,0.277,-5.337
0.066,0.038,0.281,-5.337
0.072,0.036,0.287,-5.337
0.122,0.038,0.288,-5.337
0.174,0.037,0.284,-5.337
0.166,0.037,0.282,-5.337
0.115,0.036,0.283,-5.337
0.104,0.035,0.280,-5.337
0.173,0.038,0.277,-5.337
0.213,0.036,0.276,-5.337
0.180,0.034,0.278,-5.337
0.167,0.034,0.282,-5.337
0.191,0.036,0.285,-5.337
0.167,0.036,0.283,-5.337
0.180,0.034,0.280,-5.337
0.206,0.031,0.279,-5.337
0.213,0.029,0.279,-5.337
0.217,0.029,0.281,-5.337
0.245,0.031,0.285,-5.337
0.209,0.034,0.285,-5.337
0.149,0.036,0.283,-5.337
0.169,0.034,0.281,-5.337
0.184,0.035,0.281,-5.337
0.157,0.037,0.281,-5.337
0.098,0.036,0.283,-5.337
0.123,0.033,0.283,-5.337
0.121,0.037,0.283,-5.337
0.174,0.038,0.282,-5.337
0.201,0.036,0.282,-5.337
0.133,0.036,0.281,-5.337
0.106,0.038,0.281,-5.337
0.123,0.038,0.278,-5.337
