[Parameters]
Operating Mode, Feedback
Subject  AA..ZZ, WT
Session  0..99, 43
No. Trials (1..9999), 500
Mouse Number, 1
Pressure Probe Serial Port, \00\00\00\04COM4
Save additional csv file, TRUE
Save using mouse number, FALSE
A/D Monitor Rate (Hz), 30000.000000
A/D Stimulate Rate (Hz), 30000.000000
A/D input range (+/- V), 5
No. Channels to acquire (N), 2
Pre-Stim Acq. time (ms), 100.000000
Post-Stim Acq. time (ms), 900.000000
Analysis window parameters.M-response Start (ms), 1.100000
Analysis window parameters.M-response Duration (ms), 5.500000
Analysis window parameters.H-response Duration (ms), 6.000000
Analysis window parameters.H-response Start (ms), 6.500000
Feedback window, H response
Proportional gain, 0.100000
Target value, 6.700000
Feedback Ch., 1
Stim Channel to Control (1-4), 4
Trial, 32
Wait for EMG Conditions, FALSE
Channel to monitor (0 - N-1), 1
EMG Hi Limit, 2.000000
EMG Lo Limit, 0.001000
Inter-Stim delay (sec), 10.000000
EMG Monitor Mode, Mean
Time to run Long Stim.(sec), 30
Save Long Stim Data?, OFF
BURST Save time (ms), 1000
BURST Save Interval (x above), 10
Long-Stim. Rep. Rate (Hz), 10.000000
Stim type cluster array.<size(s)>, 4
Stim type cluster array 0.Stimulus Output, Electrical
Stim type cluster array 1.Stimulus Output, OFF
Stim type cluster array 2.Stimulus Output, OFF
Stim type cluster array 3.Stimulus Output, Motor Length
Stim specs cluster array.<size(s)>, 4
Stim specs cluster array 0.Initial Stimulus ampl., 0.300000
Stim specs cluster array 0.Maximum Stimulus, 1.120000
Stim specs cluster array 0.#Pulses in train, 4
Stim specs cluster array 0.Peak Level time (ms), 1.000000
Stim specs cluster array 0.Total pulse period (ms), 150.000000
Stim specs cluster array 0.Start Delay (ms), -50.000000
Stim specs cluster array 0.Pulse Shape, Square
Stim specs cluster array 0.Ramp/Rel. time (ms), 0.100000
Stim specs cluster array 0.Peak Amplitude (V), 0.120000
Stim specs cluster array 1.Initial Stimulus ampl., 0.000000
Stim specs cluster array 1.Maximum Stimulus, 0.000000
Stim specs cluster array 1.#Pulses in train, 3
Stim specs cluster array 1.Peak Level time (ms), 29.000000
Stim specs cluster array 1.Total pulse period (ms), 200.000000
Stim specs cluster array 1.Start Delay (ms), 0.000000
Stim specs cluster array 1.Pulse Shape, Square
Stim specs cluster array 1.Ramp/Rel. time (ms), 0.000000
Stim specs cluster array 1.Peak Amplitude (V), 2.000000
Stim specs cluster array 2.Initial Stimulus ampl., 0.000000
Stim specs cluster array 2.Maximum Stimulus, 0.000000
Stim specs cluster array 2.#Pulses in train, 1
Stim specs cluster array 2.Peak Level time (ms), 25.000000
Stim specs cluster array 2.Total pulse period (ms), 200.000000
Stim specs cluster array 2.Start Delay (ms), 0.000000
Stim specs cluster array 2.Pulse Shape, Square
Stim specs cluster array 2.Ramp/Rel. time (ms), 20.000000
Stim specs cluster array 2.Peak Amplitude (V), 10.000000
Stim specs cluster array 3.Initial Stimulus ampl., 0.000000
Stim specs cluster array 3.Maximum Stimulus, 20.000000
Stim specs cluster array 3.#Pulses in train, 25
Stim specs cluster array 3.Peak Level time (ms), 0.100000
Stim specs cluster array 3.Total pulse period (ms), 4.000000
Stim specs cluster array 3.Start Delay (ms), 205.000000
Stim specs cluster array 3.Pulse Shape, Triangle
Stim specs cluster array 3.Ramp/Rel. time (ms), 3.000000
Stim specs cluster array 3.Peak Amplitude (V), 0.500000
Force cal. (mN/Volt), 100.000000
Force Range (mN), 100.000000
Length cal. (mm/Volt), 10.000000
Length Range (mm), 10.000000
Stim. 1, 0.300000
Stim. 2, 0.000000
Stim. 3, 0.000000
Stim. 4, 0.000000
Monitor acquire time (ms), 100.000000
EMG graph Ymax, 0.100000
Travel limit (mm), 20.000000
Use Pressure Probe, FALSE
Pressure goal (g), 100
Speed (mm/sec), 5.000000
Dwell time (ms), 100.000000
Pressure limit (g), 500.000000
Channel amplitude offset, 0.000000

[DATA]

0.232,0.066,0.295,-5.337
0.190,0.063,0.293,-5.337
0.122,0.064,0.294,-5.337
0.110,0.063,0.297,-5.337
0.174,0.064,0.297,-5.337
0.210,0.061,0.296,-5.337
0.239,0.062,0.295,-5.337
0.251,0.061,0.293,-5.337
0.226,0.061,0.294,-5.337
0.218,0.060,0.297,-5.337
0.209,0.062,0.298,-5.337
0.184,0.062,0.300,-5.337
0.214,0.061,0.298,-5.337
0.240,0.060,0.297,-5.337
0.265,0.062,0.298,-5.337
0.271,0.059,0.298,-5.337
0.231,0.061,0.297,-5.337
0.195,0.061,0.297,-5.337
0.201,0.059,0.292,-5.337
0.180,0.060,0.292,-5.337
0.221,0.058,0.292,-5.337
0.242,0.057,0.293,-5.337
0.266,0.057,0.296,-5.337
0.253,0.059,0.299,-5.337
0.218,0.063,0.301,-5.337
0.227,0.064,0.299,-5.337
0.197,0.066,0.296,-5.337
0.172,0.065,0.294,-5.337
0.218,0.063,0.296,-5.337
0.319,0.059,0.299,-5.337
0.311,0.055,0.302,-5.337
0.300,0.053,0.302,-5.337
0.349,0.053,0.296,-5.337
0.345,0.060,0.293,-5.337
0.223,0.063,0.293,-5.337
0.209,0.060,0.298,-5.337
0.237,0.061,0.302,-5.337
0.208,0.061,0.298,-5.337
0.173,0.061,0.294,-5.337
0.158,0.060,0.292,-5.337
0.159,0.061,0.297,-5.337
0.239,0.057,0.300,-5.337
0.305,0.061,0.297,-5.337
0.308,0.059,0.295,-5.337
0.272,0.060,0.298,-5.337
0.243,0.061,0.296,-5.337
0.217,0.061,0.294,-5.337
0.269,0.059,0.293,-5.337
0.215,0.063,0.294,-5.337
0.131,0.063,0.296,-5.337
0.134,0.065,0.298,-5.337
0.161,0.064,0.293,-5.337
0.214,0.062,0.291,-5.337
0.213,0.064,0.291,-5.337
0.183,0.063,0.293,-5.337
0.149,0.063,0.298,-5.337
0.200,0.064,0.301,-5.337
0.261,0.063,0.301,-5.337
0.247,0.063,0.296,-5.337
0.305,0.060,0.295,-5.337
0.330,0.057,0.297,-5.337
0.306,0.063,0.298,-5.337
0.297,0.061,0.295,-5.337
0.283,0.058,0.296,-5.337
0.309,0.060,0.298,-5.337
0.280,0.063,0.296,-5.337
0.251,0.062,0.293,-5.337
0.305,0.058,0.292,-5.337
0.244,0.060,0.294,-5.337
0.198,0.061,0.298,-5.337
0.220,0.059,0.300,-5.337
0.211,0.056,0.298,-5.337
0.227,0.055,0.295,-5.337
0.203,0.058,0.296,-5.337
0.164,0.063,0.296,-5.337
0.174,0.064,0.295,-5.337
0.211,0.063,0.296,-5.337
0.223,0.062,0.296,-5.337
0.205,0.064,0.293,-5.337
0.169,0.060,0.293,-5.337
0.198,0.056,0.295,-5.337
0.300,0.053,0.294,-5.337
0.266,0.055,0.297,-5.337
0.198,0.058,0.302,-5.337
0.207,0.057,0.303,-5.337
0.209,0.055,0.295,-5.337
0.159,0.054,0.291,-5.337
0.163,0.054,0.289,-5.337
0.180,0.057,0.293,-5.337
0.202,0.054,0.297,-5.337
0.239,0.052,0.299,-5.337
0.297,0.049,0.298,-5.337
0.284,0.052,0.295,-5.337
0.237,0.053,0.294,-5.337
0.225,0.053,0.293,-5.337
0.232,0.049,0.293,-5.337
0.228,0.051,0.295,-5.337
0.241,0.051,0.296,-5.337
0.269,0.049,0.299,-5.337
0.223,0.052,0.298,-5.337
0.224,0.052,0.299,-5.337
0.221,0.051,0.299,-5.337
0.215,0.051,0.294,-5.337
0.250,0.049,0.292,-5.337
0.316,0.048,0.294,-5.337
0.362,0.050,0.294,-5.337
0.283,0.050,0.291,-5.337
0.196,0.053,0.292,-5.337
0.242,0.052,0.292,-5.337
0.259,0.054,0.297,-5.337
0.186,0.058,0.297,-5.337
0.192,0.057,0.299,-5.337
0.206,0.054,0.298,-5.337
0.205,0.054,0.294,-5.337
0.166,0.054,0.294,-5.337
0.190,0.055,0.300,-5.337
0.245,0.052,0.300,-5.337
0.212,0.053,0.295,-5.337
0.212,0.054,0.290,-5.337
0.204,0.054,0.288,-5.337
0.271,0.050,0.292,-5.337
0.265,0.051,0.296,-5.337
0.224,0.051,0.298,-5.337
0.190,0.050,0.295,-5.337
0.224,0.046,0.297,-5.337
0.200,0.049,0.296,-5.337
0.199,0.048,0.293,-5.337
0.212,0.045,0.289,-5.337
0.121,0.050,0.294,-5.337
0.142,0.050,0.294,-5.337
0.228,0.051,0.295,-5.337
0.237,0.049,0.293,-5.337
0.281,0.050,0.292,-5.337
0.276,0.050,0.290,-5.337
0.145,0.053,0.291,-5.337
0.132,0.048,0.296,-5.337
0.226,0.047,0.301,-5.337
0.266,0.045,0.301,-5.337
0.297,0.045,0.301,-5.337
0.262,0.043,0.297,-5.337
0.290,0.043,0.295,-5.337
0.283,0.046,0.294,-5.337
0.267,0.043,0.295,-5.337
0.234,0.043,0.296,-5.337
0.237,0.043,0.298,-5.337
0.253,0.044,0.297,-5.337
0.210,0.049,0.294,-5.337
0.222,0.048,0.292,-5.337
0.250,0.047,0.295,-5.337
0.210,0.046,0.296,-5.337
0.235,0.046,0.293,-5.337
0.295,0.050,0.292,-5.337
0.301,0.052,0.290,-5.337
0.259,0.049,0.293,-5.337
0.242,0.044,0.294,-5.337
0.251,0.043,0.291,-5.337
0.233,0.042,0.291,-5.337
0.237,0.044,0.293,-5.337
0.276,0.043,0.298,-5.337
0.288,0.042,0.301,-5.337
0.280,0.042,0.300,-5.337
0.274,0.040,0.296,-5.337
0.312,0.041,0.293,-5.337
0.221,0.048,0.294,-5.337
0.151,0.049,0.294,-5.337
0.227,0.043,0.291,-5.337
0.242,0.040,0.293,-5.337
0.211,0.043,0.296,-5.337
0.139,0.048,0.297,-5.337
0.105,0.048,0.294,-5.337
0.181,0.046,0.292,-5.337
0.240,0.042,0.294,-5.337
0.199,0.042,0.297,-5.337
0.162,0.041,0.297,-5.337
0.149,0.041,0.298,-5.337
0.191,0.040,0.295,-5.337
0.242,0.042,0.294,-5.337
0.208,0.043,0.292,-5.337
0.173,0.043,0.294,-5.337
0.164,0.040,0.292,-5.337
0.159,0.043,0.292,-5.337
0.231,0.042,0.294,-5.337
0.255,0.042,0.298,-5.337
0.220,0.042,0.297,-5.337
0.229,0.041,0.293,-5.337
0.221,0.041,0.291,-5.337
0.204,0.042,0.295,-5.337
0.247,0.037,0.299,-5.337
0.258,0.037,0.297,-5.337
0.312,0.032,0.296,-5.337
0.254,0.036,0.294,-5.337
0.164,0.041,0.292,-5.337
0.200,0.045,0.290,-5.337
0.213,0.043,0.288,-5.337
0.208,0.039,0.289,-5.337
0.187,0.036,0.294,-5.337
0.136,0.042,0.295,-5.337
0.112,0.043,0.294,-5.337
0.121,0.041,0.293,-5.337
0.165,0.042,0.296,-5.337
0.220,0.045,0.297,-5.337
0.214,0.044,0.296,-5.337
0.161,0.045,0.293,-5.337
0.186,0.043,0.293,-5.337
0.220,0.042,0.295,-5.337
0.186,0.037,0.295,-5.337
0.152,0.038,0.295,-5.337
0.190,0.036,0.295,-5.337
0.212,0.035,0.296,-5.337
0.188,0.036,0.293,-5.337
0.213,0.035,0.292,-5.337
0.232,0.032,0.293,-5.337
0.214,0.034,0.288,-5.337
0.169,0.037,0.286,-5.337
0.161,0.041,0.288,-5.337
0.255,0.033,0.296,-5.337
0.294,0.033,0.300,-5.337
0.237,0.037,0.301,-5.337
0.196,0.038,0.297,-5.337
0.150,0.040,0.291,-5.337
0.172,0.037,0.292,-5.337
0.251,0.033,0.291,-5.337
0.282,0.034,0.292,-5.337
0.279,0.031,0.292,-5.337
0.283,0.029,0.294,-5.337
0.257,0.028,0.296,-5.337
0.249,0.031,0.299,-5.337
0.255,0.034,0.298,-5.337
0.175,0.039,0.301,-5.337
0.101,0.042,0.306,-5.337
0.087,0.043,0.304,-5.337
0.153,0.040,0.295,-5.337
0.164,0.045,0.288,-5.337
0.086,0.047,0.287,-5.337
0.151,0.045,0.294,-5.337
0.182,0.044,0.297,-5.337
0.104,0.042,0.300,-5.337
0.129,0.034,0.299,-5.337
0.259,0.029,0.295,-5.337
0.294,0.030,0.289,-5.337
0.264,0.033,0.286,-5.337
0.219,0.036,0.290,-5.337
0.213,0.036,0.294,-5.337
0.208,0.036,0.298,-5.337
0.250,0.034,0.295,-5.337
0.278,0.032,0.295,-5.337
0.196,0.036,0.297,-5.337
0.084,0.041,0.296,-5.337
0.089,0.041,0.295,-5.337
0.148,0.036,0.294,-5.337
0.114,0.037,0.290,-5.337
0.073,0.039,0.292,-5.337
0.068,0.039,0.293,-5.337
0.099,0.039,0.294,-5.337
0.212,0.034,0.295,-5.337
0.273,0.033,0.296,-5.337
0.227,0.034,0.295,-5.337
0.259,0.033,0.295,-5.337
0.261,0.033,0.299,-5.337
0.259,0.032,0.299,-5.337
0.310,0.030,0.296,-5.337
0.305,0.031,0.297,-5.337
0.249,0.029,0.297,-5.337
0.222,0.030,0.295,-5.337
0.198,0.034,0.297,-5.337
0.196,0.036,0.298,-5.337
0.172,0.034,0.298,-5.337
0.234,0.034,0.296,-5.337
0.230,0.038,0.295,-5.337
0.185,0.039,0.293,-5.337
0.161,0.039,0.293,-5.337
0.188,0.036,0.296,-5.337
0.185,0.037,0.297,-5.337
0.151,0.038,0.293,-5.337
0.203,0.036,0.292,-5.337
0.244,0.030,0.293,-5.337
0.236,0.034,0.295,-5.337
0.148,0.036,0.297,-5.337
0.114,0.037,0.300,-5.337
0.168,0.036,0.298,-5.337
0.158,0.034,0.295,-5.337
0.154,0.034,0.293,-5.337
0.133,0.035,0.293,-5.337
0.157,0.034,0.296,-5.337
0.164,0.037,0.297,-5.337
0.181,0.040,0.298,-5.337
0.221,0.038,0.298,-5.337
0.266,0.038,0.295,-5.337
0.186,0.041,0.292,-5.337
0.165,0.038,0.293,-5.337
0.131,0.039,0.294,-5.337
0.116,0.042,0.297,-5.337
0.156,0.042,0.298,-5.337
0.216,0.038,0.300,-5.337
0.134,0.038,0.301,-5.337
0.098,0.043,0.300,-5.337
0.180,0.039,0.295,-5.337
0.197,0.035,0.291,-5.337
0.136,0.034,0.289,-5.337
0.165,0.031,0.293,-5.337
0.191,0.032,0.298,-5.337
0.199,0.034,0.299,-5.337
0.169,0.035,0.295,-5.337
0.177,0.037,0.295,-5.337
0.186,0.032,0.294,-5.337
0.210,0.027,0.295,-5.337
0.212,0.032,0.294,-5.337
0.181,0.036,0.294,-5.337
0.173,0.034,0.296,-5.337
0.209,0.029,0.293,-5.337
0.243,0.028,0.295,-5.337
0.255,0.033,0.293,-5.337
0.115,0.035,0.291,-5.337
0.096,0.030,0.293,-5.337
0.148,0.033,0.298,-5.337
0.164,0.034,0.296,-5.337
0.156,0.036,0.297,-5.337
0.191,0.034,0.298,-5.337
0.224,0.033,0.296,-5.337
0.173,0.035,0.294,-5.337
0.193,0.034,0.295,-5.337
0.262,0.032,0.296,-5.337
0.183,0.034,0.299,-5.337
0.126,0.033,0.300,-5.337
0.209,0.029,0.298,-5.337
0.256,0.031,0.298,-5.337
0.227,0.032,0.298,-5.337
0.243,0.028,0.295,-5.337
0.222,0.029,0.294,-5.337
0.193,0.032,0.294,-5.337
0.108,0.037,0.292,-5.337
0.136,0.038,0.290,-5.337
0.178,0.039,0.294,-5.337
0.127,0.040,0.299,-5.337
0.072,0.039,0.300,-5.337
0.104,0.034,0.300,-5.337
0.115,0.036,0.297,-5.337
0.120,0.039,0.294,-5.337
0.146,0.035,0.289,-5.337
0.193,0.035,0.289,-5.337
0.229,0.034,0.293,-5.337
0.197,0.037,0.297,-5.337
0.177,0.037,0.296,-5.337
0.170,0.038,0.295,-5.337
0.191,0.037,0.292,-5.337
0.157,0.039,0.291,-5.337
0.055,0.042,0.292,-5.337
0.083,0.044,0.294,-5.337
0.160,0.046,0.298,-5.337
0.127,0.048,0.300,-5.337
0.122,0.044,0.300,-5.337
0.165,0.044,0.298,-5.337
0.157,0.043,0.295,-5.337
0.129,0.046,0.292,-5.337
0.078,0.045,0.297,-5.337
0.087,0.042,0.297,-5.337
0.146,0.046,0.296,-5.337
0.135,0.045,0.292,-5.337
0.135,0.045,0.294,-5.337
0.205,0.043,0.295,-5.337
0.223,0.045,0.296,-5.337
0.257,0.046,0.296,-5.337
0.276,0.050,0.294,-5.337
0.207,0.047,0.290,-5.337
0.194,0.045,0.294,-5.337
0.271,0.041,0.300,-5.337
0.302,0.037,0.304,-5.337
0.239,0.041,0.299,-5.337
0.146,0.044,0.297,-5.337
0.140,0.043,0.296,-5.337
0.135,0.042,0.296,-5.337
0.175,0.038,0.290,-5.337
0.206,0.040,0.288,-5.337
0.172,0.042,0.289,-5.337
0.125,0.040,0.290,-5.337
0.129,0.039,0.293,-5.337
0.195,0.039,0.297,-5.337
0.269,0.038,0.300,-5.337
0.260,0.039,0.302,-5.337
0.136,0.043,0.302,-5.337
0.079,0.044,0.296,-5.337
0.171,0.046,0.291,-5.337
0.169,0.047,0.289,-5.337
0.095,0.048,0.290,-5.337
0.068,0.047,0.293,-5.337
0.096,0.048,0.301,-5.337
0.156,0.045,0.302,-5.337
0.184,0.046,0.300,-5.337
0.229,0.046,0.296,-5.337
0.216,0.046,0.293,-5.337
0.164,0.050,0.286,-5.337
0.131,0.047,0.282,-5.337
0.171,0.046,0.286,-5.337
0.194,0.048,0.291,-5.337
0.246,0.049,0.294,-5.337
0.207,0.049,0.296,-5.337
0.149,0.048,0.294,-5.337
0.134,0.045,0.296,-5.337
0.143,0.044,0.295,-5.337
0.165,0.046,0.289,-5.337
0.166,0.050,0.284,-5.337
0.204,0.052,0.285,-5.337
0.170,0.050,0.291,-5.337
0.168,0.046,0.295,-5.337
0.171,0.047,0.298,-5.337
0.195,0.049,0.298,-5.337
0.155,0.047,0.298,-5.337
0.115,0.046,0.296,-5.337
0.191,0.049,0.296,-5.337
0.242,0.048,0.294,-5.337
0.222,0.046,0.292,-5.337
0.205,0.048,0.293,-5.337
0.223,0.048,0.293,-5.337
0.248,0.047,0.292,-5.337
0.208,0.051,0.290,-5.337
0.160,0.050,0.289,-5.337
0.174,0.045,0.292,-5.337
0.173,0.045,0.294,-5.337
0.156,0.049,0.293,-5.337
0.189,0.053,0.290,-5.337
0.164,0.053,0.287,-5.337
0.195,0.050,0.286,-5.337
0.184,0.053,0.287,-5.337
0.196,0.049,0.290,-5.337
0.214,0.048,0.292,-5.337
0.168,0.048,0.297,-5.337
0.196,0.045,0.297,-5.337
0.250,0.046,0.295,-5.337
0.241,0.048,0.289,-5.337
0.186,0.052,0.289,-5.337
0.107,0.049,0.288,-5.337
0.155,0.048,0.292,-5.337
0.179,0.051,0.290,-5.337
0.181,0.054,0.289,-5.337
0.139,0.052,0.289,-5.337
0.117,0.050,0.292,-5.337
0.228,0.047,0.295,-5.337
0.254,0.048,0.298,-5.337
0.151,0.048,0.296,-5.337
0.186,0.044,0.291,-5.337
0.205,0.047,0.287,-5.337
0.194,0.052,0.289,-5.337
0.164,0.054,0.292,-5.337
0.150,0.053,0.292,-5.337
0.272,0.049,0.288,-5.337
0.277,0.050,0.289,-5.337
0.192,0.053,0.292,-5.337
0.150,0.054,0.291,-5.337
0.201,0.052,0.288,-5.337
0.245,0.052,0.289,-5.337
0.190,0.056,0.292,-5.337
0.194,0.056,0.291,-5.337
0.178,0.057,0.289,-5.337
0.183,0.056,0.290,-5.337
0.228,0.057,0.292,-5.337
0.252,0.058,0.289,-5.337
0.139,0.061,0.286,-5.337
0.081,0.061,0.289,-5.337
0.111,0.059,0.295,-5.337
0.148,0.060,0.293,-5.337
0.193,0.057,0.291,-5.337
0.204,0.060,0.290,-5.337
0.197,0.061,0.291,-5.337
0.175,0.060,0.291,-5.337
0.217,0.059,0.291,-5.337
0.291,0.059,0.293,-5.337
0.249,0.058,0.293,-5.337
0.192,0.055,0.289,-5.337
0.135,0.060,0.286,-5.337
0.128,0.057,0.290,-5.337
0.127,0.055,0.294,-5.337
0.114,0.058,0.292,-5.337
0.185,0.056,0.287,-5.337
0.219,0.056,0.286,-5.337
0.217,0.054,0.287,-5.337
0.274,0.054,0.291,-5.337
0.228,0.057,0.291,-5.337
0.169,0.056,0.288,-5.337
0.231,0.054,0.286,-5.337
0.265,0.056,0.288,-5.337
0.223,0.059,0.294,-5.337
0.222,0.059,0.301,-5.337
0.215,0.059,0.300,-5.337
0.221,0.059,0.297,-5.337
0.209,0.057,0.291,-5.337
0.222,0.056,0.284,-5.337
0.188,0.058,0.282,-5.337
0.140,0.058,0.287,-5.337
0.239,0.059,0.291,-5.337
0.276,0.058,0.289,-5.337
0.188,0.058,0.293,-5.337
0.209,0.056,0.295,-5.337
0.187,0.056,0.297,-5.337
0.165,0.057,0.292,-5.337
0.202,0.056,0.287,-5.337
0.240,0.054,0.284,-5.337
0.290,0.051,0.285,-5.337
0.286,0.053,0.287,-5.337
0.242,0.058,0.290,-5.337
0.229,0.061,0.290,-5.337
0.231,0.063,0.292,-5.337
0.195,0.061,0.296,-5.337
0.193,0.062,0.294,-5.337
0.161,0.062,0.288,-5.337
0.205,0.059,0.283,-5.337
0.245,0.060,0.283,-5.337
0.250,0.059,0.289,-5.337
0.251,0.057,0.292,-5.337
0.237,0.060,0.293,-5.337
0.212,0.061,0.294,-5.337
0.225,0.060,0.295,-5.337
0.259,0.062,0.294,-5.337
0.259,0.063,0.286,-5.337
0.242,0.062,0.284,-5.337
0.225,0.059,0.286,-5.337
0.265,0.060,0.290,-5.337
0.228,0.065,0.289,-5.337
0.218,0.063,0.291,-5.337
0.224,0.064,0.290,-5.337
0.153,0.066,0.289,-5.337
0.129,0.067,0.293,-5.337
0.136,0.067,0.299,-5.337
0.189,0.061,0.300,-5.337
0.232,0.060,0.296,-5.337
0.259,0.060,0.292,-5.337
0.320,0.063,0.286,-5.337
0.304,0.065,0.286,-5.337
0.271,0.065,0.289,-5.337
0.184,0.063,0.288,-5.337
0.205,0.063,0.288,-5.337
0.258,0.063,0.291,-5.337
0.238,0.062,0.288,-5.337
0.277,0.061,0.287,-5.337
0.304,0.059,0.291,-5.337
0.276,0.060,0.294,-5.337
0.263,0.060,0.294,-5.337
0.267,0.062,0.296,-5.337
0.252,0.063,0.292,-5.337
0.244,0.067,0.289,-5.337
0.225,0.063,0.287,-5.337
0.215,0.062,0.292,-5.337
0.219,0.063,0.292,-5.337
0.281,0.063,0.295,-5.337
0.261,0.060,0.296,-5.337
0.228,0.062,0.294,-5.337
0.234,0.057,0.290,-5.337
0.193,0.063,0.286,-5.337
0.200,0.060,0.285,-5.337
0.285,0.056,0.289,-5.337
0.365,0.061,0.295,-5.337
0.299,0.060,0.295,-5.337
0.273,0.059,0.289,-5.337
0.223,0.061,0.286,-5.337
0.219,0.061,0.286,-5.337
0.193,0.065,0.288,-5.337
0.141,0.068,0.290,-5.337
0.203,0.068,0.292,-5.337
0.219,0.067,0.292,-5.337
0.200,0.064,0.290,-5.337
0.301,0.063,0.292,-5.337
0.310,0.064,0.288,-5.337
0.269,0.063,0.291,-5.337
0.238,0.063,0.292,-5.337
0.211,0.064,0.293,-5.337
0.206,0.062,0.292,-5.337
0.190,0.066,0.292,-5.337
0.163,0.067,0.293,-5.337
0.176,0.067,0.295,-5.337
0.212,0.064,0.293,-5.337
0.224,0.060,0.290,-5.337
0.265,0.058,0.289,-5.337
0.290,0.057,0.291,-5.337
0.270,0.060,0.292,-5.337
0.234,0.060,0.294,-5.337
0.214,0.062,0.290,-5.337
0.234,0.061,0.286,-5.337
0.300,0.062,0.286,-5.337
0.291,0.060,0.290,-5.337
0.284,0.056,0.292,-5.337
0.264,0.060,0.295,-5.337
0.275,0.060,0.296,-5.337
0.275,0.056,0.294,-5.337
0.168,0.061,0.292,-5.337
0.117,0.062,0.288,-5.337
0.227,0.054,0.292,-5.337
0.215,0.053,0.297,-5.337
0.156,0.056,0.296,-5.337
0.123,0.059,0.286,-5.337
0.094,0.059,0.284,-5.337
0.211,0.055,0.285,-5.337
0.294,0.056,0.293,-5.337
0.233,0.061,0.297,-5.337
0.193,0.063,0.297,-5.337
0.238,0.059,0.294,-5.337
0.227,0.057,0.291,-5.337
0.252,0.055,0.290,-5.337
0.317,0.057,0.291,-5.337
0.309,0.058,0.286,-5.337
0.300,0.059,0.287,-5.337
0.316,0.059,0.291,-5.337
0.306,0.059,0.294,-5.337
0.218,0.058,0.293,-5.337
0.167,0.059,0.292,-5.337
0.184,0.059,0.293,-5.337
0.208,0.060,0.291,-5.337
0.199,0.061,0.289,-5.337
0.190,0.060,0.290,-5.337
0.262,0.059,0.289,-5.337
0.292,0.058,0.286,-5.337
0.311,0.057,0.285,-5.337
0.269,0.060,0.284,-5.337
0.190,0.059,0.287,-5.337
0.237,0.056,0.290,-5.337
0.217,0.060,0.293,-5.337
0.204,0.062,0.296,-5.337
0.235,0.062,0.297,-5.337
0.249,0.057,0.298,-5.337
0.215,0.059,0.295,-5.337
0.153,0.058,0.292,-5.337
0.232,0.055,0.290,-5.337
0.284,0.055,0.287,-5.337
0.221,0.057,0.287,-5.337
0.164,0.059,0.291,-5.337
0.185,0.060,0.294,-5.337
0.274,0.060,0.292,-5.337
0.263,0.058,0.285,-5.337
0.253,0.057,0.284,-5.337
0.254,0.059,0.287,-5.337
0.234,0.059,0.296,-5.337
0.235,0.054,0.301,-5.337
0.253,0.055,0.300,-5.337
0.242,0.055,0.295,-5.337
0.256,0.054,0.294,-5.337
0.248,0.055,0.289,-5.337
0.277,0.056,0.290,-5.337
0.248,0.052,0.289,-5.337
0.187,0.053,0.291,-5.337
0.234,0.051,0.293,-5.337
0.224,0.052,0.293,-5.337
0.180,0.051,0.289,-5.337
0.155,0.051,0.287,-5.337
0.195,0.049,0.288,-5.337
0.216,0.049,0.291,-5.337
0.207,0.047,0.293,-5.337
0.245,0.050,0.297,-5.337
0.190,0.054,0.297,-5.337
0.163,0.054,0.292,-5.337
0.177,0.051,0.289,-5.337
0.203,0.049,0.287,-5.337
0.210,0.053,0.289,-5.337
0.254,0.052,0.290,-5.337
0.278,0.054,0.290,-5.337
0.259,0.056,0.290,-5.337
0.225,0.056,0.295,-5.337
0.243,0.055,0.295,-5.337
0.252,0.053,0.290,-5.337
0.237,0.052,0.282,-5.337
0.260,0.053,0.284,-5.337
0.233,0.054,0.291,-5.337
0.151,0.052,0.294,-5.337
0.154,0.051,0.294,-5.337
0.235,0.052,0.292,-5.337
0.281,0.052,0.290,-5.337
0.294,0.049,0.290,-5.337
0.260,0.049,0.289,-5.337
0.235,0.047,0.292,-5.337
0.192,0.047,0.292,-5.337
0.238,0.050,0.293,-5.337
0.274,0.051,0.292,-5.337
0.222,0.050,0.292,-5.337
0.119,0.050,0.290,-5.337
0.198,0.048,0.292,-5.337
0.239,0.047,0.294,-5.337
0.238,0.045,0.290,-5.337
0.294,0.046,0.286,-5.337
0.257,0.047,0.285,-5.337
0.210,0.051,0.288,-5.337
0.182,0.051,0.286,-5.337
0.149,0.052,0.290,-5.337
0.204,0.045,0.292,-5.337
0.236,0.046,0.294,-5.337
0.151,0.045,0.290,-5.337
0.129,0.045,0.289,-5.337
0.191,0.044,0.290,-5.337
0.248,0.044,0.291,-5.337
0.237,0.044,0.290,-5.337
0.105,0.047,0.289,-5.337
0.074,0.042,0.284,-5.337
0.180,0.040,0.289,-5.337
0.288,0.040,0.291,-5.337
0.301,0.041,0.288,-5.337
0.282,0.042,0.286,-5.337
0.201,0.045,0.290,-5.337
0.103,0.047,0.292,-5.337
0.107,0.048,0.294,-5.337
0.158,0.047,0.294,-5.337
0.173,0.043,0.291,-5.337
0.215,0.040,0.288,-5.337
0.204,0.044,0.290,-5.337
0.232,0.042,0.292,-5.337
0.236,0.040,0.289,-5.337
0.118,0.043,0.288,-5.337
0.081,0.041,0.290,-5.337
0.130,0.039,0.292,-5.337
0.169,0.039,0.289,-5.337
0.243,0.037,0.289,-5.337
0.243,0.038,0.292,-5.337
0.164,0.039,0.290,-5.337
0.145,0.035,0.286,-5.337
0.268,0.029,0.283,-5.337
0.315,0.032,0.281,-5.337
0.329,0.037,0.280,-5.337
0.370,0.040,0.285,-5.337
0.353,0.044,0.292,-5.337
0.270,0.045,0.295,-5.337
0.239,0.041,0.295,-5.337
0.239,0.040,0.296,-5.337
0.195,0.045,0.294,-5.337
0.156,0.044,0.293,-5.337
0.148,0.042,0.291,-5.337
0.169,0.039,0.290,-5.337
0.200,0.036,0.288,-5.337
0.234,0.034,0.289,-5.337
0.219,0.035,0.291,-5.337
0.189,0.040,0.290,-5.337
0.188,0.041,0.283,-5.337
0.212,0.037,0.283,-5.337
0.196,0.038,0.286,-5.337
0.172,0.039,0.288,-5.337
0.212,0.036,0.289,-5.337
0.299,0.032,0.291,-5.337
0.283,0.032,0.293,-5.337
0.202,0.037,0.292,-5.337
0.175,0.035,0.287,-5.337
0.195,0.033,0.287,-5.337
0.173,0.037,0.288,-5.337
0.150,0.039,0.291,-5.337
0.196,0.036,0.289,-5.337
0.204,0.036,0.286,-5.337
0.162,0.037,0.285,-5.337
0.156,0.035,0.284,-5.337
0.202,0.036,0.290,-5.337
0.189,0.040,0.295,-5.337
0.215,0.039,0.295,-5.337
0.221,0.040,0.291,-5.337
0.212,0.038,0.291,-5.337
0.183,0.039,0.290,-5.337
0.124,0.043,0.290,-5.337
0.198,0.037,0.292,-5.337
0.296,0.036,0.292,-5.337
0.253,0.036,0.288,-5.337
0.160,0.038,0.284,-5.337
0.148,0.039,0.285,-5.337
0.185,0.040,0.289,-5.337
0.182,0.036,0.292,-5.337
0.189,0.037,0.292,-5.337
0.155,0.041,0.288,-5.337
0.166,0.039,0.290,-5.337
0.180,0.037,0.292,-5.337
0.155,0.037,0.289,-5.337
0.161,0.034,0.286,-5.337
0.184,0.033,0.285,-5.337
0.172,0.033,0.288,-5.337
0.148,0.036,0.287,-5.337
0.122,0.032,0.290,-5.337
0.174,0.031,0.290,-5.337
0.240,0.032,0.291,-5.337
0.231,0.031,0.291,-5.337
0.198,0.031,0.293,-5.337
0.157,0.032,0.294,-5.337
0.186,0.033,0.293,-5.337
0.238,0.037,0.295,-5.337
0.251,0.041,0.294,-5.337
0.219,0.041,0.287,-5.337
0.176,0.037,0.284,-5.337
0.131,0.037,0.288,-5.337
0.130,0.036,0.293,-5.337
0.185,0.037,0.289,-5.337
0.179,0.036,0.289,-5.337
0.170,0.036,0.288,-5.337
0.144,0.038,0.292,-5.337
0.160,0.037,0.294,-5.337
0.210,0.034,0.293,-5.337
0.262,0.034,0.291,-5.337
0.190,0.035,0.289,-5.337
0.150,0.035,0.290,-5.337
0.164,0.036,0.292,-5.337
0.099,0.036,0.292,-5.337
0.111,0.030,0.291,-5.337
0.201,0.032,0.294,-5.337
0.125,0.036,0.294,-5.337
0.067,0.039,0.292,-5.337
0.124,0.040,0.291,-5.337
0.105,0.041,0.291,-5.337
0.094,0.038,0.287,-5.337
0.115,0.038,0.287,-5.337
0.142,0.039,0.292,-5.337
0.129,0.041,0.294,-5.337
0.098,0.035,0.293,-5.337
0.108,0.036,0.292,-5.337
0.122,0.040,0.292,-5.337
0.137,0.039,0.290,-5.337
0.136,0.037,0.290,-5.337
0.089,0.034,0.292,-5.337
0.096,0.031,0.292,-5.337
0.154,0.034,0.291,-5.337
0.147,0.036,0.293,-5.337
0.159,0.033,0.295,-5.337
0.273,0.030,0.294,-5.337
0.294,0.032,0.289,-5.337
0.211,0.034,0.286,-5.337
0.156,0.033,0.284,-5.337
0.184,0.035,0.291,-5.337
0.246,0.037,0.293,-5.337
0.263,0.041,0.292,-5.337
0.242,0.043,0.288,-5.337
0.230,0.043,0.291,-5.337
0.246,0.042,0.291,-5.337
0.190,0.043,0.292,-5.337
0.174,0.042,0.293,-5.337
0.138,0.046,0.292,-5.337
0.099,0.046,0.291,-5.337
0.169,0.043,0.291,-5.337
0.194,0.041,0.292,-5.337
0.113,0.041,0.290,-5.337
0.144,0.041,0.289,-5.337
0.192,0.039,0.294,-5.337
0.164,0.042,0.295,-5.337
0.116,0.046,0.292,-5.337
0.150,0.042,0.288,-5.337
0.166,0.045,0.287,-5.337
0.136,0.047,0.290,-5.337
0.108,0.050,0.289,-5.337
0.105,0.048,0.289,-5.337
0.198,0.043,0.288,-5.337
0.232,0.043,0.288,-5.337
0.147,0.045,0.287,-5.337
0.145,0.042,0.288,-5.337
0.216,0.044,0.292,-5.337
0.201,0.044,0.294,-5.337
0.172,0.044,0.292,-5.337
0.172,0.045,0.291,-5.337
0.225,0.043,0.292,-5.337
0.214,0.039,0.292,-5.337
0.183,0.039,0.293,-5.337
0.184,0.041,0.291,-5.337
0.161,0.043,0.290,-5.337
0.136,0.044,0.292,-5.337
0.222,0.042,0.292,-5.337
0.265,0.040,0.292,-5.337
0.246,0.041,0.291,-5.337
0.171,0.044,0.292,-5.337
0.153,0.042,0.294,-5.337
0.197,0.043,0.295,-5.337
0.147,0.048,0.291,-5.337
0.083,0.052,0.286,-5.337
0.161,0.045,0.282,-5.337
0.286,0.041,0.281,-5.337
0.272,0.041,0.287,-5.337
0.226,0.044,0.294,-5.337
0.170,0.045,0.295,-5.337
0.176,0.046,0.293,-5.337
0.201,0.048,0.295,-5.337
0.156,0.049,0.293,-5.337
0.060,0.052,0.289,-5.337
0.069,0.051,0.287,-5.337
0.101,0.047,0.288,-5.337
0.097,0.048,0.287,-5.337
0.058,0.048,0.288,-5.337
0.098,0.049,0.289,-5.337
0.149,0.050,0.292,-5.337
0.200,0.044,0.293,-5.337
0.223,0.044,0.293,-5.337
0.237,0.046,0.290,-5.337
0.208,0.047,0.289,-5.337
0.245,0.044,0.286,-5.337
0.295,0.048,0.284,-5.337
0.270,0.050,0.287,-5.337
0.208,0.053,0.290,-5.337
0.132,0.051,0.294,-5.337
0.154,0.047,0.292,-5.337
0.237,0.048,0.285,-5.337
0.250,0.051,0.283,-5.337
0.220,0.048,0.287,-5.337
0.223,0.048,0.291,-5.337
0.188,0.054,0.294,-5.337
0.157,0.052,0.291,-5.337
0.133,0.055,0.290,-5.337
0.150,0.054,0.288,-5.337
0.158,0.054,0.290,-5.337
0.142,0.052,0.292,-5.337
0.172,0.049,0.297,-5.337
0.187,0.050,0.296,-5.337
0.166,0.052,0.293,-5.337
0.163,0.052,0.291,-5.337
0.184,0.051,0.292,-5.337
0.225,0.050,0.289,-5.337
0.204,0.052,0.287,-5.337
0.116,0.054,0.289,-5.337
0.111,0.052,0.291,-5.337
0.197,0.047,0.292,-5.337
0.284,0.044,0.288,-5.337
0.228,0.044,0.289,-5.337
0.164,0.050,0.286,-5.337
0.106,0.054,0.287,-5.337
0.163,0.051,0.288,-5.337
0.233,0.048,0.290,-5.337
0.203,0.045,0.290,-5.337
0.134,0.046,0.288,-5.337
0.122,0.047,0.288,-5.337
0.158,0.049,0.292,-5.337
0.242,0.048,0.293,-5.337
0.247,0.047,0.291,-5.337
0.165,0.049,0.292,-5.337
0.133,0.049,0.295,-5.337
0.071,0.051,0.292,-5.337
0.086,0.054,0.287,-5.337
0.130,0.055,0.284,-5.337
0.089,0.057,0.284,-5.337
0.078,0.057,0.285,-5.337
0.116,0.057,0.288,-5.337
0.178,0.053,0.296,-5.337
0.173,0.054,0.296,-5.337
0.130,0.055,0.296,-5.337
0.162,0.050,0.294,-5.337
0.160,0.055,0.294,-5.337
0.174,0.057,0.292,-5.337
0.192,0.055,0.288,-5.337
0.185,0.054,0.280,-5.337
0.135,0.057,0.282,-5.337
0.121,0.055,0.288,-5.337
0.163,0.055,0.289,-5.337
0.176,0.055,0.291,-5.337
0.169,0.052,0.295,-5.337
0.236,0.049,0.295,-5.337
0.313,0.045,0.294,-5.337
0.272,0.050,0.292,-5.337
0.195,0.051,0.286,-5.337
0.169,0.049,0.282,-5.337
0.201,0.048,0.287,-5.337
0.267,0.052,0.294,-5.337
0.263,0.051,0.295,-5.337
0.204,0.053,0.292,-5.337
0.152,0.054,0.292,-5.337
0.195,0.054,0.293,-5.337
0.242,0.054,0.293,-5.337
0.161,0.055,0.288,-5.337
0.131,0.052,0.284,-5.337
0.156,0.050,0.285,-5.337
0.162,0.053,0.290,-5.337
0.163,0.055,0.294,-5.337
0.219,0.054,0.291,-5.337
0.193,0.053,0.288,-5.337
0.165,0.055,0.287,-5.337
0.158,0.055,0.290,-5.337
0.223,0.055,0.291,-5.337
0.237,0.057,0.288,-5.337
0.173,0.058,0.284,-5.337
0.165,0.055,0.287,-5.337
0.177,0.053,0.290,-5.337
0.229,0.052,0.292,-5.337
0.233,0.055,0.293,-5.337
0.194,0.059,0.290,-5.337
0.211,0.056,0.284,-5.337
0.278,0.053,0.286,-5.337
0.285,0.054,0.288,-5.337
0.213,0.055,0.289,-5.337
0.230,0.054,0.288,-5.337
0.242,0.052,0.290,-5.337
0.210,0.051,0.291,-5.337
0.176,0.054,0.286,-5.337
0.213,0.057,0.282,-5.337
0.228,0.055,0.283,-5.337
0.222,0.052,0.288,-5.337
0.178,0.054,0.290,-5.337
0.130,0.057,0.289,-5.337
0.084,0.059,0.286,-5.337
0.185,0.053,0.285,-5.337
0.204,0.051,0.286,-5.337
0.195,0.054,0.287,-5.337
0.215,0.056,0.290,-5.337
0.225,0.059,0.292,-5.337
0.172,0.059,0.290,-5.337
0.168,0.054,0.289,-5.337
0.227,0.055,0.291,-5.337
0.222,0.054,0.292,-5.337
0.156,0.054,0.289,-5.337
0.179,0.052,0.286,-5.337
0.225,0.055,0.287,-5.337
0.220,0.059,0.289,-5.337
0.227,0.058,0.289,-5.337
0.189,0.056,0.288,-5.337
0.098,0.058,0.290,-5.337
0.101,0.061,0.290,-5.337
0.218,0.056,0.290,-5.337
0.209,0.057,0.287,-5.337
0.205,0.058,0.286,-5.337
0.226,0.056,0.284,-5.337
0.225,0.057,0.287,-5.337
0.310,0.055,0.291,-5.337
0.352,0.054,0.293,-5.337
0.290,0.055,0.290,-5.337
0.220,0.058,0.286,-5.337
0.229,0.057,0.285,-5.337
0.203,0.059,0.286,-5.337
0.218,0.058,0.286,-5.337
0.239,0.059,0.286,-5.337
0.278,0.060,0.283,-5.337
0.249,0.059,0.283,-5.337
0.253,0.054,0.289,-5.337
0.255,0.060,0.291,-5.337
0.204,0.059,0.288,-5.337
0.220,0.057,0.289,-5.337
0.238,0.054,0.291,-5.337
0.222,0.055,0.293,-5.337
0.162,0.059,0.292,-5.337
0.235,0.056,0.287,-5.337
0.247,0.057,0.287,-5.337
0.176,0.062,0.292,-5.337
0.165,0.063,0.294,-5.337
0.200,0.061,0.287,-5.337
0.258,0.062,0.281,-5.337
0.303,0.059,0.280,-5.337
0.250,0.061,0.287,-5.337
0.189,0.061,0.292,-5.337
0.188,0.062,0.295,-5.337
0.170,0.059,0.296,-5.337
0.229,0.057,0.293,-5.337
0.273,0.054,0.289,-5.337
0.251,0.056,0.288,-5.337
0.195,0.057,0.286,-5.337
0.174,0.059,0.286,-5.337
0.155,0.062,0.287,-5.337
0.203,0.062,0.290,-5.337
0.268,0.060,0.293,-5.337
0.286,0.056,0.297,-5.337
0.273,0.055,0.296,-5.337
0.268,0.056,0.292,-5.337
0.275,0.056,0.289,-5.337
0.227,0.056,0.285,-5.337
0.243,0.058,0.282,-5.337
0.208,0.058,0.282,-5.337
0.220,0.056,0.283,-5.337
0.275,0.057,0.284,-5.337
0.281,0.057,0.286,-5.337
0.292,0.057,0.286,-5.337
0.309,0.060,0.284,-5.337
0.302,0.063,0.286,-5.337
0.299,0.063,0.290,-5.337
0.253,0.059,0.294,-5.337
0.234,0.059,0.296,-5.337
0.239,0.059,0.299,-5.337
0.256,0.062,0.297,-5.337
0.288,0.064,0.292,-5.337
0.239,0.064,0.288,-5.337
0.226,0.058,0.290,-5.337
0.250,0.058,0.292,-5.337
0.267,0.058,0.291,-5.337
0.319,0.062,0.290,-5.337
0.269,0.064,0.292,-5.337
0.198,0.058,0.288,-5.337
0.146,0.062,0.287,-5.337
0.140,0.059,0.288,-5.337
0.190,0.055,0.292,-5.337
0.176,0.058,0.291,-5.337
0.165,0.060,0.293,-5.337
0.142,0.058,0.294,-5.337
0.211,0.055,0.293,-5.337
0.215,0.055,0.288,-5.337
0.227,0.055,0.290,-5.337
0.262,0.056,0.292,-5.337
0.251,0.057,0.293,-5.337
0.218,0.057,0.293,-5.337
0.177,0.059,0.291,-5.337
0.193,0.056,0.286,-5.337
0.255,0.054,0.283,-5.337
0.229,0.057,0.287,-5.337
0.242,0.057,0.292,-5.337
0.287,0.060,0.294,-5.337
0.227,0.064,0.292,-5.337
0.224,0.063,0.291,-5.337
0.206,0.061,0.290,-5.337
0.279,0.053,0.292,-5.337
0.274,0.058,0.293,-5.337
0.270,0.063,0.290,-5.337
0.312,0.059,0.287,-5.337
0.267,0.059,0.291,-5.337
0.246,0.060,0.291,-5.337
0.226,0.065,0.291,-5.337
0.196,0.062,0.288,-5.337
0.240,0.063,0.289,-5.337
0.272,0.064,0.291,-5.337
0.317,0.064,0.294,-5.337
0.310,0.063,0.295,-5.337
0.261,0.063,0.294,-5.337
0.196,0.062,0.291,-5.337
0.232,0.058,0.291,-5.337
0.313,0.058,0.292,-5.337
0.258,0.063,0.293,-5.337
0.204,0.063,0.291,-5.337
0.210,0.062,0.291,-5.337
0.211,0.058,0.292,-5.337
0.208,0.060,0.295,-5.337
0.242,0.061,0.294,-5.337
0.267,0.060,0.289,-5.337
0.238,0.058,0.287,-5.337
0.213,0.056,0.288,-5.337
0.202,0.056,0.289,-5.337
0.167,0.059,0.289,-5.337
0.181,0.058,0.290,-5.337
0.189,0.059,0.291,-5.337
0.147,0.060,0.294,-5.337
0.141,0.058,0.293,-5.337
0.189,0.059,0.291,-5.337
0.218,0.059,0.290,-5.337
0.226,0.053,0.290,-5.337
0.278,0.051,0.285,-5.337
0.264,0.056,0.286,-5.337
0.210,0.059,0.292,-5.337
0.228,0.057,0.297,-5.337
0.173,0.056,0.294,-5.337
0.160,0.055,0.294,-5.337
0.209,0.055,0.289,-5.337
0.226,0.055,0.281,-5.337
0.245,0.054,0.282,-5.337
0.246,0.054,0.292,-5.337
0.280,0.053,0.298,-5.337
0.238,0.053,0.296,-5.337
0.219,0.052,0.292,-5.337
0.269,0.053,0.287,-5.337
0.290,0.052,0.287,-5.337
0.262,0.051,0.289,-5.337
0.256,0.049,0.293,-5.337
0.242,0.052,0.296,-5.337
0.259,0.053,0.294,-5.337
0.231,0.055,0.291,-5.337
0.168,0.058,0.289,-5.337
0.167,0.059,0.289,-5.337
0.211,0.058,0.292,-5.337
0.285,0.053,0.295,-5.337
0.278,0.053,0.295,-5.337
0.206,0.058,0.291,-5.337
0.178,0.060,0.288,-5.337
0.278,0.051,0.286,-5.337
0.271,0.052,0.288,-5.337
0.308,0.051,0.289,-5.337
0.354,0.051,0.290,-5.337
0.268,0.052,0.290,-5.337
0.210,0.054,0.288,-5.337
0.263,0.053,0.291,-5.337
0.302,0.054,0.292,-5.337
0.269,0.055,0.291,-5.337
0.192,0.057,0.287,-5.337
0.159,0.054,0.287,-5.337
0.187,0.052,0.290,-5.337
0.106,0.050,0.294,-5.337
0.091,0.049,0.291,-5.337
0.114,0.050,0.289,-5.337
0.153,0.049,0.289,-5.337
0.239,0.050,0.292,-5.337
0.293,0.049,0.292,-5.337
0.291,0.048,0.290,-5.337
0.307,0.044,0.289,-5.337
0.315,0.045,0.288,-5.337
0.285,0.047,0.286,-5.337
0.274,0.045,0.290,-5.337
0.302,0.042,0.294,-5.337
0.293,0.040,0.294,-5.337
0.233,0.042,0.292,-5.337
0.227,0.042,0.293,-5.337
0.225,0.043,0.292,-5.337
0.168,0.047,0.293,-5.337
0.195,0.048,0.294,-5.337
0.244,0.049,0.292,-5.337
0.260,0.047,0.289,-5.337
0.253,0.044,0.288,-5.337
0.300,0.041,0.293,-5.337
0.320,0.042,0.293,-5.337
0.218,0.045,0.291,-5.337
0.107,0.042,0.290,-5.337
0.121,0.040,0.290,-5.337
0.106,0.041,0.289,-5.337
0.204,0.044,0.285,-5.337
0.282,0.045,0.287,-5.337
0.234,0.049,0.294,-5.337
0.138,0.048,0.297,-5.337
0.149,0.049,0.299,-5.337
0.211,0.048,0.298,-5.337
0.199,0.048,0.297,-5.337
0.163,0.046,0.291,-5.337
0.190,0.044,0.283,-5.337
0.216,0.048,0.280,-5.337
0.190,0.050,0.280,-5.337
0.163,0.049,0.283,-5.337
0.087,0.047,0.286,-5.337
0.115,0.045,0.291,-5.337
0.226,0.045,0.295,-5.337
0.238,0.048,0.298,-5.337
0.231,0.043,0.294,-5.337
0.210,0.045,0.290,-5.337
0.251,0.048,0.285,-5.337
0.302,0.043,0.287,-5.337
0.271,0.042,0.293,-5.337
0.221,0.044,0.298,-5.337
0.292,0.043,0.293,-5.337
0.296,0.044,0.291,-5.337
0.227,0.043,0.290,-5.337
0.197,0.042,0.288,-5.337
0.210,0.043,0.287,-5.337
0.173,0.043,0.289,-5.337
0.200,0.042,0.292,-5.337
0.216,0.042,0.293,-5.337
0.237,0.041,0.292,-5.337
0.301,0.043,0.291,-5.337
0.249,0.045,0.291,-5.337
0.203,0.042,0.288,-5.337
0.188,0.043,0.287,-5.337
0.179,0.042,0.288,-5.337
0.197,0.040,0.291,-5.337
0.197,0.036,0.293,-5.337
0.134,0.039,0.291,-5.337
0.178,0.040,0.290,-5.337
0.250,0.036,0.288,-5.337
0.273,0.036,0.288,-5.337
0.210,0.040,0.289,-5.337
0.159,0.040,0.290,-5.337
0.217,0.039,0.291,-5.337
0.282,0.037,0.290,-5.337
0.264,0.036,0.293,-5.337
0.235,0.038,0.294,-5.337
0.275,0.041,0.290,-5.337
0.215,0.040,0.288,-5.337
0.228,0.040,0.291,-5.337
0.218,0.042,0.294,-5.337
0.191,0.043,0.292,-5.337
0.225,0.042,0.290,-5.337
0.217,0.046,0.292,-5.337
0.149,0.049,0.294,-5.337
0.148,0.047,0.292,-5.337
0.187,0.041,0.289,-5.337
0.198,0.035,0.288,-5.337
0.155,0.035,0.290,-5.337
0.182,0.038,0.287,-5.337
0.203,0.039,0.283,-5.337
0.193,0.042,0.282,-5.337
0.166,0.045,0.286,-5.337
0.122,0.048,0.289,-5.337
0.139,0.045,0.293,-5.337
0.207,0.043,0.289,-5.337
0.211,0.046,0.289,-5.337
0.193,0.040,0.287,-5.337
0.200,0.040,0.287,-5.337
0.180,0.042,0.291,-5.337
0.148,0.046,0.293,-5.337
0.181,0.042,0.292,-5.337
0.208,0.036,0.292,-5.337
0.192,0.033,0.291,-5.337
0.192,0.034,0.288,-5.337
0.226,0.037,0.287,-5.337
0.254,0.037,0.289,-5.337
0.264,0.036,0.286,-5.337
0.273,0.036,0.282,-5.337
0.222,0.039,0.283,-5.337
0.089,0.042,0.289,-5.337
0.065,0.043,0.292,-5.337
0.085,0.042,0.295,-5.337
0.210,0.038,0.295,-5.337
0.229,0.039,0.289,-5.337
0.187,0.038,0.286,-5.337
0.213,0.037,0.287,-5.337
0.189,0.038,0.291,-5.337
0.160,0.036,0.293,-5.337
0.163,0.038,0.295,-5.337
0.210,0.037,0.290,-5.337
0.217,0.040,0.286,-5.337
0.175,0.040,0.283,-5.337
0.160,0.038,0.289,-5.337
0.194,0.033,0.292,-5.337
0.290,0.032,0.291,-5.337
0.252,0.036,0.287,-5.337
0.149,0.038,0.287,-5.337
0.121,0.035,0.289,-5.337
0.194,0.036,0.292,-5.337
0.208,0.038,0.291,-5.337
0.204,0.037,0.288,-5.337
0.175,0.039,0.288,-5.337
0.156,0.038,0.286,-5.337
0.174,0.040,0.288,-5.337
0.182,0.038,0.290,-5.337
0.233,0.037,0.290,-5.337
0.258,0.036,0.286,-5.337
0.218,0.039,0.288,-5.337
0.139,0.041,0.293,-5.337
0.157,0.036,0.293,-5.337
0.247,0.037,0.288,-5.337
0.195,0.040,0.283,-5.337
0.127,0.044,0.284,-5.337
0.110,0.048,0.288,-5.337
0.147,0.046,0.289,-5.337
0.196,0.042,0.288,-5.337
0.184,0.040,0.290,-5.337
0.205,0.038,0.290,-5.337
0.235,0.035,0.294,-5.337
0.279,0.034,0.293,-5.337
0.280,0.036,0.289,-5.337
0.211,0.037,0.285,-5.337
0.155,0.038,0.286,-5.337
0.149,0.037,0.288,-5.337
0.150,0.039,0.290,-5.337
0.197,0.042,0.289,-5.337
0.219,0.041,0.289,-5.337
0.160,0.039,0.289,-5.337
0.179,0.034,0.288,-5.337
0.208,0.036,0.286,-5.337
0.199,0.041,0.290,-5.337
0.163,0.040,0.292,-5.337
0.068,0.040,0.293,-5.337
0.054,0.037,0.292,-5.337
0.106,0.033,0.292,-5.337
0.143,0.035,0.291,-5.337
0.120,0.039,0.291,-5.337
0.073,0.042,0.289,-5.337
0.097,0.039,0.288,-5.337
0.166,0.033,0.287,-5.337
0.196,0.034,0.286,-5.337
0.136,0.036,0.288,-5.337
0.092,0.037,0.291,-5.337
0.104,0.036,0.292,-5.337
0.192,0.035,0.291,-5.337
0.291,0.031,0.290,-5.337
0.289,0.031,0.288,-5.337
0.176,0.035,0.289,-5.337
0.155,0.035,0.292,-5.337
0.177,0.034,0.295,-5.337
0.194,0.031,0.293,-5.337
0.220,0.030,0.292,-5.337
0.214,0.035,0.289,-5.337
0.109,0.038,0.286,-5.337
0.050,0.037,0.287,-5.337
0.183,0.033,0.292,-5.337
0.313,0.032,0.294,-5.337
0.235,0.041,0.293,-5.337
0.080,0.041,0.292,-5.337
0.159,0.037,0.292,-5.337
0.221,0.034,0.295,-5.337
0.215,0.035,0.295,-5.337
0.143,0.035,0.293,-5.337
0.086,0.035,0.291,-5.337
0.061,0.038,0.292,-5.337
0.045,0.039,0.293,-5.337
0.042,0.039,0.294,-5.337
0.190,0.031,0.291,-5.337
0.261,0.033,0.287,-5.337
0.197,0.035,0.285,-5.337
0.204,0.032,0.286,-5.337
0.175,0.030,0.285,-5.337
0.123,0.033,0.284,-5.337
0.159,0.035,0.286,-5.337
0.187,0.034,0.290,-5.337
0.239,0.032,0.295,-5.337
0.214,0.035,0.298,-5.337
0.148,0.037,0.292,-5.337
0.148,0.040,0.286,-5.337
0.232,0.037,0.284,-5.337
0.269,0.036,0.289,-5.337
0.211,0.034,0.293,-5.337
0.186,0.037,0.294,-5.337
0.240,0.036,0.293,-5.337
0.253,0.034,0.290,-5.337
0.237,0.033,0.287,-5.337
0.209,0.036,0.283,-5.337
0.169,0.039,0.283,-5.337
0.172,0.041,0.286,-5.337
0.201,0.038,0.288,-5.337
0.233,0.038,0.292,-5.337
0.223,0.040,0.293,-5.337
0.187,0.042,0.295,-5.337
0.118,0.041,0.293,-5.337
0.120,0.041,0.293,-5.337
0.167,0.041,0.294,-5.337
0.189,0.043,0.292,-5.337
0.165,0.042,0.291,-5.337
0.130,0.040,0.289,-5.337
0.168,0.040,0.289,-5.337
0.217,0.040,0.290,-5.337
0.235,0.038,0.292,-5.337
0.158,0.041,0.296,-5.337
0.102,0.043,0.293,-5.337
0.104,0.042,0.288,-5.337
0.159,0.041,0.287,-5.337
0.165,0.041,0.290,-5.337
0.155,0.043,0.294,-5.337
0.177,0.045,0.294,-5.337
0.187,0.043,0.290,-5.337
0.220,0.040,0.292,-5.337
0.168,0.042,0.294,-5.337
0.148,0.039,0.293,-5.337
0.180,0.039,0.290,-5.337
0.221,0.044,0.287,-5.337
0.207,0.042,0.286,-5.337
0.227,0.041,0.287,-5.337
0.132,0.044,0.287,-5.337
0.144,0.043,0.288,-5.337
0.199,0.042,0.288,-5.337
0.170,0.045,0.292,-5.337
0.150,0.044,0.296,-5.337
0.181,0.047,0.299,-5.337
0.188,0.046,0.294,-5.337
0.155,0.048,0.290,-5.337
0.169,0.047,0.289,-5.337
0.212,0.046,0.291,-5.337
0.268,0.043,0.289,-5.337
0.298,0.046,0.288,-5.337
0.211,0.049,0.289,-5.337
0.079,0.053,0.290,-5.337
0.114,0.051,0.287,-5.337
0.216,0.048,0.289,-5.337
0.266,0.047,0.292,-5.337
0.241,0.046,0.292,-5.337
0.186,0.041,0.291,-5.337
0.216,0.041,0.287,-5.337
0.188,0.043,0.284,-5.337
0.152,0.049,0.283,-5.337
0.095,0.049,0.290,-5.337
0.116,0.046,0.294,-5.337
0.148,0.048,0.293,-5.337
0.188,0.048,0.290,-5.337
0.170,0.046,0.288,-5.337
0.130,0.047,0.288,-5.337
0.070,0.048,0.291,-5.337
0.112,0.049,0.293,-5.337
0.137,0.051,0.289,-5.337
0.195,0.047,0.287,-5.337
0.233,0.045,0.290,-5.337
0.210,0.045,0.290,-5.337
0.223,0.043,0.288,-5.337
0.255,0.042,0.287,-5.337
0.298,0.039,0.288,-5.337
0.262,0.038,0.289,-5.337
0.238,0.041,0.291,-5.337
0.192,0.045,0.291,-5.337
0.233,0.043,0.291,-5.337
0.206,0.041,0.289,-5.337
0.167,0.042,0.288,-5.337
0.145,0.043,0.289,-5.337
0.138,0.045,0.287,-5.337
0.250,0.043,0.291,-5.337
0.240,0.043,0.294,-5.337
0.195,0.045,0.293,-5.337
0.191,0.049,0.288,-5.337
0.222,0.045,0.286,-5.337
0.196,0.044,0.287,-5.337
0.181,0.047,0.293,-5.337
0.241,0.045,0.294,-5.337
0.224,0.046,0.295,-5.337
0.259,0.043,0.292,-5.337
0.279,0.047,0.293,-5.337
0.238,0.045,0.295,-5.337
0.247,0.046,0.292,-5.337
0.206,0.045,0.289,-5.337
0.214,0.043,0.289,-5.337
0.260,0.043,0.289,-5.337
0.255,0.049,0.289,-5.337
0.215,0.052,0.289,-5.337
0.201,0.052,0.294,-5.337
0.228,0.053,0.294,-5.337
0.222,0.053,0.291,-5.337
0.157,0.056,0.290,-5.337
0.126,0.056,0.292,-5.337
0.245,0.051,0.294,-5.337
0.264,0.052,0.295,-5.337
0.154,0.055,0.293,-5.337
0.180,0.051,0.291,-5.337
0.253,0.049,0.287,-5.337
0.248,0.052,0.285,-5.337
0.203,0.054,0.288,-5.337
0.152,0.052,0.290,-5.337
0.108,0.052,0.293,-5.337
0.201,0.049,0.294,-5.337
0.257,0.051,0.289,-5.337
0.228,0.053,0.284,-5.337
0.243,0.051,0.286,-5.337
0.249,0.053,0.291,-5.337
0.209,0.055,0.292,-5.337
0.239,0.054,0.292,-5.337
0.184,0.054,0.290,-5.337
0.191,0.055,0.286,-5.337
0.256,0.053,0.283,-5.337
0.262,0.051,0.282,-5.337
0.197,0.051,0.283,-5.337
0.213,0.049,0.286,-5.337
0.260,0.050,0.293,-5.337
0.238,0.052,0.296,-5.337
0.190,0.054,0.292,-5.337
0.215,0.055,0.293,-5.337
0.203,0.055,0.293,-5.337
0.173,0.055,0.290,-5.337
0.208,0.050,0.290,-5.337
0.212,0.054,0.292,-5.337
0.205,0.056,0.289,-5.337
0.256,0.054,0.285,-5.337
0.317,0.049,0.284,-5.337
0.313,0.051,0.284,-5.337
0.304,0.052,0.287,-5.337
0.295,0.054,0.287,-5.337
0.243,0.055,0.287,-5.337
0.211,0.054,0.292,-5.337
0.207,0.050,0.296,-5.337
0.244,0.049,0.294,-5.337
0.267,0.053,0.290,-5.337
0.216,0.056,0.288,-5.337
0.147,0.054,0.287,-5.337
0.201,0.054,0.288,-5.337
0.211,0.053,0.290,-5.337
0.205,0.051,0.291,-5.337
0.153,0.058,0.291,-5.337
0.143,0.057,0.289,-5.337
0.222,0.053,0.288,-5.337
0.278,0.051,0.285,-5.337
0.209,0.054,0.287,-5.337
0.154,0.060,0.286,-5.337
0.166,0.064,0.288,-5.337
0.201,0.060,0.288,-5.337
0.244,0.059,0.289,-5.337
0.238,0.061,0.287,-5.337
0.219,0.062,0.289,-5.337
0.270,0.058,0.292,-5.337
0.292,0.054,0.292,-5.337
0.268,0.053,0.292,-5.337
0.164,0.059,0.290,-5.337
0.160,0.060,0.283,-5.337
0.219,0.059,0.282,-5.337
0.239,0.059,0.286,-5.337
0.273,0.056,0.288,-5.337
0.323,0.055,0.289,-5.337
0.314,0.055,0.286,-5.337
0.242,0.054,0.285,-5.337
0.207,0.055,0.286,-5.337
0.239,0.055,0.292,-5.337
0.245,0.054,0.291,-5.337
0.199,0.055,0.290,-5.337
0.164,0.056,0.289,-5.337
0.213,0.054,0.291,-5.337
0.237,0.053,0.290,-5.337
0.260,0.056,0.292,-5.337
0.251,0.058,0.292,-5.337
0.195,0.057,0.293,-5.337
0.193,0.052,0.293,-5.337
0.208,0.052,0.289,-5.337
0.281,0.051,0.288,-5.337
0.332,0.054,0.290,-5.337
0.313,0.053,0.289,-5.337
0.289,0.053,0.288,-5.337
0.254,0.054,0.290,-5.337
0.237,0.056,0.291,-5.337
0.263,0.058,0.292,-5.337
0.241,0.060,0.289,-5.337
0.269,0.058,0.287,-5.337
0.297,0.059,0.286,-5.337
0.254,0.062,0.285,-5.337
0.205,0.062,0.287,-5.337
0.193,0.059,0.292,-5.337
0.292,0.057,0.292,-5.337
0.286,0.056,0.291,-5.337
0.232,0.058,0.290,-5.337
0.238,0.062,0.290,-5.337
0.266,0.059,0.289,-5.337
0.230,0.057,0.288,-5.337
0.237,0.054,0.286,-5.337
0.296,0.053,0.284,-5.337
0.329,0.051,0.288,-5.337
0.325,0.054,0.293,-5.337
0.254,0.055,0.291,-5.337
0.218,0.054,0.289,-5.337
0.243,0.054,0.290,-5.337
0.264,0.055,0.290,-5.337
0.215,0.056,0.291,-5.337
0.210,0.055,0.293,-5.337
0.208,0.059,0.292,-5.337
0.223,0.057,0.291,-5.337
0.279,0.054,0.292,-5.337
0.212,0.055,0.293,-5.337
0.150,0.055,0.290,-5.337
0.126,0.057,0.286,-5.337
0.173,0.055,0.286,-5.337
0.209,0.057,0.284,-5.337
0.245,0.059,0.285,-5.337
0.283,0.059,0.287,-5.337
0.253,0.061,0.292,-5.337
0.204,0.057,0.293,-5.337
0.288,0.055,0.292,-5.337
0.325,0.053,0.292,-5.337
0.289,0.055,0.291,-5.337
0.200,0.055,0.289,-5.337
0.163,0.055,0.292,-5.337
0.207,0.053,0.293,-5.337
0.221,0.050,0.291,-5.337
0.241,0.051,0.286,-5.337
0.212,0.055,0.286,-5.337
0.222,0.057,0.290,-5.337
0.272,0.055,0.292,-5.337
0.295,0.053,0.291,-5.337
0.234,0.055,0.291,-5.337
0.208,0.057,0.293,-5.337
0.222,0.059,0.293,-5.337
0.247,0.058,0.294,-5.337
0.267,0.057,0.292,-5.337
0.265,0.056,0.289,-5.337
0.277,0.056,0.288,-5.337
0.275,0.052,0.289,-5.337
0.260,0.051,0.289,-5.337
0.224,0.054,0.289,-5.337
0.201,0.056,0.285,-5.337
0.218,0.054,0.282,-5.337
0.205,0.050,0.286,-5.337
0.214,0.049,0.293,-5.337
0.265,0.050,0.294,-5.337
0.255,0.051,0.294,-5.337
0.246,0.049,0.293,-5.337
0.218,0.050,0.289,-5.337
0.195,0.054,0.286,-5.337
0.147,0.057,0.291,-5.337
0.172,0.054,0.298,-5.337
0.258,0.051,0.298,-5.337
0.313,0.051,0.292,-5.337
0.282,0.051,0.285,-5.337
0.190,0.050,0.282,-5.337
0.143,0.052,0.287,-5.337
0.168,0.053,0.291,-5.337
0.230,0.051,0.296,-5.337
0.214,0.051,0.296,-5.337
0.212,0.051,0.291,-5.337
0.281,0.050,0.292,-5.337
0.303,0.051,0.297,-5.337
0.239,0.053,0.300,-5.337
0.219,0.052,0.296,-5.337
0.222,0.054,0.293,-5.337
0.195,0.052,0.290,-5.337
0.226,0.050,0.289,-5.337
0.200,0.050,0.287,-5.337
0.248,0.050,0.288,-5.337
0.280,0.048,0.290,-5.337
0.253,0.050,0.290,-5.337
0.213,0.052,0.291,-5.337
0.185,0.054,0.293,-5.337
0.204,0.051,0.293,-5.337
0.180,0.049,0.294,-5.337
0.187,0.050,0.292,-5.337
0.257,0.048,0.287,-5.337
0.248,0.046,0.286,-5.337
0.210,0.044,0.289,-5.337
0.208,0.044,0.292,-5.337
0.236,0.043,0.291,-5.337
0.255,0.045,0.289,-5.337
0.233,0.045,0.289,-5.337
0.173,0.046,0.290,-5.337
0.178,0.044,0.290,-5.337
0.280,0.042,0.294,-5.337
0.288,0.049,0.295,-5.337
0.186,0.050,0.293,-5.337
0.156,0.043,0.289,-5.337
0.221,0.042,0.288,-5.337
0.238,0.046,0.287,-5.337
0.196,0.048,0.290,-5.337
0.216,0.044,0.289,-5.337
0.283,0.041,0.287,-5.337
0.307,0.037,0.289,-5.337
0.282,0.044,0.293,-5.337
0.221,0.046,0.292,-5.337
0.271,0.043,0.290,-5.337
0.226,0.044,0.289,-5.337
0.173,0.043,0.291,-5.337
0.219,0.043,0.292,-5.337
0.244,0.044,0.291,-5.337
0.248,0.044,0.289,-5.337
0.211,0.045,0.289,-5.337
0.158,0.045,0.293,-5.337
0.112,0.045,0.294,-5.337
0.143,0.041,0.294,-5.337
0.173,0.040,0.291,-5.337
0.169,0.042,0.289,-5.337
0.188,0.042,0.290,-5.337
0.236,0.040,0.295,-5.337
0.294,0.039,0.296,-5.337
0.273,0.044,0.292,-5.337
0.267,0.042,0.289,-5.337
0.297,0.040,0.289,-5.337
0.288,0.038,0.287,-5.337
0.315,0.036,0.283,-5.337
0.264,0.040,0.287,-5.337
0.156,0.045,0.292,-5.337
0.175,0.041,0.293,-5.337
0.253,0.036,0.292,-5.337
0.229,0.035,0.292,-5.337
0.197,0.038,0.289,-5.337
0.206,0.041,0.285,-5.337
0.204,0.042,0.286,-5.337
0.221,0.040,0.290,-5.337
0.251,0.042,0.294,-5.337
0.222,0.040,0.299,-5.337
0.184,0.038,0.295,-5.337
0.190,0.036,0.289,-5.337
0.240,0.036,0.288,-5.337
0.210,0.039,0.290,-5.337
0.183,0.039,0.290,-5.337
0.182,0.037,0.289,-5.337
0.199,0.033,0.286,-5.337
0.223,0.032,0.289,-5.337
0.223,0.036,0.293,-5.337
0.150,0.039,0.295,-5.337
0.154,0.038,0.294,-5.337
0.161,0.038,0.295,-5.337
0.164,0.036,0.293,-5.337
0.175,0.037,0.291,-5.337
0.162,0.034,0.288,-5.337
0.157,0.034,0.290,-5.337
0.155,0.037,0.297,-5.337
0.180,0.038,0.297,-5.337
0.246,0.038,0.293,-5.337
0.225,0.037,0.288,-5.337
0.226,0.037,0.284,-5.337
0.187,0.040,0.283,-5.337
0.156,0.038,0.289,-5.337
0.196,0.033,0.293,-5.337
0.196,0.036,0.294,-5.337
0.257,0.035,0.291,-5.337
0.276,0.033,0.289,-5.337
0.203,0.032,0.293,-5.337
0.192,0.036,0.297,-5.337
0.217,0.041,0.296,-5.337
0.198,0.042,0.292,-5.337
0.206,0.039,0.290,-5.337
0.197,0.042,0.292,-5.337
0.194,0.039,0.294,-5.337
0.259,0.032,0.291,-5.337
0.262,0.034,0.287,-5.337
0.245,0.036,0.290,-5.337
0.261,0.035,0.293,-5.337
0.279,0.033,0.292,-5.337
0.251,0.032,0.292,-5.337
0.130,0.034,0.291,-5.337
0.093,0.034,0.294,-5.337
0.115,0.037,0.292,-5.337
0.133,0.037,0.288,-5.337
0.136,0.038,0.285,-5.337
0.193,0.038,0.287,-5.337
0.224,0.038,0.288,-5.337
0.172,0.040,0.288,-5.337
0.153,0.040,0.287,-5.337
0.234,0.038,0.290,-5.337
0.244,0.033,0.293,-5.337
0.243,0.034,0.294,-5.337
0.217,0.034,0.293,-5.337
0.190,0.035,0.293,-5.337
0.221,0.033,0.292,-5.337
0.169,0.035,0.290,-5.337
0.170,0.032,0.287,-5.337
0.164,0.035,0.287,-5.337
0.151,0.034,0.289,-5.337
0.192,0.034,0.289,-5.337
0.214,0.035,0.286,-5.337
0.240,0.037,0.284,-5.337
0.259,0.040,0.287,-5.337
0.216,0.042,0.293,-5.337
0.191,0.041,0.294,-5.337
0.239,0.040,0.291,-5.337
0.279,0.039,0.289,-5.337
0.242,0.041,0.288,-5.337
0.175,0.044,0.287,-5.337
0.151,0.042,0.287,-5.337
0.137,0.041,0.293,-5.337
0.174,0.038,0.292,-5.337
0.225,0.037,0.291,-5.337
0.137,0.041,0.290,-5.337
0.001,0.041,0.290,-5.337
0.104,0.037,0.289,-5.337
0.213,0.035,0.289,-5.337
0.190,0.032,0.288,-5.337
0.217,0.032,0.290,-5.337
0.285,0.032,0.289,-5.337
0.276,0.031,0.291,-5.337
0.196,0.034,0.293,-5.337
0.184,0.035,0.288,-5.337
0.161,0.033,0.283,-5.337
0.169,0.035,0.281,-5.337
0.258,0.032,0.284,-5.337
0.204,0.034,0.289,-5.337
0.114,0.036,0.292,-5.337
0.194,0.033,0.290,-5.337
0.244,0.034,0.289,-5.337
0.278,0.035,0.288,-5.337
0.261,0.036,0.286,-5.337
0.208,0.038,0.284,-5.337
0.201,0.036,0.290,-5.337
0.150,0.039,0.291,-5.337
0.113,0.041,0.292,-5.337
0.149,0.039,0.292,-5.337
0.185,0.037,0.292,-5.337
0.175,0.037,0.289,-5.337
0.112,0.038,0.288,-5.337
0.089,0.037,0.287,-5.337
0.155,0.032,0.288,-5.337
0.255,0.030,0.289,-5.337
0.198,0.035,0.290,-5.337
0.139,0.035,0.290,-5.337
0.122,0.035,0.290,-5.337
0.133,0.037,0.288,-5.337
0.153,0.036,0.287,-5.337
0.097,0.039,0.290,-5.337
0.071,0.042,0.289,-5.337
0.139,0.042,0.288,-5.337
0.227,0.038,0.289,-5.337
0.265,0.035,0.291,-5.337
0.267,0.034,0.289,-5.337
0.208,0.036,0.291,-5.337
0.147,0.034,0.294,-5.337
0.166,0.033,0.294,-5.337
0.163,0.035,0.287,-5.337
0.121,0.040,0.285,-5.337
0.102,0.038,0.286,-5.337
0.171,0.037,0.287,-5.337
0.197,0.032,0.288,-5.337
0.198,0.037,0.289,-5.337
0.190,0.038,0.288,-5.337
0.215,0.036,0.292,-5.337
0.219,0.035,0.293,-5.337
0.203,0.035,0.289,-5.337
0.129,0.038,0.282,-5.337
0.066,0.040,0.280,-5.337
0.053,0.038,0.285,-5.337
0.117,0.036,0.288,-5.337
0.159,0.036,0.290,-5.337
0.115,0.037,0.291,-5.337
0.089,0.038,0.291,-5.337
0.155,0.039,0.291,-5.337
0.274,0.035,0.291,-5.337
0.266,0.037,0.288,-5.337
0.197,0.039,0.289,-5.337
0.187,0.040,0.291,-5.337
0.212,0.039,0.294,-5.337
0.234,0.035,0.290,-5.337
0.133,0.034,0.287,-5.337
0.125,0.034,0.287,-5.337
0.170,0.033,0.290,-5.337
0.179,0.033,0.292,-5.337
0.201,0.034,0.294,-5.337
0.178,0.032,0.291,-5.337
0.189,0.031,0.286,-5.337
0.193,0.030,0.283,-5.337
0.138,0.034,0.283,-5.337
0.156,0.035,0.284,-5.337
0.151,0.037,0.286,-5.337
0.247,0.033,0.285,-5.337
0.256,0.029,0.287,-5.337
0.232,0.029,0.289,-5.337
0.204,0.032,0.292,-5.337
0.176,0.033,0.296,-5.337
0.166,0.032,0.296,-5.337
0.144,0.036,0.294,-5.337
0.190,0.039,0.291,-5.337
0.211,0.042,0.290,-5.337
0.212,0.041,0.290,-5.337
0.213,0.041,0.291,-5.337
0.189,0.043,0.288,-5.337
0.197,0.042,0.286,-5.337
0.253,0.036,0.286,-5.337
0.244,0.034,0.288,-5.337
0.179,0.036,0.287,-5.337
0.210,0.037,0.288,-5.337
0.177,0.035,0.290,-5.337
0.200,0.035,0.289,-5.337
0.207,0.037,0.287,-5.337
0.197,0.036,0.288,-5.337
0.182,0.034,0.289,-5.337
0.190,0.036,0.292,-5.337
0.222,0.040,0.290,-5.337
0.134,0.042,0.287,-5.337
0.107,0.038,0.286,-5.337
0.121,0.035,0.287,-5.337
0.156,0.036,0.290,-5.337
0.185,0.036,0.290,-5.337
0.214,0.038,0.290,-5.337
0.191,0.041,0.291,-5.337
0.154,0.043,0.296,-5.337
0.102,0.045,0.296,-5.337
0.104,0.046,0.293,-5.337
0.117,0.044,0.288,-5.337
0.127,0.044,0.287,-5.337
0.165,0.039,0.290,-5.337
0.198,0.043,0.289,-5.337
0.180,0.043,0.286,-5.337
0.205,0.044,0.284,-5.337
0.189,0.041,0.286,-5.337
0.168,0.040,0.289,-5.337
0.187,0.039,0.290,-5.337
0.246,0.037,0.293,-5.337
0.189,0.038,0.292,-5.337
0.127,0.041,0.290,-5.337
0.118,0.043,0.289,-5.337
0.109,0.045,0.289,-5.337
0.037,0.044,0.290,-5.337
0.064,0.041,0.291,-5.337
0.146,0.041,0.291,-5.337
0.275,0.038,0.291,-5.337
0.275,0.035,0.293,-5.337
0.238,0.038,0.291,-5.337
0.176,0.043,0.290,-5.337
0.139,0.049,0.288,-5.337
0.191,0.044,0.290,-5.337
0.224,0.044,0.291,-5.337
0.194,0.047,0.293,-5.337
0.209,0.046,0.292,-5.337
0.218,0.050,0.287,-5.337
0.160,0.048,0.285,-5.337
0.186,0.047,0.284,-5.337
0.175,0.049,0.283,-5.337
0.168,0.049,0.287,-5.337
0.182,0.047,0.290,-5.337
0.185,0.048,0.291,-5.337
0.128,0.052,0.292,-5.337
0.140,0.050,0.294,-5.337
0.185,0.050,0.292,-5.337
0.111,0.053,0.288,-5.337
0.186,0.051,0.287,-5.337
0.207,0.050,0.292,-5.337
0.174,0.048,0.294,-5.337
0.150,0.045,0.289,-5.337
0.159,0.045,0.289,-5.337
0.173,0.046,0.291,-5.337
0.140,0.050,0.291,-5.337
0.154,0.051,0.288,-5.337
0.164,0.052,0.286,-5.337
0.188,0.052,0.287,-5.337
0.251,0.050,0.291,-5.337
0.233,0.046,0.291,-5.337
0.226,0.048,0.289,-5.337
0.198,0.048,0.290,-5.337
0.115,0.052,0.292,-5.337
0.103,0.051,0.293,-5.337
0.115,0.052,0.290,-5.337
0.224,0.048,0.287,-5.337
0.280,0.049,0.287,-5.337
0.242,0.053,0.289,-5.337
0.183,0.056,0.290,-5.337
0.153,0.057,0.288,-5.337
0.164,0.056,0.289,-5.337
0.136,0.054,0.290,-5.337
0.079,0.054,0.290,-5.337
0.133,0.048,0.290,-5.337
0.184,0.045,0.293,-5.337
0.224,0.044,0.294,-5.337
0.285,0.043,0.292,-5.337
0.317,0.042,0.289,-5.337
0.262,0.050,0.282,-5.337
0.218,0.051,0.281,-5.337
0.228,0.045,0.287,-5.337
0.240,0.043,0.291,-5.337
0.227,0.048,0.287,-5.337
0.193,0.049,0.284,-5.337
0.242,0.047,0.286,-5.337
0.281,0.048,0.284,-5.337
0.255,0.047,0.285,-5.337
0.196,0.046,0.286,-5.337
0.145,0.050,0.288,-5.337
0.131,0.052,0.289,-5.337
0.155,0.052,0.288,-5.337
0.187,0.049,0.289,-5.337
0.232,0.048,0.290,-5.337
0.266,0.050,0.289,-5.337
0.263,0.048,0.295,-5.337
0.214,0.051,0.296,-5.337
0.212,0.050,0.295,-5.337
0.243,0.048,0.291,-5.337
0.254,0.052,0.289,-5.337
0.233,0.053,0.288,-5.337
0.196,0.055,0.287,-5.337
0.124,0.056,0.284,-5.337
0.099,0.057,0.282,-5.337
0.181,0.055,0.285,-5.337
0.178,0.052,0.290,-5.337
0.154,0.050,0.293,-5.337
0.137,0.050,0.292,-5.337
0.169,0.051,0.287,-5.337
0.264,0.050,0.286,-5.337
0.335,0.049,0.287,-5.337
0.299,0.053,0.289,-5.337
0.258,0.054,0.287,-5.337
0.201,0.057,0.288,-5.337
0.163,0.056,0.291,-5.337
0.237,0.053,0.293,-5.337
0.209,0.053,0.294,-5.337
0.176,0.053,0.292,-5.337
0.193,0.050,0.292,-5.337
0.239,0.051,0.293,-5.337
0.262,0.053,0.294,-5.337
0.271,0.052,0.294,-5.337
0.284,0.053,0.293,-5.337
0.239,0.055,0.288,-5.337
0.277,0.054,0.283,-5.337
0.264,0.053,0.281,-5.337
0.180,0.056,0.283,-5.337
0.124,0.056,0.285,-5.337
0.103,0.059,0.288,-5.337
0.168,0.058,0.292,-5.337
0.201,0.058,0.293,-5.337
0.204,0.052,0.290,-5.337
0.210,0.050,0.289,-5.337
0.235,0.051,0.290,-5.337
0.207,0.054,0.287,-5.337
0.157,0.055,0.283,-5.337
0.218,0.052,0.284,-5.337
0.246,0.057,0.285,-5.337
0.288,0.059,0.284,-5.337
0.296,0.056,0.288,-5.337
0.259,0.060,0.294,-5.337
0.225,0.059,0.299,-5.337
0.175,0.060,0.298,-5.337
0.165,0.060,0.296,-5.337
0.211,0.058,0.291,-5.337
0.226,0.060,0.285,-5.337
0.188,0.063,0.285,-5.337
0.220,0.061,0.291,-5.337
0.210,0.056,0.293,-5.337
0.211,0.059,0.290,-5.337
0.266,0.059,0.287,-5.337
0.294,0.063,0.288,-5.337
0.247,0.063,0.294,-5.337
0.249,0.060,0.293,-5.337
0.270,0.057,0.290,-5.337
0.218,0.060,0.288,-5.337
0.270,0.059,0.288,-5.337
0.272,0.060,0.288,-5.337
0.283,0.059,0.290,-5.337
0.294,0.057,0.292,-5.337
0.271,0.055,0.291,-5.337
0.205,0.059,0.291,-5.337
0.168,0.056,0.290,-5.337
0.147,0.056,0.288,-5.337
0.188,0.055,0.288,-5.337
0.241,0.056,0.285,-5.337
0.233,0.058,0.286,-5.337
0.254,0.055,0.291,-5.337
0.259,0.056,0.292,-5.337
0.224,0.062,0.285,-5.337
0.181,0.064,0.285,-5.337
0.247,0.057,0.288,-5.337
0.252,0.059,0.289,-5.337
0.192,0.060,0.286,-5.337
0.220,0.057,0.286,-5.337
0.267,0.054,0.292,-5.337
0.288,0.059,0.288,-5.337
0.267,0.059,0.284,-5.337
0.237,0.057,0.285,-5.337
0.220,0.057,0.286,-5.337
0.211,0.059,0.286,-5.337
0.209,0.059,0.286,-5.337
0.208,0.057,0.290,-5.337
0.250,0.056,0.291,-5.337
0.252,0.057,0.289,-5.337
0.218,0.057,0.290,-5.337
0.234,0.055,0.288,-5.337
0.217,0.059,0.288,-5.337
0.184,0.058,0.289,-5.337
0.172,0.058,0.290,-5.337
0.226,0.055,0.288,-5.337
0.252,0.054,0.289,-5.337
0.209,0.056,0.288,-5.337
0.224,0.056,0.287,-5.337
0.193,0.056,0.285,-5.337
0.217,0.055,0.288,-5.337
0.252,0.057,0.289,-5.337
0.261,0.063,0.291,-5.337
0.290,0.059,0.289,-5.337
0.281,0.055,0.288,-5.337
0.200,0.056,0.287,-5.337
0.131,0.055,0.281,-5.337
0.204,0.053,0.276,-5.337
0.266,0.058,0.282,-5.337
0.270,0.058,0.289,-5.337
0.240,0.058,0.292,-5.337
0.138,0.064,0.292,-5.337
0.175,0.065,0.289,-5.337
0.215,0.064,0.288,-5.337
0.172,0.064,0.286,-5.337
0.163,0.061,0.286,-5.337
0.229,0.058,0.290,-5.337
0.256,0.057,0.295,-5.337
0.277,0.058,0.294,-5.337
0.267,0.059,0.289,-5.337
0.209,0.060,0.281,-5.337
0.246,0.061,0.280,-5.337
0.255,0.061,0.280,-5.337
0.222,0.059,0.284,-5.337
0.289,0.054,0.288,-5.337
0.290,0.056,0.288,-5.337
0.236,0.056,0.287,-5.337
0.226,0.058,0.289,-5.337
0.218,0.058,0.291,-5.337
0.189,0.056,0.291,-5.337
0.239,0.055,0.289,-5.337
0.287,0.055,0.289,-5.337
0.252,0.058,0.290,-5.337
0.182,0.058,0.290,-5.337
0.233,0.056,0.288,-5.337
0.247,0.057,0.288,-5.337
0.138,0.055,0.288,-5.337
0.187,0.053,0.290,-5.337
0.307,0.054,0.290,-5.337
0.293,0.056,0.286,-5.337
0.229,0.056,0.286,-5.337
0.189,0.057,0.289,-5.337
0.200,0.056,0.290,-5.337
0.236,0.053,0.290,-5.337
0.283,0.052,0.288,-5.337
0.255,0.051,0.288,-5.337
0.209,0.053,0.291,-5.337
0.241,0.051,0.291,-5.337
0.256,0.053,0.288,-5.337
0.232,0.055,0.288,-5.337
0.164,0.054,0.287,-5.337
0.243,0.050,0.283,-5.337
0.362,0.050,0.284,-5.337
0.334,0.049,0.286,-5.337
0.311,0.050,0.289,-5.337
0.276,0.054,0.289,-5.337
0.295,0.052,0.287,-5.337
0.295,0.052,0.287,-5.337
0.238,0.054,0.287,-5.337
0.186,0.056,0.290,-5.337
0.204,0.054,0.293,-5.337
0.284,0.050,0.296,-5.337
0.315,0.049,0.292,-5.337
0.241,0.051,0.289,-5.337
0.169,0.049,0.284,-5.337
0.168,0.054,0.284,-5.337
0.173,0.054,0.287,-5.337
0.183,0.054,0.289,-5.337
0.156,0.057,0.287,-5.337
0.218,0.051,0.287,-5.337
0.298,0.049,0.288,-5.337
0.233,0.052,0.289,-5.337
0.217,0.050,0.287,-5.337
0.259,0.050,0.288,-5.337
0.294,0.052,0.290,-5.337
0.264,0.053,0.288,-5.337
0.240,0.050,0.287,-5.337
0.229,0.049,0.287,-5.337
0.209,0.050,0.284,-5.337
0.211,0.054,0.288,-5.337
0.212,0.053,0.293,-5.337
0.205,0.052,0.291,-5.337
0.192,0.050,0.287,-5.337
0.178,0.052,0.286,-5.337
0.212,0.053,0.290,-5.337
0.216,0.048,0.295,-5.337
0.250,0.045,0.294,-5.337
0.258,0.051,0.290,-5.337
0.296,0.051,0.289,-5.337
0.232,0.049,0.287,-5.337
0.218,0.051,0.285,-5.337
0.203,0.052,0.286,-5.337
0.282,0.050,0.287,-5.337
0.283,0.051,0.288,-5.337
0.235,0.055,0.289,-5.337
0.247,0.048,0.292,-5.337
0.279,0.045,0.292,-5.337
0.225,0.044,0.292,-5.337
0.151,0.049,0.292,-5.337
0.148,0.051,0.290,-5.337
0.185,0.051,0.282,-5.337
0.222,0.050,0.278,-5.337
0.209,0.052,0.285,-5.337
0.219,0.049,0.293,-5.337
0.221,0.047,0.296,-5.337
0.189,0.048,0.296,-5.337
0.172,0.050,0.295,-5.337
0.178,0.052,0.296,-5.337
0.195,0.053,0.292,-5.337
0.206,0.048,0.289,-5.337
0.204,0.047,0.287,-5.337
0.202,0.049,0.289,-5.337
0.266,0.051,0.291,-5.337
0.277,0.050,0.292,-5.337
0.217,0.048,0.290,-5.337
0.213,0.046,0.289,-5.337
0.220,0.051,0.287,-5.337
0.168,0.054,0.284,-5.337
0.197,0.051,0.287,-5.337
0.267,0.050,0.294,-5.337
0.261,0.047,0.293,-5.337
0.223,0.047,0.285,-5.337
0.251,0.047,0.283,-5.337
0.325,0.047,0.287,-5.337
0.318,0.049,0.290,-5.337
0.228,0.048,0.289,-5.337
0.197,0.047,0.287,-5.337
0.196,0.046,0.290,-5.337
0.239,0.045,0.294,-5.337
0.266,0.047,0.294,-5.337
0.189,0.049,0.290,-5.337
0.110,0.048,0.285,-5.337
0.181,0.045,0.286,-5.337
0.221,0.044,0.287,-5.337
0.188,0.044,0.290,-5.337
0.152,0.043,0.292,-5.337
0.185,0.040,0.291,-5.337
0.207,0.040,0.290,-5.337
0.255,0.040,0.291,-5.337
0.183,0.043,0.290,-5.337
0.072,0.046,0.290,-5.337
0.122,0.043,0.290,-5.337
0.170,0.045,0.288,-5.337
0.151,0.048,0.287,-5.337
0.149,0.049,0.286,-5.337
0.178,0.048,0.282,-5.337
0.214,0.048,0.283,-5.337
0.254,0.047,0.283,-5.337
0.215,0.051,0.284,-5.337
0.117,0.052,0.290,-5.337
0.155,0.049,0.297,-5.337
0.250,0.041,0.294,-5.337
0.256,0.041,0.290,-5.337
0.238,0.043,0.292,-5.337
0.176,0.048,0.289,-5.337
0.144,0.050,0.288,-5.337
0.167,0.048,0.285,-5.337
0.205,0.046,0.286,-5.337
0.166,0.046,0.286,-5.337
0.151,0.045,0.289,-5.337
0.234,0.039,0.288,-5.337
0.294,0.037,0.291,-5.337
0.256,0.042,0.290,-5.337
0.176,0.043,0.287,-5.337
0.203,0.039,0.286,-5.337
0.222,0.042,0.286,-5.337
0.217,0.042,0.287,-5.337
0.222,0.041,0.289,-5.337
0.122,0.047,0.292,-5.337
0.115,0.046,0.291,-5.337
0.132,0.042,0.290,-5.337
0.120,0.039,0.289,-5.337
0.104,0.038,0.290,-5.337
0.155,0.038,0.290,-5.337
0.208,0.040,0.288,-5.337
0.194,0.040,0.285,-5.337
0.223,0.039,0.287,-5.337
0.248,0.037,0.289,-5.337
0.221,0.039,0.288,-5.337
0.201,0.042,0.288,-5.337
0.166,0.042,0.293,-5.337
0.134,0.043,0.291,-5.337
0.170,0.043,0.289,-5.337
0.180,0.042,0.286,-5.337
0.126,0.045,0.285,-5.337
0.081,0.044,0.288,-5.337
0.082,0.044,0.289,-5.337
0.090,0.037,0.290,-5.337
0.109,0.037,0.289,-5.337
0.129,0.039,0.286,-5.337
0.159,0.039,0.286,-5.337
0.213,0.038,0.290,-5.337
0.241,0.037,0.292,-5.337
0.221,0.039,0.292,-5.337
0.198,0.040,0.290,-5.337
0.220,0.037,0.286,-5.337
0.215,0.038,0.284,-5.337
0.195,0.042,0.288,-5.337
0.105,0.043,0.288,-5.337
0.130,0.041,0.291,-5.337
0.212,0.038,0.292,-5.337
0.173,0.040,0.295,-5.337
0.162,0.042,0.291,-5.337
0.241,0.040,0.289,-5.337
0.292,0.038,0.292,-5.337
0.249,0.039,0.294,-5.337
0.210,0.034,0.292,-5.337
0.220,0.035,0.286,-5.337
0.208,0.040,0.285,-5.337
0.184,0.038,0.288,-5.337
0.171,0.039,0.291,-5.337
0.223,0.037,0.290,-5.337
0.228,0.036,0.290,-5.337
0.188,0.039,0.290,-5.337
0.107,0.042,0.287,-5.337
0.157,0.039,0.285,-5.337
0.185,0.040,0.287,-5.337
0.123,0.040,0.292,-5.337
0.108,0.037,0.292,-5.337
0.227,0.035,0.289,-5.337
0.295,0.035,0.290,-5.337
0.182,0.042,0.289,-5.337
0.142,0.039,0.290,-5.337
0.171,0.037,0.289,-5.337
0.192,0.038,0.288,-5.337
0.192,0.037,0.286,-5.337
0.181,0.033,0.288,-5.337
0.192,0.033,0.288,-5.337
0.165,0.037,0.282,-5.337
0.192,0.038,0.278,-5.337
0.205,0.041,0.281,-5.337
0.274,0.039,0.286,-5.337
0.222,0.038,0.290,-5.337
0.189,0.034,0.291,-5.337
0.139,0.034,0.292,-5.337
0.170,0.033,0.292,-5.337
0.263,0.037,0.293,-5.337
0.282,0.035,0.292,-5.337
0.226,0.034,0.292,-5.337
0.193,0.034,0.287,-5.337
0.152,0.036,0.283,-5.337
0.165,0.035,0.285,-5.337
0.215,0.035,0.285,-5.337
0.217,0.036,0.287,-5.337
0.198,0.039,0.285,-5.337
0.200,0.041,0.283,-5.337
0.206,0.040,0.281,-5.337
0.245,0.037,0.282,-5.337
0.280,0.037,0.285,-5.337
0.240,0.042,0.291,-5.337
0.192,0.042,0.292,-5.337
0.153,0.041,0.290,-5.337
0.195,0.040,0.288,-5.337
0.250,0.038,0.284,-5.337
0.232,0.036,0.282,-5.337
0.259,0.036,0.285,-5.337
0.245,0.036,0.291,-5.337
0.249,0.037,0.294,-5.337
0.236,0.039,0.289,-5.337
0.195,0.039,0.286,-5.337
0.125,0.036,0.287,-5.337
0.114,0.037,0.290,-5.337
0.182,0.035,0.289,-5.337
0.165,0.038,0.284,-5.337
0.097,0.037,0.283,-5.337
0.082,0.035,0.285,-5.337
0.127,0.037,0.289,-5.337
0.123,0.038,0.287,-5.337
0.099,0.038,0.286,-5.337
0.090,0.039,0.286,-5.337
0.150,0.039,0.285,-5.337
0.193,0.035,0.283,-5.337
0.205,0.037,0.286,-5.337
0.184,0.038,0.286,-5.337
0.161,0.038,0.285,-5.337
0.142,0.036,0.284,-5.337
0.139,0.034,0.284,-5.337
0.187,0.033,0.283,-5.337
0.148,0.036,0.283,-5.337
0.138,0.036,0.288,-5.337
0.168,0.034,0.292,-5.337
0.209,0.029,0.290,-5.337
0.212,0.029,0.290,-5.337
0.198,0.032,0.290,-5.337
0.196,0.032,0.287,-5.337
0.226,0.033,0.286,-5.337
0.280,0.034,0.286,-5.337
0.264,0.035,0.286,-5.337
0.175,0.037,0.285,-5.337
0.177,0.034,0.287,-5.337
0.204,0.035,0.287,-5.337
0.167,0.038,0.287,-5.337
0.174,0.036,0.282,-5.337
0.161,0.034,0.281,-5.337
0.176,0.038,0.282,-5.337
0.161,0.039,0.283,-5.337
0.149,0.039,0.283,-5.337
0.122,0.042,0.285,-5.337
0.083,0.043,0.286,-5.337
0.110,0.041,0.286,-5.337
0.113,0.041,0.285,-5.337
0.117,0.040,0.289,-5.337
0.118,0.041,0.291,-5.337
0.173,0.038,0.291,-5.337
0.252,0.036,0.288,-5.337
0.188,0.042,0.290,-5.337
0.169,0.042,0.293,-5.337
0.222,0.040,0.292,-5.337
0.241,0.041,0.289,-5.337
0.237,0.038,0.285,-5.337
0.146,0.040,0.285,-5.337
0.150,0.042,0.286,-5.337
0.171,0.041,0.287,-5.337
0.146,0.040,0.289,-5.337
0.191,0.043,0.288,-5.337
0.199,0.044,0.283,-5.337
0.127,0.047,0.284,-5.337
0.087,0.048,0.285,-5.337
0.082,0.044,0.286,-5.337
0.076,0.043,0.286,-5.337
0.088,0.043,0.287,-5.337
0.168,0.039,0.286,-5.337
0.215,0.039,0.286,-5.337
0.178,0.038,0.287,-5.337
0.130,0.039,0.286,-5.337
0.146,0.037,0.286,-5.337
0.149,0.038,0.287,-5.337
0.143,0.039,0.287,-5.337
0.144,0.040,0.283,-5.337
0.205,0.040,0.281,-5.337
0.216,0.041,0.283,-5.337
0.155,0.043,0.284,-5.337
0.122,0.043,0.287,-5.337
0.153,0.043,0.290,-5.337
0.220,0.043,0.290,-5.337
0.215,0.040,0.292,-5.337
0.188,0.040,0.286,-5.337
0.135,0.042,0.280,-5.337
0.189,0.043,0.283,-5.337
0.226,0.039,0.286,-5.337
0.220,0.041,0.287,-5.337
0.217,0.044,0.289,-5.337
0.230,0.043,0.288,-5.337
0.203,0.041,0.287,-5.337
0.186,0.040,0.287,-5.337
0.183,0.041,0.287,-5.337
0.265,0.040,0.289,-5.337
0.256,0.041,0.293,-5.337
0.159,0.041,0.290,-5.337
0.150,0.043,0.285,-5.337
0.143,0.045,0.285,-5.337
0.146,0.044,0.287,-5.337
0.163,0.044,0.289,-5.337
0.225,0.044,0.287,-5.337
0.230,0.044,0.287,-5.337
0.194,0.047,0.290,-5.337
0.120,0.047,0.288,-5.337
0.129,0.040,0.286,-5.337
0.175,0.041,0.288,-5.337
0.172,0.045,0.290,-5.337
0.183,0.042,0.293,-5.337
0.211,0.043,0.291,-5.337
0.198,0.047,0.290,-5.337
0.205,0.049,0.289,-5.337
0.151,0.050,0.287,-5.337
0.152,0.048,0.284,-5.337
0.212,0.046,0.285,-5.337
0.248,0.044,0.286,-5.337
0.209,0.049,0.284,-5.337
0.159,0.047,0.285,-5.337
0.177,0.048,0.285,-5.337
0.203,0.048,0.289,-5.337
0.198,0.047,0.292,-5.337
0.254,0.044,0.293,-5.337
0.263,0.045,0.291,-5.337
0.209,0.045,0.287,-5.337
0.158,0.047,0.287,-5.337
0.188,0.048,0.287,-5.337
0.177,0.051,0.287,-5.337
0.199,0.049,0.290,-5.337
0.219,0.045,0.288,-5.337
0.162,0.048,0.287,-5.337
0.135,0.048,0.288,-5.337
0.177,0.049,0.290,-5.337
0.259,0.047,0.291,-5.337
0.274,0.048,0.293,-5.337
0.244,0.049,0.291,-5.337
0.217,0.048,0.287,-5.337
0.234,0.051,0.285,-5.337
0.197,0.051,0.286,-5.337
0.162,0.049,0.285,-5.337
0.190,0.048,0.282,-5.337
0.251,0.050,0.283,-5.337
0.241,0.050,0.286,-5.337
0.224,0.052,0.287,-5.337
0.193,0.055,0.288,-5.337
0.157,0.051,0.290,-5.337
0.176,0.051,0.291,-5.337
0.145,0.056,0.291,-5.337
0.120,0.057,0.290,-5.337
0.173,0.055,0.287,-5.337
0.166,0.059,0.285,-5.337
0.157,0.058,0.284,-5.337
0.187,0.058,0.281,-5.337
0.253,0.056,0.283,-5.337
0.239,0.058,0.286,-5.337
0.193,0.056,0.289,-5.337
0.207,0.054,0.292,-5.337
0.240,0.056,0.291,-5.337
0.183,0.057,0.287,-5.337
0.170,0.058,0.285,-5.337
0.221,0.053,0.285,-5.337
0.228,0.050,0.285,-5.337
0.233,0.052,0.286,-5.337
0.171,0.058,0.287,-5.337
0.198,0.053,0.289,-5.337
0.231,0.051,0.291,-5.337
0.175,0.053,0.291,-5.337
0.219,0.054,0.288,-5.337
0.215,0.055,0.284,-5.337
0.143,0.059,0.286,-5.337
0.098,0.060,0.289,-5.337
0.180,0.058,0.293,-5.337
0.261,0.057,0.295,-5.337
0.287,0.059,0.293,-5.337
0.225,0.057,0.290,-5.337
0.226,0.054,0.285,-5.337
0.251,0.052,0.281,-5.337
0.238,0.052,0.280,-5.337
0.245,0.051,0.282,-5.337
0.260,0.053,0.280,-5.337
0.237,0.051,0.282,-5.337
0.247,0.054,0.288,-5.337
0.138,0.056,0.294,-5.337
0.142,0.050,0.291,-5.337
0.226,0.048,0.287,-5.337
0.239,0.049,0.285,-5.337
0.304,0.047,0.287,-5.337
0.343,0.047,0.284,-5.337
0.295,0.048,0.287,-5.337
0.276,0.051,0.289,-5.337
0.239,0.050,0.290,-5.337
0.203,0.055,0.287,-5.337
0.140,0.057,0.286,-5.337
0.094,0.056,0.289,-5.337
0.161,0.057,0.294,-5.337
0.208,0.060,0.292,-5.337
0.248,0.056,0.283,-5.337
0.235,0.056,0.280,-5.337
0.224,0.058,0.280,-5.337
0.257,0.060,0.284,-5.337
0.259,0.058,0.284,-5.337
0.284,0.058,0.289,-5.337
0.276,0.056,0.293,-5.337
0.212,0.060,0.290,-5.337
0.187,0.056,0.288,-5.337
0.171,0.055,0.289,-5.337
0.242,0.055,0.290,-5.337
0.372,0.055,0.288,-5.337
0.359,0.058,0.285,-5.337
0.233,0.061,0.285,-5.337
0.178,0.061,0.288,-5.337
0.192,0.059,0.289,-5.337
0.265,0.056,0.290,-5.337
0.198,0.061,0.291,-5.337
0.143,0.060,0.288,-5.337
0.185,0.058,0.286,-5.337
0.217,0.059,0.289,-5.337
0.236,0.062,0.290,-5.337
0.230,0.061,0.289,-5.337
0.191,0.061,0.286,-5.337
0.196,0.064,0.287,-5.337
0.150,0.065,0.288,-5.337
0.159,0.063,0.291,-5.337
0.198,0.059,0.289,-5.337
0.219,0.058,0.285,-5.337
0.231,0.058,0.286,-5.337
0.174,0.064,0.291,-5.337
0.156,0.063,0.294,-5.337
0.238,0.061,0.292,-5.337
0.247,0.058,0.288,-5.337
0.192,0.060,0.284,-5.337
0.195,0.058,0.283,-5.337
0.166,0.064,0.289,-5.337
0.218,0.062,0.292,-5.337
0.228,0.060,0.291,-5.337
0.203,0.060,0.289,-5.337
0.175,0.060,0.289,-5.337
0.194,0.060,0.289,-5.337
0.220,0.063,0.289,-5.337
0.266,0.060,0.287,-5.337
0.254,0.059,0.287,-5.337
0.180,0.060,0.289,-5.337
0.200,0.056,0.286,-5.337
0.254,0.057,0.288,-5.337
0.354,0.056,0.290,-5.337
0.303,0.057,0.290,-5.337
0.249,0.056,0.288,-5.337
0.223,0.056,0.291,-5.337
0.211,0.057,0.291,-5.337
0.202,0.061,0.291,-5.337
0.203,0.064,0.291,-5.337
0.211,0.065,0.290,-5.337
0.243,0.061,0.288,-5.337
0.296,0.062,0.288,-5.337
0.253,0.065,0.289,-5.337
0.186,0.063,0.289,-5.337
0.186,0.060,0.289,-5.337
0.244,0.061,0.286,-5.337
0.286,0.062,0.284,-5.337
0.268,0.062,0.287,-5.337
0.240,0.061,0.291,-5.337
0.325,0.061,0.293,-5.337
0.344,0.057,0.291,-5.337
0.334,0.055,0.286,-5.337
0.289,0.055,0.284,-5.337
0.201,0.059,0.282,-5.337
0.257,0.058,0.283,-5.337
0.282,0.055,0.284,-5.337
0.197,0.056,0.285,-5.337
0.142,0.056,0.282,-5.337
0.186,0.055,0.282,-5.337
0.142,0.059,0.286,-5.337
0.163,0.056,0.288,-5.337
0.213,0.057,0.290,-5.337
0.240,0.061,0.291,-5.337
0.257,0.059,0.289,-5.337
0.337,0.053,0.288,-5.337
0.335,0.056,0.290,-5.337
0.261,0.061,0.289,-5.337
0.226,0.061,0.286,-5.337
0.233,0.059,0.291,-5.337
0.277,0.059,0.294,-5.337
0.286,0.057,0.292,-5.337
0.269,0.055,0.285,-5.337
0.271,0.055,0.278,-5.337
0.178,0.062,0.279,-5.337
0.137,0.060,0.285,-5.337
0.186,0.057,0.290,-5.337
0.219,0.057,0.290,-5.337
0.223,0.055,0.285,-5.337
0.232,0.056,0.282,-5.337
0.242,0.056,0.285,-5.337
0.197,0.057,0.282,-5.337
0.181,0.053,0.284,-5.337
0.253,0.051,0.285,-5.337
0.324,0.055,0.289,-5.337
0.313,0.054,0.292,-5.337
0.214,0.057,0.291,-5.337
0.152,0.053,0.290,-5.337
0.154,0.056,0.291,-5.337
0.192,0.054,0.289,-5.337
0.184,0.056,0.288,-5.337
0.198,0.055,0.287,-5.337
0.243,0.052,0.285,-5.337
0.272,0.049,0.283,-5.337
0.332,0.047,0.283,-5.337
0.277,0.052,0.282,-5.337
0.198,0.054,0.285,-5.337
0.195,0.054,0.289,-5.337
0.218,0.053,0.290,-5.337
0.192,0.052,0.288,-5.337
0.151,0.053,0.280,-5.337
0.221,0.048,0.279,-5.337
0.292,0.048,0.280,-5.337
0.273,0.050,0.285,-5.337
0.223,0.054,0.291,-5.337
0.197,0.053,0.291,-5.337
0.229,0.049,0.285,-5.337
0.289,0.051,0.284,-5.337
0.318,0.054,0.288,-5.337
0.329,0.052,0.291,-5.337
0.239,0.052,0.293,-5.337
0.190,0.048,0.293,-5.337
0.228,0.049,0.292,-5.337
0.220,0.050,0.287,-5.337
0.222,0.052,0.281,-5.337
0.215,0.053,0.277,-5.337
0.156,0.054,0.281,-5.337
0.144,0.051,0.290,-5.337
0.198,0.048,0.295,-5.337
0.210,0.045,0.294,-5.337
0.196,0.046,0.295,-5.337
0.229,0.053,0.293,-5.337
0.286,0.053,0.287,-5.337
0.293,0.054,0.285,-5.337
0.218,0.055,0.289,-5.337
0.246,0.050,0.288,-5.337
0.287,0.046,0.290,-5.337
0.220,0.048,0.288,-5.337
0.192,0.047,0.285,-5.337
0.183,0.044,0.284,-5.337
0.200,0.044,0.285,-5.337
0.227,0.044,0.290,-5.337
0.223,0.046,0.292,-5.337
0.170,0.044,0.289,-5.337
0.159,0.041,0.286,-5.337
0.229,0.041,0.286,-5.337
0.262,0.044,0.285,-5.337
0.225,0.046,0.283,-5.337
0.177,0.047,0.283,-5.337
0.240,0.046,0.285,-5.337
0.275,0.047,0.285,-5.337
0.265,0.045,0.284,-5.337
0.270,0.042,0.286,-5.337
0.279,0.045,0.292,-5.337
0.209,0.049,0.292,-5.337
0.194,0.046,0.288,-5.337
0.310,0.042,0.286,-5.337
0.324,0.039,0.287,-5.337
0.284,0.043,0.289,-5.337
0.256,0.048,0.290,-5.337
0.237,0.049,0.289,-5.337
0.213,0.051,0.287,-5.337
0.227,0.049,0.286,-5.337
0.246,0.046,0.286,-5.337
0.278,0.046,0.284,-5.337
0.228,0.045,0.282,-5.337
0.186,0.044,0.282,-5.337
0.163,0.048,0.285,-5.337
0.193,0.045,0.291,-5.337
0.274,0.043,0.293,-5.337
0.242,0.044,0.293,-5.337
0.198,0.044,0.290,-5.337
0.230,0.043,0.289,-5.337
0.272,0.043,0.288,-5.337
0.223,0.045,0.287,-5.337
0.164,0.043,0.284,-5.337
0.235,0.040,0.286,-5.337
0.239,0.044,0.291,-5.337
0.193,0.046,0.297,-5.337
0.188,0.048,0.297,-5.337
0.281,0.046,0.294,-5.337
0.331,0.042,0.288,-5.337
0.291,0.042,0.291,-5.337
0.228,0.043,0.294,-5.337
0.157,0.044,0.292,-5.337
0.181,0.043,0.287,-5.337
0.159,0.046,0.286,-5.337
0.047,0.045,0.285,-5.337
0.052,0.042,0.284,-5.337
0.187,0.036,0.284,-5.337
0.154,0.039,0.287,-5.337
0.051,0.037,0.290,-5.337
0.086,0.034,0.291,-5.337
0.217,0.033,0.287,-5.337
0.247,0.036,0.286,-5.337
0.196,0.036,0.286,-5.337
0.127,0.038,0.287,-5.337
0.092,0.040,0.289,-5.337
0.099,0.043,0.296,-5.337
0.104,0.042,0.300,-5.337
0.131,0.040,0.296,-5.337
0.172,0.035,0.292,-5.337
0.237,0.036,0.287,-5.337
0.261,0.036,0.284,-5.337
0.297,0.035,0.282,-5.337
0.255,0.035,0.285,-5.337
0.224,0.034,0.284,-5.337
0.213,0.034,0.287,-5.337
0.221,0.034,0.289,-5.337
0.251,0.036,0.289,-5.337
0.190,0.040,0.287,-5.337
0.139,0.040,0.286,-5.337
0.221,0.035,0.289,-5.337
0.205,0.037,0.291,-5.337
0.195,0.033,0.291,-5.337
0.219,0.035,0.289,-5.337
0.171,0.035,0.285,-5.337
0.076,0.036,0.286,-5.337
0.098,0.036,0.290,-5.337
0.129,0.038,0.287,-5.337
0.141,0.035,0.286,-5.337
0.168,0.035,0.286,-5.337
0.213,0.036,0.287,-5.337
0.185,0.038,0.289,-5.337
0.208,0.037,0.292,-5.337
0.145,0.035,0.287,-5.337
0.167,0.032,0.288,-5.337
0.218,0.032,0.291,-5.337
0.164,0.031,0.292,-5.337
0.125,0.031,0.287,-5.337
0.184,0.033,0.284,-5.337
0.216,0.032,0.287,-5.337
0.215,0.035,0.289,-5.337
0.172,0.037,0.287,-5.337
0.191,0.035,0.289,-5.337
0.195,0.033,0.289,-5.337
0.141,0.037,0.289,-5.337
0.164,0.037,0.287,-5.337
0.254,0.034,0.285,-5.337
0.211,0.034,0.284,-5.337
0.167,0.036,0.285,-5.337
0.187,0.034,0.285,-5.337
0.161,0.034,0.288,-5.337
0.151,0.036,0.292,-5.337
0.132,0.038,0.289,-5.337
0.111,0.036,0.284,-5.337
0.119,0.033,0.284,-5.337
0.149,0.032,0.290,-5.337
0.161,0.034,0.290,-5.337
0.179,0.039,0.290,-5.337
0.191,0.035,0.287,-5.337
0.195,0.031,0.283,-5.337
0.245,0.031,0.284,-5.337
0.266,0.033,0.289,-5.337
0.231,0.033,0.292,-5.337
0.119,0.037,0.291,-5.337
0.192,0.033,0.287,-5.337
0.298,0.032,0.286,-5.337
0.269,0.031,0.289,-5.337
0.210,0.033,0.290,-5.337
0.176,0.034,0.288,-5.337
0.166,0.034,0.286,-5.337
0.176,0.033,0.284,-5.337
0.215,0.034,0.288,-5.337
0.214,0.035,0.290,-5.337
0.224,0.039,0.292,-5.337
0.197,0.038,0.295,-5.337
0.234,0.032,0.293,-5.337
0.225,0.030,0.289,-5.337
0.194,0.034,0.284,-5.337
0.171,0.036,0.287,-5.337
0.149,0.036,0.289,-5.337
0.160,0.035,0.288,-5.337
0.172,0.033,0.285,-5.337
0.145,0.036,0.287,-5.337
0.137,0.035,0.286,-5.337
0.184,0.033,0.286,-5.337
0.179,0.036,0.283,-5.337
0.133,0.036,0.285,-5.337
0.150,0.033,0.290,-5.337
0.166,0.035,0.291,-5.337
0.175,0.035,0.289,-5.337
0.141,0.037,0.287,-5.337
0.121,0.037,0.288,-5.337
0.135,0.036,0.289,-5.337
0.153,0.035,0.288,-5.337
0.197,0.032,0.288,-5.337
0.261,0.031,0.292,-5.337
0.241,0.032,0.290,-5.337
0.250,0.031,0.289,-5.337
0.219,0.033,0.289,-5.337
0.187,0.030,0.289,-5.337
0.218,0.029,0.288,-5.337
0.213,0.030,0.289,-5.337
0.202,0.029,0.286,-5.337
0.151,0.029,0.280,-5.337
0.145,0.032,0.281,-5.337
0.184,0.032,0.288,-5.337
0.168,0.028,0.291,-5.337
0.115,0.027,0.293,-5.337
0.143,0.030,0.291,-5.337
0.148,0.032,0.289,-5.337
0.168,0.029,0.289,-5.337
0.184,0.028,0.288,-5.337
0.179,0.028,0.286,-5.337
0.206,0.031,0.283,-5.337
0.191,0.035,0.282,-5.337
0.191,0.037,0.287,-5.337
0.195,0.035,0.293,-5.337
0.229,0.032,0.293,-5.337
0.255,0.032,0.291,-5.337
0.270,0.036,0.285,-5.337
0.232,0.038,0.282,-5.337
0.236,0.036,0.286,-5.337
0.207,0.032,0.291,-5.337
0.213,0.033,0.292,-5.337
0.196,0.034,0.292,-5.337
0.206,0.033,0.290,-5.337
0.091,0.036,0.288,-5.337
0.029,0.037,0.286,-5.337
0.053,0.036,0.288,-5.337
0.123,0.034,0.289,-5.337
0.128,0.037,0.290,-5.337
0.156,0.038,0.288,-5.337
0.107,0.042,0.287,-5.337
0.015,0.039,0.287,-5.337
0.054,0.034,0.289,-5.337
0.162,0.033,0.291,-5.337
0.174,0.033,0.288,-5.337
0.154,0.035,0.284,-5.337
0.181,0.033,0.281,-5.337
0.174,0.034,0.281,-5.337
0.158,0.035,0.286,-5.337
0.131,0.036,0.288,-5.337
0.154,0.037,0.287,-5.337
0.221,0.032,0.285,-5.337
0.237,0.028,0.284,-5.337
0.138,0.034,0.288,-5.337
0.046,0.038,0.291,-5.337
0.099,0.036,0.292,-5.337
0.193,0.034,0.289,-5.337
0.206,0.034,0.285,-5.337
0.180,0.037,0.282,-5.337
0.247,0.036,0.285,-5.337
0.254,0.038,0.287,-5.337
0.168,0.040,0.289,-5.337
0.150,0.037,0.288,-5.337
0.216,0.037,0.287,-5.337
0.222,0.033,0.285,-5.337
0.181,0.035,0.284,-5.337
0.123,0.035,0.287,-5.337
0.149,0.040,0.290,-5.337
0.178,0.040,0.290,-5.337
0.177,0.038,0.290,-5.337
0.163,0.040,0.288,-5.337
0.218,0.043,0.287,-5.337
0.222,0.040,0.287,-5.337
0.205,0.037,0.280,-5.337
0.153,0.036,0.278,-5.337
0.192,0.033,0.280,-5.337
0.186,0.035,0.288,-5.337
0.179,0.037,0.294,-5.337
0.161,0.041,0.293,-5.337
0.194,0.034,0.287,-5.337
0.244,0.036,0.287,-5.337
0.192,0.038,0.289,-5.337
0.133,0.040,0.289,-5.337
0.178,0.038,0.285,-5.337
0.216,0.036,0.283,-5.337
0.225,0.036,0.284,-5.337
0.217,0.038,0.286,-5.337
0.159,0.038,0.284,-5.337
0.178,0.039,0.283,-5.337
0.219,0.042,0.281,-5.337
0.182,0.046,0.283,-5.337
0.056,0.047,0.283,-5.337
0.074,0.042,0.285,-5.337
0.200,0.041,0.288,-5.337
0.201,0.041,0.289,-5.337
0.129,0.038,0.289,-5.337
0.125,0.041,0.287,-5.337
0.120,0.045,0.284,-5.337
0.096,0.044,0.283,-5.337
0.168,0.040,0.286,-5.337
0.221,0.035,0.291,-5.337
0.184,0.034,0.293,-5.337
0.211,0.035,0.291,-5.337
0.310,0.039,0.289,-5.337
0.300,0.044,0.289,-5.337
0.250,0.039,0.288,-5.337
0.241,0.036,0.286,-5.337
0.234,0.041,0.284,-5.337
0.188,0.043,0.285,-5.337
0.145,0.047,0.289,-5.337
0.180,0.041,0.291,-5.337
0.210,0.041,0.290,-5.337
0.183,0.042,0.288,-5.337
0.179,0.041,0.286,-5.337
0.187,0.041,0.285,-5.337
0.190,0.046,0.284,-5.337
0.159,0.047,0.282,-5.337
0.143,0.047,0.281,-5.337
0.164,0.046,0.284,-5.337
0.232,0.046,0.283,-5.337
0.227,0.047,0.284,-5.337
0.237,0.043,0.284,-5.337
0.236,0.042,0.288,-5.337
0.238,0.038,0.291,-5.337
0.255,0.042,0.294,-5.337
0.211,0.045,0.289,-5.337
0.156,0.047,0.284,-5.337
0.119,0.047,0.282,-5.337
0.115,0.046,0.287,-5.337
0.132,0.042,0.290,-5.337
0.155,0.043,0.290,-5.337
0.159,0.045,0.286,-5.337
0.107,0.047,0.283,-5.337
0.135,0.043,0.285,-5.337
0.179,0.044,0.287,-5.337
0.172,0.043,0.286,-5.337
0.178,0.044,0.287,-5.337
0.169,0.045,0.286,-5.337
0.209,0.045,0.287,-5.337
0.199,0.045,0.289,-5.337
0.232,0.046,0.292,-5.337
0.219,0.045,0.294,-5.337
0.169,0.048,0.290,-5.337
0.177,0.048,0.286,-5.337
0.158,0.047,0.282,-5.337
0.092,0.048,0.284,-5.337
0.123,0.049,0.286,-5.337
0.209,0.049,0.290,-5.337
0.197,0.050,0.291,-5.337
0.188,0.049,0.290,-5.337
0.150,0.050,0.288,-5.337
0.170,0.051,0.288,-5.337
0.176,0.048,0.289,-5.337
0.174,0.049,0.294,-5.337
0.217,0.047,0.293,-5.337
0.237,0.047,0.287,-5.337
0.214,0.045,0.280,-5.337
0.229,0.043,0.282,-5.337
0.221,0.046,0.286,-5.337
0.243,0.046,0.292,-5.337
0.229,0.049,0.293,-5.337
0.190,0.051,0.287,-5.337
0.234,0.052,0.281,-5.337
0.247,0.052,0.285,-5.337
0.208,0.054,0.287,-5.337
0.177,0.052,0.291,-5.337
0.185,0.051,0.293,-5.337
0.188,0.054,0.293,-5.337
0.228,0.054,0.297,-5.337
0.214,0.054,0.295,-5.337
0.210,0.052,0.293,-5.337
0.241,0.049,0.289,-5.337
0.240,0.047,0.284,-5.337
0.261,0.051,0.278,-5.337
0.258,0.051,0.279,-5.337
0.290,0.050,0.286,-5.337
0.218,0.052,0.291,-5.337
0.133,0.052,0.289,-5.337
0.200,0.052,0.288,-5.337
0.225,0.053,0.289,-5.337
0.222,0.054,0.288,-5.337
0.198,0.055,0.289,-5.337
0.211,0.055,0.286,-5.337
0.259,0.054,0.285,-5.337
0.209,0.053,0.286,-5.337
0.158,0.057,0.291,-5.337
0.178,0.062,0.290,-5.337
0.205,0.058,0.291,-5.337
0.219,0.053,0.290,-5.337
0.125,0.055,0.287,-5.337
0.100,0.056,0.285,-5.337
0.106,0.060,0.286,-5.337
0.184,0.063,0.288,-5.337
0.220,0.061,0.289,-5.337
0.265,0.056,0.289,-5.337
0.266,0.054,0.287,-5.337
0.261,0.052,0.287,-5.337
0.257,0.050,0.291,-5.337
0.254,0.050,0.291,-5.337
0.198,0.057,0.289,-5.337
0.167,0.059,0.287,-5.337
0.260,0.057,0.289,-5.337
0.269,0.057,0.290,-5.337
0.248,0.059,0.286,-5.337
0.262,0.055,0.284,-5.337
0.302,0.055,0.284,-5.337
0.282,0.055,0.286,-5.337
0.230,0.057,0.288,-5.337
0.220,0.056,0.290,-5.337
0.196,0.057,0.289,-5.337
0.229,0.054,0.283,-5.337
0.223,0.055,0.281,-5.337
0.171,0.058,0.284,-5.337
0.205,0.056,0.289,-5.337
0.247,0.054,0.292,-5.337
0.211,0.057,0.287,-5.337
0.149,0.060,0.284,-5.337
0.177,0.061,0.284,-5.337
0.217,0.060,0.286,-5.337
0.241,0.061,0.289,-5.337
0.206,0.062,0.288,-5.337
0.209,0.057,0.287,-5.337
0.294,0.054,0.286,-5.337
0.275,0.052,0.286,-5.337
0.181,0.057,0.287,-5.337
0.210,0.055,0.289,-5.337
0.250,0.054,0.286,-5.337
0.232,0.056,0.282,-5.337
0.247,0.059,0.284,-5.337
0.272,0.055,0.287,-5.337
0.276,0.049,0.285,-5.337
0.258,0.053,0.283,-5.337
0.192,0.059,0.288,-5.337
0.195,0.063,0.291,-5.337
0.206,0.061,0.286,-5.337
0.190,0.062,0.285,-5.337
0.239,0.062,0.287,-5.337
0.289,0.061,0.290,-5.337
0.247,0.063,0.289,-5.337
0.200,0.065,0.290,-5.337
0.235,0.064,0.286,-5.337
0.258,0.064,0.285,-5.337
0.236,0.062,0.285,-5.337
0.221,0.059,0.285,-5.337
0.215,0.056,0.288,-5.337
0.210,0.057,0.294,-5.337
0.275,0.055,0.291,-5.337
0.249,0.064,0.286,-5.337
0.227,0.065,0.284,-5.337
0.284,0.064,0.284,-5.337
0.226,0.063,0.289,-5.337
0.170,0.062,0.294,-5.337
0.228,0.063,0.295,-5.337
0.302,0.066,0.292,-5.337
0.282,0.067,0.290,-5.337
0.257,0.065,0.286,-5.337
0.259,0.067,0.283,-5.337
0.296,0.066,0.285,-5.337
0.251,0.066,0.286,-5.337
0.246,0.063,0.287,-5.337
0.204,0.063,0.289,-5.337
0.179,0.068,0.290,-5.337
0.205,0.069,0.290,-5.337
0.222,0.067,0.290,-5.337
0.265,0.063,0.290,-5.337
0.257,0.063,0.287,-5.337
0.303,0.062,0.284,-5.337
0.283,0.061,0.280,-5.337
0.260,0.060,0.283,-5.337
0.262,0.060,0.286,-5.337
0.276,0.063,0.283,-5.337
0.214,0.067,0.283,-5.337
0.221,0.065,0.290,-5.337
0.262,0.065,0.292,-5.337
0.223,0.066,0.291,-5.337
0.184,0.063,0.284,-5.337
0.175,0.060,0.282,-5.337
0.199,0.061,0.289,-5.337
0.192,0.062,0.291,-5.337
0.196,0.064,0.292,-5.337
0.178,0.063,0.291,-5.337
0.218,0.061,0.293,-5.337
0.225,0.061,0.290,-5.337
0.171,0.064,0.291,-5.337
0.184,0.063,0.288,-5.337
0.247,0.067,0.287,-5.337
0.249,0.066,0.284,-5.337
0.301,0.063,0.285,-5.337
0.327,0.064,0.286,-5.337
0.251,0.068,0.286,-5.337
0.230,0.064,0.290,-5.337
0.330,0.059,0.293,-5.337
0.352,0.059,0.292,-5.337
0.289,0.060,0.290,-5.337
0.218,0.060,0.289,-5.337
0.192,0.059,0.291,-5.337
0.211,0.057,0.293,-5.337
0.272,0.058,0.293,-5.337
0.239,0.056,0.286,-5.337
0.281,0.058,0.275,-5.337
0.246,0.060,0.274,-5.337
0.215,0.061,0.281,-5.337
0.219,0.062,0.289,-5.337
0.244,0.061,0.293,-5.337
0.268,0.060,0.294,-5.337
0.227,0.063,0.295,-5.337
0.214,0.062,0.295,-5.337
0.216,0.060,0.293,-5.337
0.197,0.061,0.289,-5.337
0.231,0.058,0.285,-5.337
0.310,0.053,0.284,-5.337
0.321,0.054,0.282,-5.337
0.254,0.059,0.283,-5.337
0.169,0.060,0.285,-5.337
0.120,0.061,0.288,-5.337
0.238,0.054,0.289,-5.337
0.323,0.052,0.286,-5.337
0.252,0.053,0.283,-5.337
0.206,0.058,0.285,-5.337
0.239,0.059,0.286,-5.337
0.254,0.057,0.286,-5.337
0.237,0.057,0.287,-5.337
0.150,0.055,0.287,-5.337
0.122,0.059,0.287,-5.337
0.170,0.057,0.289,-5.337
0.214,0.056,0.292,-5.337
0.240,0.053,0.290,-5.337
0.204,0.054,0.287,-5.337
0.247,0.050,0.284,-5.337
0.293,0.049,0.285,-5.337
0.232,0.051,0.282,-5.337
0.175,0.054,0.282,-5.337
0.193,0.055,0.281,-5.337
0.236,0.055,0.284,-5.337
0.276,0.053,0.284,-5.337
0.310,0.054,0.286,-5.337
0.243,0.054,0.290,-5.337
0.236,0.053,0.288,-5.337
0.227,0.054,0.282,-5.337
0.181,0.058,0.281,-5.337
0.216,0.056,0.286,-5.337
0.286,0.054,0.293,-5.337
0.267,0.054,0.297,-5.337
0.192,0.052,0.292,-5.337
0.165,0.053,0.282,-5.337
0.185,0.050,0.278,-5.337
0.277,0.045,0.285,-5.337
0.370,0.045,0.289,-5.337
0.273,0.047,0.295,-5.337
0.211,0.049,0.293,-5.337
0.241,0.046,0.290,-5.337
0.239,0.047,0.285,-5.337
0.229,0.048,0.284,-5.337
0.157,0.049,0.282,-5.337
0.143,0.051,0.281,-5.337
0.177,0.052,0.282,-5.337
0.185,0.051,0.285,-5.337
0.191,0.051,0.288,-5.337
0.259,0.048,0.288,-5.337
0.242,0.051,0.287,-5.337
0.155,0.050,0.286,-5.337
0.194,0.047,0.287,-5.337
0.237,0.049,0.290,-5.337
0.272,0.052,0.291,-5.337
0.305,0.051,0.290,-5.337
0.241,0.050,0.286,-5.337
0.143,0.050,0.283,-5.337
0.142,0.048,0.285,-5.337
0.170,0.049,0.285,-5.337
0.271,0.044,0.286,-5.337
0.299,0.043,0.290,-5.337
0.256,0.045,0.291,-5.337
0.205,0.044,0.289,-5.337
0.208,0.043,0.291,-5.337
0.255,0.046,0.289,-5.337
0.314,0.044,0.290,-5.337
0.226,0.046,0.286,-5.337
0.142,0.050,0.281,-5.337
0.187,0.046,0.279,-5.337
0.228,0.047,0.281,-5.337
0.222,0.048,0.285,-5.337
0.155,0.050,0.289,-5.337
0.209,0.050,0.290,-5.337
0.255,0.051,0.292,-5.337
0.250,0.051,0.294,-5.337
0.299,0.051,0.293,-5.337
0.246,0.050,0.286,-5.337
0.165,0.054,0.282,-5.337
0.197,0.051,0.283,-5.337
0.274,0.048,0.285,-5.337
0.257,0.046,0.286,-5.337
0.173,0.049,0.287,-5.337
0.180,0.051,0.289,-5.337
0.232,0.047,0.289,-5.337
0.199,0.049,0.289,-5.337
0.133,0.053,0.290,-5.337
0.093,0.052,0.290,-5.337
0.117,0.049,0.289,-5.337
0.111,0.049,0.292,-5.337
0.076,0.050,0.290,-5.337
0.096,0.050,0.287,-5.337
0.173,0.046,0.285,-5.337
0.226,0.045,0.283,-5.337
0.241,0.043,0.282,-5.337
0.208,0.043,0.288,-5.337
0.235,0.041,0.292,-5.337
0.169,0.042,0.290,-5.337
0.126,0.039,0.287,-5.337
0.160,0.037,0.288,-5.337
0.153,0.040,0.291,-5.337
0.110,0.041,0.285,-5.337
0.131,0.039,0.284,-5.337
0.150,0.040,0.283,-5.337
0.174,0.039,0.283,-5.337
0.135,0.040,0.287,-5.337
0.154,0.040,0.291,-5.337
0.210,0.038,0.291,-5.337
0.257,0.035,0.290,-5.337
0.234,0.033,0.287,-5.337
0.244,0.034,0.287,-5.337
0.289,0.038,0.288,-5.337
0.236,0.039,0.289,-5.337
0.207,0.040,0.285,-5.337
0.179,0.044,0.282,-5.337
0.176,0.045,0.285,-5.337
0.215,0.045,0.292,-5.337
0.231,0.046,0.291,-5.337
0.200,0.044,0.291,-5.337
0.158,0.042,0.289,-5.337
0.164,0.045,0.290,-5.337
0.167,0.043,0.290,-5.337
0.204,0.041,0.291,-5.337
0.201,0.039,0.288,-5.337
0.183,0.041,0.285,-5.337
0.156,0.041,0.285,-5.337
0.216,0.040,0.290,-5.337
0.290,0.037,0.292,-5.337
0.291,0.040,0.291,-5.337
0.270,0.040,0.293,-5.337
0.224,0.037,0.290,-5.337
0.185,0.035,0.285,-5.337
0.155,0.041,0.285,-5.337
0.145,0.043,0.289,-5.337
0.186,0.042,0.289,-5.337
0.202,0.043,0.288,-5.337
0.149,0.044,0.287,-5.337
0.131,0.040,0.287,-5.337
0.167,0.039,0.288,-5.337
0.206,0.042,0.291,-5.337
0.214,0.046,0.290,-5.337
0.190,0.048,0.288,-5.337
0.170,0.044,0.288,-5.337
0.205,0.043,0.292,-5.337
0.266,0.042,0.290,-5.337
0.244,0.043,0.283,-5.337
0.184,0.046,0.279,-5.337
0.158,0.047,0.283,-5.337
0.163,0.047,0.287,-5.337
0.166,0.048,0.290,-5.337
0.236,0.042,0.289,-5.337
0.270,0.042,0.288,-5.337
0.258,0.046,0.288,-5.337
0.250,0.046,0.287,-5.337
0.257,0.043,0.287,-5.337
0.237,0.045,0.288,-5.337
0.229,0.045,0.288,-5.337
0.233,0.045,0.289,-5.337
0.168,0.044,0.292,-5.337
0.160,0.043,0.291,-5.337
0.182,0.046,0.288,-5.337
0.071,0.052,0.284,-5.337
0.037,0.053,0.283,-5.337
0.147,0.048,0.284,-5.337
0.211,0.045,0.287,-5.337
0.204,0.043,0.288,-5.337
0.145,0.044,0.287,-5.337
0.106,0.046,0.289,-5.337
0.120,0.044,0.290,-5.337
0.147,0.042,0.288,-5.337
0.172,0.041,0.284,-5.337
0.222,0.038,0.284,-5.337
0.206,0.040,0.282,-5.337
0.213,0.042,0.284,-5.337
0.231,0.043,0.289,-5.337
0.182,0.044,0.290,-5.337
0.167,0.041,0.290,-5.337
0.079,0.042,0.290,-5.337
0.097,0.041,0.288,-5.337
0.175,0.040,0.289,-5.337
0.164,0.041,0.286,-5.337
0.188,0.040,0.287,-5.337
0.215,0.040,0.286,-5.337
0.210,0.041,0.285,-5.337
0.206,0.040,0.287,-5.337
0.212,0.040,0.288,-5.337
0.222,0.038,0.287,-5.337
0.250,0.037,0.289,-5.337
0.233,0.040,0.286,-5.337
0.147,0.042,0.285,-5.337
0.083,0.040,0.285,-5.337
0.105,0.039,0.289,-5.337
0.153,0.038,0.290,-5.337
0.139,0.041,0.291,-5.337
0.056,0.042,0.290,-5.337
0.096,0.036,0.288,-5.337
0.164,0.034,0.286,-5.337
0.235,0.035,0.287,-5.337
0.203,0.038,0.288,-5.337
0.206,0.034,0.284,-5.337
0.135,0.036,0.283,-5.337
0.113,0.041,0.287,-5.337
0.123,0.041,0.292,-5.337
0.143,0.036,0.292,-5.337
0.206,0.036,0.291,-5.337
0.181,0.039,0.289,-5.337
0.137,0.043,0.284,-5.337
0.136,0.044,0.282,-5.337
0.179,0.044,0.284,-5.337
0.190,0.040,0.287,-5.337
0.179,0.038,0.287,-5.337
0.152,0.041,0.285,-5.337
0.125,0.042,0.283,-5.337
0.154,0.038,0.288,-5.337
0.200,0.036,0.292,-5.337
0.199,0.037,0.290,-5.337
0.136,0.038,0.285,-5.337
0.107,0.037,0.284,-5.337
0.157,0.036,0.287,-5.337
0.163,0.037,0.290,-5.337
0.160,0.036,0.288,-5.337
0.155,0.037,0.288,-5.337
0.184,0.037,0.288,-5.337
0.192,0.041,0.289,-5.337
0.139,0.042,0.285,-5.337
0.064,0.040,0.283,-5.337
0.069,0.038,0.283,-5.337
0.123,0.039,0.286,-5.337
0.136,0.039,0.288,-5.337
0.113,0.040,0.287,-5.337
0.141,0.036,0.283,-5.337
0.159,0.035,0.283,-5.337
0.127,0.035,0.287,-5.337
0.105,0.035,0.288,-5.337
0.093,0.037,0.286,-5.337
0.178,0.040,0.287,-5.337
0.230,0.038,0.288,-5.337
0.234,0.037,0.292,-5.337
0.246,0.037,0.292,-5.337
0.185,0.038,0.291,-5.337
0.225,0.034,0.292,-5.337
0.305,0.033,0.290,-5.337
0.279,0.034,0.285,-5.337
0.230,0.035,0.284,-5.337
0.211,0.036,0.287,-5.337
0.150,0.039,0.286,-5.337
0.100,0.038,0.284,-5.337
0.094,0.038,0.283,-5.337
0.184,0.035,0.285,-5.337
0.092,0.045,0.286,-5.337
0.050,0.046,0.287,-5.337
0.127,0.042,0.285,-5.337
0.216,0.040,0.285,-5.337
0.270,0.037,0.283,-5.337
0.265,0.040,0.284,-5.337
0.171,0.041,0.285,-5.337
0.149,0.042,0.289,-5.337
0.159,0.042,0.290,-5.337
0.124,0.042,0.290,-5.337
0.160,0.040,0.287,-5.337
0.200,0.040,0.286,-5.337
0.195,0.042,0.285,-5.337
0.142,0.044,0.288,-5.337
0.143,0.044,0.288,-5.337
0.147,0.042,0.285,-5.337
0.103,0.040,0.284,-5.337
0.133,0.041,0.287,-5.337
0.129,0.040,0.292,-5.337
0.215,0.038,0.292,-5.337
0.201,0.039,0.287,-5.337
0.169,0.041,0.282,-5.337
0.162,0.045,0.285,-5.337
0.155,0.045,0.286,-5.337
0.197,0.043,0.290,-5.337
0.217,0.040,0.291,-5.337
0.234,0.039,0.287,-5.337
0.149,0.041,0.285,-5.337
0.115,0.047,0.289,-5.337
0.131,0.047,0.292,-5.337
0.135,0.045,0.292,-5.337
0.153,0.045,0.290,-5.337
0.176,0.043,0.287,-5.337
0.227,0.040,0.280,-5.337
0.180,0.044,0.280,-5.337
0.129,0.045,0.287,-5.337
0.148,0.044,0.288,-5.337
0.188,0.043,0.286,-5.337
0.212,0.043,0.289,-5.337
0.209,0.042,0.290,-5.337
0.145,0.045,0.284,-5.337
0.093,0.047,0.281,-5.337
0.120,0.046,0.285,-5.337
0.172,0.045,0.290,-5.337
0.187,0.046,0.292,-5.337
0.214,0.048,0.291,-5.337
0.225,0.048,0.287,-5.337
0.252,0.047,0.286,-5.337
0.199,0.050,0.286,-5.337
0.107,0.050,0.289,-5.337
0.045,0.049,0.288,-5.337
0.069,0.048,0.287,-5.337
0.144,0.049,0.288,-5.337
0.166,0.049,0.286,-5.337
0.180,0.048,0.283,-5.337
0.189,0.052,0.283,-5.337
0.189,0.051,0.282,-5.337
0.218,0.048,0.283,-5.337
0.215,0.048,0.284,-5.337
0.151,0.048,0.286,-5.337
0.183,0.049,0.290,-5.337
0.204,0.052,0.289,-5.337
0.285,0.050,0.286,-5.337
0.277,0.050,0.282,-5.337
0.155,0.055,0.283,-5.337
0.098,0.054,0.287,-5.337
0.162,0.053,0.290,-5.337
0.249,0.051,0.285,-5.337
0.232,0.051,0.285,-5.337
0.169,0.050,0.287,-5.337
0.177,0.053,0.287,-5.337
0.205,0.052,0.284,-5.337
0.224,0.053,0.285,-5.337
0.188,0.055,0.287,-5.337
0.201,0.055,0.290,-5.337
0.185,0.058,0.290,-5.337
0.124,0.061,0.289,-5.337
0.104,0.053,0.287,-5.337
0.165,0.047,0.286,-5.337
0.228,0.048,0.287,-5.337
0.180,0.050,0.290,-5.337
0.084,0.051,0.291,-5.337
0.104,0.049,0.290,-5.337
0.128,0.049,0.288,-5.337
0.192,0.052,0.285,-5.337
0.248,0.053,0.282,-5.337
0.189,0.054,0.283,-5.337
0.130,0.055,0.285,-5.337
0.115,0.055,0.286,-5.337
0.138,0.053,0.288,-5.337
0.122,0.054,0.288,-5.337
0.169,0.051,0.288,-5.337
0.263,0.049,0.285,-5.337
0.246,0.053,0.285,-5.337
0.214,0.054,0.287,-5.337
0.157,0.058,0.288,-5.337
0.194,0.055,0.288,-5.337
0.278,0.052,0.286,-5.337
0.291,0.052,0.283,-5.337
0.283,0.050,0.283,-5.337
0.245,0.050,0.285,-5.337
0.183,0.052,0.287,-5.337
0.243,0.051,0.289,-5.337
0.337,0.052,0.290,-5.337
0.271,0.056,0.289,-5.337
0.195,0.054,0.286,-5.337
0.183,0.055,0.284,-5.337
0.217,0.053,0.281,-5.337
0.287,0.051,0.285,-5.337
0.242,0.053,0.293,-5.337
0.144,0.060,0.297,-5.337
0.106,0.058,0.292,-5.337
0.138,0.059,0.286,-5.337
0.173,0.058,0.279,-5.337
0.155,0.056,0.282,-5.337
0.104,0.052,0.286,-5.337
0.146,0.054,0.289,-5.337
0.130,0.056,0.289,-5.337
0.095,0.058,0.287,-5.337
0.132,0.056,0.285,-5.337
0.167,0.055,0.287,-5.337
0.198,0.053,0.288,-5.337
0.276,0.050,0.289,-5.337
0.346,0.050,0.285,-5.337
0.303,0.051,0.285,-5.337
0.210,0.056,0.286,-5.337
0.201,0.055,0.287,-5.337
0.218,0.056,0.289,-5.337
0.146,0.057,0.291,-5.337
0.128,0.056,0.291,-5.337
0.203,0.055,0.289,-5.337
0.202,0.055,0.288,-5.337
0.173,0.057,0.286,-5.337
0.230,0.057,0.288,-5.337
0.346,0.052,0.288,-5.337
0.329,0.052,0.289,-5.337
0.191,0.058,0.287,-5.337
0.148,0.058,0.283,-5.337
0.201,0.053,0.282,-5.337
0.297,0.048,0.284,-5.337
0.356,0.049,0.285,-5.337
0.329,0.051,0.285,-5.337
0.283,0.050,0.288,-5.337
0.239,0.054,0.290,-5.337
0.261,0.052,0.291,-5.337
0.301,0.053,0.291,-5.337
0.259,0.058,0.291,-5.337
0.150,0.062,0.288,-5.337
0.101,0.060,0.286,-5.337
0.146,0.059,0.288,-5.337
0.205,0.060,0.291,-5.337
0.279,0.058,0.290,-5.337
0.242,0.057,0.286,-5.337
0.195,0.058,0.282,-5.337
0.248,0.055,0.285,-5.337
0.252,0.056,0.285,-5.337
0.268,0.056,0.288,-5.337
0.226,0.058,0.290,-5.337
0.277,0.056,0.292,-5.337
0.307,0.056,0.290,-5.337
0.301,0.057,0.289,-5.337
0.263,0.056,0.287,-5.337
0.195,0.058,0.288,-5.337
0.163,0.059,0.287,-5.337
0.236,0.060,0.288,-5.337
0.325,0.058,0.286,-5.337
0.240,0.061,0.287,-5.337
0.174,0.059,0.290,-5.337
0.150,0.061,0.289,-5.337
0.182,0.060,0.289,-5.337
0.213,0.060,0.292,-5.337
0.194,0.060,0.290,-5.337
0.143,0.061,0.290,-5.337
0.139,0.061,0.291,-5.337
0.200,0.062,0.288,-5.337
0.185,0.063,0.288,-5.337
0.178,0.065,0.291,-5.337
0.208,0.066,0.291,-5.337
0.252,0.061,0.290,-5.337
0.294,0.058,0.290,-5.337
0.244,0.062,0.284,-5.337
0.165,0.062,0.279,-5.337
0.173,0.061,0.281,-5.337
0.125,0.061,0.287,-5.337
0.167,0.062,0.284,-5.337
0.262,0.063,0.287,-5.337
0.231,0.060,0.287,-5.337
0.228,0.060,0.285,-5.337
0.312,0.058,0.287,-5.337
0.233,0.061,0.288,-5.337
0.190,0.065,0.288,-5.337
0.189,0.064,0.286,-5.337
0.192,0.061,0.288,-5.337
0.216,0.059,0.289,-5.337
0.203,0.061,0.288,-5.337
0.192,0.061,0.287,-5.337
0.215,0.058,0.284,-5.337
0.239,0.057,0.282,-5.337
0.263,0.061,0.286,-5.337
0.236,0.061,0.289,-5.337
0.175,0.057,0.290,-5.337
0.203,0.054,0.288,-5.337
0.217,0.055,0.289,-5.337
0.267,0.056,0.286,-5.337
0.266,0.055,0.289,-5.337
0.201,0.054,0.287,-5.337
0.217,0.057,0.289,-5.337
0.247,0.058,0.288,-5.337
0.249,0.052,0.289,-5.337
0.238,0.052,0.288,-5.337
0.226,0.057,0.286,-5.337
0.224,0.061,0.286,-5.337
0.288,0.056,0.288,-5.337
0.319,0.055,0.289,-5.337
0.292,0.058,0.286,-5.337
0.321,0.056,0.286,-5.337
0.340,0.057,0.288,-5.337
0.317,0.056,0.287,-5.337
0.305,0.057,0.288,-5.337
0.237,0.059,0.288,-5.337
0.222,0.060,0.287,-5.337
0.248,0.058,0.285,-5.337
0.303,0.054,0.285,-5.337
0.260,0.056,0.288,-5.337
0.197,0.058,0.286,-5.337
0.198,0.059,0.287,-5.337
0.158,0.066,0.288,-5.337
0.145,0.067,0.290,-5.337
0.219,0.062,0.291,-5.337
0.231,0.062,0.289,-5.337
0.227,0.062,0.285,-5.337
0.271,0.064,0.283,-5.337
0.295,0.061,0.286,-5.337
0.255,0.062,0.288,-5.337
0.187,0.060,0.288,-5.337
0.221,0.061,0.289,-5.337
0.276,0.059,0.289,-5.337
0.242,0.059,0.287,-5.337
0.226,0.059,0.284,-5.337
0.260,0.060,0.285,-5.337
0.207,0.060,0.289,-5.337
0.226,0.059,0.288,-5.337
0.299,0.056,0.288,-5.337
0.334,0.057,0.287,-5.337
0.278,0.060,0.283,-5.337
0.196,0.064,0.279,-5.337
0.212,0.060,0.284,-5.337
0.235,0.055,0.290,-5.337
0.313,0.053,0.292,-5.337
0.320,0.053,0.290,-5.337
0.259,0.055,0.292,-5.337
0.272,0.054,0.293,-5.337
0.238,0.056,0.289,-5.337
0.235,0.058,0.284,-5.337
0.195,0.058,0.285,-5.337
0.178,0.055,0.286,-5.337
0.166,0.052,0.285,-5.337
0.208,0.054,0.283,-5.337
0.236,0.056,0.286,-5.337
0.231,0.054,0.289,-5.337
0.244,0.053,0.291,-5.337
0.277,0.050,0.293,-5.337
0.316,0.048,0.290,-5.337
0.251,0.052,0.286,-5.337
0.172,0.053,0.285,-5.337
0.195,0.052,0.285,-5.337
0.195,0.052,0.289,-5.337
0.201,0.052,0.291,-5.337
0.239,0.050,0.287,-5.337
0.239,0.052,0.287,-5.337
0.167,0.053,0.287,-5.337
0.175,0.053,0.290,-5.337
0.233,0.054,0.290,-5.337
0.231,0.052,0.290,-5.337
0.181,0.052,0.287,-5.337
0.235,0.049,0.286,-5.337
0.261,0.048,0.283,-5.337
0.274,0.050,0.281,-5.337
0.314,0.048,0.280,-5.337
0.321,0.048,0.284,-5.337
0.294,0.049,0.288,-5.337
0.252,0.051,0.292,-5.337
0.244,0.048,0.293,-5.337
0.222,0.053,0.293,-5.337
0.173,0.054,0.288,-5.337
0.142,0.052,0.283,-5.337
0.172,0.051,0.285,-5.337
0.122,0.056,0.287,-5.337
0.088,0.057,0.286,-5.337
0.119,0.053,0.285,-5.337
0.158,0.051,0.288,-5.337
0.180,0.049,0.289,-5.337
0.214,0.049,0.292,-5.337
0.249,0.046,0.291,-5.337
0.257,0.046,0.290,-5.337
0.250,0.050,0.287,-5.337
0.192,0.049,0.285,-5.337
0.166,0.050,0.281,-5.337
0.224,0.050,0.283,-5.337
0.279,0.050,0.282,-5.337
0.305,0.047,0.285,-5.337
0.235,0.050,0.289,-5.337
0.225,0.049,0.288,-5.337
0.275,0.046,0.290,-5.337
0.305,0.044,0.293,-5.337
0.292,0.046,0.293,-5.337
0.246,0.050,0.289,-5.337
0.202,0.049,0.285,-5.337
0.216,0.045,0.285,-5.337
0.265,0.043,0.283,-5.337
0.262,0.043,0.284,-5.337
0.245,0.044,0.289,-5.337
0.248,0.046,0.287,-5.337
0.237,0.045,0.284,-5.337
0.183,0.047,0.285,-5.337
0.254,0.042,0.285,-5.337
0.258,0.045,0.288,-5.337
0.260,0.045,0.293,-5.337
0.294,0.041,0.292,-5.337
0.269,0.042,0.291,-5.337
0.189,0.045,0.285,-5.337
0.176,0.044,0.285,-5.337
0.208,0.044,0.287,-5.337
0.193,0.050,0.288,-5.337
0.156,0.045,0.285,-5.337
0.229,0.044,0.283,-5.337
0.285,0.042,0.283,-5.337
0.233,0.043,0.288,-5.337
0.161,0.045,0.292,-5.337
0.167,0.050,0.294,-5.337
0.212,0.048,0.292,-5.337
0.205,0.048,0.286,-5.337
0.225,0.046,0.284,-5.337
0.219,0.042,0.283,-5.337
0.180,0.042,0.286,-5.337
0.144,0.044,0.284,-5.337
0.192,0.042,0.283,-5.337
0.271,0.041,0.286,-5.337
0.287,0.043,0.292,-5.337
0.232,0.046,0.290,-5.337
0.200,0.047,0.291,-5.337
0.165,0.051,0.289,-5.337
0.147,0.050,0.285,-5.337
0.190,0.045,0.282,-5.337
0.213,0.045,0.283,-5.337
0.261,0.042,0.283,-5.337
0.274,0.040,0.284,-5.337
0.206,0.045,0.288,-5.337
0.170,0.045,0.290,-5.337
0.172,0.044,0.290,-5.337
0.190,0.044,0.292,-5.337
0.197,0.043,0.291,-5.337
0.197,0.041,0.289,-5.337
0.186,0.041,0.284,-5.337
0.207,0.043,0.283,-5.337
0.155,0.043,0.286,-5.337
0.107,0.042,0.289,-5.337
0.175,0.041,0.291,-5.337
0.222,0.039,0.289,-5.337
0.222,0.037,0.285,-5.337
0.252,0.036,0.284,-5.337
0.264,0.041,0.286,-5.337
0.230,0.040,0.287,-5.337
0.216,0.042,0.288,-5.337
0.238,0.038,0.286,-5.337
0.254,0.037,0.282,-5.337
0.278,0.038,0.280,-5.337
0.276,0.038,0.282,-5.337
0.284,0.035,0.285,-5.337
0.279,0.038,0.288,-5.337
0.262,0.039,0.290,-5.337
0.214,0.040,0.291,-5.337
0.193,0.039,0.291,-5.337
0.173,0.042,0.293,-5.337
0.222,0.038,0.295,-5.337
0.267,0.034,0.294,-5.337
0.239,0.038,0.291,-5.337
0.175,0.042,0.290,-5.337
0.202,0.040,0.289,-5.337
0.232,0.037,0.286,-5.337
0.239,0.036,0.287,-5.337
0.177,0.039,0.290,-5.337
0.153,0.035,0.289,-5.337
0.189,0.035,0.283,-5.337
0.205,0.032,0.282,-5.337
0.191,0.033,0.281,-5.337
0.198,0.036,0.282,-5.337
0.198,0.037,0.280,-5.337
0.147,0.037,0.285,-5.337
0.132,0.038,0.293,-5.337
0.201,0.038,0.297,-5.337
0.266,0.036,0.291,-5.337
0.214,0.037,0.288,-5.337
0.152,0.040,0.287,-5.337
0.169,0.041,0.284,-5.337
0.263,0.039,0.281,-5.337
0.279,0.036,0.283,-5.337
0.175,0.039,0.288,-5.337
0.102,0.039,0.295,-5.337
0.101,0.037,0.297,-5.337
0.161,0.037,0.297,-5.337
0.218,0.038,0.296,-5.337
0.175,0.040,0.291,-5.337
0.132,0.039,0.289,-5.337
0.164,0.042,0.287,-5.337
0.191,0.039,0.286,-5.337
0.124,0.042,0.283,-5.337
0.082,0.041,0.280,-5.337
0.141,0.040,0.280,-5.337
0.204,0.040,0.284,-5.337
0.164,0.038,0.286,-5.337
0.125,0.037,0.288,-5.337
0.199,0.037,0.290,-5.337
0.220,0.034,0.290,-5.337
0.240,0.032,0.287,-5.337
0.231,0.035,0.288,-5.337
0.211,0.034,0.291,-5.337
0.204,0.032,0.295,-5.337
0.219,0.033,0.295,-5.337
0.192,0.036,0.291,-5.337
0.158,0.037,0.286,-5.337
0.142,0.040,0.288,-5.337
0.176,0.037,0.286,-5.337
0.223,0.036,0.284,-5.337
0.243,0.032,0.286,-5.337
0.297,0.030,0.289,-5.337
0.228,0.035,0.289,-5.337
0.180,0.040,0.289,-5.337
0.158,0.037,0.287,-5.337
0.181,0.035,0.283,-5.337
0.223,0.038,0.286,-5.337
0.197,0.038,0.292,-5.337
0.173,0.036,0.294,-5.337
0.173,0.034,0.293,-5.337
0.161,0.032,0.290,-5.337
0.191,0.030,0.287,-5.337
0.207,0.032,0.286,-5.337
0.156,0.035,0.286,-5.337
0.160,0.033,0.287,-5.337
0.156,0.033,0.289,-5.337
0.157,0.035,0.289,-5.337
0.138,0.035,0.288,-5.337
0.133,0.037,0.285,-5.337
0.129,0.039,0.284,-5.337
0.163,0.040,0.285,-5.337
0.171,0.043,0.288,-5.337
0.140,0.041,0.290,-5.337
0.166,0.037,0.290,-5.337
0.203,0.038,0.289,-5.337
0.181,0.041,0.284,-5.337
0.148,0.041,0.283,-5.337
0.147,0.042,0.288,-5.337
0.163,0.039,0.289,-5.337
0.252,0.037,0.290,-5.337
0.245,0.041,0.288,-5.337
0.135,0.045,0.292,-5.337
0.115,0.041,0.292,-5.337
0.184,0.040,0.290,-5.337
0.213,0.037,0.288,-5.337
0.178,0.041,0.288,-5.337
0.182,0.037,0.286,-5.337
0.217,0.038,0.286,-5.337
0.169,0.038,0.289,-5.337
0.120,0.038,0.288,-5.337
0.203,0.038,0.284,-5.337
0.240,0.041,0.286,-5.337
0.223,0.039,0.287,-5.337
0.194,0.037,0.286,-5.337
0.153,0.035,0.285,-5.337
0.215,0.036,0.285,-5.337
0.211,0.037,0.288,-5.337
0.193,0.036,0.287,-5.337
0.234,0.034,0.287,-5.337
0.233,0.038,0.281,-5.337
0.187,0.036,0.279,-5.337
0.209,0.034,0.283,-5.337
0.217,0.033,0.288,-5.337
0.155,0.036,0.287,-5.337
0.060,0.036,0.289,-5.337
0.087,0.036,0.287,-5.337
0.135,0.034,0.287,-5.337
0.190,0.035,0.286,-5.337
0.189,0.036,0.287,-5.337
0.183,0.034,0.288,-5.337
0.163,0.035,0.289,-5.337
0.168,0.037,0.286,-5.337
0.185,0.034,0.285,-5.337
0.217,0.035,0.288,-5.337
0.140,0.036,0.288,-5.337
0.080,0.036,0.288,-5.337
0.106,0.037,0.285,-5.337
0.196,0.035,0.283,-5.337
0.245,0.034,0.285,-5.337
0.192,0.037,0.288,-5.337
0.175,0.036,0.288,-5.337
0.149,0.035,0.291,-5.337
0.194,0.032,0.288,-5.337
0.163,0.035,0.284,-5.337
0.164,0.042,0.285,-5.337
0.203,0.042,0.290,-5.337
0.216,0.041,0.288,-5.337
0.155,0.040,0.287,-5.337
0.163,0.035,0.285,-5.337
0.215,0.035,0.285,-5.337
0.217,0.040,0.282,-5.337
0.102,0.040,0.284,-5.337
0.129,0.034,0.289,-5.337
0.161,0.038,0.288,-5.337
0.132,0.039,0.284,-5.337
0.039,0.042,0.284,-5.337
0.093,0.041,0.283,-5.337
0.211,0.041,0.284,-5.337
0.255,0.042,0.286,-5.337
0.251,0.039,0.287,-5.337
0.183,0.037,0.290,-5.337
0.123,0.041,0.289,-5.337
0.135,0.042,0.288,-5.337
0.188,0.037,0.287,-5.337
0.194,0.039,0.286,-5.337
0.219,0.040,0.283,-5.337
0.181,0.043,0.283,-5.337
0.138,0.042,0.282,-5.337
0.125,0.041,0.287,-5.337
0.156,0.041,0.291,-5.337
0.166,0.043,0.293,-5.337
0.187,0.039,0.290,-5.337
0.200,0.042,0.291,-5.337
0.115,0.042,0.289,-5.337
0.098,0.043,0.287,-5.337
0.119,0.043,0.287,-5.337
0.159,0.046,0.283,-5.337
0.115,0.046,0.283,-5.337
0.137,0.042,0.288,-5.337
0.158,0.043,0.289,-5.337
0.170,0.042,0.289,-5.337
0.222,0.041,0.291,-5.337
0.262,0.039,0.291,-5.337
0.182,0.040,0.290,-5.337
0.114,0.042,0.286,-5.337
0.140,0.041,0.284,-5.337
0.170,0.042,0.286,-5.337
0.185,0.041,0.286,-5.337
0.192,0.043,0.283,-5.337
0.179,0.043,0.287,-5.337
0.197,0.039,0.289,-5.337
0.182,0.040,0.292,-5.337
0.209,0.040,0.291,-5.337
0.195,0.040,0.290,-5.337
0.202,0.038,0.287,-5.337
0.253,0.042,0.286,-5.337
0.173,0.046,0.285,-5.337
0.140,0.045,0.285,-5.337
0.286,0.038,0.288,-5.337
0.294,0.040,0.291,-5.337
0.201,0.043,0.291,-5.337
0.178,0.043,0.288,-5.337
0.193,0.042,0.285,-5.337
0.213,0.044,0.286,-5.337
0.237,0.039,0.288,-5.337
0.159,0.042,0.289,-5.337
0.165,0.044,0.285,-5.337
0.200,0.046,0.285,-5.337
0.159,0.042,0.287,-5.337
0.164,0.044,0.287,-5.337
0.123,0.048,0.290,-5.337
0.070,0.053,0.292,-5.337
0.074,0.051,0.292,-5.337
0.125,0.051,0.289,-5.337
0.163,0.050,0.287,-5.337
0.154,0.047,0.286,-5.337
0.137,0.046,0.288,-5.337
0.131,0.044,0.287,-5.337
0.142,0.045,0.289,-5.337
0.201,0.043,0.286,-5.337
0.213,0.045,0.285,-5.337
0.134,0.045,0.287,-5.337
0.086,0.051,0.290,-5.337
0.116,0.050,0.291,-5.337
0.132,0.048,0.288,-5.337
0.143,0.050,0.287,-5.337
0.181,0.049,0.290,-5.337
0.269,0.047,0.287,-5.337
0.266,0.048,0.285,-5.337
0.131,0.051,0.286,-5.337
0.115,0.050,0.289,-5.337
0.240,0.047,0.289,-5.337
0.244,0.050,0.290,-5.337
0.172,0.051,0.289,-5.337
0.103,0.047,0.286,-5.337
0.130,0.044,0.287,-5.337
0.183,0.048,0.287,-5.337
0.208,0.049,0.285,-5.337
0.224,0.046,0.280,-5.337
0.236,0.048,0.279,-5.337
0.180,0.052,0.282,-5.337
0.158,0.055,0.288,-5.337
0.207,0.053,0.290,-5.337
0.261,0.051,0.287,-5.337
0.230,0.047,0.283,-5.337
0.151,0.053,0.285,-5.337
0.118,0.054,0.288,-5.337
0.136,0.053,0.289,-5.337
0.221,0.048,0.290,-5.337
0.218,0.050,0.288,-5.337
0.177,0.053,0.286,-5.337
0.189,0.053,0.285,-5.337
0.217,0.052,0.286,-5.337
0.243,0.053,0.289,-5.337
0.218,0.055,0.291,-5.337
0.189,0.053,0.289,-5.337
0.212,0.051,0.287,-5.337
0.215,0.053,0.284,-5.337
0.216,0.052,0.284,-5.337
0.288,0.048,0.282,-5.337
0.303,0.047,0.285,-5.337
0.255,0.053,0.288,-5.337
0.164,0.057,0.291,-5.337
0.167,0.059,0.288,-5.337
0.142,0.057,0.283,-5.337
0.207,0.053,0.279,-5.337
0.246,0.056,0.285,-5.337
0.282,0.050,0.289,-5.337
0.264,0.048,0.289,-5.337
0.234,0.049,0.287,-5.337
0.270,0.049,0.290,-5.337
0.261,0.050,0.293,-5.337
0.264,0.051,0.293,-5.337
0.242,0.054,0.288,-5.337
0.180,0.052,0.287,-5.337
0.177,0.051,0.286,-5.337
0.205,0.050,0.285,-5.337
0.291,0.053,0.283,-5.337
0.279,0.054,0.284,-5.337
0.229,0.052,0.288,-5.337
0.239,0.053,0.287,-5.337
0.221,0.054,0.288,-5.337
0.257,0.054,0.286,-5.337
0.327,0.053,0.290,-5.337
0.260,0.055,0.288,-5.337
0.160,0.062,0.287,-5.337
0.168,0.056,0.286,-5.337
0.254,0.054,0.290,-5.337
0.301,0.052,0.291,-5.337
0.233,0.058,0.285,-5.337
0.192,0.057,0.283,-5.337
0.228,0.054,0.285,-5.337
0.219,0.055,0.287,-5.337
0.236,0.056,0.289,-5.337
0.221,0.059,0.289,-5.337
0.203,0.061,0.288,-5.337
0.208,0.061,0.291,-5.337
0.188,0.059,0.293,-5.337
0.245,0.058,0.291,-5.337
0.231,0.059,0.285,-5.337
0.220,0.059,0.280,-5.337
0.233,0.062,0.280,-5.337
0.257,0.061,0.285,-5.337
0.245,0.059,0.290,-5.337
0.238,0.058,0.291,-5.337
0.249,0.059,0.286,-5.337
0.299,0.056,0.287,-5.337
0.320,0.055,0.290,-5.337
0.218,0.059,0.289,-5.337
0.184,0.058,0.288,-5.337
0.208,0.056,0.287,-5.337
0.243,0.054,0.286,-5.337
0.240,0.056,0.289,-5.337
0.240,0.055,0.292,-5.337
0.202,0.056,0.293,-5.337
0.185,0.057,0.291,-5.337
0.156,0.060,0.286,-5.337
0.195,0.057,0.288,-5.337
0.232,0.056,0.291,-5.337
0.239,0.053,0.291,-5.337
0.240,0.054,0.287,-5.337
0.222,0.059,0.288,-5.337
0.222,0.060,0.287,-5.337
0.247,0.061,0.291,-5.337
0.273,0.055,0.292,-5.337
0.220,0.054,0.292,-5.337
0.203,0.052,0.292,-5.337
0.250,0.054,0.293,-5.337
0.264,0.056,0.292,-5.337
0.284,0.055,0.293,-5.337
0.308,0.051,0.290,-5.337
0.326,0.053,0.286,-5.337
0.310,0.054,0.281,-5.337
0.310,0.054,0.284,-5.337
0.304,0.054,0.284,-5.337
0.313,0.057,0.285,-5.337
0.250,0.061,0.292,-5.337
0.182,0.063,0.296,-5.337
0.201,0.061,0.292,-5.337
0.216,0.059,0.288,-5.337
0.187,0.059,0.289,-5.337
0.194,0.060,0.288,-5.337
0.180,0.063,0.288,-5.337
0.186,0.065,0.287,-5.337
0.196,0.064,0.287,-5.337
0.209,0.063,0.289,-5.337
0.160,0.067,0.289,-5.337
0.223,0.063,0.287,-5.337
0.290,0.063,0.288,-5.337
0.273,0.063,0.288,-5.337
0.249,0.063,0.291,-5.337
0.206,0.059,0.290,-5.337
0.168,0.056,0.288,-5.337
0.213,0.058,0.283,-5.337
0.255,0.058,0.283,-5.337
0.223,0.059,0.286,-5.337
0.208,0.058,0.291,-5.337
0.269,0.056,0.292,-5.337
0.288,0.057,0.291,-5.337
0.288,0.056,0.292,-5.337
0.337,0.053,0.289,-5.337
0.337,0.052,0.285,-5.337
0.306,0.053,0.287,-5.337
0.285,0.053,0.289,-5.337
0.275,0.052,0.284,-5.337
0.326,0.051,0.282,-5.337
0.311,0.052,0.286,-5.337
0.236,0.056,0.290,-5.337
0.244,0.054,0.290,-5.337
0.262,0.054,0.286,-5.337
0.295,0.053,0.290,-5.337
0.301,0.056,0.291,-5.337
0.298,0.056,0.288,-5.337
0.273,0.055,0.289,-5.337
0.227,0.057,0.288,-5.337
0.148,0.060,0.287,-5.337
0.135,0.062,0.286,-5.337
0.176,0.059,0.291,-5.337
0.225,0.057,0.291,-5.337
0.270,0.058,0.289,-5.337
0.247,0.055,0.288,-5.337
0.231,0.056,0.287,-5.337
0.258,0.054,0.280,-5.337
0.244,0.055,0.277,-5.337
0.196,0.054,0.280,-5.337
0.246,0.054,0.288,-5.337
0.265,0.054,0.295,-5.337
0.193,0.054,0.297,-5.337
0.186,0.054,0.289,-5.337
0.232,0.052,0.283,-5.337
0.313,0.050,0.284,-5.337
0.264,0.057,0.287,-5.337
0.235,0.055,0.289,-5.337
0.262,0.055,0.292,-5.337
0.254,0.052,0.296,-5.337
0.270,0.053,0.287,-5.337
0.243,0.055,0.282,-5.337
0.192,0.055,0.281,-5.337
0.245,0.057,0.287,-5.337
0.307,0.054,0.291,-5.337
0.286,0.055,0.287,-5.337
0.201,0.057,0.282,-5.337
0.200,0.058,0.282,-5.337
0.191,0.055,0.287,-5.337
0.243,0.053,0.287,-5.337
0.271,0.053,0.286,-5.337
0.252,0.054,0.288,-5.337
0.294,0.053,0.284,-5.337
0.295,0.053,0.282,-5.337
0.283,0.055,0.287,-5.337
0.296,0.053,0.293,-5.337
0.267,0.050,0.293,-5.337
0.168,0.051,0.289,-5.337
0.199,0.048,0.288,-5.337
0.225,0.046,0.285,-5.337
0.198,0.046,0.283,-5.337
0.208,0.043,0.284,-5.337
0.231,0.045,0.291,-5.337
0.240,0.044,0.290,-5.337
0.275,0.044,0.285,-5.337
0.274,0.045,0.281,-5.337
0.271,0.045,0.284,-5.337
0.268,0.042,0.290,-5.337
0.224,0.047,0.289,-5.337
0.177,0.046,0.285,-5.337
0.191,0.042,0.289,-5.337
0.221,0.042,0.290,-5.337
0.174,0.043,0.288,-5.337
0.204,0.042,0.288,-5.337
0.253,0.044,0.291,-5.337
0.236,0.043,0.289,-5.337
0.161,0.043,0.288,-5.337
0.195,0.040,0.286,-5.337
0.284,0.041,0.286,-5.337
0.321,0.042,0.289,-5.337
0.292,0.041,0.290,-5.337
0.292,0.038,0.288,-5.337
0.297,0.039,0.284,-5.337
0.316,0.038,0.285,-5.337
0.259,0.042,0.286,-5.337
0.178,0.046,0.288,-5.337
0.228,0.044,0.286,-5.337
0.300,0.042,0.285,-5.337
0.242,0.041,0.286,-5.337
0.219,0.042,0.291,-5.337
0.178,0.043,0.290,-5.337
0.174,0.042,0.286,-5.337
0.202,0.042,0.283,-5.337
0.263,0.041,0.285,-5.337
0.224,0.040,0.284,-5.337
0.185,0.040,0.283,-5.337
0.234,0.036,0.281,-5.337
0.261,0.036,0.285,-5.337
0.261,0.038,0.287,-5.337
0.319,0.036,0.288,-5.337
0.332,0.035,0.289,-5.337
0.296,0.038,0.287,-5.337
0.263,0.041,0.287,-5.337
0.284,0.041,0.289,-5.337
0.269,0.042,0.289,-5.337
0.239,0.042,0.286,-5.337
0.154,0.041,0.287,-5.337
0.134,0.040,0.288,-5.337
0.178,0.040,0.288,-5.337
0.161,0.040,0.288,-5.337
0.144,0.040,0.292,-5.337
0.176,0.041,0.290,-5.337
0.152,0.043,0.289,-5.337
0.142,0.043,0.288,-5.337
0.218,0.043,0.290,-5.337
0.190,0.044,0.290,-5.337
0.118,0.046,0.288,-5.337
0.116,0.046,0.287,-5.337
0.158,0.045,0.290,-5.337
0.230,0.042,0.291,-5.337
0.240,0.043,0.288,-5.337
0.207,0.041,0.288,-5.337
0.262,0.041,0.288,-5.337
0.298,0.040,0.286,-5.337
0.305,0.043,0.286,-5.337
0.242,0.041,0.285,-5.337
0.199,0.043,0.285,-5.337
0.242,0.039,0.286,-5.337
0.278,0.039,0.286,-5.337
0.222,0.041,0.288,-5.337
0.172,0.039,0.289,-5.337
0.160,0.035,0.293,-5.337
0.135,0.033,0.291,-5.337
0.135,0.035,0.289,-5.337
0.202,0.037,0.290,-5.337
0.260,0.037,0.290,-5.337
0.253,0.036,0.289,-5.337
0.187,0.039,0.290,-5.337
0.197,0.038,0.289,-5.337
0.219,0.036,0.287,-5.337
0.219,0.036,0.283,-5.337
0.166,0.039,0.284,-5.337
0.114,0.039,0.284,-5.337
0.118,0.039,0.286,-5.337
0.130,0.038,0.291,-5.337
0.229,0.034,0.291,-5.337
0.233,0.036,0.287,-5.337
0.223,0.033,0.288,-5.337
0.233,0.035,0.289,-5.337
0.230,0.037,0.288,-5.337
0.234,0.038,0.285,-5.337
0.202,0.041,0.284,-5.337
0.154,0.043,0.286,-5.337
0.118,0.039,0.286,-5.337
0.176,0.036,0.287,-5.337
0.235,0.036,0.285,-5.337
0.215,0.035,0.288,-5.337
0.126,0.039,0.289,-5.337
0.121,0.038,0.287,-5.337
0.201,0.036,0.281,-5.337
0.244,0.036,0.284,-5.337
0.262,0.036,0.288,-5.337
0.318,0.036,0.289,-5.337
0.288,0.032,0.289,-5.337
0.180,0.037,0.290,-5.337
0.159,0.033,0.289,-5.337
0.227,0.033,0.288,-5.337
0.274,0.035,0.284,-5.337
0.302,0.039,0.281,-5.337
0.255,0.034,0.280,-5.337
0.192,0.032,0.284,-5.337
0.229,0.032,0.290,-5.337
0.251,0.033,0.290,-5.337
0.221,0.032,0.288,-5.337
0.191,0.036,0.292,-5.337
0.167,0.038,0.292,-5.337
0.183,0.035,0.287,-5.337
0.225,0.036,0.285,-5.337
0.226,0.035,0.284,-5.337
0.167,0.032,0.284,-5.337
0.101,0.033,0.286,-5.337
0.116,0.032,0.292,-5.337
0.156,0.033,0.295,-5.337
0.140,0.037,0.292,-5.337
0.053,0.037,0.288,-5.337
0.074,0.037,0.286,-5.337
0.156,0.036,0.285,-5.337
0.143,0.035,0.286,-5.337
0.156,0.035,0.285,-5.337
0.180,0.034,0.283,-5.337
0.265,0.032,0.283,-5.337
0.292,0.033,0.284,-5.337
0.177,0.038,0.284,-5.337
0.118,0.040,0.284,-5.337
0.153,0.040,0.287,-5.337
0.196,0.039,0.287,-5.337
0.137,0.042,0.286,-5.337
0.164,0.040,0.286,-5.337
0.177,0.038,0.290,-5.337
0.128,0.038,0.289,-5.337
0.132,0.036,0.287,-5.337
0.191,0.038,0.289,-5.337
0.213,0.041,0.294,-5.337
0.254,0.037,0.293,-5.337
0.273,0.037,0.292,-5.337
0.213,0.038,0.292,-5.337
0.171,0.040,0.290,-5.337
0.200,0.035,0.283,-5.337
0.240,0.037,0.284,-5.337
0.261,0.038,0.288,-5.337
0.165,0.038,0.289,-5.337
0.119,0.036,0.290,-5.337
0.138,0.037,0.290,-5.337
0.197,0.037,0.287,-5.337
0.225,0.041,0.286,-5.337
0.233,0.038,0.287,-5.337
0.239,0.035,0.289,-5.337
0.268,0.036,0.287,-5.337
0.271,0.034,0.288,-5.337
0.133,0.038,0.291,-5.337
0.061,0.041,0.293,-5.337
0.142,0.037,0.292,-5.337
0.178,0.034,0.287,-5.337
0.213,0.029,0.287,-5.337
0.242,0.028,0.288,-5.337
0.269,0.031,0.288,-5.337
0.254,0.033,0.284,-5.337
0.174,0.035,0.282,-5.337
0.129,0.034,0.284,-5.337
0.139,0.032,0.285,-5.337
0.192,0.028,0.289,-5.337
0.262,0.026,0.289,-5.337
0.242,0.030,0.287,-5.337
0.214,0.035,0.289,-5.337
0.225,0.035,0.291,-5.337
0.222,0.033,0.293,-5.337
0.160,0.037,0.290,-5.337
0.193,0.037,0.284,-5.337
0.238,0.035,0.281,-5.337
0.236,0.033,0.282,-5.337
0.202,0.036,0.285,-5.337
0.207,0.036,0.289,-5.337
0.235,0.034,0.292,-5.337
0.228,0.032,0.290,-5.337
0.234,0.032,0.290,-5.337
0.260,0.033,0.288,-5.337
0.219,0.035,0.289,-5.337
0.163,0.037,0.288,-5.337
0.155,0.034,0.287,-5.337
0.136,0.031,0.287,-5.337
0.119,0.032,0.292,-5.337
0.131,0.029,0.294,-5.337
0.139,0.036,0.291,-5.337
0.204,0.034,0.286,-5.337
0.280,0.031,0.282,-5.337
0.258,0.033,0.284,-5.337
0.155,0.037,0.284,-5.337
0.177,0.034,0.286,-5.337
0.210,0.035,0.290,-5.337
0.240,0.034,0.288,-5.337
0.194,0.040,0.286,-5.337
0.168,0.043,0.283,-5.337
0.169,0.039,0.282,-5.337
0.221,0.033,0.288,-5.337
0.241,0.036,0.293,-5.337
0.190,0.038,0.293,-5.337
0.130,0.040,0.288,-5.337
0.127,0.037,0.288,-5.337
0.190,0.035,0.289,-5.337
0.180,0.037,0.289,-5.337
0.171,0.041,0.286,-5.337
0.142,0.042,0.284,-5.337
0.120,0.040,0.283,-5.337
0.160,0.037,0.281,-5.337
0.163,0.038,0.283,-5.337
0.129,0.039,0.289,-5.337
0.141,0.034,0.293,-5.337
0.163,0.034,0.293,-5.337
0.156,0.034,0.290,-5.337
0.187,0.033,0.286,-5.337
0.196,0.032,0.285,-5.337
0.261,0.033,0.285,-5.337
0.257,0.035,0.287,-5.337
0.228,0.038,0.289,-5.337
0.184,0.041,0.287,-5.337
0.160,0.035,0.286,-5.337
0.135,0.033,0.285,-5.337
0.163,0.034,0.282,-5.337
0.242,0.033,0.283,-5.337
0.207,0.035,0.286,-5.337
0.147,0.036,0.290,-5.337
0.167,0.034,0.290,-5.337
0.198,0.030,0.292,-5.337
0.171,0.029,0.287,-5.337
0.136,0.036,0.285,-5.337
0.146,0.041,0.282,-5.337
0.222,0.038,0.283,-5.337
0.211,0.038,0.285,-5.337
0.197,0.037,0.286,-5.337
0.167,0.038,0.287,-5.337
0.159,0.040,0.288,-5.337
0.170,0.041,0.285,-5.337
0.140,0.040,0.284,-5.337
0.191,0.038,0.287,-5.337
0.255,0.038,0.290,-5.337
0.193,0.042,0.290,-5.337
0.143,0.044,0.291,-5.337
0.193,0.038,0.288,-5.337
0.264,0.039,0.285,-5.337
0.267,0.038,0.287,-5.337
0.209,0.039,0.289,-5.337
0.188,0.042,0.289,-5.337
0.178,0.045,0.286,-5.337
0.212,0.041,0.282,-5.337
0.256,0.035,0.283,-5.337
0.271,0.038,0.286,-5.337
0.196,0.042,0.286,-5.337
0.138,0.042,0.288,-5.337
0.108,0.037,0.287,-5.337
0.126,0.036,0.286,-5.337
0.133,0.037,0.285,-5.337
0.162,0.037,0.290,-5.337
0.173,0.035,0.291,-5.337
0.195,0.035,0.288,-5.337
0.184,0.037,0.283,-5.337
0.212,0.042,0.282,-5.337
0.221,0.039,0.283,-5.337
0.207,0.037,0.285,-5.337
0.206,0.036,0.285,-5.337
0.158,0.040,0.283,-5.337
0.119,0.042,0.282,-5.337
0.158,0.042,0.285,-5.337
0.211,0.040,0.289,-5.337
0.271,0.039,0.291,-5.337
0.269,0.037,0.292,-5.337
0.258,0.035,0.286,-5.337
0.312,0.040,0.284,-5.337
0.308,0.044,0.283,-5.337
0.250,0.041,0.286,-5.337
0.268,0.041,0.289,-5.337
0.299,0.042,0.292,-5.337
0.271,0.043,0.291,-5.337
0.206,0.047,0.287,-5.337
0.188,0.043,0.287,-5.337
0.182,0.046,0.289,-5.337
0.121,0.048,0.285,-5.337
0.120,0.047,0.282,-5.337
0.123,0.043,0.284,-5.337
0.163,0.042,0.285,-5.337
0.266,0.042,0.285,-5.337
0.289,0.047,0.288,-5.337
0.235,0.048,0.288,-5.337
0.158,0.043,0.288,-5.337
0.163,0.041,0.286,-5.337
0.210,0.038,0.284,-5.337
0.195,0.039,0.283,-5.337
0.204,0.036,0.284,-5.337
0.217,0.036,0.288,-5.337
0.202,0.040,0.292,-5.337
0.224,0.039,0.294,-5.337
0.217,0.039,0.294,-5.337
0.249,0.041,0.294,-5.337
0.223,0.041,0.295,-5.337
0.221,0.039,0.291,-5.337
0.194,0.041,0.288,-5.337
0.180,0.042,0.285,-5.337
0.133,0.043,0.282,-5.337
0.070,0.047,0.281,-5.337
0.127,0.046,0.285,-5.337
0.237,0.043,0.286,-5.337
0.286,0.040,0.286,-5.337
0.226,0.043,0.286,-5.337
0.125,0.046,0.285,-5.337
0.090,0.045,0.287,-5.337
0.144,0.045,0.290,-5.337
0.163,0.046,0.291,-5.337
0.208,0.042,0.290,-5.337
0.230,0.044,0.285,-5.337
0.220,0.045,0.281,-5.337
0.243,0.043,0.282,-5.337
0.227,0.046,0.288,-5.337
0.167,0.044,0.290,-5.337
0.097,0.049,0.295,-5.337
0.150,0.046,0.291,-5.337
0.270,0.044,0.285,-5.337
0.278,0.043,0.281,-5.337
0.210,0.047,0.283,-5.337
0.167,0.046,0.284,-5.337
0.177,0.049,0.287,-5.337
0.152,0.050,0.290,-5.337
0.182,0.050,0.291,-5.337
0.195,0.049,0.291,-5.337
0.239,0.047,0.294,-5.337
0.246,0.043,0.293,-5.337
0.252,0.042,0.286,-5.337
0.227,0.046,0.280,-5.337
0.266,0.047,0.282,-5.337
0.293,0.042,0.289,-5.337
0.249,0.043,0.292,-5.337
0.192,0.048,0.287,-5.337
0.209,0.052,0.286,-5.337
0.216,0.054,0.289,-5.337
0.209,0.052,0.290,-5.337
0.185,0.049,0.291,-5.337
0.180,0.047,0.289,-5.337
0.198,0.048,0.286,-5.337
0.259,0.049,0.282,-5.337
0.249,0.046,0.283,-5.337
0.213,0.048,0.287,-5.337
0.178,0.052,0.290,-5.337
0.191,0.049,0.288,-5.337
0.275,0.048,0.287,-5.337
0.261,0.045,0.287,-5.337
0.242,0.044,0.290,-5.337
0.213,0.045,0.292,-5.337
0.230,0.046,0.291,-5.337
0.250,0.045,0.289,-5.337
0.257,0.047,0.287,-5.337
0.280,0.051,0.284,-5.337
0.274,0.052,0.283,-5.337
0.289,0.052,0.283,-5.337
0.287,0.050,0.286,-5.337
0.249,0.051,0.292,-5.337
0.191,0.052,0.294,-5.337
0.183,0.048,0.291,-5.337
0.237,0.047,0.288,-5.337
0.274,0.051,0.288,-5.337
0.300,0.047,0.286,-5.337
0.253,0.048,0.286,-5.337
0.231,0.054,0.285,-5.337
0.221,0.055,0.286,-5.337
0.187,0.053,0.287,-5.337
0.162,0.053,0.284,-5.337
0.197,0.052,0.285,-5.337
0.213,0.054,0.291,-5.337
0.217,0.054,0.287,-5.337
0.198,0.055,0.283,-5.337
0.220,0.054,0.287,-5.337
0.213,0.057,0.289,-5.337
0.287,0.054,0.289,-5.337
0.326,0.051,0.286,-5.337
0.247,0.052,0.280,-5.337
0.205,0.053,0.280,-5.337
0.215,0.055,0.285,-5.337
0.209,0.052,0.287,-5.337
0.240,0.053,0.286,-5.337
0.241,0.052,0.288,-5.337
0.266,0.049,0.286,-5.337
0.297,0.050,0.281,-5.337
0.280,0.049,0.284,-5.337
0.284,0.049,0.289,-5.337
0.322,0.047,0.290,-5.337
0.309,0.048,0.288,-5.337
0.287,0.049,0.284,-5.337
0.308,0.052,0.286,-5.337
0.319,0.056,0.288,-5.337
0.276,0.059,0.290,-5.337
0.195,0.059,0.291,-5.337
0.181,0.057,0.289,-5.337
0.176,0.060,0.286,-5.337
0.135,0.062,0.284,-5.337
0.105,0.059,0.285,-5.337
0.180,0.056,0.288,-5.337
0.299,0.050,0.290,-5.337
0.272,0.052,0.288,-5.337
0.208,0.054,0.282,-5.337
0.229,0.051,0.282,-5.337
0.191,0.052,0.284,-5.337
0.108,0.054,0.285,-5.337
0.166,0.047,0.287,-5.337
0.292,0.047,0.288,-5.337
0.361,0.046,0.287,-5.337
0.300,0.050,0.287,-5.337
0.229,0.053,0.285,-5.337
0.219,0.052,0.288,-5.337
0.230,0.052,0.289,-5.337
0.291,0.052,0.290,-5.337
0.325,0.048,0.290,-5.337
0.289,0.054,0.295,-5.337
0.267,0.056,0.296,-5.337
0.233,0.057,0.292,-5.337
0.236,0.056,0.286,-5.337
0.233,0.054,0.282,-5.337
0.280,0.052,0.282,-5.337
0.297,0.055,0.284,-5.337
0.245,0.059,0.285,-5.337
0.242,0.061,0.289,-5.337
0.237,0.065,0.289,-5.337
0.274,0.063,0.289,-5.337
0.258,0.056,0.286,-5.337
0.254,0.054,0.282,-5.337
0.306,0.055,0.283,-5.337
0.317,0.061,0.288,-5.337
0.228,0.063,0.290,-5.337
0.195,0.059,0.289,-5.337
0.206,0.058,0.290,-5.337
0.269,0.060,0.286,-5.337
0.256,0.061,0.288,-5.337
0.245,0.057,0.292,-5.337
0.242,0.057,0.292,-5.337
0.252,0.058,0.286,-5.337
0.253,0.062,0.285,-5.337
0.247,0.060,0.287,-5.337
0.274,0.059,0.290,-5.337
0.301,0.056,0.288,-5.337
0.268,0.054,0.284,-5.337
0.245,0.057,0.283,-5.337
0.255,0.057,0.286,-5.337
0.290,0.055,0.289,-5.337
0.225,0.060,0.288,-5.337
0.164,0.059,0.287,-5.337
0.207,0.055,0.288,-5.337
0.166,0.057,0.288,-5.337
0.162,0.057,0.289,-5.337
0.204,0.061,0.288,-5.337
0.253,0.060,0.287,-5.337
0.259,0.062,0.287,-5.337
0.195,0.064,0.282,-5.337
0.220,0.061,0.284,-5.337
0.292,0.060,0.291,-5.337
0.268,0.061,0.296,-5.337
0.206,0.063,0.291,-5.337
0.176,0.062,0.292,-5.337
0.160,0.060,0.294,-5.337
0.144,0.056,0.292,-5.337
0.231,0.056,0.288,-5.337
0.258,0.059,0.287,-5.337
0.243,0.058,0.287,-5.337
0.258,0.059,0.286,-5.337
0.218,0.060,0.283,-5.337
0.175,0.061,0.283,-5.337
0.161,0.059,0.285,-5.337
0.238,0.056,0.289,-5.337
0.306,0.055,0.289,-5.337
0.304,0.056,0.290,-5.337
0.273,0.059,0.289,-5.337
0.231,0.058,0.289,-5.337
0.240,0.058,0.291,-5.337
0.252,0.059,0.289,-5.337
0.239,0.058,0.284,-5.337
0.277,0.055,0.280,-5.337
0.285,0.049,0.280,-5.337
0.283,0.050,0.281,-5.337
0.235,0.054,0.288,-5.337
0.206,0.054,0.291,-5.337
0.263,0.053,0.289,-5.337
0.243,0.054,0.284,-5.337
0.181,0.054,0.284,-5.337
0.185,0.053,0.285,-5.337
0.211,0.053,0.287,-5.337
0.211,0.049,0.289,-5.337
0.212,0.048,0.289,-5.337
0.211,0.047,0.287,-5.337
0.182,0.053,0.286,-5.337
0.136,0.052,0.285,-5.337
0.248,0.047,0.286,-5.337
0.377,0.045,0.288,-5.337
0.262,0.046,0.287,-5.337
0.129,0.048,0.284,-5.337
0.206,0.047,0.280,-5.337
0.281,0.042,0.279,-5.337
0.295,0.041,0.285,-5.337
0.245,0.044,0.290,-5.337
0.216,0.046,0.292,-5.337
0.241,0.046,0.290,-5.337
0.260,0.045,0.283,-5.337
0.245,0.043,0.285,-5.337
0.238,0.047,0.285,-5.337
0.267,0.048,0.286,-5.337
0.277,0.046,0.286,-5.337
0.262,0.046,0.287,-5.337
0.260,0.041,0.286,-5.337
0.289,0.042,0.284,-5.337
