[Parameters]
Operating Mode, Feedback
Subject  AA..ZZ, WT
Session  0..99, 44
No. Trials (1..9999), 500
Mouse Number, 1
Pressure Probe Serial Port, \00\00\00\04COM4
Save additional csv file, TRUE
Save using mouse number, FALSE
A/D Monitor Rate (Hz), 30000.000000
A/D Stimulate Rate (Hz), 30000.000000
A/D input range (+/- V), 5
No. Channels to acquire (N), 2
Pre-Stim Acq. time (ms), 100.000000
Post-Stim Acq. time (ms), 900.000000
Analysis window parameters.M-response Start (ms), 1.100000
Analysis window parameters.M-response Duration (ms), 5.500000
Analysis window parameters.H-response Duration (ms), 6.000000
Analysis window parameters.H-response Start (ms), 6.500000
Feedback window, H response
Proportional gain, 0.100000
Target value, 6.700000
Feedback Ch., 1
Stim Channel to Control (1-4), 4
Trial, 23
Wait for EMG Conditions, FALSE
Channel to monitor (0 - N-1), 1
EMG Hi Limit, 2.000000
EMG Lo Limit, 0.001000
Inter-Stim delay (sec), 10.000000
EMG Monitor Mode, Mean
Time to run Long Stim.(sec), 30
Save Long Stim Data?, OFF
BURST Save time (ms), 1000
BURST Save Interval (x above), 10
Long-Stim. Rep. Rate (Hz), 10.000000
Stim type cluster array.<size(s)>, 4
Stim type cluster array 0.Stimulus Output, Electrical
Stim type cluster array 1.Stimulus Output, OFF
Stim type cluster array 2.Stimulus Output, OFF
Stim type cluster array 3.Stimulus Output, Motor Length
Stim specs cluster array.<size(s)>, 4
Stim specs cluster array 0.Initial Stimulus ampl., 0.300000
Stim specs cluster array 0.Maximum Stimulus, 1.120000
Stim specs cluster array 0.#Pulses in train, 4
Stim specs cluster array 0.Peak Level time (ms), 1.000000
Stim specs cluster array 0.Total pulse period (ms), 150.000000
Stim specs cluster array 0.Start Delay (ms), -50.000000
Stim specs cluster array 0.Pulse Shape, Square
Stim specs cluster array 0.Ramp/Rel. time (ms), 0.100000
Stim specs cluster array 0.Peak Amplitude (V), 0.120000
Stim specs cluster array 1.Initial Stimulus ampl., 0.000000
Stim specs cluster array 1.Maximum Stimulus, 0.000000
Stim specs cluster array 1.#Pulses in train, 3
Stim specs cluster array 1.Peak Level time (ms), 29.000000
Stim specs cluster array 1.Total pulse period (ms), 200.000000
Stim specs cluster array 1.Start Delay (ms), 0.000000
Stim specs cluster array 1.Pulse Shape, Square
Stim specs cluster array 1.Ramp/Rel. time (ms), 0.000000
Stim specs cluster array 1.Peak Amplitude (V), 2.000000
Stim specs cluster array 2.Initial Stimulus ampl., 0.000000
Stim specs cluster array 2.Maximum Stimulus, 0.000000
Stim specs cluster array 2.#Pulses in train, 1
Stim specs cluster array 2.Peak Level time (ms), 25.000000
Stim specs cluster array 2.Total pulse period (ms), 200.000000
Stim specs cluster array 2.Start Delay (ms), 0.000000
Stim specs cluster array 2.Pulse Shape, Square
Stim specs cluster array 2.Ramp/Rel. time (ms), 20.000000
Stim specs cluster array 2.Peak Amplitude (V), 10.000000
Stim specs cluster array 3.Initial Stimulus ampl., 0.000000
Stim specs cluster array 3.Maximum Stimulus, 15.000000
Stim specs cluster array 3.#Pulses in train, 25
Stim specs cluster array 3.Peak Level time (ms), 0.100000
Stim specs cluster array 3.Total pulse period (ms), 4.000000
Stim specs cluster array 3.Start Delay (ms), 205.000000
Stim specs cluster array 3.Pulse Shape, Triangle
Stim specs cluster array 3.Ramp/Rel. time (ms), 3.000000
Stim specs cluster array 3.Peak Amplitude (V), 0.500000
Force cal. (mN/Volt), 100.000000
Force Range (mN), 100.000000
Length cal. (mm/Volt), 10.000000
Length Range (mm), 10.000000
Stim. 1, 0.300000
Stim. 2, 0.000000
Stim. 3, 0.000000
Stim. 4, 0.000000
Monitor acquire time (ms), 100.000000
EMG graph Ymax, 0.100000
Travel limit (mm), 20.000000
Use Pressure Probe, FALSE
Pressure goal (g), 100
Speed (mm/sec), 5.000000
Dwell time (ms), 100.000000
Pressure limit (g), 500.000000
Channel amplitude offset, 0.000000

[DATA]

0.184,0.053,0.278,-5.337
0.132,0.050,0.280,-5.337
0.111,0.050,0.284,-5.337
0.114,0.047,0.285,-5.337
0.064,0.051,0.285,-5.337
0.109,0.052,0.283,-5.337
0.183,0.049,0.283,-5.337
0.288,0.043,0.282,-5.337
0.286,0.046,0.280,-5.337
0.235,0.050,0.282,-5.337
0.214,0.053,0.285,-5.337
0.235,0.051,0.283,-5.337
0.213,0.050,0.278,-5.337
0.135,0.052,0.280,-5.337
0.119,0.055,0.281,-5.337
0.149,0.053,0.282,-5.337
0.197,0.051,0.281,-5.337
0.209,0.052,0.284,-5.337
0.154,0.055,0.285,-5.337
0.093,0.055,0.285,-5.337
0.140,0.053,0.284,-5.337
0.153,0.053,0.282,-5.337
0.125,0.054,0.276,-5.337
0.169,0.052,0.271,-5.337
0.179,0.054,0.271,-5.337
0.160,0.055,0.280,-5.337
0.152,0.057,0.287,-5.337
0.133,0.057,0.289,-5.337
0.112,0.054,0.288,-5.337
0.151,0.050,0.283,-5.337
0.194,0.051,0.279,-5.337
0.199,0.051,0.273,-5.337
0.175,0.054,0.275,-5.337
0.115,0.055,0.278,-5.337
0.157,0.054,0.283,-5.337
0.236,0.054,0.282,-5.337
0.269,0.054,0.280,-5.337
0.249,0.052,0.278,-5.337
0.224,0.053,0.282,-5.337
0.228,0.059,0.284,-5.337
0.176,0.062,0.285,-5.337
0.149,0.061,0.282,-5.337
0.146,0.062,0.280,-5.337
0.163,0.056,0.281,-5.337
0.205,0.055,0.276,-5.337
0.178,0.055,0.274,-5.337
0.141,0.057,0.277,-5.337
0.093,0.057,0.281,-5.337
0.082,0.054,0.284,-5.337
0.094,0.050,0.285,-5.337
0.171,0.047,0.282,-5.337
0.141,0.051,0.280,-5.337
0.094,0.056,0.278,-5.337
0.162,0.051,0.277,-5.337
0.182,0.049,0.279,-5.337
0.233,0.052,0.280,-5.337
0.258,0.055,0.277,-5.337
0.147,0.059,0.276,-5.337
0.102,0.054,0.278,-5.337
0.152,0.053,0.280,-5.337
0.110,0.054,0.281,-5.337
0.080,0.056,0.284,-5.337
0.148,0.056,0.282,-5.337
0.171,0.054,0.277,-5.337
0.215,0.049,0.278,-5.337
0.250,0.051,0.280,-5.337
0.227,0.054,0.280,-5.337
0.158,0.054,0.281,-5.337
0.147,0.057,0.281,-5.337
0.177,0.053,0.278,-5.337
0.177,0.053,0.274,-5.337
0.142,0.056,0.277,-5.337
0.114,0.054,0.280,-5.337
0.125,0.053,0.279,-5.337
0.105,0.054,0.278,-5.337
0.087,0.054,0.277,-5.337
0.054,0.054,0.277,-5.337
0.110,0.052,0.277,-5.337
0.170,0.051,0.281,-5.337
0.158,0.053,0.279,-5.337
0.192,0.051,0.279,-5.337
0.202,0.051,0.278,-5.337
0.208,0.053,0.275,-5.337
0.172,0.056,0.275,-5.337
0.167,0.058,0.278,-5.337
0.212,0.058,0.281,-5.337
0.192,0.060,0.283,-5.337
0.144,0.061,0.281,-5.337
0.127,0.061,0.278,-5.337
0.168,0.062,0.276,-5.337
0.200,0.059,0.277,-5.337
0.247,0.056,0.278,-5.337
0.219,0.058,0.279,-5.337
0.094,0.058,0.277,-5.337
0.136,0.054,0.274,-5.337
0.170,0.051,0.276,-5.337
0.171,0.052,0.278,-5.337
0.158,0.054,0.282,-5.337
0.102,0.057,0.282,-5.337
0.101,0.054,0.280,-5.337
0.156,0.045,0.279,-5.337
0.190,0.045,0.280,-5.337
0.169,0.052,0.281,-5.337
0.059,0.054,0.278,-5.337
0.091,0.049,0.278,-5.337
0.127,0.051,0.279,-5.337
0.146,0.050,0.278,-5.337
0.170,0.048,0.278,-5.337
0.208,0.047,0.277,-5.337
0.234,0.045,0.278,-5.337
0.228,0.045,0.276,-5.337
0.099,0.048,0.277,-5.337
0.091,0.045,0.278,-5.337
0.125,0.046,0.277,-5.337
0.176,0.045,0.278,-5.337
0.187,0.046,0.279,-5.337
0.173,0.048,0.280,-5.337
0.138,0.046,0.280,-5.337
0.179,0.043,0.279,-5.337
0.161,0.045,0.280,-5.337
0.121,0.046,0.281,-5.337
0.078,0.051,0.278,-5.337
0.092,0.047,0.279,-5.337
0.166,0.042,0.280,-5.337
0.167,0.046,0.281,-5.337
0.279,0.042,0.281,-5.337
0.303,0.045,0.279,-5.337
0.223,0.050,0.276,-5.337
0.211,0.048,0.277,-5.337
0.127,0.048,0.280,-5.337
0.129,0.044,0.280,-5.337
0.150,0.044,0.276,-5.337
0.192,0.046,0.277,-5.337
0.228,0.042,0.278,-5.337
0.233,0.043,0.277,-5.337
0.236,0.048,0.280,-5.337
0.218,0.045,0.279,-5.337
0.223,0.044,0.277,-5.337
0.183,0.048,0.275,-5.337
0.217,0.049,0.277,-5.337
0.217,0.047,0.277,-5.337
0.188,0.046,0.281,-5.337
0.203,0.043,0.283,-5.337
0.167,0.042,0.284,-5.337
0.083,0.046,0.280,-5.337
0.084,0.045,0.280,-5.337
0.142,0.041,0.282,-5.337
0.178,0.042,0.284,-5.337
0.183,0.043,0.283,-5.337
0.209,0.048,0.282,-5.337
0.198,0.047,0.280,-5.337
0.207,0.047,0.279,-5.337
0.184,0.047,0.278,-5.337
0.158,0.046,0.277,-5.337
0.154,0.048,0.275,-5.337
0.172,0.047,0.277,-5.337
0.171,0.046,0.278,-5.337
0.183,0.047,0.279,-5.337
0.204,0.047,0.278,-5.337
0.153,0.047,0.278,-5.337
0.141,0.051,0.278,-5.337
0.166,0.048,0.280,-5.337
0.202,0.045,0.282,-5.337
0.177,0.046,0.280,-5.337
0.162,0.043,0.284,-5.337
0.169,0.043,0.283,-5.337
0.164,0.045,0.280,-5.337
0.156,0.043,0.279,-5.337
0.222,0.044,0.280,-5.337
0.222,0.041,0.281,-5.337
0.199,0.041,0.281,-5.337
0.141,0.042,0.280,-5.337
0.161,0.043,0.276,-5.337
0.195,0.042,0.277,-5.337
0.188,0.040,0.280,-5.337
0.177,0.036,0.282,-5.337
0.198,0.034,0.281,-5.337
0.232,0.032,0.280,-5.337
0.234,0.034,0.278,-5.337
0.201,0.036,0.275,-5.337
0.240,0.038,0.275,-5.337
0.202,0.040,0.280,-5.337
0.196,0.041,0.282,-5.337
0.157,0.044,0.282,-5.337
0.133,0.046,0.279,-5.337
0.067,0.045,0.279,-5.337
0.029,0.040,0.278,-5.337
0.105,0.040,0.278,-5.337
0.184,0.040,0.278,-5.337
0.270,0.039,0.280,-5.337
0.283,0.038,0.280,-5.337
0.265,0.037,0.280,-5.337
0.170,0.039,0.277,-5.337
0.139,0.040,0.278,-5.337
0.174,0.040,0.280,-5.337
0.180,0.041,0.277,-5.337
0.236,0.036,0.277,-5.337
0.263,0.035,0.280,-5.337
0.242,0.036,0.281,-5.337
0.199,0.038,0.282,-5.337
0.194,0.036,0.280,-5.337
0.162,0.041,0.276,-5.337
0.181,0.039,0.278,-5.337
0.245,0.035,0.280,-5.337
0.276,0.033,0.285,-5.337
0.247,0.035,0.280,-5.337
0.153,0.042,0.277,-5.337
0.166,0.042,0.276,-5.337
0.166,0.040,0.276,-5.337
0.101,0.041,0.277,-5.337
0.128,0.038,0.279,-5.337
0.185,0.031,0.279,-5.337
0.229,0.029,0.276,-5.337
0.208,0.030,0.276,-5.337
0.200,0.030,0.277,-5.337
0.238,0.031,0.277,-5.337
0.162,0.035,0.279,-5.337
0.093,0.035,0.276,-5.337
0.145,0.035,0.276,-5.337
0.169,0.037,0.280,-5.337
0.161,0.033,0.280,-5.337
0.221,0.029,0.280,-5.337
0.185,0.034,0.280,-5.337
0.126,0.034,0.278,-5.337
0.178,0.032,0.277,-5.337
0.265,0.028,0.275,-5.337
0.288,0.031,0.275,-5.337
0.247,0.036,0.278,-5.337
0.220,0.036,0.282,-5.337
0.209,0.035,0.282,-5.337
0.239,0.032,0.277,-5.337
0.218,0.034,0.277,-5.337
0.209,0.033,0.279,-5.337
0.185,0.033,0.280,-5.337
0.170,0.030,0.278,-5.337
0.161,0.030,0.275,-5.337
0.170,0.029,0.272,-5.337
0.172,0.035,0.274,-5.337
0.219,0.036,0.276,-5.337
0.205,0.034,0.280,-5.337
0.218,0.031,0.280,-5.337
0.234,0.032,0.281,-5.337
0.190,0.034,0.281,-5.337
0.193,0.033,0.283,-5.337
0.203,0.034,0.284,-5.337
0.149,0.036,0.282,-5.337
0.156,0.031,0.281,-5.337
0.222,0.028,0.279,-5.337
0.254,0.028,0.281,-5.337
0.264,0.031,0.279,-5.337
0.223,0.035,0.280,-5.337
0.239,0.031,0.277,-5.337
0.295,0.029,0.273,-5.337
0.263,0.028,0.274,-5.337
0.200,0.030,0.277,-5.337
0.108,0.033,0.278,-5.337
0.126,0.034,0.278,-5.337
0.189,0.034,0.278,-5.337
0.160,0.032,0.281,-5.337
0.191,0.028,0.280,-5.337
0.280,0.026,0.280,-5.337
0.257,0.030,0.281,-5.337
0.195,0.033,0.283,-5.337
0.178,0.033,0.282,-5.337
0.196,0.035,0.282,-5.337
0.198,0.034,0.280,-5.337
0.193,0.033,0.278,-5.337
0.240,0.031,0.279,-5.337
0.227,0.034,0.279,-5.337
0.198,0.033,0.281,-5.337
0.212,0.033,0.284,-5.337
0.258,0.031,0.287,-5.337
0.275,0.030,0.282,-5.337
0.282,0.032,0.278,-5.337
0.214,0.033,0.279,-5.337
0.139,0.037,0.280,-5.337
0.179,0.031,0.280,-5.337
0.242,0.031,0.278,-5.337
0.239,0.035,0.278,-5.337
0.159,0.038,0.282,-5.337
0.098,0.037,0.280,-5.337
0.104,0.035,0.277,-5.337
0.109,0.033,0.277,-5.337
0.113,0.035,0.279,-5.337
0.153,0.035,0.276,-5.337
0.219,0.034,0.276,-5.337
0.206,0.033,0.280,-5.337
0.230,0.034,0.281,-5.337
0.213,0.032,0.283,-5.337
0.228,0.032,0.282,-5.337
0.199,0.033,0.282,-5.337
0.249,0.032,0.276,-5.337
0.257,0.031,0.277,-5.337
0.265,0.027,0.279,-5.337
0.280,0.028,0.282,-5.337
0.269,0.026,0.281,-5.337
0.183,0.029,0.279,-5.337
0.135,0.031,0.280,-5.337
0.147,0.030,0.278,-5.337
0.220,0.028,0.277,-5.337
0.179,0.030,0.277,-5.337
0.118,0.031,0.278,-5.337
0.224,0.029,0.280,-5.337
0.303,0.030,0.281,-5.337
0.241,0.034,0.281,-5.337
0.192,0.035,0.279,-5.337
0.156,0.039,0.275,-5.337
0.167,0.037,0.274,-5.337
0.223,0.038,0.275,-5.337
0.180,0.039,0.278,-5.337
0.151,0.034,0.278,-5.337
0.186,0.033,0.276,-5.337
0.170,0.033,0.273,-5.337
0.229,0.035,0.276,-5.337
0.211,0.037,0.278,-5.337
0.146,0.038,0.279,-5.337
0.094,0.038,0.280,-5.337
0.123,0.036,0.282,-5.337
0.195,0.031,0.282,-5.337
0.262,0.034,0.280,-5.337
0.255,0.034,0.272,-5.337
0.254,0.031,0.269,-5.337
0.223,0.030,0.275,-5.337
0.176,0.033,0.280,-5.337
0.243,0.032,0.280,-5.337
0.261,0.033,0.281,-5.337
0.213,0.032,0.280,-5.337
0.195,0.034,0.275,-5.337
0.154,0.036,0.272,-5.337
0.096,0.033,0.274,-5.337
0.207,0.032,0.276,-5.337
0.265,0.032,0.276,-5.337
0.263,0.032,0.276,-5.337
0.227,0.032,0.277,-5.337
0.206,0.034,0.278,-5.337
0.229,0.029,0.276,-5.337
0.257,0.026,0.276,-5.337
0.269,0.024,0.279,-5.337
0.285,0.026,0.283,-5.337
0.258,0.028,0.282,-5.337
0.257,0.030,0.278,-5.337
0.242,0.028,0.274,-5.337
0.181,0.030,0.276,-5.337
0.194,0.026,0.272,-5.337
0.249,0.027,0.267,-5.337
0.208,0.030,0.267,-5.337
0.061,0.036,0.271,-5.337
0.083,0.034,0.276,-5.337
0.257,0.030,0.282,-5.337
0.317,0.030,0.285,-5.337
0.267,0.030,0.280,-5.337
0.242,0.033,0.275,-5.337
0.158,0.040,0.275,-5.337
0.119,0.037,0.277,-5.337
0.169,0.031,0.275,-5.337
0.247,0.028,0.279,-5.337
0.283,0.028,0.281,-5.337
0.287,0.031,0.282,-5.337
0.262,0.030,0.276,-5.337
0.231,0.031,0.269,-5.337
0.191,0.033,0.266,-5.337
0.179,0.031,0.270,-5.337
0.163,0.031,0.278,-5.337
0.103,0.033,0.284,-5.337
0.143,0.028,0.281,-5.337
0.170,0.031,0.279,-5.337
0.200,0.032,0.278,-5.337
0.195,0.031,0.276,-5.337
0.170,0.032,0.272,-5.337
0.137,0.036,0.271,-5.337
0.114,0.038,0.276,-5.337
0.130,0.038,0.281,-5.337
0.159,0.039,0.281,-5.337
0.187,0.038,0.279,-5.337
0.215,0.035,0.275,-5.337
0.162,0.038,0.275,-5.337
0.153,0.036,0.279,-5.337
0.178,0.035,0.278,-5.337
0.134,0.037,0.279,-5.337
0.199,0.038,0.277,-5.337
0.206,0.040,0.275,-5.337
0.167,0.039,0.275,-5.337
0.157,0.039,0.276,-5.337
0.231,0.038,0.276,-5.337
0.267,0.037,0.276,-5.337
0.276,0.040,0.274,-5.337
0.203,0.042,0.275,-5.337
0.187,0.043,0.279,-5.337
0.170,0.043,0.280,-5.337
0.149,0.041,0.277,-5.337
0.208,0.037,0.275,-5.337
0.267,0.034,0.274,-5.337
0.279,0.037,0.277,-5.337
0.227,0.039,0.274,-5.337
0.168,0.039,0.274,-5.337
0.204,0.036,0.275,-5.337
0.205,0.038,0.275,-5.337
0.188,0.038,0.277,-5.337
0.220,0.040,0.280,-5.337
0.176,0.041,0.279,-5.337
0.207,0.037,0.274,-5.337
0.207,0.037,0.273,-5.337
0.151,0.038,0.274,-5.337
0.147,0.042,0.278,-5.337
0.104,0.048,0.276,-5.337
0.061,0.046,0.272,-5.337
0.071,0.044,0.272,-5.337
0.165,0.042,0.275,-5.337
0.198,0.040,0.277,-5.337
0.166,0.042,0.279,-5.337
0.093,0.040,0.279,-5.337
0.080,0.041,0.281,-5.337
0.119,0.042,0.280,-5.337
0.090,0.043,0.280,-5.337
0.090,0.043,0.276,-5.337
0.171,0.046,0.268,-5.337
0.138,0.047,0.267,-5.337
0.141,0.047,0.274,-5.337
0.218,0.045,0.277,-5.337
0.258,0.043,0.275,-5.337
0.132,0.045,0.276,-5.337
0.116,0.041,0.276,-5.337
0.139,0.039,0.277,-5.337
0.193,0.039,0.280,-5.337
0.206,0.041,0.278,-5.337
0.191,0.042,0.278,-5.337
0.204,0.040,0.279,-5.337
0.192,0.038,0.277,-5.337
0.236,0.036,0.274,-5.337
0.223,0.040,0.273,-5.337
0.166,0.044,0.275,-5.337
0.127,0.043,0.274,-5.337
0.176,0.039,0.271,-5.337
0.203,0.042,0.270,-5.337
0.192,0.046,0.276,-5.337
0.221,0.046,0.279,-5.337
0.260,0.044,0.277,-5.337
0.213,0.048,0.271,-5.337
0.185,0.047,0.269,-5.337
0.216,0.045,0.273,-5.337
0.182,0.046,0.274,-5.337
0.138,0.049,0.276,-5.337
0.159,0.047,0.277,-5.337
0.178,0.047,0.281,-5.337
0.167,0.053,0.281,-5.337
0.134,0.052,0.277,-5.337
0.155,0.047,0.271,-5.337
0.214,0.048,0.271,-5.337
0.256,0.046,0.271,-5.337
0.250,0.044,0.274,-5.337
0.243,0.043,0.280,-5.337
0.310,0.043,0.278,-5.337
0.320,0.043,0.273,-5.337
0.235,0.045,0.272,-5.337
0.198,0.047,0.271,-5.337
0.238,0.047,0.273,-5.337
0.204,0.049,0.274,-5.337
0.181,0.045,0.272,-5.337
0.187,0.045,0.273,-5.337
0.164,0.050,0.276,-5.337
0.123,0.051,0.275,-5.337
0.177,0.052,0.274,-5.337
0.236,0.054,0.276,-5.337
0.218,0.054,0.275,-5.337
0.199,0.054,0.273,-5.337
0.213,0.050,0.271,-5.337
0.182,0.049,0.271,-5.337
0.168,0.050,0.275,-5.337
0.163,0.051,0.277,-5.337
0.180,0.048,0.274,-5.337
0.204,0.051,0.272,-5.337
0.186,0.052,0.270,-5.337
0.132,0.050,0.269,-5.337
0.092,0.048,0.270,-5.337
0.152,0.050,0.276,-5.337
0.179,0.052,0.277,-5.337
0.109,0.052,0.275,-5.337
0.059,0.055,0.274,-5.337
0.062,0.054,0.271,-5.337
0.132,0.053,0.273,-5.337
0.137,0.053,0.274,-5.337
0.057,0.051,0.273,-5.337
0.121,0.048,0.270,-5.337
0.135,0.055,0.272,-5.337
0.057,0.057,0.272,-5.337
0.075,0.055,0.270,-5.337
0.167,0.052,0.270,-5.337
0.098,0.053,0.272,-5.337
0.023,0.052,0.273,-5.337
0.124,0.057,0.275,-5.337
0.214,0.055,0.276,-5.337
0.172,0.056,0.276,-5.337
0.101,0.054,0.277,-5.337
0.192,0.049,0.279,-5.337
0.210,0.050,0.279,-5.337
0.235,0.052,0.275,-5.337
0.221,0.053,0.273,-5.337
0.164,0.053,0.273,-5.337
0.199,0.053,0.271,-5.337
0.221,0.054,0.270,-5.337
0.188,0.055,0.269,-5.337
0.121,0.058,0.267,-5.337
0.084,0.059,0.271,-5.337
0.120,0.056,0.274,-5.337
0.176,0.054,0.275,-5.337
0.141,0.052,0.276,-5.337
0.095,0.056,0.274,-5.337
0.062,0.059,0.272,-5.337
0.111,0.055,0.275,-5.337
0.148,0.054,0.276,-5.337
0.100,0.057,0.275,-5.337
0.043,0.056,0.273,-5.337
0.056,0.054,0.272,-5.337
0.116,0.052,0.275,-5.337
0.178,0.053,0.279,-5.337
0.185,0.053,0.278,-5.337
0.164,0.058,0.274,-5.337
0.132,0.054,0.273,-5.337
0.133,0.049,0.275,-5.337
0.130,0.048,0.277,-5.337
0.059,0.054,0.280,-5.337
0.094,0.054,0.282,-5.337
0.160,0.050,0.278,-5.337
0.173,0.049,0.274,-5.337
0.178,0.049,0.275,-5.337
0.233,0.048,0.274,-5.337
0.262,0.049,0.269,-5.337
0.221,0.052,0.269,-5.337
0.152,0.055,0.270,-5.337
0.129,0.054,0.273,-5.337
0.162,0.053,0.270,-5.337
0.235,0.052,0.272,-5.337
0.241,0.057,0.273,-5.337
0.182,0.059,0.275,-5.337
0.137,0.058,0.275,-5.337
0.211,0.059,0.273,-5.337
0.167,0.060,0.274,-5.337
0.083,0.059,0.274,-5.337
0.121,0.058,0.274,-5.337
0.126,0.056,0.275,-5.337
0.183,0.056,0.276,-5.337
0.184,0.060,0.278,-5.337
0.126,0.060,0.278,-5.337
0.114,0.059,0.276,-5.337
0.115,0.058,0.275,-5.337
0.138,0.057,0.276,-5.337
0.103,0.059,0.275,-5.337
0.104,0.061,0.269,-5.337
0.126,0.059,0.267,-5.337
0.169,0.058,0.268,-5.337
0.125,0.056,0.274,-5.337
0.072,0.058,0.278,-5.337
0.110,0.059,0.279,-5.337
0.150,0.060,0.275,-5.337
0.150,0.056,0.274,-5.337
0.206,0.058,0.272,-5.337
0.158,0.065,0.272,-5.337
0.108,0.061,0.271,-5.337
0.119,0.056,0.273,-5.337
0.212,0.052,0.279,-5.337
0.279,0.054,0.282,-5.337
0.169,0.059,0.281,-5.337
-0.010,0.062,0.277,-5.337
0.011,0.060,0.273,-5.337
0.079,0.055,0.273,-5.337
0.153,0.055,0.275,-5.337
0.245,0.055,0.278,-5.337
0.198,0.057,0.281,-5.337
0.110,0.060,0.279,-5.337
0.086,0.058,0.274,-5.337
0.169,0.056,0.268,-5.337
0.215,0.052,0.267,-5.337
0.234,0.051,0.265,-5.337
0.207,0.057,0.268,-5.337
0.168,0.057,0.272,-5.337
0.149,0.058,0.276,-5.337
0.125,0.061,0.277,-5.337
0.049,0.061,0.275,-5.337
0.107,0.060,0.271,-5.337
0.183,0.062,0.269,-5.337
0.145,0.056,0.271,-5.337
0.118,0.052,0.276,-5.337
0.114,0.054,0.272,-5.337
0.130,0.056,0.272,-5.337
0.086,0.059,0.276,-5.337
0.091,0.057,0.279,-5.337
0.183,0.054,0.277,-5.337
0.210,0.056,0.272,-5.337
0.202,0.052,0.271,-5.337
0.210,0.050,0.267,-5.337
0.192,0.051,0.266,-5.337
0.171,0.054,0.268,-5.337
0.178,0.055,0.273,-5.337
0.149,0.055,0.272,-5.337
0.112,0.054,0.271,-5.337
0.152,0.050,0.271,-5.337
0.221,0.049,0.269,-5.337
0.164,0.052,0.268,-5.337
0.153,0.054,0.272,-5.337
0.138,0.054,0.272,-5.337
0.150,0.056,0.268,-5.337
0.171,0.053,0.265,-5.337
0.184,0.051,0.271,-5.337
0.234,0.053,0.277,-5.337
0.200,0.057,0.277,-5.337
0.179,0.052,0.273,-5.337
0.184,0.048,0.268,-5.337
0.150,0.051,0.271,-5.337
0.151,0.054,0.274,-5.337
0.140,0.055,0.279,-5.337
0.150,0.054,0.277,-5.337
0.175,0.054,0.273,-5.337
0.134,0.051,0.268,-5.337
0.167,0.047,0.269,-5.337
0.111,0.055,0.271,-5.337
0.128,0.055,0.272,-5.337
0.206,0.051,0.272,-5.337
0.171,0.055,0.275,-5.337
0.142,0.058,0.274,-5.337
0.076,0.055,0.273,-5.337
0.081,0.052,0.271,-5.337
0.111,0.054,0.271,-5.337
0.098,0.056,0.272,-5.337
0.109,0.051,0.273,-5.337
0.168,0.049,0.274,-5.337
0.155,0.050,0.274,-5.337
0.148,0.047,0.270,-5.337
0.211,0.047,0.270,-5.337
0.230,0.048,0.270,-5.337
0.164,0.052,0.269,-5.337
0.129,0.051,0.274,-5.337
0.182,0.047,0.274,-5.337
0.165,0.049,0.269,-5.337
0.101,0.052,0.269,-5.337
0.170,0.053,0.274,-5.337
0.201,0.054,0.273,-5.337
0.191,0.053,0.273,-5.337
0.162,0.051,0.273,-5.337
0.162,0.050,0.275,-5.337
0.176,0.049,0.272,-5.337
0.217,0.048,0.276,-5.337
0.218,0.049,0.277,-5.337
0.131,0.048,0.277,-5.337
0.114,0.044,0.278,-5.337
0.136,0.047,0.283,-5.337
0.127,0.047,0.281,-5.337
0.110,0.048,0.274,-5.337
0.165,0.046,0.268,-5.337
0.152,0.049,0.269,-5.337
0.045,0.050,0.270,-5.337
0.114,0.047,0.271,-5.337
0.139,0.045,0.272,-5.337
0.156,0.042,0.272,-5.337
0.116,0.042,0.274,-5.337
0.086,0.046,0.275,-5.337
0.190,0.043,0.274,-5.337
0.276,0.042,0.274,-5.337
0.228,0.046,0.276,-5.337
0.158,0.047,0.274,-5.337
0.156,0.044,0.278,-5.337
0.220,0.043,0.279,-5.337
0.219,0.044,0.279,-5.337
0.138,0.042,0.275,-5.337
0.130,0.043,0.273,-5.337
0.200,0.039,0.271,-5.337
0.229,0.039,0.268,-5.337
0.192,0.038,0.268,-5.337
0.176,0.039,0.270,-5.337
0.188,0.040,0.274,-5.337
0.152,0.042,0.275,-5.337
0.138,0.041,0.276,-5.337
0.189,0.037,0.276,-5.337
0.215,0.039,0.274,-5.337
0.179,0.041,0.275,-5.337
0.153,0.044,0.282,-5.337
0.151,0.047,0.282,-5.337
0.217,0.041,0.278,-5.337
0.247,0.043,0.275,-5.337
0.223,0.044,0.275,-5.337
0.219,0.042,0.277,-5.337
0.234,0.038,0.278,-5.337
0.195,0.039,0.273,-5.337
0.193,0.042,0.269,-5.337
0.183,0.044,0.265,-5.337
0.160,0.045,0.269,-5.337
0.110,0.044,0.275,-5.337
0.113,0.045,0.280,-5.337
0.097,0.045,0.276,-5.337
0.136,0.045,0.272,-5.337
0.202,0.044,0.274,-5.337
0.223,0.046,0.278,-5.337
0.205,0.046,0.276,-5.337
0.178,0.050,0.270,-5.337
0.151,0.049,0.271,-5.337
0.153,0.046,0.274,-5.337
0.121,0.042,0.274,-5.337
0.157,0.042,0.273,-5.337
0.186,0.042,0.274,-5.337
0.207,0.040,0.277,-5.337
0.214,0.039,0.279,-5.337
0.252,0.039,0.276,-5.337
0.270,0.041,0.273,-5.337
0.208,0.041,0.271,-5.337
0.169,0.039,0.275,-5.337
0.229,0.038,0.279,-5.337
0.190,0.042,0.277,-5.337
0.118,0.042,0.275,-5.337
0.134,0.040,0.274,-5.337
0.216,0.038,0.276,-5.337
0.245,0.037,0.277,-5.337
0.237,0.040,0.274,-5.337
0.172,0.038,0.270,-5.337
0.177,0.037,0.269,-5.337
0.207,0.035,0.271,-5.337
0.180,0.040,0.273,-5.337
0.137,0.041,0.277,-5.337
0.148,0.042,0.279,-5.337
0.183,0.043,0.277,-5.337
0.174,0.042,0.277,-5.337
0.153,0.040,0.275,-5.337
0.140,0.036,0.276,-5.337
0.164,0.038,0.275,-5.337
0.143,0.042,0.279,-5.337
0.096,0.040,0.274,-5.337
0.100,0.036,0.269,-5.337
0.141,0.033,0.270,-5.337
0.151,0.037,0.271,-5.337
0.163,0.038,0.271,-5.337
0.260,0.037,0.273,-5.337
0.318,0.036,0.272,-5.337
0.251,0.040,0.271,-5.337
0.108,0.041,0.274,-5.337
0.051,0.040,0.274,-5.337
0.064,0.038,0.272,-5.337
0.108,0.035,0.273,-5.337
0.199,0.033,0.276,-5.337
0.230,0.034,0.278,-5.337
0.185,0.034,0.281,-5.337
0.169,0.033,0.279,-5.337
0.178,0.034,0.276,-5.337
0.178,0.036,0.272,-5.337
0.154,0.038,0.272,-5.337
0.193,0.033,0.270,-5.337
0.180,0.032,0.272,-5.337
0.112,0.032,0.272,-5.337
0.156,0.033,0.272,-5.337
0.197,0.031,0.273,-5.337
0.203,0.029,0.273,-5.337
0.174,0.030,0.272,-5.337
0.170,0.030,0.271,-5.337
0.180,0.030,0.270,-5.337
0.154,0.034,0.269,-5.337
0.147,0.036,0.269,-5.337
0.213,0.032,0.273,-5.337
0.267,0.030,0.276,-5.337
0.254,0.031,0.275,-5.337
0.147,0.035,0.275,-5.337
0.144,0.037,0.278,-5.337
0.178,0.036,0.275,-5.337
0.201,0.038,0.274,-5.337
0.209,0.036,0.278,-5.337
0.180,0.034,0.279,-5.337
0.224,0.031,0.279,-5.337
0.243,0.034,0.277,-5.337
0.258,0.033,0.277,-5.337
0.247,0.034,0.276,-5.337
0.242,0.033,0.278,-5.337
0.241,0.031,0.277,-5.337
0.246,0.033,0.273,-5.337
0.229,0.031,0.270,-5.337
0.278,0.033,0.272,-5.337
0.261,0.033,0.275,-5.337
0.268,0.032,0.278,-5.337
0.297,0.030,0.278,-5.337
0.202,0.034,0.277,-5.337
0.155,0.034,0.275,-5.337
0.190,0.035,0.275,-5.337
0.128,0.036,0.273,-5.337
0.102,0.035,0.270,-5.337
0.159,0.031,0.268,-5.337
0.210,0.032,0.271,-5.337
0.213,0.033,0.276,-5.337
0.205,0.033,0.276,-5.337
0.265,0.035,0.281,-5.337
0.283,0.034,0.282,-5.337
0.225,0.036,0.277,-5.337
0.174,0.037,0.272,-5.337
0.113,0.040,0.274,-5.337
0.077,0.040,0.279,-5.337
0.168,0.036,0.281,-5.337
0.253,0.033,0.277,-5.337
0.229,0.035,0.273,-5.337
0.170,0.034,0.271,-5.337
0.124,0.031,0.271,-5.337
0.096,0.032,0.272,-5.337
0.112,0.034,0.273,-5.337
0.162,0.028,0.276,-5.337
0.139,0.030,0.277,-5.337
0.201,0.026,0.277,-5.337
0.312,0.026,0.274,-5.337
0.207,0.029,0.274,-5.337
0.154,0.032,0.278,-5.337
0.166,0.034,0.278,-5.337
0.144,0.039,0.273,-5.337
0.147,0.034,0.275,-5.337
0.168,0.035,0.278,-5.337
0.180,0.039,0.276,-5.337
0.128,0.038,0.268,-5.337
0.190,0.034,0.269,-5.337
0.247,0.035,0.274,-5.337
0.283,0.037,0.279,-5.337
0.289,0.034,0.280,-5.337
0.265,0.029,0.279,-5.337
0.239,0.029,0.277,-5.337
0.270,0.029,0.275,-5.337
0.306,0.033,0.273,-5.337
0.209,0.038,0.272,-5.337
0.110,0.036,0.275,-5.337
0.162,0.034,0.278,-5.337
0.216,0.030,0.279,-5.337
0.176,0.035,0.280,-5.337
0.159,0.038,0.277,-5.337
0.133,0.033,0.276,-5.337
0.197,0.030,0.274,-5.337
0.173,0.031,0.272,-5.337
0.162,0.034,0.273,-5.337
0.120,0.035,0.277,-5.337
0.123,0.036,0.278,-5.337
0.053,0.037,0.277,-5.337
0.080,0.033,0.278,-5.337
0.189,0.031,0.277,-5.337
0.224,0.033,0.274,-5.337
0.222,0.031,0.272,-5.337
0.199,0.032,0.270,-5.337
0.233,0.028,0.267,-5.337
0.219,0.029,0.269,-5.337
0.185,0.028,0.272,-5.337
0.215,0.031,0.274,-5.337
0.195,0.035,0.274,-5.337
0.205,0.033,0.273,-5.337
0.214,0.031,0.274,-5.337
0.168,0.036,0.274,-5.337
0.151,0.035,0.275,-5.337
0.198,0.029,0.275,-5.337
0.203,0.030,0.273,-5.337
0.195,0.031,0.273,-5.337
0.179,0.032,0.276,-5.337
0.229,0.031,0.278,-5.337
0.270,0.029,0.282,-5.337
0.250,0.031,0.281,-5.337
0.224,0.031,0.283,-5.337
0.207,0.032,0.280,-5.337
0.153,0.037,0.272,-5.337
0.187,0.035,0.265,-5.337
0.229,0.035,0.264,-5.337
0.254,0.035,0.267,-5.337
0.200,0.039,0.274,-5.337
0.172,0.038,0.276,-5.337
0.174,0.037,0.276,-5.337
0.169,0.039,0.275,-5.337
0.140,0.040,0.272,-5.337
0.154,0.038,0.268,-5.337
0.218,0.032,0.270,-5.337
0.287,0.032,0.272,-5.337
0.310,0.035,0.272,-5.337
0.262,0.038,0.271,-5.337
0.221,0.034,0.272,-5.337
0.280,0.029,0.274,-5.337
0.322,0.034,0.274,-5.337
0.220,0.040,0.278,-5.337
0.150,0.037,0.280,-5.337
0.149,0.038,0.279,-5.337
0.131,0.039,0.272,-5.337
0.096,0.039,0.273,-5.337
0.074,0.036,0.274,-5.337
0.084,0.038,0.274,-5.337
0.098,0.037,0.274,-5.337
0.159,0.036,0.273,-5.337
0.216,0.033,0.271,-5.337
0.199,0.036,0.272,-5.337
0.159,0.038,0.272,-5.337
0.159,0.039,0.272,-5.337
0.180,0.033,0.272,-5.337
0.217,0.035,0.274,-5.337
0.208,0.037,0.278,-5.337
0.211,0.034,0.275,-5.337
0.217,0.030,0.268,-5.337
0.230,0.034,0.267,-5.337
0.147,0.035,0.271,-5.337
0.096,0.038,0.273,-5.337
0.114,0.036,0.276,-5.337
0.198,0.031,0.276,-5.337
0.258,0.031,0.277,-5.337
0.204,0.034,0.276,-5.337
0.169,0.038,0.278,-5.337
0.214,0.035,0.281,-5.337
0.204,0.035,0.277,-5.337
0.191,0.035,0.270,-5.337
0.214,0.040,0.271,-5.337
0.210,0.042,0.274,-5.337
0.215,0.039,0.274,-5.337
0.211,0.037,0.275,-5.337
0.192,0.035,0.273,-5.337
0.160,0.039,0.273,-5.337
0.135,0.043,0.271,-5.337
0.173,0.042,0.270,-5.337
0.206,0.039,0.272,-5.337
0.227,0.041,0.275,-5.337
0.199,0.042,0.274,-5.337
0.197,0.042,0.275,-5.337
0.128,0.043,0.274,-5.337
0.151,0.037,0.272,-5.337
0.239,0.036,0.272,-5.337
0.237,0.038,0.272,-5.337
0.205,0.037,0.271,-5.337
0.152,0.044,0.272,-5.337
0.053,0.045,0.275,-5.337
0.115,0.043,0.278,-5.337
0.242,0.042,0.275,-5.337
0.229,0.047,0.274,-5.337
0.127,0.048,0.273,-5.337
0.129,0.046,0.272,-5.337
0.192,0.043,0.271,-5.337
0.188,0.044,0.272,-5.337
0.161,0.047,0.271,-5.337
0.146,0.044,0.269,-5.337
0.159,0.039,0.273,-5.337
0.229,0.038,0.275,-5.337
0.218,0.038,0.278,-5.337
0.194,0.038,0.277,-5.337
0.116,0.042,0.275,-5.337
0.146,0.038,0.272,-5.337
0.192,0.039,0.272,-5.337
0.204,0.042,0.271,-5.337
0.236,0.037,0.273,-5.337
0.207,0.037,0.275,-5.337
0.217,0.039,0.277,-5.337
0.132,0.041,0.270,-5.337
0.113,0.039,0.269,-5.337
0.145,0.037,0.274,-5.337
0.113,0.038,0.278,-5.337
0.178,0.036,0.276,-5.337
0.202,0.037,0.271,-5.337
0.160,0.038,0.269,-5.337
0.119,0.043,0.270,-5.337
0.110,0.046,0.269,-5.337
0.136,0.046,0.272,-5.337
0.146,0.047,0.276,-5.337
0.112,0.050,0.276,-5.337
0.112,0.052,0.273,-5.337
0.120,0.050,0.276,-5.337
0.209,0.046,0.280,-5.337
0.219,0.048,0.282,-5.337
0.129,0.050,0.281,-5.337
0.096,0.049,0.278,-5.337
0.122,0.047,0.274,-5.337
0.135,0.045,0.269,-5.337
0.142,0.044,0.269,-5.337
0.203,0.047,0.268,-5.337
0.152,0.048,0.270,-5.337
0.050,0.047,0.272,-5.337
0.068,0.048,0.277,-5.337
0.161,0.047,0.284,-5.337
0.238,0.046,0.283,-5.337
0.201,0.046,0.277,-5.337
0.151,0.047,0.273,-5.337
0.107,0.047,0.273,-5.337
0.091,0.048,0.268,-5.337
0.128,0.047,0.267,-5.337
0.169,0.048,0.269,-5.337
0.192,0.048,0.273,-5.337
0.221,0.050,0.277,-5.337
0.187,0.051,0.281,-5.337
0.103,0.050,0.281,-5.337
0.145,0.045,0.277,-5.337
0.135,0.046,0.272,-5.337
0.111,0.050,0.270,-5.337
0.132,0.048,0.270,-5.337
0.149,0.046,0.271,-5.337
0.150,0.047,0.270,-5.337
0.147,0.047,0.271,-5.337
0.154,0.048,0.275,-5.337
0.158,0.048,0.278,-5.337
0.113,0.048,0.276,-5.337
0.123,0.047,0.273,-5.337
0.165,0.046,0.271,-5.337
0.205,0.044,0.273,-5.337
0.195,0.044,0.274,-5.337
0.184,0.049,0.276,-5.337
0.180,0.050,0.276,-5.337
0.120,0.051,0.273,-5.337
0.094,0.050,0.272,-5.337
0.122,0.047,0.271,-5.337
0.178,0.044,0.273,-5.337
0.221,0.046,0.271,-5.337
0.261,0.046,0.268,-5.337
0.224,0.050,0.269,-5.337
0.217,0.051,0.276,-5.337
0.227,0.050,0.277,-5.337
0.227,0.051,0.277,-5.337
0.153,0.050,0.276,-5.337
0.143,0.048,0.276,-5.337
0.181,0.047,0.274,-5.337
0.208,0.048,0.274,-5.337
0.226,0.046,0.275,-5.337
0.167,0.051,0.280,-5.337
0.097,0.052,0.276,-5.337
0.068,0.051,0.269,-5.337
0.067,0.049,0.265,-5.337
0.116,0.050,0.267,-5.337
0.161,0.051,0.269,-5.337
0.166,0.051,0.272,-5.337
0.124,0.048,0.274,-5.337
0.125,0.051,0.276,-5.337
0.197,0.049,0.275,-5.337
0.164,0.049,0.277,-5.337
0.086,0.049,0.278,-5.337
0.068,0.049,0.280,-5.337
0.127,0.046,0.281,-5.337
0.198,0.045,0.276,-5.337
0.188,0.049,0.272,-5.337
0.148,0.050,0.269,-5.337
0.109,0.052,0.272,-5.337
0.131,0.048,0.272,-5.337
0.198,0.044,0.273,-5.337
0.175,0.044,0.274,-5.337
0.189,0.046,0.277,-5.337
0.233,0.048,0.277,-5.337
0.164,0.049,0.278,-5.337
0.124,0.046,0.280,-5.337
0.124,0.048,0.277,-5.337
0.182,0.047,0.272,-5.337
0.195,0.046,0.272,-5.337
0.131,0.051,0.276,-5.337
0.103,0.053,0.276,-5.337
0.169,0.050,0.276,-5.337
0.170,0.052,0.272,-5.337
0.039,0.057,0.271,-5.337
0.021,0.055,0.273,-5.337
0.117,0.051,0.276,-5.337
0.178,0.050,0.279,-5.337
0.228,0.049,0.280,-5.337
0.206,0.049,0.277,-5.337
0.096,0.052,0.273,-5.337
0.156,0.054,0.267,-5.337
0.185,0.056,0.269,-5.337
0.138,0.052,0.275,-5.337
0.119,0.056,0.277,-5.337
0.168,0.055,0.277,-5.337
0.209,0.054,0.277,-5.337
0.226,0.049,0.277,-5.337
0.192,0.049,0.275,-5.337
0.151,0.051,0.274,-5.337
0.156,0.054,0.271,-5.337
0.181,0.052,0.269,-5.337
0.111,0.053,0.272,-5.337
0.114,0.053,0.277,-5.337
0.158,0.052,0.280,-5.337
0.189,0.050,0.279,-5.337
0.178,0.051,0.276,-5.337
0.180,0.056,0.274,-5.337
0.144,0.055,0.271,-5.337
0.163,0.053,0.269,-5.337
0.119,0.057,0.271,-5.337
0.158,0.056,0.272,-5.337
0.207,0.052,0.269,-5.337
0.151,0.049,0.272,-5.337
0.124,0.048,0.276,-5.337
0.129,0.050,0.280,-5.337
0.151,0.050,0.280,-5.337
0.221,0.056,0.279,-5.337
0.215,0.053,0.276,-5.337
0.184,0.049,0.272,-5.337
0.257,0.050,0.272,-5.337
0.229,0.061,0.275,-5.337
0.139,0.062,0.272,-5.337
0.094,0.057,0.273,-5.337
0.026,0.056,0.275,-5.337
0.077,0.053,0.279,-5.337
0.189,0.052,0.282,-5.337
0.205,0.053,0.280,-5.337
0.214,0.055,0.280,-5.337
0.160,0.055,0.282,-5.337
0.157,0.053,0.280,-5.337
0.137,0.054,0.274,-5.337
0.147,0.053,0.271,-5.337
0.164,0.052,0.268,-5.337
0.165,0.054,0.273,-5.337
0.095,0.056,0.273,-5.337
0.030,0.055,0.274,-5.337
0.074,0.054,0.276,-5.337
0.118,0.059,0.276,-5.337
0.142,0.058,0.278,-5.337
0.116,0.059,0.279,-5.337
0.092,0.053,0.276,-5.337
0.162,0.047,0.273,-5.337
0.155,0.047,0.269,-5.337
0.109,0.047,0.270,-5.337
0.080,0.052,0.271,-5.337
0.087,0.054,0.275,-5.337
0.141,0.047,0.277,-5.337
0.183,0.043,0.273,-5.337
0.157,0.045,0.272,-5.337
0.136,0.044,0.273,-5.337
0.139,0.043,0.275,-5.337
0.184,0.043,0.272,-5.337
0.193,0.046,0.272,-5.337
0.164,0.044,0.273,-5.337
0.135,0.044,0.278,-5.337
0.145,0.045,0.278,-5.337
0.160,0.046,0.273,-5.337
0.193,0.045,0.270,-5.337
0.167,0.049,0.274,-5.337
0.195,0.048,0.280,-5.337
0.184,0.049,0.281,-5.337
0.151,0.050,0.277,-5.337
0.247,0.046,0.273,-5.337
0.234,0.048,0.271,-5.337
0.185,0.051,0.270,-5.337
0.140,0.054,0.270,-5.337
0.148,0.052,0.273,-5.337
0.148,0.051,0.279,-5.337
0.170,0.048,0.280,-5.337
0.213,0.043,0.280,-5.337
0.195,0.042,0.275,-5.337
0.150,0.047,0.273,-5.337
0.134,0.049,0.272,-5.337
0.064,0.052,0.273,-5.337
0.038,0.050,0.273,-5.337
0.077,0.048,0.278,-5.337
0.122,0.045,0.278,-5.337
0.150,0.045,0.276,-5.337
0.114,0.042,0.272,-5.337
0.048,0.043,0.274,-5.337
0.041,0.047,0.277,-5.337
0.158,0.044,0.275,-5.337
0.224,0.042,0.271,-5.337
0.207,0.042,0.273,-5.337
0.234,0.039,0.275,-5.337
0.288,0.038,0.274,-5.337
0.228,0.040,0.274,-5.337
0.164,0.041,0.272,-5.337
0.121,0.042,0.271,-5.337
0.170,0.040,0.274,-5.337
0.208,0.038,0.279,-5.337
0.152,0.040,0.277,-5.337
0.135,0.041,0.273,-5.337
0.108,0.044,0.271,-5.337
0.109,0.045,0.273,-5.337
0.154,0.044,0.278,-5.337
0.205,0.045,0.279,-5.337
0.196,0.044,0.276,-5.337
0.224,0.042,0.274,-5.337
0.286,0.039,0.273,-5.337
0.266,0.041,0.273,-5.337
0.186,0.042,0.273,-5.337
0.151,0.042,0.272,-5.337
0.129,0.039,0.272,-5.337
0.131,0.043,0.270,-5.337
0.160,0.043,0.270,-5.337
0.243,0.038,0.272,-5.337
0.256,0.038,0.276,-5.337
0.196,0.041,0.275,-5.337
0.229,0.040,0.276,-5.337
0.154,0.041,0.275,-5.337
0.121,0.036,0.274,-5.337
0.181,0.034,0.273,-5.337
0.098,0.037,0.275,-5.337
0.068,0.035,0.274,-5.337
0.167,0.035,0.274,-5.337
0.191,0.039,0.271,-5.337
0.127,0.038,0.276,-5.337
0.161,0.035,0.280,-5.337
0.165,0.038,0.278,-5.337
0.185,0.037,0.273,-5.337
0.242,0.036,0.270,-5.337
0.253,0.036,0.271,-5.337
0.218,0.038,0.274,-5.337
0.201,0.040,0.277,-5.337
0.251,0.036,0.278,-5.337
0.263,0.032,0.276,-5.337
0.220,0.035,0.277,-5.337
0.155,0.032,0.277,-5.337
0.127,0.034,0.276,-5.337
0.159,0.034,0.277,-5.337
0.213,0.033,0.274,-5.337
0.167,0.034,0.272,-5.337
0.081,0.038,0.272,-5.337
0.111,0.035,0.275,-5.337
0.173,0.032,0.277,-5.337
0.234,0.033,0.277,-5.337
0.219,0.031,0.274,-5.337
0.212,0.032,0.274,-5.337
0.170,0.035,0.271,-5.337
0.110,0.038,0.269,-5.337
0.111,0.036,0.270,-5.337
0.145,0.035,0.278,-5.337
0.181,0.032,0.277,-5.337
0.229,0.034,0.271,-5.337
0.207,0.032,0.267,-5.337
0.190,0.032,0.269,-5.337
0.234,0.032,0.276,-5.337
0.194,0.035,0.281,-5.337
0.187,0.034,0.278,-5.337
0.195,0.032,0.272,-5.337
0.195,0.032,0.269,-5.337
0.247,0.035,0.271,-5.337
0.216,0.034,0.274,-5.337
0.230,0.035,0.276,-5.337
0.220,0.035,0.273,-5.337
0.150,0.037,0.269,-5.337
0.132,0.037,0.271,-5.337
0.161,0.036,0.274,-5.337
0.163,0.037,0.279,-5.337
0.176,0.035,0.277,-5.337
0.243,0.032,0.277,-5.337
0.261,0.033,0.274,-5.337
0.173,0.036,0.276,-5.337
0.225,0.035,0.274,-5.337
0.270,0.034,0.273,-5.337
0.219,0.032,0.270,-5.337
0.178,0.033,0.271,-5.337
0.170,0.031,0.275,-5.337
0.121,0.037,0.278,-5.337
0.095,0.037,0.275,-5.337
0.107,0.038,0.270,-5.337
0.135,0.037,0.272,-5.337
0.119,0.038,0.277,-5.337
0.165,0.034,0.276,-5.337
0.217,0.031,0.274,-5.337
0.201,0.032,0.274,-5.337
0.171,0.034,0.275,-5.337
0.169,0.035,0.279,-5.337
0.223,0.035,0.275,-5.337
0.225,0.034,0.270,-5.337
0.197,0.030,0.269,-5.337
0.198,0.030,0.273,-5.337
0.197,0.033,0.275,-5.337
0.207,0.034,0.276,-5.337
0.186,0.031,0.274,-5.337
0.209,0.031,0.274,-5.337
0.227,0.033,0.275,-5.337
0.190,0.037,0.275,-5.337
0.244,0.030,0.277,-5.337
0.253,0.030,0.279,-5.337
0.204,0.030,0.277,-5.337
0.189,0.036,0.273,-5.337
0.167,0.035,0.267,-5.337
0.230,0.034,0.267,-5.337
0.313,0.036,0.271,-5.337
0.222,0.039,0.271,-5.337
0.150,0.038,0.272,-5.337
0.189,0.040,0.274,-5.337
0.170,0.042,0.277,-5.337
0.260,0.042,0.275,-5.337
0.321,0.039,0.273,-5.337
0.280,0.033,0.272,-5.337
0.210,0.033,0.278,-5.337
0.229,0.034,0.276,-5.337
0.209,0.037,0.274,-5.337
0.161,0.038,0.276,-5.337
0.195,0.038,0.277,-5.337
0.211,0.036,0.278,-5.337
0.128,0.037,0.278,-5.337
0.136,0.037,0.275,-5.337
0.145,0.039,0.274,-5.337
0.176,0.037,0.273,-5.337
0.225,0.039,0.271,-5.337
0.190,0.042,0.274,-5.337
0.055,0.041,0.276,-5.337
0.018,0.038,0.278,-5.337
0.172,0.034,0.278,-5.337
0.296,0.034,0.274,-5.337
0.265,0.034,0.269,-5.337
0.166,0.036,0.270,-5.337
0.127,0.035,0.274,-5.337
0.227,0.031,0.275,-5.337
0.298,0.032,0.270,-5.337
0.236,0.035,0.266,-5.337
0.109,0.039,0.270,-5.337
0.059,0.040,0.274,-5.337
0.129,0.033,0.274,-5.337
0.225,0.033,0.275,-5.337
0.192,0.031,0.275,-5.337
0.146,0.031,0.274,-5.337
0.151,0.032,0.274,-5.337
0.205,0.034,0.275,-5.337
0.161,0.031,0.277,-5.337
0.167,0.031,0.275,-5.337
0.246,0.032,0.270,-5.337
0.284,0.031,0.274,-5.337
0.199,0.035,0.276,-5.337
0.145,0.039,0.278,-5.337
0.162,0.038,0.276,-5.337
0.225,0.033,0.273,-5.337
0.255,0.031,0.274,-5.337
0.233,0.034,0.275,-5.337
0.188,0.037,0.276,-5.337
0.208,0.036,0.278,-5.337
0.242,0.032,0.279,-5.337
0.271,0.034,0.274,-5.337
0.273,0.034,0.271,-5.337
0.226,0.033,0.268,-5.337
0.238,0.032,0.267,-5.337
0.248,0.034,0.269,-5.337
0.182,0.036,0.274,-5.337
0.198,0.032,0.279,-5.337
0.222,0.033,0.279,-5.337
0.174,0.037,0.275,-5.337
0.160,0.040,0.272,-5.337
0.154,0.040,0.272,-5.337
0.198,0.037,0.272,-5.337
0.247,0.036,0.269,-5.337
0.234,0.038,0.269,-5.337
0.159,0.038,0.274,-5.337
0.116,0.037,0.277,-5.337
0.139,0.033,0.279,-5.337
0.203,0.035,0.277,-5.337
0.187,0.039,0.277,-5.337
0.128,0.037,0.275,-5.337
0.133,0.033,0.276,-5.337
0.149,0.031,0.277,-5.337
0.144,0.033,0.280,-5.337
0.132,0.037,0.278,-5.337
0.106,0.041,0.277,-5.337
0.106,0.041,0.276,-5.337
0.224,0.037,0.275,-5.337
0.334,0.035,0.273,-5.337
0.285,0.039,0.274,-5.337
0.215,0.040,0.274,-5.337
0.188,0.036,0.271,-5.337
0.143,0.042,0.272,-5.337
0.137,0.044,0.275,-5.337
0.141,0.042,0.274,-5.337
0.184,0.039,0.273,-5.337
0.182,0.039,0.273,-5.337
0.191,0.038,0.271,-5.337
0.223,0.040,0.273,-5.337
0.210,0.041,0.276,-5.337
0.159,0.039,0.274,-5.337
0.184,0.040,0.272,-5.337
0.200,0.040,0.273,-5.337
0.226,0.037,0.274,-5.337
0.257,0.037,0.275,-5.337
0.194,0.035,0.277,-5.337
0.192,0.035,0.279,-5.337
0.184,0.034,0.279,-5.337
0.177,0.034,0.277,-5.337
0.168,0.030,0.271,-5.337
0.226,0.031,0.272,-5.337
0.142,0.039,0.273,-5.337
0.112,0.036,0.273,-5.337
0.154,0.034,0.273,-5.337
0.224,0.034,0.272,-5.337
0.222,0.030,0.272,-5.337
0.192,0.033,0.272,-5.337
0.136,0.041,0.270,-5.337
0.144,0.038,0.271,-5.337
0.188,0.035,0.272,-5.337
0.183,0.033,0.273,-5.337
0.208,0.036,0.273,-5.337
0.256,0.038,0.274,-5.337
0.292,0.037,0.275,-5.337
0.272,0.040,0.273,-5.337
0.228,0.043,0.273,-5.337
0.155,0.043,0.272,-5.337
0.139,0.042,0.274,-5.337
0.126,0.044,0.272,-5.337
0.124,0.044,0.273,-5.337
0.105,0.041,0.274,-5.337
0.097,0.042,0.278,-5.337
0.146,0.041,0.281,-5.337
0.199,0.040,0.279,-5.337
0.188,0.039,0.275,-5.337
0.113,0.044,0.273,-5.337
0.121,0.044,0.273,-5.337
0.105,0.048,0.274,-5.337
0.032,0.051,0.272,-5.337
0.073,0.048,0.270,-5.337
0.230,0.041,0.273,-5.337
0.297,0.038,0.272,-5.337
0.220,0.045,0.271,-5.337
0.122,0.049,0.274,-5.337
0.061,0.044,0.279,-5.337
0.122,0.043,0.278,-5.337
0.182,0.043,0.278,-5.337
0.217,0.042,0.277,-5.337
0.224,0.042,0.275,-5.337
0.195,0.046,0.273,-5.337
0.175,0.047,0.274,-5.337
0.212,0.040,0.275,-5.337
0.214,0.040,0.274,-5.337
0.172,0.039,0.275,-5.337
0.199,0.041,0.276,-5.337
0.165,0.039,0.272,-5.337
0.204,0.037,0.269,-5.337
0.204,0.041,0.271,-5.337
0.217,0.039,0.276,-5.337
0.279,0.037,0.274,-5.337
0.295,0.041,0.270,-5.337
0.253,0.041,0.270,-5.337
0.244,0.044,0.271,-5.337
0.232,0.045,0.272,-5.337
0.210,0.043,0.276,-5.337
0.177,0.039,0.280,-5.337
0.153,0.042,0.278,-5.337
0.158,0.047,0.276,-5.337
0.151,0.049,0.274,-5.337
0.132,0.045,0.273,-5.337
0.206,0.041,0.274,-5.337
0.232,0.041,0.275,-5.337
0.212,0.042,0.275,-5.337
0.130,0.047,0.274,-5.337
0.128,0.044,0.270,-5.337
0.234,0.043,0.269,-5.337
0.243,0.042,0.274,-5.337
0.167,0.046,0.275,-5.337
0.139,0.050,0.270,-5.337
0.158,0.046,0.269,-5.337
0.143,0.046,0.275,-5.337
0.151,0.047,0.277,-5.337
0.147,0.051,0.274,-5.337
0.229,0.050,0.272,-5.337
0.280,0.045,0.271,-5.337
0.232,0.045,0.269,-5.337
0.181,0.044,0.271,-5.337
0.213,0.045,0.271,-5.337
0.261,0.045,0.271,-5.337
0.260,0.044,0.270,-5.337
0.192,0.045,0.275,-5.337
0.197,0.043,0.278,-5.337
0.167,0.046,0.280,-5.337
0.112,0.046,0.278,-5.337
0.146,0.046,0.274,-5.337
0.125,0.044,0.271,-5.337
0.120,0.044,0.270,-5.337
0.159,0.043,0.267,-5.337
0.197,0.044,0.269,-5.337
0.202,0.044,0.270,-5.337
0.176,0.045,0.270,-5.337
0.196,0.041,0.273,-5.337
0.202,0.045,0.276,-5.337
0.208,0.045,0.273,-5.337
0.248,0.043,0.268,-5.337
0.204,0.046,0.269,-5.337
0.106,0.051,0.271,-5.337
0.141,0.048,0.273,-5.337
0.165,0.044,0.276,-5.337
0.158,0.045,0.274,-5.337
0.131,0.045,0.269,-5.337
0.155,0.042,0.274,-5.337
0.157,0.041,0.279,-5.337
0.195,0.042,0.278,-5.337
0.212,0.046,0.270,-5.337
0.185,0.048,0.269,-5.337
0.187,0.048,0.271,-5.337
0.175,0.050,0.273,-5.337
0.109,0.048,0.275,-5.337
0.084,0.046,0.275,-5.337
0.193,0.045,0.274,-5.337
0.224,0.051,0.273,-5.337
0.236,0.050,0.271,-5.337
0.175,0.050,0.269,-5.337
0.182,0.047,0.272,-5.337
0.218,0.046,0.273,-5.337
0.158,0.051,0.271,-5.337
0.133,0.053,0.268,-5.337
0.176,0.056,0.271,-5.337
0.142,0.056,0.273,-5.337
0.106,0.054,0.275,-5.337
0.165,0.051,0.276,-5.337
0.216,0.048,0.280,-5.337
0.172,0.050,0.279,-5.337
0.070,0.053,0.277,-5.337
0.038,0.055,0.274,-5.337
0.086,0.054,0.277,-5.337
0.124,0.051,0.277,-5.337
0.142,0.051,0.272,-5.337
0.170,0.051,0.270,-5.337
0.144,0.052,0.270,-5.337
0.108,0.048,0.270,-5.337
0.129,0.048,0.271,-5.337
0.171,0.047,0.269,-5.337
0.192,0.048,0.271,-5.337
0.166,0.048,0.272,-5.337
0.064,0.051,0.271,-5.337
0.057,0.055,0.275,-5.337
0.118,0.056,0.281,-5.337
0.113,0.056,0.282,-5.337
0.148,0.052,0.275,-5.337
0.204,0.052,0.268,-5.337
0.221,0.053,0.265,-5.337
0.204,0.053,0.270,-5.337
0.172,0.052,0.274,-5.337
0.161,0.055,0.276,-5.337
0.164,0.055,0.276,-5.337
0.134,0.054,0.274,-5.337
0.122,0.054,0.273,-5.337
0.169,0.054,0.272,-5.337
0.170,0.057,0.270,-5.337
0.134,0.058,0.270,-5.337
0.110,0.055,0.268,-5.337
0.126,0.054,0.268,-5.337
0.099,0.055,0.272,-5.337
0.162,0.053,0.274,-5.337
0.197,0.050,0.274,-5.337
0.149,0.051,0.272,-5.337
0.073,0.049,0.271,-5.337
0.130,0.048,0.272,-5.337
0.205,0.049,0.277,-5.337
0.205,0.051,0.277,-5.337
0.168,0.053,0.274,-5.337
0.109,0.055,0.271,-5.337
0.059,0.053,0.272,-5.337
0.103,0.051,0.271,-5.337
0.165,0.049,0.271,-5.337
0.146,0.050,0.272,-5.337
0.109,0.054,0.274,-5.337
0.163,0.054,0.274,-5.337
0.180,0.054,0.274,-5.337
0.179,0.052,0.273,-5.337
0.185,0.051,0.274,-5.337
0.217,0.051,0.273,-5.337
0.205,0.053,0.272,-5.337
0.204,0.052,0.268,-5.337
0.226,0.051,0.269,-5.337
0.259,0.051,0.275,-5.337
0.147,0.059,0.273,-5.337
0.069,0.063,0.271,-5.337
0.079,0.059,0.273,-5.337
0.180,0.054,0.279,-5.337
0.176,0.059,0.278,-5.337
0.111,0.061,0.275,-5.337
0.128,0.054,0.272,-5.337
0.212,0.055,0.272,-5.337
0.255,0.058,0.270,-5.337
0.184,0.062,0.271,-5.337
0.121,0.059,0.274,-5.337
0.156,0.055,0.278,-5.337
0.184,0.056,0.274,-5.337
0.230,0.055,0.271,-5.337
0.190,0.056,0.271,-5.337
0.175,0.059,0.272,-5.337
0.192,0.056,0.272,-5.337
0.125,0.056,0.274,-5.337
0.075,0.058,0.273,-5.337
0.119,0.057,0.272,-5.337
0.095,0.054,0.274,-5.337
0.117,0.054,0.273,-5.337
0.149,0.054,0.275,-5.337
0.138,0.056,0.275,-5.337
0.083,0.057,0.272,-5.337
0.090,0.057,0.271,-5.337
0.151,0.054,0.274,-5.337
0.144,0.051,0.272,-5.337
0.159,0.054,0.269,-5.337
0.099,0.054,0.271,-5.337
0.056,0.055,0.275,-5.337
0.079,0.053,0.275,-5.337
0.130,0.054,0.275,-5.337
0.202,0.054,0.278,-5.337
0.193,0.057,0.277,-5.337
0.204,0.054,0.271,-5.337
0.242,0.051,0.271,-5.337
0.241,0.051,0.273,-5.337
0.207,0.055,0.273,-5.337
0.183,0.054,0.276,-5.337
0.170,0.053,0.277,-5.337
0.199,0.052,0.273,-5.337
0.161,0.060,0.267,-5.337
0.124,0.061,0.265,-5.337
0.150,0.059,0.267,-5.337
0.201,0.057,0.270,-5.337
0.208,0.057,0.274,-5.337
0.153,0.059,0.278,-5.337
0.092,0.059,0.274,-5.337
0.151,0.055,0.271,-5.337
0.200,0.053,0.270,-5.337
0.238,0.052,0.274,-5.337
0.191,0.053,0.276,-5.337
0.131,0.056,0.275,-5.337
0.130,0.055,0.269,-5.337
0.080,0.058,0.274,-5.337
0.099,0.057,0.275,-5.337
0.094,0.056,0.274,-5.337
0.133,0.054,0.273,-5.337
0.171,0.055,0.273,-5.337
0.190,0.053,0.276,-5.337
0.193,0.053,0.280,-5.337
0.201,0.049,0.277,-5.337
0.199,0.054,0.276,-5.337
0.134,0.056,0.276,-5.337
0.142,0.057,0.273,-5.337
0.172,0.055,0.271,-5.337
0.109,0.055,0.272,-5.337
0.120,0.051,0.277,-5.337
0.147,0.052,0.276,-5.337
0.097,0.054,0.271,-5.337
0.128,0.055,0.268,-5.337
0.243,0.051,0.272,-5.337
0.276,0.052,0.275,-5.337
0.172,0.055,0.276,-5.337
0.180,0.054,0.271,-5.337
0.249,0.051,0.269,-5.337
0.255,0.050,0.270,-5.337
0.165,0.054,0.274,-5.337
0.177,0.052,0.275,-5.337
0.173,0.050,0.272,-5.337
0.149,0.048,0.270,-5.337
0.155,0.049,0.275,-5.337
0.196,0.045,0.282,-5.337
0.206,0.047,0.284,-5.337
0.179,0.049,0.281,-5.337
0.213,0.047,0.279,-5.337
0.167,0.049,0.278,-5.337
0.071,0.055,0.279,-5.337
0.077,0.055,0.279,-5.337
0.091,0.055,0.273,-5.337
0.142,0.050,0.271,-5.337
0.160,0.050,0.271,-5.337
0.138,0.052,0.269,-5.337
0.191,0.048,0.267,-5.337
0.174,0.047,0.267,-5.337
0.142,0.048,0.266,-5.337
0.111,0.051,0.273,-5.337
0.151,0.049,0.275,-5.337
0.174,0.054,0.272,-5.337
0.096,0.055,0.271,-5.337
0.049,0.055,0.275,-5.337
0.114,0.050,0.274,-5.337
0.135,0.043,0.272,-5.337
0.169,0.042,0.269,-5.337
0.199,0.047,0.270,-5.337
0.265,0.051,0.276,-5.337
0.316,0.052,0.280,-5.337
0.248,0.050,0.277,-5.337
0.192,0.050,0.274,-5.337
0.188,0.051,0.273,-5.337
0.184,0.051,0.271,-5.337
0.147,0.050,0.273,-5.337
0.070,0.052,0.273,-5.337
0.031,0.053,0.273,-5.337
0.058,0.047,0.274,-5.337
0.167,0.046,0.275,-5.337
0.203,0.044,0.274,-5.337
0.211,0.048,0.275,-5.337
0.249,0.046,0.274,-5.337
0.238,0.047,0.273,-5.337
0.217,0.047,0.274,-5.337
0.268,0.047,0.275,-5.337
0.297,0.045,0.275,-5.337
0.207,0.050,0.273,-5.337
0.121,0.052,0.270,-5.337
0.115,0.053,0.270,-5.337
0.125,0.051,0.268,-5.337
0.127,0.047,0.269,-5.337
0.199,0.046,0.271,-5.337
0.272,0.043,0.273,-5.337
0.227,0.040,0.279,-5.337
0.189,0.044,0.283,-5.337
0.078,0.047,0.282,-5.337
0.128,0.044,0.278,-5.337
0.219,0.043,0.275,-5.337
0.165,0.043,0.270,-5.337
0.159,0.044,0.270,-5.337
0.241,0.045,0.275,-5.337
0.214,0.043,0.280,-5.337
0.140,0.044,0.276,-5.337
0.098,0.047,0.270,-5.337
0.101,0.047,0.272,-5.337
0.166,0.047,0.277,-5.337
0.217,0.048,0.276,-5.337
0.168,0.049,0.275,-5.337
0.108,0.049,0.276,-5.337
0.123,0.048,0.277,-5.337
0.152,0.050,0.277,-5.337
0.194,0.050,0.276,-5.337
0.145,0.046,0.274,-5.337
0.095,0.045,0.274,-5.337
0.136,0.043,0.275,-5.337
0.169,0.042,0.274,-5.337
0.146,0.042,0.277,-5.337
0.177,0.042,0.274,-5.337
0.185,0.042,0.272,-5.337
0.143,0.043,0.269,-5.337
0.162,0.042,0.268,-5.337
0.248,0.041,0.267,-5.337
0.276,0.043,0.271,-5.337
0.207,0.042,0.275,-5.337
0.239,0.042,0.273,-5.337
0.300,0.043,0.270,-5.337
0.270,0.046,0.271,-5.337
0.171,0.046,0.276,-5.337
0.210,0.045,0.278,-5.337
0.239,0.044,0.278,-5.337
0.178,0.044,0.278,-5.337
0.114,0.046,0.275,-5.337
0.089,0.046,0.272,-5.337
0.121,0.044,0.269,-5.337
0.190,0.041,0.270,-5.337
0.255,0.042,0.274,-5.337
0.285,0.045,0.277,-5.337
0.219,0.045,0.278,-5.337
0.178,0.045,0.277,-5.337
0.141,0.047,0.274,-5.337
0.162,0.045,0.271,-5.337
0.225,0.042,0.274,-5.337
0.244,0.038,0.273,-5.337
0.234,0.040,0.272,-5.337
0.212,0.044,0.271,-5.337
0.234,0.042,0.270,-5.337
0.180,0.044,0.273,-5.337
0.166,0.045,0.274,-5.337
0.186,0.043,0.269,-5.337
0.247,0.042,0.266,-5.337
0.240,0.043,0.271,-5.337
0.174,0.043,0.274,-5.337
0.171,0.040,0.274,-5.337
0.242,0.038,0.275,-5.337
0.248,0.041,0.274,-5.337
0.227,0.039,0.272,-5.337
0.209,0.039,0.269,-5.337
0.153,0.040,0.267,-5.337
0.156,0.043,0.270,-5.337
0.209,0.043,0.271,-5.337
0.212,0.041,0.272,-5.337
0.265,0.042,0.270,-5.337
0.281,0.047,0.271,-5.337
0.281,0.047,0.272,-5.337
0.214,0.045,0.275,-5.337
0.147,0.046,0.277,-5.337
0.131,0.044,0.277,-5.337
0.177,0.044,0.274,-5.337
0.197,0.046,0.274,-5.337
0.135,0.048,0.274,-5.337
0.121,0.045,0.275,-5.337
0.147,0.043,0.274,-5.337
0.147,0.042,0.276,-5.337
0.152,0.038,0.274,-5.337
0.138,0.041,0.272,-5.337
0.165,0.041,0.270,-5.337
0.174,0.047,0.272,-5.337
0.206,0.047,0.278,-5.337
0.190,0.047,0.278,-5.337
0.222,0.045,0.271,-5.337
0.278,0.040,0.266,-5.337
0.232,0.038,0.273,-5.337
0.185,0.042,0.281,-5.337
0.215,0.041,0.279,-5.337
0.245,0.043,0.273,-5.337
0.262,0.043,0.273,-5.337
0.275,0.040,0.272,-5.337
0.247,0.042,0.271,-5.337
0.222,0.044,0.267,-5.337
0.214,0.043,0.266,-5.337
0.245,0.042,0.266,-5.337
0.237,0.044,0.269,-5.337
0.175,0.044,0.275,-5.337
0.128,0.042,0.276,-5.337
0.132,0.039,0.271,-5.337
0.167,0.039,0.271,-5.337
0.159,0.042,0.274,-5.337
0.187,0.040,0.278,-5.337
0.240,0.039,0.279,-5.337
0.227,0.040,0.276,-5.337
0.282,0.036,0.274,-5.337
0.267,0.034,0.270,-5.337
0.153,0.036,0.270,-5.337
0.128,0.038,0.275,-5.337
0.156,0.039,0.278,-5.337
0.170,0.039,0.274,-5.337
0.226,0.037,0.271,-5.337
0.256,0.036,0.269,-5.337
0.144,0.042,0.271,-5.337
0.154,0.040,0.271,-5.337
0.146,0.036,0.272,-5.337
0.163,0.036,0.271,-5.337
0.215,0.035,0.272,-5.337
0.310,0.027,0.272,-5.337
0.324,0.031,0.270,-5.337
0.233,0.032,0.268,-5.337
0.173,0.034,0.271,-5.337
0.167,0.037,0.273,-5.337
0.160,0.037,0.272,-5.337
0.194,0.038,0.269,-5.337
0.194,0.038,0.271,-5.337
0.183,0.035,0.275,-5.337
0.135,0.037,0.278,-5.337
0.088,0.039,0.278,-5.337
0.188,0.037,0.274,-5.337
0.230,0.037,0.271,-5.337
0.212,0.040,0.270,-5.337
0.260,0.042,0.274,-5.337
0.241,0.041,0.275,-5.337
0.152,0.040,0.278,-5.337
0.102,0.039,0.279,-5.337
0.098,0.040,0.275,-5.337
0.082,0.038,0.271,-5.337
0.123,0.039,0.269,-5.337
0.214,0.037,0.271,-5.337
0.197,0.040,0.276,-5.337
0.151,0.041,0.275,-5.337
0.232,0.039,0.272,-5.337
0.265,0.037,0.269,-5.337
0.205,0.038,0.271,-5.337
0.119,0.040,0.270,-5.337
0.187,0.036,0.270,-5.337
0.270,0.039,0.273,-5.337
0.191,0.039,0.271,-5.337
0.207,0.035,0.272,-5.337
0.257,0.033,0.272,-5.337
0.313,0.032,0.275,-5.337
0.289,0.036,0.274,-5.337
0.166,0.040,0.273,-5.337
0.083,0.037,0.274,-5.337
0.125,0.038,0.278,-5.337
0.178,0.036,0.278,-5.337
0.177,0.039,0.276,-5.337
0.157,0.040,0.276,-5.337
0.113,0.042,0.274,-5.337
0.099,0.037,0.271,-5.337
0.209,0.032,0.271,-5.337
0.239,0.033,0.269,-5.337
0.241,0.036,0.269,-5.337
0.235,0.038,0.269,-5.337
0.245,0.038,0.271,-5.337
0.229,0.037,0.271,-5.337
0.227,0.035,0.273,-5.337
0.291,0.035,0.273,-5.337
0.258,0.034,0.276,-5.337
0.220,0.035,0.277,-5.337
0.231,0.037,0.276,-5.337
0.320,0.036,0.275,-5.337
0.409,0.033,0.273,-5.337
0.332,0.035,0.275,-5.337
0.187,0.034,0.272,-5.337
0.154,0.035,0.269,-5.337
0.164,0.033,0.269,-5.337
0.241,0.033,0.273,-5.337
0.219,0.033,0.276,-5.337
0.250,0.031,0.277,-5.337
0.288,0.030,0.275,-5.337
0.294,0.033,0.276,-5.337
0.261,0.032,0.275,-5.337
0.226,0.030,0.275,-5.337
0.187,0.031,0.274,-5.337
0.141,0.032,0.277,-5.337
0.130,0.028,0.279,-5.337
0.186,0.027,0.276,-5.337
0.251,0.030,0.271,-5.337
0.228,0.036,0.271,-5.337
0.187,0.036,0.270,-5.337
0.194,0.032,0.270,-5.337
0.200,0.032,0.271,-5.337
0.249,0.027,0.272,-5.337
0.285,0.025,0.275,-5.337
0.292,0.028,0.275,-5.337
0.275,0.030,0.277,-5.337
0.191,0.032,0.276,-5.337
0.178,0.030,0.274,-5.337
0.166,0.028,0.268,-5.337
0.154,0.032,0.268,-5.337
0.153,0.036,0.273,-5.337
0.120,0.038,0.277,-5.337
0.071,0.036,0.276,-5.337
0.104,0.034,0.272,-5.337
0.155,0.034,0.270,-5.337
0.187,0.037,0.271,-5.337
0.180,0.031,0.272,-5.337
0.170,0.034,0.278,-5.337
0.150,0.034,0.279,-5.337
0.187,0.031,0.278,-5.337
0.154,0.037,0.278,-5.337
0.128,0.036,0.277,-5.337
0.205,0.033,0.275,-5.337
0.199,0.033,0.276,-5.337
0.229,0.032,0.274,-5.337
0.294,0.034,0.271,-5.337
0.268,0.037,0.273,-5.337
0.178,0.040,0.277,-5.337
0.132,0.036,0.281,-5.337
0.162,0.036,0.278,-5.337
0.101,0.040,0.275,-5.337
0.057,0.041,0.273,-5.337
0.151,0.039,0.273,-5.337
0.245,0.035,0.274,-5.337
0.186,0.039,0.274,-5.337
0.147,0.037,0.273,-5.337
0.226,0.037,0.271,-5.337
0.205,0.040,0.268,-5.337
0.155,0.044,0.270,-5.337
0.251,0.042,0.278,-5.337
0.311,0.041,0.281,-5.337
0.262,0.040,0.275,-5.337
0.224,0.037,0.268,-5.337
0.137,0.038,0.265,-5.337
0.109,0.043,0.269,-5.337
0.153,0.045,0.274,-5.337
0.209,0.043,0.275,-5.337
0.230,0.042,0.277,-5.337
0.190,0.042,0.276,-5.337
0.199,0.042,0.275,-5.337
0.215,0.042,0.273,-5.337
0.220,0.042,0.275,-5.337
0.237,0.042,0.276,-5.337
0.194,0.047,0.276,-5.337
0.159,0.044,0.275,-5.337
0.195,0.044,0.275,-5.337
0.172,0.046,0.272,-5.337
0.105,0.049,0.269,-5.337
0.170,0.050,0.270,-5.337
0.190,0.050,0.275,-5.337
0.138,0.047,0.276,-5.337
0.183,0.042,0.273,-5.337
0.304,0.040,0.271,-5.337
0.287,0.044,0.273,-5.337
0.240,0.044,0.276,-5.337
0.163,0.044,0.275,-5.337
0.118,0.045,0.275,-5.337
0.140,0.045,0.273,-5.337
0.213,0.043,0.271,-5.337
0.232,0.045,0.270,-5.337
0.155,0.045,0.269,-5.337
0.086,0.047,0.269,-5.337
0.167,0.046,0.272,-5.337
0.295,0.047,0.274,-5.337
0.276,0.048,0.273,-5.337
0.212,0.051,0.273,-5.337
0.161,0.052,0.276,-5.337
0.176,0.047,0.278,-5.337
0.192,0.046,0.276,-5.337
0.147,0.048,0.274,-5.337
0.107,0.046,0.276,-5.337
0.163,0.050,0.275,-5.337
0.192,0.054,0.273,-5.337
0.138,0.053,0.271,-5.337
0.162,0.049,0.269,-5.337
0.169,0.048,0.274,-5.337
0.207,0.049,0.278,-5.337
0.198,0.048,0.276,-5.337
0.172,0.046,0.274,-5.337
0.161,0.052,0.273,-5.337
0.168,0.055,0.272,-5.337
0.201,0.051,0.274,-5.337
0.175,0.051,0.276,-5.337
0.114,0.053,0.279,-5.337
0.145,0.050,0.280,-5.337
0.231,0.048,0.277,-5.337
0.193,0.051,0.269,-5.337
0.144,0.050,0.268,-5.337
0.190,0.046,0.271,-5.337
0.196,0.048,0.275,-5.337
0.150,0.051,0.277,-5.337
0.125,0.049,0.275,-5.337
0.139,0.045,0.273,-5.337
0.167,0.046,0.271,-5.337
0.200,0.047,0.267,-5.337
0.161,0.048,0.264,-5.337
0.144,0.049,0.267,-5.337
0.144,0.050,0.270,-5.337
0.199,0.050,0.273,-5.337
0.183,0.049,0.276,-5.337
0.155,0.048,0.280,-5.337
0.188,0.049,0.280,-5.337
0.178,0.051,0.280,-5.337
0.219,0.044,0.274,-5.337
0.302,0.041,0.271,-5.337
0.273,0.044,0.267,-5.337
0.254,0.045,0.270,-5.337
0.203,0.049,0.273,-5.337
0.103,0.051,0.270,-5.337
0.062,0.050,0.270,-5.337
0.072,0.047,0.272,-5.337
0.091,0.047,0.272,-5.337
0.105,0.043,0.272,-5.337
0.073,0.043,0.270,-5.337
0.102,0.046,0.273,-5.337
0.177,0.042,0.274,-5.337
0.234,0.039,0.274,-5.337
0.173,0.046,0.272,-5.337
0.155,0.049,0.266,-5.337
0.124,0.047,0.268,-5.337
0.086,0.047,0.271,-5.337
0.129,0.046,0.275,-5.337
0.193,0.046,0.277,-5.337
0.178,0.048,0.277,-5.337
0.161,0.048,0.273,-5.337
0.189,0.052,0.272,-5.337
0.181,0.055,0.272,-5.337
0.155,0.050,0.274,-5.337
0.103,0.050,0.276,-5.337
0.106,0.050,0.278,-5.337
0.133,0.051,0.277,-5.337
0.161,0.054,0.275,-5.337
0.143,0.058,0.271,-5.337
0.104,0.057,0.266,-5.337
0.102,0.056,0.270,-5.337
0.117,0.057,0.277,-5.337
0.180,0.059,0.279,-5.337
0.182,0.056,0.275,-5.337
0.200,0.053,0.269,-5.337
0.149,0.058,0.267,-5.337
0.078,0.062,0.268,-5.337
0.088,0.059,0.273,-5.337
0.113,0.056,0.274,-5.337
0.178,0.052,0.274,-5.337
0.235,0.052,0.276,-5.337
0.186,0.053,0.274,-5.337
0.135,0.056,0.271,-5.337
0.143,0.056,0.269,-5.337
0.141,0.056,0.272,-5.337
0.153,0.054,0.268,-5.337
0.145,0.055,0.268,-5.337
0.204,0.053,0.271,-5.337
0.243,0.053,0.273,-5.337
0.170,0.053,0.276,-5.337
0.183,0.054,0.277,-5.337
0.185,0.061,0.273,-5.337
0.111,0.064,0.271,-5.337
0.111,0.060,0.269,-5.337
0.117,0.058,0.270,-5.337
0.138,0.061,0.275,-5.337
0.097,0.064,0.278,-5.337
0.146,0.058,0.275,-5.337
0.160,0.058,0.272,-5.337
0.146,0.057,0.273,-5.337
0.196,0.058,0.273,-5.337
0.224,0.055,0.275,-5.337
0.223,0.055,0.275,-5.337
0.163,0.061,0.273,-5.337
0.164,0.062,0.270,-5.337
0.197,0.062,0.273,-5.337
0.198,0.059,0.273,-5.337
0.169,0.060,0.273,-5.337
0.159,0.061,0.273,-5.337
0.151,0.061,0.272,-5.337
0.224,0.057,0.269,-5.337
0.296,0.056,0.268,-5.337
0.223,0.058,0.270,-5.337
0.074,0.064,0.275,-5.337
0.092,0.066,0.278,-5.337
0.141,0.061,0.274,-5.337
0.126,0.058,0.269,-5.337
0.174,0.060,0.268,-5.337
0.182,0.061,0.271,-5.337
0.195,0.060,0.272,-5.337
0.202,0.059,0.273,-5.337
0.116,0.061,0.277,-5.337
0.058,0.064,0.280,-5.337
0.050,0.064,0.275,-5.337
0.113,0.063,0.271,-5.337
0.138,0.066,0.271,-5.337
0.115,0.066,0.270,-5.337
0.214,0.063,0.271,-5.337
0.253,0.063,0.274,-5.337
0.229,0.063,0.277,-5.337
0.234,0.065,0.273,-5.337
0.204,0.060,0.274,-5.337
0.085,0.060,0.276,-5.337
0.038,0.062,0.272,-5.337
0.129,0.060,0.270,-5.337
0.137,0.059,0.270,-5.337
0.109,0.057,0.270,-5.337
0.138,0.056,0.270,-5.337
0.148,0.060,0.265,-5.337
0.196,0.056,0.259,-5.337
0.291,0.051,0.266,-5.337
0.278,0.054,0.274,-5.337
0.185,0.058,0.274,-5.337
0.097,0.062,0.274,-5.337
0.102,0.059,0.276,-5.337
0.139,0.060,0.276,-5.337
0.121,0.063,0.274,-5.337
0.098,0.063,0.269,-5.337
0.079,0.061,0.267,-5.337
0.126,0.062,0.270,-5.337
0.175,0.064,0.272,-5.337
0.106,0.067,0.271,-5.337
0.066,0.066,0.273,-5.337
0.143,0.061,0.278,-5.337
0.177,0.059,0.279,-5.337
0.175,0.061,0.276,-5.337
0.225,0.062,0.275,-5.337
0.259,0.063,0.273,-5.337
0.250,0.062,0.272,-5.337
0.238,0.061,0.271,-5.337
0.180,0.062,0.273,-5.337
0.226,0.058,0.274,-5.337
0.247,0.060,0.275,-5.337
0.160,0.062,0.272,-5.337
0.164,0.062,0.274,-5.337
0.125,0.064,0.276,-5.337
0.093,0.064,0.275,-5.337
0.099,0.065,0.267,-5.337
0.125,0.065,0.267,-5.337
0.203,0.060,0.268,-5.337
0.189,0.061,0.271,-5.337
0.214,0.057,0.271,-5.337
0.236,0.057,0.270,-5.337
0.206,0.055,0.272,-5.337
0.205,0.057,0.274,-5.337
0.179,0.056,0.274,-5.337
0.201,0.056,0.274,-5.337
0.145,0.055,0.275,-5.337
0.160,0.053,0.275,-5.337
0.145,0.052,0.271,-5.337
0.094,0.058,0.271,-5.337
0.122,0.060,0.276,-5.337
0.140,0.061,0.282,-5.337
0.129,0.061,0.282,-5.337
0.068,0.064,0.279,-5.337
0.079,0.060,0.274,-5.337
0.149,0.057,0.270,-5.337
0.183,0.056,0.270,-5.337
0.203,0.059,0.270,-5.337
0.219,0.061,0.272,-5.337
0.154,0.062,0.274,-5.337
0.175,0.057,0.273,-5.337
0.183,0.054,0.275,-5.337
0.087,0.056,0.275,-5.337
0.051,0.055,0.272,-5.337
0.041,0.055,0.273,-5.337
0.148,0.051,0.274,-5.337
0.238,0.049,0.273,-5.337
0.239,0.053,0.273,-5.337
0.150,0.055,0.272,-5.337
0.150,0.053,0.271,-5.337
0.121,0.053,0.271,-5.337
0.115,0.055,0.272,-5.337
0.162,0.056,0.274,-5.337
0.157,0.060,0.279,-5.337
0.132,0.056,0.279,-5.337
0.142,0.051,0.276,-5.337
0.187,0.050,0.273,-5.337
0.194,0.048,0.274,-5.337
0.258,0.047,0.273,-5.337
0.242,0.050,0.271,-5.337
0.182,0.051,0.270,-5.337
0.190,0.052,0.276,-5.337
0.101,0.055,0.277,-5.337
0.132,0.051,0.276,-5.337
0.218,0.049,0.274,-5.337
0.169,0.054,0.274,-5.337
0.105,0.058,0.277,-5.337
0.093,0.055,0.279,-5.337
0.162,0.053,0.276,-5.337
0.206,0.052,0.274,-5.337
0.186,0.051,0.273,-5.337
0.180,0.047,0.276,-5.337
0.196,0.047,0.276,-5.337
0.183,0.044,0.275,-5.337
0.207,0.043,0.273,-5.337
0.179,0.045,0.271,-5.337
0.196,0.044,0.270,-5.337
0.209,0.045,0.270,-5.337
0.224,0.043,0.272,-5.337
0.250,0.043,0.272,-5.337
0.208,0.044,0.272,-5.337
0.154,0.045,0.271,-5.337
0.145,0.043,0.276,-5.337
0.216,0.039,0.276,-5.337
0.268,0.041,0.274,-5.337
0.171,0.041,0.272,-5.337
0.201,0.042,0.272,-5.337
0.180,0.047,0.270,-5.337
0.146,0.048,0.269,-5.337
0.091,0.046,0.268,-5.337
0.178,0.042,0.270,-5.337
0.262,0.041,0.270,-5.337
0.280,0.045,0.272,-5.337
0.238,0.047,0.276,-5.337
0.169,0.044,0.277,-5.337
0.171,0.044,0.277,-5.337
0.257,0.039,0.275,-5.337
0.283,0.043,0.277,-5.337
0.146,0.047,0.274,-5.337
0.126,0.043,0.271,-5.337
0.192,0.039,0.270,-5.337
0.172,0.041,0.275,-5.337
0.082,0.041,0.277,-5.337
0.117,0.041,0.275,-5.337
0.159,0.043,0.268,-5.337
0.173,0.046,0.265,-5.337
0.224,0.044,0.266,-5.337
0.175,0.047,0.269,-5.337
0.125,0.048,0.272,-5.337
0.101,0.046,0.272,-5.337
0.149,0.043,0.271,-5.337
0.162,0.043,0.273,-5.337
0.231,0.043,0.275,-5.337
0.234,0.042,0.277,-5.337
0.155,0.047,0.279,-5.337
0.137,0.051,0.281,-5.337
0.233,0.046,0.278,-5.337
0.200,0.049,0.274,-5.337
0.150,0.043,0.271,-5.337
0.202,0.040,0.273,-5.337
0.276,0.040,0.276,-5.337
0.242,0.043,0.272,-5.337
0.175,0.045,0.270,-5.337
0.146,0.047,0.267,-5.337
0.164,0.046,0.271,-5.337
0.174,0.042,0.273,-5.337
0.181,0.041,0.276,-5.337
0.234,0.042,0.279,-5.337
0.199,0.046,0.278,-5.337
0.106,0.045,0.277,-5.337
0.115,0.045,0.276,-5.337
0.145,0.043,0.272,-5.337
0.201,0.041,0.272,-5.337
0.161,0.043,0.271,-5.337
0.160,0.044,0.268,-5.337
0.226,0.041,0.271,-5.337
0.260,0.040,0.272,-5.337
0.238,0.041,0.274,-5.337
0.227,0.039,0.275,-5.337
0.180,0.042,0.278,-5.337
0.194,0.042,0.280,-5.337
0.170,0.041,0.275,-5.337
0.174,0.040,0.268,-5.337
0.184,0.041,0.269,-5.337
0.107,0.045,0.272,-5.337
0.062,0.046,0.274,-5.337
0.124,0.044,0.273,-5.337
0.245,0.044,0.273,-5.337
0.300,0.040,0.274,-5.337
0.256,0.038,0.274,-5.337
0.210,0.040,0.272,-5.337
0.126,0.042,0.273,-5.337
0.169,0.038,0.271,-5.337
0.217,0.040,0.274,-5.337
0.246,0.042,0.276,-5.337
0.210,0.044,0.275,-5.337
0.124,0.042,0.275,-5.337
0.203,0.035,0.274,-5.337
0.195,0.037,0.274,-5.337
0.136,0.039,0.274,-5.337
0.178,0.041,0.278,-5.337
0.202,0.042,0.275,-5.337
0.167,0.041,0.274,-5.337
0.143,0.035,0.268,-5.337
0.190,0.034,0.267,-5.337
0.266,0.032,0.267,-5.337
0.245,0.032,0.269,-5.337
0.207,0.034,0.268,-5.337
0.244,0.032,0.270,-5.337
0.208,0.033,0.275,-5.337
0.149,0.034,0.278,-5.337
0.127,0.033,0.275,-5.337
0.176,0.031,0.271,-5.337
0.187,0.033,0.267,-5.337
0.155,0.038,0.267,-5.337
0.138,0.036,0.269,-5.337
0.230,0.035,0.271,-5.337
0.344,0.030,0.271,-5.337
0.360,0.032,0.274,-5.337
0.273,0.034,0.276,-5.337
0.200,0.034,0.278,-5.337
0.174,0.036,0.276,-5.337
0.186,0.038,0.274,-5.337
0.241,0.037,0.272,-5.337
0.284,0.033,0.271,-5.337
0.252,0.030,0.271,-5.337
0.242,0.032,0.271,-5.337
0.260,0.034,0.271,-5.337
0.234,0.038,0.273,-5.337
0.110,0.042,0.274,-5.337
0.162,0.043,0.273,-5.337
0.270,0.041,0.273,-5.337
0.271,0.042,0.269,-5.337
0.214,0.042,0.267,-5.337
0.215,0.040,0.269,-5.337
0.203,0.041,0.271,-5.337
0.288,0.039,0.273,-5.337
0.285,0.043,0.271,-5.337
0.202,0.044,0.274,-5.337
0.140,0.043,0.276,-5.337
0.117,0.046,0.272,-5.337
0.103,0.044,0.271,-5.337
0.091,0.043,0.274,-5.337
0.133,0.037,0.275,-5.337
0.187,0.040,0.272,-5.337
0.137,0.046,0.270,-5.337
0.151,0.046,0.273,-5.337
0.136,0.044,0.275,-5.337
0.217,0.043,0.277,-5.337
0.197,0.045,0.276,-5.337
0.156,0.045,0.276,-5.337
0.191,0.042,0.271,-5.337
0.166,0.040,0.267,-5.337
0.242,0.038,0.269,-5.337
0.285,0.039,0.272,-5.337
0.298,0.035,0.273,-5.337
0.243,0.037,0.272,-5.337
0.176,0.039,0.272,-5.337
0.137,0.039,0.271,-5.337
0.200,0.036,0.275,-5.337
0.249,0.032,0.280,-5.337
0.218,0.033,0.278,-5.337
0.139,0.035,0.273,-5.337
0.129,0.035,0.271,-5.337
0.169,0.040,0.271,-5.337
0.251,0.038,0.270,-5.337
0.275,0.037,0.270,-5.337
0.215,0.037,0.274,-5.337
0.228,0.039,0.273,-5.337
0.249,0.040,0.273,-5.337
0.209,0.045,0.275,-5.337
0.181,0.041,0.276,-5.337
0.170,0.039,0.273,-5.337
0.181,0.037,0.267,-5.337
0.270,0.034,0.266,-5.337
0.301,0.036,0.271,-5.337
0.265,0.036,0.276,-5.337
0.280,0.033,0.276,-5.337
0.249,0.037,0.274,-5.337
0.165,0.037,0.271,-5.337
0.129,0.035,0.269,-5.337
0.160,0.035,0.272,-5.337
0.180,0.036,0.273,-5.337
0.244,0.038,0.274,-5.337
0.263,0.038,0.275,-5.337
0.197,0.036,0.277,-5.337
0.157,0.037,0.278,-5.337
0.151,0.036,0.276,-5.337
0.155,0.037,0.273,-5.337
0.193,0.037,0.269,-5.337
0.265,0.035,0.266,-5.337
0.220,0.036,0.263,-5.337
0.186,0.040,0.268,-5.337
0.161,0.038,0.274,-5.337
0.206,0.037,0.273,-5.337
0.220,0.036,0.270,-5.337
0.202,0.037,0.270,-5.337
0.187,0.035,0.271,-5.337
0.195,0.033,0.268,-5.337
0.213,0.027,0.268,-5.337
0.241,0.029,0.269,-5.337
0.246,0.033,0.270,-5.337
0.228,0.035,0.273,-5.337
0.209,0.035,0.274,-5.337
0.167,0.038,0.272,-5.337
0.129,0.038,0.269,-5.337
0.119,0.041,0.266,-5.337
0.157,0.039,0.269,-5.337
0.199,0.038,0.272,-5.337
0.194,0.035,0.274,-5.337
0.205,0.033,0.273,-5.337
0.291,0.029,0.270,-5.337
0.325,0.028,0.267,-5.337
0.254,0.036,0.271,-5.337
0.191,0.036,0.276,-5.337
0.211,0.032,0.273,-5.337
0.200,0.035,0.270,-5.337
0.186,0.038,0.270,-5.337
0.208,0.034,0.271,-5.337
0.240,0.035,0.274,-5.337
0.174,0.041,0.275,-5.337
0.079,0.043,0.272,-5.337
0.126,0.040,0.271,-5.337
0.247,0.034,0.274,-5.337
0.233,0.036,0.271,-5.337
0.144,0.042,0.270,-5.337
0.151,0.039,0.273,-5.337
0.239,0.037,0.272,-5.337
0.261,0.036,0.270,-5.337
0.259,0.036,0.269,-5.337
0.213,0.038,0.273,-5.337
0.237,0.036,0.274,-5.337
0.255,0.038,0.273,-5.337
0.194,0.040,0.271,-5.337
0.177,0.040,0.273,-5.337
0.199,0.039,0.273,-5.337
0.187,0.041,0.274,-5.337
0.144,0.041,0.274,-5.337
0.172,0.041,0.276,-5.337
0.256,0.040,0.274,-5.337
0.285,0.040,0.273,-5.337
0.255,0.044,0.272,-5.337
0.134,0.047,0.270,-5.337
0.127,0.044,0.270,-5.337
0.159,0.046,0.274,-5.337
0.195,0.045,0.275,-5.337
0.276,0.045,0.276,-5.337
0.265,0.044,0.273,-5.337
0.204,0.046,0.274,-5.337
0.109,0.050,0.278,-5.337
0.104,0.048,0.276,-5.337
0.129,0.043,0.270,-5.337
0.198,0.041,0.266,-5.337
0.192,0.041,0.266,-5.337
0.147,0.045,0.267,-5.337
0.108,0.047,0.269,-5.337
0.074,0.046,0.271,-5.337
0.003,0.048,0.274,-5.337
0.067,0.047,0.274,-5.337
0.177,0.048,0.271,-5.337
0.202,0.049,0.272,-5.337
0.206,0.046,0.277,-5.337
0.235,0.041,0.276,-5.337
0.255,0.042,0.271,-5.337
0.311,0.039,0.270,-5.337
0.280,0.044,0.274,-5.337
0.163,0.050,0.280,-5.337
0.164,0.048,0.282,-5.337
0.167,0.045,0.280,-5.337
0.210,0.044,0.273,-5.337
0.217,0.048,0.269,-5.337
0.282,0.049,0.272,-5.337
0.278,0.045,0.269,-5.337
0.174,0.050,0.269,-5.337
0.190,0.048,0.274,-5.337
0.213,0.049,0.276,-5.337
0.225,0.052,0.275,-5.337
0.200,0.054,0.273,-5.337
0.101,0.057,0.276,-5.337
0.108,0.052,0.275,-5.337
0.150,0.049,0.272,-5.337
0.216,0.049,0.270,-5.337
0.272,0.051,0.271,-5.337
0.275,0.053,0.271,-5.337
0.192,0.056,0.271,-5.337
0.138,0.053,0.267,-5.337
0.171,0.050,0.269,-5.337
0.222,0.053,0.272,-5.337
0.206,0.054,0.274,-5.337
0.204,0.053,0.273,-5.337
0.158,0.052,0.273,-5.337
0.197,0.047,0.269,-5.337
0.242,0.048,0.270,-5.337
0.153,0.055,0.274,-5.337
0.177,0.051,0.275,-5.337
0.276,0.046,0.272,-5.337
0.264,0.050,0.270,-5.337
0.206,0.052,0.271,-5.337
0.218,0.049,0.273,-5.337
0.274,0.049,0.276,-5.337
0.291,0.048,0.271,-5.337
0.263,0.051,0.269,-5.337
0.158,0.055,0.267,-5.337
0.081,0.053,0.269,-5.337
0.092,0.045,0.271,-5.337
0.118,0.047,0.271,-5.337
0.108,0.049,0.272,-5.337
0.166,0.048,0.273,-5.337
0.195,0.043,0.272,-5.337
0.164,0.046,0.272,-5.337
0.107,0.050,0.275,-5.337
0.153,0.051,0.276,-5.337
0.184,0.045,0.275,-5.337
0.174,0.047,0.270,-5.337
0.062,0.054,0.269,-5.337
0.089,0.055,0.271,-5.337
0.111,0.053,0.271,-5.337
0.160,0.051,0.270,-5.337
0.224,0.049,0.272,-5.337
0.173,0.051,0.274,-5.337
0.165,0.054,0.274,-5.337
0.193,0.054,0.271,-5.337
0.203,0.054,0.268,-5.337
0.202,0.054,0.269,-5.337
0.170,0.058,0.275,-5.337
0.135,0.057,0.279,-5.337
0.164,0.054,0.278,-5.337
0.193,0.053,0.271,-5.337
0.170,0.054,0.271,-5.337
0.072,0.056,0.273,-5.337
0.001,0.056,0.274,-5.337
0.090,0.053,0.271,-5.337
0.207,0.054,0.270,-5.337
0.168,0.057,0.272,-5.337
0.123,0.057,0.272,-5.337
0.116,0.055,0.272,-5.337
0.094,0.056,0.272,-5.337
0.148,0.056,0.271,-5.337
0.200,0.052,0.268,-5.337
0.116,0.054,0.270,-5.337
0.031,0.056,0.273,-5.337
0.069,0.054,0.274,-5.337
0.192,0.052,0.270,-5.337
0.251,0.052,0.272,-5.337
0.219,0.054,0.275,-5.337
0.171,0.059,0.279,-5.337
0.175,0.056,0.278,-5.337
0.193,0.056,0.274,-5.337
0.207,0.056,0.270,-5.337
0.191,0.059,0.270,-5.337
0.185,0.056,0.271,-5.337
0.198,0.057,0.273,-5.337
0.132,0.061,0.273,-5.337
0.123,0.062,0.271,-5.337
0.147,0.059,0.275,-5.337
0.165,0.057,0.278,-5.337
0.151,0.060,0.278,-5.337
0.158,0.059,0.273,-5.337
0.222,0.056,0.272,-5.337
0.223,0.057,0.270,-5.337
0.226,0.057,0.276,-5.337
0.217,0.057,0.278,-5.337
0.181,0.060,0.279,-5.337
0.174,0.065,0.274,-5.337
0.151,0.067,0.273,-5.337
0.079,0.064,0.273,-5.337
0.150,0.059,0.275,-5.337
0.253,0.057,0.273,-5.337
0.223,0.058,0.273,-5.337
0.120,0.058,0.273,-5.337
0.103,0.065,0.272,-5.337
0.101,0.064,0.273,-5.337
0.098,0.063,0.274,-5.337
0.113,0.064,0.268,-5.337
0.159,0.060,0.264,-5.337
0.216,0.061,0.263,-5.337
0.227,0.062,0.266,-5.337
0.170,0.061,0.273,-5.337
0.139,0.061,0.280,-5.337
0.164,0.059,0.280,-5.337
0.175,0.061,0.272,-5.337
0.064,0.064,0.266,-5.337
0.098,0.060,0.265,-5.337
0.180,0.060,0.270,-5.337
0.128,0.060,0.272,-5.337
0.062,0.063,0.279,-5.337
0.126,0.059,0.279,-5.337
0.141,0.060,0.278,-5.337
0.099,0.060,0.275,-5.337
0.167,0.060,0.271,-5.337
0.184,0.060,0.267,-5.337
0.152,0.061,0.269,-5.337
0.150,0.060,0.271,-5.337
0.144,0.060,0.275,-5.337
0.119,0.061,0.276,-5.337
0.072,0.065,0.276,-5.337
0.056,0.066,0.273,-5.337
0.135,0.067,0.272,-5.337
0.145,0.067,0.272,-5.337
0.121,0.067,0.271,-5.337
0.116,0.069,0.268,-5.337
0.129,0.067,0.265,-5.337
0.218,0.064,0.268,-5.337
0.215,0.064,0.275,-5.337
0.187,0.062,0.279,-5.337
0.202,0.060,0.275,-5.337
0.243,0.058,0.274,-5.337
0.228,0.061,0.273,-5.337
0.116,0.064,0.272,-5.337
0.112,0.063,0.269,-5.337
0.161,0.065,0.273,-5.337
0.211,0.066,0.278,-5.337
0.197,0.065,0.279,-5.337
0.198,0.063,0.278,-5.337
0.201,0.063,0.272,-5.337
0.129,0.067,0.272,-5.337
0.113,0.067,0.274,-5.337
0.150,0.062,0.273,-5.337
0.209,0.064,0.267,-5.337
0.169,0.064,0.266,-5.337
0.100,0.065,0.268,-5.337
0.077,0.067,0.271,-5.337
0.099,0.062,0.273,-5.337
0.153,0.061,0.272,-5.337
0.083,0.066,0.272,-5.337
0.097,0.067,0.275,-5.337
0.111,0.065,0.273,-5.337
0.121,0.062,0.270,-5.337
0.162,0.056,0.266,-5.337
0.218,0.055,0.270,-5.337
0.170,0.057,0.270,-5.337
0.094,0.060,0.271,-5.337
0.123,0.061,0.274,-5.337
0.194,0.064,0.274,-5.337
0.183,0.067,0.273,-5.337
0.119,0.064,0.268,-5.337
0.105,0.058,0.265,-5.337
0.148,0.058,0.267,-5.337
0.184,0.061,0.269,-5.337
0.197,0.065,0.270,-5.337
0.145,0.068,0.273,-5.337
0.132,0.067,0.270,-5.337
0.088,0.066,0.271,-5.337
0.082,0.066,0.274,-5.337
0.099,0.066,0.272,-5.337
0.114,0.065,0.271,-5.337
0.106,0.064,0.272,-5.337
0.124,0.064,0.268,-5.337
0.140,0.063,0.267,-5.337
0.182,0.060,0.267,-5.337
0.215,0.057,0.268,-5.337
0.227,0.059,0.271,-5.337
0.235,0.061,0.274,-5.337
0.201,0.063,0.277,-5.337
0.139,0.066,0.275,-5.337
0.179,0.063,0.270,-5.337
0.162,0.063,0.269,-5.337
0.121,0.062,0.273,-5.337
0.146,0.063,0.274,-5.337
0.178,0.064,0.273,-5.337
0.167,0.064,0.275,-5.337
0.148,0.061,0.274,-5.337
0.139,0.058,0.272,-5.337
0.149,0.061,0.270,-5.337
0.171,0.060,0.267,-5.337
0.151,0.060,0.266,-5.337
0.127,0.061,0.267,-5.337
0.182,0.058,0.272,-5.337
0.247,0.055,0.271,-5.337
0.201,0.059,0.270,-5.337
0.146,0.060,0.272,-5.337
0.179,0.061,0.275,-5.337
0.187,0.059,0.274,-5.337
0.165,0.061,0.274,-5.337
0.202,0.058,0.272,-5.337
0.232,0.060,0.268,-5.337
0.214,0.062,0.268,-5.337
0.165,0.064,0.271,-5.337
0.113,0.063,0.274,-5.337
0.115,0.061,0.268,-5.337
0.183,0.057,0.264,-5.337
0.247,0.052,0.265,-5.337
0.269,0.050,0.269,-5.337
0.215,0.055,0.272,-5.337
0.153,0.058,0.276,-5.337
0.164,0.057,0.277,-5.337
0.175,0.054,0.278,-5.337
0.169,0.053,0.274,-5.337
0.169,0.053,0.270,-5.337
0.122,0.058,0.270,-5.337
0.143,0.054,0.269,-5.337
0.169,0.055,0.269,-5.337
0.116,0.060,0.272,-5.337
0.129,0.058,0.273,-5.337
0.172,0.055,0.273,-5.337
0.198,0.050,0.271,-5.337
0.127,0.051,0.271,-5.337
0.123,0.050,0.273,-5.337
0.158,0.055,0.272,-5.337
0.219,0.054,0.271,-5.337
0.230,0.052,0.274,-5.337
0.195,0.054,0.272,-5.337
0.163,0.053,0.273,-5.337
0.145,0.049,0.272,-5.337
0.174,0.049,0.270,-5.337
0.220,0.049,0.271,-5.337
0.271,0.048,0.271,-5.337
0.259,0.051,0.272,-5.337
0.205,0.053,0.274,-5.337
0.129,0.053,0.276,-5.337
0.075,0.054,0.275,-5.337
0.103,0.052,0.276,-5.337
0.176,0.046,0.275,-5.337
0.184,0.047,0.274,-5.337
0.156,0.050,0.271,-5.337
0.228,0.046,0.270,-5.337
0.171,0.046,0.275,-5.337
0.131,0.045,0.279,-5.337
0.204,0.041,0.275,-5.337
0.219,0.042,0.272,-5.337
0.151,0.045,0.272,-5.337
0.138,0.049,0.274,-5.337
0.180,0.051,0.276,-5.337
0.222,0.048,0.273,-5.337
0.234,0.044,0.268,-5.337
0.154,0.043,0.266,-5.337
0.093,0.042,0.271,-5.337
0.085,0.046,0.277,-5.337
0.120,0.044,0.279,-5.337
0.181,0.041,0.276,-5.337
0.161,0.044,0.273,-5.337
0.129,0.047,0.272,-5.337
0.121,0.045,0.274,-5.337
0.276,0.040,0.274,-5.337
0.274,0.044,0.275,-5.337
0.175,0.046,0.275,-5.337
0.245,0.042,0.274,-5.337
0.284,0.039,0.271,-5.337
0.237,0.041,0.271,-5.337
0.174,0.044,0.271,-5.337
0.209,0.045,0.270,-5.337
0.185,0.046,0.271,-5.337
0.149,0.045,0.274,-5.337
0.195,0.046,0.274,-5.337
0.264,0.050,0.272,-5.337
0.257,0.045,0.272,-5.337
0.176,0.046,0.273,-5.337
0.143,0.045,0.270,-5.337
0.181,0.044,0.268,-5.337
0.182,0.044,0.268,-5.337
0.143,0.047,0.269,-5.337
0.174,0.047,0.274,-5.337
0.238,0.044,0.274,-5.337
0.269,0.042,0.279,-5.337
0.211,0.045,0.280,-5.337
0.124,0.048,0.278,-5.337
0.150,0.042,0.274,-5.337
0.236,0.043,0.275,-5.337
0.187,0.046,0.274,-5.337
0.142,0.046,0.273,-5.337
0.147,0.045,0.273,-5.337
0.147,0.046,0.273,-5.337
0.185,0.045,0.269,-5.337
0.225,0.047,0.272,-5.337
0.217,0.045,0.273,-5.337
0.263,0.043,0.274,-5.337
0.234,0.044,0.273,-5.337
0.150,0.047,0.269,-5.337
0.107,0.043,0.264,-5.337
0.178,0.042,0.265,-5.337
0.189,0.043,0.269,-5.337
0.116,0.046,0.273,-5.337
0.126,0.045,0.273,-5.337
0.178,0.044,0.271,-5.337
0.209,0.044,0.272,-5.337
0.249,0.042,0.274,-5.337
0.208,0.044,0.279,-5.337
0.163,0.046,0.275,-5.337
0.134,0.047,0.269,-5.337
0.143,0.045,0.260,-5.337
0.158,0.045,0.259,-5.337
0.145,0.046,0.260,-5.337
0.131,0.045,0.265,-5.337
0.131,0.045,0.271,-5.337
0.158,0.044,0.278,-5.337
0.194,0.043,0.275,-5.337
0.205,0.046,0.272,-5.337
0.149,0.046,0.271,-5.337
0.202,0.038,0.277,-5.337
0.272,0.036,0.278,-5.337
0.334,0.037,0.275,-5.337
0.374,0.036,0.272,-5.337
0.278,0.039,0.271,-5.337
0.209,0.038,0.273,-5.337
0.181,0.037,0.273,-5.337
0.116,0.040,0.274,-5.337
0.110,0.039,0.274,-5.337
0.160,0.039,0.275,-5.337
0.132,0.040,0.271,-5.337
0.163,0.042,0.270,-5.337
0.194,0.043,0.271,-5.337
0.198,0.045,0.273,-5.337
0.182,0.044,0.274,-5.337
0.215,0.040,0.275,-5.337
0.225,0.041,0.273,-5.337
0.197,0.042,0.270,-5.337
0.139,0.042,0.267,-5.337
0.154,0.040,0.267,-5.337
0.170,0.041,0.265,-5.337
0.144,0.041,0.268,-5.337
0.197,0.040,0.270,-5.337
0.167,0.044,0.272,-5.337
0.147,0.043,0.276,-5.337
0.155,0.043,0.279,-5.337
0.203,0.040,0.280,-5.337
0.219,0.038,0.276,-5.337
0.187,0.038,0.272,-5.337
0.186,0.042,0.270,-5.337
0.131,0.046,0.274,-5.337
0.162,0.041,0.278,-5.337
0.191,0.038,0.279,-5.337
0.174,0.040,0.277,-5.337
0.139,0.043,0.274,-5.337
0.151,0.043,0.269,-5.337
0.168,0.044,0.268,-5.337
0.187,0.043,0.269,-5.337
0.238,0.039,0.272,-5.337
0.260,0.042,0.272,-5.337
0.273,0.043,0.274,-5.337
0.263,0.038,0.275,-5.337
0.238,0.035,0.273,-5.337
0.259,0.036,0.273,-5.337
0.248,0.038,0.273,-5.337
0.180,0.037,0.271,-5.337
0.157,0.034,0.271,-5.337
0.213,0.034,0.271,-5.337
0.212,0.035,0.271,-5.337
0.187,0.036,0.273,-5.337
0.242,0.035,0.271,-5.337
0.277,0.034,0.267,-5.337
0.215,0.034,0.264,-5.337
0.202,0.036,0.267,-5.337
0.213,0.036,0.270,-5.337
0.242,0.035,0.274,-5.337
0.241,0.035,0.274,-5.337
0.209,0.038,0.274,-5.337
0.197,0.035,0.277,-5.337
0.250,0.033,0.277,-5.337
0.314,0.029,0.276,-5.337
0.249,0.035,0.272,-5.337
0.228,0.034,0.272,-5.337
0.269,0.033,0.272,-5.337
0.250,0.034,0.269,-5.337
0.217,0.035,0.269,-5.337
0.204,0.033,0.274,-5.337
0.186,0.035,0.275,-5.337
0.256,0.031,0.273,-5.337
0.331,0.029,0.275,-5.337
0.312,0.032,0.273,-5.337
0.240,0.035,0.270,-5.337
0.265,0.030,0.276,-5.337
0.259,0.030,0.279,-5.337
0.274,0.031,0.278,-5.337
0.240,0.037,0.270,-5.337
0.153,0.036,0.265,-5.337
0.159,0.033,0.266,-5.337
0.115,0.035,0.270,-5.337
0.077,0.040,0.270,-5.337
0.048,0.039,0.272,-5.337
0.125,0.032,0.270,-5.337
0.223,0.032,0.267,-5.337
0.187,0.037,0.268,-5.337
0.167,0.038,0.270,-5.337
0.196,0.032,0.271,-5.337
0.194,0.033,0.271,-5.337
0.223,0.034,0.273,-5.337
0.248,0.036,0.273,-5.337
0.216,0.037,0.270,-5.337
0.148,0.041,0.271,-5.337
0.106,0.042,0.274,-5.337
0.126,0.039,0.277,-5.337
0.147,0.035,0.278,-5.337
0.127,0.038,0.275,-5.337
0.167,0.040,0.272,-5.337
0.270,0.038,0.267,-5.337
0.302,0.032,0.268,-5.337
0.240,0.034,0.270,-5.337
0.208,0.036,0.270,-5.337
0.162,0.033,0.266,-5.337
0.122,0.035,0.265,-5.337
0.203,0.035,0.267,-5.337
0.234,0.038,0.269,-5.337
0.142,0.040,0.272,-5.337
0.082,0.039,0.277,-5.337
0.130,0.034,0.276,-5.337
0.207,0.034,0.272,-5.337
0.176,0.036,0.269,-5.337
0.216,0.035,0.272,-5.337
0.249,0.034,0.275,-5.337
0.245,0.033,0.276,-5.337
0.184,0.029,0.275,-5.337
0.237,0.028,0.270,-5.337
0.266,0.030,0.269,-5.337
0.217,0.035,0.270,-5.337
0.161,0.035,0.273,-5.337
0.180,0.031,0.275,-5.337
0.221,0.031,0.275,-5.337
0.236,0.035,0.272,-5.337
0.228,0.041,0.271,-5.337
0.211,0.038,0.268,-5.337
0.181,0.038,0.267,-5.337
0.138,0.037,0.268,-5.337
0.182,0.036,0.271,-5.337
0.236,0.039,0.273,-5.337
0.236,0.043,0.274,-5.337
0.163,0.043,0.273,-5.337
0.169,0.043,0.269,-5.337
0.173,0.039,0.266,-5.337
0.150,0.039,0.267,-5.337
0.144,0.038,0.270,-5.337
0.231,0.036,0.273,-5.337
0.265,0.036,0.276,-5.337
0.213,0.038,0.275,-5.337
0.246,0.035,0.275,-5.337
0.238,0.039,0.272,-5.337
0.170,0.041,0.270,-5.337
0.123,0.042,0.268,-5.337
0.177,0.041,0.270,-5.337
0.184,0.041,0.272,-5.337
0.181,0.041,0.271,-5.337
0.183,0.039,0.269,-5.337
0.194,0.036,0.269,-5.337
0.174,0.040,0.267,-5.337
0.195,0.044,0.269,-5.337
0.250,0.044,0.272,-5.337
0.283,0.044,0.270,-5.337
0.304,0.042,0.269,-5.337
0.254,0.040,0.273,-5.337
0.145,0.044,0.274,-5.337
0.078,0.046,0.271,-5.337
0.144,0.046,0.266,-5.337
0.177,0.044,0.264,-5.337
0.177,0.045,0.267,-5.337
0.099,0.048,0.273,-5.337
0.071,0.048,0.272,-5.337
0.140,0.044,0.269,-5.337
0.187,0.045,0.271,-5.337
0.164,0.048,0.272,-5.337
0.127,0.049,0.274,-5.337
0.163,0.044,0.274,-5.337
0.191,0.045,0.277,-5.337
0.091,0.050,0.275,-5.337
0.087,0.053,0.273,-5.337
0.132,0.047,0.269,-5.337
0.163,0.047,0.266,-5.337
0.232,0.046,0.264,-5.337
0.252,0.047,0.266,-5.337
0.290,0.047,0.269,-5.337
0.296,0.047,0.273,-5.337
0.215,0.047,0.270,-5.337
0.221,0.050,0.268,-5.337
0.160,0.052,0.266,-5.337
0.071,0.052,0.267,-5.337
0.065,0.045,0.274,-5.337
0.156,0.045,0.279,-5.337
0.140,0.048,0.277,-5.337
0.112,0.047,0.271,-5.337
0.188,0.041,0.269,-5.337
0.229,0.041,0.269,-5.337
0.206,0.041,0.271,-5.337
0.152,0.040,0.271,-5.337
0.208,0.039,0.276,-5.337
0.287,0.039,0.275,-5.337
0.238,0.042,0.273,-5.337
0.135,0.046,0.271,-5.337
0.167,0.046,0.271,-5.337
0.188,0.046,0.273,-5.337
0.183,0.045,0.270,-5.337
0.151,0.046,0.268,-5.337
0.140,0.050,0.268,-5.337
0.187,0.044,0.272,-5.337
0.246,0.041,0.276,-5.337
0.238,0.042,0.277,-5.337
0.189,0.046,0.279,-5.337
0.242,0.044,0.277,-5.337
0.336,0.044,0.276,-5.337
0.327,0.044,0.272,-5.337
0.250,0.047,0.269,-5.337
0.132,0.052,0.268,-5.337
0.078,0.049,0.272,-5.337
0.212,0.044,0.275,-5.337
0.255,0.043,0.273,-5.337
0.143,0.042,0.275,-5.337
0.060,0.044,0.273,-5.337
0.097,0.045,0.274,-5.337
0.177,0.047,0.272,-5.337
0.188,0.047,0.271,-5.337
0.180,0.044,0.271,-5.337
0.186,0.043,0.273,-5.337
0.193,0.043,0.275,-5.337
0.099,0.046,0.276,-5.337
0.126,0.041,0.274,-5.337
0.186,0.044,0.272,-5.337
0.088,0.048,0.268,-5.337
0.045,0.047,0.269,-5.337
0.126,0.043,0.270,-5.337
0.224,0.040,0.273,-5.337
0.252,0.042,0.275,-5.337
0.208,0.047,0.272,-5.337
0.188,0.043,0.271,-5.337
0.210,0.039,0.272,-5.337
0.268,0.039,0.272,-5.337
0.280,0.042,0.271,-5.337
0.223,0.044,0.274,-5.337
0.187,0.044,0.276,-5.337
0.163,0.048,0.273,-5.337
0.168,0.048,0.271,-5.337
0.219,0.048,0.272,-5.337
0.233,0.051,0.273,-5.337
0.211,0.053,0.272,-5.337
0.171,0.054,0.269,-5.337
0.159,0.052,0.270,-5.337
0.223,0.047,0.271,-5.337
0.267,0.047,0.271,-5.337
0.207,0.051,0.273,-5.337
0.194,0.052,0.271,-5.337
0.175,0.050,0.268,-5.337
0.229,0.047,0.271,-5.337
0.253,0.045,0.272,-5.337
0.227,0.050,0.271,-5.337
0.114,0.055,0.271,-5.337
0.075,0.055,0.271,-5.337
0.152,0.051,0.272,-5.337
0.185,0.051,0.269,-5.337
0.149,0.054,0.270,-5.337
0.105,0.052,0.269,-5.337
0.145,0.052,0.271,-5.337
0.223,0.048,0.270,-5.337
0.250,0.048,0.272,-5.337
0.185,0.048,0.272,-5.337
0.157,0.050,0.275,-5.337
0.180,0.052,0.274,-5.337
0.169,0.056,0.273,-5.337
0.141,0.055,0.272,-5.337
0.103,0.056,0.272,-5.337
0.039,0.057,0.268,-5.337
0.019,0.056,0.267,-5.337
0.141,0.054,0.268,-5.337
0.210,0.050,0.268,-5.337
0.209,0.050,0.268,-5.337
0.254,0.051,0.269,-5.337
0.227,0.051,0.271,-5.337
0.166,0.050,0.274,-5.337
0.153,0.052,0.276,-5.337
0.170,0.054,0.271,-5.337
0.140,0.055,0.273,-5.337
0.117,0.057,0.277,-5.337
0.095,0.056,0.280,-5.337
0.061,0.054,0.276,-5.337
0.098,0.054,0.270,-5.337
0.121,0.052,0.268,-5.337
0.166,0.054,0.271,-5.337
0.166,0.053,0.271,-5.337
0.143,0.055,0.271,-5.337
0.167,0.057,0.273,-5.337
0.218,0.055,0.270,-5.337
0.239,0.052,0.267,-5.337
0.259,0.052,0.267,-5.337
0.233,0.054,0.268,-5.337
0.230,0.053,0.271,-5.337
0.236,0.054,0.273,-5.337
0.214,0.054,0.272,-5.337
0.182,0.056,0.272,-5.337
0.142,0.061,0.271,-5.337
0.170,0.061,0.273,-5.337
0.189,0.061,0.269,-5.337
0.173,0.058,0.269,-5.337
0.156,0.054,0.268,-5.337
0.137,0.054,0.272,-5.337
0.181,0.053,0.271,-5.337
0.170,0.057,0.270,-5.337
0.144,0.056,0.272,-5.337
0.160,0.055,0.272,-5.337
0.134,0.054,0.272,-5.337
0.112,0.054,0.271,-5.337
0.171,0.052,0.270,-5.337
0.161,0.054,0.272,-5.337
0.112,0.054,0.275,-5.337
0.099,0.055,0.276,-5.337
0.136,0.054,0.272,-5.337
0.193,0.052,0.269,-5.337
0.175,0.050,0.272,-5.337
0.171,0.051,0.274,-5.337
0.157,0.051,0.275,-5.337
0.141,0.052,0.272,-5.337
0.187,0.052,0.270,-5.337
0.266,0.053,0.271,-5.337
0.245,0.058,0.274,-5.337
0.166,0.057,0.276,-5.337
0.098,0.058,0.274,-5.337
0.128,0.056,0.271,-5.337
0.189,0.057,0.271,-5.337
0.202,0.057,0.274,-5.337
0.232,0.053,0.274,-5.337
0.234,0.053,0.268,-5.337
0.155,0.062,0.268,-5.337
0.148,0.060,0.273,-5.337
0.177,0.055,0.277,-5.337
0.149,0.057,0.275,-5.337
0.099,0.055,0.276,-5.337
0.072,0.055,0.278,-5.337
0.112,0.056,0.276,-5.337
0.162,0.053,0.270,-5.337
0.206,0.053,0.268,-5.337
0.217,0.053,0.269,-5.337
0.234,0.053,0.269,-5.337
0.233,0.057,0.273,-5.337
0.192,0.057,0.273,-5.337
0.158,0.059,0.276,-5.337
0.141,0.058,0.272,-5.337
0.133,0.057,0.273,-5.337
0.135,0.058,0.274,-5.337
0.193,0.059,0.274,-5.337
0.229,0.055,0.271,-5.337
0.227,0.056,0.270,-5.337
0.245,0.057,0.271,-5.337
0.228,0.056,0.271,-5.337
0.235,0.057,0.270,-5.337
0.205,0.056,0.271,-5.337
0.168,0.054,0.272,-5.337
0.163,0.054,0.272,-5.337
0.194,0.054,0.266,-5.337
0.159,0.056,0.267,-5.337
0.124,0.057,0.274,-5.337
0.163,0.056,0.276,-5.337
0.184,0.056,0.272,-5.337
0.112,0.059,0.268,-5.337
0.107,0.055,0.269,-5.337
0.200,0.053,0.270,-5.337
0.271,0.053,0.270,-5.337
0.255,0.053,0.273,-5.337
0.167,0.054,0.275,-5.337
0.128,0.056,0.270,-5.337
0.167,0.054,0.269,-5.337
0.255,0.054,0.268,-5.337
0.260,0.057,0.273,-5.337
0.197,0.054,0.272,-5.337
0.128,0.058,0.271,-5.337
0.076,0.057,0.274,-5.337
0.080,0.057,0.277,-5.337
0.146,0.056,0.273,-5.337
0.180,0.056,0.266,-5.337
0.212,0.055,0.266,-5.337
0.220,0.054,0.266,-5.337
0.151,0.055,0.270,-5.337
0.117,0.054,0.276,-5.337
0.168,0.054,0.275,-5.337
0.202,0.052,0.272,-5.337
0.158,0.052,0.271,-5.337
0.088,0.058,0.268,-5.337
0.026,0.063,0.268,-5.337
-0.010,0.061,0.268,-5.337
0.074,0.057,0.270,-5.337
0.147,0.056,0.266,-5.337
0.224,0.055,0.262,-5.337
0.184,0.056,0.266,-5.337
0.089,0.057,0.271,-5.337
0.116,0.058,0.275,-5.337
0.154,0.059,0.277,-5.337
0.189,0.054,0.277,-5.337
0.207,0.056,0.275,-5.337
0.204,0.059,0.276,-5.337
0.189,0.061,0.276,-5.337
0.204,0.057,0.275,-5.337
0.201,0.054,0.271,-5.337
0.204,0.051,0.269,-5.337
0.174,0.047,0.270,-5.337
0.207,0.048,0.273,-5.337
0.121,0.053,0.272,-5.337
0.064,0.054,0.273,-5.337
0.115,0.052,0.270,-5.337
0.208,0.049,0.267,-5.337
0.264,0.050,0.267,-5.337
0.260,0.051,0.270,-5.337
0.204,0.050,0.269,-5.337
0.167,0.049,0.269,-5.337
0.231,0.046,0.273,-5.337
0.292,0.044,0.276,-5.337
0.184,0.046,0.272,-5.337
0.164,0.047,0.267,-5.337
0.155,0.046,0.267,-5.337
0.110,0.046,0.269,-5.337
0.114,0.044,0.271,-5.337
0.199,0.045,0.272,-5.337
0.244,0.047,0.268,-5.337
0.254,0.047,0.269,-5.337
0.234,0.050,0.271,-5.337
0.146,0.049,0.270,-5.337
0.126,0.051,0.271,-5.337
0.112,0.052,0.273,-5.337
0.150,0.051,0.274,-5.337
0.178,0.050,0.269,-5.337
0.169,0.051,0.266,-5.337
0.126,0.055,0.267,-5.337
0.058,0.055,0.271,-5.337
0.058,0.052,0.271,-5.337
0.148,0.050,0.271,-5.337
0.252,0.046,0.275,-5.337
0.208,0.051,0.274,-5.337
0.183,0.049,0.274,-5.337
0.196,0.049,0.275,-5.337
0.192,0.052,0.275,-5.337
0.222,0.048,0.271,-5.337
0.175,0.048,0.271,-5.337
0.149,0.047,0.270,-5.337
0.158,0.045,0.271,-5.337
0.161,0.042,0.270,-5.337
0.224,0.041,0.267,-5.337
0.229,0.042,0.267,-5.337
0.186,0.040,0.270,-5.337
0.215,0.039,0.269,-5.337
0.270,0.042,0.267,-5.337
0.259,0.044,0.269,-5.337
0.206,0.044,0.272,-5.337
0.213,0.041,0.274,-5.337
0.207,0.044,0.277,-5.337
0.222,0.046,0.276,-5.337
0.197,0.047,0.274,-5.337
0.137,0.045,0.274,-5.337
0.173,0.047,0.276,-5.337
0.216,0.045,0.275,-5.337
0.249,0.045,0.275,-5.337
0.243,0.043,0.271,-5.337
0.205,0.044,0.269,-5.337
0.216,0.043,0.267,-5.337
0.202,0.043,0.269,-5.337
0.109,0.045,0.270,-5.337
0.081,0.047,0.272,-5.337
0.127,0.044,0.272,-5.337
0.199,0.044,0.275,-5.337
0.210,0.042,0.277,-5.337
0.236,0.042,0.278,-5.337
0.221,0.042,0.277,-5.337
0.147,0.040,0.275,-5.337
0.166,0.037,0.273,-5.337
0.205,0.041,0.268,-5.337
0.208,0.044,0.270,-5.337
0.164,0.046,0.271,-5.337
0.117,0.048,0.275,-5.337
0.164,0.047,0.271,-5.337
0.207,0.042,0.268,-5.337
0.169,0.041,0.271,-5.337
0.117,0.044,0.275,-5.337
0.105,0.041,0.275,-5.337
0.137,0.041,0.276,-5.337
0.156,0.039,0.275,-5.337
0.213,0.034,0.274,-5.337
0.277,0.035,0.279,-5.337
0.258,0.036,0.279,-5.337
0.207,0.038,0.275,-5.337
0.171,0.036,0.274,-5.337
0.217,0.036,0.272,-5.337
0.199,0.036,0.270,-5.337
0.202,0.034,0.271,-5.337
0.264,0.033,0.273,-5.337
0.252,0.036,0.277,-5.337
0.203,0.040,0.275,-5.337
0.178,0.039,0.271,-5.337
0.206,0.036,0.268,-5.337
0.197,0.038,0.270,-5.337
0.205,0.038,0.273,-5.337
0.202,0.039,0.277,-5.337
0.184,0.039,0.277,-5.337
0.106,0.040,0.276,-5.337
0.088,0.038,0.271,-5.337
0.164,0.037,0.267,-5.337
0.227,0.033,0.269,-5.337
0.281,0.032,0.270,-5.337
0.244,0.036,0.271,-5.337
0.136,0.041,0.273,-5.337
0.149,0.039,0.276,-5.337
0.145,0.037,0.274,-5.337
0.127,0.040,0.271,-5.337
0.163,0.037,0.272,-5.337
0.207,0.035,0.274,-5.337
0.204,0.038,0.274,-5.337
0.203,0.037,0.275,-5.337
0.249,0.035,0.275,-5.337
0.305,0.031,0.275,-5.337
0.255,0.032,0.271,-5.337
0.198,0.038,0.269,-5.337
0.187,0.039,0.269,-5.337
0.176,0.037,0.272,-5.337
0.196,0.037,0.274,-5.337
0.209,0.042,0.276,-5.337
0.165,0.042,0.275,-5.337
0.083,0.040,0.273,-5.337
0.053,0.042,0.268,-5.337
0.114,0.038,0.269,-5.337
0.190,0.037,0.271,-5.337
0.206,0.038,0.270,-5.337
0.236,0.037,0.269,-5.337
0.226,0.039,0.271,-5.337
0.169,0.042,0.272,-5.337
0.162,0.043,0.271,-5.337
0.199,0.039,0.270,-5.337
0.251,0.034,0.268,-5.337
0.308,0.033,0.268,-5.337
0.222,0.038,0.266,-5.337
0.163,0.038,0.267,-5.337
0.130,0.038,0.271,-5.337
0.196,0.033,0.277,-5.337
0.277,0.028,0.278,-5.337
0.268,0.031,0.276,-5.337
0.307,0.031,0.270,-5.337
0.240,0.034,0.270,-5.337
0.182,0.034,0.269,-5.337
0.156,0.033,0.266,-5.337
0.122,0.034,0.269,-5.337
0.185,0.034,0.273,-5.337
0.277,0.032,0.272,-5.337
0.251,0.037,0.271,-5.337
0.169,0.040,0.270,-5.337
0.156,0.037,0.272,-5.337
0.136,0.036,0.272,-5.337
0.192,0.039,0.271,-5.337
0.295,0.039,0.267,-5.337
0.287,0.041,0.269,-5.337
0.202,0.043,0.274,-5.337
0.195,0.038,0.277,-5.337
0.233,0.038,0.276,-5.337
0.269,0.036,0.273,-5.337
0.260,0.035,0.273,-5.337
0.282,0.035,0.275,-5.337
0.316,0.037,0.275,-5.337
0.293,0.039,0.273,-5.337
0.219,0.039,0.269,-5.337
0.171,0.038,0.269,-5.337
0.171,0.041,0.271,-5.337
0.163,0.040,0.270,-5.337
0.208,0.036,0.273,-5.337
0.177,0.040,0.272,-5.337
0.193,0.041,0.271,-5.337
0.220,0.037,0.271,-5.337
0.189,0.036,0.268,-5.337
0.208,0.033,0.269,-5.337
0.158,0.040,0.270,-5.337
0.110,0.037,0.271,-5.337
0.181,0.033,0.273,-5.337
0.237,0.035,0.275,-5.337
0.203,0.034,0.277,-5.337
0.198,0.033,0.279,-5.337
0.241,0.034,0.278,-5.337
0.207,0.032,0.279,-5.337
0.224,0.034,0.275,-5.337
0.268,0.032,0.270,-5.337
0.240,0.034,0.266,-5.337
0.170,0.040,0.266,-5.337
0.221,0.036,0.268,-5.337
0.202,0.036,0.275,-5.337
0.194,0.034,0.278,-5.337
0.230,0.035,0.274,-5.337
0.178,0.036,0.270,-5.337
0.182,0.036,0.272,-5.337
0.172,0.036,0.272,-5.337
0.205,0.035,0.272,-5.337
0.257,0.035,0.273,-5.337
0.200,0.041,0.273,-5.337
0.122,0.045,0.274,-5.337
0.149,0.041,0.271,-5.337
0.184,0.042,0.273,-5.337
0.214,0.039,0.268,-5.337
0.281,0.036,0.265,-5.337
0.265,0.033,0.267,-5.337
0.244,0.035,0.275,-5.337
0.265,0.038,0.278,-5.337
0.292,0.041,0.281,-5.337
0.270,0.038,0.275,-5.337
0.250,0.039,0.272,-5.337
0.225,0.040,0.271,-5.337
0.179,0.042,0.271,-5.337
0.129,0.039,0.273,-5.337
0.186,0.039,0.275,-5.337
0.180,0.041,0.275,-5.337
0.160,0.041,0.275,-5.337
0.193,0.039,0.277,-5.337
0.192,0.040,0.273,-5.337
0.121,0.042,0.272,-5.337
0.134,0.039,0.273,-5.337
0.233,0.038,0.274,-5.337
0.312,0.038,0.275,-5.337
0.257,0.042,0.271,-5.337
0.198,0.044,0.270,-5.337
0.218,0.040,0.272,-5.337
0.245,0.037,0.277,-5.337
0.186,0.035,0.276,-5.337
0.097,0.039,0.271,-5.337
0.071,0.043,0.269,-5.337
0.178,0.042,0.270,-5.337
0.244,0.037,0.272,-5.337
0.220,0.036,0.271,-5.337
0.176,0.038,0.269,-5.337
0.163,0.035,0.271,-5.337
0.159,0.037,0.272,-5.337
0.227,0.038,0.272,-5.337
0.259,0.041,0.273,-5.337
0.169,0.042,0.276,-5.337
0.187,0.039,0.275,-5.337
0.187,0.040,0.275,-5.337
0.136,0.038,0.274,-5.337
0.116,0.032,0.270,-5.337
0.179,0.032,0.269,-5.337
0.154,0.038,0.272,-5.337
0.136,0.036,0.269,-5.337
0.196,0.035,0.267,-5.337
0.179,0.036,0.268,-5.337
0.198,0.034,0.274,-5.337
0.235,0.039,0.275,-5.337
0.216,0.041,0.275,-5.337
0.196,0.040,0.270,-5.337
0.149,0.042,0.271,-5.337
0.173,0.042,0.273,-5.337
0.194,0.043,0.274,-5.337
0.266,0.038,0.272,-5.337
0.291,0.037,0.272,-5.337
0.231,0.040,0.271,-5.337
0.175,0.044,0.270,-5.337
0.135,0.046,0.270,-5.337
0.139,0.046,0.272,-5.337
0.115,0.045,0.270,-5.337
0.101,0.043,0.275,-5.337
0.130,0.042,0.272,-5.337
0.215,0.040,0.271,-5.337
0.285,0.040,0.272,-5.337
0.299,0.042,0.274,-5.337
0.258,0.044,0.271,-5.337
0.267,0.046,0.268,-5.337
0.241,0.047,0.271,-5.337
0.201,0.045,0.277,-5.337
0.212,0.043,0.280,-5.337
0.151,0.043,0.278,-5.337
0.073,0.042,0.275,-5.337
0.128,0.039,0.269,-5.337
0.204,0.039,0.268,-5.337
0.256,0.040,0.270,-5.337
0.211,0.042,0.273,-5.337
0.198,0.039,0.274,-5.337
0.216,0.037,0.274,-5.337
0.237,0.034,0.272,-5.337
0.241,0.036,0.269,-5.337
0.183,0.039,0.269,-5.337
0.244,0.038,0.271,-5.337
0.284,0.038,0.272,-5.337
0.235,0.039,0.272,-5.337
0.166,0.037,0.268,-5.337
0.179,0.039,0.266,-5.337
0.212,0.041,0.267,-5.337
0.306,0.040,0.268,-5.337
0.285,0.042,0.270,-5.337
0.198,0.044,0.269,-5.337
0.176,0.045,0.271,-5.337
0.151,0.043,0.271,-5.337
0.157,0.041,0.273,-5.337
0.216,0.041,0.275,-5.337
0.233,0.047,0.274,-5.337
0.229,0.048,0.272,-5.337
0.183,0.045,0.272,-5.337
0.129,0.045,0.274,-5.337
0.121,0.047,0.276,-5.337
0.168,0.046,0.276,-5.337
0.184,0.045,0.272,-5.337
0.192,0.042,0.267,-5.337
0.167,0.044,0.267,-5.337
0.139,0.040,0.272,-5.337
0.150,0.039,0.277,-5.337
0.102,0.043,0.277,-5.337
0.121,0.044,0.273,-5.337
0.206,0.042,0.269,-5.337
0.182,0.045,0.265,-5.337
0.125,0.049,0.265,-5.337
0.118,0.050,0.271,-5.337
0.151,0.048,0.276,-5.337
0.261,0.045,0.276,-5.337
0.288,0.044,0.274,-5.337
0.205,0.046,0.268,-5.337
0.142,0.047,0.267,-5.337
0.206,0.043,0.268,-5.337
0.228,0.043,0.271,-5.337
0.230,0.045,0.273,-5.337
0.177,0.052,0.275,-5.337
0.204,0.049,0.274,-5.337
0.231,0.045,0.272,-5.337
0.242,0.048,0.271,-5.337
0.198,0.047,0.273,-5.337
0.116,0.050,0.275,-5.337
0.104,0.047,0.274,-5.337
0.152,0.047,0.271,-5.337
0.204,0.045,0.271,-5.337
0.229,0.044,0.272,-5.337
0.194,0.046,0.274,-5.337
0.207,0.049,0.276,-5.337
0.178,0.050,0.272,-5.337
0.137,0.048,0.271,-5.337
0.139,0.044,0.272,-5.337
0.137,0.044,0.276,-5.337
0.174,0.043,0.277,-5.337
0.208,0.042,0.277,-5.337
0.182,0.048,0.274,-5.337
0.188,0.048,0.272,-5.337
0.201,0.046,0.269,-5.337
0.193,0.044,0.271,-5.337
0.169,0.043,0.271,-5.337
0.133,0.043,0.274,-5.337
0.179,0.043,0.280,-5.337
0.180,0.047,0.279,-5.337
0.196,0.045,0.276,-5.337
0.189,0.043,0.276,-5.337
0.167,0.045,0.274,-5.337
0.173,0.046,0.271,-5.337
0.164,0.049,0.267,-5.337
0.186,0.047,0.265,-5.337
0.245,0.046,0.265,-5.337
0.250,0.050,0.270,-5.337
0.176,0.053,0.275,-5.337
0.085,0.055,0.274,-5.337
0.145,0.053,0.273,-5.337
0.229,0.047,0.272,-5.337
0.269,0.047,0.277,-5.337
0.172,0.050,0.275,-5.337
0.170,0.048,0.273,-5.337
0.169,0.048,0.272,-5.337
0.125,0.053,0.275,-5.337
0.153,0.051,0.276,-5.337
0.180,0.050,0.276,-5.337
0.164,0.051,0.280,-5.337
0.157,0.049,0.283,-5.337
0.183,0.043,0.280,-5.337
0.185,0.046,0.271,-5.337
0.121,0.050,0.269,-5.337
0.071,0.052,0.268,-5.337
0.099,0.050,0.270,-5.337
0.177,0.048,0.274,-5.337
0.198,0.045,0.274,-5.337
0.244,0.044,0.272,-5.337
0.213,0.048,0.273,-5.337
0.123,0.049,0.275,-5.337
0.097,0.046,0.275,-5.337
0.145,0.047,0.276,-5.337
0.145,0.049,0.274,-5.337
0.205,0.049,0.269,-5.337
0.179,0.048,0.266,-5.337
0.128,0.051,0.267,-5.337
0.136,0.055,0.272,-5.337
0.059,0.058,0.273,-5.337
0.054,0.054,0.273,-5.337
0.175,0.048,0.274,-5.337
0.217,0.046,0.273,-5.337
0.195,0.046,0.271,-5.337
0.192,0.047,0.273,-5.337
0.251,0.044,0.273,-5.337
0.269,0.046,0.273,-5.337
0.160,0.050,0.273,-5.337
0.110,0.051,0.274,-5.337
0.111,0.049,0.273,-5.337
0.092,0.050,0.269,-5.337
0.101,0.052,0.270,-5.337
0.135,0.051,0.273,-5.337
0.142,0.051,0.272,-5.337
0.141,0.051,0.267,-5.337
0.226,0.052,0.268,-5.337
0.293,0.052,0.272,-5.337
0.288,0.051,0.275,-5.337
0.217,0.052,0.274,-5.337
0.217,0.054,0.273,-5.337
0.169,0.057,0.269,-5.337
0.159,0.054,0.271,-5.337
0.213,0.052,0.273,-5.337
0.180,0.053,0.273,-5.337
0.178,0.050,0.276,-5.337
0.215,0.050,0.277,-5.337
0.128,0.056,0.273,-5.337
0.085,0.056,0.268,-5.337
0.139,0.052,0.272,-5.337
0.144,0.050,0.276,-5.337
0.181,0.048,0.275,-5.337
0.201,0.048,0.274,-5.337
0.142,0.048,0.273,-5.337
0.143,0.049,0.271,-5.337
0.252,0.044,0.269,-5.337
0.256,0.046,0.268,-5.337
0.111,0.052,0.271,-5.337
0.058,0.052,0.273,-5.337
0.132,0.050,0.272,-5.337
0.169,0.050,0.272,-5.337
0.118,0.056,0.275,-5.337
0.123,0.053,0.274,-5.337
0.178,0.050,0.269,-5.337
0.217,0.048,0.268,-5.337
0.173,0.050,0.271,-5.337
0.162,0.052,0.272,-5.337
0.143,0.051,0.271,-5.337
0.133,0.053,0.272,-5.337
0.179,0.053,0.274,-5.337
0.208,0.051,0.274,-5.337
0.142,0.052,0.274,-5.337
0.068,0.053,0.274,-5.337
0.108,0.052,0.275,-5.337
0.148,0.052,0.276,-5.337
0.192,0.049,0.270,-5.337
0.212,0.052,0.267,-5.337
0.191,0.055,0.267,-5.337
0.215,0.056,0.267,-5.337
0.221,0.056,0.270,-5.337
0.215,0.057,0.272,-5.337
0.208,0.056,0.271,-5.337
0.186,0.058,0.275,-5.337
0.187,0.061,0.276,-5.337
0.188,0.060,0.274,-5.337
0.203,0.057,0.274,-5.337
0.180,0.056,0.274,-5.337
0.187,0.059,0.275,-5.337
0.172,0.062,0.273,-5.337
0.168,0.059,0.275,-5.337
0.243,0.058,0.278,-5.337
0.148,0.060,0.278,-5.337
0.083,0.059,0.276,-5.337
0.108,0.058,0.276,-5.337
0.166,0.054,0.276,-5.337
0.158,0.050,0.274,-5.337
0.229,0.049,0.271,-5.337
0.215,0.050,0.270,-5.337
0.163,0.054,0.268,-5.337
0.142,0.054,0.269,-5.337
0.160,0.050,0.267,-5.337
0.192,0.051,0.267,-5.337
0.241,0.050,0.267,-5.337
0.202,0.052,0.270,-5.337
0.186,0.053,0.273,-5.337
0.204,0.053,0.274,-5.337
0.220,0.051,0.274,-5.337
0.176,0.053,0.277,-5.337
0.142,0.053,0.280,-5.337
0.090,0.054,0.278,-5.337
0.114,0.054,0.275,-5.337
0.140,0.052,0.274,-5.337
0.136,0.053,0.273,-5.337
0.132,0.054,0.276,-5.337
0.163,0.057,0.277,-5.337
0.182,0.055,0.276,-5.337
0.188,0.052,0.271,-5.337
0.172,0.052,0.267,-5.337
0.117,0.051,0.270,-5.337
0.113,0.050,0.269,-5.337
0.218,0.051,0.272,-5.337
0.239,0.052,0.273,-5.337
0.137,0.051,0.275,-5.337
0.181,0.049,0.276,-5.337
0.194,0.052,0.277,-5.337
0.168,0.052,0.273,-5.337
0.167,0.055,0.270,-5.337
0.186,0.051,0.267,-5.337
0.163,0.050,0.270,-5.337
0.160,0.052,0.271,-5.337
0.181,0.052,0.275,-5.337
0.145,0.053,0.277,-5.337
0.118,0.054,0.277,-5.337
0.130,0.050,0.276,-5.337
0.125,0.051,0.274,-5.337
0.148,0.050,0.271,-5.337
0.137,0.051,0.270,-5.337
0.109,0.052,0.269,-5.337
0.163,0.052,0.271,-5.337
0.232,0.051,0.275,-5.337
0.198,0.050,0.276,-5.337
0.169,0.048,0.277,-5.337
0.151,0.048,0.277,-5.337
0.180,0.046,0.276,-5.337
0.116,0.046,0.272,-5.337
0.146,0.046,0.271,-5.337
0.230,0.040,0.272,-5.337
0.208,0.038,0.275,-5.337
0.190,0.040,0.273,-5.337
0.168,0.044,0.268,-5.337
0.190,0.045,0.269,-5.337
0.217,0.044,0.273,-5.337
0.199,0.041,0.274,-5.337
0.203,0.045,0.276,-5.337
0.238,0.042,0.277,-5.337
0.217,0.042,0.278,-5.337
0.143,0.041,0.274,-5.337
0.199,0.044,0.272,-5.337
0.182,0.043,0.274,-5.337
0.142,0.042,0.274,-5.337
0.148,0.042,0.276,-5.337
0.209,0.038,0.273,-5.337
0.261,0.040,0.268,-5.337
0.185,0.042,0.268,-5.337
0.146,0.042,0.272,-5.337
0.177,0.039,0.273,-5.337
0.150,0.040,0.274,-5.337
0.143,0.042,0.275,-5.337
0.154,0.041,0.276,-5.337
0.106,0.043,0.272,-5.337
0.080,0.046,0.273,-5.337
0.118,0.042,0.274,-5.337
0.198,0.042,0.272,-5.337
0.223,0.041,0.269,-5.337
0.203,0.040,0.272,-5.337
0.212,0.039,0.272,-5.337
0.268,0.038,0.271,-5.337
0.190,0.039,0.273,-5.337
0.116,0.042,0.275,-5.337
0.175,0.041,0.274,-5.337
0.229,0.039,0.272,-5.337
0.227,0.037,0.270,-5.337
0.229,0.040,0.271,-5.337
0.262,0.038,0.272,-5.337
0.225,0.038,0.274,-5.337
0.232,0.037,0.273,-5.337
0.220,0.039,0.271,-5.337
0.168,0.039,0.272,-5.337
0.170,0.038,0.270,-5.337
0.209,0.039,0.272,-5.337
0.261,0.038,0.276,-5.337
0.216,0.041,0.277,-5.337
0.117,0.041,0.274,-5.337
0.148,0.039,0.273,-5.337
0.173,0.040,0.270,-5.337
0.135,0.040,0.268,-5.337
0.093,0.040,0.269,-5.337
0.111,0.039,0.271,-5.337
0.237,0.038,0.270,-5.337
0.191,0.040,0.270,-5.337
0.111,0.040,0.275,-5.337
0.179,0.038,0.276,-5.337
0.243,0.038,0.274,-5.337
0.210,0.038,0.272,-5.337
0.212,0.037,0.278,-5.337
0.161,0.037,0.279,-5.337
0.100,0.036,0.279,-5.337
0.158,0.033,0.277,-5.337
0.222,0.037,0.275,-5.337
0.197,0.039,0.272,-5.337
0.138,0.043,0.271,-5.337
0.084,0.045,0.267,-5.337
0.126,0.040,0.266,-5.337
0.180,0.035,0.267,-5.337
0.195,0.036,0.269,-5.337
0.180,0.038,0.273,-5.337
0.154,0.040,0.279,-5.337
0.228,0.036,0.280,-5.337
0.254,0.036,0.277,-5.337
0.208,0.037,0.272,-5.337
0.170,0.040,0.269,-5.337
0.159,0.040,0.268,-5.337
0.166,0.039,0.268,-5.337
0.154,0.042,0.269,-5.337
0.161,0.041,0.268,-5.337
0.258,0.034,0.272,-5.337
0.270,0.035,0.277,-5.337
0.199,0.037,0.281,-5.337
0.212,0.030,0.277,-5.337
0.201,0.028,0.272,-5.337
0.107,0.031,0.271,-5.337
0.112,0.032,0.274,-5.337
0.218,0.030,0.274,-5.337
0.259,0.031,0.271,-5.337
0.247,0.029,0.270,-5.337
0.223,0.028,0.271,-5.337
0.174,0.029,0.270,-5.337
0.154,0.031,0.274,-5.337
0.189,0.029,0.276,-5.337
0.277,0.029,0.275,-5.337
0.296,0.030,0.274,-5.337
0.183,0.033,0.276,-5.337
0.122,0.032,0.273,-5.337
0.133,0.032,0.272,-5.337
0.125,0.035,0.272,-5.337
0.141,0.036,0.272,-5.337
0.137,0.036,0.273,-5.337
0.152,0.039,0.275,-5.337
0.212,0.035,0.278,-5.337
0.226,0.035,0.274,-5.337
0.166,0.033,0.273,-5.337
0.203,0.033,0.274,-5.337
0.196,0.031,0.278,-5.337
0.204,0.032,0.278,-5.337
0.244,0.033,0.276,-5.337
0.148,0.032,0.273,-5.337
0.188,0.032,0.272,-5.337
0.229,0.034,0.271,-5.337
0.213,0.033,0.274,-5.337
0.236,0.033,0.276,-5.337
0.264,0.035,0.276,-5.337
0.241,0.036,0.275,-5.337
0.172,0.035,0.275,-5.337
0.138,0.034,0.274,-5.337
0.143,0.036,0.273,-5.337
0.109,0.040,0.274,-5.337
0.117,0.040,0.275,-5.337
0.107,0.036,0.275,-5.337
0.122,0.034,0.278,-5.337
0.128,0.035,0.279,-5.337
0.151,0.033,0.280,-5.337
0.188,0.028,0.277,-5.337
0.208,0.029,0.268,-5.337
0.192,0.032,0.267,-5.337
0.178,0.035,0.272,-5.337
0.161,0.032,0.275,-5.337
0.196,0.028,0.278,-5.337
0.253,0.029,0.281,-5.337
0.237,0.029,0.279,-5.337
0.260,0.030,0.274,-5.337
0.276,0.029,0.272,-5.337
0.277,0.030,0.273,-5.337
0.226,0.030,0.276,-5.337
0.182,0.028,0.277,-5.337
0.196,0.028,0.275,-5.337
0.220,0.030,0.272,-5.337
0.223,0.030,0.269,-5.337
0.216,0.029,0.269,-5.337
0.210,0.027,0.271,-5.337
0.138,0.029,0.273,-5.337
0.130,0.031,0.277,-5.337
0.183,0.028,0.276,-5.337
0.210,0.027,0.273,-5.337
0.175,0.027,0.269,-5.337
0.137,0.027,0.272,-5.337
0.139,0.028,0.271,-5.337
0.091,0.031,0.272,-5.337
0.139,0.032,0.273,-5.337
0.199,0.036,0.275,-5.337
0.174,0.037,0.273,-5.337
0.129,0.037,0.275,-5.337
0.193,0.032,0.276,-5.337
0.266,0.030,0.274,-5.337
0.286,0.029,0.269,-5.337
0.267,0.032,0.267,-5.337
0.268,0.032,0.270,-5.337
0.250,0.032,0.272,-5.337
0.241,0.034,0.275,-5.337
0.223,0.035,0.278,-5.337
0.222,0.034,0.276,-5.337
0.212,0.034,0.271,-5.337
0.218,0.033,0.271,-5.337
0.215,0.030,0.271,-5.337
0.166,0.032,0.278,-5.337
0.202,0.031,0.280,-5.337
0.190,0.033,0.276,-5.337
0.147,0.037,0.271,-5.337
0.183,0.035,0.271,-5.337
0.178,0.032,0.272,-5.337
0.128,0.030,0.275,-5.337
0.141,0.028,0.273,-5.337
0.131,0.029,0.272,-5.337
0.154,0.027,0.276,-5.337
0.207,0.027,0.279,-5.337
0.219,0.028,0.275,-5.337
0.228,0.028,0.272,-5.337
0.216,0.026,0.269,-5.337
0.263,0.026,0.269,-5.337
0.262,0.026,0.272,-5.337
0.225,0.026,0.275,-5.337
0.194,0.027,0.279,-5.337
0.143,0.029,0.277,-5.337
0.124,0.029,0.273,-5.337
0.150,0.026,0.270,-5.337
0.226,0.024,0.269,-5.337
0.243,0.027,0.271,-5.337
0.190,0.031,0.275,-5.337
0.191,0.033,0.273,-5.337
0.199,0.032,0.270,-5.337
0.164,0.032,0.271,-5.337
0.159,0.031,0.273,-5.337
0.170,0.034,0.269,-5.337
0.162,0.036,0.267,-5.337
0.204,0.032,0.271,-5.337
0.270,0.032,0.274,-5.337
0.262,0.028,0.273,-5.337
0.233,0.030,0.274,-5.337
0.229,0.034,0.273,-5.337
0.216,0.034,0.274,-5.337
0.193,0.035,0.272,-5.337
0.228,0.033,0.269,-5.337
0.225,0.030,0.269,-5.337
0.216,0.029,0.272,-5.337
0.192,0.028,0.275,-5.337
0.215,0.032,0.274,-5.337
0.283,0.034,0.273,-5.337
0.313,0.035,0.271,-5.337
0.217,0.031,0.273,-5.337
0.177,0.028,0.269,-5.337
0.160,0.031,0.270,-5.337
0.192,0.030,0.274,-5.337
0.221,0.029,0.278,-5.337
0.222,0.026,0.273,-5.337
0.248,0.025,0.271,-5.337
0.256,0.021,0.269,-5.337
0.277,0.025,0.268,-5.337
0.213,0.027,0.272,-5.337
0.169,0.027,0.277,-5.337
0.179,0.025,0.277,-5.337
0.209,0.025,0.274,-5.337
0.227,0.028,0.272,-5.337
0.145,0.033,0.273,-5.337
0.105,0.030,0.272,-5.337
0.197,0.026,0.270,-5.337
0.246,0.027,0.270,-5.337
0.213,0.028,0.269,-5.337
0.175,0.027,0.272,-5.337
0.156,0.031,0.278,-5.337
0.196,0.030,0.282,-5.337
0.214,0.029,0.280,-5.337
0.174,0.029,0.278,-5.337
0.161,0.029,0.276,-5.337
0.186,0.033,0.276,-5.337
0.206,0.034,0.275,-5.337
0.199,0.030,0.274,-5.337
0.229,0.029,0.275,-5.337
0.255,0.031,0.272,-5.337
0.203,0.033,0.264,-5.337
0.142,0.040,0.262,-5.337
0.173,0.040,0.266,-5.337
0.231,0.038,0.274,-5.337
0.099,0.039,0.276,-5.337
0.025,0.037,0.274,-5.337
0.132,0.032,0.272,-5.337
0.206,0.031,0.273,-5.337
0.198,0.032,0.273,-5.337
0.166,0.037,0.273,-5.337
0.149,0.038,0.270,-5.337
0.108,0.038,0.266,-5.337
0.119,0.037,0.266,-5.337
0.191,0.035,0.266,-5.337
0.176,0.039,0.270,-5.337
0.163,0.043,0.275,-5.337
0.140,0.042,0.279,-5.337
0.180,0.038,0.281,-5.337
0.203,0.035,0.278,-5.337
0.149,0.037,0.273,-5.337
0.151,0.037,0.270,-5.337
0.259,0.033,0.272,-5.337
0.293,0.033,0.275,-5.337
0.239,0.034,0.274,-5.337
0.217,0.035,0.271,-5.337
0.217,0.033,0.272,-5.337
0.236,0.032,0.272,-5.337
0.171,0.034,0.271,-5.337
0.197,0.036,0.270,-5.337
0.198,0.038,0.268,-5.337
0.145,0.039,0.267,-5.337
0.223,0.036,0.268,-5.337
0.264,0.034,0.272,-5.337
0.240,0.035,0.277,-5.337
0.260,0.033,0.277,-5.337
0.279,0.034,0.276,-5.337
0.249,0.035,0.273,-5.337
0.231,0.039,0.272,-5.337
0.149,0.040,0.270,-5.337
0.146,0.041,0.272,-5.337
0.240,0.036,0.272,-5.337
0.222,0.039,0.273,-5.337
0.145,0.041,0.275,-5.337
0.139,0.040,0.272,-5.337
0.199,0.037,0.270,-5.337
0.186,0.036,0.273,-5.337
0.205,0.036,0.273,-5.337
0.192,0.038,0.273,-5.337
0.142,0.040,0.271,-5.337
0.128,0.039,0.270,-5.337
0.134,0.037,0.270,-5.337
0.087,0.039,0.272,-5.337
0.120,0.039,0.273,-5.337
0.219,0.038,0.274,-5.337
0.187,0.036,0.275,-5.337
0.162,0.037,0.272,-5.337
0.144,0.040,0.270,-5.337
0.149,0.040,0.267,-5.337
0.155,0.042,0.267,-5.337
0.142,0.040,0.268,-5.337
0.117,0.039,0.271,-5.337
0.119,0.041,0.274,-5.337
0.114,0.044,0.276,-5.337
0.102,0.046,0.274,-5.337
0.161,0.045,0.269,-5.337
0.178,0.043,0.267,-5.337
0.155,0.042,0.269,-5.337
0.186,0.043,0.271,-5.337
0.261,0.042,0.271,-5.337
0.204,0.041,0.271,-5.337
0.160,0.040,0.269,-5.337
0.111,0.040,0.272,-5.337
0.154,0.041,0.274,-5.337
0.192,0.042,0.272,-5.337
0.173,0.041,0.271,-5.337
0.142,0.042,0.275,-5.337
0.105,0.042,0.279,-5.337
0.121,0.041,0.279,-5.337
0.164,0.040,0.272,-5.337
0.201,0.042,0.270,-5.337
0.148,0.042,0.268,-5.337
0.098,0.043,0.271,-5.337
0.202,0.042,0.272,-5.337
0.213,0.045,0.272,-5.337
0.171,0.047,0.272,-5.337
0.204,0.047,0.271,-5.337
0.183,0.048,0.265,-5.337
0.120,0.047,0.263,-5.337
0.124,0.042,0.266,-5.337
0.196,0.042,0.272,-5.337
0.238,0.042,0.273,-5.337
0.203,0.045,0.269,-5.337
0.132,0.047,0.264,-5.337
0.175,0.044,0.265,-5.337
0.194,0.042,0.271,-5.337
0.167,0.044,0.276,-5.337
0.155,0.044,0.278,-5.337
0.168,0.042,0.276,-5.337
0.153,0.042,0.273,-5.337
0.127,0.047,0.272,-5.337
0.083,0.048,0.272,-5.337
0.107,0.046,0.272,-5.337
0.158,0.045,0.271,-5.337
0.163,0.048,0.269,-5.337
0.091,0.051,0.274,-5.337
0.087,0.045,0.276,-5.337
0.145,0.045,0.274,-5.337
0.162,0.046,0.271,-5.337
0.171,0.046,0.267,-5.337
0.221,0.040,0.268,-5.337
0.237,0.042,0.272,-5.337
0.167,0.047,0.273,-5.337
0.124,0.049,0.273,-5.337
0.114,0.051,0.273,-5.337
0.158,0.049,0.271,-5.337
0.229,0.047,0.270,-5.337
0.221,0.045,0.270,-5.337
0.217,0.044,0.271,-5.337
0.151,0.048,0.272,-5.337
0.102,0.047,0.276,-5.337
0.215,0.047,0.274,-5.337
0.230,0.050,0.275,-5.337
0.162,0.051,0.273,-5.337
0.130,0.049,0.272,-5.337
0.148,0.047,0.270,-5.337
0.108,0.049,0.267,-5.337
0.067,0.050,0.267,-5.337
0.120,0.048,0.269,-5.337
0.180,0.043,0.274,-5.337
0.199,0.043,0.277,-5.337
0.163,0.046,0.276,-5.337
0.191,0.047,0.273,-5.337
0.164,0.047,0.270,-5.337
0.121,0.050,0.268,-5.337
0.099,0.050,0.269,-5.337
0.150,0.053,0.270,-5.337
0.163,0.053,0.271,-5.337
0.184,0.045,0.269,-5.337
0.219,0.043,0.267,-5.337
0.215,0.045,0.272,-5.337
0.189,0.048,0.277,-5.337
0.126,0.049,0.278,-5.337
0.113,0.047,0.275,-5.337
0.127,0.047,0.271,-5.337
0.090,0.054,0.270,-5.337
0.136,0.053,0.270,-5.337
0.190,0.051,0.273,-5.337
0.147,0.048,0.275,-5.337
0.125,0.051,0.278,-5.337
0.145,0.053,0.276,-5.337
0.143,0.055,0.271,-5.337
0.137,0.053,0.269,-5.337
0.159,0.052,0.271,-5.337
0.157,0.053,0.268,-5.337
0.159,0.052,0.271,-5.337
0.159,0.054,0.275,-5.337
0.172,0.053,0.276,-5.337
0.188,0.053,0.271,-5.337
0.097,0.058,0.266,-5.337
0.080,0.057,0.266,-5.337
0.184,0.052,0.270,-5.337
0.276,0.050,0.275,-5.337
0.213,0.054,0.279,-5.337
0.150,0.056,0.277,-5.337
0.173,0.054,0.276,-5.337
0.186,0.051,0.276,-5.337
0.230,0.048,0.274,-5.337
0.243,0.049,0.272,-5.337
0.161,0.053,0.271,-5.337
0.144,0.057,0.272,-5.337
0.127,0.057,0.273,-5.337
0.129,0.057,0.273,-5.337
0.095,0.057,0.275,-5.337
0.138,0.057,0.275,-5.337
0.195,0.056,0.271,-5.337
0.195,0.053,0.269,-5.337
0.146,0.055,0.270,-5.337
0.139,0.054,0.270,-5.337
0.199,0.054,0.268,-5.337
0.207,0.054,0.270,-5.337
0.145,0.056,0.270,-5.337
0.173,0.054,0.269,-5.337
0.171,0.057,0.270,-5.337
0.102,0.060,0.269,-5.337
0.149,0.058,0.272,-5.337
0.229,0.057,0.269,-5.337
0.194,0.058,0.268,-5.337
0.116,0.060,0.270,-5.337
0.124,0.060,0.275,-5.337
0.145,0.059,0.274,-5.337
0.142,0.060,0.273,-5.337
0.136,0.057,0.273,-5.337
0.192,0.058,0.273,-5.337
0.216,0.055,0.272,-5.337
0.144,0.054,0.272,-5.337
0.140,0.051,0.270,-5.337
0.165,0.056,0.272,-5.337
0.166,0.052,0.268,-5.337
0.214,0.051,0.269,-5.337
0.197,0.053,0.272,-5.337
0.209,0.054,0.272,-5.337
0.143,0.056,0.273,-5.337
0.092,0.057,0.272,-5.337
0.158,0.054,0.272,-5.337
0.197,0.054,0.272,-5.337
0.191,0.054,0.271,-5.337
0.206,0.053,0.270,-5.337
0.138,0.060,0.271,-5.337
0.102,0.060,0.271,-5.337
0.127,0.055,0.272,-5.337
0.117,0.056,0.270,-5.337
0.100,0.056,0.267,-5.337
0.208,0.053,0.269,-5.337
0.250,0.054,0.272,-5.337
0.144,0.059,0.272,-5.337
0.147,0.060,0.272,-5.337
0.104,0.059,0.272,-5.337
0.005,0.058,0.274,-5.337
-0.022,0.058,0.274,-5.337
0.060,0.054,0.270,-5.337
0.114,0.056,0.267,-5.337
0.129,0.054,0.268,-5.337
0.201,0.050,0.267,-5.337
0.192,0.053,0.267,-5.337
0.107,0.057,0.270,-5.337
0.019,0.058,0.271,-5.337
0.077,0.057,0.277,-5.337
0.167,0.053,0.275,-5.337
0.187,0.053,0.273,-5.337
0.162,0.051,0.269,-5.337
0.147,0.053,0.270,-5.337
0.129,0.052,0.270,-5.337
0.122,0.053,0.269,-5.337
0.150,0.050,0.271,-5.337
0.175,0.051,0.276,-5.337
0.204,0.048,0.278,-5.337
0.193,0.048,0.274,-5.337
0.207,0.048,0.267,-5.337
0.188,0.048,0.267,-5.337
0.157,0.049,0.266,-5.337
0.183,0.048,0.267,-5.337
0.149,0.050,0.271,-5.337
0.140,0.049,0.273,-5.337
0.119,0.046,0.279,-5.337
0.104,0.052,0.281,-5.337
0.145,0.053,0.281,-5.337
0.205,0.049,0.276,-5.337
0.206,0.047,0.273,-5.337
0.202,0.048,0.270,-5.337
0.185,0.050,0.269,-5.337
0.122,0.051,0.267,-5.337
0.105,0.051,0.268,-5.337
0.163,0.047,0.269,-5.337
0.179,0.049,0.268,-5.337
0.240,0.044,0.270,-5.337
0.300,0.040,0.275,-5.337
0.297,0.043,0.276,-5.337
0.191,0.048,0.274,-5.337
0.097,0.051,0.275,-5.337
0.118,0.047,0.274,-5.337
0.172,0.048,0.273,-5.337
0.138,0.047,0.273,-5.337
0.187,0.046,0.271,-5.337
0.176,0.050,0.270,-5.337
0.117,0.048,0.269,-5.337
0.121,0.047,0.268,-5.337
0.112,0.052,0.269,-5.337
0.147,0.052,0.274,-5.337
0.193,0.050,0.279,-5.337
0.202,0.047,0.280,-5.337
0.169,0.051,0.275,-5.337
0.107,0.051,0.271,-5.337
0.164,0.049,0.275,-5.337
0.144,0.049,0.276,-5.337
0.189,0.047,0.273,-5.337
0.269,0.043,0.272,-5.337
0.281,0.048,0.276,-5.337
0.235,0.047,0.278,-5.337
0.216,0.050,0.274,-5.337
0.180,0.051,0.267,-5.337
0.168,0.048,0.272,-5.337
0.231,0.046,0.271,-5.337
0.290,0.045,0.268,-5.337
0.264,0.042,0.270,-5.337
0.296,0.042,0.275,-5.337
0.296,0.045,0.275,-5.337
0.247,0.044,0.273,-5.337
0.170,0.046,0.273,-5.337
0.115,0.047,0.273,-5.337
0.036,0.046,0.272,-5.337
0.054,0.048,0.270,-5.337
0.097,0.048,0.272,-5.337
0.182,0.044,0.275,-5.337
0.234,0.042,0.277,-5.337
0.221,0.043,0.275,-5.337
0.198,0.045,0.274,-5.337
0.141,0.043,0.273,-5.337
0.183,0.039,0.275,-5.337
0.235,0.042,0.278,-5.337
0.157,0.048,0.281,-5.337
0.080,0.048,0.278,-5.337
0.122,0.046,0.271,-5.337
0.209,0.043,0.272,-5.337
0.237,0.043,0.273,-5.337
0.179,0.045,0.272,-5.337
0.152,0.049,0.268,-5.337
0.151,0.044,0.266,-5.337
0.153,0.043,0.265,-5.337
0.234,0.041,0.269,-5.337
0.230,0.041,0.274,-5.337
0.185,0.044,0.276,-5.337
0.195,0.042,0.276,-5.337
0.169,0.043,0.277,-5.337
0.159,0.038,0.274,-5.337
0.173,0.034,0.271,-5.337
0.171,0.033,0.270,-5.337
0.212,0.034,0.271,-5.337
0.208,0.036,0.270,-5.337
0.191,0.034,0.268,-5.337
0.220,0.035,0.267,-5.337
0.265,0.035,0.268,-5.337
0.238,0.037,0.270,-5.337
0.153,0.042,0.271,-5.337
0.172,0.040,0.269,-5.337
0.214,0.040,0.270,-5.337
0.191,0.039,0.275,-5.337
0.115,0.039,0.278,-5.337
0.127,0.039,0.277,-5.337
0.171,0.039,0.276,-5.337
0.159,0.041,0.273,-5.337
0.143,0.041,0.267,-5.337
0.180,0.038,0.267,-5.337
0.175,0.036,0.269,-5.337
0.128,0.036,0.274,-5.337
0.122,0.037,0.273,-5.337
0.134,0.038,0.273,-5.337
0.177,0.038,0.273,-5.337
0.202,0.038,0.271,-5.337
0.170,0.038,0.267,-5.337
0.102,0.040,0.268,-5.337
0.214,0.038,0.272,-5.337
0.245,0.038,0.275,-5.337
0.187,0.037,0.274,-5.337
0.140,0.034,0.272,-5.337
0.159,0.031,0.268,-5.337
0.169,0.036,0.267,-5.337
0.164,0.038,0.269,-5.337
0.250,0.031,0.276,-5.337
0.284,0.029,0.277,-5.337
0.220,0.034,0.273,-5.337
0.125,0.035,0.269,-5.337
0.148,0.032,0.265,-5.337
0.199,0.031,0.266,-5.337
0.202,0.032,0.267,-5.337
0.157,0.035,0.270,-5.337
0.153,0.039,0.268,-5.337
0.222,0.036,0.267,-5.337
0.275,0.035,0.270,-5.337
0.192,0.037,0.274,-5.337
0.127,0.038,0.272,-5.337
0.186,0.035,0.272,-5.337
0.235,0.034,0.271,-5.337
0.229,0.036,0.267,-5.337
0.186,0.038,0.265,-5.337
0.237,0.038,0.267,-5.337
0.287,0.035,0.270,-5.337
0.294,0.034,0.273,-5.337
0.230,0.038,0.274,-5.337
0.216,0.042,0.275,-5.337
0.236,0.044,0.276,-5.337
0.152,0.041,0.276,-5.337
0.152,0.038,0.271,-5.337
0.208,0.037,0.270,-5.337
0.243,0.040,0.272,-5.337
0.218,0.039,0.271,-5.337
0.163,0.038,0.271,-5.337
0.139,0.036,0.269,-5.337
0.208,0.032,0.269,-5.337
0.229,0.036,0.269,-5.337
0.180,0.038,0.272,-5.337
0.144,0.037,0.273,-5.337
0.181,0.035,0.271,-5.337
0.230,0.036,0.268,-5.337
0.186,0.037,0.270,-5.337
0.195,0.034,0.274,-5.337
0.245,0.034,0.277,-5.337
0.220,0.032,0.274,-5.337
0.149,0.035,0.273,-5.337
0.137,0.033,0.271,-5.337
0.216,0.031,0.268,-5.337
0.278,0.029,0.267,-5.337
0.253,0.029,0.268,-5.337
0.180,0.037,0.270,-5.337
0.111,0.038,0.273,-5.337
0.149,0.032,0.278,-5.337
0.180,0.032,0.280,-5.337
0.210,0.033,0.278,-5.337
0.224,0.039,0.273,-5.337
0.188,0.041,0.271,-5.337
0.206,0.038,0.270,-5.337
0.281,0.034,0.277,-5.337
0.313,0.033,0.276,-5.337
0.249,0.033,0.271,-5.337
0.189,0.033,0.269,-5.337
0.213,0.034,0.271,-5.337
0.144,0.036,0.271,-5.337
0.120,0.041,0.271,-5.337
0.108,0.043,0.273,-5.337
0.120,0.046,0.273,-5.337
0.142,0.043,0.270,-5.337
0.178,0.039,0.268,-5.337
0.106,0.040,0.269,-5.337
0.066,0.042,0.272,-5.337
0.057,0.042,0.270,-5.337
0.096,0.040,0.272,-5.337
0.154,0.040,0.275,-5.337
0.233,0.038,0.271,-5.337
0.187,0.037,0.267,-5.337
0.204,0.036,0.267,-5.337
0.243,0.037,0.268,-5.337
0.239,0.040,0.272,-5.337
0.213,0.039,0.275,-5.337
0.147,0.038,0.274,-5.337
0.181,0.038,0.273,-5.337
0.240,0.032,0.273,-5.337
0.262,0.034,0.275,-5.337
0.152,0.039,0.277,-5.337
0.138,0.043,0.279,-5.337
0.228,0.039,0.278,-5.337
0.251,0.035,0.276,-5.337
0.244,0.035,0.273,-5.337
0.221,0.039,0.274,-5.337
0.276,0.035,0.274,-5.337
0.321,0.034,0.275,-5.337
0.240,0.036,0.272,-5.337
0.244,0.035,0.270,-5.337
0.271,0.035,0.265,-5.337
0.246,0.038,0.264,-5.337
0.140,0.043,0.269,-5.337
0.078,0.045,0.273,-5.337
0.153,0.038,0.277,-5.337
0.254,0.036,0.277,-5.337
0.249,0.037,0.274,-5.337
0.195,0.037,0.271,-5.337
0.192,0.039,0.273,-5.337
0.248,0.037,0.276,-5.337
0.295,0.036,0.274,-5.337
0.319,0.034,0.268,-5.337
0.263,0.038,0.267,-5.337
0.233,0.038,0.269,-5.337
0.216,0.035,0.270,-5.337
0.222,0.033,0.271,-5.337
0.257,0.039,0.274,-5.337
0.199,0.037,0.271,-5.337
0.181,0.036,0.269,-5.337
0.163,0.036,0.270,-5.337
0.189,0.035,0.270,-5.337
0.218,0.036,0.272,-5.337
0.211,0.039,0.274,-5.337
0.238,0.037,0.272,-5.337
0.264,0.033,0.268,-5.337
0.207,0.034,0.267,-5.337
0.198,0.036,0.268,-5.337
0.271,0.036,0.271,-5.337
0.212,0.033,0.271,-5.337
0.140,0.031,0.273,-5.337
0.119,0.032,0.270,-5.337
0.171,0.033,0.268,-5.337
0.206,0.035,0.267,-5.337
0.220,0.034,0.269,-5.337
0.213,0.033,0.269,-5.337
0.165,0.037,0.271,-5.337
0.205,0.037,0.271,-5.337
0.282,0.033,0.270,-5.337
0.302,0.029,0.268,-5.337
0.231,0.030,0.271,-5.337
0.290,0.031,0.275,-5.337
0.320,0.031,0.275,-5.337
0.226,0.036,0.271,-5.337
0.168,0.037,0.271,-5.337
0.126,0.037,0.274,-5.337
0.170,0.038,0.275,-5.337
0.227,0.040,0.273,-5.337
0.205,0.040,0.269,-5.337
0.140,0.039,0.267,-5.337
0.102,0.039,0.266,-5.337
0.094,0.042,0.267,-5.337
0.154,0.041,0.266,-5.337
0.229,0.042,0.272,-5.337
0.198,0.040,0.274,-5.337
0.189,0.038,0.274,-5.337
0.228,0.036,0.275,-5.337
0.203,0.040,0.276,-5.337
0.186,0.038,0.274,-5.337
0.170,0.040,0.268,-5.337
0.159,0.041,0.265,-5.337
0.216,0.044,0.267,-5.337
0.163,0.041,0.268,-5.337
0.153,0.040,0.271,-5.337
0.162,0.040,0.273,-5.337
0.159,0.042,0.272,-5.337
0.213,0.040,0.270,-5.337
0.236,0.042,0.269,-5.337
0.213,0.041,0.272,-5.337
0.197,0.043,0.272,-5.337
0.212,0.039,0.269,-5.337
0.263,0.039,0.268,-5.337
0.267,0.042,0.272,-5.337
0.291,0.040,0.272,-5.337
0.302,0.039,0.272,-5.337
0.288,0.040,0.271,-5.337
0.255,0.039,0.268,-5.337
0.268,0.034,0.267,-5.337
0.226,0.041,0.270,-5.337
0.162,0.042,0.273,-5.337
0.191,0.040,0.274,-5.337
0.192,0.039,0.272,-5.337
0.195,0.038,0.273,-5.337
0.150,0.037,0.272,-5.337
0.129,0.038,0.271,-5.337
0.188,0.037,0.268,-5.337
0.186,0.035,0.268,-5.337
0.185,0.035,0.270,-5.337
0.123,0.042,0.271,-5.337
0.110,0.041,0.270,-5.337
0.155,0.038,0.268,-5.337
0.184,0.036,0.270,-5.337
0.225,0.036,0.269,-5.337
0.234,0.040,0.269,-5.337
0.253,0.044,0.271,-5.337
0.237,0.045,0.275,-5.337
0.146,0.044,0.277,-5.337
0.094,0.046,0.274,-5.337
0.116,0.046,0.269,-5.337
0.154,0.052,0.271,-5.337
0.117,0.049,0.275,-5.337
0.075,0.047,0.276,-5.337
0.068,0.045,0.276,-5.337
0.174,0.043,0.275,-5.337
0.248,0.042,0.272,-5.337
0.279,0.042,0.269,-5.337
0.176,0.045,0.270,-5.337
0.163,0.045,0.273,-5.337
0.232,0.044,0.273,-5.337
0.286,0.041,0.271,-5.337
0.323,0.041,0.271,-5.337
0.249,0.044,0.272,-5.337
0.145,0.049,0.272,-5.337
0.124,0.051,0.269,-5.337
0.226,0.048,0.272,-5.337
0.246,0.048,0.275,-5.337
0.207,0.046,0.277,-5.337
0.212,0.045,0.274,-5.337
0.204,0.050,0.272,-5.337
0.130,0.052,0.270,-5.337
0.165,0.050,0.270,-5.337
0.241,0.047,0.272,-5.337
0.211,0.048,0.276,-5.337
0.129,0.048,0.275,-5.337
0.145,0.048,0.271,-5.337
0.220,0.045,0.267,-5.337
0.321,0.043,0.269,-5.337
0.309,0.049,0.270,-5.337
0.309,0.051,0.274,-5.337
0.293,0.050,0.276,-5.337
0.222,0.048,0.274,-5.337
0.212,0.050,0.272,-5.337
0.226,0.056,0.274,-5.337
0.211,0.054,0.273,-5.337
0.208,0.052,0.270,-5.337
0.140,0.055,0.273,-5.337
0.178,0.056,0.274,-5.337
0.189,0.053,0.277,-5.337
0.146,0.054,0.274,-5.337
0.182,0.049,0.271,-5.337
0.243,0.046,0.269,-5.337
0.203,0.049,0.271,-5.337
0.155,0.048,0.270,-5.337
0.091,0.049,0.269,-5.337
0.043,0.054,0.271,-5.337
0.042,0.054,0.272,-5.337
0.041,0.053,0.277,-5.337
0.041,0.054,0.280,-5.337
0.089,0.051,0.272,-5.337
0.176,0.049,0.269,-5.337
0.228,0.051,0.269,-5.337
0.265,0.051,0.272,-5.337
0.293,0.050,0.273,-5.337
0.250,0.053,0.273,-5.337
0.210,0.052,0.271,-5.337
0.228,0.049,0.269,-5.337
0.241,0.049,0.265,-5.337
0.315,0.049,0.265,-5.337
0.284,0.049,0.272,-5.337
0.176,0.053,0.274,-5.337
0.166,0.053,0.272,-5.337
0.222,0.052,0.270,-5.337
0.221,0.053,0.272,-5.337
0.167,0.054,0.275,-5.337
0.192,0.048,0.273,-5.337
0.280,0.047,0.271,-5.337
0.272,0.052,0.269,-5.337
0.146,0.057,0.267,-5.337
0.117,0.054,0.267,-5.337
0.174,0.052,0.269,-5.337
0.178,0.056,0.270,-5.337
0.132,0.056,0.272,-5.337
0.132,0.055,0.268,-5.337
0.122,0.056,0.269,-5.337
0.147,0.057,0.271,-5.337
0.229,0.054,0.273,-5.337
0.186,0.054,0.274,-5.337
0.138,0.051,0.275,-5.337
0.164,0.051,0.272,-5.337
0.142,0.054,0.268,-5.337
0.187,0.049,0.264,-5.337
0.137,0.053,0.269,-5.337
0.067,0.055,0.273,-5.337
0.152,0.053,0.271,-5.337
0.168,0.055,0.271,-5.337
0.189,0.054,0.272,-5.337
0.186,0.051,0.273,-5.337
0.158,0.050,0.274,-5.337
0.159,0.050,0.273,-5.337
0.127,0.051,0.270,-5.337
0.179,0.046,0.268,-5.337
0.253,0.045,0.269,-5.337
0.208,0.050,0.271,-5.337
0.153,0.050,0.273,-5.337
0.174,0.046,0.270,-5.337
0.180,0.047,0.269,-5.337
0.187,0.045,0.267,-5.337
0.156,0.046,0.266,-5.337
0.105,0.046,0.268,-5.337
0.132,0.044,0.269,-5.337
0.148,0.045,0.270,-5.337
0.174,0.048,0.270,-5.337
0.174,0.049,0.270,-5.337
0.191,0.052,0.274,-5.337
0.232,0.054,0.276,-5.337
0.245,0.050,0.273,-5.337
0.174,0.048,0.273,-5.337
0.098,0.051,0.270,-5.337
0.098,0.054,0.266,-5.337
0.127,0.057,0.266,-5.337
0.137,0.056,0.270,-5.337
0.128,0.054,0.273,-5.337
0.126,0.053,0.273,-5.337
0.139,0.051,0.271,-5.337
0.109,0.054,0.266,-5.337
0.140,0.054,0.264,-5.337
0.191,0.051,0.269,-5.337
0.227,0.048,0.275,-5.337
0.244,0.047,0.275,-5.337
0.196,0.049,0.271,-5.337
0.149,0.049,0.268,-5.337
0.167,0.050,0.269,-5.337
0.142,0.053,0.271,-5.337
0.192,0.055,0.274,-5.337
0.197,0.056,0.274,-5.337
0.047,0.064,0.274,-5.337
-0.001,0.062,0.273,-5.337
0.078,0.055,0.271,-5.337
0.097,0.053,0.270,-5.337
0.171,0.051,0.272,-5.337
0.175,0.054,0.271,-5.337
0.201,0.054,0.272,-5.337
0.194,0.053,0.272,-5.337
0.187,0.054,0.272,-5.337
0.135,0.057,0.274,-5.337
0.173,0.058,0.272,-5.337
0.254,0.057,0.269,-5.337
0.182,0.061,0.269,-5.337
0.047,0.061,0.272,-5.337
0.094,0.058,0.274,-5.337
0.160,0.060,0.272,-5.337
0.139,0.061,0.271,-5.337
0.150,0.062,0.274,-5.337
0.194,0.063,0.274,-5.337
0.143,0.067,0.274,-5.337
0.109,0.065,0.274,-5.337
0.166,0.065,0.277,-5.337
0.214,0.061,0.274,-5.337
0.261,0.060,0.267,-5.337
0.247,0.057,0.266,-5.337
0.125,0.058,0.273,-5.337
0.060,0.054,0.275,-5.337
0.121,0.054,0.271,-5.337
0.161,0.053,0.269,-5.337
0.183,0.054,0.270,-5.337
0.197,0.055,0.276,-5.337
0.206,0.056,0.279,-5.337
0.206,0.054,0.275,-5.337
0.253,0.052,0.269,-5.337
0.223,0.056,0.264,-5.337
0.173,0.056,0.265,-5.337
0.142,0.054,0.274,-5.337
0.151,0.052,0.278,-5.337
0.153,0.054,0.278,-5.337
0.192,0.054,0.273,-5.337
0.225,0.053,0.270,-5.337
0.211,0.059,0.269,-5.337
0.178,0.065,0.271,-5.337
0.094,0.065,0.270,-5.337
0.020,0.064,0.269,-5.337
0.114,0.060,0.267,-5.337
0.185,0.060,0.271,-5.337
0.168,0.057,0.278,-5.337
0.142,0.057,0.280,-5.337
0.153,0.057,0.276,-5.337
0.137,0.063,0.272,-5.337
0.133,0.062,0.269,-5.337
0.117,0.058,0.268,-5.337
0.161,0.057,0.267,-5.337
0.134,0.063,0.266,-5.337
0.078,0.064,0.268,-5.337
0.099,0.060,0.271,-5.337
0.180,0.057,0.273,-5.337
0.207,0.056,0.272,-5.337
0.122,0.058,0.275,-5.337
0.079,0.056,0.275,-5.337
0.114,0.058,0.274,-5.337
0.122,0.057,0.267,-5.337
0.119,0.060,0.269,-5.337
0.169,0.058,0.271,-5.337
0.165,0.057,0.273,-5.337
0.103,0.057,0.273,-5.337
0.165,0.058,0.268,-5.337
0.202,0.057,0.266,-5.337
0.133,0.059,0.270,-5.337
0.067,0.058,0.274,-5.337
0.139,0.056,0.273,-5.337
0.214,0.055,0.270,-5.337
0.224,0.053,0.270,-5.337
0.236,0.050,0.271,-5.337
0.271,0.053,0.269,-5.337
0.218,0.055,0.268,-5.337
0.177,0.055,0.269,-5.337
0.229,0.049,0.273,-5.337
0.233,0.056,0.273,-5.337
0.166,0.058,0.270,-5.337
0.104,0.060,0.265,-5.337
0.107,0.058,0.267,-5.337
0.160,0.058,0.269,-5.337
0.151,0.061,0.273,-5.337
0.109,0.062,0.276,-5.337
0.132,0.062,0.276,-5.337
0.090,0.063,0.271,-5.337
0.108,0.062,0.269,-5.337
0.153,0.059,0.272,-5.337
0.123,0.059,0.277,-5.337
0.145,0.056,0.276,-5.337
0.175,0.055,0.275,-5.337
0.119,0.059,0.272,-5.337
0.160,0.058,0.267,-5.337
0.213,0.059,0.266,-5.337
0.224,0.056,0.268,-5.337
0.171,0.055,0.271,-5.337
0.113,0.057,0.272,-5.337
0.116,0.056,0.271,-5.337
0.152,0.054,0.268,-5.337
0.171,0.057,0.269,-5.337
0.166,0.052,0.271,-5.337
0.101,0.053,0.270,-5.337
0.028,0.053,0.269,-5.337
0.151,0.049,0.271,-5.337
0.223,0.050,0.274,-5.337
0.250,0.052,0.268,-5.337
0.260,0.049,0.263,-5.337
0.192,0.050,0.268,-5.337
0.150,0.049,0.273,-5.337
0.138,0.051,0.274,-5.337
0.130,0.056,0.276,-5.337
0.150,0.055,0.280,-5.337
0.182,0.052,0.280,-5.337
0.171,0.053,0.278,-5.337
0.167,0.053,0.272,-5.337
0.158,0.053,0.268,-5.337
0.161,0.051,0.268,-5.337
0.223,0.048,0.268,-5.337
0.250,0.053,0.269,-5.337
0.215,0.054,0.273,-5.337
0.174,0.052,0.276,-5.337
0.136,0.052,0.271,-5.337
0.133,0.051,0.270,-5.337
0.168,0.050,0.267,-5.337
0.184,0.053,0.267,-5.337
0.230,0.053,0.268,-5.337
