[Parameters]
Operating Mode, Feedback
Subject  AA..ZZ, WT
Session  0..99, 44
No. Trials (1..9999), 500
Mouse Number, 1
Pressure Probe Serial Port, \00\00\00\04COM4
Save additional csv file, TRUE
Save using mouse number, FALSE
A/D Monitor Rate (Hz), 30000.000000
A/D Stimulate Rate (Hz), 30000.000000
A/D input range (+/- V), 5
No. Channels to acquire (N), 2
Pre-Stim Acq. time (ms), 100.000000
Post-Stim Acq. time (ms), 900.000000
Analysis window parameters.M-response Start (ms), 1.100000
Analysis window parameters.M-response Duration (ms), 5.500000
Analysis window parameters.H-response Duration (ms), 6.000000
Analysis window parameters.H-response Start (ms), 6.500000
Feedback window, H response
Proportional gain, 0.100000
Target value, 6.700000
Feedback Ch., 1
Stim Channel to Control (1-4), 4
Trial, 23
Wait for EMG Conditions, FALSE
Channel to monitor (0 - N-1), 1
EMG Hi Limit, 2.000000
EMG Lo Limit, 0.001000
Inter-Stim delay (sec), 10.000000
EMG Monitor Mode, Mean
Time to run Long Stim.(sec), 30
Save Long Stim Data?, OFF
BURST Save time (ms), 1000
BURST Save Interval (x above), 10
Long-Stim. Rep. Rate (Hz), 10.000000
Stim type cluster array.<size(s)>, 4
Stim type cluster array 0.Stimulus Output, Electrical
Stim type cluster array 1.Stimulus Output, OFF
Stim type cluster array 2.Stimulus Output, OFF
Stim type cluster array 3.Stimulus Output, Motor Length
Stim specs cluster array.<size(s)>, 4
Stim specs cluster array 0.Initial Stimulus ampl., 0.300000
Stim specs cluster array 0.Maximum Stimulus, 1.120000
Stim specs cluster array 0.#Pulses in train, 4
Stim specs cluster array 0.Peak Level time (ms), 1.000000
Stim specs cluster array 0.Total pulse period (ms), 150.000000
Stim specs cluster array 0.Start Delay (ms), -50.000000
Stim specs cluster array 0.Pulse Shape, Square
Stim specs cluster array 0.Ramp/Rel. time (ms), 0.100000
Stim specs cluster array 0.Peak Amplitude (V), 0.120000
Stim specs cluster array 1.Initial Stimulus ampl., 0.000000
Stim specs cluster array 1.Maximum Stimulus, 0.000000
Stim specs cluster array 1.#Pulses in train, 3
Stim specs cluster array 1.Peak Level time (ms), 29.000000
Stim specs cluster array 1.Total pulse period (ms), 200.000000
Stim specs cluster array 1.Start Delay (ms), 0.000000
Stim specs cluster array 1.Pulse Shape, Square
Stim specs cluster array 1.Ramp/Rel. time (ms), 0.000000
Stim specs cluster array 1.Peak Amplitude (V), 2.000000
Stim specs cluster array 2.Initial Stimulus ampl., 0.000000
Stim specs cluster array 2.Maximum Stimulus, 0.000000
Stim specs cluster array 2.#Pulses in train, 1
Stim specs cluster array 2.Peak Level time (ms), 25.000000
Stim specs cluster array 2.Total pulse period (ms), 200.000000
Stim specs cluster array 2.Start Delay (ms), 0.000000
Stim specs cluster array 2.Pulse Shape, Square
Stim specs cluster array 2.Ramp/Rel. time (ms), 20.000000
Stim specs cluster array 2.Peak Amplitude (V), 10.000000
Stim specs cluster array 3.Initial Stimulus ampl., 0.000000
Stim specs cluster array 3.Maximum Stimulus, 15.000000
Stim specs cluster array 3.#Pulses in train, 25
Stim specs cluster array 3.Peak Level time (ms), 0.100000
Stim specs cluster array 3.Total pulse period (ms), 4.000000
Stim specs cluster array 3.Start Delay (ms), 205.000000
Stim specs cluster array 3.Pulse Shape, Triangle
Stim specs cluster array 3.Ramp/Rel. time (ms), 3.000000
Stim specs cluster array 3.Peak Amplitude (V), 0.500000
Force cal. (mN/Volt), 100.000000
Force Range (mN), 100.000000
Length cal. (mm/Volt), 10.000000
Length Range (mm), 10.000000
Stim. 1, 0.300000
Stim. 2, 0.000000
Stim. 3, 0.000000
Stim. 4, 0.000000
Monitor acquire time (ms), 100.000000
EMG graph Ymax, 0.100000
Travel limit (mm), 20.000000
Use Pressure Probe, FALSE
Pressure goal (g), 100
Speed (mm/sec), 5.000000
Dwell time (ms), 100.000000
Pressure limit (g), 500.000000
Channel amplitude offset, 0.000000

[DATA]

0.192,0.062,0.277,-5.337
0.233,0.059,0.278,-5.337
0.221,0.062,0.277,-5.337
0.161,0.065,0.276,-5.337
0.104,0.066,0.277,-5.337
0.085,0.065,0.277,-5.337
0.145,0.065,0.274,-5.337
0.159,0.067,0.275,-5.337
0.133,0.067,0.280,-5.337
0.117,0.066,0.280,-5.337
0.176,0.065,0.278,-5.337
0.213,0.066,0.273,-5.337
0.180,0.063,0.273,-5.337
0.159,0.064,0.276,-5.337
0.200,0.067,0.279,-5.337
0.234,0.066,0.277,-5.337
0.169,0.068,0.274,-5.337
0.191,0.063,0.277,-5.337
0.272,0.061,0.277,-5.337
0.318,0.059,0.277,-5.337
0.316,0.061,0.278,-5.337
0.249,0.066,0.276,-5.337
0.203,0.066,0.275,-5.337
0.263,0.059,0.272,-5.337
0.178,0.062,0.272,-5.337
0.128,0.063,0.272,-5.337
0.191,0.062,0.276,-5.337
0.237,0.061,0.281,-5.337
0.208,0.063,0.282,-5.337
0.167,0.064,0.280,-5.337
0.147,0.066,0.277,-5.337
0.132,0.068,0.281,-5.337
0.181,0.067,0.285,-5.337
0.210,0.066,0.287,-5.337
0.179,0.064,0.279,-5.337
0.130,0.062,0.275,-5.337
0.158,0.061,0.279,-5.337
0.229,0.062,0.280,-5.337
0.227,0.062,0.277,-5.337
0.236,0.062,0.276,-5.337
0.199,0.060,0.278,-5.337
0.235,0.057,0.281,-5.337
0.296,0.056,0.279,-5.337
0.262,0.059,0.275,-5.337
0.166,0.061,0.272,-5.337
0.155,0.061,0.274,-5.337
0.166,0.063,0.276,-5.337
0.188,0.061,0.277,-5.337
0.209,0.058,0.278,-5.337
0.261,0.055,0.276,-5.337
0.262,0.058,0.275,-5.337
0.235,0.060,0.277,-5.337
0.234,0.060,0.279,-5.337
0.248,0.057,0.278,-5.337
0.221,0.058,0.278,-5.337
0.194,0.057,0.275,-5.337
0.146,0.058,0.270,-5.337
0.064,0.062,0.272,-5.337
0.013,0.065,0.273,-5.337
0.083,0.062,0.274,-5.337
0.116,0.062,0.281,-5.337
0.109,0.060,0.283,-5.337
0.148,0.063,0.284,-5.337
0.175,0.059,0.281,-5.337
0.199,0.059,0.281,-5.337
0.197,0.062,0.281,-5.337
0.171,0.059,0.281,-5.337
0.192,0.059,0.279,-5.337
0.206,0.061,0.275,-5.337
0.203,0.060,0.271,-5.337
0.143,0.062,0.270,-5.337
0.138,0.061,0.274,-5.337
0.121,0.059,0.276,-5.337
0.132,0.057,0.277,-5.337
0.207,0.054,0.276,-5.337
0.221,0.056,0.273,-5.337
0.196,0.059,0.269,-5.337
0.210,0.058,0.273,-5.337
0.181,0.058,0.278,-5.337
0.139,0.059,0.274,-5.337
0.150,0.053,0.271,-5.337
0.209,0.049,0.275,-5.337
0.265,0.051,0.279,-5.337
0.218,0.053,0.280,-5.337
0.254,0.052,0.279,-5.337
0.253,0.054,0.276,-5.337
0.199,0.051,0.275,-5.337
0.143,0.051,0.275,-5.337
0.132,0.052,0.273,-5.337
0.144,0.054,0.270,-5.337
0.204,0.054,0.270,-5.337
0.236,0.054,0.272,-5.337
0.292,0.054,0.272,-5.337
0.254,0.056,0.274,-5.337
0.184,0.056,0.276,-5.337
0.261,0.051,0.275,-5.337
0.350,0.051,0.276,-5.337
0.252,0.053,0.277,-5.337
0.133,0.057,0.279,-5.337
0.120,0.055,0.278,-5.337
0.187,0.056,0.276,-5.337
0.142,0.057,0.272,-5.337
0.156,0.056,0.269,-5.337
0.234,0.052,0.270,-5.337
0.272,0.050,0.277,-5.337
0.220,0.050,0.280,-5.337
0.147,0.054,0.279,-5.337
0.162,0.053,0.275,-5.337
0.223,0.051,0.275,-5.337
0.233,0.052,0.276,-5.337
0.218,0.051,0.275,-5.337
0.233,0.047,0.275,-5.337
0.235,0.048,0.276,-5.337
0.182,0.052,0.275,-5.337
0.128,0.056,0.272,-5.337
0.115,0.055,0.272,-5.337
0.124,0.055,0.273,-5.337
0.139,0.055,0.274,-5.337
0.179,0.052,0.277,-5.337
0.186,0.050,0.278,-5.337
0.133,0.051,0.278,-5.337
0.093,0.055,0.274,-5.337
0.093,0.053,0.270,-5.337
0.128,0.052,0.273,-5.337
0.186,0.050,0.275,-5.337
0.255,0.049,0.276,-5.337
0.244,0.050,0.274,-5.337
0.209,0.051,0.272,-5.337
0.212,0.049,0.279,-5.337
0.211,0.051,0.281,-5.337
0.187,0.049,0.278,-5.337
0.177,0.048,0.275,-5.337
0.172,0.049,0.271,-5.337
0.151,0.050,0.271,-5.337
0.178,0.049,0.276,-5.337
0.221,0.047,0.276,-5.337
0.205,0.046,0.272,-5.337
0.154,0.051,0.272,-5.337
0.137,0.054,0.276,-5.337
0.179,0.049,0.277,-5.337
0.222,0.044,0.279,-5.337
0.225,0.045,0.277,-5.337
0.157,0.048,0.276,-5.337
0.084,0.046,0.273,-5.337
0.109,0.044,0.279,-5.337
0.194,0.045,0.280,-5.337
0.184,0.046,0.277,-5.337
0.130,0.046,0.269,-5.337
0.072,0.048,0.270,-5.337
0.098,0.049,0.274,-5.337
0.163,0.049,0.278,-5.337
0.226,0.045,0.278,-5.337
0.265,0.043,0.275,-5.337
0.247,0.043,0.273,-5.337
0.227,0.042,0.273,-5.337
0.234,0.041,0.276,-5.337
0.288,0.038,0.274,-5.337
0.241,0.038,0.275,-5.337
0.180,0.039,0.275,-5.337
0.181,0.041,0.278,-5.337
0.155,0.040,0.277,-5.337
0.138,0.046,0.276,-5.337
0.167,0.047,0.279,-5.337
0.151,0.046,0.282,-5.337
0.098,0.048,0.282,-5.337
0.073,0.049,0.277,-5.337
0.143,0.046,0.272,-5.337
0.168,0.049,0.269,-5.337
0.152,0.049,0.273,-5.337
0.151,0.047,0.275,-5.337
0.213,0.042,0.278,-5.337
0.292,0.043,0.277,-5.337
0.229,0.045,0.274,-5.337
0.198,0.042,0.274,-5.337
0.213,0.045,0.278,-5.337
0.212,0.042,0.278,-5.337
0.150,0.041,0.276,-5.337
0.151,0.039,0.274,-5.337
0.206,0.040,0.276,-5.337
0.242,0.040,0.275,-5.337
0.259,0.039,0.275,-5.337
0.179,0.040,0.271,-5.337
0.138,0.042,0.270,-5.337
0.102,0.042,0.271,-5.337
0.159,0.040,0.274,-5.337
0.252,0.037,0.275,-5.337
0.271,0.040,0.278,-5.337
0.223,0.040,0.277,-5.337
0.127,0.042,0.277,-5.337
0.138,0.037,0.278,-5.337
0.144,0.039,0.277,-5.337
0.149,0.040,0.272,-5.337
0.171,0.041,0.272,-5.337
0.171,0.041,0.276,-5.337
0.154,0.042,0.281,-5.337
0.171,0.041,0.283,-5.337
0.156,0.042,0.280,-5.337
0.171,0.042,0.275,-5.337
0.192,0.039,0.273,-5.337
0.180,0.038,0.272,-5.337
0.201,0.038,0.272,-5.337
0.210,0.037,0.271,-5.337
0.197,0.038,0.272,-5.337
0.172,0.037,0.274,-5.337
0.210,0.037,0.275,-5.337
0.194,0.041,0.277,-5.337
0.135,0.045,0.280,-5.337
0.133,0.042,0.278,-5.337
0.114,0.041,0.276,-5.337
0.134,0.041,0.274,-5.337
0.140,0.041,0.273,-5.337
0.140,0.044,0.273,-5.337
0.235,0.039,0.270,-5.337
0.290,0.040,0.268,-5.337
0.249,0.041,0.268,-5.337
0.189,0.042,0.273,-5.337
0.156,0.040,0.278,-5.337
0.162,0.038,0.280,-5.337
0.225,0.038,0.280,-5.337
0.239,0.039,0.278,-5.337
0.226,0.043,0.277,-5.337
0.216,0.044,0.275,-5.337
0.224,0.044,0.277,-5.337
0.193,0.042,0.278,-5.337
0.178,0.038,0.274,-5.337
0.231,0.034,0.269,-5.337
0.235,0.037,0.270,-5.337
0.180,0.040,0.276,-5.337
0.161,0.041,0.276,-5.337
0.207,0.035,0.273,-5.337
0.236,0.036,0.273,-5.337
0.258,0.037,0.276,-5.337
0.221,0.038,0.277,-5.337
0.149,0.040,0.276,-5.337
0.133,0.040,0.276,-5.337
0.167,0.039,0.273,-5.337
0.163,0.039,0.272,-5.337
0.217,0.035,0.275,-5.337
0.235,0.035,0.280,-5.337
0.195,0.036,0.280,-5.337
0.156,0.037,0.275,-5.337
0.172,0.037,0.272,-5.337
0.169,0.039,0.269,-5.337
0.180,0.038,0.271,-5.337
0.177,0.037,0.271,-5.337
0.141,0.037,0.276,-5.337
0.078,0.037,0.278,-5.337
0.080,0.035,0.279,-5.337
0.179,0.031,0.279,-5.337
0.232,0.032,0.280,-5.337
0.307,0.032,0.278,-5.337
0.275,0.030,0.277,-5.337
0.199,0.030,0.277,-5.337
0.167,0.037,0.273,-5.337
0.229,0.036,0.272,-5.337
0.288,0.034,0.277,-5.337
0.259,0.036,0.279,-5.337
0.231,0.036,0.275,-5.337
0.230,0.036,0.271,-5.337
0.163,0.039,0.268,-5.337
0.162,0.036,0.269,-5.337
0.145,0.039,0.274,-5.337
0.125,0.039,0.279,-5.337
0.151,0.044,0.278,-5.337
0.182,0.043,0.274,-5.337
0.175,0.040,0.273,-5.337
0.140,0.041,0.276,-5.337
0.144,0.038,0.277,-5.337
0.220,0.035,0.276,-5.337
0.247,0.037,0.273,-5.337
0.194,0.039,0.273,-5.337
0.124,0.041,0.276,-5.337
0.166,0.045,0.273,-5.337
0.189,0.042,0.269,-5.337
0.247,0.036,0.271,-5.337
0.269,0.034,0.274,-5.337
0.204,0.034,0.276,-5.337
0.185,0.039,0.275,-5.337
0.180,0.042,0.278,-5.337
0.174,0.042,0.280,-5.337
0.186,0.040,0.277,-5.337
0.260,0.034,0.277,-5.337
0.214,0.036,0.278,-5.337
0.173,0.036,0.279,-5.337
0.199,0.033,0.280,-5.337
0.183,0.039,0.277,-5.337
0.158,0.038,0.271,-5.337
0.176,0.035,0.272,-5.337
0.164,0.035,0.275,-5.337
0.199,0.036,0.278,-5.337
0.185,0.039,0.273,-5.337
0.104,0.044,0.269,-5.337
0.102,0.039,0.272,-5.337
0.160,0.036,0.277,-5.337
0.153,0.037,0.277,-5.337
0.169,0.036,0.277,-5.337
0.221,0.038,0.275,-5.337
0.174,0.038,0.275,-5.337
0.122,0.038,0.275,-5.337
0.156,0.040,0.275,-5.337
0.190,0.039,0.278,-5.337
0.144,0.042,0.281,-5.337
0.128,0.042,0.279,-5.337
0.189,0.044,0.274,-5.337
0.204,0.044,0.276,-5.337
0.138,0.044,0.278,-5.337
0.113,0.042,0.278,-5.337
0.099,0.042,0.278,-5.337
0.118,0.040,0.281,-5.337
0.197,0.034,0.280,-5.337
0.238,0.034,0.277,-5.337
0.191,0.035,0.271,-5.337
0.164,0.034,0.273,-5.337
0.210,0.033,0.277,-5.337
0.190,0.033,0.279,-5.337
0.197,0.030,0.281,-5.337
0.192,0.035,0.280,-5.337
0.112,0.041,0.274,-5.337
0.072,0.042,0.269,-5.337
0.097,0.039,0.270,-5.337
0.180,0.035,0.275,-5.337
0.167,0.037,0.277,-5.337
0.114,0.039,0.276,-5.337
0.145,0.040,0.277,-5.337
0.156,0.041,0.278,-5.337
0.152,0.041,0.280,-5.337
0.159,0.042,0.279,-5.337
0.199,0.042,0.278,-5.337
0.169,0.043,0.276,-5.337
0.117,0.046,0.277,-5.337
0.166,0.046,0.277,-5.337
0.159,0.049,0.276,-5.337
0.108,0.048,0.273,-5.337
0.161,0.043,0.275,-5.337
0.180,0.041,0.275,-5.337
0.187,0.045,0.275,-5.337
0.231,0.045,0.275,-5.337
0.281,0.043,0.278,-5.337
0.292,0.039,0.280,-5.337
0.252,0.039,0.279,-5.337
0.228,0.041,0.276,-5.337
0.217,0.044,0.276,-5.337
0.168,0.046,0.276,-5.337
0.153,0.047,0.277,-5.337
0.116,0.045,0.278,-5.337
0.098,0.046,0.276,-5.337
0.182,0.048,0.274,-5.337
0.190,0.046,0.270,-5.337
0.137,0.050,0.269,-5.337
0.064,0.050,0.269,-5.337
0.060,0.050,0.274,-5.337
0.134,0.048,0.274,-5.337
0.146,0.048,0.272,-5.337
0.108,0.049,0.270,-5.337
0.118,0.045,0.276,-5.337
0.171,0.044,0.276,-5.337
0.210,0.046,0.276,-5.337
0.235,0.049,0.276,-5.337
0.233,0.050,0.276,-5.337
0.189,0.047,0.277,-5.337
0.131,0.049,0.276,-5.337
0.137,0.047,0.272,-5.337
0.192,0.046,0.273,-5.337
0.227,0.047,0.280,-5.337
0.234,0.049,0.278,-5.337
0.186,0.049,0.272,-5.337
0.169,0.049,0.267,-5.337
0.135,0.051,0.270,-5.337
0.099,0.053,0.275,-5.337
0.054,0.054,0.279,-5.337
0.113,0.050,0.278,-5.337
0.171,0.052,0.277,-5.337
0.225,0.052,0.276,-5.337
0.244,0.051,0.277,-5.337
0.242,0.047,0.273,-5.337
0.200,0.052,0.271,-5.337
0.237,0.049,0.271,-5.337
0.244,0.049,0.272,-5.337
0.232,0.046,0.271,-5.337
0.201,0.051,0.276,-5.337
0.178,0.051,0.276,-5.337
0.130,0.054,0.277,-5.337
0.133,0.057,0.277,-5.337
0.091,0.060,0.278,-5.337
0.152,0.053,0.277,-5.337
0.244,0.051,0.277,-5.337
0.205,0.052,0.277,-5.337
0.191,0.050,0.273,-5.337
0.189,0.048,0.274,-5.337
0.255,0.046,0.273,-5.337
0.261,0.049,0.271,-5.337
0.226,0.051,0.268,-5.337
0.242,0.050,0.271,-5.337
0.231,0.052,0.272,-5.337
0.219,0.052,0.277,-5.337
0.218,0.052,0.276,-5.337
0.193,0.051,0.274,-5.337
0.167,0.052,0.275,-5.337
0.132,0.054,0.274,-5.337
0.160,0.053,0.273,-5.337
0.229,0.048,0.274,-5.337
0.211,0.047,0.277,-5.337
0.199,0.048,0.277,-5.337
0.184,0.054,0.275,-5.337
0.157,0.053,0.275,-5.337
0.177,0.051,0.274,-5.337
0.183,0.052,0.276,-5.337
0.186,0.054,0.276,-5.337
0.176,0.054,0.273,-5.337
0.187,0.053,0.273,-5.337
0.218,0.054,0.269,-5.337
0.192,0.051,0.267,-5.337
0.201,0.051,0.268,-5.337
0.217,0.055,0.271,-5.337
0.173,0.054,0.271,-5.337
0.180,0.052,0.273,-5.337
0.181,0.050,0.272,-5.337
0.173,0.054,0.273,-5.337
0.145,0.056,0.273,-5.337
0.161,0.054,0.270,-5.337
0.180,0.050,0.268,-5.337
0.159,0.051,0.271,-5.337
0.221,0.049,0.273,-5.337
0.256,0.051,0.277,-5.337
0.267,0.049,0.278,-5.337
0.262,0.049,0.277,-5.337
0.288,0.047,0.276,-5.337
0.286,0.045,0.277,-5.337
0.248,0.048,0.272,-5.337
0.184,0.054,0.265,-5.337
0.182,0.054,0.268,-5.337
0.220,0.055,0.273,-5.337
0.244,0.054,0.277,-5.337
0.168,0.058,0.274,-5.337
0.137,0.060,0.272,-5.337
0.165,0.057,0.272,-5.337
0.226,0.053,0.274,-5.337
0.216,0.054,0.270,-5.337
0.228,0.053,0.268,-5.337
0.230,0.055,0.271,-5.337
0.215,0.058,0.275,-5.337
0.216,0.057,0.274,-5.337
0.211,0.057,0.273,-5.337
0.205,0.059,0.270,-5.337
0.175,0.061,0.270,-5.337
0.172,0.061,0.271,-5.337
0.151,0.059,0.269,-5.337
0.180,0.057,0.269,-5.337
0.235,0.058,0.271,-5.337
0.227,0.059,0.272,-5.337
0.214,0.059,0.276,-5.337
0.213,0.056,0.278,-5.337
0.226,0.053,0.272,-5.337
0.204,0.054,0.269,-5.337
0.194,0.054,0.273,-5.337
0.228,0.053,0.278,-5.337
0.217,0.058,0.279,-5.337
0.178,0.054,0.276,-5.337
0.212,0.053,0.273,-5.337
0.268,0.055,0.273,-5.337
0.278,0.054,0.267,-5.337
0.250,0.055,0.266,-5.337
0.241,0.056,0.266,-5.337
0.247,0.059,0.269,-5.337
0.205,0.059,0.271,-5.337
0.187,0.056,0.269,-5.337
0.207,0.056,0.270,-5.337
0.201,0.060,0.273,-5.337
0.243,0.059,0.272,-5.337
0.215,0.060,0.269,-5.337
0.141,0.064,0.268,-5.337
0.091,0.064,0.268,-5.337
0.115,0.064,0.271,-5.337
0.133,0.063,0.269,-5.337
0.109,0.063,0.270,-5.337
0.153,0.062,0.275,-5.337
0.243,0.064,0.278,-5.337
0.230,0.064,0.276,-5.337
0.145,0.061,0.273,-5.337
0.159,0.061,0.269,-5.337
0.165,0.064,0.268,-5.337
0.180,0.063,0.269,-5.337
0.160,0.063,0.272,-5.337
0.176,0.061,0.274,-5.337
0.220,0.061,0.276,-5.337
0.253,0.059,0.278,-5.337
0.234,0.061,0.275,-5.337
0.218,0.058,0.270,-5.337
0.236,0.059,0.266,-5.337
0.204,0.063,0.268,-5.337
0.125,0.067,0.271,-5.337
0.121,0.067,0.271,-5.337
0.175,0.065,0.271,-5.337
0.145,0.063,0.270,-5.337
0.155,0.061,0.268,-5.337
0.192,0.065,0.270,-5.337
0.177,0.068,0.272,-5.337
0.170,0.065,0.272,-5.337
0.272,0.063,0.270,-5.337
0.254,0.065,0.268,-5.337
0.219,0.066,0.267,-5.337
0.253,0.063,0.266,-5.337
0.261,0.061,0.266,-5.337
0.250,0.065,0.268,-5.337
0.221,0.063,0.275,-5.337
0.213,0.060,0.278,-5.337
0.265,0.056,0.274,-5.337
0.269,0.059,0.268,-5.337
0.236,0.059,0.269,-5.337
0.231,0.060,0.271,-5.337
0.191,0.063,0.271,-5.337
0.149,0.065,0.273,-5.337
0.144,0.067,0.274,-5.337
0.131,0.068,0.273,-5.337
0.171,0.063,0.271,-5.337
0.172,0.062,0.271,-5.337
0.169,0.063,0.273,-5.337
0.220,0.063,0.272,-5.337
0.151,0.066,0.271,-5.337
0.179,0.063,0.269,-5.337
0.202,0.064,0.268,-5.337
0.205,0.062,0.269,-5.337
0.195,0.066,0.272,-5.337
0.197,0.063,0.273,-5.337
0.184,0.064,0.275,-5.337
0.220,0.061,0.273,-5.337
0.225,0.063,0.271,-5.337
0.245,0.061,0.268,-5.337
0.261,0.058,0.272,-5.337
0.256,0.056,0.276,-5.337
0.264,0.056,0.273,-5.337
0.258,0.058,0.268,-5.337
0.201,0.062,0.267,-5.337
0.216,0.059,0.269,-5.337
0.206,0.059,0.272,-5.337
0.172,0.060,0.275,-5.337
0.171,0.063,0.277,-5.337
0.192,0.063,0.276,-5.337
0.260,0.062,0.269,-5.337
0.286,0.061,0.265,-5.337
0.243,0.062,0.266,-5.337
0.162,0.064,0.270,-5.337
0.138,0.061,0.272,-5.337
0.194,0.058,0.271,-5.337
0.211,0.059,0.269,-5.337
0.205,0.065,0.272,-5.337
0.163,0.066,0.278,-5.337
0.091,0.066,0.277,-5.337
0.130,0.060,0.271,-5.337
0.205,0.059,0.266,-5.337
0.235,0.056,0.267,-5.337
0.249,0.057,0.271,-5.337
0.205,0.062,0.271,-5.337
0.271,0.060,0.269,-5.337
0.338,0.057,0.270,-5.337
0.261,0.054,0.274,-5.337
0.173,0.054,0.276,-5.337
0.105,0.058,0.271,-5.337
0.151,0.058,0.271,-5.337
0.192,0.057,0.270,-5.337
0.165,0.057,0.272,-5.337
0.174,0.056,0.272,-5.337
0.219,0.055,0.274,-5.337
0.227,0.056,0.272,-5.337
0.177,0.056,0.271,-5.337
0.142,0.056,0.270,-5.337
0.121,0.059,0.270,-5.337
0.158,0.056,0.276,-5.337
0.265,0.055,0.279,-5.337
0.294,0.053,0.276,-5.337
0.212,0.054,0.271,-5.337
0.164,0.056,0.264,-5.337
0.179,0.057,0.268,-5.337
0.189,0.055,0.273,-5.337
0.268,0.052,0.275,-5.337
0.320,0.052,0.273,-5.337
0.305,0.054,0.270,-5.337
0.246,0.055,0.275,-5.337
0.175,0.055,0.276,-5.337
0.197,0.056,0.272,-5.337
0.290,0.055,0.268,-5.337
0.261,0.057,0.272,-5.337
0.208,0.057,0.274,-5.337
0.184,0.056,0.272,-5.337
0.182,0.056,0.268,-5.337
0.208,0.054,0.269,-5.337
0.225,0.057,0.271,-5.337
0.191,0.055,0.272,-5.337
0.182,0.053,0.273,-5.337
0.208,0.051,0.274,-5.337
0.189,0.056,0.272,-5.337
0.182,0.054,0.273,-5.337
0.215,0.049,0.272,-5.337
0.209,0.048,0.271,-5.337
0.182,0.049,0.269,-5.337
0.215,0.053,0.270,-5.337
0.198,0.059,0.270,-5.337
0.155,0.061,0.268,-5.337
0.138,0.062,0.272,-5.337
0.097,0.057,0.276,-5.337
0.176,0.052,0.276,-5.337
0.255,0.051,0.272,-5.337
0.205,0.056,0.270,-5.337
0.170,0.058,0.269,-5.337
0.203,0.058,0.268,-5.337
0.184,0.057,0.269,-5.337
0.159,0.057,0.274,-5.337
0.205,0.056,0.277,-5.337
0.223,0.057,0.279,-5.337
0.211,0.055,0.276,-5.337
0.175,0.056,0.272,-5.337
0.150,0.059,0.271,-5.337
0.158,0.056,0.273,-5.337
0.157,0.054,0.272,-5.337
0.118,0.056,0.271,-5.337
0.117,0.056,0.271,-5.337
0.172,0.054,0.272,-5.337
0.241,0.052,0.274,-5.337
0.252,0.053,0.276,-5.337
0.200,0.053,0.279,-5.337
0.240,0.052,0.279,-5.337
0.249,0.053,0.273,-5.337
0.225,0.048,0.267,-5.337
0.218,0.047,0.265,-5.337
0.166,0.054,0.267,-5.337
0.076,0.053,0.270,-5.337
0.163,0.046,0.270,-5.337
0.260,0.047,0.271,-5.337
0.278,0.046,0.268,-5.337
0.224,0.049,0.269,-5.337
0.209,0.045,0.273,-5.337
0.239,0.046,0.274,-5.337
0.222,0.051,0.269,-5.337
0.161,0.051,0.270,-5.337
0.099,0.050,0.274,-5.337
0.100,0.049,0.275,-5.337
0.170,0.046,0.275,-5.337
0.192,0.046,0.275,-5.337
0.196,0.047,0.272,-5.337
0.205,0.048,0.268,-5.337
0.248,0.046,0.272,-5.337
0.161,0.047,0.273,-5.337
0.149,0.045,0.273,-5.337
0.137,0.046,0.271,-5.337
0.117,0.048,0.272,-5.337
0.131,0.049,0.272,-5.337
0.165,0.048,0.271,-5.337
0.187,0.047,0.269,-5.337
0.194,0.049,0.268,-5.337
0.190,0.048,0.269,-5.337
0.172,0.054,0.272,-5.337
0.175,0.054,0.273,-5.337
0.151,0.052,0.276,-5.337
0.131,0.053,0.278,-5.337
0.143,0.053,0.273,-5.337
0.149,0.051,0.269,-5.337
0.168,0.048,0.270,-5.337
0.119,0.050,0.270,-5.337
0.178,0.049,0.270,-5.337
0.236,0.051,0.270,-5.337
0.233,0.051,0.269,-5.337
0.193,0.050,0.271,-5.337
0.164,0.050,0.271,-5.337
0.202,0.050,0.271,-5.337
0.239,0.047,0.271,-5.337
0.228,0.048,0.274,-5.337
0.200,0.047,0.274,-5.337
0.185,0.045,0.274,-5.337
0.180,0.047,0.270,-5.337
0.224,0.051,0.268,-5.337
0.221,0.053,0.266,-5.337
0.173,0.056,0.266,-5.337
0.162,0.053,0.268,-5.337
0.193,0.050,0.270,-5.337
0.199,0.046,0.272,-5.337
0.203,0.048,0.271,-5.337
0.219,0.046,0.268,-5.337
0.201,0.045,0.268,-5.337
0.147,0.045,0.269,-5.337
0.126,0.047,0.269,-5.337
0.126,0.048,0.272,-5.337
0.187,0.046,0.273,-5.337
0.135,0.044,0.273,-5.337
0.118,0.044,0.272,-5.337
0.126,0.045,0.273,-5.337
0.195,0.043,0.272,-5.337
0.316,0.044,0.270,-5.337
0.280,0.046,0.268,-5.337
0.138,0.048,0.272,-5.337
0.122,0.045,0.277,-5.337
0.181,0.044,0.274,-5.337
0.233,0.041,0.272,-5.337
0.249,0.041,0.273,-5.337
0.219,0.041,0.273,-5.337
0.203,0.043,0.272,-5.337
0.202,0.046,0.275,-5.337
0.205,0.045,0.277,-5.337
0.181,0.042,0.274,-5.337
0.189,0.044,0.269,-5.337
0.225,0.044,0.270,-5.337
0.230,0.041,0.271,-5.337
0.207,0.039,0.270,-5.337
0.235,0.040,0.269,-5.337
0.234,0.041,0.271,-5.337
0.226,0.043,0.269,-5.337
0.202,0.042,0.268,-5.337
0.189,0.042,0.270,-5.337
0.162,0.042,0.272,-5.337
0.118,0.045,0.271,-5.337
0.126,0.049,0.271,-5.337
0.154,0.047,0.268,-5.337
0.124,0.045,0.269,-5.337
0.147,0.044,0.269,-5.337
0.170,0.044,0.271,-5.337
0.188,0.043,0.277,-5.337
0.210,0.045,0.280,-5.337
0.207,0.047,0.276,-5.337
0.214,0.045,0.272,-5.337
0.231,0.043,0.273,-5.337
0.166,0.043,0.274,-5.337
0.130,0.042,0.274,-5.337
0.139,0.042,0.271,-5.337
0.126,0.043,0.271,-5.337
0.234,0.039,0.274,-5.337
0.263,0.037,0.277,-5.337
0.181,0.042,0.277,-5.337
0.163,0.040,0.276,-5.337
0.184,0.039,0.274,-5.337
0.197,0.041,0.276,-5.337
0.222,0.041,0.273,-5.337
0.198,0.044,0.271,-5.337
0.243,0.043,0.270,-5.337
0.292,0.041,0.270,-5.337
0.276,0.041,0.267,-5.337
0.282,0.042,0.267,-5.337
0.216,0.042,0.266,-5.337
0.162,0.046,0.270,-5.337
0.101,0.045,0.270,-5.337
0.147,0.046,0.267,-5.337
0.181,0.046,0.269,-5.337
0.172,0.048,0.269,-5.337
0.164,0.045,0.269,-5.337
0.149,0.045,0.270,-5.337
0.169,0.046,0.270,-5.337
0.221,0.046,0.272,-5.337
0.188,0.047,0.273,-5.337
0.166,0.043,0.270,-5.337
0.164,0.041,0.272,-5.337
0.161,0.045,0.275,-5.337
0.119,0.047,0.275,-5.337
0.147,0.043,0.273,-5.337
0.171,0.043,0.276,-5.337
0.161,0.047,0.278,-5.337
0.161,0.048,0.275,-5.337
0.180,0.044,0.269,-5.337
0.258,0.044,0.269,-5.337
0.315,0.043,0.272,-5.337
0.280,0.047,0.274,-5.337
0.236,0.045,0.273,-5.337
0.231,0.047,0.271,-5.337
0.225,0.051,0.272,-5.337
0.192,0.053,0.270,-5.337
0.215,0.048,0.270,-5.337
0.193,0.045,0.273,-5.337
0.192,0.043,0.274,-5.337
0.182,0.045,0.273,-5.337
0.176,0.043,0.273,-5.337
0.151,0.043,0.271,-5.337
0.164,0.042,0.271,-5.337
0.181,0.042,0.268,-5.337
0.144,0.042,0.267,-5.337
0.116,0.042,0.265,-5.337
0.122,0.045,0.270,-5.337
0.123,0.046,0.272,-5.337
0.153,0.046,0.277,-5.337
0.227,0.045,0.274,-5.337
0.293,0.043,0.272,-5.337
0.261,0.042,0.272,-5.337
0.176,0.047,0.276,-5.337
0.135,0.046,0.277,-5.337
0.138,0.047,0.276,-5.337
0.105,0.045,0.271,-5.337
0.153,0.043,0.271,-5.337
0.219,0.044,0.273,-5.337
0.216,0.042,0.273,-5.337
0.135,0.044,0.268,-5.337
0.130,0.045,0.264,-5.337
0.175,0.043,0.266,-5.337
0.173,0.045,0.274,-5.337
0.195,0.043,0.275,-5.337
0.227,0.042,0.272,-5.337
0.240,0.042,0.272,-5.337
0.196,0.043,0.269,-5.337
0.193,0.040,0.270,-5.337
0.242,0.041,0.271,-5.337
0.213,0.043,0.273,-5.337
0.154,0.042,0.275,-5.337
0.208,0.038,0.276,-5.337
0.278,0.037,0.275,-5.337
0.235,0.047,0.274,-5.337
0.187,0.048,0.272,-5.337
0.200,0.041,0.271,-5.337
0.176,0.042,0.272,-5.337
0.147,0.044,0.271,-5.337
0.170,0.045,0.271,-5.337
0.171,0.047,0.274,-5.337
0.184,0.044,0.275,-5.337
0.185,0.041,0.273,-5.337
0.140,0.041,0.272,-5.337
0.078,0.046,0.274,-5.337
0.132,0.047,0.273,-5.337
0.223,0.047,0.270,-5.337
0.210,0.047,0.271,-5.337
0.157,0.049,0.275,-5.337
0.174,0.047,0.276,-5.337
0.192,0.044,0.274,-5.337
0.235,0.044,0.273,-5.337
0.213,0.044,0.270,-5.337
0.213,0.048,0.268,-5.337
0.234,0.048,0.268,-5.337
0.241,0.046,0.273,-5.337
0.247,0.047,0.274,-5.337
0.223,0.049,0.273,-5.337
0.155,0.051,0.272,-5.337
0.179,0.050,0.272,-5.337
0.228,0.047,0.273,-5.337
0.190,0.054,0.279,-5.337
0.158,0.056,0.279,-5.337
0.136,0.055,0.276,-5.337
0.125,0.053,0.273,-5.337
0.156,0.053,0.270,-5.337
0.182,0.049,0.269,-5.337
0.162,0.048,0.272,-5.337
0.180,0.046,0.275,-5.337
0.223,0.047,0.275,-5.337
0.196,0.049,0.275,-5.337
0.184,0.045,0.274,-5.337
0.243,0.043,0.272,-5.337
0.256,0.046,0.275,-5.337
0.202,0.050,0.277,-5.337
0.185,0.051,0.274,-5.337
0.224,0.048,0.269,-5.337
0.209,0.051,0.269,-5.337
0.148,0.057,0.275,-5.337
0.150,0.056,0.277,-5.337
0.192,0.051,0.279,-5.337
0.196,0.050,0.276,-5.337
0.143,0.050,0.271,-5.337
0.136,0.048,0.267,-5.337
0.186,0.045,0.266,-5.337
0.156,0.048,0.266,-5.337
0.107,0.055,0.265,-5.337
0.084,0.058,0.265,-5.337
0.098,0.055,0.271,-5.337
0.085,0.055,0.276,-5.337
0.145,0.055,0.277,-5.337
0.139,0.059,0.276,-5.337
0.141,0.054,0.273,-5.337
0.161,0.051,0.270,-5.337
0.234,0.051,0.268,-5.337
0.209,0.054,0.272,-5.337
0.195,0.054,0.273,-5.337
0.137,0.055,0.270,-5.337
0.208,0.053,0.267,-5.337
0.236,0.056,0.272,-5.337
0.215,0.056,0.275,-5.337
0.191,0.053,0.277,-5.337
0.242,0.048,0.281,-5.337
0.247,0.049,0.279,-5.337
0.194,0.050,0.275,-5.337
0.113,0.054,0.273,-5.337
0.115,0.054,0.272,-5.337
0.145,0.054,0.272,-5.337
0.195,0.052,0.272,-5.337
0.242,0.054,0.274,-5.337
0.208,0.054,0.276,-5.337
0.210,0.054,0.274,-5.337
0.223,0.054,0.272,-5.337
0.194,0.055,0.271,-5.337
0.212,0.056,0.271,-5.337
0.212,0.056,0.268,-5.337
0.202,0.056,0.272,-5.337
0.241,0.056,0.276,-5.337
0.234,0.058,0.272,-5.337
0.136,0.057,0.270,-5.337
0.140,0.057,0.274,-5.337
0.189,0.057,0.275,-5.337
0.186,0.060,0.275,-5.337
0.170,0.061,0.274,-5.337
0.196,0.057,0.273,-5.337
0.179,0.053,0.273,-5.337
0.117,0.057,0.273,-5.337
0.191,0.057,0.273,-5.337
0.205,0.059,0.275,-5.337
0.138,0.060,0.274,-5.337
0.171,0.055,0.273,-5.337
0.160,0.059,0.273,-5.337
0.084,0.064,0.271,-5.337
0.098,0.064,0.271,-5.337
0.174,0.061,0.271,-5.337
0.228,0.060,0.274,-5.337
0.225,0.060,0.275,-5.337
0.211,0.060,0.274,-5.337
0.206,0.060,0.271,-5.337
0.264,0.061,0.267,-5.337
0.261,0.065,0.265,-5.337
0.213,0.067,0.269,-5.337
0.241,0.061,0.271,-5.337
0.272,0.056,0.273,-5.337
0.223,0.060,0.273,-5.337
0.172,0.062,0.273,-5.337
0.229,0.060,0.271,-5.337
0.241,0.061,0.271,-5.337
0.187,0.061,0.269,-5.337
0.118,0.066,0.272,-5.337
0.089,0.072,0.273,-5.337
0.103,0.067,0.270,-5.337
0.156,0.062,0.274,-5.337
0.156,0.067,0.275,-5.337
0.085,0.071,0.276,-5.337
0.117,0.066,0.275,-5.337
0.180,0.060,0.278,-5.337
0.276,0.058,0.278,-5.337
0.260,0.065,0.277,-5.337
0.200,0.067,0.272,-5.337
0.160,0.070,0.268,-5.337
0.127,0.069,0.264,-5.337
0.161,0.065,0.268,-5.337
0.159,0.066,0.272,-5.337
0.146,0.066,0.272,-5.337
0.124,0.068,0.270,-5.337
0.099,0.067,0.269,-5.337
0.139,0.066,0.270,-5.337
0.189,0.067,0.271,-5.337
0.198,0.067,0.270,-5.337
0.218,0.065,0.269,-5.337
0.289,0.066,0.271,-5.337
0.301,0.067,0.272,-5.337
0.224,0.069,0.272,-5.337
0.121,0.074,0.272,-5.337
0.084,0.075,0.269,-5.337
0.168,0.070,0.264,-5.337
0.238,0.069,0.266,-5.337
0.212,0.073,0.270,-5.337
0.164,0.077,0.273,-5.337
0.123,0.075,0.270,-5.337
0.148,0.071,0.270,-5.337
0.205,0.070,0.272,-5.337
0.223,0.072,0.270,-5.337
0.203,0.071,0.268,-5.337
0.275,0.072,0.272,-5.337
0.217,0.070,0.274,-5.337
0.183,0.071,0.273,-5.337
0.181,0.070,0.274,-5.337
0.130,0.071,0.275,-5.337
0.217,0.068,0.274,-5.337
0.260,0.069,0.273,-5.337
0.176,0.071,0.275,-5.337
0.152,0.070,0.274,-5.337
0.229,0.065,0.275,-5.337
0.238,0.061,0.272,-5.337
0.212,0.064,0.268,-5.337
0.190,0.064,0.267,-5.337
0.193,0.062,0.276,-5.337
0.190,0.061,0.278,-5.337
0.161,0.061,0.273,-5.337
0.185,0.063,0.267,-5.337
0.180,0.066,0.267,-5.337
0.166,0.066,0.268,-5.337
0.082,0.070,0.272,-5.337
0.046,0.070,0.273,-5.337
0.117,0.067,0.272,-5.337
0.193,0.062,0.276,-5.337
0.247,0.063,0.276,-5.337
0.288,0.063,0.273,-5.337
0.310,0.065,0.273,-5.337
0.249,0.065,0.273,-5.337
0.203,0.066,0.272,-5.337
0.187,0.066,0.273,-5.337
0.283,0.064,0.274,-5.337
0.257,0.063,0.272,-5.337
0.282,0.065,0.271,-5.337
0.245,0.070,0.273,-5.337
0.193,0.071,0.279,-5.337
0.209,0.070,0.279,-5.337
0.225,0.070,0.276,-5.337
0.255,0.067,0.272,-5.337
0.228,0.072,0.269,-5.337
0.221,0.072,0.274,-5.337
0.257,0.068,0.278,-5.337
0.246,0.069,0.277,-5.337
0.178,0.070,0.270,-5.337
0.179,0.069,0.268,-5.337
0.170,0.067,0.269,-5.337
0.155,0.070,0.273,-5.337
0.203,0.064,0.273,-5.337
0.150,0.066,0.274,-5.337
0.146,0.065,0.270,-5.337
0.185,0.065,0.268,-5.337
0.189,0.064,0.268,-5.337
0.237,0.062,0.268,-5.337
0.240,0.065,0.270,-5.337
0.200,0.067,0.272,-5.337
0.191,0.064,0.273,-5.337
0.208,0.061,0.273,-5.337
0.250,0.060,0.273,-5.337
0.271,0.059,0.274,-5.337
0.247,0.061,0.277,-5.337
0.258,0.064,0.275,-5.337
0.261,0.067,0.273,-5.337
0.236,0.066,0.272,-5.337
0.245,0.065,0.271,-5.337
0.187,0.065,0.270,-5.337
0.153,0.067,0.270,-5.337
0.192,0.067,0.270,-5.337
0.231,0.064,0.272,-5.337
0.239,0.063,0.274,-5.337
0.215,0.062,0.273,-5.337
0.174,0.060,0.272,-5.337
0.178,0.061,0.271,-5.337
0.205,0.061,0.268,-5.337
0.182,0.062,0.268,-5.337
0.126,0.066,0.272,-5.337
0.094,0.066,0.275,-5.337
0.183,0.065,0.277,-5.337
0.236,0.065,0.272,-5.337
0.207,0.068,0.272,-5.337
0.180,0.066,0.273,-5.337
0.245,0.061,0.278,-5.337
0.242,0.062,0.279,-5.337
0.166,0.067,0.279,-5.337
0.169,0.067,0.275,-5.337
0.175,0.065,0.274,-5.337
0.164,0.064,0.274,-5.337
0.154,0.066,0.274,-5.337
0.207,0.066,0.270,-5.337
0.147,0.067,0.266,-5.337
0.237,0.063,0.265,-5.337
0.266,0.062,0.267,-5.337
0.191,0.067,0.270,-5.337
0.133,0.068,0.271,-5.337
0.193,0.064,0.270,-5.337
0.247,0.063,0.272,-5.337
0.245,0.060,0.277,-5.337
0.209,0.063,0.278,-5.337
0.182,0.065,0.277,-5.337
0.190,0.065,0.274,-5.337
0.142,0.064,0.273,-5.337
0.156,0.065,0.270,-5.337
0.148,0.066,0.269,-5.337
0.162,0.063,0.273,-5.337
0.172,0.067,0.276,-5.337
0.177,0.065,0.275,-5.337
0.218,0.059,0.273,-5.337
0.252,0.059,0.273,-5.337
0.277,0.058,0.275,-5.337
0.285,0.059,0.269,-5.337
0.250,0.059,0.264,-5.337
0.245,0.057,0.268,-5.337
0.297,0.053,0.277,-5.337
0.316,0.054,0.278,-5.337
0.275,0.056,0.274,-5.337
0.265,0.055,0.271,-5.337
0.215,0.057,0.268,-5.337
0.201,0.056,0.269,-5.337
0.215,0.058,0.270,-5.337
0.261,0.059,0.271,-5.337
0.262,0.058,0.273,-5.337
0.208,0.059,0.276,-5.337
0.100,0.061,0.279,-5.337
0.060,0.062,0.280,-5.337
0.098,0.058,0.276,-5.337
0.184,0.055,0.272,-5.337
0.232,0.057,0.269,-5.337
0.187,0.058,0.268,-5.337
0.191,0.053,0.272,-5.337
0.258,0.049,0.274,-5.337
0.299,0.049,0.276,-5.337
0.227,0.051,0.276,-5.337
0.169,0.052,0.275,-5.337
0.179,0.054,0.275,-5.337
0.176,0.056,0.275,-5.337
0.196,0.059,0.273,-5.337
0.230,0.056,0.270,-5.337
0.303,0.057,0.271,-5.337
0.308,0.057,0.272,-5.337
0.240,0.054,0.273,-5.337
0.159,0.052,0.275,-5.337
0.227,0.056,0.273,-5.337
0.230,0.058,0.271,-5.337
0.160,0.059,0.271,-5.337
0.169,0.055,0.272,-5.337
0.213,0.054,0.273,-5.337
0.239,0.054,0.275,-5.337
0.156,0.057,0.276,-5.337
0.150,0.056,0.277,-5.337
0.159,0.056,0.276,-5.337
0.124,0.056,0.274,-5.337
0.199,0.054,0.272,-5.337
0.214,0.052,0.277,-5.337
0.182,0.051,0.278,-5.337
0.147,0.051,0.274,-5.337
0.186,0.053,0.272,-5.337
0.196,0.055,0.275,-5.337
0.121,0.054,0.275,-5.337
0.129,0.054,0.278,-5.337
0.119,0.053,0.276,-5.337
0.144,0.051,0.271,-5.337
0.207,0.051,0.273,-5.337
0.217,0.052,0.274,-5.337
0.188,0.048,0.272,-5.337
0.162,0.045,0.270,-5.337
0.229,0.044,0.272,-5.337
0.267,0.044,0.273,-5.337
0.246,0.047,0.274,-5.337
0.257,0.045,0.273,-5.337
0.252,0.048,0.275,-5.337
0.209,0.050,0.274,-5.337
0.221,0.049,0.272,-5.337
0.260,0.045,0.271,-5.337
0.219,0.047,0.271,-5.337
0.151,0.045,0.272,-5.337
0.136,0.046,0.275,-5.337
0.182,0.043,0.273,-5.337
0.220,0.042,0.275,-5.337
0.188,0.048,0.283,-5.337
0.135,0.047,0.282,-5.337
0.157,0.047,0.276,-5.337
0.195,0.047,0.271,-5.337
0.231,0.044,0.271,-5.337
0.308,0.042,0.275,-5.337
0.247,0.050,0.276,-5.337
0.139,0.050,0.272,-5.337
0.184,0.044,0.273,-5.337
0.219,0.046,0.273,-5.337
0.178,0.047,0.274,-5.337
0.163,0.049,0.274,-5.337
0.135,0.051,0.274,-5.337
0.118,0.049,0.273,-5.337
0.115,0.050,0.274,-5.337
0.151,0.048,0.274,-5.337
0.158,0.046,0.275,-5.337
0.184,0.043,0.275,-5.337
0.220,0.044,0.276,-5.337
0.194,0.048,0.275,-5.337
0.172,0.047,0.275,-5.337
0.224,0.047,0.275,-5.337
0.145,0.050,0.274,-5.337
0.110,0.048,0.276,-5.337
0.092,0.052,0.274,-5.337
0.078,0.053,0.273,-5.337
0.152,0.048,0.272,-5.337
0.140,0.045,0.276,-5.337
0.086,0.050,0.277,-5.337
0.077,0.050,0.278,-5.337
0.096,0.047,0.275,-5.337
0.148,0.045,0.272,-5.337
0.191,0.045,0.271,-5.337
0.218,0.048,0.273,-5.337
0.254,0.045,0.274,-5.337
0.206,0.046,0.274,-5.337
0.107,0.048,0.275,-5.337
0.160,0.047,0.273,-5.337
0.218,0.043,0.272,-5.337
0.190,0.047,0.276,-5.337
0.140,0.051,0.278,-5.337
0.158,0.047,0.274,-5.337
0.196,0.046,0.270,-5.337
0.161,0.049,0.271,-5.337
0.130,0.049,0.271,-5.337
0.117,0.047,0.268,-5.337
0.137,0.043,0.270,-5.337
0.215,0.040,0.276,-5.337
0.237,0.039,0.280,-5.337
0.288,0.039,0.276,-5.337
0.291,0.038,0.275,-5.337
0.262,0.039,0.276,-5.337
0.269,0.044,0.277,-5.337
0.161,0.048,0.274,-5.337
0.107,0.049,0.270,-5.337
0.118,0.046,0.267,-5.337
0.198,0.041,0.268,-5.337
0.214,0.043,0.270,-5.337
0.214,0.044,0.273,-5.337
0.245,0.040,0.274,-5.337
0.242,0.040,0.275,-5.337
0.202,0.039,0.274,-5.337
0.149,0.040,0.273,-5.337
0.181,0.040,0.274,-5.337
0.190,0.041,0.271,-5.337
0.169,0.042,0.269,-5.337
0.135,0.046,0.269,-5.337
0.187,0.045,0.271,-5.337
0.205,0.043,0.270,-5.337
0.196,0.043,0.270,-5.337
0.153,0.040,0.269,-5.337
0.103,0.042,0.274,-5.337
0.135,0.042,0.277,-5.337
0.188,0.039,0.277,-5.337
0.196,0.035,0.271,-5.337
0.147,0.038,0.270,-5.337
0.143,0.037,0.271,-5.337
0.201,0.038,0.274,-5.337
0.178,0.041,0.274,-5.337
0.234,0.041,0.276,-5.337
0.164,0.043,0.276,-5.337
0.098,0.041,0.274,-5.337
0.198,0.037,0.270,-5.337
0.254,0.036,0.270,-5.337
0.171,0.037,0.271,-5.337
0.098,0.038,0.270,-5.337
0.171,0.036,0.273,-5.337
0.169,0.032,0.276,-5.337
0.154,0.037,0.274,-5.337
0.168,0.037,0.271,-5.337
0.126,0.036,0.272,-5.337
0.181,0.035,0.272,-5.337
0.211,0.039,0.278,-5.337
0.211,0.041,0.278,-5.337
0.225,0.041,0.273,-5.337
0.200,0.036,0.269,-5.337
0.189,0.036,0.270,-5.337
0.152,0.042,0.272,-5.337
0.105,0.042,0.272,-5.337
0.111,0.036,0.271,-5.337
0.116,0.037,0.272,-5.337
0.163,0.037,0.269,-5.337
0.194,0.040,0.269,-5.337
0.236,0.039,0.274,-5.337
0.214,0.040,0.275,-5.337
0.165,0.039,0.271,-5.337
0.143,0.037,0.272,-5.337
0.184,0.036,0.275,-5.337
0.220,0.035,0.275,-5.337
0.181,0.033,0.271,-5.337
0.160,0.031,0.270,-5.337
0.146,0.031,0.271,-5.337
0.150,0.031,0.268,-5.337
0.197,0.028,0.267,-5.337
0.264,0.025,0.266,-5.337
0.280,0.027,0.272,-5.337
0.268,0.029,0.275,-5.337
0.227,0.033,0.276,-5.337
0.199,0.033,0.274,-5.337
0.220,0.037,0.274,-5.337
0.266,0.035,0.274,-5.337
0.275,0.038,0.276,-5.337
0.222,0.036,0.278,-5.337
0.186,0.035,0.278,-5.337
0.118,0.036,0.274,-5.337
0.088,0.033,0.272,-5.337
0.115,0.033,0.273,-5.337
0.202,0.034,0.275,-5.337
0.255,0.034,0.271,-5.337
0.226,0.035,0.270,-5.337
0.158,0.035,0.272,-5.337
0.129,0.035,0.274,-5.337
0.180,0.036,0.277,-5.337
0.176,0.038,0.275,-5.337
0.174,0.039,0.274,-5.337
0.160,0.041,0.276,-5.337
0.134,0.040,0.277,-5.337
0.178,0.037,0.277,-5.337
0.158,0.043,0.274,-5.337
0.155,0.042,0.268,-5.337
0.180,0.041,0.266,-5.337
0.216,0.038,0.265,-5.337
0.215,0.040,0.267,-5.337
0.132,0.041,0.272,-5.337
0.122,0.037,0.275,-5.337
0.199,0.036,0.272,-5.337
0.237,0.039,0.272,-5.337
0.174,0.040,0.273,-5.337
0.183,0.041,0.271,-5.337
0.182,0.042,0.269,-5.337
0.163,0.043,0.270,-5.337
0.184,0.040,0.275,-5.337
0.144,0.043,0.274,-5.337
0.094,0.041,0.274,-5.337
0.145,0.037,0.272,-5.337
0.152,0.038,0.273,-5.337
0.173,0.039,0.272,-5.337
0.136,0.041,0.272,-5.337
0.086,0.039,0.275,-5.337
0.097,0.040,0.277,-5.337
0.190,0.036,0.274,-5.337
0.190,0.036,0.271,-5.337
0.145,0.037,0.272,-5.337
0.170,0.033,0.271,-5.337
0.180,0.032,0.269,-5.337
0.079,0.034,0.269,-5.337
0.118,0.031,0.269,-5.337
0.260,0.028,0.269,-5.337
0.254,0.031,0.273,-5.337
0.188,0.035,0.275,-5.337
0.144,0.035,0.272,-5.337
0.146,0.034,0.266,-5.337
0.181,0.030,0.267,-5.337
0.155,0.034,0.272,-5.337
0.114,0.037,0.275,-5.337
0.156,0.037,0.274,-5.337
0.173,0.037,0.275,-5.337
0.186,0.035,0.273,-5.337
0.191,0.037,0.274,-5.337
0.175,0.037,0.272,-5.337
0.178,0.038,0.272,-5.337
0.205,0.035,0.275,-5.337
0.239,0.035,0.275,-5.337
0.223,0.035,0.274,-5.337
0.212,0.037,0.272,-5.337
0.189,0.035,0.271,-5.337
0.195,0.036,0.274,-5.337
0.158,0.039,0.276,-5.337
0.169,0.035,0.272,-5.337
0.202,0.033,0.268,-5.337
0.231,0.036,0.267,-5.337
0.225,0.037,0.271,-5.337
0.142,0.040,0.277,-5.337
0.103,0.039,0.277,-5.337
0.159,0.040,0.274,-5.337
0.157,0.043,0.276,-5.337
0.185,0.044,0.274,-5.337
0.182,0.042,0.274,-5.337
0.146,0.038,0.272,-5.337
0.124,0.041,0.270,-5.337
0.102,0.045,0.267,-5.337
0.107,0.046,0.270,-5.337
0.176,0.044,0.273,-5.337
0.188,0.040,0.278,-5.337
0.200,0.041,0.275,-5.337
0.215,0.039,0.270,-5.337
0.214,0.044,0.267,-5.337
0.219,0.045,0.270,-5.337
0.224,0.044,0.274,-5.337
0.196,0.045,0.276,-5.337
0.203,0.041,0.274,-5.337
0.222,0.042,0.274,-5.337
0.189,0.042,0.276,-5.337
0.147,0.042,0.276,-5.337
0.133,0.041,0.273,-5.337
0.175,0.043,0.268,-5.337
0.210,0.044,0.269,-5.337
0.148,0.044,0.275,-5.337
0.114,0.044,0.280,-5.337
0.182,0.044,0.278,-5.337
0.229,0.045,0.271,-5.337
0.228,0.047,0.267,-5.337
0.159,0.050,0.274,-5.337
0.117,0.052,0.277,-5.337
0.156,0.049,0.275,-5.337
0.237,0.048,0.271,-5.337
0.274,0.049,0.269,-5.337
0.216,0.050,0.269,-5.337
0.243,0.050,0.268,-5.337
0.299,0.049,0.271,-5.337
0.243,0.051,0.275,-5.337
0.190,0.047,0.278,-5.337
0.158,0.048,0.276,-5.337
0.156,0.050,0.274,-5.337
0.155,0.053,0.273,-5.337
0.133,0.052,0.272,-5.337
0.180,0.055,0.276,-5.337
0.230,0.052,0.278,-5.337
0.263,0.049,0.277,-5.337
0.247,0.050,0.278,-5.337
0.158,0.050,0.275,-5.337
0.164,0.051,0.272,-5.337
0.155,0.053,0.270,-5.337
0.175,0.050,0.273,-5.337
0.166,0.052,0.273,-5.337
0.188,0.052,0.274,-5.337
0.155,0.053,0.272,-5.337
0.151,0.057,0.271,-5.337
0.157,0.055,0.271,-5.337
0.161,0.052,0.272,-5.337
0.185,0.051,0.273,-5.337
0.189,0.054,0.276,-5.337
0.190,0.054,0.273,-5.337
0.158,0.059,0.272,-5.337
0.167,0.055,0.274,-5.337
0.193,0.054,0.277,-5.337
0.193,0.055,0.277,-5.337
0.200,0.054,0.274,-5.337
0.220,0.054,0.273,-5.337
0.218,0.051,0.274,-5.337
0.149,0.054,0.275,-5.337
0.173,0.054,0.275,-5.337
0.163,0.057,0.274,-5.337
0.138,0.058,0.272,-5.337
0.140,0.057,0.272,-5.337
0.190,0.055,0.273,-5.337
0.194,0.056,0.274,-5.337
0.135,0.058,0.273,-5.337
0.092,0.062,0.271,-5.337
0.090,0.060,0.274,-5.337
0.139,0.056,0.279,-5.337
0.181,0.056,0.279,-5.337
0.202,0.057,0.274,-5.337
0.241,0.058,0.272,-5.337
0.236,0.059,0.269,-5.337
0.221,0.060,0.266,-5.337
0.252,0.057,0.270,-5.337
0.247,0.053,0.275,-5.337
0.226,0.055,0.276,-5.337
0.216,0.058,0.270,-5.337
0.215,0.058,0.268,-5.337
0.203,0.058,0.270,-5.337
0.180,0.056,0.273,-5.337
0.250,0.060,0.276,-5.337
0.279,0.061,0.271,-5.337
0.263,0.064,0.267,-5.337
0.292,0.058,0.267,-5.337
0.305,0.061,0.272,-5.337
0.292,0.056,0.277,-5.337
0.242,0.058,0.276,-5.337
0.199,0.059,0.274,-5.337
0.190,0.064,0.276,-5.337
0.213,0.064,0.273,-5.337
0.222,0.060,0.269,-5.337
0.199,0.059,0.267,-5.337
0.230,0.056,0.268,-5.337
0.204,0.057,0.270,-5.337
0.138,0.058,0.271,-5.337
0.123,0.063,0.274,-5.337
0.177,0.063,0.279,-5.337
0.166,0.061,0.278,-5.337
0.134,0.060,0.276,-5.337
0.168,0.060,0.275,-5.337
0.167,0.056,0.273,-5.337
0.163,0.056,0.270,-5.337
0.222,0.059,0.270,-5.337
0.228,0.056,0.273,-5.337
0.248,0.054,0.275,-5.337
0.222,0.056,0.277,-5.337
0.201,0.057,0.275,-5.337
0.185,0.059,0.271,-5.337
0.155,0.062,0.268,-5.337
0.208,0.060,0.268,-5.337
0.251,0.059,0.273,-5.337
0.242,0.059,0.277,-5.337
0.222,0.057,0.276,-5.337
0.195,0.060,0.274,-5.337
0.149,0.061,0.272,-5.337
0.169,0.060,0.272,-5.337
0.272,0.059,0.277,-5.337
0.252,0.062,0.277,-5.337
0.197,0.065,0.273,-5.337
0.141,0.067,0.268,-5.337
0.161,0.064,0.269,-5.337
0.210,0.061,0.271,-5.337
0.200,0.062,0.275,-5.337
0.153,0.062,0.276,-5.337
0.172,0.061,0.281,-5.337
0.201,0.062,0.276,-5.337
0.251,0.061,0.268,-5.337
0.280,0.057,0.269,-5.337
0.292,0.060,0.274,-5.337
0.274,0.060,0.275,-5.337
0.242,0.059,0.274,-5.337
0.196,0.061,0.269,-5.337
0.167,0.064,0.268,-5.337
0.208,0.063,0.271,-5.337
0.246,0.065,0.269,-5.337
0.296,0.066,0.268,-5.337
0.309,0.069,0.271,-5.337
0.291,0.069,0.272,-5.337
0.235,0.066,0.270,-5.337
0.170,0.064,0.269,-5.337
0.211,0.064,0.271,-5.337
0.226,0.068,0.273,-5.337
0.211,0.067,0.272,-5.337
0.240,0.062,0.273,-5.337
0.260,0.061,0.273,-5.337
0.261,0.061,0.274,-5.337
0.181,0.061,0.273,-5.337
0.132,0.061,0.272,-5.337
0.157,0.061,0.272,-5.337
0.252,0.063,0.270,-5.337
0.256,0.060,0.269,-5.337
0.161,0.062,0.275,-5.337
0.113,0.063,0.277,-5.337
0.126,0.063,0.271,-5.337
0.130,0.065,0.268,-5.337
0.155,0.068,0.272,-5.337
0.193,0.065,0.274,-5.337
0.161,0.063,0.274,-5.337
0.199,0.060,0.269,-5.337
0.266,0.056,0.268,-5.337
0.294,0.058,0.271,-5.337
0.201,0.062,0.271,-5.337
0.133,0.063,0.272,-5.337
0.214,0.062,0.274,-5.337
0.279,0.062,0.275,-5.337
0.267,0.062,0.274,-5.337
0.223,0.066,0.272,-5.337
0.199,0.064,0.270,-5.337
0.177,0.064,0.270,-5.337
0.169,0.064,0.271,-5.337
0.149,0.064,0.275,-5.337
0.189,0.063,0.275,-5.337
0.219,0.061,0.274,-5.337
0.212,0.058,0.272,-5.337
0.218,0.063,0.273,-5.337
0.189,0.066,0.270,-5.337
0.153,0.064,0.271,-5.337
0.161,0.061,0.270,-5.337
0.227,0.060,0.271,-5.337
0.214,0.063,0.272,-5.337
0.209,0.063,0.274,-5.337
0.196,0.065,0.271,-5.337
0.220,0.063,0.271,-5.337
0.231,0.060,0.273,-5.337
0.221,0.063,0.271,-5.337
0.272,0.059,0.270,-5.337
0.292,0.060,0.270,-5.337
0.242,0.062,0.271,-5.337
0.159,0.068,0.270,-5.337
0.103,0.068,0.272,-5.337
0.114,0.067,0.273,-5.337
0.174,0.065,0.274,-5.337
0.227,0.061,0.276,-5.337
0.265,0.062,0.274,-5.337
0.237,0.064,0.273,-5.337
0.189,0.063,0.274,-5.337
0.187,0.061,0.271,-5.337
0.220,0.059,0.268,-5.337
0.226,0.061,0.270,-5.337
0.215,0.062,0.272,-5.337
0.241,0.061,0.273,-5.337
0.281,0.060,0.271,-5.337
0.247,0.061,0.271,-5.337
0.163,0.064,0.270,-5.337
0.168,0.064,0.271,-5.337
0.178,0.060,0.268,-5.337
0.182,0.059,0.267,-5.337
0.178,0.058,0.271,-5.337
0.161,0.060,0.276,-5.337
0.166,0.063,0.274,-5.337
0.277,0.062,0.269,-5.337
0.298,0.059,0.268,-5.337
0.189,0.063,0.270,-5.337
0.150,0.062,0.273,-5.337
0.122,0.063,0.273,-5.337
0.133,0.063,0.272,-5.337
0.179,0.063,0.272,-5.337
0.201,0.061,0.271,-5.337
0.191,0.060,0.270,-5.337
0.156,0.062,0.272,-5.337
0.191,0.061,0.273,-5.337
0.265,0.063,0.270,-5.337
0.224,0.065,0.270,-5.337
0.224,0.063,0.272,-5.337
0.239,0.060,0.271,-5.337
0.212,0.060,0.271,-5.337
0.166,0.065,0.270,-5.337
0.166,0.065,0.273,-5.337
0.191,0.064,0.272,-5.337
0.192,0.063,0.272,-5.337
0.222,0.060,0.273,-5.337
0.202,0.063,0.274,-5.337
0.189,0.063,0.272,-5.337
0.225,0.060,0.273,-5.337
0.241,0.056,0.276,-5.337
0.225,0.056,0.275,-5.337
0.193,0.061,0.270,-5.337
0.142,0.062,0.267,-5.337
0.212,0.060,0.266,-5.337
0.247,0.055,0.268,-5.337
0.187,0.059,0.268,-5.337
0.154,0.059,0.272,-5.337
0.203,0.054,0.272,-5.337
0.238,0.055,0.270,-5.337
0.244,0.057,0.273,-5.337
0.248,0.058,0.270,-5.337
0.215,0.058,0.270,-5.337
0.150,0.056,0.271,-5.337
0.125,0.057,0.273,-5.337
0.165,0.053,0.274,-5.337
0.207,0.053,0.277,-5.337
0.261,0.049,0.274,-5.337
0.276,0.051,0.272,-5.337
0.297,0.049,0.270,-5.337
0.291,0.051,0.272,-5.337
0.246,0.050,0.271,-5.337
0.215,0.050,0.273,-5.337
0.266,0.046,0.275,-5.337
0.312,0.048,0.275,-5.337
0.259,0.051,0.270,-5.337
0.179,0.052,0.268,-5.337
0.123,0.056,0.270,-5.337
0.073,0.058,0.269,-5.337
0.058,0.059,0.273,-5.337
0.138,0.057,0.277,-5.337
0.160,0.057,0.275,-5.337
0.130,0.056,0.269,-5.337
0.162,0.053,0.268,-5.337
0.243,0.048,0.271,-5.337
0.277,0.051,0.274,-5.337
0.293,0.052,0.271,-5.337
0.277,0.054,0.273,-5.337
0.206,0.054,0.274,-5.337
0.216,0.052,0.276,-5.337
0.232,0.054,0.279,-5.337
0.135,0.058,0.276,-5.337
0.178,0.055,0.272,-5.337
0.254,0.055,0.274,-5.337
0.275,0.055,0.276,-5.337
0.215,0.056,0.275,-5.337
0.160,0.054,0.272,-5.337
0.127,0.056,0.274,-5.337
0.157,0.056,0.273,-5.337
0.222,0.053,0.274,-5.337
0.253,0.049,0.275,-5.337
0.246,0.048,0.273,-5.337
0.216,0.052,0.273,-5.337
0.212,0.051,0.273,-5.337
0.225,0.051,0.273,-5.337
0.248,0.050,0.273,-5.337
0.238,0.050,0.276,-5.337
0.223,0.050,0.276,-5.337
0.203,0.054,0.274,-5.337
0.187,0.056,0.270,-5.337
0.209,0.053,0.271,-5.337
0.208,0.050,0.270,-5.337
0.235,0.050,0.270,-5.337
0.231,0.048,0.272,-5.337
0.153,0.051,0.276,-5.337
0.140,0.048,0.278,-5.337
0.106,0.051,0.274,-5.337
0.055,0.050,0.273,-5.337
0.128,0.051,0.274,-5.337
0.203,0.050,0.276,-5.337
0.227,0.047,0.278,-5.337
0.174,0.053,0.276,-5.337
0.198,0.052,0.271,-5.337
0.224,0.054,0.270,-5.337
0.251,0.051,0.271,-5.337
0.253,0.051,0.271,-5.337
0.220,0.052,0.270,-5.337
0.245,0.047,0.273,-5.337
0.203,0.046,0.276,-5.337
0.183,0.048,0.279,-5.337
0.239,0.047,0.277,-5.337
0.272,0.046,0.277,-5.337
0.273,0.047,0.277,-5.337
0.239,0.048,0.277,-5.337
0.219,0.047,0.274,-5.337
0.131,0.048,0.274,-5.337
0.144,0.048,0.276,-5.337
0.237,0.047,0.274,-5.337
0.283,0.045,0.270,-5.337
0.215,0.047,0.272,-5.337
0.233,0.046,0.273,-5.337
0.326,0.042,0.272,-5.337
0.302,0.043,0.273,-5.337
0.169,0.049,0.272,-5.337
0.161,0.047,0.269,-5.337
0.252,0.044,0.267,-5.337
0.201,0.045,0.270,-5.337
0.147,0.046,0.275,-5.337
0.157,0.047,0.279,-5.337
0.191,0.047,0.275,-5.337
0.217,0.044,0.270,-5.337
0.181,0.044,0.267,-5.337
0.143,0.045,0.270,-5.337
0.224,0.043,0.271,-5.337
0.230,0.044,0.275,-5.337
0.233,0.041,0.278,-5.337
0.255,0.040,0.276,-5.337
0.254,0.041,0.273,-5.337
0.230,0.041,0.271,-5.337
0.213,0.039,0.270,-5.337
0.219,0.041,0.272,-5.337
0.167,0.046,0.271,-5.337
0.179,0.043,0.271,-5.337
0.214,0.038,0.273,-5.337
0.199,0.040,0.275,-5.337
0.212,0.044,0.276,-5.337
0.187,0.043,0.274,-5.337
0.132,0.041,0.272,-5.337
0.154,0.042,0.270,-5.337
0.240,0.038,0.276,-5.337
0.298,0.034,0.278,-5.337
0.203,0.038,0.277,-5.337
0.165,0.042,0.275,-5.337
0.216,0.040,0.273,-5.337
0.243,0.039,0.272,-5.337
0.224,0.040,0.272,-5.337
0.185,0.040,0.270,-5.337
0.140,0.042,0.272,-5.337
0.156,0.040,0.272,-5.337
0.164,0.039,0.271,-5.337
0.203,0.034,0.268,-5.337
0.277,0.035,0.268,-5.337
0.249,0.038,0.272,-5.337
0.138,0.039,0.275,-5.337
0.092,0.040,0.278,-5.337
0.131,0.042,0.279,-5.337
0.176,0.040,0.278,-5.337
0.146,0.040,0.277,-5.337
0.118,0.039,0.273,-5.337
0.172,0.034,0.269,-5.337
0.168,0.031,0.270,-5.337
0.140,0.034,0.269,-5.337
0.122,0.037,0.271,-5.337
0.142,0.037,0.272,-5.337
0.160,0.036,0.270,-5.337
0.193,0.034,0.272,-5.337
0.205,0.037,0.275,-5.337
0.152,0.040,0.278,-5.337
0.186,0.040,0.280,-5.337
0.219,0.035,0.277,-5.337
0.165,0.040,0.274,-5.337
0.074,0.041,0.271,-5.337
0.071,0.042,0.269,-5.337
0.106,0.042,0.272,-5.337
0.149,0.040,0.273,-5.337
0.135,0.038,0.271,-5.337
0.126,0.040,0.270,-5.337
0.138,0.041,0.272,-5.337
0.190,0.045,0.271,-5.337
0.203,0.046,0.271,-5.337
0.134,0.044,0.271,-5.337
0.086,0.042,0.275,-5.337
0.177,0.039,0.275,-5.337
0.298,0.037,0.276,-5.337
0.274,0.039,0.273,-5.337
0.165,0.040,0.272,-5.337
0.116,0.036,0.269,-5.337
0.144,0.041,0.269,-5.337
0.165,0.042,0.273,-5.337
0.142,0.042,0.277,-5.337
0.134,0.039,0.277,-5.337
0.201,0.038,0.273,-5.337
0.275,0.032,0.268,-5.337
0.255,0.033,0.265,-5.337
0.207,0.035,0.265,-5.337
0.184,0.036,0.269,-5.337
0.171,0.039,0.273,-5.337
0.158,0.039,0.274,-5.337
0.175,0.038,0.274,-5.337
0.131,0.037,0.275,-5.337
0.123,0.033,0.271,-5.337
0.180,0.032,0.267,-5.337
0.221,0.029,0.270,-5.337
0.188,0.031,0.271,-5.337
0.174,0.032,0.271,-5.337
0.155,0.032,0.270,-5.337
0.101,0.032,0.271,-5.337
0.156,0.036,0.271,-5.337
0.138,0.037,0.275,-5.337
0.119,0.035,0.272,-5.337
0.097,0.035,0.272,-5.337
0.132,0.036,0.271,-5.337
0.185,0.040,0.269,-5.337
0.192,0.038,0.269,-5.337
0.197,0.036,0.270,-5.337
0.165,0.037,0.273,-5.337
0.178,0.037,0.276,-5.337
0.160,0.040,0.279,-5.337
0.197,0.038,0.278,-5.337
0.220,0.035,0.274,-5.337
0.181,0.036,0.270,-5.337
0.159,0.037,0.268,-5.337
0.140,0.039,0.267,-5.337
0.094,0.040,0.269,-5.337
0.123,0.039,0.273,-5.337
0.172,0.043,0.275,-5.337
0.183,0.043,0.272,-5.337
0.135,0.044,0.273,-5.337
0.113,0.040,0.275,-5.337
0.196,0.037,0.278,-5.337
0.223,0.036,0.276,-5.337
0.137,0.044,0.274,-5.337
0.109,0.042,0.269,-5.337
0.226,0.038,0.266,-5.337
0.289,0.035,0.266,-5.337
0.203,0.039,0.269,-5.337
0.132,0.039,0.272,-5.337
0.150,0.038,0.268,-5.337
0.172,0.040,0.267,-5.337
0.130,0.041,0.272,-5.337
0.135,0.040,0.274,-5.337
0.109,0.043,0.272,-5.337
0.080,0.041,0.271,-5.337
0.154,0.037,0.274,-5.337
0.181,0.039,0.276,-5.337
0.209,0.042,0.274,-5.337
0.287,0.038,0.274,-5.337
0.334,0.035,0.273,-5.337
0.304,0.037,0.273,-5.337
0.228,0.038,0.272,-5.337
0.223,0.038,0.271,-5.337
0.248,0.042,0.269,-5.337
0.228,0.039,0.268,-5.337
0.208,0.036,0.269,-5.337
0.140,0.039,0.274,-5.337
0.113,0.041,0.274,-5.337
0.151,0.039,0.270,-5.337
0.148,0.039,0.269,-5.337
0.140,0.039,0.274,-5.337
0.150,0.042,0.274,-5.337
0.126,0.044,0.272,-5.337
0.127,0.043,0.270,-5.337
0.173,0.038,0.271,-5.337
0.230,0.035,0.271,-5.337
0.198,0.039,0.270,-5.337
0.169,0.039,0.269,-5.337
0.158,0.039,0.269,-5.337
0.114,0.042,0.273,-5.337
0.147,0.040,0.276,-5.337
0.209,0.040,0.275,-5.337
0.212,0.039,0.272,-5.337
0.181,0.041,0.270,-5.337
0.212,0.041,0.268,-5.337
0.283,0.041,0.270,-5.337
0.280,0.040,0.272,-5.337
0.284,0.043,0.271,-5.337
0.235,0.044,0.268,-5.337
0.184,0.042,0.270,-5.337
0.188,0.041,0.270,-5.337
0.213,0.043,0.273,-5.337
0.229,0.042,0.274,-5.337
0.191,0.042,0.272,-5.337
0.140,0.044,0.270,-5.337
0.113,0.047,0.275,-5.337
0.128,0.043,0.280,-5.337
0.193,0.041,0.280,-5.337
0.237,0.042,0.276,-5.337
0.205,0.044,0.267,-5.337
0.170,0.043,0.265,-5.337
0.189,0.044,0.265,-5.337
0.196,0.044,0.269,-5.337
0.117,0.047,0.270,-5.337
0.051,0.053,0.272,-5.337
0.054,0.049,0.269,-5.337
0.124,0.045,0.269,-5.337
0.166,0.042,0.268,-5.337
0.150,0.046,0.271,-5.337
0.220,0.046,0.272,-5.337
0.222,0.046,0.273,-5.337
0.153,0.045,0.272,-5.337
0.185,0.046,0.272,-5.337
0.224,0.045,0.271,-5.337
0.186,0.049,0.269,-5.337
0.180,0.045,0.270,-5.337
0.175,0.048,0.271,-5.337
0.126,0.050,0.273,-5.337
0.197,0.045,0.275,-5.337
0.221,0.046,0.275,-5.337
0.198,0.048,0.268,-5.337
0.210,0.048,0.268,-5.337
0.269,0.050,0.270,-5.337
0.261,0.051,0.273,-5.337
0.182,0.053,0.269,-5.337
0.133,0.054,0.271,-5.337
0.167,0.054,0.271,-5.337
0.235,0.054,0.275,-5.337
0.247,0.050,0.279,-5.337
0.230,0.047,0.280,-5.337
0.214,0.043,0.275,-5.337
0.242,0.042,0.269,-5.337
0.235,0.042,0.268,-5.337
0.207,0.046,0.270,-5.337
0.211,0.046,0.268,-5.337
0.217,0.048,0.266,-5.337
0.171,0.047,0.269,-5.337
0.187,0.045,0.272,-5.337
0.213,0.043,0.271,-5.337
0.209,0.045,0.269,-5.337
0.215,0.048,0.270,-5.337
0.178,0.051,0.273,-5.337
0.230,0.049,0.275,-5.337
0.211,0.051,0.276,-5.337
0.130,0.052,0.277,-5.337
0.129,0.053,0.274,-5.337
0.174,0.051,0.274,-5.337
0.159,0.051,0.273,-5.337
0.192,0.051,0.271,-5.337
0.190,0.049,0.271,-5.337
0.192,0.049,0.274,-5.337
0.179,0.050,0.275,-5.337
0.199,0.052,0.274,-5.337
0.161,0.052,0.269,-5.337
0.129,0.050,0.268,-5.337
0.217,0.050,0.270,-5.337
0.223,0.054,0.273,-5.337
0.215,0.054,0.274,-5.337
0.221,0.052,0.280,-5.337
0.253,0.048,0.281,-5.337
0.296,0.051,0.279,-5.337
0.183,0.053,0.273,-5.337
0.126,0.051,0.268,-5.337
0.195,0.046,0.267,-5.337
0.210,0.045,0.268,-5.337
0.199,0.048,0.268,-5.337
0.240,0.047,0.268,-5.337
0.258,0.050,0.274,-5.337
0.201,0.053,0.275,-5.337
0.185,0.051,0.271,-5.337
0.239,0.051,0.271,-5.337
0.258,0.052,0.275,-5.337
0.264,0.052,0.275,-5.337
0.222,0.054,0.272,-5.337
0.215,0.054,0.270,-5.337
0.219,0.054,0.272,-5.337
0.194,0.054,0.274,-5.337
0.166,0.053,0.276,-5.337
0.196,0.053,0.274,-5.337
0.217,0.052,0.274,-5.337
0.171,0.052,0.276,-5.337
0.103,0.054,0.276,-5.337
0.114,0.053,0.271,-5.337
0.165,0.052,0.268,-5.337
0.161,0.052,0.267,-5.337
0.228,0.051,0.268,-5.337
0.218,0.053,0.275,-5.337
0.197,0.054,0.278,-5.337
0.203,0.056,0.276,-5.337
0.193,0.059,0.273,-5.337
0.192,0.057,0.276,-5.337
0.220,0.054,0.278,-5.337
0.217,0.055,0.276,-5.337
0.187,0.059,0.271,-5.337
0.238,0.057,0.267,-5.337
0.265,0.056,0.267,-5.337
0.207,0.057,0.267,-5.337
0.203,0.053,0.266,-5.337
0.228,0.050,0.271,-5.337
0.283,0.049,0.273,-5.337
0.213,0.053,0.272,-5.337
0.155,0.053,0.269,-5.337
0.194,0.053,0.272,-5.337
0.240,0.056,0.274,-5.337
0.264,0.056,0.277,-5.337
0.264,0.052,0.275,-5.337
0.197,0.058,0.271,-5.337
0.103,0.063,0.272,-5.337
0.167,0.056,0.274,-5.337
0.225,0.059,0.271,-5.337
0.207,0.061,0.269,-5.337
0.176,0.061,0.274,-5.337
0.143,0.057,0.272,-5.337
0.127,0.059,0.270,-5.337
0.072,0.058,0.269,-5.337
0.065,0.058,0.269,-5.337
0.137,0.055,0.271,-5.337
0.180,0.055,0.275,-5.337
0.206,0.051,0.275,-5.337
0.198,0.053,0.272,-5.337
0.197,0.053,0.271,-5.337
0.149,0.054,0.273,-5.337
0.130,0.053,0.275,-5.337
0.197,0.055,0.274,-5.337
0.168,0.058,0.271,-5.337
0.133,0.054,0.268,-5.337
0.156,0.054,0.267,-5.337
0.232,0.060,0.272,-5.337
0.264,0.060,0.277,-5.337
0.201,0.057,0.279,-5.337
0.178,0.057,0.280,-5.337
0.134,0.060,0.275,-5.337
0.085,0.062,0.271,-5.337
0.099,0.061,0.269,-5.337
0.188,0.055,0.272,-5.337
0.302,0.054,0.275,-5.337
0.336,0.057,0.275,-5.337
0.282,0.056,0.272,-5.337
0.303,0.052,0.270,-5.337
0.330,0.050,0.268,-5.337
0.263,0.050,0.270,-5.337
0.204,0.054,0.275,-5.337
0.309,0.050,0.272,-5.337
0.355,0.050,0.272,-5.337
0.263,0.054,0.275,-5.337
0.177,0.060,0.275,-5.337
0.193,0.062,0.274,-5.337
0.258,0.059,0.273,-5.337
0.268,0.054,0.272,-5.337
0.225,0.056,0.275,-5.337
0.161,0.059,0.274,-5.337
0.163,0.061,0.275,-5.337
0.212,0.057,0.274,-5.337
0.256,0.057,0.273,-5.337
0.200,0.063,0.273,-5.337
0.134,0.066,0.274,-5.337
0.180,0.062,0.274,-5.337
0.277,0.058,0.274,-5.337
0.289,0.058,0.275,-5.337
0.302,0.062,0.280,-5.337
0.247,0.061,0.281,-5.337
0.142,0.059,0.275,-5.337
0.169,0.059,0.268,-5.337
0.244,0.061,0.266,-5.337
0.234,0.061,0.266,-5.337
0.172,0.061,0.271,-5.337
0.165,0.060,0.274,-5.337
0.127,0.061,0.273,-5.337
0.219,0.057,0.273,-5.337
0.221,0.062,0.269,-5.337
0.174,0.062,0.268,-5.337
0.192,0.062,0.270,-5.337
0.255,0.057,0.275,-5.337
0.242,0.056,0.275,-5.337
0.235,0.055,0.274,-5.337
0.240,0.059,0.272,-5.337
0.198,0.068,0.269,-5.337
0.206,0.068,0.269,-5.337
0.272,0.062,0.274,-5.337
0.264,0.060,0.277,-5.337
0.264,0.059,0.278,-5.337
0.296,0.062,0.277,-5.337
0.315,0.063,0.277,-5.337
0.265,0.067,0.276,-5.337
0.218,0.067,0.274,-5.337
0.118,0.066,0.272,-5.337
0.153,0.063,0.270,-5.337
0.214,0.065,0.267,-5.337
0.195,0.066,0.265,-5.337
0.224,0.066,0.268,-5.337
0.203,0.063,0.270,-5.337
0.208,0.061,0.271,-5.337
0.205,0.060,0.267,-5.337
0.232,0.062,0.267,-5.337
0.273,0.063,0.275,-5.337
0.245,0.062,0.280,-5.337
0.152,0.063,0.278,-5.337
0.085,0.065,0.274,-5.337
0.094,0.064,0.270,-5.337
0.159,0.065,0.271,-5.337
0.177,0.065,0.273,-5.337
0.167,0.070,0.274,-5.337
0.157,0.071,0.275,-5.337
0.160,0.071,0.274,-5.337
0.160,0.069,0.272,-5.337
0.219,0.068,0.272,-5.337
0.228,0.067,0.276,-5.337
0.167,0.066,0.276,-5.337
0.170,0.065,0.274,-5.337
0.175,0.068,0.269,-5.337
0.197,0.067,0.267,-5.337
0.230,0.064,0.267,-5.337
0.236,0.061,0.271,-5.337
0.252,0.062,0.271,-5.337
0.232,0.067,0.272,-5.337
0.198,0.065,0.270,-5.337
0.133,0.065,0.269,-5.337
0.098,0.066,0.269,-5.337
0.166,0.064,0.268,-5.337
0.219,0.064,0.269,-5.337
0.206,0.064,0.270,-5.337
0.212,0.058,0.272,-5.337
0.262,0.058,0.275,-5.337
0.227,0.063,0.277,-5.337
0.182,0.060,0.275,-5.337
0.197,0.056,0.273,-5.337
0.204,0.060,0.271,-5.337
0.226,0.062,0.273,-5.337
0.257,0.059,0.278,-5.337
0.262,0.057,0.277,-5.337
0.308,0.057,0.271,-5.337
0.251,0.060,0.267,-5.337
0.197,0.059,0.267,-5.337
0.203,0.060,0.270,-5.337
0.242,0.062,0.270,-5.337
0.211,0.061,0.274,-5.337
0.154,0.062,0.276,-5.337
0.142,0.064,0.277,-5.337
0.152,0.061,0.273,-5.337
0.240,0.057,0.269,-5.337
0.254,0.054,0.271,-5.337
0.230,0.054,0.274,-5.337
0.158,0.056,0.275,-5.337
0.138,0.058,0.276,-5.337
0.180,0.054,0.277,-5.337
0.220,0.052,0.274,-5.337
0.281,0.053,0.271,-5.337
0.276,0.054,0.269,-5.337
0.253,0.047,0.269,-5.337
0.253,0.048,0.265,-5.337
0.171,0.055,0.265,-5.337
0.185,0.057,0.268,-5.337
0.212,0.058,0.274,-5.337
0.197,0.057,0.275,-5.337
0.207,0.056,0.274,-5.337
0.222,0.056,0.275,-5.337
0.228,0.058,0.277,-5.337
0.297,0.057,0.276,-5.337
0.232,0.059,0.277,-5.337
0.165,0.058,0.277,-5.337
0.166,0.059,0.276,-5.337
0.177,0.054,0.272,-5.337
0.238,0.054,0.267,-5.337
0.279,0.053,0.265,-5.337
0.270,0.054,0.268,-5.337
0.162,0.055,0.270,-5.337
0.169,0.054,0.272,-5.337
0.250,0.052,0.275,-5.337
0.267,0.056,0.275,-5.337
0.224,0.055,0.274,-5.337
0.132,0.055,0.274,-5.337
0.113,0.054,0.273,-5.337
0.139,0.054,0.272,-5.337
0.062,0.054,0.272,-5.337
0.104,0.050,0.271,-5.337
0.218,0.049,0.273,-5.337
0.258,0.052,0.271,-5.337
0.180,0.056,0.270,-5.337
0.155,0.053,0.270,-5.337
0.209,0.054,0.273,-5.337
0.176,0.059,0.275,-5.337
0.134,0.057,0.276,-5.337
0.233,0.050,0.276,-5.337
0.275,0.048,0.275,-5.337
0.234,0.048,0.271,-5.337
0.146,0.054,0.271,-5.337
0.160,0.052,0.276,-5.337
0.234,0.049,0.279,-5.337
0.262,0.050,0.276,-5.337
0.233,0.051,0.273,-5.337
0.170,0.050,0.276,-5.337
0.175,0.050,0.277,-5.337
0.185,0.048,0.272,-5.337
0.250,0.046,0.271,-5.337
0.261,0.049,0.275,-5.337
0.203,0.052,0.274,-5.337
0.145,0.052,0.276,-5.337
0.166,0.052,0.274,-5.337
0.246,0.053,0.274,-5.337
0.210,0.057,0.273,-5.337
0.121,0.058,0.275,-5.337
0.159,0.049,0.274,-5.337
0.219,0.047,0.274,-5.337
0.227,0.048,0.271,-5.337
0.223,0.051,0.270,-5.337
0.179,0.052,0.271,-5.337
0.155,0.047,0.272,-5.337
0.179,0.046,0.273,-5.337
0.196,0.047,0.275,-5.337
0.246,0.045,0.273,-5.337
0.257,0.042,0.273,-5.337
0.267,0.039,0.274,-5.337
0.259,0.039,0.277,-5.337
0.274,0.039,0.279,-5.337
0.204,0.041,0.276,-5.337
0.126,0.042,0.275,-5.337
0.140,0.042,0.272,-5.337
0.171,0.046,0.273,-5.337
0.155,0.046,0.274,-5.337
0.164,0.045,0.276,-5.337
0.218,0.043,0.275,-5.337
0.273,0.043,0.274,-5.337
0.273,0.044,0.269,-5.337
0.172,0.046,0.271,-5.337
0.155,0.046,0.273,-5.337
0.196,0.046,0.274,-5.337
0.218,0.047,0.275,-5.337
0.174,0.049,0.278,-5.337
0.152,0.046,0.280,-5.337
0.196,0.041,0.278,-5.337
0.195,0.041,0.277,-5.337
0.146,0.043,0.274,-5.337
0.128,0.044,0.274,-5.337
0.085,0.045,0.276,-5.337
0.048,0.047,0.275,-5.337
0.127,0.050,0.274,-5.337
0.180,0.047,0.274,-5.337
0.156,0.045,0.271,-5.337
0.136,0.045,0.267,-5.337
0.148,0.043,0.264,-5.337
0.191,0.044,0.272,-5.337
0.216,0.045,0.277,-5.337
0.200,0.044,0.279,-5.337
0.147,0.042,0.273,-5.337
0.167,0.044,0.267,-5.337
0.227,0.046,0.268,-5.337
0.210,0.050,0.273,-5.337
0.169,0.050,0.279,-5.337
0.151,0.048,0.280,-5.337
0.155,0.047,0.276,-5.337
0.193,0.045,0.272,-5.337
0.208,0.045,0.274,-5.337
0.137,0.049,0.277,-5.337
0.086,0.049,0.276,-5.337
0.073,0.048,0.276,-5.337
0.126,0.048,0.275,-5.337
0.153,0.046,0.271,-5.337
0.147,0.042,0.268,-5.337
0.195,0.044,0.271,-5.337
0.131,0.048,0.275,-5.337
0.138,0.045,0.273,-5.337
0.223,0.042,0.271,-5.337
0.239,0.043,0.272,-5.337
0.196,0.046,0.276,-5.337
0.201,0.041,0.280,-5.337
0.202,0.042,0.279,-5.337
0.136,0.045,0.272,-5.337
0.126,0.046,0.272,-5.337
0.158,0.041,0.276,-5.337
0.164,0.039,0.276,-5.337
0.173,0.040,0.274,-5.337
0.175,0.044,0.272,-5.337
0.179,0.042,0.270,-5.337
0.173,0.042,0.272,-5.337
0.171,0.044,0.271,-5.337
0.246,0.043,0.271,-5.337
0.208,0.043,0.272,-5.337
0.160,0.041,0.273,-5.337
0.178,0.043,0.272,-5.337
0.152,0.046,0.272,-5.337
0.148,0.045,0.273,-5.337
0.200,0.044,0.273,-5.337
0.240,0.043,0.275,-5.337
0.238,0.045,0.274,-5.337
0.196,0.046,0.273,-5.337
0.203,0.045,0.274,-5.337
0.260,0.041,0.276,-5.337
0.293,0.042,0.275,-5.337
0.254,0.043,0.273,-5.337
0.208,0.042,0.272,-5.337
0.206,0.042,0.272,-5.337
0.206,0.039,0.273,-5.337
0.154,0.041,0.274,-5.337
0.193,0.042,0.273,-5.337
0.208,0.046,0.276,-5.337
0.149,0.047,0.277,-5.337
0.228,0.041,0.273,-5.337
0.316,0.037,0.271,-5.337
0.257,0.045,0.273,-5.337
0.094,0.050,0.276,-5.337
0.101,0.050,0.273,-5.337
0.180,0.049,0.272,-5.337
0.173,0.049,0.271,-5.337
0.242,0.049,0.271,-5.337
0.223,0.052,0.269,-5.337
0.207,0.048,0.273,-5.337
0.213,0.045,0.275,-5.337
0.139,0.048,0.276,-5.337
0.121,0.050,0.273,-5.337
0.167,0.048,0.275,-5.337
0.183,0.043,0.276,-5.337
0.187,0.043,0.277,-5.337
0.182,0.043,0.279,-5.337
0.187,0.040,0.280,-5.337
0.181,0.039,0.276,-5.337
0.207,0.043,0.270,-5.337
0.237,0.044,0.268,-5.337
0.231,0.045,0.271,-5.337
0.167,0.047,0.271,-5.337
0.127,0.049,0.269,-5.337
0.210,0.042,0.271,-5.337
0.239,0.042,0.273,-5.337
0.175,0.044,0.277,-5.337
0.131,0.045,0.278,-5.337
0.136,0.044,0.280,-5.337
0.201,0.042,0.276,-5.337
0.221,0.042,0.271,-5.337
0.223,0.044,0.266,-5.337
0.155,0.048,0.268,-5.337
0.145,0.044,0.274,-5.337
0.130,0.044,0.276,-5.337
0.179,0.045,0.278,-5.337
0.239,0.040,0.278,-5.337
0.243,0.040,0.277,-5.337
0.149,0.043,0.277,-5.337
0.177,0.044,0.276,-5.337
0.187,0.046,0.275,-5.337
0.124,0.049,0.273,-5.337
0.115,0.049,0.271,-5.337
0.123,0.045,0.273,-5.337
0.136,0.045,0.273,-5.337
0.098,0.049,0.273,-5.337
0.131,0.047,0.270,-5.337
0.195,0.043,0.269,-5.337
0.181,0.040,0.271,-5.337
0.234,0.038,0.271,-5.337
0.270,0.038,0.269,-5.337
0.237,0.039,0.270,-5.337
0.207,0.041,0.271,-5.337
0.233,0.040,0.274,-5.337
0.228,0.039,0.277,-5.337
0.258,0.041,0.277,-5.337
0.273,0.037,0.272,-5.337
0.242,0.038,0.269,-5.337
0.163,0.043,0.268,-5.337
0.171,0.044,0.272,-5.337
0.215,0.043,0.278,-5.337
0.216,0.046,0.276,-5.337
0.193,0.045,0.273,-5.337
0.222,0.042,0.274,-5.337
0.188,0.041,0.273,-5.337
0.130,0.045,0.271,-5.337
0.189,0.042,0.272,-5.337
0.227,0.043,0.271,-5.337
0.191,0.041,0.273,-5.337
0.151,0.042,0.274,-5.337
0.147,0.041,0.278,-5.337
0.191,0.042,0.276,-5.337
0.241,0.041,0.273,-5.337
0.173,0.045,0.268,-5.337
0.164,0.044,0.269,-5.337
0.217,0.044,0.274,-5.337
0.167,0.044,0.275,-5.337
0.155,0.042,0.271,-5.337
0.147,0.044,0.271,-5.337
0.158,0.047,0.269,-5.337
0.159,0.046,0.267,-5.337
0.158,0.044,0.266,-5.337
0.133,0.045,0.266,-5.337
0.130,0.047,0.269,-5.337
0.151,0.050,0.273,-5.337
0.203,0.051,0.275,-5.337
0.239,0.047,0.275,-5.337
0.171,0.047,0.274,-5.337
0.203,0.044,0.274,-5.337
0.233,0.047,0.275,-5.337
0.185,0.049,0.274,-5.337
0.167,0.045,0.274,-5.337
0.180,0.046,0.274,-5.337
0.184,0.045,0.275,-5.337
0.274,0.040,0.275,-5.337
0.270,0.044,0.278,-5.337
0.222,0.047,0.278,-5.337
0.177,0.048,0.274,-5.337
0.173,0.045,0.269,-5.337
0.156,0.049,0.271,-5.337
0.118,0.051,0.276,-5.337
0.161,0.050,0.278,-5.337
0.204,0.048,0.276,-5.337
0.199,0.051,0.272,-5.337
0.190,0.052,0.267,-5.337
0.181,0.053,0.270,-5.337
0.181,0.058,0.274,-5.337
0.176,0.058,0.272,-5.337
0.185,0.055,0.270,-5.337
0.191,0.053,0.272,-5.337
0.201,0.054,0.272,-5.337
0.184,0.053,0.271,-5.337
0.112,0.053,0.272,-5.337
0.053,0.049,0.271,-5.337
0.119,0.047,0.269,-5.337
0.180,0.047,0.266,-5.337
0.200,0.047,0.269,-5.337
0.213,0.046,0.274,-5.337
0.257,0.046,0.273,-5.337
0.216,0.046,0.270,-5.337
0.161,0.049,0.269,-5.337
0.195,0.048,0.271,-5.337
0.216,0.052,0.272,-5.337
0.223,0.053,0.274,-5.337
0.247,0.050,0.274,-5.337
0.289,0.049,0.275,-5.337
0.296,0.048,0.277,-5.337
0.230,0.048,0.273,-5.337
0.157,0.050,0.269,-5.337
0.183,0.051,0.269,-5.337
0.226,0.050,0.273,-5.337
0.218,0.048,0.273,-5.337
0.151,0.048,0.269,-5.337
0.097,0.053,0.266,-5.337
0.108,0.055,0.267,-5.337
0.189,0.052,0.275,-5.337
0.251,0.050,0.276,-5.337
0.211,0.052,0.276,-5.337
0.132,0.054,0.276,-5.337
0.170,0.051,0.275,-5.337
0.244,0.047,0.273,-5.337
0.243,0.049,0.271,-5.337
0.243,0.049,0.269,-5.337
0.143,0.053,0.267,-5.337
0.153,0.054,0.270,-5.337
0.188,0.055,0.273,-5.337
0.178,0.052,0.271,-5.337
0.163,0.054,0.272,-5.337
0.180,0.051,0.273,-5.337
0.261,0.050,0.270,-5.337
0.246,0.055,0.270,-5.337
0.171,0.057,0.274,-5.337
0.229,0.049,0.274,-5.337
0.270,0.049,0.271,-5.337
0.206,0.051,0.275,-5.337
0.195,0.051,0.277,-5.337
0.164,0.054,0.275,-5.337
0.144,0.055,0.270,-5.337
0.158,0.055,0.269,-5.337
0.216,0.055,0.271,-5.337
0.139,0.058,0.269,-5.337
0.119,0.059,0.270,-5.337
0.238,0.059,0.271,-5.337
0.254,0.059,0.270,-5.337
0.236,0.057,0.268,-5.337
0.200,0.057,0.272,-5.337
0.166,0.059,0.272,-5.337
0.180,0.055,0.271,-5.337
0.251,0.056,0.271,-5.337
0.181,0.059,0.272,-5.337
0.151,0.057,0.272,-5.337
0.205,0.060,0.274,-5.337
0.254,0.061,0.274,-5.337
0.262,0.057,0.274,-5.337
0.186,0.056,0.274,-5.337
0.126,0.059,0.275,-5.337
0.099,0.059,0.273,-5.337
0.158,0.059,0.270,-5.337
0.238,0.059,0.269,-5.337
0.243,0.060,0.270,-5.337
0.177,0.059,0.272,-5.337
0.229,0.056,0.272,-5.337
0.236,0.059,0.273,-5.337
0.160,0.062,0.276,-5.337
0.108,0.064,0.277,-5.337
0.144,0.061,0.276,-5.337
0.146,0.064,0.275,-5.337
0.099,0.063,0.269,-5.337
0.111,0.061,0.262,-5.337
0.180,0.062,0.265,-5.337
0.191,0.062,0.275,-5.337
0.155,0.062,0.282,-5.337
0.170,0.061,0.280,-5.337
0.171,0.060,0.277,-5.337
0.191,0.057,0.275,-5.337
0.192,0.056,0.275,-5.337
0.217,0.056,0.277,-5.337
0.189,0.059,0.273,-5.337
0.148,0.063,0.271,-5.337
0.159,0.060,0.269,-5.337
0.146,0.060,0.271,-5.337
0.137,0.061,0.274,-5.337
0.137,0.063,0.276,-5.337
0.174,0.059,0.272,-5.337
0.182,0.061,0.272,-5.337
0.169,0.056,0.271,-5.337
0.194,0.058,0.272,-5.337
0.266,0.058,0.274,-5.337
0.290,0.058,0.275,-5.337
0.205,0.061,0.273,-5.337
0.161,0.060,0.274,-5.337
0.163,0.060,0.272,-5.337
0.203,0.058,0.272,-5.337
0.277,0.058,0.271,-5.337
0.228,0.059,0.269,-5.337
0.150,0.064,0.272,-5.337
0.144,0.066,0.277,-5.337
0.161,0.063,0.276,-5.337
0.154,0.060,0.275,-5.337
0.180,0.058,0.274,-5.337
0.182,0.061,0.270,-5.337
0.184,0.063,0.272,-5.337
0.250,0.061,0.274,-5.337
0.265,0.064,0.276,-5.337
0.218,0.066,0.275,-5.337
0.230,0.062,0.275,-5.337
0.271,0.057,0.273,-5.337
0.319,0.060,0.267,-5.337
0.237,0.064,0.269,-5.337
0.156,0.063,0.271,-5.337
0.232,0.060,0.270,-5.337
0.223,0.061,0.267,-5.337
0.165,0.062,0.269,-5.337
0.195,0.059,0.273,-5.337
0.276,0.055,0.273,-5.337
0.192,0.060,0.273,-5.337
0.056,0.067,0.276,-5.337
0.076,0.065,0.276,-5.337
0.171,0.063,0.275,-5.337
0.261,0.060,0.270,-5.337
0.279,0.059,0.272,-5.337
0.201,0.061,0.273,-5.337
0.139,0.063,0.272,-5.337
0.175,0.059,0.267,-5.337
0.156,0.063,0.271,-5.337
0.158,0.061,0.276,-5.337
0.170,0.063,0.276,-5.337
0.136,0.063,0.273,-5.337
0.127,0.061,0.270,-5.337
0.138,0.062,0.268,-5.337
0.180,0.062,0.268,-5.337
0.143,0.062,0.271,-5.337
0.196,0.061,0.274,-5.337
0.228,0.063,0.272,-5.337
0.247,0.063,0.272,-5.337
0.261,0.067,0.270,-5.337
0.226,0.067,0.270,-5.337
0.198,0.063,0.274,-5.337
0.214,0.062,0.277,-5.337
0.238,0.061,0.278,-5.337
0.217,0.062,0.274,-5.337
0.181,0.064,0.275,-5.337
0.180,0.065,0.273,-5.337
0.230,0.062,0.272,-5.337
0.194,0.060,0.270,-5.337
0.188,0.059,0.271,-5.337
0.218,0.060,0.270,-5.337
0.229,0.064,0.269,-5.337
0.184,0.066,0.269,-5.337
0.156,0.065,0.272,-5.337
0.096,0.064,0.272,-5.337
0.148,0.062,0.271,-5.337
0.192,0.062,0.272,-5.337
0.240,0.063,0.277,-5.337
0.292,0.065,0.277,-5.337
0.240,0.065,0.277,-5.337
0.208,0.062,0.275,-5.337
0.182,0.062,0.272,-5.337
0.230,0.063,0.273,-5.337
0.278,0.065,0.271,-5.337
0.206,0.067,0.271,-5.337
0.179,0.066,0.268,-5.337
0.246,0.065,0.268,-5.337
0.200,0.065,0.271,-5.337
0.147,0.063,0.274,-5.337
0.204,0.062,0.268,-5.337
0.256,0.064,0.267,-5.337
0.217,0.066,0.273,-5.337
0.186,0.065,0.275,-5.337
0.172,0.062,0.276,-5.337
0.148,0.065,0.275,-5.337
0.209,0.061,0.272,-5.337
0.294,0.056,0.271,-5.337
0.276,0.057,0.272,-5.337
0.243,0.061,0.273,-5.337
0.243,0.062,0.274,-5.337
0.180,0.064,0.279,-5.337
0.155,0.061,0.280,-5.337
0.163,0.059,0.276,-5.337
0.209,0.058,0.270,-5.337
0.260,0.060,0.266,-5.337
0.235,0.062,0.273,-5.337
0.210,0.063,0.273,-5.337
0.206,0.064,0.273,-5.337
0.160,0.065,0.274,-5.337
0.164,0.060,0.277,-5.337
0.260,0.059,0.275,-5.337
0.308,0.061,0.270,-5.337
0.268,0.058,0.269,-5.337
0.220,0.059,0.273,-5.337
0.200,0.061,0.273,-5.337
0.225,0.062,0.271,-5.337
0.291,0.064,0.267,-5.337
0.281,0.062,0.268,-5.337
0.240,0.061,0.270,-5.337
0.188,0.065,0.273,-5.337
0.156,0.064,0.274,-5.337
0.225,0.060,0.275,-5.337
0.238,0.061,0.277,-5.337
0.175,0.063,0.278,-5.337
0.144,0.066,0.278,-5.337
0.112,0.067,0.275,-5.337
0.105,0.062,0.273,-5.337
0.120,0.059,0.271,-5.337
0.139,0.062,0.269,-5.337
0.160,0.063,0.266,-5.337
0.155,0.065,0.271,-5.337
0.219,0.062,0.272,-5.337
0.270,0.060,0.268,-5.337
0.206,0.062,0.265,-5.337
0.183,0.062,0.268,-5.337
0.194,0.064,0.273,-5.337
0.209,0.062,0.274,-5.337
0.177,0.059,0.275,-5.337
0.218,0.058,0.275,-5.337
0.263,0.056,0.276,-5.337
0.285,0.057,0.273,-5.337
0.236,0.056,0.268,-5.337
0.183,0.055,0.266,-5.337
0.155,0.060,0.266,-5.337
0.175,0.063,0.272,-5.337
0.159,0.062,0.273,-5.337
0.191,0.058,0.273,-5.337
0.222,0.055,0.276,-5.337
0.193,0.057,0.276,-5.337
0.177,0.060,0.278,-5.337
0.201,0.057,0.276,-5.337
0.239,0.057,0.276,-5.337
0.283,0.060,0.275,-5.337
0.273,0.060,0.274,-5.337
0.182,0.061,0.268,-5.337
0.121,0.060,0.268,-5.337
0.168,0.058,0.267,-5.337
0.207,0.059,0.269,-5.337
0.195,0.054,0.272,-5.337
0.186,0.053,0.274,-5.337
0.190,0.053,0.272,-5.337
0.212,0.052,0.273,-5.337
0.246,0.052,0.275,-5.337
0.266,0.052,0.274,-5.337
0.233,0.052,0.274,-5.337
0.172,0.054,0.273,-5.337
0.143,0.055,0.269,-5.337
0.160,0.052,0.270,-5.337
0.159,0.053,0.273,-5.337
0.107,0.054,0.272,-5.337
0.074,0.055,0.269,-5.337
0.183,0.051,0.271,-5.337
0.238,0.051,0.274,-5.337
0.240,0.053,0.277,-5.337
0.260,0.052,0.277,-5.337
0.174,0.053,0.272,-5.337
0.147,0.054,0.269,-5.337
0.215,0.047,0.270,-5.337
0.273,0.047,0.269,-5.337
0.265,0.047,0.269,-5.337
0.236,0.053,0.270,-5.337
0.204,0.049,0.273,-5.337
0.188,0.049,0.276,-5.337
0.209,0.051,0.273,-5.337
0.218,0.053,0.270,-5.337
0.194,0.050,0.268,-5.337
0.197,0.051,0.270,-5.337
0.137,0.056,0.273,-5.337
0.134,0.052,0.274,-5.337
0.172,0.048,0.276,-5.337
0.224,0.049,0.276,-5.337
0.235,0.052,0.274,-5.337
0.244,0.054,0.271,-5.337
0.169,0.054,0.272,-5.337
0.145,0.050,0.272,-5.337
0.212,0.047,0.275,-5.337
0.158,0.050,0.273,-5.337
0.129,0.053,0.270,-5.337
0.170,0.053,0.265,-5.337
0.142,0.052,0.268,-5.337
0.154,0.049,0.272,-5.337
0.231,0.048,0.277,-5.337
0.230,0.047,0.278,-5.337
0.183,0.049,0.274,-5.337
0.142,0.047,0.270,-5.337
0.165,0.044,0.267,-5.337
0.180,0.043,0.267,-5.337
0.174,0.041,0.269,-5.337
0.193,0.044,0.273,-5.337
0.160,0.049,0.276,-5.337
0.120,0.045,0.276,-5.337
0.141,0.042,0.272,-5.337
0.117,0.041,0.270,-5.337
0.197,0.041,0.268,-5.337
0.224,0.044,0.273,-5.337
0.195,0.041,0.273,-5.337
0.198,0.043,0.275,-5.337
0.255,0.042,0.274,-5.337
0.214,0.046,0.272,-5.337
0.189,0.043,0.271,-5.337
0.248,0.042,0.272,-5.337
0.218,0.045,0.269,-5.337
0.154,0.047,0.267,-5.337
0.218,0.044,0.268,-5.337
0.291,0.043,0.273,-5.337
0.293,0.044,0.277,-5.337
0.244,0.047,0.279,-5.337
0.250,0.045,0.275,-5.337
0.242,0.045,0.270,-5.337
0.235,0.046,0.268,-5.337
0.254,0.044,0.267,-5.337
0.176,0.042,0.268,-5.337
0.169,0.043,0.273,-5.337
0.188,0.045,0.280,-5.337
0.102,0.050,0.280,-5.337
0.070,0.047,0.275,-5.337
0.196,0.042,0.270,-5.337
0.224,0.044,0.269,-5.337
0.196,0.045,0.272,-5.337
0.171,0.044,0.275,-5.337
0.222,0.041,0.273,-5.337
0.305,0.042,0.271,-5.337
0.275,0.044,0.270,-5.337
0.266,0.046,0.269,-5.337
0.280,0.043,0.271,-5.337
0.242,0.041,0.276,-5.337
0.169,0.041,0.276,-5.337
0.185,0.041,0.272,-5.337
0.180,0.043,0.268,-5.337
0.141,0.046,0.269,-5.337
0.056,0.049,0.274,-5.337
0.086,0.050,0.275,-5.337
0.128,0.050,0.273,-5.337
0.153,0.051,0.268,-5.337
0.211,0.048,0.268,-5.337
0.274,0.048,0.270,-5.337
0.234,0.049,0.275,-5.337
0.147,0.051,0.276,-5.337
0.167,0.047,0.273,-5.337
0.226,0.044,0.271,-5.337
0.259,0.049,0.272,-5.337
0.245,0.046,0.270,-5.337
0.202,0.046,0.271,-5.337
0.157,0.047,0.276,-5.337
0.193,0.046,0.277,-5.337
0.223,0.045,0.274,-5.337
0.176,0.047,0.272,-5.337
0.129,0.043,0.272,-5.337
0.138,0.042,0.271,-5.337
0.161,0.045,0.270,-5.337
0.155,0.044,0.271,-5.337
0.138,0.045,0.274,-5.337
0.101,0.046,0.280,-5.337
0.105,0.041,0.280,-5.337
0.118,0.042,0.275,-5.337
0.138,0.041,0.275,-5.337
0.185,0.039,0.271,-5.337
0.236,0.037,0.269,-5.337
0.233,0.039,0.265,-5.337
0.211,0.043,0.269,-5.337
0.210,0.039,0.273,-5.337
0.189,0.036,0.276,-5.337
0.172,0.036,0.279,-5.337
0.134,0.039,0.280,-5.337
0.091,0.041,0.279,-5.337
0.111,0.040,0.273,-5.337
0.149,0.040,0.266,-5.337
0.170,0.038,0.264,-5.337
0.184,0.042,0.268,-5.337
0.162,0.042,0.272,-5.337
0.135,0.038,0.269,-5.337
0.167,0.039,0.269,-5.337
0.175,0.040,0.273,-5.337
0.195,0.035,0.277,-5.337
0.255,0.033,0.278,-5.337
0.230,0.036,0.275,-5.337
0.134,0.041,0.272,-5.337
0.089,0.042,0.271,-5.337
0.063,0.041,0.271,-5.337
0.151,0.037,0.273,-5.337
0.138,0.042,0.278,-5.337
0.108,0.041,0.278,-5.337
0.131,0.042,0.275,-5.337
0.208,0.040,0.270,-5.337
0.232,0.040,0.268,-5.337
0.202,0.038,0.270,-5.337
0.178,0.038,0.276,-5.337
0.189,0.037,0.278,-5.337
0.206,0.038,0.274,-5.337
0.185,0.040,0.269,-5.337
0.144,0.041,0.268,-5.337
0.179,0.042,0.270,-5.337
0.210,0.042,0.272,-5.337
0.245,0.039,0.272,-5.337
0.228,0.040,0.271,-5.337
0.229,0.036,0.275,-5.337
0.225,0.037,0.277,-5.337
0.161,0.038,0.275,-5.337
0.115,0.040,0.269,-5.337
0.170,0.038,0.270,-5.337
0.195,0.037,0.272,-5.337
0.155,0.039,0.275,-5.337
0.176,0.037,0.273,-5.337
0.206,0.039,0.272,-5.337
0.166,0.036,0.273,-5.337
0.110,0.034,0.272,-5.337
0.139,0.034,0.270,-5.337
0.194,0.035,0.267,-5.337
0.260,0.033,0.263,-5.337
0.226,0.033,0.267,-5.337
0.139,0.034,0.267,-5.337
0.177,0.033,0.272,-5.337
0.145,0.033,0.275,-5.337
0.098,0.035,0.275,-5.337
0.096,0.036,0.272,-5.337
0.138,0.040,0.274,-5.337
0.220,0.036,0.273,-5.337
0.161,0.038,0.272,-5.337
0.168,0.034,0.275,-5.337
0.174,0.037,0.273,-5.337
0.192,0.038,0.270,-5.337
0.226,0.041,0.270,-5.337
0.172,0.043,0.273,-5.337
0.148,0.041,0.270,-5.337
0.167,0.038,0.269,-5.337
0.222,0.034,0.271,-5.337
0.270,0.034,0.273,-5.337
0.215,0.039,0.270,-5.337
0.096,0.042,0.271,-5.337
0.044,0.040,0.273,-5.337
0.138,0.035,0.271,-5.337
0.169,0.036,0.271,-5.337
0.133,0.034,0.272,-5.337
0.186,0.032,0.270,-5.337
0.249,0.032,0.270,-5.337
0.236,0.034,0.274,-5.337
0.196,0.031,0.273,-5.337
0.255,0.030,0.271,-5.337
0.276,0.032,0.268,-5.337
0.211,0.035,0.273,-5.337
0.140,0.039,0.274,-5.337
0.127,0.039,0.275,-5.337
0.137,0.039,0.273,-5.337
0.155,0.038,0.271,-5.337
0.172,0.031,0.267,-5.337
0.215,0.031,0.273,-5.337
0.219,0.036,0.275,-5.337
0.180,0.040,0.273,-5.337
0.190,0.040,0.268,-5.337
0.146,0.040,0.273,-5.337
0.118,0.037,0.276,-5.337
0.087,0.042,0.275,-5.337
0.110,0.042,0.272,-5.337
0.148,0.043,0.272,-5.337
0.240,0.040,0.274,-5.337
0.245,0.041,0.274,-5.337
0.139,0.043,0.272,-5.337
0.112,0.040,0.272,-5.337
0.176,0.037,0.274,-5.337
0.165,0.043,0.273,-5.337
0.122,0.044,0.270,-5.337
0.116,0.043,0.268,-5.337
0.111,0.041,0.271,-5.337
0.137,0.042,0.274,-5.337
0.133,0.045,0.273,-5.337
0.159,0.046,0.269,-5.337
0.140,0.046,0.268,-5.337
0.184,0.047,0.273,-5.337
0.256,0.041,0.279,-5.337
0.266,0.041,0.281,-5.337
0.248,0.046,0.274,-5.337
0.198,0.046,0.273,-5.337
0.219,0.045,0.272,-5.337
0.261,0.042,0.273,-5.337
0.271,0.044,0.275,-5.337
0.222,0.045,0.274,-5.337
0.183,0.044,0.270,-5.337
0.217,0.043,0.269,-5.337
0.217,0.043,0.268,-5.337
0.203,0.042,0.269,-5.337
0.190,0.042,0.274,-5.337
0.095,0.046,0.277,-5.337
0.067,0.046,0.273,-5.337
0.110,0.043,0.270,-5.337
0.123,0.043,0.268,-5.337
0.174,0.043,0.272,-5.337
0.221,0.043,0.274,-5.337
0.197,0.042,0.275,-5.337
0.137,0.042,0.274,-5.337
0.175,0.042,0.273,-5.337
0.193,0.046,0.271,-5.337
0.222,0.049,0.270,-5.337
0.222,0.051,0.268,-5.337
0.211,0.046,0.270,-5.337
0.123,0.047,0.273,-5.337
0.082,0.049,0.271,-5.337
0.151,0.049,0.272,-5.337
0.227,0.048,0.269,-5.337
0.246,0.044,0.267,-5.337
0.161,0.049,0.269,-5.337
0.165,0.050,0.277,-5.337
0.192,0.047,0.277,-5.337
0.172,0.048,0.272,-5.337
0.219,0.048,0.270,-5.337
0.257,0.044,0.271,-5.337
0.245,0.048,0.272,-5.337
0.180,0.049,0.275,-5.337
0.117,0.048,0.275,-5.337
0.133,0.047,0.276,-5.337
0.253,0.043,0.275,-5.337
0.317,0.045,0.269,-5.337
0.247,0.048,0.269,-5.337
0.202,0.050,0.274,-5.337
0.192,0.050,0.279,-5.337
0.180,0.047,0.276,-5.337
0.157,0.047,0.271,-5.337
0.165,0.048,0.270,-5.337
0.178,0.044,0.271,-5.337
0.220,0.046,0.270,-5.337
0.178,0.049,0.271,-5.337
0.176,0.049,0.274,-5.337
0.217,0.048,0.272,-5.337
0.220,0.048,0.269,-5.337
0.160,0.050,0.270,-5.337
0.113,0.051,0.271,-5.337
0.160,0.050,0.270,-5.337
0.162,0.053,0.271,-5.337
0.165,0.052,0.273,-5.337
0.204,0.050,0.273,-5.337
0.302,0.050,0.272,-5.337
0.306,0.051,0.272,-5.337
0.227,0.053,0.270,-5.337
0.194,0.053,0.269,-5.337
0.151,0.055,0.269,-5.337
0.112,0.055,0.271,-5.337
0.193,0.050,0.271,-5.337
0.231,0.047,0.272,-5.337
0.203,0.050,0.272,-5.337
0.232,0.053,0.275,-5.337
0.255,0.050,0.278,-5.337
0.249,0.052,0.275,-5.337
0.238,0.054,0.270,-5.337
0.216,0.054,0.266,-5.337
0.190,0.052,0.267,-5.337
0.175,0.053,0.273,-5.337
0.176,0.053,0.272,-5.337
0.217,0.050,0.272,-5.337
0.207,0.057,0.272,-5.337
0.220,0.056,0.271,-5.337
0.182,0.056,0.271,-5.337
0.149,0.055,0.275,-5.337
0.129,0.057,0.271,-5.337
0.143,0.058,0.267,-5.337
0.192,0.059,0.268,-5.337
0.118,0.063,0.271,-5.337
0.089,0.058,0.273,-5.337
0.178,0.058,0.276,-5.337
0.224,0.057,0.276,-5.337
0.250,0.054,0.276,-5.337
0.214,0.052,0.274,-5.337
0.198,0.052,0.273,-5.337
0.195,0.050,0.272,-5.337
0.210,0.053,0.272,-5.337
0.214,0.056,0.270,-5.337
0.243,0.057,0.268,-5.337
0.268,0.059,0.267,-5.337
0.268,0.059,0.267,-5.337
0.254,0.059,0.270,-5.337
0.203,0.057,0.274,-5.337
0.192,0.055,0.275,-5.337
0.262,0.054,0.271,-5.337
0.285,0.053,0.271,-5.337
0.219,0.059,0.270,-5.337
0.129,0.062,0.273,-5.337
0.100,0.061,0.273,-5.337
0.157,0.059,0.273,-5.337
0.159,0.060,0.269,-5.337
0.107,0.060,0.268,-5.337
0.102,0.061,0.268,-5.337
0.099,0.062,0.268,-5.337
0.107,0.060,0.271,-5.337
0.163,0.059,0.273,-5.337
0.230,0.054,0.273,-5.337
0.229,0.055,0.271,-5.337
0.216,0.057,0.272,-5.337
0.198,0.058,0.275,-5.337
0.186,0.059,0.273,-5.337
0.193,0.061,0.269,-5.337
0.211,0.059,0.271,-5.337
0.248,0.055,0.271,-5.337
0.244,0.057,0.271,-5.337
0.185,0.057,0.272,-5.337
0.174,0.061,0.272,-5.337
0.197,0.058,0.270,-5.337
0.213,0.056,0.272,-5.337
0.223,0.056,0.272,-5.337
0.221,0.057,0.270,-5.337
0.265,0.053,0.272,-5.337
0.244,0.054,0.277,-5.337
0.159,0.056,0.275,-5.337
0.171,0.051,0.269,-5.337
0.236,0.053,0.270,-5.337
0.220,0.057,0.272,-5.337
0.205,0.056,0.271,-5.337
0.290,0.057,0.272,-5.337
0.315,0.055,0.273,-5.337
0.222,0.056,0.273,-5.337
0.177,0.058,0.273,-5.337
0.146,0.060,0.271,-5.337
0.156,0.063,0.273,-5.337
0.189,0.065,0.274,-5.337
0.198,0.063,0.275,-5.337
0.163,0.062,0.271,-5.337
0.143,0.061,0.271,-5.337
0.156,0.060,0.273,-5.337
0.180,0.061,0.276,-5.337
0.196,0.062,0.272,-5.337
0.171,0.064,0.271,-5.337
0.204,0.065,0.270,-5.337
0.257,0.062,0.271,-5.337
0.264,0.062,0.274,-5.337
0.243,0.064,0.279,-5.337
0.243,0.061,0.279,-5.337
0.217,0.064,0.276,-5.337
0.192,0.065,0.273,-5.337
0.166,0.064,0.271,-5.337
0.191,0.062,0.273,-5.337
0.221,0.063,0.274,-5.337
0.189,0.065,0.274,-5.337
0.124,0.066,0.274,-5.337
0.159,0.067,0.272,-5.337
0.180,0.065,0.271,-5.337
0.141,0.067,0.272,-5.337
0.112,0.067,0.271,-5.337
0.168,0.065,0.274,-5.337
0.205,0.063,0.277,-5.337
0.197,0.063,0.278,-5.337
0.181,0.061,0.276,-5.337
0.171,0.065,0.273,-5.337
0.163,0.062,0.269,-5.337
0.209,0.061,0.268,-5.337
0.186,0.061,0.268,-5.337
0.204,0.062,0.270,-5.337
0.263,0.059,0.272,-5.337
0.254,0.063,0.274,-5.337
0.238,0.066,0.274,-5.337
0.196,0.067,0.277,-5.337
0.184,0.065,0.277,-5.337
0.138,0.063,0.275,-5.337
0.207,0.061,0.271,-5.337
0.291,0.064,0.272,-5.337
0.255,0.067,0.277,-5.337
0.200,0.063,0.277,-5.337
0.133,0.062,0.276,-5.337
0.192,0.064,0.275,-5.337
0.260,0.063,0.275,-5.337
0.295,0.066,0.273,-5.337
0.319,0.065,0.273,-5.337
0.287,0.069,0.272,-5.337
0.107,0.071,0.272,-5.337
0.123,0.069,0.269,-5.337
0.246,0.068,0.270,-5.337
0.267,0.067,0.272,-5.337
0.190,0.065,0.273,-5.337
0.169,0.063,0.272,-5.337
0.175,0.064,0.274,-5.337
0.189,0.064,0.273,-5.337
0.234,0.066,0.272,-5.337
0.235,0.064,0.273,-5.337
0.169,0.061,0.271,-5.337
0.174,0.062,0.268,-5.337
0.186,0.063,0.271,-5.337
0.189,0.065,0.272,-5.337
0.212,0.064,0.269,-5.337
0.204,0.061,0.271,-5.337
0.161,0.061,0.268,-5.337
0.168,0.058,0.268,-5.337
0.180,0.062,0.271,-5.337
0.146,0.066,0.277,-5.337
0.181,0.063,0.276,-5.337
0.220,0.062,0.275,-5.337
0.243,0.062,0.272,-5.337
0.246,0.065,0.275,-5.337
0.237,0.060,0.275,-5.337
0.280,0.061,0.272,-5.337
0.296,0.065,0.271,-5.337
0.276,0.065,0.272,-5.337
0.217,0.065,0.270,-5.337
0.265,0.063,0.271,-5.337
0.255,0.067,0.270,-5.337
0.232,0.064,0.268,-5.337
0.204,0.066,0.271,-5.337
0.141,0.069,0.272,-5.337
0.187,0.067,0.275,-5.337
0.215,0.066,0.273,-5.337
0.185,0.066,0.272,-5.337
0.187,0.065,0.273,-5.337
0.194,0.064,0.277,-5.337
0.206,0.060,0.277,-5.337
0.204,0.060,0.273,-5.337
0.215,0.061,0.271,-5.337
0.261,0.059,0.271,-5.337
0.240,0.060,0.273,-5.337
0.173,0.063,0.272,-5.337
0.147,0.060,0.272,-5.337
0.221,0.059,0.276,-5.337
0.231,0.061,0.276,-5.337
0.215,0.061,0.273,-5.337
0.230,0.059,0.271,-5.337
0.233,0.059,0.272,-5.337
0.253,0.060,0.272,-5.337
0.262,0.059,0.269,-5.337
0.252,0.060,0.270,-5.337
0.194,0.064,0.273,-5.337
0.206,0.059,0.275,-5.337
0.196,0.059,0.275,-5.337
0.184,0.063,0.278,-5.337
0.240,0.061,0.277,-5.337
0.279,0.062,0.276,-5.337
0.185,0.065,0.270,-5.337
0.147,0.063,0.272,-5.337
0.181,0.062,0.276,-5.337
0.195,0.061,0.276,-5.337
0.218,0.057,0.275,-5.337
0.191,0.062,0.274,-5.337
0.167,0.059,0.274,-5.337
0.139,0.056,0.274,-5.337
0.189,0.054,0.271,-5.337
0.285,0.053,0.268,-5.337
0.359,0.051,0.268,-5.337
0.277,0.057,0.270,-5.337
0.175,0.058,0.273,-5.337
0.129,0.058,0.274,-5.337
0.158,0.058,0.275,-5.337
0.143,0.061,0.272,-5.337
0.171,0.058,0.272,-5.337
0.263,0.057,0.275,-5.337
0.266,0.058,0.277,-5.337
0.164,0.054,0.277,-5.337
0.166,0.052,0.276,-5.337
0.222,0.052,0.273,-5.337
0.204,0.056,0.273,-5.337
0.184,0.057,0.275,-5.337
0.181,0.057,0.273,-5.337
0.250,0.051,0.271,-5.337
0.242,0.052,0.271,-5.337
0.169,0.052,0.273,-5.337
0.128,0.053,0.274,-5.337
0.135,0.054,0.277,-5.337
0.173,0.053,0.277,-5.337
0.192,0.052,0.276,-5.337
0.178,0.051,0.276,-5.337
0.169,0.052,0.275,-5.337
0.155,0.055,0.273,-5.337
0.167,0.058,0.272,-5.337
0.163,0.058,0.269,-5.337
0.128,0.055,0.271,-5.337
0.120,0.056,0.272,-5.337
0.154,0.059,0.274,-5.337
0.161,0.058,0.273,-5.337
0.280,0.054,0.269,-5.337
0.302,0.053,0.272,-5.337
0.212,0.056,0.277,-5.337
0.177,0.055,0.276,-5.337
0.180,0.053,0.274,-5.337
0.248,0.052,0.274,-5.337
0.262,0.051,0.271,-5.337
0.226,0.049,0.275,-5.337
0.241,0.052,0.278,-5.337
0.212,0.053,0.275,-5.337
0.259,0.054,0.273,-5.337
0.237,0.052,0.271,-5.337
0.187,0.052,0.269,-5.337
0.197,0.050,0.270,-5.337
0.227,0.050,0.273,-5.337
0.246,0.048,0.275,-5.337
0.215,0.047,0.273,-5.337
0.174,0.048,0.273,-5.337
0.187,0.048,0.275,-5.337
0.193,0.049,0.276,-5.337
0.125,0.049,0.276,-5.337
0.107,0.047,0.277,-5.337
0.112,0.048,0.273,-5.337
0.112,0.045,0.270,-5.337
0.126,0.045,0.274,-5.337
0.134,0.047,0.276,-5.337
0.181,0.049,0.275,-5.337
0.262,0.049,0.273,-5.337
0.236,0.046,0.270,-5.337
0.214,0.046,0.268,-5.337
0.168,0.048,0.270,-5.337
0.180,0.048,0.276,-5.337
0.199,0.049,0.278,-5.337
0.189,0.048,0.276,-5.337
0.198,0.047,0.272,-5.337
0.232,0.046,0.271,-5.337
0.249,0.045,0.274,-5.337
0.243,0.052,0.275,-5.337
0.171,0.052,0.277,-5.337
0.183,0.050,0.274,-5.337
0.256,0.045,0.270,-5.337
0.268,0.047,0.268,-5.337
0.265,0.049,0.274,-5.337
0.274,0.043,0.276,-5.337
0.328,0.040,0.277,-5.337
0.327,0.043,0.278,-5.337
0.185,0.048,0.279,-5.337
0.157,0.043,0.275,-5.337
0.226,0.042,0.271,-5.337
0.181,0.043,0.269,-5.337
0.149,0.043,0.272,-5.337
0.215,0.039,0.273,-5.337
0.233,0.042,0.272,-5.337
0.121,0.049,0.271,-5.337
0.077,0.047,0.272,-5.337
0.167,0.046,0.271,-5.337
0.246,0.047,0.271,-5.337
0.135,0.052,0.271,-5.337
0.067,0.054,0.272,-5.337
0.186,0.046,0.275,-5.337
0.192,0.043,0.274,-5.337
0.154,0.043,0.272,-5.337
0.211,0.043,0.270,-5.337
0.217,0.043,0.274,-5.337
0.145,0.042,0.275,-5.337
0.093,0.045,0.279,-5.337
0.128,0.044,0.278,-5.337
0.196,0.042,0.271,-5.337
0.219,0.041,0.268,-5.337
0.147,0.046,0.272,-5.337
0.176,0.044,0.277,-5.337
0.156,0.046,0.278,-5.337
0.153,0.041,0.275,-5.337
0.220,0.039,0.272,-5.337
0.232,0.043,0.272,-5.337
0.217,0.047,0.272,-5.337
0.190,0.047,0.270,-5.337
0.193,0.046,0.268,-5.337
0.204,0.047,0.269,-5.337
0.193,0.047,0.273,-5.337
0.150,0.046,0.276,-5.337
0.180,0.047,0.272,-5.337
0.262,0.044,0.269,-5.337
0.225,0.043,0.271,-5.337
0.180,0.043,0.274,-5.337
0.177,0.042,0.275,-5.337
0.166,0.045,0.270,-5.337
0.139,0.045,0.270,-5.337
0.177,0.042,0.274,-5.337
0.235,0.044,0.279,-5.337
0.169,0.043,0.276,-5.337
0.160,0.043,0.274,-5.337
0.197,0.042,0.275,-5.337
0.164,0.042,0.276,-5.337
0.078,0.043,0.275,-5.337
0.079,0.046,0.273,-5.337
0.133,0.042,0.270,-5.337
0.164,0.042,0.269,-5.337
0.167,0.044,0.269,-5.337
0.210,0.041,0.270,-5.337
0.229,0.039,0.271,-5.337
0.220,0.041,0.271,-5.337
0.240,0.040,0.272,-5.337
0.237,0.043,0.277,-5.337
0.255,0.042,0.277,-5.337
0.233,0.043,0.277,-5.337
0.192,0.041,0.269,-5.337
0.148,0.043,0.267,-5.337
0.152,0.042,0.275,-5.337
0.203,0.040,0.282,-5.337
0.240,0.039,0.279,-5.337
0.268,0.042,0.276,-5.337
0.244,0.044,0.274,-5.337
0.221,0.041,0.271,-5.337
0.166,0.043,0.273,-5.337
0.118,0.045,0.276,-5.337
0.179,0.042,0.273,-5.337
0.206,0.045,0.270,-5.337
0.222,0.047,0.268,-5.337
0.175,0.048,0.269,-5.337
0.102,0.048,0.271,-5.337
0.056,0.048,0.274,-5.337
0.114,0.042,0.275,-5.337
0.245,0.039,0.279,-5.337
0.250,0.042,0.279,-5.337
0.199,0.043,0.272,-5.337
0.185,0.042,0.269,-5.337
0.212,0.043,0.270,-5.337
0.182,0.042,0.274,-5.337
0.183,0.040,0.278,-5.337
0.196,0.043,0.279,-5.337
0.211,0.044,0.276,-5.337
0.218,0.045,0.272,-5.337
0.131,0.046,0.271,-5.337
0.104,0.045,0.272,-5.337
0.215,0.040,0.271,-5.337
0.229,0.038,0.272,-5.337
0.216,0.038,0.276,-5.337
0.162,0.042,0.277,-5.337
0.117,0.043,0.278,-5.337
0.185,0.039,0.279,-5.337
0.274,0.036,0.277,-5.337
0.287,0.035,0.275,-5.337
0.228,0.036,0.273,-5.337
0.227,0.038,0.272,-5.337
0.186,0.043,0.275,-5.337
0.218,0.042,0.275,-5.337
0.215,0.041,0.272,-5.337
0.134,0.043,0.269,-5.337
0.071,0.041,0.273,-5.337
0.109,0.040,0.273,-5.337
0.159,0.045,0.274,-5.337
0.123,0.043,0.277,-5.337
0.097,0.041,0.276,-5.337
0.108,0.040,0.275,-5.337
0.117,0.038,0.274,-5.337
0.187,0.036,0.273,-5.337
0.255,0.037,0.271,-5.337
0.265,0.040,0.272,-5.337
0.181,0.041,0.273,-5.337
0.073,0.039,0.275,-5.337
0.109,0.038,0.273,-5.337
0.174,0.038,0.272,-5.337
0.229,0.039,0.271,-5.337
0.183,0.043,0.272,-5.337
0.085,0.043,0.272,-5.337
0.112,0.045,0.274,-5.337
0.132,0.047,0.274,-5.337
0.144,0.045,0.270,-5.337
0.159,0.046,0.266,-5.337
0.123,0.046,0.266,-5.337
0.122,0.047,0.267,-5.337
0.141,0.048,0.271,-5.337
0.153,0.048,0.272,-5.337
0.170,0.042,0.273,-5.337
0.167,0.042,0.276,-5.337
0.142,0.040,0.280,-5.337
0.141,0.041,0.278,-5.337
0.158,0.044,0.275,-5.337
0.202,0.042,0.272,-5.337
0.270,0.038,0.270,-5.337
0.166,0.042,0.273,-5.337
0.135,0.041,0.274,-5.337
0.132,0.042,0.273,-5.337
0.079,0.042,0.270,-5.337
0.138,0.039,0.270,-5.337
0.232,0.042,0.273,-5.337
0.234,0.043,0.275,-5.337
0.147,0.039,0.274,-5.337
0.175,0.038,0.271,-5.337
0.220,0.040,0.266,-5.337
0.251,0.040,0.263,-5.337
0.243,0.043,0.266,-5.337
0.212,0.043,0.272,-5.337
0.219,0.039,0.274,-5.337
0.264,0.037,0.276,-5.337
0.251,0.038,0.277,-5.337
0.128,0.042,0.274,-5.337
0.077,0.042,0.274,-5.337
0.116,0.041,0.273,-5.337
0.095,0.041,0.273,-5.337
0.131,0.038,0.274,-5.337
0.237,0.039,0.273,-5.337
0.262,0.038,0.272,-5.337
0.189,0.039,0.272,-5.337
0.182,0.040,0.271,-5.337
0.212,0.041,0.269,-5.337
0.133,0.045,0.270,-5.337
0.116,0.042,0.270,-5.337
0.188,0.039,0.267,-5.337
0.216,0.039,0.273,-5.337
0.201,0.044,0.274,-5.337
0.187,0.047,0.272,-5.337
0.159,0.046,0.271,-5.337
0.174,0.047,0.274,-5.337
0.199,0.048,0.275,-5.337
0.203,0.051,0.277,-5.337
0.158,0.049,0.274,-5.337
0.111,0.048,0.272,-5.337
0.050,0.047,0.269,-5.337
0.127,0.044,0.269,-5.337
0.280,0.042,0.272,-5.337
0.263,0.045,0.273,-5.337
0.135,0.049,0.272,-5.337
0.129,0.046,0.276,-5.337
0.168,0.048,0.277,-5.337
0.166,0.049,0.274,-5.337
0.208,0.048,0.274,-5.337
0.255,0.046,0.275,-5.337
0.276,0.046,0.275,-5.337
0.220,0.047,0.272,-5.337
0.214,0.049,0.274,-5.337
0.223,0.048,0.274,-5.337
0.162,0.052,0.272,-5.337
0.164,0.048,0.271,-5.337
0.201,0.048,0.274,-5.337
0.159,0.050,0.275,-5.337
0.162,0.051,0.274,-5.337
0.165,0.049,0.276,-5.337
0.217,0.046,0.275,-5.337
0.226,0.048,0.271,-5.337
0.233,0.049,0.270,-5.337
0.235,0.049,0.270,-5.337
0.157,0.052,0.272,-5.337
0.130,0.051,0.274,-5.337
0.101,0.049,0.273,-5.337
0.177,0.047,0.273,-5.337
0.239,0.045,0.273,-5.337
0.219,0.044,0.273,-5.337
0.262,0.047,0.275,-5.337
0.374,0.046,0.278,-5.337
0.328,0.049,0.278,-5.337
0.192,0.049,0.276,-5.337
0.133,0.049,0.272,-5.337
0.212,0.048,0.275,-5.337
0.173,0.050,0.272,-5.337
0.122,0.050,0.267,-5.337
0.154,0.050,0.269,-5.337
0.229,0.048,0.276,-5.337
0.257,0.047,0.276,-5.337
0.325,0.044,0.276,-5.337
0.294,0.047,0.271,-5.337
0.228,0.054,0.271,-5.337
0.245,0.050,0.271,-5.337
0.272,0.047,0.273,-5.337
0.257,0.046,0.277,-5.337
0.192,0.051,0.280,-5.337
0.167,0.047,0.277,-5.337
0.199,0.051,0.274,-5.337
0.143,0.054,0.273,-5.337
0.157,0.049,0.274,-5.337
0.255,0.050,0.277,-5.337
0.187,0.051,0.276,-5.337
0.127,0.053,0.272,-5.337
0.201,0.052,0.271,-5.337
0.244,0.051,0.272,-5.337
0.204,0.049,0.275,-5.337
0.220,0.049,0.276,-5.337
0.248,0.052,0.271,-5.337
0.216,0.056,0.269,-5.337
0.237,0.055,0.269,-5.337
0.211,0.053,0.273,-5.337
0.124,0.054,0.274,-5.337
0.124,0.055,0.273,-5.337
0.125,0.056,0.270,-5.337
0.110,0.057,0.266,-5.337
0.145,0.055,0.268,-5.337
0.170,0.054,0.272,-5.337
0.207,0.051,0.276,-5.337
0.235,0.053,0.279,-5.337
0.193,0.056,0.279,-5.337
0.136,0.058,0.277,-5.337
0.158,0.053,0.274,-5.337
0.233,0.052,0.273,-5.337
0.316,0.050,0.273,-5.337
0.265,0.052,0.271,-5.337
0.153,0.054,0.272,-5.337
0.156,0.055,0.271,-5.337
0.174,0.056,0.279,-5.337
0.169,0.054,0.283,-5.337
0.167,0.054,0.282,-5.337
0.192,0.053,0.278,-5.337
0.195,0.058,0.273,-5.337
0.191,0.057,0.266,-5.337
0.255,0.056,0.263,-5.337
0.287,0.055,0.263,-5.337
0.225,0.061,0.266,-5.337
0.092,0.064,0.273,-5.337
0.084,0.063,0.277,-5.337
0.158,0.057,0.276,-5.337
0.144,0.058,0.278,-5.337
0.175,0.059,0.278,-5.337
0.218,0.058,0.275,-5.337
0.236,0.056,0.271,-5.337
0.166,0.058,0.269,-5.337
0.168,0.055,0.270,-5.337
0.186,0.058,0.272,-5.337
0.166,0.058,0.273,-5.337
0.183,0.060,0.270,-5.337
0.175,0.058,0.269,-5.337
0.202,0.055,0.268,-5.337
0.220,0.052,0.270,-5.337
0.226,0.052,0.272,-5.337
0.254,0.053,0.273,-5.337
0.213,0.054,0.272,-5.337
0.152,0.057,0.270,-5.337
0.154,0.056,0.270,-5.337
0.158,0.054,0.268,-5.337
0.234,0.050,0.271,-5.337
0.200,0.056,0.273,-5.337
0.117,0.061,0.273,-5.337
0.145,0.061,0.272,-5.337
0.186,0.059,0.271,-5.337
0.188,0.054,0.271,-5.337
0.170,0.054,0.271,-5.337
0.113,0.057,0.273,-5.337
0.177,0.059,0.279,-5.337
0.251,0.060,0.283,-5.337
0.226,0.058,0.283,-5.337
0.223,0.052,0.282,-5.337
0.239,0.054,0.278,-5.337
0.252,0.056,0.272,-5.337
0.291,0.056,0.267,-5.337
0.327,0.055,0.265,-5.337
0.319,0.057,0.266,-5.337
0.237,0.058,0.269,-5.337
0.208,0.059,0.269,-5.337
0.235,0.060,0.268,-5.337
0.265,0.060,0.269,-5.337
0.215,0.060,0.272,-5.337
0.153,0.061,0.273,-5.337
0.200,0.057,0.274,-5.337
0.261,0.056,0.273,-5.337
0.204,0.056,0.270,-5.337
0.133,0.060,0.268,-5.337
0.104,0.064,0.272,-5.337
0.147,0.061,0.278,-5.337
0.204,0.061,0.281,-5.337
0.216,0.063,0.279,-5.337
0.182,0.062,0.277,-5.337
0.203,0.061,0.273,-5.337
0.226,0.064,0.272,-5.337
0.224,0.067,0.268,-5.337
0.189,0.069,0.268,-5.337
0.191,0.060,0.270,-5.337
0.216,0.058,0.271,-5.337
0.225,0.058,0.269,-5.337
0.265,0.057,0.268,-5.337
0.209,0.061,0.273,-5.337
0.198,0.060,0.278,-5.337
0.151,0.063,0.278,-5.337
0.122,0.064,0.274,-5.337
0.199,0.062,0.271,-5.337
0.207,0.063,0.271,-5.337
0.164,0.064,0.275,-5.337
0.151,0.066,0.272,-5.337
0.181,0.062,0.271,-5.337
0.202,0.064,0.269,-5.337
0.212,0.066,0.272,-5.337
0.215,0.066,0.274,-5.337
0.248,0.063,0.278,-5.337
0.257,0.061,0.278,-5.337
0.213,0.068,0.276,-5.337
0.154,0.067,0.274,-5.337
0.101,0.066,0.276,-5.337
0.114,0.066,0.276,-5.337
0.211,0.062,0.276,-5.337
0.261,0.065,0.275,-5.337
0.239,0.066,0.279,-5.337
0.252,0.063,0.280,-5.337
0.197,0.066,0.277,-5.337
0.208,0.064,0.271,-5.337
0.255,0.062,0.270,-5.337
0.235,0.062,0.270,-5.337
0.199,0.065,0.270,-5.337
0.162,0.063,0.272,-5.337
0.194,0.063,0.276,-5.337
0.172,0.065,0.280,-5.337
0.176,0.064,0.279,-5.337
0.207,0.063,0.277,-5.337
0.254,0.060,0.275,-5.337
0.297,0.059,0.274,-5.337
0.312,0.059,0.273,-5.337
0.260,0.061,0.275,-5.337
0.254,0.062,0.274,-5.337
0.208,0.062,0.272,-5.337
0.216,0.060,0.274,-5.337
0.243,0.060,0.279,-5.337
0.164,0.063,0.277,-5.337
0.139,0.062,0.274,-5.337
0.180,0.061,0.271,-5.337
0.163,0.063,0.271,-5.337
0.207,0.061,0.269,-5.337
0.223,0.059,0.270,-5.337
0.283,0.060,0.275,-5.337
0.303,0.063,0.278,-5.337
0.262,0.065,0.276,-5.337
0.254,0.061,0.274,-5.337
0.226,0.061,0.275,-5.337
0.170,0.062,0.273,-5.337
0.099,0.065,0.273,-5.337
0.155,0.062,0.274,-5.337
0.187,0.061,0.273,-5.337
0.137,0.063,0.274,-5.337
0.165,0.058,0.277,-5.337
0.214,0.059,0.272,-5.337
0.255,0.058,0.269,-5.337
0.265,0.056,0.268,-5.337
0.303,0.058,0.271,-5.337
0.338,0.056,0.271,-5.337
0.326,0.057,0.275,-5.337
0.215,0.060,0.278,-5.337
0.174,0.060,0.276,-5.337
0.172,0.061,0.277,-5.337
0.197,0.059,0.276,-5.337
0.226,0.058,0.273,-5.337
0.239,0.060,0.270,-5.337
0.206,0.062,0.264,-5.337
0.234,0.062,0.262,-5.337
0.250,0.062,0.267,-5.337
0.250,0.062,0.270,-5.337
0.247,0.062,0.272,-5.337
0.134,0.065,0.277,-5.337
0.055,0.061,0.279,-5.337
0.071,0.061,0.272,-5.337
0.123,0.061,0.269,-5.337
0.174,0.065,0.270,-5.337
0.160,0.066,0.276,-5.337
0.204,0.060,0.275,-5.337
0.242,0.059,0.273,-5.337
0.225,0.058,0.272,-5.337
0.197,0.062,0.271,-5.337
0.180,0.064,0.271,-5.337
0.256,0.067,0.274,-5.337
0.303,0.063,0.275,-5.337
0.299,0.060,0.273,-5.337
0.269,0.060,0.268,-5.337
0.237,0.061,0.265,-5.337
0.222,0.062,0.265,-5.337
0.192,0.061,0.266,-5.337
0.203,0.063,0.270,-5.337
0.196,0.063,0.275,-5.337
0.224,0.059,0.274,-5.337
0.225,0.064,0.270,-5.337
0.165,0.066,0.270,-5.337
0.146,0.063,0.271,-5.337
0.172,0.061,0.277,-5.337
0.191,0.059,0.278,-5.337
0.180,0.059,0.275,-5.337
0.236,0.054,0.272,-5.337
0.288,0.054,0.273,-5.337
0.228,0.060,0.275,-5.337
0.224,0.061,0.275,-5.337
0.213,0.055,0.276,-5.337
0.246,0.051,0.276,-5.337
0.258,0.050,0.274,-5.337
0.219,0.054,0.269,-5.337
0.181,0.059,0.268,-5.337
0.154,0.056,0.272,-5.337
0.142,0.057,0.271,-5.337
0.131,0.056,0.270,-5.337
0.205,0.054,0.270,-5.337
0.238,0.054,0.270,-5.337
0.272,0.051,0.270,-5.337
0.324,0.046,0.270,-5.337
0.367,0.047,0.274,-5.337
0.344,0.047,0.273,-5.337
0.257,0.049,0.273,-5.337
0.218,0.046,0.275,-5.337
0.259,0.048,0.276,-5.337
0.271,0.055,0.274,-5.337
0.277,0.058,0.271,-5.337
0.211,0.053,0.268,-5.337
0.136,0.055,0.268,-5.337
0.110,0.059,0.276,-5.337
0.156,0.058,0.280,-5.337
0.223,0.062,0.277,-5.337
0.206,0.062,0.273,-5.337
0.203,0.054,0.273,-5.337
0.141,0.057,0.273,-5.337
0.163,0.057,0.270,-5.337
0.184,0.059,0.268,-5.337
0.167,0.058,0.267,-5.337
0.194,0.056,0.267,-5.337
0.167,0.058,0.271,-5.337
0.108,0.057,0.272,-5.337
0.115,0.057,0.269,-5.337
0.190,0.053,0.269,-5.337
0.205,0.056,0.275,-5.337
0.170,0.058,0.279,-5.337
0.230,0.055,0.280,-5.337
0.235,0.049,0.275,-5.337
0.205,0.049,0.272,-5.337
0.221,0.051,0.273,-5.337
0.231,0.050,0.273,-5.337
0.232,0.049,0.273,-5.337
0.281,0.047,0.275,-5.337
0.360,0.042,0.275,-5.337
0.359,0.046,0.277,-5.337
0.259,0.049,0.276,-5.337
0.140,0.051,0.279,-5.337
0.113,0.049,0.278,-5.337
0.150,0.046,0.274,-5.337
0.119,0.046,0.270,-5.337
0.130,0.044,0.270,-5.337
0.189,0.041,0.272,-5.337
0.234,0.038,0.272,-5.337
0.230,0.039,0.271,-5.337
0.155,0.044,0.269,-5.337
0.110,0.047,0.272,-5.337
0.127,0.047,0.274,-5.337
0.128,0.047,0.275,-5.337
0.138,0.045,0.272,-5.337
0.242,0.046,0.270,-5.337
0.260,0.045,0.272,-5.337
0.190,0.047,0.278,-5.337
0.131,0.047,0.281,-5.337
0.159,0.046,0.278,-5.337
0.194,0.045,0.276,-5.337
0.179,0.046,0.274,-5.337
0.162,0.048,0.273,-5.337
0.189,0.051,0.275,-5.337
0.237,0.046,0.276,-5.337
0.269,0.043,0.275,-5.337
0.255,0.042,0.273,-5.337
0.246,0.045,0.273,-5.337
0.246,0.043,0.272,-5.337
0.220,0.045,0.272,-5.337
0.149,0.045,0.274,-5.337
0.171,0.044,0.274,-5.337
0.187,0.041,0.274,-5.337
0.170,0.043,0.275,-5.337
0.145,0.047,0.274,-5.337
0.127,0.047,0.269,-5.337
0.130,0.044,0.268,-5.337
0.187,0.044,0.267,-5.337
0.190,0.048,0.269,-5.337
0.176,0.046,0.268,-5.337
0.117,0.046,0.272,-5.337
0.073,0.047,0.279,-5.337
0.068,0.049,0.279,-5.337
0.127,0.045,0.276,-5.337
0.176,0.044,0.277,-5.337
0.209,0.042,0.276,-5.337
0.249,0.043,0.270,-5.337
0.253,0.048,0.267,-5.337
0.230,0.047,0.268,-5.337
0.235,0.044,0.272,-5.337
0.287,0.041,0.277,-5.337
0.335,0.038,0.275,-5.337
0.293,0.040,0.272,-5.337
0.254,0.041,0.272,-5.337
0.169,0.043,0.269,-5.337
0.139,0.043,0.267,-5.337
0.121,0.044,0.268,-5.337
0.109,0.046,0.273,-5.337
0.135,0.047,0.272,-5.337
0.168,0.048,0.272,-5.337
0.220,0.048,0.271,-5.337
0.272,0.042,0.270,-5.337
0.321,0.039,0.273,-5.337
0.279,0.040,0.278,-5.337
0.179,0.043,0.278,-5.337
0.160,0.045,0.277,-5.337
0.214,0.043,0.278,-5.337
0.179,0.042,0.276,-5.337
0.205,0.041,0.271,-5.337
0.241,0.042,0.266,-5.337
0.136,0.045,0.266,-5.337
0.094,0.044,0.271,-5.337
0.158,0.042,0.275,-5.337
0.202,0.042,0.273,-5.337
0.154,0.045,0.270,-5.337
0.109,0.046,0.269,-5.337
0.104,0.048,0.272,-5.337
0.114,0.048,0.275,-5.337
0.206,0.043,0.274,-5.337
0.210,0.044,0.270,-5.337
0.194,0.043,0.273,-5.337
0.154,0.043,0.273,-5.337
0.160,0.043,0.271,-5.337
0.099,0.046,0.269,-5.337
0.083,0.044,0.274,-5.337
0.093,0.043,0.280,-5.337
0.118,0.042,0.279,-5.337
0.184,0.041,0.273,-5.337
0.178,0.041,0.269,-5.337
0.157,0.043,0.269,-5.337
0.105,0.042,0.272,-5.337
0.197,0.043,0.273,-5.337
0.228,0.042,0.273,-5.337
0.148,0.044,0.268,-5.337
0.097,0.042,0.265,-5.337
0.185,0.045,0.269,-5.337
0.263,0.043,0.274,-5.337
0.245,0.041,0.275,-5.337
0.213,0.041,0.273,-5.337
0.222,0.044,0.269,-5.337
0.210,0.043,0.268,-5.337
0.219,0.041,0.267,-5.337
0.258,0.042,0.271,-5.337
0.217,0.043,0.276,-5.337
0.173,0.041,0.277,-5.337
0.169,0.043,0.275,-5.337
0.211,0.041,0.273,-5.337
0.213,0.037,0.276,-5.337
0.229,0.034,0.279,-5.337
0.232,0.039,0.276,-5.337
0.216,0.039,0.273,-5.337
0.195,0.039,0.274,-5.337
0.226,0.035,0.274,-5.337
0.265,0.036,0.274,-5.337
0.230,0.039,0.275,-5.337
0.187,0.038,0.272,-5.337
0.246,0.033,0.273,-5.337
0.210,0.032,0.270,-5.337
0.136,0.036,0.270,-5.337
0.115,0.042,0.268,-5.337
0.117,0.044,0.270,-5.337
0.126,0.041,0.274,-5.337
0.175,0.040,0.275,-5.337
0.125,0.042,0.273,-5.337
0.068,0.045,0.274,-5.337
0.093,0.042,0.274,-5.337
0.164,0.037,0.271,-5.337
0.233,0.039,0.269,-5.337
0.232,0.040,0.270,-5.337
0.200,0.039,0.272,-5.337
0.236,0.038,0.272,-5.337
0.272,0.037,0.273,-5.337
0.244,0.037,0.274,-5.337
0.244,0.039,0.273,-5.337
0.230,0.039,0.273,-5.337
0.252,0.038,0.276,-5.337
0.150,0.041,0.276,-5.337
0.147,0.041,0.275,-5.337
0.204,0.041,0.273,-5.337
0.169,0.040,0.274,-5.337
0.131,0.039,0.271,-5.337
0.159,0.039,0.271,-5.337
0.139,0.042,0.273,-5.337
0.101,0.043,0.274,-5.337
0.160,0.042,0.270,-5.337
0.217,0.041,0.274,-5.337
0.257,0.039,0.278,-5.337
0.187,0.040,0.276,-5.337
0.173,0.040,0.272,-5.337
0.179,0.040,0.272,-5.337
0.186,0.039,0.272,-5.337
0.201,0.039,0.272,-5.337
0.187,0.044,0.273,-5.337
0.185,0.047,0.275,-5.337
0.169,0.047,0.274,-5.337
0.188,0.045,0.272,-5.337
0.232,0.044,0.275,-5.337
0.295,0.042,0.274,-5.337
0.228,0.042,0.274,-5.337
0.167,0.042,0.272,-5.337
0.182,0.041,0.270,-5.337
0.190,0.038,0.270,-5.337
0.143,0.042,0.275,-5.337
0.164,0.042,0.276,-5.337
0.190,0.042,0.276,-5.337
0.157,0.042,0.275,-5.337
0.149,0.039,0.278,-5.337
0.204,0.036,0.279,-5.337
0.237,0.038,0.274,-5.337
0.254,0.037,0.270,-5.337
0.194,0.039,0.273,-5.337
0.148,0.039,0.272,-5.337
0.166,0.040,0.270,-5.337
0.189,0.041,0.271,-5.337
0.091,0.041,0.273,-5.337
0.067,0.039,0.274,-5.337
0.171,0.040,0.274,-5.337
0.277,0.036,0.278,-5.337
0.267,0.034,0.279,-5.337
0.220,0.030,0.277,-5.337
0.207,0.034,0.272,-5.337
0.215,0.035,0.269,-5.337
0.208,0.038,0.266,-5.337
0.203,0.035,0.266,-5.337
0.190,0.032,0.269,-5.337
0.247,0.036,0.274,-5.337
0.256,0.038,0.275,-5.337
0.241,0.040,0.271,-5.337
0.248,0.035,0.269,-5.337
0.240,0.035,0.271,-5.337
0.200,0.039,0.273,-5.337
0.204,0.040,0.276,-5.337
0.144,0.046,0.272,-5.337
0.147,0.044,0.269,-5.337
0.155,0.045,0.270,-5.337
0.137,0.046,0.275,-5.337
0.173,0.044,0.275,-5.337
0.169,0.046,0.274,-5.337
0.203,0.044,0.272,-5.337
0.260,0.042,0.269,-5.337
0.187,0.046,0.271,-5.337
0.147,0.045,0.273,-5.337
0.163,0.044,0.273,-5.337
0.204,0.042,0.269,-5.337
0.236,0.043,0.270,-5.337
0.207,0.044,0.273,-5.337
0.242,0.045,0.276,-5.337
0.213,0.044,0.272,-5.337
0.143,0.047,0.273,-5.337
0.176,0.048,0.273,-5.337
0.162,0.048,0.273,-5.337
0.153,0.045,0.269,-5.337
0.154,0.045,0.271,-5.337
0.136,0.047,0.272,-5.337
0.144,0.049,0.272,-5.337
0.196,0.046,0.273,-5.337
0.262,0.043,0.273,-5.337
0.286,0.042,0.270,-5.337
0.228,0.044,0.271,-5.337
0.112,0.041,0.274,-5.337
0.139,0.041,0.274,-5.337
0.183,0.045,0.272,-5.337
0.185,0.047,0.270,-5.337
0.166,0.048,0.271,-5.337
0.189,0.045,0.270,-5.337
0.202,0.044,0.271,-5.337
0.238,0.044,0.275,-5.337
0.256,0.043,0.275,-5.337
0.185,0.044,0.273,-5.337
0.171,0.043,0.274,-5.337
0.143,0.043,0.273,-5.337
0.148,0.042,0.273,-5.337
0.186,0.044,0.273,-5.337
0.163,0.048,0.271,-5.337
0.109,0.050,0.272,-5.337
0.055,0.051,0.272,-5.337
0.089,0.051,0.272,-5.337
0.165,0.049,0.269,-5.337
0.135,0.049,0.269,-5.337
0.142,0.046,0.271,-5.337
0.225,0.045,0.272,-5.337
0.264,0.045,0.272,-5.337
0.262,0.047,0.273,-5.337
0.222,0.050,0.271,-5.337
0.255,0.052,0.272,-5.337
0.216,0.050,0.270,-5.337
0.181,0.050,0.271,-5.337
0.171,0.048,0.272,-5.337
0.177,0.051,0.274,-5.337
0.168,0.049,0.275,-5.337
0.155,0.048,0.280,-5.337
0.188,0.048,0.280,-5.337
0.252,0.048,0.276,-5.337
0.240,0.049,0.271,-5.337
0.224,0.049,0.272,-5.337
0.183,0.050,0.273,-5.337
0.106,0.051,0.274,-5.337
0.129,0.046,0.272,-5.337
0.201,0.048,0.271,-5.337
0.230,0.047,0.270,-5.337
0.229,0.047,0.269,-5.337
0.216,0.046,0.272,-5.337
0.145,0.048,0.275,-5.337
0.120,0.049,0.277,-5.337
0.089,0.048,0.275,-5.337
0.088,0.046,0.273,-5.337
0.110,0.047,0.273,-5.337
0.155,0.051,0.272,-5.337
0.178,0.051,0.272,-5.337
0.119,0.055,0.273,-5.337
0.072,0.054,0.271,-5.337
0.106,0.053,0.271,-5.337
0.170,0.050,0.272,-5.337
0.208,0.052,0.272,-5.337
0.182,0.052,0.274,-5.337
0.226,0.051,0.276,-5.337
0.211,0.050,0.278,-5.337
0.163,0.046,0.276,-5.337
0.168,0.048,0.273,-5.337
0.174,0.050,0.271,-5.337
0.204,0.054,0.272,-5.337
0.155,0.055,0.273,-5.337
0.126,0.053,0.277,-5.337
0.158,0.051,0.278,-5.337
0.182,0.051,0.274,-5.337
0.206,0.050,0.273,-5.337
0.250,0.046,0.276,-5.337
0.245,0.049,0.275,-5.337
0.179,0.051,0.275,-5.337
0.243,0.049,0.273,-5.337
0.232,0.049,0.273,-5.337
0.206,0.047,0.272,-5.337
0.198,0.053,0.274,-5.337
0.207,0.054,0.276,-5.337
0.211,0.054,0.277,-5.337
0.189,0.050,0.277,-5.337
0.186,0.052,0.274,-5.337
0.194,0.050,0.271,-5.337
0.189,0.051,0.271,-5.337
0.161,0.053,0.273,-5.337
0.204,0.054,0.272,-5.337
0.227,0.055,0.271,-5.337
0.113,0.056,0.273,-5.337
0.064,0.055,0.277,-5.337
0.116,0.050,0.279,-5.337
0.172,0.049,0.279,-5.337
0.216,0.052,0.276,-5.337
0.238,0.055,0.273,-5.337
0.251,0.053,0.269,-5.337
0.259,0.054,0.267,-5.337
0.188,0.058,0.267,-5.337
0.199,0.057,0.269,-5.337
0.260,0.055,0.273,-5.337
0.236,0.058,0.278,-5.337
0.120,0.058,0.277,-5.337
0.105,0.058,0.271,-5.337
0.179,0.052,0.265,-5.337
0.269,0.052,0.269,-5.337
0.243,0.060,0.274,-5.337
0.223,0.060,0.276,-5.337
0.239,0.061,0.271,-5.337
0.202,0.060,0.271,-5.337
0.170,0.059,0.271,-5.337
0.192,0.057,0.273,-5.337
0.210,0.054,0.274,-5.337
0.223,0.053,0.273,-5.337
0.198,0.056,0.275,-5.337
0.139,0.060,0.275,-5.337
0.204,0.057,0.277,-5.337
0.298,0.057,0.280,-5.337
0.297,0.059,0.276,-5.337
0.225,0.058,0.271,-5.337
0.197,0.059,0.271,-5.337
0.248,0.060,0.275,-5.337
0.243,0.057,0.273,-5.337
0.223,0.056,0.268,-5.337
0.210,0.055,0.267,-5.337
0.250,0.051,0.268,-5.337
0.301,0.053,0.270,-5.337
0.248,0.055,0.272,-5.337
0.190,0.057,0.274,-5.337
0.211,0.053,0.277,-5.337
0.257,0.054,0.277,-5.337
0.197,0.056,0.273,-5.337
0.232,0.058,0.271,-5.337
0.260,0.055,0.273,-5.337
0.262,0.058,0.271,-5.337
0.233,0.059,0.271,-5.337
0.232,0.057,0.270,-5.337
0.162,0.057,0.272,-5.337
0.071,0.056,0.276,-5.337
0.117,0.053,0.275,-5.337
0.173,0.058,0.271,-5.337
0.185,0.058,0.274,-5.337
0.187,0.056,0.275,-5.337
0.166,0.057,0.273,-5.337
0.153,0.056,0.270,-5.337
0.205,0.055,0.270,-5.337
0.275,0.056,0.270,-5.337
0.281,0.057,0.271,-5.337
0.227,0.060,0.275,-5.337
0.172,0.062,0.279,-5.337
0.151,0.061,0.278,-5.337
0.180,0.064,0.273,-5.337
0.174,0.062,0.270,-5.337
0.139,0.057,0.269,-5.337
0.180,0.059,0.271,-5.337
0.175,0.061,0.267,-5.337
0.155,0.058,0.266,-5.337
0.181,0.056,0.269,-5.337
0.186,0.059,0.274,-5.337
0.154,0.063,0.272,-5.337
0.149,0.066,0.275,-5.337
0.181,0.064,0.274,-5.337
0.187,0.063,0.273,-5.337
0.185,0.060,0.270,-5.337
0.158,0.061,0.269,-5.337
0.195,0.062,0.268,-5.337
0.276,0.062,0.270,-5.337
0.244,0.064,0.276,-5.337
0.158,0.071,0.278,-5.337
0.167,0.070,0.278,-5.337
0.182,0.068,0.276,-5.337
0.236,0.066,0.271,-5.337
0.246,0.069,0.268,-5.337
0.214,0.072,0.267,-5.337
0.180,0.073,0.268,-5.337
0.151,0.072,0.273,-5.337
0.142,0.071,0.274,-5.337
0.157,0.068,0.271,-5.337
0.176,0.064,0.268,-5.337
0.181,0.065,0.271,-5.337
0.226,0.063,0.276,-5.337
0.253,0.061,0.282,-5.337
0.235,0.061,0.276,-5.337
0.264,0.060,0.271,-5.337
0.228,0.061,0.269,-5.337
0.189,0.063,0.269,-5.337
0.165,0.063,0.272,-5.337
0.113,0.067,0.275,-5.337
0.182,0.063,0.275,-5.337
0.281,0.058,0.273,-5.337
0.294,0.060,0.271,-5.337
0.187,0.066,0.273,-5.337
0.201,0.064,0.276,-5.337
0.273,0.063,0.277,-5.337
0.247,0.064,0.275,-5.337
0.208,0.065,0.274,-5.337
0.207,0.067,0.272,-5.337
0.223,0.065,0.274,-5.337
0.201,0.065,0.277,-5.337
0.222,0.064,0.277,-5.337
0.174,0.064,0.274,-5.337
0.108,0.066,0.268,-5.337
0.138,0.064,0.266,-5.337
0.183,0.067,0.266,-5.337
0.219,0.065,0.271,-5.337
0.243,0.065,0.272,-5.337
0.174,0.068,0.276,-5.337
0.169,0.069,0.276,-5.337
0.140,0.069,0.276,-5.337
0.144,0.067,0.277,-5.337
0.096,0.067,0.276,-5.337
0.156,0.064,0.275,-5.337
0.195,0.065,0.273,-5.337
0.212,0.060,0.273,-5.337
0.225,0.061,0.277,-5.337
0.181,0.065,0.278,-5.337
0.187,0.059,0.273,-5.337
0.245,0.057,0.272,-5.337
0.264,0.059,0.275,-5.337
0.195,0.061,0.274,-5.337
0.112,0.063,0.272,-5.337
0.126,0.060,0.272,-5.337
0.226,0.056,0.275,-5.337
0.252,0.057,0.278,-5.337
0.186,0.060,0.275,-5.337
0.160,0.059,0.273,-5.337
0.178,0.059,0.270,-5.337
0.227,0.059,0.270,-5.337
0.262,0.057,0.272,-5.337
0.265,0.060,0.275,-5.337
0.191,0.064,0.276,-5.337
0.128,0.065,0.275,-5.337
0.220,0.057,0.276,-5.337
0.264,0.056,0.275,-5.337
0.193,0.061,0.272,-5.337
0.144,0.061,0.268,-5.337
0.141,0.058,0.266,-5.337
0.178,0.058,0.270,-5.337
0.193,0.055,0.273,-5.337
0.222,0.054,0.275,-5.337
0.219,0.056,0.275,-5.337
0.189,0.056,0.273,-5.337
0.175,0.056,0.271,-5.337
0.195,0.058,0.271,-5.337
0.200,0.059,0.274,-5.337
0.208,0.061,0.275,-5.337
0.199,0.061,0.276,-5.337
0.192,0.056,0.277,-5.337
0.202,0.052,0.274,-5.337
0.172,0.056,0.271,-5.337
0.133,0.059,0.270,-5.337
0.191,0.054,0.269,-5.337
0.180,0.052,0.270,-5.337
0.193,0.051,0.274,-5.337
0.144,0.048,0.276,-5.337
0.135,0.046,0.275,-5.337
0.205,0.045,0.273,-5.337
0.220,0.045,0.268,-5.337
0.198,0.048,0.268,-5.337
0.156,0.048,0.271,-5.337
0.199,0.046,0.273,-5.337
0.267,0.045,0.271,-5.337
0.318,0.047,0.267,-5.337
0.368,0.048,0.271,-5.337
0.290,0.047,0.273,-5.337
0.267,0.049,0.272,-5.337
0.261,0.051,0.273,-5.337
0.239,0.052,0.273,-5.337
0.280,0.050,0.272,-5.337
0.282,0.051,0.272,-5.337
0.248,0.046,0.275,-5.337
0.160,0.049,0.276,-5.337
0.171,0.047,0.272,-5.337
0.224,0.045,0.271,-5.337
0.205,0.047,0.274,-5.337
0.222,0.051,0.278,-5.337
0.276,0.050,0.275,-5.337
0.282,0.049,0.271,-5.337
0.243,0.048,0.270,-5.337
0.160,0.050,0.272,-5.337
0.162,0.048,0.273,-5.337
0.171,0.047,0.270,-5.337
0.169,0.044,0.272,-5.337
0.188,0.046,0.269,-5.337
0.192,0.046,0.270,-5.337
0.269,0.046,0.268,-5.337
0.243,0.049,0.267,-5.337
0.226,0.046,0.267,-5.337
0.232,0.046,0.274,-5.337
0.241,0.046,0.275,-5.337
0.235,0.045,0.272,-5.337
0.173,0.045,0.269,-5.337
0.152,0.041,0.271,-5.337
0.194,0.041,0.274,-5.337
0.195,0.044,0.273,-5.337
0.192,0.046,0.273,-5.337
0.168,0.046,0.276,-5.337
0.162,0.045,0.275,-5.337
0.207,0.042,0.272,-5.337
0.198,0.045,0.270,-5.337
0.196,0.044,0.271,-5.337
0.191,0.045,0.274,-5.337
0.154,0.046,0.275,-5.337
0.117,0.046,0.272,-5.337
0.143,0.041,0.272,-5.337
0.213,0.042,0.275,-5.337
0.235,0.042,0.272,-5.337
0.183,0.044,0.272,-5.337
0.155,0.041,0.272,-5.337
0.201,0.039,0.273,-5.337
0.193,0.041,0.273,-5.337
0.144,0.045,0.271,-5.337
0.210,0.042,0.270,-5.337
0.307,0.041,0.273,-5.337
0.286,0.043,0.278,-5.337
0.217,0.042,0.281,-5.337
0.234,0.038,0.279,-5.337
0.224,0.036,0.272,-5.337
0.184,0.041,0.267,-5.337
0.199,0.040,0.269,-5.337
0.296,0.033,0.270,-5.337
0.264,0.036,0.272,-5.337
0.217,0.039,0.273,-5.337
0.225,0.043,0.273,-5.337
0.223,0.045,0.274,-5.337
0.191,0.044,0.271,-5.337
0.210,0.042,0.272,-5.337
0.194,0.043,0.273,-5.337
0.205,0.042,0.272,-5.337
0.237,0.045,0.268,-5.337
0.238,0.047,0.271,-5.337
0.172,0.045,0.274,-5.337
0.164,0.040,0.273,-5.337
0.171,0.041,0.272,-5.337
0.210,0.041,0.273,-5.337
0.221,0.043,0.276,-5.337
0.201,0.045,0.276,-5.337
0.182,0.041,0.273,-5.337
0.214,0.039,0.272,-5.337
0.181,0.042,0.274,-5.337
0.145,0.044,0.273,-5.337
0.135,0.044,0.274,-5.337
0.166,0.043,0.275,-5.337
0.292,0.037,0.269,-5.337
0.318,0.034,0.268,-5.337
0.260,0.036,0.272,-5.337
0.252,0.038,0.270,-5.337
0.258,0.040,0.269,-5.337
0.194,0.042,0.272,-5.337
0.131,0.042,0.278,-5.337
0.152,0.040,0.279,-5.337
0.210,0.041,0.280,-5.337
0.204,0.036,0.277,-5.337
0.225,0.033,0.274,-5.337
0.226,0.035,0.271,-5.337
0.212,0.040,0.271,-5.337
0.155,0.040,0.271,-5.337
0.069,0.043,0.274,-5.337
0.067,0.043,0.276,-5.337
0.166,0.044,0.275,-5.337
0.183,0.041,0.276,-5.337
0.176,0.040,0.276,-5.337
0.108,0.044,0.270,-5.337
0.107,0.044,0.269,-5.337
0.135,0.037,0.272,-5.337
0.231,0.034,0.277,-5.337
0.247,0.034,0.279,-5.337
0.225,0.036,0.276,-5.337
0.219,0.034,0.274,-5.337
0.174,0.036,0.274,-5.337
0.174,0.038,0.272,-5.337
0.223,0.039,0.270,-5.337
0.202,0.041,0.270,-5.337
0.118,0.045,0.272,-5.337
0.180,0.044,0.272,-5.337
0.274,0.043,0.272,-5.337
0.206,0.045,0.273,-5.337
0.202,0.043,0.271,-5.337
0.285,0.041,0.271,-5.337
0.298,0.044,0.271,-5.337
0.257,0.044,0.269,-5.337
0.207,0.048,0.268,-5.337
0.177,0.047,0.270,-5.337
0.169,0.046,0.274,-5.337
0.136,0.046,0.274,-5.337
0.146,0.045,0.268,-5.337
0.209,0.036,0.268,-5.337
0.231,0.036,0.272,-5.337
0.171,0.039,0.273,-5.337
0.165,0.041,0.274,-5.337
0.128,0.043,0.276,-5.337
0.192,0.036,0.279,-5.337
0.242,0.035,0.276,-5.337
0.243,0.040,0.269,-5.337
0.218,0.038,0.270,-5.337
0.176,0.038,0.274,-5.337
0.183,0.031,0.272,-5.337
0.199,0.034,0.269,-5.337
0.165,0.036,0.266,-5.337
0.147,0.035,0.268,-5.337
0.204,0.030,0.272,-5.337
0.202,0.036,0.276,-5.337
0.189,0.036,0.275,-5.337
0.163,0.039,0.270,-5.337
0.162,0.037,0.270,-5.337
0.263,0.038,0.271,-5.337
0.230,0.038,0.273,-5.337
0.118,0.042,0.272,-5.337
0.115,0.041,0.271,-5.337
0.124,0.043,0.268,-5.337
0.168,0.039,0.268,-5.337
0.237,0.036,0.270,-5.337
0.200,0.038,0.275,-5.337
0.177,0.039,0.276,-5.337
0.147,0.038,0.277,-5.337
0.123,0.033,0.275,-5.337
0.161,0.035,0.274,-5.337
0.205,0.043,0.270,-5.337
0.187,0.044,0.270,-5.337
0.205,0.040,0.271,-5.337
0.203,0.041,0.271,-5.337
0.188,0.041,0.267,-5.337
0.183,0.036,0.267,-5.337
0.211,0.033,0.268,-5.337
0.280,0.030,0.267,-5.337
0.292,0.029,0.268,-5.337
0.251,0.031,0.274,-5.337
0.231,0.034,0.274,-5.337
0.201,0.037,0.269,-5.337
0.247,0.035,0.268,-5.337
0.275,0.033,0.272,-5.337
0.256,0.034,0.276,-5.337
0.212,0.037,0.274,-5.337
0.109,0.041,0.275,-5.337
0.100,0.038,0.277,-5.337
0.178,0.036,0.278,-5.337
0.181,0.042,0.271,-5.337
0.186,0.043,0.268,-5.337
0.208,0.037,0.268,-5.337
0.179,0.039,0.269,-5.337
0.134,0.041,0.270,-5.337
0.145,0.039,0.271,-5.337
0.244,0.035,0.275,-5.337
0.242,0.036,0.275,-5.337
0.171,0.035,0.273,-5.337
0.174,0.038,0.272,-5.337
0.192,0.038,0.273,-5.337
0.174,0.036,0.272,-5.337
0.214,0.036,0.272,-5.337
0.237,0.036,0.275,-5.337
0.219,0.036,0.273,-5.337
0.233,0.035,0.268,-5.337
0.264,0.034,0.272,-5.337
0.195,0.037,0.276,-5.337
0.208,0.038,0.277,-5.337
0.254,0.037,0.272,-5.337
0.220,0.037,0.271,-5.337
0.146,0.035,0.271,-5.337
0.077,0.039,0.274,-5.337
0.120,0.037,0.272,-5.337
0.230,0.037,0.273,-5.337
0.214,0.038,0.273,-5.337
0.191,0.039,0.270,-5.337
0.237,0.037,0.268,-5.337
0.241,0.041,0.269,-5.337
0.169,0.043,0.270,-5.337
0.133,0.040,0.274,-5.337
0.198,0.038,0.272,-5.337
0.235,0.039,0.273,-5.337
0.208,0.040,0.273,-5.337
0.147,0.039,0.272,-5.337
0.143,0.039,0.270,-5.337
0.141,0.039,0.271,-5.337
0.141,0.037,0.274,-5.337
0.195,0.037,0.271,-5.337
0.208,0.037,0.271,-5.337
0.205,0.039,0.273,-5.337
0.230,0.041,0.278,-5.337
0.230,0.043,0.274,-5.337
0.188,0.039,0.270,-5.337
0.188,0.038,0.271,-5.337
0.164,0.040,0.273,-5.337
0.205,0.039,0.274,-5.337
0.234,0.041,0.275,-5.337
0.203,0.041,0.275,-5.337
0.191,0.042,0.273,-5.337
0.157,0.047,0.272,-5.337
0.157,0.048,0.272,-5.337
0.160,0.047,0.269,-5.337
0.168,0.046,0.267,-5.337
0.151,0.045,0.271,-5.337
0.194,0.041,0.279,-5.337
0.266,0.042,0.278,-5.337
0.256,0.040,0.273,-5.337
0.260,0.037,0.272,-5.337
0.260,0.040,0.272,-5.337
0.195,0.039,0.272,-5.337
0.241,0.041,0.271,-5.337
0.253,0.046,0.272,-5.337
0.196,0.051,0.271,-5.337
0.174,0.051,0.273,-5.337
0.166,0.044,0.276,-5.337
0.225,0.041,0.277,-5.337
0.246,0.043,0.273,-5.337
0.195,0.048,0.270,-5.337
0.192,0.047,0.271,-5.337
0.183,0.047,0.274,-5.337
0.227,0.044,0.274,-5.337
0.192,0.048,0.268,-5.337
0.183,0.047,0.264,-5.337
0.172,0.047,0.271,-5.337
0.208,0.045,0.276,-5.337
0.232,0.045,0.275,-5.337
0.213,0.044,0.271,-5.337
0.187,0.046,0.266,-5.337
0.173,0.045,0.264,-5.337
0.251,0.042,0.265,-5.337
0.286,0.042,0.270,-5.337
0.202,0.042,0.275,-5.337
0.145,0.045,0.276,-5.337
0.200,0.041,0.271,-5.337
0.239,0.042,0.270,-5.337
0.214,0.045,0.270,-5.337
0.167,0.046,0.271,-5.337
0.168,0.049,0.273,-5.337
0.205,0.049,0.275,-5.337
0.141,0.049,0.275,-5.337
0.158,0.052,0.274,-5.337
0.258,0.052,0.268,-5.337
0.297,0.051,0.268,-5.337
0.225,0.052,0.269,-5.337
0.144,0.053,0.271,-5.337
0.123,0.051,0.270,-5.337
0.219,0.051,0.272,-5.337
0.230,0.055,0.273,-5.337
0.207,0.058,0.269,-5.337
0.171,0.056,0.267,-5.337
0.195,0.050,0.270,-5.337
0.167,0.052,0.274,-5.337
0.183,0.052,0.275,-5.337
0.240,0.051,0.277,-5.337
0.222,0.053,0.272,-5.337
0.204,0.054,0.270,-5.337
0.192,0.052,0.270,-5.337
0.200,0.052,0.272,-5.337
0.190,0.052,0.278,-5.337
0.162,0.053,0.282,-5.337
0.155,0.051,0.277,-5.337
0.183,0.051,0.272,-5.337
0.197,0.053,0.271,-5.337
0.220,0.053,0.266,-5.337
0.267,0.052,0.261,-5.337
0.222,0.054,0.266,-5.337
0.158,0.055,0.275,-5.337
0.171,0.053,0.279,-5.337
0.243,0.048,0.279,-5.337
0.240,0.049,0.277,-5.337
0.204,0.050,0.275,-5.337
0.168,0.053,0.269,-5.337
0.131,0.051,0.266,-5.337
0.137,0.050,0.265,-5.337
0.178,0.050,0.272,-5.337
0.168,0.049,0.276,-5.337
0.149,0.050,0.272,-5.337
0.195,0.051,0.269,-5.337
0.225,0.052,0.267,-5.337
0.167,0.051,0.270,-5.337
0.163,0.050,0.271,-5.337
0.235,0.049,0.273,-5.337
0.230,0.053,0.274,-5.337
0.203,0.053,0.273,-5.337
0.171,0.054,0.273,-5.337
0.160,0.055,0.272,-5.337
0.125,0.054,0.273,-5.337
0.108,0.054,0.273,-5.337
0.175,0.053,0.272,-5.337
0.215,0.055,0.269,-5.337
0.222,0.051,0.271,-5.337
0.161,0.052,0.274,-5.337
0.222,0.049,0.274,-5.337
0.269,0.053,0.272,-5.337
0.219,0.054,0.272,-5.337
0.217,0.053,0.276,-5.337
0.227,0.053,0.274,-5.337
0.191,0.057,0.270,-5.337
0.099,0.060,0.267,-5.337
0.069,0.061,0.269,-5.337
0.158,0.062,0.270,-5.337
0.242,0.063,0.272,-5.337
0.194,0.067,0.272,-5.337
0.129,0.068,0.272,-5.337
0.199,0.062,0.273,-5.337
0.252,0.061,0.276,-5.337
0.150,0.063,0.277,-5.337
0.134,0.059,0.275,-5.337
0.179,0.057,0.273,-5.337
0.177,0.059,0.269,-5.337
0.194,0.058,0.267,-5.337
0.263,0.057,0.268,-5.337
0.293,0.058,0.270,-5.337
0.291,0.059,0.273,-5.337
0.256,0.058,0.275,-5.337
0.259,0.052,0.274,-5.337
0.289,0.053,0.271,-5.337
0.204,0.058,0.266,-5.337
0.120,0.060,0.269,-5.337
0.142,0.060,0.275,-5.337
0.132,0.059,0.281,-5.337
0.124,0.057,0.277,-5.337
0.218,0.054,0.276,-5.337
0.223,0.055,0.275,-5.337
0.188,0.055,0.277,-5.337
0.248,0.054,0.278,-5.337
0.245,0.056,0.277,-5.337
0.144,0.057,0.272,-5.337
0.121,0.057,0.269,-5.337
0.166,0.057,0.270,-5.337
0.203,0.058,0.271,-5.337
0.197,0.060,0.274,-5.337
0.205,0.061,0.271,-5.337
0.216,0.060,0.271,-5.337
0.241,0.056,0.274,-5.337
0.246,0.056,0.276,-5.337
0.234,0.058,0.274,-5.337
0.173,0.060,0.272,-5.337
0.224,0.060,0.272,-5.337
0.250,0.058,0.274,-5.337
0.150,0.058,0.274,-5.337
0.069,0.061,0.276,-5.337
0.143,0.061,0.278,-5.337
0.259,0.058,0.277,-5.337
0.246,0.057,0.274,-5.337
0.210,0.058,0.271,-5.337
0.196,0.055,0.275,-5.337
0.211,0.057,0.277,-5.337
0.204,0.056,0.275,-5.337
0.212,0.057,0.274,-5.337
0.212,0.059,0.274,-5.337
0.197,0.061,0.274,-5.337
0.180,0.063,0.272,-5.337
0.188,0.061,0.270,-5.337
0.253,0.060,0.270,-5.337
0.271,0.059,0.269,-5.337
0.273,0.063,0.266,-5.337
0.265,0.063,0.267,-5.337
0.280,0.064,0.270,-5.337
0.214,0.062,0.271,-5.337
0.237,0.061,0.273,-5.337
0.315,0.060,0.276,-5.337
0.296,0.061,0.280,-5.337
0.211,0.064,0.280,-5.337
0.200,0.064,0.273,-5.337
0.265,0.059,0.268,-5.337
0.326,0.063,0.268,-5.337
0.271,0.065,0.268,-5.337
0.183,0.066,0.271,-5.337
0.194,0.063,0.270,-5.337
0.232,0.067,0.269,-5.337
0.219,0.069,0.274,-5.337
0.205,0.072,0.278,-5.337
0.191,0.069,0.280,-5.337
0.221,0.067,0.278,-5.337
0.229,0.068,0.276,-5.337
0.174,0.072,0.275,-5.337
0.185,0.072,0.274,-5.337
0.173,0.072,0.272,-5.337
0.142,0.070,0.271,-5.337
0.180,0.069,0.268,-5.337
0.179,0.068,0.267,-5.337
0.132,0.068,0.270,-5.337
0.159,0.068,0.270,-5.337
0.122,0.069,0.265,-5.337
0.034,0.071,0.265,-5.337
0.057,0.067,0.269,-5.337
0.189,0.064,0.270,-5.337
0.240,0.064,0.271,-5.337
0.209,0.066,0.271,-5.337
0.173,0.066,0.271,-5.337
0.240,0.063,0.273,-5.337
0.248,0.064,0.274,-5.337
0.142,0.066,0.276,-5.337
0.086,0.064,0.273,-5.337
0.139,0.061,0.269,-5.337
0.206,0.066,0.269,-5.337
0.199,0.062,0.270,-5.337
0.247,0.059,0.276,-5.337
0.328,0.061,0.279,-5.337
0.277,0.062,0.274,-5.337
0.237,0.066,0.271,-5.337
0.239,0.066,0.271,-5.337
0.258,0.064,0.269,-5.337
0.252,0.066,0.269,-5.337
0.250,0.065,0.271,-5.337
0.264,0.066,0.268,-5.337
0.254,0.067,0.265,-5.337
0.222,0.069,0.267,-5.337
0.267,0.068,0.267,-5.337
0.301,0.067,0.270,-5.337
0.326,0.066,0.275,-5.337
0.300,0.068,0.276,-5.337
0.230,0.068,0.273,-5.337
0.179,0.066,0.271,-5.337
0.175,0.070,0.272,-5.337
0.190,0.069,0.271,-5.337
0.171,0.067,0.269,-5.337
0.175,0.066,0.267,-5.337
0.181,0.063,0.268,-5.337
0.231,0.058,0.269,-5.337
0.295,0.059,0.270,-5.337
0.255,0.061,0.268,-5.337
0.250,0.060,0.272,-5.337
0.258,0.060,0.278,-5.337
0.264,0.062,0.282,-5.337
0.262,0.065,0.278,-5.337
0.242,0.065,0.272,-5.337
0.226,0.066,0.268,-5.337
0.211,0.067,0.269,-5.337
0.216,0.064,0.270,-5.337
0.205,0.065,0.271,-5.337
0.202,0.061,0.274,-5.337
0.214,0.060,0.279,-5.337
0.207,0.063,0.277,-5.337
0.161,0.063,0.275,-5.337
0.132,0.060,0.274,-5.337
0.176,0.060,0.274,-5.337
0.206,0.062,0.271,-5.337
0.196,0.065,0.270,-5.337
0.191,0.065,0.270,-5.337
0.146,0.060,0.274,-5.337
0.177,0.057,0.278,-5.337
0.161,0.059,0.276,-5.337
0.158,0.057,0.274,-5.337
0.119,0.058,0.270,-5.337
0.101,0.058,0.263,-5.337
0.089,0.057,0.262,-5.337
0.161,0.057,0.270,-5.337
0.260,0.058,0.276,-5.337
0.303,0.055,0.276,-5.337
0.262,0.055,0.274,-5.337
0.176,0.056,0.274,-5.337
0.111,0.056,0.275,-5.337
0.125,0.055,0.276,-5.337
0.202,0.053,0.275,-5.337
0.187,0.050,0.269,-5.337
0.167,0.052,0.270,-5.337
0.192,0.054,0.272,-5.337
0.257,0.054,0.268,-5.337
0.305,0.053,0.270,-5.337
0.251,0.057,0.275,-5.337
0.217,0.054,0.275,-5.337
0.261,0.053,0.274,-5.337
0.257,0.056,0.273,-5.337
0.221,0.058,0.273,-5.337
0.263,0.051,0.274,-5.337
0.237,0.050,0.277,-5.337
0.214,0.050,0.279,-5.337
0.195,0.053,0.276,-5.337
0.163,0.054,0.270,-5.337
0.211,0.054,0.266,-5.337
0.269,0.054,0.265,-5.337
0.230,0.057,0.270,-5.337
0.179,0.056,0.274,-5.337
0.126,0.055,0.274,-5.337
0.129,0.054,0.272,-5.337
0.212,0.054,0.273,-5.337
0.291,0.052,0.272,-5.337
0.240,0.049,0.274,-5.337
0.223,0.049,0.274,-5.337
0.249,0.050,0.271,-5.337
0.243,0.049,0.268,-5.337
0.249,0.050,0.270,-5.337
0.243,0.054,0.274,-5.337
0.210,0.055,0.275,-5.337
0.191,0.051,0.272,-5.337
0.218,0.048,0.271,-5.337
0.267,0.050,0.274,-5.337
0.234,0.051,0.274,-5.337
0.181,0.053,0.276,-5.337
0.217,0.048,0.277,-5.337
0.252,0.049,0.275,-5.337
0.174,0.050,0.272,-5.337
0.168,0.052,0.269,-5.337
0.177,0.051,0.268,-5.337
0.127,0.054,0.273,-5.337
0.110,0.050,0.276,-5.337
0.171,0.052,0.278,-5.337
0.172,0.052,0.275,-5.337
0.119,0.052,0.273,-5.337
0.093,0.047,0.269,-5.337
0.140,0.046,0.269,-5.337
0.136,0.053,0.268,-5.337
0.102,0.056,0.271,-5.337
0.144,0.050,0.273,-5.337
0.215,0.049,0.273,-5.337
0.248,0.050,0.273,-5.337
0.253,0.047,0.272,-5.337
0.311,0.046,0.275,-5.337
0.348,0.048,0.273,-5.337
0.320,0.047,0.270,-5.337
0.297,0.045,0.273,-5.337
0.278,0.048,0.277,-5.337
0.252,0.050,0.272,-5.337
0.195,0.053,0.268,-5.337
0.182,0.052,0.266,-5.337
0.184,0.053,0.269,-5.337
0.196,0.052,0.273,-5.337
0.221,0.052,0.272,-5.337
0.185,0.052,0.274,-5.337
0.166,0.050,0.272,-5.337
0.182,0.047,0.271,-5.337
0.190,0.049,0.271,-5.337
0.167,0.050,0.271,-5.337
0.168,0.047,0.271,-5.337
