[Parameters]
Operating Mode, Feedback
Subject  AA..ZZ, WT
Session  0..99, 44
No. Trials (1..9999), 500
Mouse Number, 1
Pressure Probe Serial Port, \00\00\00\04COM4
Save additional csv file, TRUE
Save using mouse number, FALSE
A/D Monitor Rate (Hz), 30000.000000
A/D Stimulate Rate (Hz), 30000.000000
A/D input range (+/- V), 5
No. Channels to acquire (N), 2
Pre-Stim Acq. time (ms), 100.000000
Post-Stim Acq. time (ms), 900.000000
Analysis window parameters.M-response Start (ms), 1.100000
Analysis window parameters.M-response Duration (ms), 5.500000
Analysis window parameters.H-response Duration (ms), 6.000000
Analysis window parameters.H-response Start (ms), 6.500000
Feedback window, H response
Proportional gain, 0.100000
Target value, 6.700000
Feedback Ch., 1
Stim Channel to Control (1-4), 4
Trial, 23
Wait for EMG Conditions, FALSE
Channel to monitor (0 - N-1), 1
EMG Hi Limit, 2.000000
EMG Lo Limit, 0.001000
Inter-Stim delay (sec), 10.000000
EMG Monitor Mode, Mean
Time to run Long Stim.(sec), 30
Save Long Stim Data?, OFF
BURST Save time (ms), 1000
BURST Save Interval (x above), 10
Long-Stim. Rep. Rate (Hz), 10.000000
Stim type cluster array.<size(s)>, 4
Stim type cluster array 0.Stimulus Output, Electrical
Stim type cluster array 1.Stimulus Output, OFF
Stim type cluster array 2.Stimulus Output, OFF
Stim type cluster array 3.Stimulus Output, Motor Length
Stim specs cluster array.<size(s)>, 4
Stim specs cluster array 0.Initial Stimulus ampl., 0.300000
Stim specs cluster array 0.Maximum Stimulus, 1.120000
Stim specs cluster array 0.#Pulses in train, 4
Stim specs cluster array 0.Peak Level time (ms), 1.000000
Stim specs cluster array 0.Total pulse period (ms), 150.000000
Stim specs cluster array 0.Start Delay (ms), -50.000000
Stim specs cluster array 0.Pulse Shape, Square
Stim specs cluster array 0.Ramp/Rel. time (ms), 0.100000
Stim specs cluster array 0.Peak Amplitude (V), 0.120000
Stim specs cluster array 1.Initial Stimulus ampl., 0.000000
Stim specs cluster array 1.Maximum Stimulus, 0.000000
Stim specs cluster array 1.#Pulses in train, 3
Stim specs cluster array 1.Peak Level time (ms), 29.000000
Stim specs cluster array 1.Total pulse period (ms), 200.000000
Stim specs cluster array 1.Start Delay (ms), 0.000000
Stim specs cluster array 1.Pulse Shape, Square
Stim specs cluster array 1.Ramp/Rel. time (ms), 0.000000
Stim specs cluster array 1.Peak Amplitude (V), 2.000000
Stim specs cluster array 2.Initial Stimulus ampl., 0.000000
Stim specs cluster array 2.Maximum Stimulus, 0.000000
Stim specs cluster array 2.#Pulses in train, 1
Stim specs cluster array 2.Peak Level time (ms), 25.000000
Stim specs cluster array 2.Total pulse period (ms), 200.000000
Stim specs cluster array 2.Start Delay (ms), 0.000000
Stim specs cluster array 2.Pulse Shape, Square
Stim specs cluster array 2.Ramp/Rel. time (ms), 20.000000
Stim specs cluster array 2.Peak Amplitude (V), 10.000000
Stim specs cluster array 3.Initial Stimulus ampl., 0.000000
Stim specs cluster array 3.Maximum Stimulus, 15.000000
Stim specs cluster array 3.#Pulses in train, 25
Stim specs cluster array 3.Peak Level time (ms), 0.100000
Stim specs cluster array 3.Total pulse period (ms), 4.000000
Stim specs cluster array 3.Start Delay (ms), 205.000000
Stim specs cluster array 3.Pulse Shape, Triangle
Stim specs cluster array 3.Ramp/Rel. time (ms), 3.000000
Stim specs cluster array 3.Peak Amplitude (V), 0.500000
Force cal. (mN/Volt), 100.000000
Force Range (mN), 100.000000
Length cal. (mm/Volt), 10.000000
Length Range (mm), 10.000000
Stim. 1, 0.300000
Stim. 2, 0.000000
Stim. 3, 0.000000
Stim. 4, 0.000000
Monitor acquire time (ms), 100.000000
EMG graph Ymax, 0.100000
Travel limit (mm), 20.000000
Use Pressure Probe, FALSE
Pressure goal (g), 100
Speed (mm/sec), 5.000000
Dwell time (ms), 100.000000
Pressure limit (g), 500.000000
Channel amplitude offset, 0.000000

[DATA]

0.191,0.059,0.268,-5.337
0.189,0.060,0.270,-5.337
0.158,0.064,0.273,-5.337
0.196,0.062,0.268,-5.337
0.216,0.063,0.261,-5.337
0.195,0.059,0.260,-5.337
0.227,0.059,0.260,-5.337
0.234,0.060,0.263,-5.337
0.202,0.060,0.268,-5.337
0.245,0.055,0.269,-5.337
0.204,0.058,0.267,-5.337
0.161,0.063,0.267,-5.337
0.166,0.064,0.266,-5.337
0.205,0.060,0.268,-5.337
0.218,0.059,0.271,-5.337
0.167,0.061,0.274,-5.337
0.154,0.063,0.273,-5.337
0.203,0.060,0.271,-5.337
0.240,0.057,0.266,-5.337
0.220,0.058,0.269,-5.337
0.184,0.061,0.268,-5.337
0.236,0.061,0.263,-5.337
0.246,0.060,0.263,-5.337
0.211,0.062,0.266,-5.337
0.185,0.061,0.266,-5.337
0.178,0.057,0.264,-5.337
0.178,0.059,0.266,-5.337
0.145,0.059,0.269,-5.337
0.126,0.054,0.270,-5.337
0.195,0.053,0.271,-5.337
0.297,0.052,0.271,-5.337
0.279,0.054,0.268,-5.337
0.247,0.055,0.268,-5.337
0.114,0.057,0.266,-5.337
0.073,0.055,0.266,-5.337
0.211,0.055,0.268,-5.337
0.200,0.056,0.273,-5.337
0.151,0.058,0.273,-5.337
0.232,0.057,0.269,-5.337
0.213,0.060,0.268,-5.337
0.181,0.063,0.266,-5.337
0.253,0.060,0.266,-5.337
0.283,0.060,0.265,-5.337
0.238,0.060,0.264,-5.337
0.224,0.058,0.265,-5.337
0.274,0.056,0.265,-5.337
0.178,0.058,0.265,-5.337
0.151,0.056,0.267,-5.337
0.221,0.061,0.271,-5.337
0.205,0.060,0.272,-5.337
0.148,0.060,0.271,-5.337
0.112,0.062,0.269,-5.337
0.120,0.062,0.266,-5.337
0.193,0.065,0.264,-5.337
0.300,0.063,0.265,-5.337
0.280,0.063,0.268,-5.337
0.216,0.064,0.269,-5.337
0.197,0.066,0.270,-5.337
0.157,0.066,0.272,-5.337
0.193,0.063,0.274,-5.337
0.281,0.060,0.270,-5.337
0.260,0.063,0.270,-5.337
0.146,0.064,0.268,-5.337
0.147,0.064,0.264,-5.337
0.148,0.065,0.261,-5.337
0.106,0.065,0.261,-5.337
0.184,0.058,0.263,-5.337
0.196,0.062,0.267,-5.337
0.130,0.063,0.273,-5.337
0.167,0.061,0.278,-5.337
0.318,0.059,0.274,-5.337
0.277,0.063,0.265,-5.337
0.199,0.064,0.260,-5.337
0.222,0.064,0.256,-5.337
0.213,0.060,0.257,-5.337
0.210,0.059,0.264,-5.337
0.236,0.060,0.269,-5.337
0.255,0.059,0.268,-5.337
0.276,0.058,0.270,-5.337
0.284,0.059,0.272,-5.337
0.310,0.062,0.272,-5.337
0.331,0.060,0.269,-5.337
0.302,0.061,0.268,-5.337
0.305,0.061,0.264,-5.337
0.366,0.061,0.262,-5.337
0.308,0.063,0.265,-5.337
0.219,0.071,0.269,-5.337
0.181,0.071,0.270,-5.337
0.201,0.070,0.269,-5.337
0.167,0.067,0.266,-5.337
0.153,0.067,0.265,-5.337
0.197,0.069,0.268,-5.337
0.258,0.068,0.270,-5.337
0.216,0.068,0.269,-5.337
0.193,0.065,0.267,-5.337
0.250,0.062,0.264,-5.337
0.265,0.063,0.261,-5.337
0.192,0.065,0.264,-5.337
0.192,0.066,0.266,-5.337
0.240,0.065,0.268,-5.337
0.212,0.066,0.266,-5.337
0.189,0.067,0.267,-5.337
0.181,0.065,0.267,-5.337
0.206,0.065,0.267,-5.337
0.230,0.065,0.265,-5.337
0.182,0.066,0.265,-5.337
0.118,0.068,0.265,-5.337
0.157,0.068,0.264,-5.337
0.160,0.068,0.265,-5.337
0.174,0.067,0.270,-5.337
0.224,0.067,0.272,-5.337
0.271,0.064,0.272,-5.337
0.262,0.063,0.272,-5.337
0.222,0.065,0.270,-5.337
0.217,0.062,0.263,-5.337
0.222,0.064,0.259,-5.337
0.184,0.062,0.263,-5.337
0.166,0.062,0.266,-5.337
0.186,0.062,0.268,-5.337
0.200,0.061,0.266,-5.337
0.163,0.064,0.265,-5.337
0.168,0.063,0.265,-5.337
0.214,0.063,0.265,-5.337
0.183,0.065,0.263,-5.337
0.183,0.066,0.262,-5.337
0.188,0.063,0.262,-5.337
0.235,0.062,0.264,-5.337
0.257,0.062,0.267,-5.337
0.276,0.064,0.267,-5.337
0.213,0.068,0.268,-5.337
0.212,0.066,0.270,-5.337
0.258,0.062,0.267,-5.337
0.211,0.064,0.263,-5.337
0.209,0.065,0.262,-5.337
0.239,0.065,0.263,-5.337
0.171,0.066,0.265,-5.337
0.158,0.063,0.265,-5.337
0.199,0.062,0.268,-5.337
0.255,0.058,0.268,-5.337
0.283,0.058,0.267,-5.337
0.265,0.060,0.265,-5.337
0.156,0.061,0.266,-5.337
0.177,0.059,0.269,-5.337
0.244,0.060,0.273,-5.337
0.247,0.058,0.270,-5.337
0.239,0.054,0.269,-5.337
0.241,0.057,0.267,-5.337
0.145,0.058,0.269,-5.337
0.212,0.053,0.269,-5.337
0.261,0.052,0.263,-5.337
0.223,0.052,0.259,-5.337
0.160,0.056,0.261,-5.337
0.198,0.054,0.264,-5.337
0.188,0.055,0.263,-5.337
0.232,0.055,0.262,-5.337
0.214,0.057,0.266,-5.337
0.206,0.060,0.266,-5.337
0.252,0.056,0.264,-5.337
0.276,0.052,0.264,-5.337
0.284,0.053,0.263,-5.337
0.236,0.055,0.266,-5.337
0.234,0.056,0.270,-5.337
0.190,0.059,0.272,-5.337
0.152,0.058,0.271,-5.337
0.208,0.058,0.266,-5.337
0.272,0.058,0.263,-5.337
0.245,0.063,0.265,-5.337
0.169,0.061,0.262,-5.337
0.157,0.062,0.263,-5.337
0.170,0.060,0.267,-5.337
0.180,0.059,0.267,-5.337
0.195,0.057,0.266,-5.337
0.182,0.058,0.267,-5.337
0.196,0.054,0.265,-5.337
0.197,0.059,0.265,-5.337
0.134,0.063,0.268,-5.337
0.151,0.058,0.270,-5.337
0.231,0.054,0.264,-5.337
0.259,0.055,0.261,-5.337
0.270,0.059,0.264,-5.337
0.216,0.062,0.265,-5.337
0.261,0.058,0.266,-5.337
0.315,0.059,0.265,-5.337
0.225,0.060,0.265,-5.337
0.202,0.058,0.266,-5.337
0.248,0.052,0.266,-5.337
0.253,0.051,0.268,-5.337
0.205,0.052,0.270,-5.337
0.225,0.051,0.269,-5.337
0.216,0.053,0.266,-5.337
0.233,0.050,0.264,-5.337
0.232,0.053,0.264,-5.337
0.212,0.054,0.263,-5.337
0.200,0.053,0.261,-5.337
0.235,0.050,0.265,-5.337
0.211,0.053,0.270,-5.337
0.123,0.056,0.271,-5.337
0.151,0.054,0.269,-5.337
0.203,0.055,0.265,-5.337
0.231,0.053,0.263,-5.337
0.264,0.054,0.266,-5.337
0.287,0.054,0.268,-5.337
0.242,0.052,0.266,-5.337
0.263,0.053,0.258,-5.337
0.273,0.053,0.259,-5.337
0.202,0.054,0.263,-5.337
0.156,0.052,0.269,-5.337
0.220,0.050,0.269,-5.337
0.238,0.050,0.272,-5.337
0.267,0.046,0.271,-5.337
0.262,0.048,0.267,-5.337
0.296,0.048,0.265,-5.337
0.284,0.048,0.264,-5.337
0.239,0.048,0.265,-5.337
0.159,0.051,0.267,-5.337
0.212,0.045,0.269,-5.337
0.289,0.044,0.268,-5.337
0.262,0.046,0.263,-5.337
0.158,0.049,0.262,-5.337
0.203,0.047,0.261,-5.337
0.228,0.047,0.262,-5.337
0.217,0.049,0.266,-5.337
0.207,0.055,0.268,-5.337
0.227,0.053,0.267,-5.337
0.216,0.052,0.264,-5.337
0.151,0.052,0.265,-5.337
0.166,0.052,0.267,-5.337
0.217,0.049,0.270,-5.337
0.152,0.054,0.268,-5.337
0.072,0.056,0.267,-5.337
0.150,0.051,0.268,-5.337
0.161,0.053,0.268,-5.337
0.099,0.053,0.266,-5.337
0.156,0.053,0.264,-5.337
0.176,0.053,0.264,-5.337
0.185,0.052,0.267,-5.337
0.184,0.050,0.270,-5.337
0.269,0.048,0.267,-5.337
0.209,0.050,0.264,-5.337
0.152,0.051,0.264,-5.337
0.161,0.055,0.264,-5.337
0.172,0.054,0.267,-5.337
0.156,0.053,0.268,-5.337
0.136,0.053,0.266,-5.337
0.183,0.048,0.264,-5.337
0.225,0.044,0.263,-5.337
0.237,0.049,0.259,-5.337
0.188,0.052,0.258,-5.337
0.174,0.051,0.261,-5.337
0.199,0.045,0.265,-5.337
0.213,0.048,0.268,-5.337
0.199,0.052,0.267,-5.337
0.223,0.052,0.266,-5.337
0.170,0.051,0.266,-5.337
0.138,0.048,0.265,-5.337
0.159,0.045,0.267,-5.337
0.160,0.045,0.271,-5.337
0.217,0.043,0.270,-5.337
0.227,0.047,0.269,-5.337
0.222,0.050,0.265,-5.337
0.228,0.047,0.263,-5.337
0.178,0.046,0.261,-5.337
0.145,0.047,0.260,-5.337
0.093,0.047,0.259,-5.337
0.095,0.049,0.263,-5.337
0.175,0.046,0.268,-5.337
0.221,0.047,0.268,-5.337
0.215,0.048,0.267,-5.337
0.188,0.054,0.267,-5.337
0.144,0.050,0.269,-5.337
0.155,0.047,0.267,-5.337
0.194,0.047,0.265,-5.337
0.224,0.044,0.267,-5.337
0.235,0.045,0.266,-5.337
0.192,0.047,0.265,-5.337
0.131,0.049,0.263,-5.337
0.102,0.052,0.266,-5.337
0.137,0.051,0.268,-5.337
0.217,0.047,0.267,-5.337
0.181,0.047,0.266,-5.337
0.103,0.047,0.264,-5.337
0.154,0.044,0.261,-5.337
0.213,0.044,0.263,-5.337
0.208,0.046,0.268,-5.337
0.174,0.048,0.268,-5.337
0.240,0.049,0.263,-5.337
0.276,0.049,0.263,-5.337
0.191,0.051,0.266,-5.337
0.121,0.050,0.269,-5.337
0.148,0.047,0.267,-5.337
0.187,0.046,0.270,-5.337
0.232,0.043,0.270,-5.337
0.221,0.046,0.270,-5.337
0.167,0.049,0.266,-5.337
0.155,0.048,0.264,-5.337
0.145,0.044,0.263,-5.337
0.159,0.046,0.265,-5.337
0.170,0.045,0.266,-5.337
0.170,0.046,0.265,-5.337
0.163,0.045,0.263,-5.337
0.174,0.043,0.265,-5.337
0.189,0.047,0.267,-5.337
0.162,0.046,0.270,-5.337
0.141,0.044,0.271,-5.337
0.193,0.042,0.272,-5.337
0.156,0.044,0.273,-5.337
0.134,0.045,0.269,-5.337
0.207,0.047,0.264,-5.337
0.215,0.046,0.261,-5.337
0.162,0.046,0.263,-5.337
0.172,0.046,0.265,-5.337
0.223,0.047,0.267,-5.337
0.125,0.047,0.269,-5.337
0.135,0.045,0.271,-5.337
0.199,0.044,0.267,-5.337
0.186,0.048,0.265,-5.337
0.191,0.046,0.262,-5.337
0.234,0.042,0.260,-5.337
0.282,0.040,0.259,-5.337
0.284,0.042,0.264,-5.337
0.249,0.043,0.271,-5.337
0.241,0.042,0.272,-5.337
0.189,0.044,0.270,-5.337
0.166,0.044,0.268,-5.337
0.150,0.046,0.266,-5.337
0.189,0.042,0.264,-5.337
0.241,0.042,0.265,-5.337
0.188,0.044,0.265,-5.337
0.140,0.045,0.264,-5.337
0.128,0.047,0.265,-5.337
0.086,0.045,0.267,-5.337
0.079,0.043,0.267,-5.337
0.063,0.046,0.270,-5.337
0.149,0.041,0.270,-5.337
0.167,0.041,0.269,-5.337
0.142,0.041,0.267,-5.337
0.181,0.042,0.265,-5.337
0.233,0.041,0.267,-5.337
0.231,0.039,0.266,-5.337
0.166,0.043,0.265,-5.337
0.141,0.044,0.267,-5.337
0.066,0.046,0.269,-5.337
0.054,0.044,0.271,-5.337
0.094,0.044,0.271,-5.337
0.171,0.043,0.268,-5.337
0.214,0.042,0.266,-5.337
0.236,0.038,0.265,-5.337
0.200,0.036,0.266,-5.337
0.178,0.039,0.264,-5.337
0.217,0.040,0.264,-5.337
0.256,0.041,0.265,-5.337
0.234,0.044,0.265,-5.337
0.187,0.042,0.263,-5.337
0.135,0.044,0.263,-5.337
0.214,0.041,0.262,-5.337
0.280,0.040,0.264,-5.337
0.230,0.043,0.267,-5.337
0.168,0.044,0.273,-5.337
0.180,0.043,0.272,-5.337
0.242,0.041,0.267,-5.337
0.143,0.045,0.258,-5.337
0.048,0.049,0.259,-5.337
0.064,0.050,0.264,-5.337
0.090,0.050,0.269,-5.337
0.115,0.044,0.272,-5.337
0.162,0.040,0.271,-5.337
0.130,0.043,0.266,-5.337
0.146,0.047,0.262,-5.337
0.172,0.044,0.262,-5.337
0.125,0.042,0.267,-5.337
0.137,0.041,0.272,-5.337
0.206,0.041,0.269,-5.337
0.218,0.042,0.266,-5.337
0.192,0.041,0.267,-5.337
0.234,0.036,0.272,-5.337
0.257,0.037,0.275,-5.337
0.189,0.041,0.271,-5.337
0.200,0.040,0.262,-5.337
0.232,0.041,0.261,-5.337
0.216,0.041,0.264,-5.337
0.152,0.047,0.265,-5.337
0.119,0.049,0.262,-5.337
0.180,0.048,0.261,-5.337
0.254,0.046,0.263,-5.337
0.286,0.047,0.264,-5.337
0.221,0.050,0.266,-5.337
0.174,0.050,0.270,-5.337
0.158,0.050,0.273,-5.337
0.125,0.047,0.273,-5.337
0.158,0.043,0.269,-5.337
0.211,0.043,0.261,-5.337
0.191,0.045,0.259,-5.337
0.210,0.047,0.259,-5.337
0.178,0.047,0.262,-5.337
0.183,0.045,0.266,-5.337
0.180,0.044,0.266,-5.337
0.126,0.042,0.260,-5.337
0.044,0.050,0.259,-5.337
0.021,0.052,0.266,-5.337
0.091,0.051,0.271,-5.337
0.169,0.049,0.268,-5.337
0.217,0.048,0.262,-5.337
0.196,0.051,0.258,-5.337
0.165,0.053,0.260,-5.337
0.192,0.053,0.267,-5.337
0.214,0.055,0.273,-5.337
0.165,0.054,0.269,-5.337
0.176,0.051,0.265,-5.337
0.216,0.050,0.259,-5.337
0.234,0.046,0.259,-5.337
0.165,0.046,0.261,-5.337
0.154,0.050,0.262,-5.337
0.185,0.050,0.265,-5.337
0.181,0.055,0.268,-5.337
0.118,0.056,0.267,-5.337
0.086,0.056,0.264,-5.337
0.090,0.052,0.264,-5.337
0.092,0.052,0.265,-5.337
0.062,0.056,0.263,-5.337
0.038,0.055,0.263,-5.337
0.145,0.049,0.265,-5.337
0.244,0.043,0.265,-5.337
0.297,0.043,0.260,-5.337
0.237,0.044,0.255,-5.337
0.157,0.047,0.257,-5.337
0.225,0.047,0.258,-5.337
0.297,0.045,0.262,-5.337
0.278,0.046,0.263,-5.337
0.257,0.045,0.266,-5.337
0.182,0.045,0.267,-5.337
0.147,0.046,0.265,-5.337
0.159,0.045,0.263,-5.337
0.193,0.048,0.261,-5.337
0.207,0.051,0.259,-5.337
0.213,0.045,0.260,-5.337
0.211,0.042,0.267,-5.337
0.242,0.044,0.267,-5.337
0.297,0.043,0.265,-5.337
0.286,0.042,0.262,-5.337
0.239,0.047,0.263,-5.337
0.191,0.052,0.264,-5.337
0.174,0.051,0.264,-5.337
0.136,0.049,0.263,-5.337
0.153,0.051,0.264,-5.337
0.174,0.054,0.263,-5.337
0.137,0.056,0.262,-5.337
0.139,0.055,0.262,-5.337
0.166,0.056,0.264,-5.337
0.217,0.054,0.263,-5.337
0.238,0.051,0.261,-5.337
0.216,0.052,0.259,-5.337
0.140,0.053,0.261,-5.337
0.151,0.055,0.266,-5.337
0.167,0.056,0.265,-5.337
0.188,0.056,0.261,-5.337
0.187,0.055,0.259,-5.337
0.176,0.053,0.262,-5.337
0.202,0.052,0.262,-5.337
0.214,0.054,0.265,-5.337
0.199,0.055,0.264,-5.337
0.190,0.056,0.262,-5.337
0.215,0.053,0.258,-5.337
0.172,0.054,0.258,-5.337
0.160,0.053,0.258,-5.337
0.204,0.049,0.261,-5.337
0.212,0.050,0.263,-5.337
0.193,0.057,0.265,-5.337
0.139,0.061,0.268,-5.337
0.168,0.060,0.266,-5.337
0.132,0.062,0.263,-5.337
0.118,0.061,0.262,-5.337
0.178,0.058,0.260,-5.337
0.212,0.053,0.260,-5.337
0.221,0.053,0.259,-5.337
0.164,0.054,0.259,-5.337
0.214,0.053,0.263,-5.337
0.207,0.053,0.264,-5.337
0.192,0.054,0.263,-5.337
0.200,0.053,0.261,-5.337
0.183,0.053,0.259,-5.337
0.188,0.056,0.257,-5.337
0.204,0.058,0.257,-5.337
0.182,0.059,0.262,-5.337
0.174,0.061,0.260,-5.337
0.185,0.058,0.257,-5.337
0.237,0.059,0.257,-5.337
0.214,0.060,0.257,-5.337
0.107,0.064,0.258,-5.337
0.132,0.060,0.258,-5.337
0.214,0.056,0.260,-5.337
0.302,0.055,0.262,-5.337
0.327,0.055,0.265,-5.337
0.256,0.059,0.267,-5.337
0.185,0.064,0.262,-5.337
0.134,0.065,0.258,-5.337
0.154,0.059,0.260,-5.337
0.224,0.058,0.263,-5.337
0.239,0.058,0.262,-5.337
0.198,0.058,0.259,-5.337
0.199,0.054,0.255,-5.337
0.189,0.057,0.257,-5.337
0.180,0.057,0.259,-5.337
0.189,0.058,0.261,-5.337
0.188,0.061,0.262,-5.337
0.187,0.059,0.262,-5.337
0.213,0.057,0.263,-5.337
0.202,0.062,0.263,-5.337
0.228,0.061,0.262,-5.337
0.286,0.058,0.263,-5.337
0.287,0.058,0.260,-5.337
0.182,0.065,0.254,-5.337
0.178,0.065,0.254,-5.337
0.219,0.067,0.256,-5.337
0.180,0.063,0.263,-5.337
0.183,0.063,0.268,-5.337
0.178,0.063,0.268,-5.337
0.235,0.058,0.261,-5.337
0.242,0.063,0.255,-5.337
0.179,0.065,0.255,-5.337
0.221,0.064,0.262,-5.337
0.273,0.063,0.261,-5.337
0.250,0.059,0.260,-5.337
0.205,0.060,0.257,-5.337
0.209,0.063,0.258,-5.337
0.249,0.062,0.258,-5.337
0.157,0.061,0.258,-5.337
0.132,0.057,0.260,-5.337
0.138,0.059,0.263,-5.337
0.145,0.059,0.264,-5.337
0.222,0.056,0.266,-5.337
0.239,0.062,0.262,-5.337
0.219,0.061,0.257,-5.337
0.254,0.059,0.258,-5.337
0.292,0.059,0.260,-5.337
0.217,0.065,0.263,-5.337
0.104,0.067,0.262,-5.337
0.209,0.060,0.261,-5.337
0.311,0.056,0.258,-5.337
0.212,0.059,0.260,-5.337
0.191,0.059,0.261,-5.337
0.245,0.056,0.262,-5.337
0.242,0.056,0.263,-5.337
0.149,0.062,0.267,-5.337
0.154,0.065,0.263,-5.337
0.188,0.070,0.260,-5.337
0.176,0.067,0.261,-5.337
0.195,0.065,0.262,-5.337
0.211,0.060,0.256,-5.337
0.299,0.059,0.256,-5.337
0.305,0.062,0.260,-5.337
0.213,0.068,0.265,-5.337
0.141,0.066,0.264,-5.337
0.190,0.062,0.261,-5.337
0.218,0.063,0.260,-5.337
0.244,0.061,0.259,-5.337
0.251,0.062,0.259,-5.337
0.180,0.066,0.260,-5.337
0.170,0.067,0.263,-5.337
0.226,0.064,0.266,-5.337
0.295,0.061,0.269,-5.337
0.289,0.062,0.265,-5.337
0.195,0.063,0.263,-5.337
0.148,0.068,0.257,-5.337
0.128,0.070,0.252,-5.337
0.212,0.064,0.252,-5.337
0.264,0.062,0.257,-5.337
0.248,0.060,0.261,-5.337
0.278,0.057,0.265,-5.337
0.289,0.058,0.267,-5.337
0.231,0.061,0.264,-5.337
0.243,0.063,0.261,-5.337
0.290,0.061,0.260,-5.337
0.304,0.062,0.260,-5.337
0.269,0.066,0.261,-5.337
0.256,0.067,0.263,-5.337
0.282,0.067,0.265,-5.337
0.291,0.063,0.264,-5.337
0.227,0.065,0.262,-5.337
0.270,0.065,0.262,-5.337
0.310,0.069,0.259,-5.337
0.212,0.073,0.259,-5.337
0.155,0.074,0.261,-5.337
0.227,0.069,0.261,-5.337
0.320,0.064,0.261,-5.337
0.257,0.067,0.262,-5.337
0.251,0.068,0.262,-5.337
0.253,0.071,0.263,-5.337
0.209,0.069,0.262,-5.337
0.191,0.070,0.260,-5.337
0.191,0.071,0.262,-5.337
0.223,0.071,0.263,-5.337
0.255,0.067,0.260,-5.337
0.235,0.065,0.262,-5.337
0.237,0.063,0.261,-5.337
0.241,0.066,0.260,-5.337
0.209,0.067,0.258,-5.337
0.227,0.066,0.261,-5.337
0.271,0.066,0.258,-5.337
0.283,0.066,0.251,-5.337
0.291,0.066,0.253,-5.337
0.304,0.065,0.255,-5.337
0.219,0.069,0.262,-5.337
0.225,0.066,0.268,-5.337
0.246,0.067,0.269,-5.337
0.201,0.065,0.266,-5.337
0.169,0.067,0.261,-5.337
0.212,0.065,0.258,-5.337
0.263,0.064,0.261,-5.337
0.306,0.061,0.262,-5.337
0.235,0.064,0.259,-5.337
0.211,0.066,0.257,-5.337
0.215,0.068,0.261,-5.337
0.231,0.067,0.263,-5.337
0.258,0.067,0.264,-5.337
0.240,0.066,0.262,-5.337
0.228,0.066,0.261,-5.337
0.178,0.066,0.262,-5.337
0.148,0.069,0.262,-5.337
0.139,0.074,0.266,-5.337
0.184,0.069,0.268,-5.337
0.208,0.069,0.264,-5.337
0.217,0.068,0.258,-5.337
0.232,0.067,0.253,-5.337
0.230,0.066,0.251,-5.337
0.204,0.071,0.253,-5.337
0.165,0.074,0.255,-5.337
0.194,0.069,0.259,-5.337
0.234,0.068,0.264,-5.337
0.232,0.069,0.266,-5.337
0.242,0.068,0.262,-5.337
0.250,0.068,0.259,-5.337
0.154,0.067,0.259,-5.337
0.143,0.066,0.262,-5.337
0.178,0.066,0.263,-5.337
0.218,0.065,0.261,-5.337
0.218,0.063,0.259,-5.337
0.260,0.062,0.259,-5.337
0.245,0.063,0.263,-5.337
0.254,0.060,0.265,-5.337
0.249,0.059,0.265,-5.337
0.269,0.055,0.260,-5.337
0.254,0.055,0.257,-5.337
0.263,0.055,0.260,-5.337
0.260,0.059,0.266,-5.337
0.235,0.058,0.267,-5.337
0.231,0.058,0.266,-5.337
0.250,0.055,0.259,-5.337
0.245,0.058,0.256,-5.337
0.203,0.061,0.257,-5.337
0.140,0.060,0.259,-5.337
0.144,0.058,0.255,-5.337
0.210,0.060,0.257,-5.337
0.207,0.058,0.261,-5.337
0.214,0.057,0.260,-5.337
0.216,0.059,0.260,-5.337
0.230,0.059,0.262,-5.337
0.244,0.058,0.260,-5.337
0.259,0.056,0.258,-5.337
0.279,0.056,0.263,-5.337
0.243,0.059,0.268,-5.337
0.177,0.059,0.264,-5.337
0.131,0.061,0.257,-5.337
0.195,0.059,0.258,-5.337
0.285,0.053,0.259,-5.337
0.291,0.050,0.259,-5.337
0.227,0.054,0.255,-5.337
0.146,0.059,0.254,-5.337
0.226,0.055,0.257,-5.337
0.288,0.053,0.262,-5.337
0.330,0.052,0.266,-5.337
0.289,0.056,0.267,-5.337
0.199,0.059,0.267,-5.337
0.196,0.058,0.265,-5.337
0.174,0.057,0.257,-5.337
0.089,0.060,0.257,-5.337
0.126,0.059,0.261,-5.337
0.224,0.056,0.263,-5.337
0.242,0.052,0.262,-5.337
0.278,0.051,0.257,-5.337
0.293,0.052,0.256,-5.337
0.245,0.051,0.260,-5.337
0.258,0.054,0.263,-5.337
0.267,0.056,0.262,-5.337
0.267,0.055,0.262,-5.337
0.296,0.052,0.262,-5.337
0.268,0.054,0.262,-5.337
0.252,0.056,0.259,-5.337
0.262,0.055,0.258,-5.337
0.226,0.053,0.258,-5.337
0.164,0.056,0.261,-5.337
0.163,0.054,0.261,-5.337
0.234,0.050,0.257,-5.337
0.202,0.051,0.254,-5.337
0.164,0.054,0.254,-5.337
0.171,0.054,0.261,-5.337
0.267,0.054,0.261,-5.337
0.243,0.054,0.261,-5.337
0.257,0.052,0.262,-5.337
0.299,0.050,0.262,-5.337
0.244,0.054,0.260,-5.337
0.193,0.056,0.262,-5.337
0.261,0.049,0.264,-5.337
0.333,0.045,0.263,-5.337
0.225,0.052,0.260,-5.337
0.175,0.053,0.258,-5.337
0.185,0.049,0.258,-5.337
0.224,0.048,0.260,-5.337
0.227,0.051,0.260,-5.337
0.163,0.051,0.260,-5.337
0.158,0.047,0.261,-5.337
0.179,0.050,0.262,-5.337
0.219,0.049,0.262,-5.337
0.231,0.049,0.256,-5.337
0.217,0.050,0.254,-5.337
0.165,0.052,0.256,-5.337
0.135,0.054,0.256,-5.337
0.208,0.050,0.257,-5.337
0.246,0.051,0.258,-5.337
0.209,0.051,0.261,-5.337
0.247,0.051,0.263,-5.337
0.270,0.052,0.261,-5.337
0.193,0.055,0.261,-5.337
0.171,0.054,0.263,-5.337
0.242,0.054,0.261,-5.337
0.281,0.055,0.256,-5.337
0.198,0.057,0.260,-5.337
0.146,0.056,0.260,-5.337
0.197,0.051,0.264,-5.337
0.245,0.045,0.265,-5.337
0.219,0.049,0.263,-5.337
0.171,0.052,0.259,-5.337
0.160,0.055,0.259,-5.337
0.204,0.051,0.261,-5.337
0.243,0.050,0.266,-5.337
0.226,0.047,0.268,-5.337
0.268,0.044,0.266,-5.337
0.217,0.045,0.259,-5.337
0.164,0.052,0.257,-5.337
0.143,0.052,0.260,-5.337
0.143,0.050,0.262,-5.337
0.189,0.049,0.258,-5.337
0.261,0.049,0.255,-5.337
0.292,0.050,0.258,-5.337
0.258,0.052,0.263,-5.337
0.193,0.052,0.266,-5.337
0.191,0.049,0.264,-5.337
0.123,0.050,0.263,-5.337
0.126,0.047,0.260,-5.337
0.176,0.050,0.261,-5.337
0.219,0.051,0.260,-5.337
0.230,0.051,0.260,-5.337
0.195,0.051,0.260,-5.337
0.221,0.045,0.262,-5.337
0.208,0.045,0.264,-5.337
0.230,0.043,0.261,-5.337
0.226,0.045,0.256,-5.337
0.161,0.046,0.258,-5.337
0.140,0.046,0.260,-5.337
0.200,0.046,0.259,-5.337
0.189,0.048,0.257,-5.337
0.145,0.051,0.260,-5.337
0.130,0.049,0.264,-5.337
0.181,0.049,0.263,-5.337
0.254,0.046,0.258,-5.337
0.322,0.044,0.252,-5.337
0.240,0.046,0.252,-5.337
0.171,0.049,0.255,-5.337
0.134,0.050,0.262,-5.337
0.127,0.049,0.268,-5.337
0.201,0.045,0.266,-5.337
0.293,0.043,0.260,-5.337
0.266,0.045,0.256,-5.337
0.206,0.045,0.255,-5.337
0.180,0.049,0.258,-5.337
0.227,0.045,0.261,-5.337
0.269,0.044,0.263,-5.337
0.232,0.046,0.265,-5.337
0.157,0.049,0.265,-5.337
0.130,0.048,0.262,-5.337
0.198,0.043,0.260,-5.337
0.169,0.047,0.259,-5.337
0.159,0.048,0.260,-5.337
0.160,0.052,0.263,-5.337
0.196,0.047,0.263,-5.337
0.274,0.042,0.260,-5.337
0.182,0.045,0.257,-5.337
0.128,0.044,0.258,-5.337
0.246,0.045,0.259,-5.337
0.242,0.044,0.265,-5.337
0.201,0.043,0.265,-5.337
0.254,0.042,0.263,-5.337
0.249,0.041,0.259,-5.337
0.269,0.041,0.259,-5.337
0.292,0.042,0.259,-5.337
0.259,0.044,0.259,-5.337
0.270,0.043,0.257,-5.337
0.210,0.046,0.260,-5.337
0.176,0.046,0.258,-5.337
0.173,0.048,0.258,-5.337
0.210,0.044,0.259,-5.337
0.212,0.045,0.260,-5.337
0.212,0.044,0.259,-5.337
0.208,0.044,0.260,-5.337
0.162,0.048,0.261,-5.337
0.103,0.050,0.264,-5.337
0.140,0.047,0.261,-5.337
0.180,0.048,0.258,-5.337
0.192,0.049,0.259,-5.337
0.135,0.050,0.263,-5.337
0.118,0.050,0.267,-5.337
0.163,0.051,0.264,-5.337
0.205,0.051,0.260,-5.337
0.171,0.047,0.258,-5.337
0.197,0.048,0.261,-5.337
0.185,0.053,0.263,-5.337
0.162,0.056,0.260,-5.337
0.180,0.052,0.260,-5.337
0.211,0.046,0.261,-5.337
0.178,0.045,0.260,-5.337
0.178,0.047,0.258,-5.337
0.175,0.049,0.256,-5.337
0.211,0.042,0.260,-5.337
0.206,0.044,0.260,-5.337
0.115,0.049,0.262,-5.337
0.086,0.051,0.261,-5.337
0.099,0.049,0.264,-5.337
0.102,0.048,0.267,-5.337
0.065,0.049,0.267,-5.337
0.108,0.048,0.263,-5.337
0.186,0.046,0.259,-5.337
0.148,0.049,0.261,-5.337
0.105,0.048,0.261,-5.337
0.168,0.049,0.260,-5.337
0.208,0.049,0.259,-5.337
0.219,0.051,0.262,-5.337
0.165,0.047,0.261,-5.337
0.139,0.044,0.263,-5.337
0.132,0.046,0.264,-5.337
0.103,0.044,0.266,-5.337
0.070,0.046,0.264,-5.337
0.135,0.047,0.263,-5.337
0.201,0.043,0.262,-5.337
0.203,0.042,0.261,-5.337
0.218,0.042,0.258,-5.337
0.190,0.045,0.259,-5.337
0.182,0.042,0.258,-5.337
0.154,0.045,0.257,-5.337
0.147,0.050,0.260,-5.337
0.227,0.046,0.263,-5.337
0.249,0.042,0.267,-5.337
0.207,0.042,0.265,-5.337
0.191,0.042,0.258,-5.337
0.213,0.043,0.254,-5.337
0.264,0.043,0.259,-5.337
0.273,0.042,0.261,-5.337
0.227,0.045,0.261,-5.337
0.192,0.044,0.259,-5.337
0.148,0.046,0.256,-5.337
0.136,0.048,0.256,-5.337
0.181,0.046,0.259,-5.337
0.199,0.042,0.259,-5.337
0.165,0.043,0.262,-5.337
0.110,0.046,0.264,-5.337
0.151,0.046,0.265,-5.337
0.152,0.047,0.264,-5.337
0.099,0.048,0.260,-5.337
0.110,0.044,0.258,-5.337
0.139,0.049,0.255,-5.337
0.157,0.048,0.260,-5.337
0.197,0.043,0.263,-5.337
0.251,0.037,0.264,-5.337
0.220,0.037,0.263,-5.337
0.168,0.044,0.262,-5.337
0.138,0.047,0.259,-5.337
0.152,0.046,0.262,-5.337
0.133,0.044,0.266,-5.337
0.100,0.043,0.267,-5.337
0.055,0.038,0.263,-5.337
0.097,0.038,0.265,-5.337
0.133,0.041,0.264,-5.337
0.153,0.044,0.258,-5.337
0.151,0.045,0.256,-5.337
0.113,0.047,0.256,-5.337
0.160,0.041,0.257,-5.337
0.212,0.044,0.259,-5.337
0.165,0.043,0.258,-5.337
0.095,0.045,0.262,-5.337
0.112,0.046,0.266,-5.337
0.139,0.046,0.263,-5.337
0.078,0.046,0.260,-5.337
0.017,0.047,0.258,-5.337
0.034,0.045,0.255,-5.337
0.123,0.044,0.258,-5.337
0.210,0.042,0.264,-5.337
0.181,0.046,0.262,-5.337
0.139,0.045,0.259,-5.337
0.131,0.043,0.258,-5.337
0.196,0.043,0.263,-5.337
0.210,0.042,0.263,-5.337
0.213,0.043,0.261,-5.337
0.254,0.047,0.260,-5.337
0.231,0.051,0.261,-5.337
0.154,0.048,0.262,-5.337
0.179,0.044,0.262,-5.337
0.235,0.042,0.261,-5.337
0.311,0.043,0.257,-5.337
0.293,0.046,0.256,-5.337
0.255,0.044,0.261,-5.337
0.271,0.042,0.262,-5.337
0.237,0.043,0.259,-5.337
0.202,0.043,0.260,-5.337
0.169,0.043,0.261,-5.337
0.185,0.039,0.261,-5.337
0.237,0.042,0.257,-5.337
0.258,0.041,0.257,-5.337
0.206,0.044,0.257,-5.337
0.133,0.046,0.259,-5.337
0.118,0.047,0.261,-5.337
0.106,0.049,0.265,-5.337
0.098,0.046,0.265,-5.337
0.173,0.046,0.263,-5.337
0.223,0.047,0.259,-5.337
0.222,0.048,0.259,-5.337
0.185,0.048,0.259,-5.337
0.171,0.050,0.261,-5.337
0.217,0.045,0.261,-5.337
0.256,0.044,0.264,-5.337
0.200,0.048,0.265,-5.337
0.138,0.046,0.264,-5.337
0.175,0.045,0.263,-5.337
0.218,0.045,0.263,-5.337
0.171,0.048,0.260,-5.337
0.084,0.051,0.258,-5.337
0.109,0.051,0.256,-5.337
0.167,0.048,0.258,-5.337
0.194,0.046,0.261,-5.337
0.192,0.044,0.257,-5.337
0.256,0.044,0.256,-5.337
0.267,0.044,0.256,-5.337
0.206,0.046,0.261,-5.337
0.209,0.047,0.262,-5.337
0.213,0.050,0.263,-5.337
0.184,0.047,0.261,-5.337
0.182,0.050,0.257,-5.337
0.164,0.050,0.256,-5.337
0.179,0.053,0.258,-5.337
0.153,0.053,0.261,-5.337
0.092,0.050,0.263,-5.337
0.091,0.051,0.261,-5.337
0.147,0.051,0.261,-5.337
0.189,0.049,0.259,-5.337
0.225,0.049,0.257,-5.337
0.192,0.048,0.255,-5.337
0.150,0.049,0.257,-5.337
0.206,0.045,0.259,-5.337
0.234,0.044,0.260,-5.337
0.199,0.046,0.258,-5.337
0.158,0.049,0.257,-5.337
0.193,0.048,0.260,-5.337
0.163,0.045,0.260,-5.337
0.146,0.047,0.259,-5.337
0.127,0.047,0.259,-5.337
0.132,0.050,0.261,-5.337
0.167,0.050,0.263,-5.337
0.171,0.050,0.265,-5.337
0.194,0.051,0.263,-5.337
0.209,0.052,0.261,-5.337
0.127,0.051,0.258,-5.337
0.124,0.050,0.257,-5.337
0.194,0.051,0.258,-5.337
0.224,0.049,0.259,-5.337
0.261,0.048,0.258,-5.337
0.275,0.050,0.261,-5.337
0.246,0.050,0.264,-5.337
0.242,0.050,0.261,-5.337
0.217,0.049,0.259,-5.337
0.198,0.046,0.259,-5.337
0.171,0.048,0.259,-5.337
0.136,0.051,0.256,-5.337
0.120,0.051,0.260,-5.337
0.148,0.052,0.259,-5.337
0.198,0.055,0.257,-5.337
0.167,0.056,0.255,-5.337
0.166,0.059,0.260,-5.337
0.192,0.058,0.261,-5.337
0.245,0.059,0.262,-5.337
0.277,0.055,0.262,-5.337
0.207,0.063,0.262,-5.337
0.114,0.064,0.260,-5.337
0.159,0.060,0.259,-5.337
0.254,0.055,0.262,-5.337
0.314,0.055,0.262,-5.337
0.297,0.057,0.257,-5.337
0.255,0.063,0.253,-5.337
0.196,0.063,0.254,-5.337
0.241,0.059,0.256,-5.337
0.258,0.057,0.258,-5.337
0.219,0.058,0.260,-5.337
0.208,0.055,0.261,-5.337
0.246,0.058,0.259,-5.337
0.229,0.059,0.261,-5.337
0.215,0.056,0.261,-5.337
0.258,0.057,0.260,-5.337
0.249,0.059,0.258,-5.337
0.192,0.063,0.258,-5.337
0.132,0.065,0.263,-5.337
0.138,0.060,0.261,-5.337
0.189,0.054,0.257,-5.337
0.202,0.054,0.257,-5.337
0.184,0.058,0.257,-5.337
0.140,0.059,0.261,-5.337
0.141,0.058,0.264,-5.337
0.169,0.057,0.262,-5.337
0.200,0.056,0.260,-5.337
0.234,0.054,0.260,-5.337
0.235,0.055,0.263,-5.337
0.186,0.058,0.265,-5.337
0.221,0.058,0.265,-5.337
0.263,0.059,0.259,-5.337
0.215,0.061,0.260,-5.337
0.242,0.064,0.262,-5.337
0.169,0.067,0.259,-5.337
0.077,0.065,0.255,-5.337
0.105,0.062,0.256,-5.337
0.133,0.062,0.260,-5.337
0.171,0.058,0.258,-5.337
0.191,0.060,0.257,-5.337
0.172,0.059,0.255,-5.337
0.177,0.060,0.255,-5.337
0.203,0.060,0.255,-5.337
0.243,0.059,0.256,-5.337
0.291,0.058,0.260,-5.337
0.264,0.061,0.264,-5.337
0.213,0.061,0.262,-5.337
0.217,0.060,0.259,-5.337
0.243,0.059,0.258,-5.337
0.258,0.059,0.259,-5.337
0.240,0.063,0.260,-5.337
0.222,0.063,0.258,-5.337
0.192,0.062,0.254,-5.337
0.175,0.061,0.253,-5.337
0.205,0.059,0.255,-5.337
0.208,0.061,0.264,-5.337
0.197,0.063,0.265,-5.337
0.171,0.064,0.260,-5.337
0.168,0.060,0.257,-5.337
0.159,0.062,0.258,-5.337
0.230,0.061,0.259,-5.337
0.212,0.064,0.257,-5.337
0.158,0.061,0.259,-5.337
0.195,0.057,0.266,-5.337
0.270,0.057,0.266,-5.337
0.298,0.057,0.264,-5.337
0.262,0.059,0.261,-5.337
0.216,0.060,0.259,-5.337
0.188,0.063,0.257,-5.337
0.106,0.067,0.258,-5.337
0.157,0.059,0.258,-5.337
0.202,0.059,0.255,-5.337
0.239,0.058,0.257,-5.337
0.216,0.061,0.261,-5.337
0.200,0.059,0.263,-5.337
0.295,0.058,0.264,-5.337
0.338,0.060,0.260,-5.337
0.254,0.057,0.258,-5.337
0.217,0.060,0.259,-5.337
0.201,0.063,0.262,-5.337
0.182,0.063,0.261,-5.337
0.194,0.061,0.263,-5.337
0.200,0.060,0.267,-5.337
0.180,0.062,0.265,-5.337
0.179,0.062,0.259,-5.337
0.276,0.062,0.254,-5.337
0.323,0.057,0.252,-5.337
0.280,0.056,0.254,-5.337
0.222,0.060,0.258,-5.337
0.152,0.064,0.264,-5.337
0.094,0.064,0.265,-5.337
0.099,0.064,0.260,-5.337
0.126,0.064,0.262,-5.337
0.152,0.066,0.266,-5.337
0.155,0.068,0.262,-5.337
0.205,0.064,0.259,-5.337
0.306,0.060,0.256,-5.337
0.346,0.062,0.258,-5.337
0.265,0.064,0.259,-5.337
0.242,0.066,0.258,-5.337
0.254,0.065,0.259,-5.337
0.293,0.065,0.261,-5.337
0.283,0.063,0.261,-5.337
0.201,0.064,0.257,-5.337
0.200,0.064,0.259,-5.337
0.220,0.065,0.259,-5.337
0.211,0.062,0.260,-5.337
0.232,0.061,0.263,-5.337
0.189,0.063,0.265,-5.337
0.172,0.067,0.262,-5.337
0.170,0.069,0.261,-5.337
0.127,0.070,0.260,-5.337
0.167,0.067,0.261,-5.337
0.290,0.067,0.261,-5.337
0.317,0.067,0.264,-5.337
0.294,0.069,0.262,-5.337
0.229,0.069,0.261,-5.337
0.228,0.067,0.260,-5.337
0.271,0.068,0.262,-5.337
0.297,0.066,0.261,-5.337
0.299,0.063,0.261,-5.337
0.205,0.067,0.264,-5.337
0.224,0.066,0.264,-5.337
0.257,0.065,0.261,-5.337
0.208,0.069,0.261,-5.337
0.209,0.066,0.262,-5.337
0.206,0.067,0.267,-5.337
0.219,0.063,0.269,-5.337
0.188,0.066,0.265,-5.337
0.154,0.066,0.260,-5.337
0.195,0.065,0.259,-5.337
0.259,0.064,0.260,-5.337
0.286,0.062,0.260,-5.337
0.223,0.068,0.260,-5.337
0.219,0.067,0.258,-5.337
0.226,0.067,0.262,-5.337
0.196,0.067,0.264,-5.337
0.226,0.067,0.263,-5.337
0.230,0.066,0.257,-5.337
0.272,0.065,0.256,-5.337
0.299,0.064,0.256,-5.337
0.238,0.065,0.261,-5.337
0.257,0.065,0.263,-5.337
0.256,0.068,0.261,-5.337
0.198,0.069,0.259,-5.337
0.167,0.072,0.262,-5.337
0.161,0.068,0.262,-5.337
0.211,0.061,0.261,-5.337
0.216,0.060,0.259,-5.337
0.156,0.063,0.258,-5.337
0.128,0.065,0.260,-5.337
0.218,0.064,0.262,-5.337
0.248,0.067,0.264,-5.337
0.243,0.064,0.265,-5.337
0.205,0.062,0.261,-5.337
0.227,0.056,0.253,-5.337
0.202,0.061,0.255,-5.337
0.156,0.064,0.260,-5.337
0.211,0.057,0.266,-5.337
0.271,0.056,0.262,-5.337
0.206,0.057,0.259,-5.337
0.196,0.056,0.259,-5.337
0.287,0.059,0.258,-5.337
0.264,0.059,0.260,-5.337
0.164,0.062,0.266,-5.337
0.110,0.061,0.267,-5.337
0.161,0.063,0.263,-5.337
0.257,0.059,0.261,-5.337
0.288,0.056,0.263,-5.337
0.238,0.057,0.263,-5.337
0.268,0.057,0.262,-5.337
0.226,0.056,0.260,-5.337
0.222,0.052,0.259,-5.337
0.249,0.054,0.258,-5.337
0.264,0.053,0.257,-5.337
0.232,0.054,0.261,-5.337
0.187,0.055,0.261,-5.337
0.176,0.053,0.261,-5.337
0.178,0.054,0.261,-5.337
0.264,0.049,0.263,-5.337
0.308,0.050,0.260,-5.337
0.267,0.055,0.257,-5.337
0.175,0.057,0.258,-5.337
0.151,0.054,0.261,-5.337
0.216,0.050,0.263,-5.337
0.234,0.054,0.261,-5.337
0.274,0.053,0.259,-5.337
0.328,0.048,0.262,-5.337
0.298,0.049,0.264,-5.337
0.200,0.051,0.259,-5.337
0.233,0.050,0.257,-5.337
0.266,0.051,0.259,-5.337
0.204,0.053,0.262,-5.337
0.161,0.056,0.264,-5.337
0.205,0.053,0.266,-5.337
0.203,0.052,0.265,-5.337
0.227,0.052,0.266,-5.337
0.237,0.055,0.261,-5.337
0.196,0.055,0.260,-5.337
0.188,0.054,0.261,-5.337
0.226,0.054,0.264,-5.337
0.267,0.053,0.263,-5.337
0.292,0.056,0.261,-5.337
0.265,0.054,0.258,-5.337
0.303,0.054,0.254,-5.337
0.237,0.053,0.257,-5.337
0.201,0.053,0.260,-5.337
0.195,0.056,0.263,-5.337
0.237,0.053,0.263,-5.337
0.247,0.049,0.263,-5.337
0.218,0.053,0.266,-5.337
0.197,0.052,0.265,-5.337
0.185,0.053,0.263,-5.337
0.141,0.056,0.265,-5.337
0.149,0.055,0.264,-5.337
0.163,0.056,0.263,-5.337
0.177,0.053,0.261,-5.337
0.233,0.045,0.262,-5.337
0.220,0.045,0.260,-5.337
0.204,0.046,0.258,-5.337
0.226,0.046,0.253,-5.337
0.217,0.049,0.259,-5.337
0.218,0.049,0.263,-5.337
0.198,0.050,0.264,-5.337
0.199,0.050,0.260,-5.337
0.231,0.048,0.259,-5.337
0.301,0.045,0.263,-5.337
0.311,0.047,0.266,-5.337
0.249,0.050,0.264,-5.337
0.176,0.050,0.261,-5.337
0.149,0.052,0.259,-5.337
0.175,0.048,0.259,-5.337
0.150,0.050,0.261,-5.337
0.129,0.053,0.262,-5.337
0.176,0.052,0.260,-5.337
0.183,0.053,0.257,-5.337
0.154,0.053,0.258,-5.337
0.158,0.048,0.264,-5.337
0.202,0.044,0.268,-5.337
0.228,0.044,0.264,-5.337
0.226,0.042,0.266,-5.337
0.234,0.046,0.266,-5.337
0.185,0.047,0.263,-5.337
0.152,0.046,0.256,-5.337
0.204,0.044,0.256,-5.337
0.296,0.040,0.261,-5.337
0.267,0.045,0.264,-5.337
0.208,0.048,0.261,-5.337
0.188,0.048,0.262,-5.337
0.205,0.043,0.260,-5.337
0.153,0.046,0.261,-5.337
0.127,0.044,0.263,-5.337
0.218,0.042,0.261,-5.337
0.211,0.047,0.259,-5.337
0.161,0.051,0.259,-5.337
0.144,0.048,0.259,-5.337
0.129,0.043,0.256,-5.337
0.154,0.041,0.257,-5.337
0.128,0.043,0.260,-5.337
0.164,0.042,0.266,-5.337
0.287,0.041,0.269,-5.337
0.260,0.045,0.266,-5.337
0.204,0.044,0.258,-5.337
0.210,0.043,0.259,-5.337
0.260,0.043,0.262,-5.337
0.296,0.046,0.261,-5.337
0.254,0.047,0.259,-5.337
0.206,0.044,0.261,-5.337
0.198,0.043,0.263,-5.337
0.242,0.041,0.264,-5.337
0.245,0.042,0.261,-5.337
0.140,0.045,0.260,-5.337
0.184,0.042,0.261,-5.337
0.252,0.042,0.265,-5.337
0.263,0.041,0.263,-5.337
0.193,0.046,0.260,-5.337
0.138,0.049,0.258,-5.337
0.177,0.048,0.257,-5.337
0.209,0.046,0.258,-5.337
0.165,0.045,0.261,-5.337
0.160,0.043,0.261,-5.337
0.166,0.042,0.258,-5.337
0.161,0.043,0.260,-5.337
0.195,0.040,0.265,-5.337
0.286,0.038,0.269,-5.337
0.257,0.038,0.263,-5.337
0.184,0.040,0.257,-5.337
0.139,0.038,0.253,-5.337
0.180,0.040,0.253,-5.337
0.219,0.039,0.255,-5.337
0.183,0.042,0.259,-5.337
0.132,0.044,0.261,-5.337
0.146,0.041,0.264,-5.337
0.239,0.041,0.269,-5.337
0.229,0.038,0.266,-5.337
0.190,0.035,0.263,-5.337
0.199,0.035,0.261,-5.337
0.171,0.040,0.264,-5.337
0.166,0.043,0.264,-5.337
0.166,0.040,0.262,-5.337
0.125,0.037,0.260,-5.337
0.178,0.037,0.261,-5.337
0.251,0.036,0.260,-5.337
0.202,0.040,0.263,-5.337
0.113,0.043,0.260,-5.337
0.071,0.041,0.258,-5.337
0.119,0.038,0.257,-5.337
0.163,0.039,0.259,-5.337
0.173,0.039,0.258,-5.337
0.151,0.037,0.259,-5.337
0.171,0.035,0.261,-5.337
0.174,0.038,0.258,-5.337
0.187,0.039,0.259,-5.337
0.215,0.039,0.261,-5.337
0.183,0.041,0.260,-5.337
0.155,0.042,0.259,-5.337
0.181,0.041,0.259,-5.337
0.179,0.043,0.258,-5.337
0.192,0.041,0.258,-5.337
0.203,0.040,0.259,-5.337
0.180,0.036,0.264,-5.337
0.225,0.042,0.266,-5.337
0.231,0.044,0.267,-5.337
0.155,0.046,0.266,-5.337
0.097,0.046,0.263,-5.337
0.164,0.044,0.258,-5.337
0.194,0.043,0.259,-5.337
0.189,0.042,0.260,-5.337
0.200,0.045,0.260,-5.337
0.251,0.043,0.260,-5.337
0.285,0.042,0.263,-5.337
0.210,0.045,0.264,-5.337
0.157,0.046,0.264,-5.337
0.173,0.044,0.264,-5.337
0.206,0.041,0.263,-5.337
0.143,0.043,0.260,-5.337
0.158,0.042,0.260,-5.337
0.179,0.042,0.260,-5.337
0.205,0.038,0.259,-5.337
0.235,0.037,0.258,-5.337
0.180,0.040,0.257,-5.337
0.142,0.041,0.260,-5.337
0.123,0.040,0.261,-5.337
0.130,0.041,0.262,-5.337
0.146,0.041,0.260,-5.337
0.225,0.040,0.258,-5.337
0.220,0.039,0.258,-5.337
0.170,0.045,0.259,-5.337
0.178,0.043,0.257,-5.337
0.189,0.038,0.255,-5.337
0.148,0.041,0.259,-5.337
0.130,0.042,0.264,-5.337
0.215,0.039,0.267,-5.337
0.207,0.040,0.263,-5.337
0.180,0.040,0.260,-5.337
0.163,0.042,0.261,-5.337
0.156,0.042,0.258,-5.337
0.146,0.043,0.258,-5.337
0.192,0.043,0.261,-5.337
0.178,0.043,0.262,-5.337
0.142,0.043,0.260,-5.337
0.152,0.042,0.260,-5.337
0.154,0.040,0.263,-5.337
0.163,0.040,0.266,-5.337
0.187,0.045,0.268,-5.337
0.197,0.047,0.266,-5.337
0.202,0.045,0.265,-5.337
0.227,0.041,0.265,-5.337
0.278,0.038,0.263,-5.337
0.273,0.040,0.259,-5.337
0.278,0.042,0.258,-5.337
0.276,0.043,0.259,-5.337
0.219,0.041,0.263,-5.337
0.205,0.038,0.260,-5.337
0.174,0.042,0.261,-5.337
0.191,0.042,0.263,-5.337
0.217,0.040,0.265,-5.337
0.141,0.042,0.263,-5.337
0.119,0.041,0.260,-5.337
0.168,0.039,0.259,-5.337
0.162,0.042,0.262,-5.337
0.118,0.041,0.261,-5.337
0.116,0.041,0.260,-5.337
0.116,0.043,0.264,-5.337
0.122,0.040,0.267,-5.337
0.201,0.039,0.267,-5.337
0.214,0.039,0.262,-5.337
0.243,0.036,0.259,-5.337
0.222,0.037,0.257,-5.337
0.190,0.036,0.259,-5.337
0.207,0.038,0.263,-5.337
0.227,0.040,0.265,-5.337
0.219,0.039,0.264,-5.337
0.234,0.041,0.262,-5.337
0.175,0.043,0.260,-5.337
0.131,0.042,0.263,-5.337
0.157,0.038,0.266,-5.337
0.119,0.039,0.269,-5.337
0.132,0.036,0.266,-5.337
0.209,0.036,0.259,-5.337
0.161,0.041,0.255,-5.337
0.080,0.042,0.257,-5.337
0.121,0.041,0.260,-5.337
0.171,0.041,0.262,-5.337
0.197,0.042,0.263,-5.337
0.195,0.041,0.263,-5.337
0.193,0.042,0.265,-5.337
0.123,0.045,0.264,-5.337
0.062,0.049,0.261,-5.337
0.069,0.049,0.258,-5.337
0.167,0.050,0.259,-5.337
0.242,0.046,0.256,-5.337
0.284,0.042,0.256,-5.337
0.202,0.043,0.262,-5.337
0.187,0.046,0.267,-5.337
0.211,0.046,0.264,-5.337
0.190,0.047,0.261,-5.337
0.151,0.047,0.258,-5.337
0.167,0.047,0.258,-5.337
0.186,0.046,0.259,-5.337
0.183,0.051,0.257,-5.337
0.145,0.052,0.259,-5.337
0.155,0.053,0.258,-5.337
0.165,0.054,0.259,-5.337
0.196,0.049,0.260,-5.337
0.200,0.048,0.262,-5.337
0.153,0.046,0.260,-5.337
0.111,0.046,0.260,-5.337
0.185,0.044,0.261,-5.337
0.233,0.046,0.262,-5.337
0.211,0.048,0.258,-5.337
0.214,0.047,0.255,-5.337
0.246,0.047,0.255,-5.337
0.227,0.044,0.257,-5.337
0.223,0.044,0.260,-5.337
0.216,0.048,0.265,-5.337
0.199,0.051,0.265,-5.337
0.220,0.051,0.264,-5.337
0.191,0.050,0.260,-5.337
0.187,0.050,0.256,-5.337
0.178,0.054,0.261,-5.337
0.121,0.057,0.265,-5.337
0.125,0.052,0.262,-5.337
0.171,0.048,0.257,-5.337
0.219,0.043,0.257,-5.337
0.215,0.043,0.259,-5.337
0.175,0.049,0.265,-5.337
0.140,0.051,0.264,-5.337
0.151,0.048,0.261,-5.337
0.115,0.048,0.262,-5.337
0.145,0.045,0.267,-5.337
0.225,0.045,0.265,-5.337
0.204,0.046,0.263,-5.337
0.172,0.044,0.261,-5.337
0.210,0.045,0.262,-5.337
0.223,0.044,0.263,-5.337
0.275,0.042,0.261,-5.337
0.258,0.043,0.256,-5.337
0.209,0.043,0.252,-5.337
0.192,0.042,0.253,-5.337
0.181,0.044,0.261,-5.337
0.121,0.047,0.269,-5.337
0.114,0.048,0.273,-5.337
0.227,0.044,0.267,-5.337
0.274,0.043,0.259,-5.337
0.203,0.046,0.259,-5.337
0.156,0.050,0.261,-5.337
0.150,0.050,0.264,-5.337
0.213,0.045,0.263,-5.337
0.252,0.044,0.260,-5.337
0.180,0.049,0.257,-5.337
0.124,0.051,0.259,-5.337
0.192,0.048,0.263,-5.337
0.202,0.051,0.268,-5.337
0.246,0.047,0.267,-5.337
0.234,0.045,0.261,-5.337
0.190,0.047,0.254,-5.337
0.130,0.050,0.256,-5.337
0.089,0.050,0.262,-5.337
0.106,0.053,0.264,-5.337
0.210,0.053,0.264,-5.337
0.190,0.053,0.266,-5.337
0.153,0.052,0.267,-5.337
0.191,0.053,0.265,-5.337
0.190,0.054,0.260,-5.337
0.172,0.052,0.261,-5.337
0.218,0.051,0.260,-5.337
0.250,0.053,0.260,-5.337
0.266,0.051,0.259,-5.337
0.243,0.049,0.258,-5.337
0.214,0.048,0.258,-5.337
0.203,0.051,0.259,-5.337
0.197,0.051,0.262,-5.337
0.144,0.055,0.262,-5.337
0.093,0.052,0.261,-5.337
0.127,0.052,0.259,-5.337
0.143,0.053,0.260,-5.337
0.175,0.052,0.263,-5.337
0.220,0.050,0.264,-5.337
0.180,0.050,0.262,-5.337
0.185,0.052,0.264,-5.337
0.201,0.051,0.265,-5.337
0.239,0.049,0.261,-5.337
0.251,0.053,0.257,-5.337
0.193,0.055,0.259,-5.337
0.209,0.052,0.263,-5.337
0.251,0.051,0.265,-5.337
0.262,0.050,0.266,-5.337
0.289,0.053,0.264,-5.337
0.290,0.055,0.261,-5.337
0.258,0.053,0.256,-5.337
0.225,0.052,0.259,-5.337
0.174,0.055,0.260,-5.337
0.165,0.055,0.258,-5.337
0.182,0.054,0.256,-5.337
0.228,0.054,0.257,-5.337
0.242,0.054,0.259,-5.337
0.167,0.056,0.262,-5.337
0.192,0.053,0.261,-5.337
0.201,0.054,0.261,-5.337
0.180,0.055,0.260,-5.337
0.186,0.055,0.262,-5.337
0.172,0.053,0.259,-5.337
0.128,0.055,0.258,-5.337
0.125,0.060,0.260,-5.337
0.183,0.061,0.258,-5.337
0.206,0.059,0.256,-5.337
0.207,0.057,0.258,-5.337
0.241,0.054,0.262,-5.337
0.335,0.055,0.264,-5.337
0.279,0.052,0.265,-5.337
0.199,0.052,0.260,-5.337
0.187,0.054,0.260,-5.337
0.173,0.055,0.261,-5.337
0.146,0.057,0.264,-5.337
0.218,0.056,0.264,-5.337
0.217,0.055,0.263,-5.337
0.173,0.052,0.258,-5.337
0.203,0.054,0.257,-5.337
0.179,0.055,0.256,-5.337
0.224,0.054,0.254,-5.337
0.265,0.054,0.260,-5.337
0.237,0.057,0.265,-5.337
0.208,0.057,0.262,-5.337
0.223,0.058,0.261,-5.337
0.192,0.059,0.261,-5.337
0.188,0.056,0.259,-5.337
0.162,0.059,0.260,-5.337
0.169,0.062,0.260,-5.337
0.157,0.061,0.259,-5.337
0.192,0.062,0.258,-5.337
0.211,0.061,0.263,-5.337
0.237,0.059,0.262,-5.337
0.190,0.061,0.260,-5.337
0.188,0.058,0.260,-5.337
0.222,0.057,0.261,-5.337
0.247,0.057,0.261,-5.337
0.217,0.056,0.262,-5.337
0.174,0.055,0.266,-5.337
0.118,0.058,0.264,-5.337
0.163,0.057,0.263,-5.337
0.235,0.060,0.262,-5.337
0.315,0.059,0.261,-5.337
0.286,0.059,0.259,-5.337
0.246,0.060,0.258,-5.337
0.271,0.057,0.259,-5.337
0.282,0.055,0.262,-5.337
0.302,0.059,0.262,-5.337
0.279,0.060,0.258,-5.337
0.237,0.061,0.256,-5.337
0.236,0.060,0.256,-5.337
0.183,0.062,0.253,-5.337
0.196,0.056,0.259,-5.337
0.261,0.056,0.259,-5.337
0.250,0.060,0.258,-5.337
0.265,0.062,0.259,-5.337
0.237,0.063,0.262,-5.337
0.237,0.060,0.265,-5.337
0.266,0.058,0.263,-5.337
0.236,0.059,0.260,-5.337
0.263,0.059,0.260,-5.337
0.240,0.057,0.259,-5.337
0.183,0.058,0.259,-5.337
0.186,0.060,0.259,-5.337
0.179,0.058,0.261,-5.337
0.165,0.059,0.260,-5.337
0.166,0.058,0.259,-5.337
0.249,0.056,0.258,-5.337
0.220,0.059,0.261,-5.337
0.169,0.060,0.266,-5.337
0.186,0.057,0.267,-5.337
0.271,0.053,0.264,-5.337
0.272,0.054,0.258,-5.337
0.240,0.056,0.259,-5.337
0.285,0.056,0.262,-5.337
0.309,0.057,0.261,-5.337
0.248,0.059,0.260,-5.337
0.287,0.057,0.258,-5.337
0.345,0.056,0.256,-5.337
0.283,0.060,0.257,-5.337
0.225,0.058,0.257,-5.337
0.236,0.057,0.258,-5.337
0.258,0.056,0.261,-5.337
0.253,0.056,0.265,-5.337
0.275,0.054,0.261,-5.337
0.277,0.058,0.258,-5.337
0.228,0.063,0.261,-5.337
0.209,0.068,0.263,-5.337
0.164,0.067,0.258,-5.337
0.222,0.066,0.255,-5.337
0.226,0.067,0.260,-5.337
0.224,0.067,0.260,-5.337
0.244,0.063,0.259,-5.337
0.235,0.066,0.258,-5.337
0.217,0.070,0.261,-5.337
0.220,0.067,0.263,-5.337
0.206,0.065,0.265,-5.337
0.223,0.066,0.262,-5.337
0.219,0.070,0.258,-5.337
0.259,0.063,0.256,-5.337
0.279,0.060,0.260,-5.337
0.225,0.059,0.262,-5.337
0.208,0.060,0.264,-5.337
0.260,0.057,0.266,-5.337
0.310,0.059,0.264,-5.337
0.256,0.059,0.258,-5.337
0.233,0.056,0.258,-5.337
0.241,0.055,0.262,-5.337
0.284,0.057,0.263,-5.337
0.261,0.059,0.261,-5.337
0.230,0.061,0.261,-5.337
0.215,0.056,0.265,-5.337
0.204,0.058,0.267,-5.337
0.211,0.061,0.267,-5.337
0.290,0.058,0.263,-5.337
0.258,0.060,0.260,-5.337
0.181,0.062,0.260,-5.337
0.216,0.062,0.261,-5.337
0.287,0.059,0.261,-5.337
0.292,0.057,0.260,-5.337
0.293,0.056,0.258,-5.337
0.267,0.062,0.256,-5.337
0.275,0.064,0.254,-5.337
0.287,0.064,0.258,-5.337
0.244,0.064,0.263,-5.337
0.204,0.063,0.267,-5.337
0.205,0.061,0.267,-5.337
0.232,0.063,0.262,-5.337
0.107,0.066,0.259,-5.337
0.047,0.063,0.263,-5.337
0.156,0.059,0.266,-5.337
0.244,0.059,0.267,-5.337
0.233,0.061,0.266,-5.337
0.220,0.063,0.261,-5.337
0.192,0.064,0.255,-5.337
0.207,0.063,0.255,-5.337
0.233,0.062,0.261,-5.337
0.267,0.061,0.263,-5.337
0.261,0.061,0.266,-5.337
0.269,0.060,0.267,-5.337
0.207,0.066,0.265,-5.337
0.241,0.065,0.260,-5.337
0.293,0.062,0.263,-5.337
0.206,0.060,0.265,-5.337
0.162,0.058,0.263,-5.337
0.208,0.054,0.262,-5.337
0.247,0.057,0.264,-5.337
0.202,0.060,0.263,-5.337
0.182,0.060,0.262,-5.337
0.185,0.058,0.258,-5.337
0.194,0.055,0.254,-5.337
0.191,0.055,0.255,-5.337
0.241,0.056,0.259,-5.337
0.330,0.054,0.264,-5.337
0.294,0.053,0.268,-5.337
0.260,0.055,0.267,-5.337
0.216,0.056,0.262,-5.337
0.228,0.052,0.261,-5.337
0.321,0.054,0.259,-5.337
0.297,0.056,0.261,-5.337
0.265,0.052,0.258,-5.337
0.302,0.050,0.258,-5.337
0.211,0.053,0.258,-5.337
0.222,0.052,0.260,-5.337
0.232,0.051,0.260,-5.337
0.176,0.054,0.259,-5.337
0.175,0.054,0.257,-5.337
0.211,0.055,0.257,-5.337
0.174,0.057,0.262,-5.337
0.091,0.057,0.265,-5.337
0.142,0.056,0.266,-5.337
0.217,0.057,0.265,-5.337
0.275,0.057,0.258,-5.337
0.209,0.054,0.254,-5.337
0.179,0.056,0.255,-5.337
0.224,0.056,0.253,-5.337
0.232,0.055,0.255,-5.337
0.223,0.056,0.260,-5.337
0.232,0.057,0.261,-5.337
0.246,0.057,0.259,-5.337
0.277,0.055,0.261,-5.337
0.227,0.053,0.262,-5.337
0.203,0.057,0.262,-5.337
0.254,0.056,0.261,-5.337
0.289,0.054,0.260,-5.337
0.273,0.053,0.262,-5.337
0.186,0.052,0.263,-5.337
0.141,0.050,0.264,-5.337
0.236,0.047,0.261,-5.337
0.158,0.051,0.257,-5.337
0.156,0.050,0.258,-5.337
0.252,0.050,0.261,-5.337
0.275,0.051,0.258,-5.337
0.223,0.053,0.259,-5.337
0.141,0.050,0.262,-5.337
0.223,0.045,0.261,-5.337
0.235,0.048,0.259,-5.337
0.183,0.049,0.260,-5.337
0.213,0.050,0.264,-5.337
0.244,0.051,0.265,-5.337
0.241,0.048,0.263,-5.337
0.226,0.049,0.261,-5.337
0.192,0.046,0.260,-5.337
0.247,0.051,0.261,-5.337
0.263,0.049,0.264,-5.337
0.267,0.048,0.264,-5.337
0.237,0.050,0.264,-5.337
0.185,0.051,0.263,-5.337
0.192,0.045,0.261,-5.337
0.208,0.043,0.258,-5.337
0.242,0.047,0.253,-5.337
0.187,0.052,0.255,-5.337
0.179,0.052,0.255,-5.337
0.193,0.050,0.258,-5.337
0.184,0.048,0.262,-5.337
0.217,0.052,0.269,-5.337
0.221,0.051,0.273,-5.337
0.173,0.050,0.268,-5.337
0.183,0.051,0.264,-5.337
0.234,0.050,0.261,-5.337
0.223,0.047,0.259,-5.337
0.252,0.045,0.259,-5.337
0.257,0.048,0.261,-5.337
0.216,0.050,0.259,-5.337
0.150,0.051,0.259,-5.337
0.141,0.052,0.259,-5.337
0.141,0.053,0.257,-5.337
0.174,0.052,0.260,-5.337
0.224,0.051,0.264,-5.337
0.209,0.050,0.269,-5.337
0.169,0.053,0.269,-5.337
0.186,0.051,0.261,-5.337
0.250,0.050,0.254,-5.337
0.283,0.049,0.254,-5.337
0.249,0.051,0.259,-5.337
0.201,0.053,0.265,-5.337
0.211,0.052,0.263,-5.337
0.169,0.047,0.258,-5.337
0.175,0.046,0.256,-5.337
0.260,0.046,0.260,-5.337
0.238,0.045,0.262,-5.337
0.206,0.049,0.263,-5.337
0.178,0.051,0.265,-5.337
0.217,0.048,0.264,-5.337
0.277,0.046,0.260,-5.337
0.251,0.047,0.258,-5.337
0.155,0.048,0.258,-5.337
0.158,0.048,0.260,-5.337
0.179,0.050,0.263,-5.337
0.237,0.048,0.263,-5.337
0.270,0.044,0.259,-5.337
0.154,0.053,0.260,-5.337
0.084,0.052,0.265,-5.337
0.151,0.050,0.266,-5.337
0.126,0.049,0.261,-5.337
0.151,0.051,0.259,-5.337
0.252,0.044,0.261,-5.337
0.225,0.045,0.258,-5.337
0.126,0.044,0.255,-5.337
0.166,0.043,0.259,-5.337
0.185,0.042,0.258,-5.337
0.232,0.041,0.260,-5.337
0.334,0.041,0.263,-5.337
0.267,0.044,0.260,-5.337
0.115,0.046,0.256,-5.337
0.037,0.047,0.256,-5.337
0.135,0.049,0.263,-5.337
0.174,0.047,0.264,-5.337
0.179,0.047,0.259,-5.337
0.182,0.048,0.256,-5.337
0.189,0.046,0.259,-5.337
0.160,0.044,0.261,-5.337
0.130,0.045,0.261,-5.337
0.211,0.047,0.264,-5.337
0.280,0.048,0.262,-5.337
0.275,0.047,0.262,-5.337
0.208,0.048,0.263,-5.337
0.132,0.049,0.262,-5.337
0.172,0.047,0.260,-5.337
0.198,0.048,0.258,-5.337
0.117,0.048,0.258,-5.337
0.084,0.048,0.263,-5.337
0.106,0.047,0.262,-5.337
0.230,0.047,0.258,-5.337
0.246,0.046,0.257,-5.337
0.236,0.042,0.256,-5.337
0.276,0.042,0.254,-5.337
0.241,0.045,0.253,-5.337
0.221,0.044,0.257,-5.337
0.221,0.041,0.264,-5.337
0.275,0.037,0.264,-5.337
0.276,0.040,0.258,-5.337
0.267,0.041,0.255,-5.337
0.286,0.041,0.258,-5.337
0.272,0.043,0.259,-5.337
0.185,0.045,0.261,-5.337
0.094,0.042,0.262,-5.337
0.103,0.044,0.260,-5.337
0.170,0.044,0.256,-5.337
0.183,0.044,0.258,-5.337
0.124,0.046,0.264,-5.337
0.084,0.047,0.265,-5.337
0.208,0.039,0.265,-5.337
0.236,0.038,0.261,-5.337
0.224,0.043,0.260,-5.337
0.191,0.043,0.256,-5.337
0.245,0.039,0.255,-5.337
0.302,0.038,0.256,-5.337
0.317,0.039,0.261,-5.337
0.293,0.036,0.268,-5.337
0.196,0.039,0.269,-5.337
0.173,0.042,0.264,-5.337
0.198,0.043,0.261,-5.337
0.224,0.043,0.262,-5.337
0.180,0.044,0.261,-5.337
0.110,0.041,0.256,-5.337
0.106,0.046,0.253,-5.337
0.071,0.047,0.255,-5.337
0.090,0.043,0.260,-5.337
0.119,0.042,0.260,-5.337
0.168,0.041,0.259,-5.337
0.206,0.043,0.255,-5.337
0.151,0.045,0.255,-5.337
0.159,0.044,0.259,-5.337
0.166,0.043,0.260,-5.337
0.172,0.042,0.257,-5.337
0.184,0.043,0.258,-5.337
0.182,0.045,0.261,-5.337
0.194,0.041,0.261,-5.337
0.261,0.037,0.263,-5.337
0.251,0.036,0.261,-5.337
0.224,0.039,0.258,-5.337
0.143,0.042,0.262,-5.337
0.119,0.040,0.269,-5.337
0.143,0.041,0.266,-5.337
0.174,0.044,0.261,-5.337
0.181,0.043,0.253,-5.337
0.145,0.045,0.252,-5.337
0.189,0.041,0.253,-5.337
0.276,0.039,0.255,-5.337
0.240,0.042,0.257,-5.337
0.157,0.044,0.259,-5.337
0.207,0.040,0.262,-5.337
0.222,0.041,0.261,-5.337
0.257,0.042,0.262,-5.337
0.217,0.043,0.261,-5.337
0.180,0.044,0.257,-5.337
0.108,0.046,0.255,-5.337
0.107,0.047,0.262,-5.337
0.149,0.045,0.265,-5.337
0.177,0.044,0.264,-5.337
0.154,0.044,0.261,-5.337
0.198,0.047,0.259,-5.337
0.259,0.042,0.260,-5.337
0.255,0.041,0.261,-5.337
0.269,0.037,0.260,-5.337
0.251,0.036,0.260,-5.337
0.188,0.036,0.256,-5.337
0.136,0.038,0.256,-5.337
0.114,0.041,0.258,-5.337
0.116,0.042,0.256,-5.337
0.099,0.043,0.253,-5.337
0.126,0.045,0.256,-5.337
0.188,0.044,0.258,-5.337
0.125,0.045,0.258,-5.337
0.123,0.043,0.258,-5.337
0.196,0.040,0.262,-5.337
0.233,0.038,0.265,-5.337
0.188,0.039,0.261,-5.337
0.147,0.040,0.261,-5.337
0.149,0.041,0.264,-5.337
0.174,0.042,0.262,-5.337
0.203,0.042,0.256,-5.337
0.246,0.041,0.253,-5.337
0.228,0.041,0.257,-5.337
0.188,0.042,0.263,-5.337
0.211,0.046,0.264,-5.337
0.202,0.045,0.259,-5.337
0.220,0.040,0.256,-5.337
0.240,0.039,0.256,-5.337
0.196,0.041,0.256,-5.337
0.169,0.043,0.259,-5.337
0.155,0.046,0.260,-5.337
0.105,0.049,0.259,-5.337
0.140,0.046,0.260,-5.337
0.179,0.041,0.264,-5.337
0.239,0.039,0.268,-5.337
0.179,0.043,0.265,-5.337
0.103,0.043,0.264,-5.337
0.171,0.040,0.261,-5.337
0.304,0.038,0.259,-5.337
0.290,0.038,0.258,-5.337
0.216,0.040,0.264,-5.337
0.172,0.037,0.265,-5.337
0.172,0.040,0.264,-5.337
0.086,0.043,0.261,-5.337
0.033,0.045,0.259,-5.337
0.103,0.041,0.259,-5.337
0.199,0.038,0.257,-5.337
0.217,0.039,0.257,-5.337
0.231,0.039,0.258,-5.337
0.299,0.038,0.257,-5.337
0.283,0.042,0.260,-5.337
0.259,0.046,0.264,-5.337
0.249,0.044,0.265,-5.337
0.234,0.043,0.266,-5.337
0.256,0.040,0.266,-5.337
0.233,0.041,0.265,-5.337
0.184,0.046,0.265,-5.337
0.171,0.044,0.262,-5.337
0.206,0.044,0.256,-5.337
0.210,0.045,0.259,-5.337
0.241,0.041,0.262,-5.337
0.295,0.042,0.265,-5.337
0.257,0.045,0.262,-5.337
0.190,0.045,0.257,-5.337
0.195,0.041,0.253,-5.337
0.167,0.046,0.254,-5.337
0.169,0.047,0.258,-5.337
0.190,0.047,0.261,-5.337
0.200,0.046,0.262,-5.337
0.189,0.045,0.263,-5.337
0.195,0.049,0.261,-5.337
0.232,0.049,0.259,-5.337
0.177,0.051,0.261,-5.337
0.081,0.053,0.264,-5.337
0.113,0.052,0.262,-5.337
0.168,0.050,0.259,-5.337
0.196,0.047,0.260,-5.337
0.241,0.044,0.259,-5.337
0.259,0.045,0.260,-5.337
0.243,0.047,0.258,-5.337
0.217,0.049,0.255,-5.337
0.223,0.047,0.255,-5.337
0.189,0.051,0.260,-5.337
0.143,0.046,0.263,-5.337
0.176,0.050,0.262,-5.337
0.174,0.049,0.261,-5.337
0.164,0.049,0.261,-5.337
0.156,0.046,0.259,-5.337
0.158,0.048,0.259,-5.337
0.168,0.050,0.265,-5.337
0.233,0.047,0.268,-5.337
0.255,0.048,0.265,-5.337
0.185,0.051,0.263,-5.337
0.169,0.050,0.263,-5.337
0.174,0.051,0.261,-5.337
0.189,0.053,0.257,-5.337
0.166,0.056,0.252,-5.337
0.177,0.057,0.252,-5.337
0.257,0.054,0.252,-5.337
0.208,0.052,0.258,-5.337
0.146,0.052,0.263,-5.337
0.154,0.052,0.264,-5.337
0.151,0.053,0.260,-5.337
0.169,0.058,0.260,-5.337
0.160,0.056,0.263,-5.337
0.204,0.054,0.263,-5.337
0.190,0.054,0.262,-5.337
0.188,0.057,0.262,-5.337
0.244,0.057,0.260,-5.337
0.248,0.060,0.260,-5.337
0.258,0.058,0.260,-5.337
0.235,0.056,0.259,-5.337
0.185,0.058,0.260,-5.337
0.164,0.059,0.261,-5.337
0.167,0.059,0.262,-5.337
0.148,0.054,0.262,-5.337
0.198,0.051,0.259,-5.337
0.229,0.051,0.256,-5.337
0.246,0.050,0.257,-5.337
0.217,0.051,0.260,-5.337
0.247,0.051,0.267,-5.337
0.242,0.054,0.268,-5.337
0.190,0.053,0.263,-5.337
0.149,0.052,0.258,-5.337
0.120,0.059,0.257,-5.337
0.153,0.060,0.255,-5.337
0.219,0.057,0.257,-5.337
0.193,0.058,0.263,-5.337
0.130,0.061,0.266,-5.337
0.118,0.060,0.266,-5.337
0.184,0.060,0.264,-5.337
0.119,0.058,0.264,-5.337
0.147,0.056,0.264,-5.337
0.212,0.059,0.265,-5.337
0.231,0.057,0.264,-5.337
0.258,0.056,0.260,-5.337
0.316,0.052,0.257,-5.337
0.320,0.056,0.264,-5.337
0.261,0.056,0.268,-5.337
0.270,0.057,0.269,-5.337
0.232,0.057,0.259,-5.337
0.230,0.057,0.255,-5.337
0.278,0.058,0.256,-5.337
0.268,0.059,0.261,-5.337
0.233,0.058,0.261,-5.337
0.140,0.059,0.261,-5.337
0.164,0.056,0.260,-5.337
0.270,0.057,0.260,-5.337
0.295,0.058,0.257,-5.337
0.241,0.060,0.258,-5.337
0.149,0.061,0.261,-5.337
0.110,0.061,0.263,-5.337
0.104,0.059,0.260,-5.337
0.217,0.054,0.260,-5.337
0.313,0.052,0.262,-5.337
0.316,0.055,0.263,-5.337
0.269,0.056,0.262,-5.337
0.254,0.058,0.263,-5.337
0.226,0.057,0.264,-5.337
0.268,0.055,0.260,-5.337
0.257,0.060,0.260,-5.337
0.176,0.062,0.264,-5.337
0.196,0.058,0.264,-5.337
0.262,0.056,0.260,-5.337
0.238,0.058,0.258,-5.337
0.169,0.059,0.256,-5.337
0.213,0.059,0.257,-5.337
0.237,0.059,0.260,-5.337
0.191,0.060,0.260,-5.337
0.164,0.059,0.256,-5.337
0.191,0.059,0.256,-5.337
0.151,0.060,0.262,-5.337
0.140,0.059,0.262,-5.337
0.247,0.055,0.258,-5.337
0.258,0.054,0.258,-5.337
0.214,0.058,0.260,-5.337
0.170,0.059,0.261,-5.337
0.173,0.058,0.263,-5.337
0.217,0.059,0.261,-5.337
0.243,0.057,0.260,-5.337
0.250,0.060,0.261,-5.337
0.231,0.063,0.264,-5.337
0.218,0.063,0.262,-5.337
0.254,0.067,0.258,-5.337
0.280,0.067,0.257,-5.337
0.279,0.067,0.256,-5.337
0.261,0.063,0.254,-5.337
0.264,0.061,0.254,-5.337
0.274,0.062,0.256,-5.337
0.296,0.063,0.256,-5.337
0.186,0.065,0.260,-5.337
0.145,0.066,0.263,-5.337
0.111,0.063,0.262,-5.337
0.150,0.064,0.262,-5.337
0.220,0.063,0.261,-5.337
0.243,0.063,0.261,-5.337
0.184,0.066,0.260,-5.337
0.235,0.067,0.260,-5.337
0.289,0.064,0.261,-5.337
0.281,0.068,0.262,-5.337
0.248,0.070,0.261,-5.337
0.186,0.070,0.262,-5.337
0.196,0.064,0.263,-5.337
0.277,0.058,0.261,-5.337
0.292,0.063,0.258,-5.337
0.232,0.060,0.257,-5.337
0.243,0.062,0.261,-5.337
0.210,0.064,0.260,-5.337
0.191,0.061,0.257,-5.337
0.233,0.059,0.257,-5.337
0.291,0.058,0.257,-5.337
0.329,0.056,0.257,-5.337
0.337,0.056,0.258,-5.337
0.362,0.057,0.262,-5.337
0.325,0.060,0.267,-5.337
0.244,0.062,0.267,-5.337
0.240,0.066,0.263,-5.337
0.237,0.065,0.258,-5.337
0.184,0.067,0.251,-5.337
0.256,0.065,0.255,-5.337
0.292,0.065,0.262,-5.337
0.295,0.063,0.265,-5.337
0.320,0.059,0.260,-5.337
0.265,0.065,0.255,-5.337
0.162,0.068,0.255,-5.337
0.174,0.066,0.260,-5.337
0.212,0.067,0.262,-5.337
0.212,0.068,0.263,-5.337
0.189,0.064,0.261,-5.337
0.107,0.064,0.257,-5.337
0.117,0.062,0.254,-5.337
0.167,0.067,0.255,-5.337
0.216,0.067,0.258,-5.337
0.232,0.067,0.259,-5.337
0.209,0.067,0.258,-5.337
0.249,0.065,0.258,-5.337
0.259,0.063,0.259,-5.337
0.261,0.062,0.258,-5.337
0.287,0.064,0.261,-5.337
0.279,0.065,0.264,-5.337
0.287,0.064,0.262,-5.337
0.271,0.060,0.256,-5.337
0.250,0.059,0.253,-5.337
0.236,0.063,0.255,-5.337
0.278,0.064,0.261,-5.337
0.280,0.063,0.264,-5.337
0.245,0.062,0.265,-5.337
0.286,0.059,0.259,-5.337
0.341,0.057,0.258,-5.337
0.302,0.058,0.261,-5.337
0.256,0.062,0.264,-5.337
0.242,0.066,0.262,-5.337
0.161,0.065,0.261,-5.337
0.199,0.063,0.263,-5.337
0.254,0.065,0.265,-5.337
0.200,0.066,0.264,-5.337
0.207,0.065,0.262,-5.337
0.203,0.063,0.258,-5.337
0.219,0.063,0.258,-5.337
0.225,0.066,0.258,-5.337
0.140,0.069,0.257,-5.337
0.116,0.069,0.256,-5.337
0.200,0.067,0.252,-5.337
0.259,0.062,0.251,-5.337
0.269,0.060,0.253,-5.337
0.245,0.063,0.258,-5.337
0.201,0.064,0.260,-5.337
0.232,0.063,0.261,-5.337
0.251,0.064,0.260,-5.337
0.249,0.066,0.259,-5.337
0.169,0.066,0.263,-5.337
0.129,0.067,0.263,-5.337
0.157,0.063,0.263,-5.337
0.169,0.065,0.260,-5.337
0.163,0.064,0.259,-5.337
0.207,0.063,0.260,-5.337
0.264,0.063,0.259,-5.337
0.243,0.066,0.261,-5.337
0.228,0.065,0.261,-5.337
0.264,0.061,0.258,-5.337
0.273,0.062,0.257,-5.337
0.294,0.063,0.258,-5.337
0.288,0.064,0.262,-5.337
0.230,0.063,0.261,-5.337
0.186,0.060,0.260,-5.337
0.173,0.063,0.259,-5.337
0.153,0.064,0.263,-5.337
0.148,0.062,0.265,-5.337
0.125,0.062,0.263,-5.337
0.180,0.061,0.258,-5.337
0.249,0.062,0.256,-5.337
0.215,0.061,0.255,-5.337
0.205,0.060,0.254,-5.337
0.278,0.057,0.253,-5.337
0.281,0.058,0.258,-5.337
0.315,0.054,0.266,-5.337
0.253,0.053,0.267,-5.337
0.252,0.053,0.263,-5.337
0.319,0.052,0.261,-5.337
0.311,0.057,0.262,-5.337
0.270,0.058,0.265,-5.337
0.266,0.055,0.263,-5.337
0.220,0.054,0.263,-5.337
0.134,0.056,0.263,-5.337
0.172,0.057,0.263,-5.337
0.251,0.053,0.261,-5.337
0.231,0.052,0.255,-5.337
0.242,0.052,0.257,-5.337
0.222,0.050,0.261,-5.337
0.160,0.052,0.264,-5.337
0.176,0.051,0.259,-5.337
0.202,0.053,0.259,-5.337
0.187,0.053,0.260,-5.337
0.215,0.051,0.259,-5.337
0.279,0.048,0.258,-5.337
0.295,0.050,0.258,-5.337
0.286,0.052,0.262,-5.337
0.231,0.056,0.266,-5.337
0.208,0.059,0.266,-5.337
0.208,0.055,0.263,-5.337
0.250,0.053,0.262,-5.337
0.180,0.059,0.261,-5.337
0.129,0.060,0.260,-5.337
0.186,0.056,0.261,-5.337
0.236,0.054,0.263,-5.337
0.197,0.056,0.263,-5.337
0.230,0.054,0.261,-5.337
0.295,0.049,0.258,-5.337
0.260,0.049,0.263,-5.337
0.210,0.053,0.263,-5.337
0.134,0.054,0.256,-5.337
0.137,0.053,0.256,-5.337
0.214,0.052,0.262,-5.337
0.250,0.053,0.264,-5.337
0.143,0.058,0.262,-5.337
0.090,0.054,0.258,-5.337
0.202,0.049,0.257,-5.337
0.241,0.046,0.257,-5.337
0.224,0.048,0.257,-5.337
0.208,0.051,0.260,-5.337
0.210,0.053,0.264,-5.337
0.239,0.052,0.261,-5.337
0.208,0.051,0.257,-5.337
0.231,0.049,0.258,-5.337
0.263,0.048,0.258,-5.337
0.206,0.050,0.262,-5.337
0.196,0.049,0.260,-5.337
0.186,0.050,0.261,-5.337
0.217,0.047,0.257,-5.337
0.205,0.047,0.256,-5.337
0.208,0.047,0.258,-5.337
0.130,0.054,0.263,-5.337
0.136,0.052,0.262,-5.337
0.200,0.049,0.259,-5.337
0.234,0.047,0.257,-5.337
0.292,0.045,0.257,-5.337
0.274,0.042,0.259,-5.337
0.217,0.043,0.263,-5.337
0.223,0.043,0.265,-5.337
0.204,0.045,0.267,-5.337
0.238,0.045,0.265,-5.337
0.279,0.043,0.263,-5.337
0.227,0.045,0.264,-5.337
0.200,0.044,0.264,-5.337
0.246,0.043,0.260,-5.337
0.212,0.050,0.255,-5.337
0.179,0.050,0.255,-5.337
0.167,0.047,0.254,-5.337
0.222,0.045,0.257,-5.337
0.273,0.041,0.257,-5.337
0.266,0.042,0.260,-5.337
0.271,0.042,0.261,-5.337
0.251,0.045,0.262,-5.337
0.240,0.043,0.259,-5.337
0.252,0.043,0.257,-5.337
0.253,0.038,0.255,-5.337
0.250,0.035,0.257,-5.337
0.183,0.036,0.259,-5.337
0.169,0.040,0.263,-5.337
0.191,0.038,0.265,-5.337
0.140,0.042,0.263,-5.337
0.071,0.043,0.260,-5.337
0.146,0.040,0.258,-5.337
0.188,0.039,0.255,-5.337
0.121,0.040,0.257,-5.337
0.154,0.040,0.260,-5.337
0.250,0.040,0.263,-5.337
0.252,0.040,0.263,-5.337
0.236,0.040,0.258,-5.337
0.245,0.042,0.258,-5.337
0.222,0.042,0.258,-5.337
0.136,0.042,0.260,-5.337
0.059,0.042,0.259,-5.337
0.098,0.042,0.262,-5.337
0.238,0.040,0.260,-5.337
0.291,0.042,0.257,-5.337
0.269,0.040,0.259,-5.337
0.192,0.043,0.263,-5.337
0.131,0.042,0.261,-5.337
0.167,0.039,0.260,-5.337
0.151,0.038,0.258,-5.337
0.172,0.039,0.257,-5.337
0.222,0.038,0.257,-5.337
0.227,0.037,0.258,-5.337
0.188,0.039,0.260,-5.337
0.218,0.041,0.261,-5.337
0.249,0.038,0.262,-5.337
0.230,0.036,0.264,-5.337
0.210,0.037,0.265,-5.337
0.273,0.033,0.263,-5.337
0.289,0.036,0.265,-5.337
0.266,0.040,0.263,-5.337
0.253,0.040,0.260,-5.337
0.204,0.039,0.258,-5.337
0.146,0.042,0.261,-5.337
0.167,0.040,0.261,-5.337
0.203,0.041,0.261,-5.337
0.224,0.041,0.263,-5.337
0.221,0.039,0.264,-5.337
0.208,0.040,0.261,-5.337
0.179,0.044,0.258,-5.337
0.160,0.042,0.257,-5.337
0.167,0.042,0.259,-5.337
0.178,0.041,0.261,-5.337
0.192,0.038,0.265,-5.337
0.170,0.036,0.266,-5.337
0.125,0.041,0.264,-5.337
0.015,0.045,0.261,-5.337
0.097,0.047,0.257,-5.337
0.189,0.046,0.255,-5.337
0.198,0.043,0.258,-5.337
0.190,0.046,0.266,-5.337
0.130,0.047,0.266,-5.337
0.143,0.046,0.266,-5.337
0.148,0.041,0.266,-5.337
0.174,0.043,0.263,-5.337
0.102,0.052,0.260,-5.337
0.114,0.048,0.258,-5.337
0.138,0.043,0.253,-5.337
0.186,0.040,0.253,-5.337
0.181,0.043,0.255,-5.337
0.143,0.046,0.256,-5.337
0.152,0.045,0.258,-5.337
0.208,0.042,0.259,-5.337
0.199,0.040,0.259,-5.337
0.222,0.039,0.259,-5.337
0.286,0.039,0.259,-5.337
0.225,0.044,0.261,-5.337
0.154,0.044,0.261,-5.337
0.215,0.039,0.259,-5.337
0.212,0.039,0.262,-5.337
0.197,0.039,0.265,-5.337
0.203,0.038,0.267,-5.337
0.221,0.040,0.261,-5.337
0.181,0.041,0.260,-5.337
0.178,0.039,0.258,-5.337
0.192,0.038,0.259,-5.337
0.211,0.039,0.259,-5.337
0.236,0.038,0.261,-5.337
0.180,0.035,0.261,-5.337
0.125,0.038,0.263,-5.337
0.195,0.037,0.261,-5.337
0.260,0.038,0.259,-5.337
0.202,0.042,0.258,-5.337
0.160,0.040,0.257,-5.337
0.158,0.036,0.255,-5.337
0.170,0.036,0.252,-5.337
0.177,0.036,0.253,-5.337
0.155,0.040,0.257,-5.337
0.115,0.039,0.260,-5.337
0.117,0.036,0.264,-5.337
0.193,0.035,0.266,-5.337
0.228,0.039,0.262,-5.337
0.145,0.040,0.259,-5.337
0.105,0.039,0.257,-5.337
0.099,0.039,0.259,-5.337
0.123,0.041,0.256,-5.337
0.137,0.042,0.254,-5.337
0.215,0.038,0.254,-5.337
0.253,0.038,0.259,-5.337
0.257,0.038,0.265,-5.337
0.263,0.040,0.264,-5.337
0.252,0.040,0.260,-5.337
0.202,0.037,0.255,-5.337
0.139,0.038,0.253,-5.337
0.075,0.042,0.256,-5.337
0.118,0.040,0.258,-5.337
0.247,0.040,0.255,-5.337
0.247,0.043,0.259,-5.337
0.143,0.042,0.263,-5.337
0.176,0.041,0.262,-5.337
0.218,0.042,0.257,-5.337
0.189,0.043,0.258,-5.337
0.132,0.044,0.262,-5.337
0.096,0.040,0.262,-5.337
0.147,0.037,0.259,-5.337
0.159,0.039,0.255,-5.337
0.179,0.036,0.253,-5.337
0.205,0.034,0.256,-5.337
0.166,0.037,0.259,-5.337
0.164,0.039,0.263,-5.337
0.204,0.037,0.261,-5.337
0.232,0.038,0.260,-5.337
0.200,0.034,0.258,-5.337
0.061,0.042,0.259,-5.337
0.017,0.044,0.260,-5.337
0.162,0.040,0.259,-5.337
0.227,0.038,0.254,-5.337
0.253,0.038,0.255,-5.337
0.188,0.040,0.259,-5.337
0.209,0.036,0.258,-5.337
0.285,0.037,0.257,-5.337
0.333,0.035,0.257,-5.337
0.254,0.037,0.260,-5.337
0.183,0.036,0.260,-5.337
0.161,0.038,0.263,-5.337
0.235,0.040,0.258,-5.337
0.258,0.042,0.256,-5.337
0.224,0.040,0.256,-5.337
0.170,0.036,0.258,-5.337
0.173,0.032,0.259,-5.337
0.159,0.038,0.256,-5.337
0.174,0.037,0.255,-5.337
0.193,0.039,0.259,-5.337
0.166,0.039,0.263,-5.337
0.153,0.037,0.264,-5.337
0.119,0.039,0.259,-5.337
0.101,0.040,0.256,-5.337
0.178,0.038,0.256,-5.337
0.205,0.036,0.260,-5.337
0.148,0.040,0.261,-5.337
0.104,0.044,0.259,-5.337
0.145,0.040,0.256,-5.337
0.204,0.037,0.254,-5.337
0.138,0.040,0.259,-5.337
0.124,0.041,0.260,-5.337
0.159,0.043,0.260,-5.337
0.176,0.044,0.258,-5.337
0.116,0.043,0.258,-5.337
0.158,0.037,0.253,-5.337
0.244,0.037,0.253,-5.337
0.204,0.042,0.256,-5.337
0.087,0.048,0.258,-5.337
0.114,0.041,0.256,-5.337
0.195,0.037,0.255,-5.337
0.167,0.039,0.257,-5.337
0.161,0.041,0.259,-5.337
0.207,0.041,0.257,-5.337
0.193,0.042,0.260,-5.337
0.189,0.043,0.259,-5.337
0.156,0.044,0.255,-5.337
0.187,0.046,0.252,-5.337
0.199,0.045,0.253,-5.337
0.174,0.043,0.257,-5.337
0.164,0.044,0.259,-5.337
0.164,0.041,0.261,-5.337
0.175,0.042,0.259,-5.337
0.152,0.045,0.260,-5.337
0.119,0.047,0.261,-5.337
0.160,0.044,0.263,-5.337
0.210,0.040,0.260,-5.337
0.193,0.042,0.258,-5.337
0.196,0.044,0.257,-5.337
0.175,0.047,0.258,-5.337
0.141,0.046,0.258,-5.337
0.092,0.048,0.255,-5.337
0.070,0.045,0.256,-5.337
0.119,0.042,0.260,-5.337
0.149,0.043,0.264,-5.337
0.107,0.046,0.264,-5.337
0.125,0.047,0.259,-5.337
0.271,0.045,0.259,-5.337
0.307,0.046,0.264,-5.337
0.203,0.049,0.265,-5.337
0.092,0.051,0.263,-5.337
0.119,0.049,0.263,-5.337
0.205,0.048,0.264,-5.337
0.226,0.049,0.260,-5.337
0.189,0.051,0.258,-5.337
0.131,0.051,0.258,-5.337
0.168,0.050,0.258,-5.337
0.201,0.051,0.255,-5.337
0.232,0.047,0.257,-5.337
0.219,0.048,0.258,-5.337
0.177,0.051,0.260,-5.337
0.192,0.052,0.259,-5.337
0.229,0.048,0.258,-5.337
0.309,0.044,0.255,-5.337
0.227,0.049,0.256,-5.337
0.184,0.050,0.261,-5.337
0.238,0.049,0.267,-5.337
0.242,0.046,0.265,-5.337
0.186,0.048,0.261,-5.337
0.168,0.048,0.260,-5.337
0.222,0.048,0.260,-5.337
0.247,0.048,0.258,-5.337
0.256,0.047,0.260,-5.337
0.265,0.048,0.264,-5.337
0.212,0.048,0.263,-5.337
0.162,0.050,0.263,-5.337
0.220,0.045,0.263,-5.337
0.168,0.048,0.263,-5.337
0.077,0.048,0.260,-5.337
0.172,0.047,0.260,-5.337
0.243,0.047,0.263,-5.337
0.302,0.044,0.264,-5.337
0.297,0.044,0.260,-5.337
0.157,0.049,0.261,-5.337
0.111,0.052,0.262,-5.337
0.155,0.052,0.263,-5.337
0.164,0.048,0.261,-5.337
0.160,0.048,0.263,-5.337
0.162,0.050,0.259,-5.337
0.180,0.045,0.255,-5.337
0.223,0.043,0.254,-5.337
0.191,0.042,0.254,-5.337
0.151,0.044,0.258,-5.337
0.140,0.048,0.262,-5.337
0.190,0.048,0.262,-5.337
0.226,0.047,0.260,-5.337
0.229,0.051,0.261,-5.337
0.206,0.052,0.258,-5.337
0.246,0.049,0.258,-5.337
0.241,0.047,0.258,-5.337
0.185,0.049,0.259,-5.337
0.099,0.052,0.259,-5.337
0.099,0.052,0.259,-5.337
0.187,0.050,0.259,-5.337
0.213,0.052,0.258,-5.337
0.167,0.051,0.257,-5.337
0.143,0.053,0.257,-5.337
0.193,0.049,0.260,-5.337
0.185,0.048,0.261,-5.337
0.123,0.053,0.261,-5.337
0.146,0.051,0.258,-5.337
0.267,0.047,0.255,-5.337
0.240,0.050,0.255,-5.337
0.147,0.051,0.259,-5.337
0.160,0.047,0.262,-5.337
0.160,0.048,0.260,-5.337
0.142,0.052,0.256,-5.337
0.218,0.049,0.258,-5.337
0.215,0.052,0.258,-5.337
0.171,0.051,0.255,-5.337
0.152,0.051,0.252,-5.337
0.166,0.047,0.254,-5.337
0.159,0.047,0.257,-5.337
0.188,0.050,0.258,-5.337
0.175,0.053,0.257,-5.337
0.167,0.055,0.257,-5.337
0.173,0.053,0.260,-5.337
0.162,0.057,0.259,-5.337
0.125,0.058,0.259,-5.337
0.223,0.052,0.261,-5.337
0.288,0.053,0.263,-5.337
0.222,0.055,0.262,-5.337
0.297,0.052,0.259,-5.337
0.271,0.057,0.258,-5.337
0.186,0.057,0.261,-5.337
0.183,0.054,0.262,-5.337
0.186,0.052,0.266,-5.337
0.196,0.052,0.266,-5.337
0.157,0.055,0.260,-5.337
0.136,0.058,0.252,-5.337
0.123,0.061,0.250,-5.337
0.172,0.055,0.253,-5.337
0.187,0.057,0.259,-5.337
0.195,0.056,0.261,-5.337
0.165,0.056,0.259,-5.337
0.197,0.054,0.261,-5.337
0.209,0.055,0.265,-5.337
0.220,0.054,0.265,-5.337
0.264,0.049,0.263,-5.337
0.286,0.049,0.258,-5.337
0.192,0.054,0.258,-5.337
0.189,0.052,0.259,-5.337
0.260,0.049,0.257,-5.337
0.269,0.048,0.255,-5.337
0.214,0.053,0.255,-5.337
0.258,0.053,0.261,-5.337
0.272,0.054,0.262,-5.337
0.213,0.058,0.260,-5.337
0.140,0.060,0.257,-5.337
0.190,0.056,0.258,-5.337
0.228,0.055,0.258,-5.337
0.176,0.061,0.258,-5.337
0.160,0.061,0.258,-5.337
0.184,0.059,0.260,-5.337
0.214,0.060,0.265,-5.337
0.249,0.060,0.264,-5.337
0.256,0.058,0.262,-5.337
0.251,0.056,0.262,-5.337
0.250,0.054,0.261,-5.337
0.213,0.058,0.259,-5.337
0.179,0.060,0.258,-5.337
0.168,0.058,0.260,-5.337
0.235,0.049,0.263,-5.337
0.287,0.049,0.264,-5.337
0.213,0.059,0.264,-5.337
0.112,0.061,0.258,-5.337
0.175,0.058,0.256,-5.337
0.217,0.059,0.258,-5.337
0.250,0.062,0.261,-5.337
0.290,0.060,0.264,-5.337
0.244,0.061,0.264,-5.337
0.161,0.061,0.259,-5.337
0.164,0.059,0.256,-5.337
0.220,0.057,0.254,-5.337
0.240,0.058,0.259,-5.337
0.253,0.054,0.262,-5.337
0.271,0.054,0.264,-5.337
0.248,0.057,0.263,-5.337
0.199,0.056,0.259,-5.337
0.147,0.056,0.258,-5.337
0.157,0.057,0.260,-5.337
0.192,0.056,0.258,-5.337
0.270,0.055,0.257,-5.337
0.268,0.054,0.257,-5.337
0.245,0.054,0.258,-5.337
0.281,0.052,0.258,-5.337
0.234,0.057,0.258,-5.337
0.239,0.056,0.261,-5.337
0.202,0.057,0.262,-5.337
0.168,0.059,0.262,-5.337
0.252,0.058,0.263,-5.337
0.232,0.059,0.262,-5.337
0.207,0.059,0.260,-5.337
0.269,0.057,0.260,-5.337
0.261,0.055,0.255,-5.337
0.213,0.058,0.255,-5.337
0.232,0.057,0.253,-5.337
0.204,0.058,0.256,-5.337
0.244,0.059,0.257,-5.337
0.266,0.059,0.257,-5.337
0.218,0.058,0.260,-5.337
0.187,0.058,0.263,-5.337
0.228,0.056,0.263,-5.337
0.229,0.060,0.260,-5.337
0.277,0.062,0.257,-5.337
0.249,0.061,0.255,-5.337
0.242,0.057,0.257,-5.337
0.266,0.054,0.259,-5.337
0.198,0.058,0.263,-5.337
0.146,0.058,0.264,-5.337
0.200,0.057,0.262,-5.337
0.265,0.059,0.261,-5.337
0.230,0.062,0.259,-5.337
0.201,0.061,0.254,-5.337
0.198,0.060,0.255,-5.337
0.187,0.058,0.258,-5.337
0.236,0.060,0.260,-5.337
0.240,0.062,0.260,-5.337
0.196,0.061,0.263,-5.337
0.171,0.056,0.263,-5.337
0.199,0.056,0.259,-5.337
0.201,0.059,0.257,-5.337
0.203,0.062,0.260,-5.337
0.179,0.063,0.257,-5.337
0.220,0.060,0.255,-5.337
0.264,0.059,0.258,-5.337
0.258,0.057,0.256,-5.337
0.305,0.053,0.254,-5.337
0.304,0.052,0.255,-5.337
0.214,0.055,0.262,-5.337
0.164,0.058,0.263,-5.337
0.211,0.057,0.261,-5.337
0.231,0.060,0.257,-5.337
0.203,0.060,0.255,-5.337
0.229,0.057,0.255,-5.337
0.266,0.058,0.259,-5.337
0.260,0.062,0.258,-5.337
0.195,0.059,0.256,-5.337
0.213,0.056,0.256,-5.337
0.228,0.058,0.259,-5.337
0.214,0.059,0.258,-5.337
0.246,0.061,0.259,-5.337
0.235,0.061,0.258,-5.337
0.269,0.056,0.260,-5.337
0.288,0.054,0.260,-5.337
0.262,0.055,0.261,-5.337
0.212,0.055,0.261,-5.337
0.196,0.055,0.262,-5.337
0.238,0.050,0.260,-5.337
0.283,0.048,0.256,-5.337
0.218,0.052,0.260,-5.337
0.152,0.055,0.260,-5.337
0.195,0.056,0.259,-5.337
0.220,0.055,0.258,-5.337
0.178,0.056,0.260,-5.337
0.193,0.053,0.263,-5.337
0.253,0.054,0.264,-5.337
0.275,0.054,0.262,-5.337
0.258,0.055,0.257,-5.337
0.240,0.052,0.256,-5.337
0.183,0.055,0.257,-5.337
0.182,0.055,0.255,-5.337
0.176,0.056,0.253,-5.337
0.129,0.059,0.255,-5.337
0.115,0.057,0.259,-5.337
0.129,0.055,0.260,-5.337
0.203,0.053,0.259,-5.337
0.194,0.055,0.259,-5.337
0.238,0.055,0.257,-5.337
0.206,0.057,0.255,-5.337
0.153,0.057,0.257,-5.337
0.153,0.056,0.260,-5.337
0.212,0.053,0.261,-5.337
0.240,0.054,0.267,-5.337
0.241,0.052,0.266,-5.337
0.206,0.053,0.262,-5.337
0.217,0.052,0.255,-5.337
0.287,0.050,0.255,-5.337
0.305,0.047,0.256,-5.337
0.291,0.048,0.261,-5.337
0.274,0.048,0.261,-5.337
0.192,0.050,0.259,-5.337
0.175,0.048,0.259,-5.337
0.176,0.047,0.260,-5.337
0.183,0.047,0.256,-5.337
0.203,0.047,0.260,-5.337
0.168,0.049,0.262,-5.337
0.161,0.051,0.260,-5.337
0.199,0.048,0.258,-5.337
0.256,0.047,0.257,-5.337
0.274,0.046,0.257,-5.337
0.311,0.046,0.258,-5.337
0.269,0.048,0.265,-5.337
0.183,0.050,0.262,-5.337
0.229,0.048,0.259,-5.337
0.283,0.045,0.256,-5.337
0.323,0.045,0.260,-5.337
0.294,0.048,0.258,-5.337
0.229,0.052,0.258,-5.337
0.221,0.051,0.259,-5.337
0.252,0.045,0.261,-5.337
0.301,0.044,0.263,-5.337
0.221,0.047,0.265,-5.337
0.222,0.047,0.260,-5.337
0.241,0.046,0.257,-5.337
0.218,0.047,0.261,-5.337
0.164,0.050,0.265,-5.337
0.170,0.053,0.260,-5.337
0.133,0.054,0.259,-5.337
0.123,0.049,0.260,-5.337
0.114,0.047,0.261,-5.337
0.176,0.044,0.260,-5.337
0.198,0.048,0.260,-5.337
0.204,0.050,0.265,-5.337
0.186,0.046,0.264,-5.337
0.144,0.045,0.262,-5.337
0.135,0.041,0.261,-5.337
0.213,0.045,0.262,-5.337
0.224,0.047,0.259,-5.337
0.195,0.048,0.262,-5.337
0.159,0.047,0.261,-5.337
0.278,0.042,0.261,-5.337
0.385,0.041,0.261,-5.337
0.281,0.048,0.261,-5.337
0.172,0.047,0.261,-5.337
0.177,0.044,0.264,-5.337
0.177,0.045,0.262,-5.337
0.200,0.043,0.263,-5.337
0.250,0.042,0.266,-5.337
0.230,0.043,0.265,-5.337
0.185,0.040,0.261,-5.337
0.211,0.037,0.256,-5.337
0.259,0.039,0.255,-5.337
0.227,0.040,0.254,-5.337
0.177,0.040,0.261,-5.337
0.183,0.042,0.261,-5.337
0.231,0.046,0.261,-5.337
0.301,0.043,0.259,-5.337
0.298,0.043,0.259,-5.337
0.264,0.041,0.256,-5.337
0.200,0.045,0.257,-5.337
0.207,0.044,0.258,-5.337
0.197,0.047,0.257,-5.337
0.156,0.049,0.257,-5.337
0.175,0.049,0.259,-5.337
0.152,0.045,0.261,-5.337
0.150,0.040,0.264,-5.337
0.197,0.036,0.263,-5.337
0.155,0.042,0.260,-5.337
0.089,0.045,0.257,-5.337
0.155,0.041,0.259,-5.337
0.228,0.039,0.258,-5.337
0.214,0.039,0.257,-5.337
0.217,0.040,0.254,-5.337
0.259,0.040,0.257,-5.337
0.232,0.041,0.261,-5.337
0.100,0.046,0.260,-5.337
0.045,0.050,0.261,-5.337
0.125,0.046,0.258,-5.337
0.203,0.045,0.257,-5.337
0.170,0.046,0.257,-5.337
0.156,0.046,0.261,-5.337
0.183,0.045,0.263,-5.337
0.170,0.047,0.266,-5.337
0.151,0.043,0.265,-5.337
0.143,0.043,0.265,-5.337
0.164,0.037,0.264,-5.337
0.213,0.038,0.261,-5.337
0.206,0.038,0.260,-5.337
0.200,0.038,0.258,-5.337
0.166,0.042,0.257,-5.337
0.129,0.041,0.255,-5.337
0.185,0.036,0.253,-5.337
0.250,0.033,0.251,-5.337
0.287,0.034,0.257,-5.337
0.245,0.034,0.260,-5.337
0.208,0.039,0.259,-5.337
0.263,0.036,0.253,-5.337
0.261,0.035,0.254,-5.337
0.213,0.037,0.255,-5.337
0.146,0.042,0.256,-5.337
0.151,0.042,0.255,-5.337
0.243,0.040,0.258,-5.337
0.236,0.037,0.257,-5.337
0.214,0.035,0.255,-5.337
0.197,0.040,0.257,-5.337
0.194,0.043,0.261,-5.337
0.192,0.042,0.261,-5.337
0.151,0.039,0.262,-5.337
0.140,0.036,0.267,-5.337
0.162,0.035,0.267,-5.337
0.209,0.034,0.265,-5.337
0.242,0.036,0.265,-5.337
0.254,0.036,0.263,-5.337
0.155,0.038,0.258,-5.337
0.121,0.036,0.255,-5.337
0.176,0.036,0.252,-5.337
0.215,0.038,0.250,-5.337
0.164,0.041,0.250,-5.337
0.129,0.040,0.255,-5.337
0.143,0.037,0.257,-5.337
0.162,0.036,0.262,-5.337
0.169,0.035,0.262,-5.337
0.203,0.035,0.262,-5.337
0.245,0.034,0.262,-5.337
0.289,0.031,0.261,-5.337
0.249,0.032,0.260,-5.337
0.173,0.040,0.256,-5.337
0.172,0.040,0.257,-5.337
0.156,0.038,0.263,-5.337
0.128,0.035,0.263,-5.337
0.187,0.035,0.257,-5.337
0.208,0.038,0.253,-5.337
0.155,0.039,0.253,-5.337
0.108,0.041,0.258,-5.337
0.130,0.043,0.259,-5.337
0.159,0.046,0.260,-5.337
0.189,0.044,0.258,-5.337
0.140,0.042,0.261,-5.337
0.072,0.042,0.258,-5.337
0.147,0.039,0.256,-5.337
0.212,0.038,0.256,-5.337
0.225,0.036,0.261,-5.337
0.233,0.038,0.262,-5.337
0.200,0.041,0.260,-5.337
0.142,0.039,0.260,-5.337
0.132,0.039,0.260,-5.337
0.170,0.042,0.256,-5.337
0.213,0.041,0.258,-5.337
0.218,0.040,0.262,-5.337
0.145,0.044,0.262,-5.337
0.089,0.042,0.263,-5.337
0.161,0.041,0.262,-5.337
0.190,0.041,0.260,-5.337
0.210,0.040,0.261,-5.337
0.150,0.042,0.265,-5.337
0.119,0.042,0.267,-5.337
0.156,0.041,0.264,-5.337
0.180,0.039,0.257,-5.337
0.165,0.039,0.254,-5.337
0.099,0.037,0.255,-5.337
0.167,0.033,0.256,-5.337
0.186,0.034,0.253,-5.337
0.202,0.037,0.250,-5.337
0.197,0.039,0.250,-5.337
0.155,0.042,0.256,-5.337
0.159,0.042,0.262,-5.337
0.200,0.040,0.264,-5.337
0.211,0.041,0.262,-5.337
0.173,0.044,0.263,-5.337
0.119,0.042,0.263,-5.337
0.186,0.039,0.260,-5.337
0.182,0.037,0.258,-5.337
0.159,0.038,0.260,-5.337
0.205,0.040,0.261,-5.337
0.167,0.038,0.257,-5.337
0.102,0.036,0.255,-5.337
0.066,0.039,0.257,-5.337
0.061,0.038,0.258,-5.337
0.087,0.037,0.259,-5.337
0.141,0.036,0.259,-5.337
0.171,0.037,0.258,-5.337
0.152,0.038,0.260,-5.337
0.114,0.037,0.263,-5.337
0.132,0.033,0.262,-5.337
0.181,0.035,0.257,-5.337
0.186,0.040,0.256,-5.337
0.136,0.040,0.256,-5.337
0.090,0.041,0.253,-5.337
0.097,0.043,0.252,-5.337
0.132,0.040,0.256,-5.337
0.152,0.035,0.257,-5.337
0.185,0.035,0.256,-5.337
0.207,0.036,0.255,-5.337
0.178,0.034,0.254,-5.337
0.159,0.035,0.254,-5.337
0.143,0.038,0.259,-5.337
0.147,0.036,0.262,-5.337
0.202,0.033,0.264,-5.337
0.237,0.033,0.262,-5.337
0.227,0.033,0.259,-5.337
0.151,0.033,0.259,-5.337
0.153,0.033,0.255,-5.337
0.176,0.035,0.258,-5.337
0.175,0.038,0.258,-5.337
0.180,0.034,0.257,-5.337
0.162,0.031,0.254,-5.337
0.162,0.032,0.253,-5.337
0.166,0.031,0.253,-5.337
0.208,0.032,0.255,-5.337
0.213,0.036,0.256,-5.337
0.199,0.041,0.255,-5.337
0.114,0.041,0.255,-5.337
0.123,0.034,0.256,-5.337
0.195,0.033,0.252,-5.337
0.191,0.036,0.251,-5.337
0.163,0.038,0.255,-5.337
0.178,0.038,0.257,-5.337
0.202,0.036,0.257,-5.337
0.243,0.036,0.255,-5.337
0.255,0.034,0.256,-5.337
0.229,0.036,0.259,-5.337
0.173,0.042,0.262,-5.337
0.175,0.043,0.261,-5.337
0.150,0.042,0.258,-5.337
0.147,0.037,0.257,-5.337
0.150,0.036,0.258,-5.337
0.185,0.036,0.258,-5.337
0.253,0.042,0.255,-5.337
0.234,0.044,0.254,-5.337
0.237,0.039,0.255,-5.337
0.276,0.037,0.256,-5.337
0.122,0.039,0.258,-5.337
0.039,0.039,0.260,-5.337
0.111,0.038,0.259,-5.337
0.182,0.041,0.254,-5.337
0.183,0.044,0.251,-5.337
0.153,0.045,0.253,-5.337
0.143,0.044,0.252,-5.337
0.086,0.041,0.251,-5.337
0.093,0.041,0.250,-5.337
0.154,0.040,0.257,-5.337
0.171,0.044,0.263,-5.337
0.197,0.047,0.262,-5.337
0.166,0.042,0.256,-5.337
0.084,0.046,0.257,-5.337
0.030,0.048,0.257,-5.337
0.064,0.045,0.254,-5.337
0.177,0.040,0.250,-5.337
0.142,0.045,0.249,-5.337
0.092,0.048,0.250,-5.337
0.124,0.049,0.255,-5.337
0.209,0.046,0.258,-5.337
0.193,0.045,0.259,-5.337
0.227,0.046,0.259,-5.337
0.212,0.048,0.258,-5.337
0.154,0.049,0.257,-5.337
0.182,0.046,0.257,-5.337
0.270,0.039,0.258,-5.337
0.248,0.043,0.260,-5.337
0.179,0.044,0.259,-5.337
0.178,0.045,0.257,-5.337
0.191,0.045,0.260,-5.337
0.208,0.047,0.261,-5.337
0.195,0.043,0.260,-5.337
0.206,0.043,0.256,-5.337
0.188,0.042,0.256,-5.337
0.193,0.041,0.257,-5.337
0.247,0.042,0.258,-5.337
0.251,0.047,0.256,-5.337
0.122,0.053,0.255,-5.337
0.118,0.047,0.255,-5.337
0.196,0.047,0.256,-5.337
0.210,0.047,0.258,-5.337
0.196,0.047,0.258,-5.337
0.204,0.050,0.258,-5.337
0.171,0.052,0.259,-5.337
0.172,0.053,0.259,-5.337
0.180,0.053,0.260,-5.337
0.167,0.051,0.259,-5.337
0.135,0.054,0.256,-5.337
0.134,0.056,0.255,-5.337
0.234,0.050,0.256,-5.337
0.274,0.048,0.262,-5.337
0.183,0.050,0.265,-5.337
0.165,0.053,0.264,-5.337
0.143,0.048,0.260,-5.337
0.177,0.048,0.257,-5.337
0.216,0.050,0.251,-5.337
0.255,0.051,0.256,-5.337
0.183,0.051,0.258,-5.337
0.145,0.050,0.255,-5.337
0.253,0.046,0.251,-5.337
0.239,0.048,0.254,-5.337
0.153,0.050,0.261,-5.337
0.114,0.054,0.268,-5.337
0.127,0.051,0.266,-5.337
0.181,0.053,0.262,-5.337
0.202,0.055,0.258,-5.337
0.179,0.055,0.258,-5.337
0.159,0.055,0.257,-5.337
0.175,0.052,0.258,-5.337
0.227,0.053,0.260,-5.337
0.203,0.055,0.259,-5.337
0.160,0.053,0.260,-5.337
0.187,0.048,0.259,-5.337
0.230,0.049,0.259,-5.337
0.200,0.053,0.257,-5.337
0.135,0.056,0.257,-5.337
0.203,0.053,0.253,-5.337
0.205,0.053,0.253,-5.337
0.183,0.052,0.258,-5.337
0.239,0.049,0.267,-5.337
0.291,0.049,0.268,-5.337
0.284,0.048,0.264,-5.337
0.205,0.049,0.260,-5.337
0.159,0.055,0.257,-5.337
0.209,0.054,0.260,-5.337
0.260,0.051,0.263,-5.337
0.220,0.052,0.259,-5.337
0.179,0.055,0.251,-5.337
0.168,0.059,0.249,-5.337
0.129,0.060,0.252,-5.337
0.129,0.059,0.257,-5.337
0.158,0.058,0.259,-5.337
0.194,0.054,0.262,-5.337
0.221,0.052,0.261,-5.337
0.191,0.053,0.264,-5.337
0.187,0.055,0.259,-5.337
0.197,0.058,0.259,-5.337
0.189,0.059,0.260,-5.337
0.210,0.056,0.259,-5.337
0.191,0.056,0.255,-5.337
0.133,0.058,0.255,-5.337
0.162,0.054,0.257,-5.337
0.190,0.050,0.259,-5.337
0.231,0.049,0.258,-5.337
0.301,0.048,0.258,-5.337
0.305,0.050,0.258,-5.337
0.194,0.053,0.257,-5.337
0.133,0.052,0.256,-5.337
0.194,0.050,0.256,-5.337
0.231,0.051,0.255,-5.337
0.201,0.056,0.258,-5.337
0.175,0.056,0.262,-5.337
0.206,0.052,0.260,-5.337
0.172,0.052,0.258,-5.337
0.155,0.053,0.253,-5.337
0.214,0.055,0.253,-5.337
0.199,0.060,0.254,-5.337
0.124,0.060,0.260,-5.337
0.158,0.055,0.259,-5.337
0.237,0.055,0.255,-5.337
0.233,0.054,0.250,-5.337
0.221,0.058,0.249,-5.337
0.194,0.058,0.253,-5.337
0.174,0.057,0.262,-5.337
0.193,0.057,0.266,-5.337
0.242,0.056,0.262,-5.337
0.232,0.056,0.259,-5.337
0.179,0.058,0.257,-5.337
0.221,0.054,0.253,-5.337
0.229,0.055,0.253,-5.337
0.215,0.058,0.255,-5.337
0.122,0.057,0.255,-5.337
0.136,0.055,0.256,-5.337
0.202,0.055,0.256,-5.337
0.255,0.052,0.258,-5.337
0.303,0.050,0.260,-5.337
0.224,0.053,0.262,-5.337
0.145,0.055,0.262,-5.337
0.134,0.059,0.260,-5.337
0.173,0.058,0.251,-5.337
0.194,0.056,0.250,-5.337
0.178,0.052,0.253,-5.337
0.215,0.051,0.254,-5.337
0.315,0.052,0.256,-5.337
0.287,0.053,0.260,-5.337
0.240,0.052,0.262,-5.337
0.251,0.053,0.264,-5.337
0.244,0.055,0.264,-5.337
0.243,0.056,0.257,-5.337
0.241,0.060,0.249,-5.337
0.229,0.060,0.250,-5.337
0.243,0.061,0.259,-5.337
0.180,0.062,0.259,-5.337
0.143,0.059,0.256,-5.337
0.190,0.058,0.255,-5.337
0.188,0.059,0.257,-5.337
0.187,0.061,0.255,-5.337
0.175,0.062,0.254,-5.337
0.180,0.060,0.255,-5.337
0.177,0.057,0.256,-5.337
0.227,0.054,0.256,-5.337
0.334,0.053,0.259,-5.337
0.318,0.060,0.259,-5.337
0.294,0.064,0.259,-5.337
0.323,0.059,0.261,-5.337
0.285,0.057,0.263,-5.337
0.238,0.056,0.260,-5.337
0.228,0.059,0.258,-5.337
0.198,0.058,0.255,-5.337
0.200,0.057,0.257,-5.337
0.194,0.058,0.264,-5.337
0.210,0.058,0.263,-5.337
0.308,0.054,0.258,-5.337
0.334,0.057,0.260,-5.337
0.333,0.059,0.264,-5.337
0.289,0.057,0.260,-5.337
0.216,0.058,0.258,-5.337
0.205,0.058,0.256,-5.337
0.217,0.060,0.255,-5.337
0.218,0.058,0.252,-5.337
0.221,0.057,0.254,-5.337
0.174,0.060,0.258,-5.337
0.161,0.065,0.261,-5.337
0.188,0.065,0.259,-5.337
0.227,0.064,0.259,-5.337
0.226,0.066,0.259,-5.337
0.215,0.066,0.259,-5.337
0.237,0.063,0.260,-5.337
0.219,0.063,0.258,-5.337
0.220,0.062,0.255,-5.337
0.178,0.062,0.255,-5.337
0.121,0.063,0.257,-5.337
0.143,0.060,0.258,-5.337
0.197,0.058,0.258,-5.337
0.226,0.057,0.257,-5.337
0.198,0.060,0.258,-5.337
0.160,0.062,0.260,-5.337
0.175,0.061,0.263,-5.337
0.258,0.064,0.260,-5.337
0.220,0.068,0.257,-5.337
0.133,0.070,0.255,-5.337
0.140,0.067,0.254,-5.337
0.187,0.065,0.253,-5.337
0.230,0.067,0.257,-5.337
0.254,0.066,0.262,-5.337
0.254,0.063,0.264,-5.337
0.288,0.058,0.265,-5.337
0.256,0.061,0.261,-5.337
0.211,0.064,0.260,-5.337
0.222,0.061,0.261,-5.337
0.250,0.057,0.261,-5.337
0.212,0.059,0.258,-5.337
0.202,0.059,0.254,-5.337
0.253,0.056,0.255,-5.337
0.234,0.057,0.258,-5.337
0.225,0.058,0.260,-5.337
0.205,0.061,0.260,-5.337
0.217,0.060,0.259,-5.337
0.209,0.056,0.257,-5.337
0.255,0.054,0.256,-5.337
0.261,0.056,0.257,-5.337
0.291,0.057,0.254,-5.337
0.307,0.060,0.259,-5.337
0.266,0.059,0.264,-5.337
0.229,0.058,0.264,-5.337
0.205,0.060,0.260,-5.337
0.203,0.062,0.256,-5.337
0.222,0.061,0.254,-5.337
0.205,0.063,0.252,-5.337
0.120,0.065,0.254,-5.337
0.119,0.064,0.258,-5.337
0.231,0.062,0.260,-5.337
0.264,0.062,0.258,-5.337
0.224,0.067,0.257,-5.337
0.208,0.063,0.261,-5.337
0.306,0.058,0.261,-5.337
0.292,0.062,0.256,-5.337
0.211,0.063,0.253,-5.337
0.194,0.064,0.254,-5.337
0.194,0.061,0.257,-5.337
0.218,0.060,0.259,-5.337
0.253,0.059,0.257,-5.337
0.241,0.056,0.252,-5.337
0.128,0.056,0.253,-5.337
0.084,0.054,0.257,-5.337
0.143,0.051,0.261,-5.337
0.150,0.050,0.258,-5.337
0.097,0.053,0.254,-5.337
0.132,0.053,0.255,-5.337
0.199,0.048,0.256,-5.337
0.205,0.049,0.255,-5.337
0.226,0.053,0.257,-5.337
0.208,0.051,0.256,-5.337
0.179,0.048,0.255,-5.337
0.227,0.048,0.256,-5.337
0.334,0.047,0.256,-5.337
0.282,0.049,0.260,-5.337
0.231,0.053,0.259,-5.337
0.256,0.053,0.257,-5.337
0.235,0.056,0.254,-5.337
0.195,0.056,0.255,-5.337
0.224,0.051,0.255,-5.337
0.185,0.055,0.259,-5.337
0.166,0.054,0.261,-5.337
0.188,0.054,0.258,-5.337
0.237,0.050,0.256,-5.337
0.252,0.050,0.259,-5.337
0.236,0.049,0.257,-5.337
0.167,0.054,0.251,-5.337
0.136,0.051,0.251,-5.337
0.238,0.046,0.257,-5.337
0.308,0.047,0.260,-5.337
0.274,0.047,0.256,-5.337
0.177,0.051,0.254,-5.337
0.152,0.055,0.255,-5.337
0.250,0.054,0.257,-5.337
0.226,0.054,0.258,-5.337
0.116,0.053,0.259,-5.337
0.088,0.053,0.257,-5.337
0.124,0.051,0.255,-5.337
0.225,0.047,0.253,-5.337
0.180,0.047,0.257,-5.337
0.158,0.044,0.258,-5.337
0.187,0.048,0.258,-5.337
0.151,0.048,0.256,-5.337
0.139,0.051,0.257,-5.337
0.192,0.047,0.258,-5.337
0.248,0.045,0.259,-5.337
0.253,0.044,0.258,-5.337
0.291,0.045,0.257,-5.337
0.351,0.043,0.256,-5.337
0.264,0.043,0.256,-5.337
0.158,0.042,0.257,-5.337
0.210,0.042,0.256,-5.337
0.258,0.041,0.256,-5.337
0.286,0.039,0.254,-5.337
0.248,0.039,0.254,-5.337
0.196,0.043,0.252,-5.337
0.206,0.044,0.256,-5.337
0.257,0.043,0.259,-5.337
0.222,0.041,0.262,-5.337
0.124,0.043,0.258,-5.337
0.077,0.044,0.255,-5.337
0.144,0.043,0.256,-5.337
0.256,0.038,0.260,-5.337
0.309,0.038,0.259,-5.337
0.235,0.040,0.259,-5.337
0.216,0.041,0.258,-5.337
0.230,0.041,0.258,-5.337
0.190,0.040,0.254,-5.337
0.148,0.042,0.254,-5.337
0.192,0.041,0.257,-5.337
0.215,0.042,0.262,-5.337
0.211,0.041,0.262,-5.337
0.241,0.041,0.258,-5.337
0.257,0.040,0.256,-5.337
0.274,0.041,0.255,-5.337
0.221,0.041,0.252,-5.337
0.219,0.042,0.253,-5.337
0.254,0.042,0.259,-5.337
0.230,0.044,0.261,-5.337
0.188,0.044,0.257,-5.337
0.173,0.045,0.256,-5.337
0.222,0.041,0.260,-5.337
0.238,0.040,0.265,-5.337
0.195,0.046,0.263,-5.337
0.151,0.045,0.258,-5.337
0.186,0.044,0.255,-5.337
0.171,0.046,0.254,-5.337
0.152,0.049,0.256,-5.337
0.119,0.048,0.254,-5.337
0.143,0.047,0.255,-5.337
0.191,0.042,0.259,-5.337
0.203,0.042,0.262,-5.337
0.199,0.043,0.263,-5.337
0.155,0.045,0.265,-5.337
0.147,0.043,0.266,-5.337
0.116,0.043,0.262,-5.337
0.175,0.042,0.257,-5.337
0.222,0.041,0.258,-5.337
0.159,0.040,0.258,-5.337
0.174,0.039,0.259,-5.337
0.183,0.039,0.261,-5.337
0.180,0.042,0.256,-5.337
0.230,0.038,0.255,-5.337
0.296,0.037,0.260,-5.337
0.245,0.044,0.262,-5.337
0.213,0.043,0.259,-5.337
0.241,0.043,0.262,-5.337
0.206,0.038,0.259,-5.337
0.180,0.038,0.259,-5.337
0.251,0.036,0.260,-5.337
0.302,0.038,0.261,-5.337
0.254,0.038,0.255,-5.337
0.187,0.044,0.248,-5.337
0.210,0.043,0.251,-5.337
0.213,0.042,0.258,-5.337
0.223,0.039,0.259,-5.337
0.229,0.040,0.259,-5.337
0.196,0.041,0.260,-5.337
0.194,0.041,0.260,-5.337
0.176,0.037,0.256,-5.337
0.228,0.033,0.251,-5.337
0.199,0.039,0.252,-5.337
0.174,0.042,0.256,-5.337
0.203,0.040,0.259,-5.337
0.196,0.040,0.261,-5.337
0.172,0.047,0.262,-5.337
0.112,0.049,0.262,-5.337
0.136,0.044,0.264,-5.337
0.200,0.043,0.260,-5.337
0.205,0.047,0.256,-5.337
0.217,0.044,0.255,-5.337
0.241,0.044,0.255,-5.337
0.234,0.045,0.258,-5.337
0.217,0.045,0.259,-5.337
0.201,0.045,0.256,-5.337
0.201,0.045,0.256,-5.337
0.211,0.043,0.259,-5.337
0.155,0.048,0.259,-5.337
0.156,0.045,0.257,-5.337
0.201,0.045,0.256,-5.337
0.164,0.044,0.259,-5.337
0.180,0.040,0.260,-5.337
0.158,0.043,0.261,-5.337
0.115,0.041,0.259,-5.337
0.143,0.038,0.259,-5.337
0.209,0.035,0.260,-5.337
0.259,0.037,0.263,-5.337
0.237,0.041,0.258,-5.337
0.190,0.040,0.256,-5.337
0.194,0.037,0.257,-5.337
0.220,0.038,0.260,-5.337
0.234,0.041,0.261,-5.337
0.203,0.040,0.259,-5.337
0.233,0.033,0.255,-5.337
0.224,0.033,0.251,-5.337
0.146,0.037,0.250,-5.337
0.163,0.038,0.249,-5.337
0.236,0.036,0.252,-5.337
0.230,0.040,0.256,-5.337
0.194,0.039,0.262,-5.337
0.186,0.040,0.262,-5.337
0.209,0.040,0.256,-5.337
0.237,0.039,0.252,-5.337
0.259,0.040,0.257,-5.337
0.238,0.040,0.260,-5.337
0.186,0.041,0.264,-5.337
0.124,0.043,0.264,-5.337
0.121,0.044,0.261,-5.337
0.181,0.041,0.255,-5.337
0.227,0.042,0.254,-5.337
0.183,0.045,0.256,-5.337
0.147,0.043,0.257,-5.337
0.169,0.040,0.255,-5.337
0.170,0.041,0.254,-5.337
0.244,0.043,0.255,-5.337
0.201,0.044,0.255,-5.337
0.181,0.041,0.255,-5.337
0.214,0.039,0.258,-5.337
0.169,0.042,0.260,-5.337
0.120,0.041,0.257,-5.337
0.172,0.040,0.257,-5.337
0.213,0.041,0.258,-5.337
0.158,0.045,0.256,-5.337
0.216,0.043,0.255,-5.337
0.266,0.040,0.257,-5.337
0.209,0.039,0.261,-5.337
0.187,0.039,0.262,-5.337
0.206,0.038,0.259,-5.337
0.234,0.035,0.258,-5.337
0.187,0.032,0.258,-5.337
0.191,0.035,0.256,-5.337
0.208,0.037,0.253,-5.337
0.181,0.039,0.256,-5.337
0.157,0.040,0.260,-5.337
0.165,0.039,0.264,-5.337
0.185,0.037,0.264,-5.337
0.180,0.043,0.261,-5.337
0.174,0.042,0.258,-5.337
0.196,0.038,0.258,-5.337
0.190,0.036,0.261,-5.337
0.200,0.035,0.257,-5.337
0.208,0.035,0.251,-5.337
0.179,0.036,0.253,-5.337
0.120,0.034,0.258,-5.337
0.126,0.036,0.260,-5.337
0.119,0.036,0.259,-5.337
0.085,0.038,0.254,-5.337
0.088,0.038,0.250,-5.337
0.117,0.033,0.253,-5.337
0.106,0.034,0.261,-5.337
0.072,0.034,0.262,-5.337
0.131,0.033,0.262,-5.337
0.162,0.033,0.261,-5.337
0.233,0.034,0.257,-5.337
0.220,0.034,0.251,-5.337
0.151,0.036,0.250,-5.337
0.158,0.035,0.254,-5.337
0.149,0.037,0.260,-5.337
0.097,0.040,0.260,-5.337
0.186,0.036,0.257,-5.337
0.263,0.034,0.256,-5.337
0.244,0.038,0.259,-5.337
0.123,0.041,0.259,-5.337
0.066,0.041,0.261,-5.337
0.093,0.038,0.261,-5.337
0.138,0.037,0.257,-5.337
0.190,0.035,0.254,-5.337
0.222,0.030,0.252,-5.337
0.204,0.030,0.253,-5.337
0.199,0.030,0.254,-5.337
0.206,0.030,0.257,-5.337
0.213,0.030,0.260,-5.337
0.264,0.031,0.262,-5.337
0.303,0.030,0.262,-5.337
0.313,0.035,0.265,-5.337
0.265,0.034,0.263,-5.337
0.234,0.034,0.260,-5.337
0.220,0.029,0.255,-5.337
0.230,0.029,0.255,-5.337
0.206,0.033,0.257,-5.337
0.132,0.039,0.258,-5.337
0.169,0.038,0.258,-5.337
0.248,0.034,0.262,-5.337
0.238,0.032,0.260,-5.337
0.230,0.037,0.254,-5.337
0.205,0.036,0.253,-5.337
0.145,0.038,0.257,-5.337
0.157,0.037,0.259,-5.337
0.201,0.039,0.256,-5.337
0.137,0.040,0.253,-5.337
0.180,0.036,0.252,-5.337
0.249,0.035,0.253,-5.337
0.184,0.037,0.254,-5.337
0.095,0.041,0.255,-5.337
0.162,0.040,0.256,-5.337
0.209,0.042,0.258,-5.337
0.131,0.043,0.259,-5.337
0.096,0.045,0.259,-5.337
0.115,0.045,0.258,-5.337
0.176,0.044,0.259,-5.337
0.221,0.043,0.257,-5.337
0.266,0.044,0.254,-5.337
0.283,0.041,0.252,-5.337
0.226,0.043,0.253,-5.337
0.152,0.044,0.255,-5.337
0.131,0.041,0.255,-5.337
0.168,0.042,0.255,-5.337
0.145,0.046,0.252,-5.337
0.096,0.046,0.254,-5.337
0.066,0.047,0.257,-5.337
0.127,0.048,0.259,-5.337
0.179,0.042,0.257,-5.337
0.238,0.043,0.257,-5.337
0.187,0.045,0.257,-5.337
0.159,0.045,0.257,-5.337
0.233,0.042,0.255,-5.337
0.182,0.044,0.255,-5.337
0.154,0.042,0.255,-5.337
0.197,0.038,0.255,-5.337
0.212,0.036,0.254,-5.337
0.219,0.039,0.256,-5.337
0.205,0.038,0.259,-5.337
0.216,0.037,0.260,-5.337
0.214,0.036,0.258,-5.337
0.200,0.039,0.256,-5.337
0.171,0.042,0.257,-5.337
0.174,0.043,0.258,-5.337
0.208,0.039,0.260,-5.337
0.230,0.039,0.256,-5.337
0.219,0.044,0.252,-5.337
0.188,0.044,0.248,-5.337
0.157,0.039,0.250,-5.337
0.187,0.041,0.253,-5.337
0.183,0.045,0.259,-5.337
0.143,0.048,0.259,-5.337
0.178,0.046,0.256,-5.337
0.230,0.043,0.255,-5.337
0.170,0.043,0.256,-5.337
0.144,0.048,0.256,-5.337
0.147,0.048,0.257,-5.337
0.119,0.049,0.255,-5.337
0.152,0.047,0.255,-5.337
0.217,0.048,0.257,-5.337
0.208,0.051,0.259,-5.337
0.183,0.051,0.257,-5.337
0.163,0.049,0.255,-5.337
0.146,0.049,0.255,-5.337
0.171,0.049,0.257,-5.337
0.178,0.051,0.259,-5.337
0.174,0.050,0.258,-5.337
0.228,0.045,0.255,-5.337
0.242,0.046,0.252,-5.337
0.210,0.049,0.254,-5.337
0.116,0.054,0.256,-5.337
0.118,0.055,0.256,-5.337
0.137,0.050,0.254,-5.337
0.198,0.049,0.255,-5.337
0.163,0.052,0.257,-5.337
0.128,0.051,0.258,-5.337
0.178,0.052,0.260,-5.337
0.237,0.051,0.259,-5.337
0.216,0.051,0.257,-5.337
0.155,0.053,0.257,-5.337
0.182,0.054,0.256,-5.337
0.174,0.055,0.255,-5.337
0.188,0.052,0.257,-5.337
0.229,0.053,0.255,-5.337
0.237,0.054,0.255,-5.337
0.202,0.056,0.257,-5.337
0.226,0.056,0.260,-5.337
0.272,0.054,0.257,-5.337
0.267,0.052,0.256,-5.337
0.307,0.050,0.254,-5.337
0.302,0.049,0.254,-5.337
0.212,0.049,0.256,-5.337
0.195,0.052,0.263,-5.337
0.253,0.047,0.268,-5.337
0.251,0.050,0.267,-5.337
0.213,0.052,0.262,-5.337
0.222,0.051,0.257,-5.337
0.247,0.049,0.255,-5.337
0.292,0.052,0.255,-5.337
0.269,0.055,0.255,-5.337
0.265,0.056,0.256,-5.337
0.181,0.058,0.255,-5.337
0.138,0.060,0.255,-5.337
0.129,0.061,0.259,-5.337
0.092,0.063,0.260,-5.337
0.102,0.061,0.255,-5.337
0.169,0.063,0.254,-5.337
0.158,0.061,0.255,-5.337
0.133,0.059,0.254,-5.337
0.192,0.056,0.258,-5.337
0.190,0.056,0.260,-5.337
0.187,0.054,0.259,-5.337
0.222,0.057,0.257,-5.337
0.327,0.056,0.259,-5.337
0.376,0.054,0.256,-5.337
0.285,0.054,0.259,-5.337
0.163,0.056,0.263,-5.337
0.163,0.057,0.261,-5.337
0.207,0.059,0.254,-5.337
0.149,0.058,0.253,-5.337
0.152,0.055,0.259,-5.337
0.160,0.056,0.262,-5.337
0.168,0.057,0.259,-5.337
0.194,0.059,0.255,-5.337
0.180,0.061,0.255,-5.337
0.220,0.059,0.255,-5.337
0.287,0.055,0.259,-5.337
0.249,0.054,0.262,-5.337
0.227,0.056,0.261,-5.337
0.288,0.057,0.257,-5.337
0.324,0.057,0.257,-5.337
0.334,0.054,0.256,-5.337
0.246,0.060,0.256,-5.337
0.166,0.060,0.257,-5.337
0.157,0.057,0.262,-5.337
0.228,0.055,0.262,-5.337
0.293,0.055,0.259,-5.337
0.293,0.054,0.254,-5.337
0.195,0.056,0.252,-5.337
0.120,0.058,0.253,-5.337
0.113,0.059,0.256,-5.337
0.165,0.056,0.259,-5.337
0.207,0.057,0.264,-5.337
0.201,0.056,0.262,-5.337
0.231,0.056,0.257,-5.337
0.215,0.056,0.254,-5.337
0.258,0.055,0.251,-5.337
0.321,0.055,0.253,-5.337
0.278,0.059,0.258,-5.337
0.255,0.056,0.264,-5.337
0.239,0.060,0.264,-5.337
0.229,0.064,0.264,-5.337
0.229,0.058,0.258,-5.337
0.232,0.056,0.257,-5.337
0.264,0.056,0.257,-5.337
0.278,0.057,0.259,-5.337
0.233,0.055,0.259,-5.337
0.308,0.048,0.257,-5.337
0.314,0.052,0.256,-5.337
0.225,0.057,0.256,-5.337
0.202,0.055,0.256,-5.337
0.271,0.052,0.256,-5.337
0.325,0.050,0.256,-5.337
0.326,0.055,0.259,-5.337
0.199,0.060,0.261,-5.337
0.126,0.064,0.260,-5.337
0.148,0.063,0.256,-5.337
0.193,0.059,0.253,-5.337
0.190,0.061,0.252,-5.337
0.167,0.061,0.253,-5.337
0.184,0.059,0.255,-5.337
0.243,0.059,0.258,-5.337
0.300,0.059,0.259,-5.337
0.266,0.061,0.258,-5.337
0.236,0.063,0.259,-5.337
0.230,0.063,0.261,-5.337
0.255,0.062,0.261,-5.337
0.298,0.059,0.259,-5.337
0.242,0.060,0.257,-5.337
0.252,0.059,0.255,-5.337
0.198,0.061,0.256,-5.337
0.142,0.060,0.259,-5.337
0.161,0.062,0.258,-5.337
0.209,0.061,0.255,-5.337
0.227,0.062,0.251,-5.337
0.261,0.061,0.253,-5.337
0.218,0.066,0.258,-5.337
0.175,0.066,0.258,-5.337
0.207,0.063,0.253,-5.337
0.243,0.060,0.251,-5.337
0.231,0.062,0.255,-5.337
0.268,0.063,0.263,-5.337
0.276,0.064,0.265,-5.337
0.232,0.063,0.261,-5.337
0.220,0.062,0.257,-5.337
0.182,0.065,0.258,-5.337
0.207,0.066,0.257,-5.337
0.190,0.067,0.258,-5.337
0.144,0.066,0.259,-5.337
0.148,0.066,0.260,-5.337
0.221,0.063,0.258,-5.337
0.240,0.065,0.255,-5.337
0.168,0.063,0.254,-5.337
0.230,0.063,0.255,-5.337
0.298,0.063,0.253,-5.337
0.262,0.063,0.252,-5.337
0.208,0.063,0.256,-5.337
0.178,0.063,0.260,-5.337
0.187,0.059,0.258,-5.337
0.337,0.057,0.255,-5.337
0.389,0.058,0.255,-5.337
0.338,0.062,0.258,-5.337
0.240,0.061,0.259,-5.337
0.204,0.062,0.260,-5.337
0.217,0.059,0.262,-5.337
0.266,0.055,0.260,-5.337
0.292,0.055,0.258,-5.337
0.252,0.054,0.253,-5.337
0.216,0.056,0.253,-5.337
0.208,0.054,0.256,-5.337
0.209,0.057,0.259,-5.337
0.213,0.057,0.260,-5.337
0.214,0.058,0.260,-5.337
0.173,0.058,0.260,-5.337
0.182,0.057,0.258,-5.337
0.215,0.053,0.255,-5.337
0.236,0.055,0.254,-5.337
0.238,0.055,0.254,-5.337
0.274,0.053,0.256,-5.337
0.277,0.054,0.259,-5.337
0.232,0.056,0.260,-5.337
0.227,0.054,0.261,-5.337
0.250,0.053,0.257,-5.337
0.226,0.052,0.259,-5.337
0.228,0.055,0.260,-5.337
0.189,0.057,0.259,-5.337
0.151,0.060,0.260,-5.337
0.174,0.057,0.262,-5.337
0.202,0.055,0.260,-5.337
0.212,0.060,0.259,-5.337
0.179,0.062,0.256,-5.337
0.159,0.061,0.254,-5.337
0.120,0.060,0.254,-5.337
0.120,0.059,0.255,-5.337
0.249,0.052,0.256,-5.337
0.276,0.053,0.260,-5.337
0.250,0.056,0.264,-5.337
0.224,0.058,0.265,-5.337
0.173,0.061,0.264,-5.337
0.179,0.063,0.263,-5.337
0.220,0.062,0.260,-5.337
0.285,0.060,0.257,-5.337
0.300,0.054,0.255,-5.337
0.201,0.059,0.254,-5.337
0.159,0.061,0.258,-5.337
0.191,0.061,0.261,-5.337
0.237,0.060,0.262,-5.337
0.267,0.057,0.258,-5.337
0.217,0.057,0.257,-5.337
0.256,0.051,0.257,-5.337
0.290,0.053,0.260,-5.337
0.264,0.056,0.259,-5.337
0.227,0.060,0.258,-5.337
0.230,0.054,0.257,-5.337
0.242,0.052,0.260,-5.337
0.235,0.055,0.261,-5.337
0.249,0.053,0.258,-5.337
0.289,0.050,0.256,-5.337
0.301,0.051,0.260,-5.337
0.236,0.051,0.261,-5.337
0.187,0.055,0.261,-5.337
0.206,0.056,0.256,-5.337
0.225,0.051,0.252,-5.337
0.265,0.048,0.252,-5.337
0.299,0.046,0.254,-5.337
0.295,0.048,0.261,-5.337
0.213,0.046,0.263,-5.337
0.192,0.045,0.261,-5.337
0.220,0.046,0.257,-5.337
0.267,0.048,0.256,-5.337
0.218,0.045,0.254,-5.337
0.178,0.049,0.254,-5.337
0.090,0.054,0.252,-5.337
0.063,0.056,0.258,-5.337
0.089,0.055,0.265,-5.337
0.142,0.055,0.265,-5.337
0.197,0.053,0.260,-5.337
0.239,0.051,0.257,-5.337
0.266,0.050,0.258,-5.337
0.283,0.051,0.261,-5.337
0.309,0.052,0.262,-5.337
0.330,0.054,0.259,-5.337
0.310,0.053,0.256,-5.337
0.291,0.052,0.257,-5.337
0.290,0.049,0.258,-5.337
0.311,0.049,0.257,-5.337
0.276,0.049,0.256,-5.337
0.211,0.050,0.254,-5.337
0.137,0.051,0.257,-5.337
0.132,0.051,0.259,-5.337
0.162,0.051,0.258,-5.337
0.162,0.050,0.255,-5.337
0.202,0.050,0.254,-5.337
0.207,0.047,0.254,-5.337
0.182,0.051,0.254,-5.337
0.141,0.052,0.255,-5.337
0.143,0.051,0.258,-5.337
0.200,0.048,0.259,-5.337
0.193,0.049,0.260,-5.337
0.153,0.048,0.258,-5.337
0.155,0.050,0.259,-5.337
0.182,0.051,0.258,-5.337
0.239,0.044,0.255,-5.337
0.255,0.043,0.257,-5.337
0.220,0.045,0.259,-5.337
0.264,0.046,0.258,-5.337
0.230,0.045,0.253,-5.337
0.190,0.043,0.251,-5.337
0.245,0.045,0.255,-5.337
0.269,0.050,0.262,-5.337
0.207,0.048,0.260,-5.337
0.156,0.049,0.258,-5.337
0.165,0.046,0.257,-5.337
0.189,0.041,0.253,-5.337
0.227,0.044,0.252,-5.337
0.200,0.045,0.256,-5.337
0.225,0.042,0.260,-5.337
0.281,0.041,0.259,-5.337
0.300,0.040,0.259,-5.337
0.276,0.043,0.260,-5.337
0.190,0.045,0.260,-5.337
0.209,0.046,0.258,-5.337
0.174,0.047,0.254,-5.337
0.175,0.049,0.249,-5.337
0.241,0.047,0.252,-5.337
0.246,0.043,0.256,-5.337
0.251,0.045,0.259,-5.337
0.248,0.050,0.259,-5.337
0.245,0.046,0.261,-5.337
0.276,0.040,0.259,-5.337
0.284,0.042,0.258,-5.337
0.288,0.043,0.254,-5.337
0.197,0.045,0.254,-5.337
0.175,0.045,0.255,-5.337
0.185,0.045,0.259,-5.337
0.249,0.045,0.261,-5.337
0.210,0.043,0.258,-5.337
0.227,0.038,0.255,-5.337
0.237,0.040,0.257,-5.337
0.150,0.043,0.258,-5.337
0.114,0.041,0.259,-5.337
0.189,0.038,0.260,-5.337
0.219,0.037,0.259,-5.337
0.186,0.036,0.258,-5.337
0.174,0.038,0.261,-5.337
0.204,0.042,0.260,-5.337
0.180,0.043,0.259,-5.337
0.175,0.040,0.257,-5.337
0.247,0.040,0.257,-5.337
0.225,0.044,0.258,-5.337
0.166,0.043,0.257,-5.337
0.187,0.040,0.257,-5.337
0.183,0.040,0.254,-5.337
0.174,0.040,0.254,-5.337
0.197,0.040,0.256,-5.337
0.248,0.039,0.257,-5.337
0.205,0.042,0.258,-5.337
0.178,0.040,0.258,-5.337
0.144,0.040,0.260,-5.337
0.181,0.040,0.260,-5.337
0.221,0.039,0.261,-5.337
0.174,0.041,0.262,-5.337
0.136,0.040,0.262,-5.337
0.159,0.040,0.259,-5.337
0.191,0.039,0.255,-5.337
0.174,0.038,0.253,-5.337
0.203,0.039,0.257,-5.337
0.162,0.043,0.259,-5.337
0.145,0.040,0.258,-5.337
0.172,0.036,0.257,-5.337
0.207,0.036,0.261,-5.337
0.167,0.041,0.259,-5.337
0.195,0.043,0.257,-5.337
0.224,0.042,0.257,-5.337
0.202,0.038,0.255,-5.337
0.190,0.039,0.254,-5.337
0.136,0.036,0.258,-5.337
0.134,0.036,0.261,-5.337
0.133,0.038,0.261,-5.337
0.130,0.038,0.261,-5.337
0.174,0.041,0.261,-5.337
0.181,0.044,0.259,-5.337
0.191,0.042,0.256,-5.337
0.239,0.040,0.255,-5.337
0.286,0.041,0.257,-5.337
0.280,0.042,0.260,-5.337
0.199,0.045,0.262,-5.337
0.169,0.043,0.260,-5.337
0.196,0.040,0.258,-5.337
0.205,0.042,0.256,-5.337
0.194,0.043,0.257,-5.337
0.174,0.045,0.262,-5.337
0.168,0.046,0.261,-5.337
0.180,0.044,0.264,-5.337
0.216,0.046,0.261,-5.337
0.141,0.046,0.256,-5.337
0.106,0.043,0.251,-5.337
0.133,0.040,0.255,-5.337
0.161,0.037,0.259,-5.337
0.164,0.040,0.261,-5.337
0.199,0.037,0.258,-5.337
0.207,0.039,0.258,-5.337
0.231,0.038,0.259,-5.337
0.241,0.039,0.259,-5.337
0.184,0.039,0.259,-5.337
0.121,0.041,0.262,-5.337
0.135,0.038,0.264,-5.337
0.231,0.033,0.262,-5.337
0.210,0.039,0.258,-5.337
0.174,0.039,0.259,-5.337
0.220,0.038,0.259,-5.337
0.164,0.044,0.254,-5.337
0.104,0.044,0.255,-5.337
0.097,0.045,0.257,-5.337
0.155,0.041,0.260,-5.337
0.248,0.032,0.259,-5.337
0.285,0.035,0.259,-5.337
0.245,0.040,0.256,-5.337
0.168,0.043,0.257,-5.337
0.146,0.042,0.260,-5.337
0.189,0.042,0.260,-5.337
0.174,0.041,0.257,-5.337
0.157,0.043,0.254,-5.337
0.120,0.049,0.254,-5.337
0.089,0.048,0.256,-5.337
0.150,0.041,0.255,-5.337
0.178,0.042,0.257,-5.337
0.174,0.042,0.260,-5.337
0.165,0.044,0.262,-5.337
0.132,0.045,0.261,-5.337
0.116,0.043,0.258,-5.337
0.127,0.041,0.256,-5.337
0.193,0.038,0.258,-5.337
0.167,0.041,0.261,-5.337
0.118,0.044,0.256,-5.337
0.188,0.042,0.257,-5.337
0.287,0.039,0.258,-5.337
0.247,0.039,0.254,-5.337
0.149,0.039,0.251,-5.337
0.165,0.037,0.252,-5.337
0.238,0.034,0.257,-5.337
0.240,0.035,0.255,-5.337
0.239,0.039,0.255,-5.337
0.213,0.042,0.257,-5.337
0.159,0.042,0.256,-5.337
0.180,0.038,0.256,-5.337
0.230,0.038,0.255,-5.337
0.202,0.038,0.257,-5.337
0.205,0.037,0.259,-5.337
0.257,0.036,0.258,-5.337
0.208,0.038,0.260,-5.337
0.206,0.039,0.260,-5.337
0.215,0.036,0.259,-5.337
0.220,0.034,0.256,-5.337
0.189,0.033,0.259,-5.337
0.069,0.039,0.258,-5.337
0.061,0.042,0.257,-5.337
0.137,0.043,0.254,-5.337
0.154,0.040,0.252,-5.337
0.174,0.038,0.255,-5.337
0.203,0.037,0.258,-5.337
0.129,0.036,0.258,-5.337
0.112,0.038,0.256,-5.337
0.150,0.034,0.258,-5.337
0.242,0.032,0.260,-5.337
0.265,0.032,0.261,-5.337
0.223,0.035,0.259,-5.337
0.237,0.034,0.252,-5.337
0.231,0.036,0.253,-5.337
0.176,0.035,0.257,-5.337
0.178,0.036,0.256,-5.337
0.185,0.035,0.254,-5.337
0.224,0.034,0.253,-5.337
0.243,0.032,0.257,-5.337
0.237,0.035,0.260,-5.337
0.187,0.035,0.258,-5.337
0.151,0.041,0.256,-5.337
0.161,0.039,0.254,-5.337
0.190,0.033,0.256,-5.337
0.218,0.033,0.257,-5.337
0.175,0.034,0.257,-5.337
0.162,0.038,0.257,-5.337
0.147,0.039,0.259,-5.337
0.194,0.038,0.261,-5.337
0.208,0.038,0.262,-5.337
0.226,0.037,0.262,-5.337
0.203,0.040,0.258,-5.337
0.140,0.045,0.254,-5.337
0.127,0.044,0.256,-5.337
0.154,0.043,0.255,-5.337
0.164,0.042,0.251,-5.337
0.160,0.038,0.250,-5.337
0.147,0.039,0.254,-5.337
0.151,0.038,0.258,-5.337
0.143,0.040,0.260,-5.337
0.137,0.041,0.257,-5.337
0.132,0.041,0.255,-5.337
0.134,0.044,0.256,-5.337
0.203,0.041,0.255,-5.337
0.163,0.041,0.258,-5.337
0.135,0.045,0.261,-5.337
0.174,0.046,0.260,-5.337
0.122,0.045,0.260,-5.337
0.127,0.040,0.259,-5.337
0.173,0.037,0.258,-5.337
0.173,0.038,0.255,-5.337
0.151,0.043,0.255,-5.337
0.139,0.044,0.257,-5.337
0.187,0.042,0.260,-5.337
0.190,0.041,0.253,-5.337
0.209,0.038,0.251,-5.337
0.262,0.038,0.254,-5.337
0.290,0.039,0.257,-5.337
0.220,0.042,0.258,-5.337
0.069,0.049,0.257,-5.337
0.079,0.047,0.257,-5.337
0.110,0.048,0.259,-5.337
0.072,0.049,0.258,-5.337
0.103,0.046,0.257,-5.337
0.117,0.045,0.262,-5.337
0.128,0.045,0.261,-5.337
0.175,0.044,0.256,-5.337
0.236,0.039,0.257,-5.337
0.265,0.038,0.259,-5.337
0.251,0.040,0.259,-5.337
0.219,0.037,0.260,-5.337
0.231,0.037,0.261,-5.337
0.208,0.043,0.262,-5.337
0.166,0.045,0.260,-5.337
0.170,0.044,0.255,-5.337
0.232,0.041,0.254,-5.337
0.246,0.041,0.255,-5.337
0.216,0.042,0.255,-5.337
0.194,0.044,0.254,-5.337
0.216,0.045,0.255,-5.337
0.192,0.046,0.258,-5.337
0.204,0.048,0.262,-5.337
0.226,0.046,0.259,-5.337
0.175,0.047,0.257,-5.337
0.136,0.049,0.255,-5.337
0.171,0.045,0.255,-5.337
0.232,0.047,0.256,-5.337
0.169,0.051,0.257,-5.337
0.104,0.049,0.257,-5.337
0.161,0.048,0.259,-5.337
0.217,0.048,0.258,-5.337
0.170,0.051,0.259,-5.337
0.166,0.050,0.259,-5.337
0.194,0.050,0.259,-5.337
0.152,0.049,0.260,-5.337
0.158,0.048,0.258,-5.337
0.172,0.046,0.254,-5.337
0.170,0.050,0.254,-5.337
0.185,0.050,0.254,-5.337
0.155,0.053,0.255,-5.337
0.152,0.053,0.259,-5.337
0.148,0.051,0.258,-5.337
0.129,0.049,0.255,-5.337
0.155,0.051,0.252,-5.337
0.162,0.053,0.254,-5.337
0.180,0.054,0.255,-5.337
0.156,0.055,0.254,-5.337
0.136,0.055,0.255,-5.337
0.133,0.055,0.256,-5.337
0.167,0.053,0.257,-5.337
0.183,0.048,0.258,-5.337
0.191,0.047,0.260,-5.337
0.171,0.050,0.259,-5.337
0.221,0.049,0.258,-5.337
0.254,0.049,0.255,-5.337
0.186,0.051,0.253,-5.337
0.141,0.051,0.252,-5.337
0.165,0.053,0.254,-5.337
0.165,0.053,0.253,-5.337
0.179,0.050,0.256,-5.337
0.143,0.051,0.257,-5.337
0.164,0.049,0.254,-5.337
0.160,0.050,0.252,-5.337
0.155,0.053,0.258,-5.337
0.176,0.050,0.257,-5.337
0.216,0.047,0.254,-5.337
0.263,0.045,0.255,-5.337
0.264,0.046,0.259,-5.337
0.233,0.047,0.259,-5.337
0.170,0.053,0.257,-5.337
0.129,0.057,0.254,-5.337
0.069,0.058,0.250,-5.337
0.116,0.053,0.252,-5.337
0.183,0.051,0.255,-5.337
0.229,0.053,0.258,-5.337
0.272,0.056,0.259,-5.337
0.266,0.056,0.257,-5.337
0.253,0.054,0.258,-5.337
0.212,0.055,0.260,-5.337
0.193,0.057,0.257,-5.337
0.216,0.058,0.255,-5.337
0.202,0.060,0.259,-5.337
0.164,0.061,0.258,-5.337
0.176,0.056,0.253,-5.337
0.214,0.054,0.256,-5.337
0.235,0.054,0.259,-5.337
0.211,0.052,0.260,-5.337
0.164,0.053,0.255,-5.337
0.159,0.054,0.255,-5.337
0.258,0.052,0.251,-5.337
0.316,0.051,0.251,-5.337
0.254,0.054,0.249,-5.337
0.205,0.059,0.250,-5.337
0.239,0.057,0.254,-5.337
0.136,0.060,0.261,-5.337
0.055,0.058,0.264,-5.337
0.096,0.057,0.263,-5.337
0.115,0.055,0.260,-5.337
0.194,0.053,0.255,-5.337
0.183,0.056,0.252,-5.337
0.169,0.056,0.251,-5.337
0.198,0.054,0.251,-5.337
0.245,0.052,0.255,-5.337
0.287,0.049,0.260,-5.337
0.242,0.048,0.263,-5.337
0.118,0.051,0.262,-5.337
0.107,0.051,0.256,-5.337
0.228,0.049,0.251,-5.337
0.277,0.055,0.249,-5.337
0.227,0.055,0.250,-5.337
0.135,0.057,0.251,-5.337
0.168,0.055,0.255,-5.337
0.211,0.056,0.258,-5.337
0.242,0.057,0.259,-5.337
0.251,0.057,0.260,-5.337
0.209,0.061,0.262,-5.337
0.170,0.065,0.260,-5.337
0.206,0.063,0.260,-5.337
0.203,0.064,0.260,-5.337
0.143,0.063,0.257,-5.337
0.195,0.061,0.256,-5.337
0.261,0.059,0.257,-5.337
0.261,0.059,0.260,-5.337
0.258,0.056,0.258,-5.337
0.229,0.056,0.255,-5.337
0.249,0.056,0.255,-5.337
0.225,0.056,0.257,-5.337
0.185,0.056,0.255,-5.337
0.227,0.062,0.258,-5.337
0.254,0.063,0.260,-5.337
0.211,0.061,0.260,-5.337
0.190,0.058,0.256,-5.337
0.162,0.059,0.255,-5.337
0.184,0.061,0.255,-5.337
0.213,0.061,0.258,-5.337
0.233,0.056,0.258,-5.337
0.253,0.058,0.259,-5.337
0.227,0.061,0.258,-5.337
0.153,0.059,0.256,-5.337
0.137,0.059,0.253,-5.337
0.146,0.060,0.253,-5.337
0.220,0.059,0.255,-5.337
0.248,0.056,0.259,-5.337
0.264,0.052,0.264,-5.337
0.256,0.053,0.261,-5.337
0.202,0.053,0.255,-5.337
0.189,0.054,0.254,-5.337
0.142,0.055,0.260,-5.337
0.132,0.052,0.260,-5.337
0.178,0.053,0.260,-5.337
0.238,0.052,0.258,-5.337
0.337,0.045,0.260,-5.337
0.282,0.053,0.260,-5.337
0.179,0.060,0.256,-5.337
0.156,0.060,0.255,-5.337
0.184,0.060,0.257,-5.337
0.176,0.057,0.259,-5.337
0.182,0.058,0.256,-5.337
0.182,0.057,0.252,-5.337
0.245,0.055,0.250,-5.337
0.297,0.055,0.255,-5.337
0.312,0.054,0.260,-5.337
0.242,0.053,0.258,-5.337
0.169,0.054,0.257,-5.337
0.219,0.053,0.254,-5.337
0.277,0.053,0.252,-5.337
0.243,0.058,0.256,-5.337
0.195,0.062,0.259,-5.337
0.213,0.063,0.259,-5.337
0.224,0.060,0.254,-5.337
0.170,0.060,0.255,-5.337
0.160,0.060,0.255,-5.337
0.204,0.062,0.258,-5.337
0.201,0.062,0.260,-5.337
0.181,0.063,0.261,-5.337
0.182,0.062,0.256,-5.337
0.174,0.064,0.252,-5.337
0.200,0.065,0.253,-5.337
0.193,0.066,0.254,-5.337
0.232,0.063,0.255,-5.337
0.257,0.061,0.254,-5.337
0.249,0.058,0.257,-5.337
0.230,0.058,0.258,-5.337
0.267,0.053,0.254,-5.337
0.285,0.057,0.253,-5.337
0.258,0.061,0.258,-5.337
0.278,0.060,0.258,-5.337
0.210,0.062,0.258,-5.337
0.163,0.061,0.256,-5.337
0.149,0.062,0.254,-5.337
0.186,0.062,0.254,-5.337
0.248,0.062,0.254,-5.337
0.228,0.062,0.255,-5.337
0.215,0.060,0.261,-5.337
0.169,0.060,0.266,-5.337
0.156,0.063,0.264,-5.337
0.204,0.061,0.260,-5.337
0.281,0.059,0.254,-5.337
0.286,0.061,0.251,-5.337
0.230,0.065,0.253,-5.337
0.208,0.065,0.255,-5.337
0.243,0.064,0.259,-5.337
0.288,0.057,0.259,-5.337
0.306,0.055,0.258,-5.337
0.265,0.058,0.257,-5.337
0.235,0.060,0.254,-5.337
0.243,0.059,0.255,-5.337
0.234,0.059,0.257,-5.337
0.207,0.060,0.256,-5.337
0.239,0.061,0.255,-5.337
0.232,0.061,0.254,-5.337
0.155,0.059,0.254,-5.337
0.153,0.059,0.258,-5.337
0.187,0.058,0.256,-5.337
0.197,0.057,0.251,-5.337
0.202,0.057,0.249,-5.337
0.184,0.059,0.251,-5.337
0.197,0.059,0.257,-5.337
0.253,0.058,0.257,-5.337
0.226,0.056,0.254,-5.337
0.224,0.056,0.255,-5.337
0.180,0.057,0.255,-5.337
0.153,0.055,0.255,-5.337
0.238,0.055,0.255,-5.337
0.247,0.057,0.257,-5.337
0.222,0.055,0.258,-5.337
0.311,0.049,0.255,-5.337
0.338,0.048,0.254,-5.337
0.327,0.051,0.256,-5.337
0.231,0.055,0.260,-5.337
0.219,0.053,0.259,-5.337
0.248,0.049,0.259,-5.337
0.211,0.047,0.260,-5.337
0.208,0.050,0.263,-5.337
0.208,0.053,0.259,-5.337
0.210,0.053,0.251,-5.337
0.218,0.052,0.250,-5.337
0.184,0.054,0.255,-5.337
0.223,0.052,0.260,-5.337
0.218,0.052,0.263,-5.337
0.238,0.051,0.259,-5.337
0.245,0.048,0.257,-5.337
0.314,0.047,0.254,-5.337
0.352,0.049,0.255,-5.337
0.266,0.050,0.255,-5.337
0.249,0.051,0.252,-5.337
0.259,0.051,0.249,-5.337
0.262,0.053,0.255,-5.337
0.239,0.052,0.262,-5.337
0.223,0.052,0.264,-5.337
0.200,0.055,0.263,-5.337
0.255,0.052,0.258,-5.337
0.271,0.048,0.256,-5.337
0.176,0.051,0.257,-5.337
0.092,0.056,0.259,-5.337
0.130,0.051,0.257,-5.337
0.205,0.051,0.256,-5.337
0.233,0.050,0.256,-5.337
0.201,0.053,0.259,-5.337
0.235,0.052,0.260,-5.337
0.243,0.053,0.257,-5.337
0.229,0.054,0.258,-5.337
0.169,0.057,0.254,-5.337
0.165,0.053,0.251,-5.337
0.182,0.051,0.252,-5.337
0.182,0.050,0.253,-5.337
0.200,0.050,0.257,-5.337
0.234,0.051,0.260,-5.337
0.213,0.054,0.256,-5.337
0.143,0.055,0.255,-5.337
0.155,0.052,0.254,-5.337
0.172,0.053,0.257,-5.337
0.191,0.051,0.261,-5.337
0.162,0.048,0.261,-5.337
0.229,0.049,0.258,-5.337
0.288,0.053,0.257,-5.337
0.212,0.052,0.256,-5.337
0.117,0.054,0.260,-5.337
0.124,0.050,0.261,-5.337
0.232,0.050,0.258,-5.337
0.279,0.049,0.254,-5.337
0.293,0.048,0.255,-5.337
0.254,0.046,0.258,-5.337
0.195,0.050,0.258,-5.337
0.187,0.048,0.256,-5.337
0.197,0.049,0.255,-5.337
0.293,0.048,0.256,-5.337
0.364,0.049,0.254,-5.337
0.369,0.048,0.257,-5.337
0.291,0.047,0.257,-5.337
0.258,0.046,0.256,-5.337
0.232,0.048,0.256,-5.337
0.160,0.049,0.256,-5.337
0.067,0.052,0.256,-5.337
0.066,0.051,0.260,-5.337
0.185,0.048,0.262,-5.337
0.218,0.046,0.262,-5.337
0.189,0.047,0.262,-5.337
0.227,0.047,0.261,-5.337
0.265,0.051,0.258,-5.337
0.216,0.051,0.255,-5.337
0.155,0.048,0.256,-5.337
0.168,0.048,0.257,-5.337
0.195,0.046,0.258,-5.337
0.278,0.044,0.258,-5.337
0.294,0.041,0.257,-5.337
0.248,0.041,0.256,-5.337
0.251,0.037,0.255,-5.337
0.221,0.043,0.254,-5.337
0.233,0.044,0.250,-5.337
0.197,0.045,0.251,-5.337
0.205,0.046,0.254,-5.337
0.261,0.043,0.255,-5.337
0.246,0.043,0.257,-5.337
0.231,0.042,0.256,-5.337
0.220,0.041,0.256,-5.337
0.210,0.042,0.259,-5.337
0.232,0.046,0.261,-5.337
0.184,0.046,0.260,-5.337
0.137,0.045,0.260,-5.337
0.154,0.045,0.260,-5.337
0.185,0.044,0.260,-5.337
0.216,0.041,0.260,-5.337
0.240,0.042,0.257,-5.337
0.194,0.044,0.254,-5.337
0.148,0.044,0.252,-5.337
0.169,0.043,0.252,-5.337
0.198,0.050,0.253,-5.337
0.183,0.051,0.256,-5.337
0.194,0.049,0.256,-5.337
0.180,0.046,0.257,-5.337
0.148,0.045,0.259,-5.337
0.097,0.045,0.262,-5.337
0.135,0.042,0.257,-5.337
0.221,0.039,0.254,-5.337
0.255,0.037,0.255,-5.337
0.208,0.040,0.258,-5.337
0.201,0.041,0.256,-5.337
0.187,0.046,0.254,-5.337
0.222,0.046,0.253,-5.337
0.245,0.043,0.254,-5.337
0.209,0.042,0.256,-5.337
0.176,0.040,0.255,-5.337
0.217,0.036,0.255,-5.337
0.264,0.035,0.256,-5.337
0.268,0.036,0.258,-5.337
0.206,0.037,0.256,-5.337
0.185,0.037,0.254,-5.337
0.271,0.038,0.253,-5.337
0.246,0.043,0.256,-5.337
0.173,0.043,0.256,-5.337
0.100,0.045,0.255,-5.337
0.114,0.045,0.255,-5.337
0.141,0.043,0.256,-5.337
0.131,0.040,0.257,-5.337
0.232,0.038,0.258,-5.337
0.275,0.038,0.255,-5.337
0.186,0.043,0.257,-5.337
0.125,0.044,0.259,-5.337
0.213,0.042,0.260,-5.337
0.181,0.042,0.256,-5.337
0.116,0.044,0.252,-5.337
0.081,0.043,0.251,-5.337
0.096,0.046,0.254,-5.337
0.132,0.044,0.258,-5.337
0.160,0.042,0.262,-5.337
0.230,0.041,0.261,-5.337
0.182,0.042,0.259,-5.337
0.094,0.043,0.252,-5.337
0.149,0.045,0.255,-5.337
0.237,0.046,0.257,-5.337
0.260,0.050,0.252,-5.337
0.187,0.050,0.252,-5.337
0.209,0.047,0.257,-5.337
0.242,0.044,0.259,-5.337
0.247,0.043,0.257,-5.337
0.177,0.043,0.259,-5.337
0.116,0.044,0.260,-5.337
0.193,0.042,0.261,-5.337
0.281,0.040,0.259,-5.337
0.210,0.044,0.257,-5.337
0.155,0.043,0.254,-5.337
0.180,0.042,0.255,-5.337
0.215,0.043,0.255,-5.337
0.214,0.044,0.257,-5.337
0.167,0.041,0.256,-5.337
0.152,0.040,0.254,-5.337
0.213,0.040,0.257,-5.337
0.211,0.041,0.261,-5.337
0.196,0.040,0.263,-5.337
0.219,0.040,0.265,-5.337
0.233,0.044,0.263,-5.337
0.179,0.044,0.259,-5.337
0.166,0.043,0.252,-5.337
0.182,0.043,0.248,-5.337
0.182,0.043,0.250,-5.337
0.191,0.044,0.254,-5.337
0.187,0.045,0.255,-5.337
0.211,0.046,0.255,-5.337
0.236,0.046,0.255,-5.337
0.259,0.042,0.254,-5.337
0.238,0.041,0.257,-5.337
0.208,0.044,0.258,-5.337
0.143,0.047,0.257,-5.337
0.121,0.045,0.255,-5.337
0.187,0.044,0.256,-5.337
0.206,0.044,0.260,-5.337
0.147,0.049,0.260,-5.337
0.143,0.045,0.260,-5.337
0.155,0.045,0.259,-5.337
0.198,0.042,0.259,-5.337
0.229,0.046,0.257,-5.337
0.154,0.050,0.258,-5.337
0.177,0.047,0.258,-5.337
0.221,0.046,0.257,-5.337
0.196,0.043,0.255,-5.337
0.160,0.040,0.255,-5.337
0.147,0.041,0.257,-5.337
0.159,0.043,0.259,-5.337
0.232,0.040,0.259,-5.337
0.216,0.042,0.258,-5.337
0.171,0.043,0.254,-5.337
0.161,0.046,0.255,-5.337
0.223,0.042,0.257,-5.337
0.305,0.038,0.258,-5.337
0.195,0.042,0.256,-5.337
0.151,0.042,0.257,-5.337
0.191,0.038,0.255,-5.337
0.173,0.039,0.252,-5.337
0.134,0.040,0.252,-5.337
0.118,0.038,0.254,-5.337
0.168,0.040,0.260,-5.337
0.212,0.039,0.263,-5.337
0.203,0.042,0.257,-5.337
0.132,0.044,0.253,-5.337
0.124,0.044,0.254,-5.337
0.233,0.043,0.259,-5.337
0.236,0.044,0.263,-5.337
0.101,0.046,0.256,-5.337
0.117,0.042,0.253,-5.337
0.210,0.041,0.255,-5.337
0.228,0.040,0.257,-5.337
0.159,0.043,0.255,-5.337
0.144,0.042,0.254,-5.337
0.175,0.041,0.252,-5.337
0.170,0.042,0.255,-5.337
0.196,0.040,0.258,-5.337
0.194,0.041,0.259,-5.337
0.149,0.043,0.259,-5.337
0.121,0.046,0.257,-5.337
0.163,0.046,0.257,-5.337
0.185,0.043,0.258,-5.337
0.173,0.039,0.258,-5.337
0.189,0.038,0.254,-5.337
0.220,0.039,0.253,-5.337
0.154,0.039,0.258,-5.337
0.105,0.041,0.258,-5.337
0.130,0.040,0.253,-5.337
0.215,0.035,0.255,-5.337
0.242,0.038,0.259,-5.337
0.159,0.037,0.260,-5.337
0.107,0.040,0.257,-5.337
0.078,0.040,0.254,-5.337
0.059,0.041,0.251,-5.337
0.105,0.041,0.254,-5.337
0.127,0.042,0.257,-5.337
0.144,0.043,0.260,-5.337
0.155,0.043,0.259,-5.337
0.143,0.045,0.255,-5.337
0.184,0.045,0.253,-5.337
0.253,0.043,0.257,-5.337
0.313,0.040,0.257,-5.337
0.251,0.041,0.256,-5.337
0.183,0.042,0.254,-5.337
0.140,0.041,0.253,-5.337
0.154,0.040,0.254,-5.337
0.204,0.036,0.254,-5.337
0.201,0.036,0.256,-5.337
0.217,0.042,0.256,-5.337
0.248,0.042,0.258,-5.337
0.248,0.040,0.258,-5.337
0.227,0.040,0.257,-5.337
0.142,0.044,0.255,-5.337
0.115,0.049,0.255,-5.337
0.105,0.050,0.253,-5.337
0.101,0.047,0.253,-5.337
0.222,0.045,0.255,-5.337
0.294,0.044,0.259,-5.337
0.203,0.048,0.261,-5.337
0.170,0.050,0.257,-5.337
0.239,0.046,0.254,-5.337
0.256,0.048,0.254,-5.337
0.192,0.051,0.253,-5.337
0.186,0.053,0.254,-5.337
0.206,0.055,0.257,-5.337
0.188,0.055,0.261,-5.337
0.175,0.054,0.260,-5.337
0.163,0.051,0.260,-5.337
0.176,0.052,0.258,-5.337
0.170,0.051,0.254,-5.337
0.147,0.052,0.251,-5.337
0.110,0.053,0.249,-5.337
0.184,0.049,0.255,-5.337
0.195,0.051,0.257,-5.337
0.143,0.052,0.258,-5.337
0.121,0.050,0.257,-5.337
0.162,0.051,0.257,-5.337
0.204,0.051,0.254,-5.337
0.189,0.053,0.254,-5.337
0.168,0.046,0.253,-5.337
0.172,0.043,0.255,-5.337
0.214,0.043,0.260,-5.337
0.199,0.045,0.263,-5.337
0.165,0.045,0.261,-5.337
0.196,0.044,0.257,-5.337
0.265,0.043,0.257,-5.337
0.276,0.046,0.258,-5.337
0.184,0.050,0.256,-5.337
0.127,0.052,0.254,-5.337
0.155,0.050,0.255,-5.337
0.174,0.046,0.256,-5.337
0.209,0.045,0.260,-5.337
0.167,0.049,0.260,-5.337
0.147,0.050,0.260,-5.337
0.160,0.047,0.254,-5.337
0.190,0.046,0.251,-5.337
0.213,0.046,0.250,-5.337
0.193,0.053,0.253,-5.337
0.230,0.051,0.256,-5.337
0.235,0.050,0.261,-5.337
0.170,0.051,0.261,-5.337
0.116,0.049,0.259,-5.337
0.165,0.048,0.256,-5.337
0.168,0.051,0.255,-5.337
0.124,0.051,0.256,-5.337
0.166,0.051,0.259,-5.337
0.218,0.049,0.261,-5.337
0.228,0.048,0.261,-5.337
0.212,0.054,0.255,-5.337
0.214,0.053,0.253,-5.337
0.214,0.051,0.259,-5.337
0.221,0.049,0.260,-5.337
0.237,0.052,0.259,-5.337
0.193,0.053,0.261,-5.337
0.182,0.054,0.263,-5.337
0.192,0.053,0.261,-5.337
0.225,0.054,0.259,-5.337
0.177,0.058,0.252,-5.337
0.067,0.058,0.255,-5.337
0.111,0.057,0.258,-5.337
0.193,0.053,0.259,-5.337
0.245,0.044,0.253,-5.337
0.205,0.048,0.254,-5.337
0.217,0.049,0.257,-5.337
0.255,0.049,0.259,-5.337
0.216,0.050,0.256,-5.337
0.139,0.050,0.256,-5.337
0.149,0.048,0.259,-5.337
0.122,0.050,0.261,-5.337
0.161,0.051,0.257,-5.337
0.244,0.052,0.254,-5.337
0.238,0.054,0.254,-5.337
0.229,0.056,0.256,-5.337
0.211,0.055,0.260,-5.337
0.208,0.056,0.261,-5.337
0.211,0.056,0.262,-5.337
0.202,0.054,0.260,-5.337
0.161,0.056,0.258,-5.337
0.194,0.055,0.257,-5.337
0.209,0.055,0.258,-5.337
0.212,0.052,0.258,-5.337
0.224,0.053,0.256,-5.337
0.160,0.053,0.261,-5.337
0.172,0.057,0.268,-5.337
0.233,0.057,0.267,-5.337
0.224,0.054,0.259,-5.337
0.200,0.050,0.254,-5.337
0.251,0.048,0.253,-5.337
0.295,0.048,0.250,-5.337
0.243,0.051,0.253,-5.337
0.199,0.052,0.258,-5.337
0.184,0.055,0.259,-5.337
0.209,0.057,0.256,-5.337
0.225,0.055,0.256,-5.337
0.252,0.054,0.259,-5.337
0.172,0.056,0.256,-5.337
0.167,0.056,0.254,-5.337
0.217,0.056,0.253,-5.337
0.220,0.057,0.256,-5.337
0.179,0.061,0.261,-5.337
0.196,0.058,0.264,-5.337
0.253,0.054,0.261,-5.337
0.244,0.058,0.259,-5.337
0.170,0.062,0.255,-5.337
0.158,0.059,0.253,-5.337
0.263,0.056,0.253,-5.337
0.237,0.058,0.255,-5.337
0.182,0.059,0.257,-5.337
0.197,0.061,0.257,-5.337
0.265,0.061,0.255,-5.337
0.262,0.063,0.257,-5.337
0.230,0.060,0.258,-5.337
0.205,0.064,0.257,-5.337
0.154,0.067,0.257,-5.337
0.231,0.061,0.257,-5.337
0.284,0.060,0.256,-5.337
0.231,0.059,0.256,-5.337
0.220,0.058,0.258,-5.337
0.244,0.057,0.253,-5.337
0.269,0.061,0.254,-5.337
0.255,0.056,0.257,-5.337
0.248,0.053,0.258,-5.337
0.173,0.056,0.256,-5.337
0.186,0.059,0.254,-5.337
0.255,0.059,0.256,-5.337
0.307,0.057,0.259,-5.337
0.239,0.059,0.256,-5.337
0.221,0.061,0.255,-5.337
0.239,0.061,0.255,-5.337
0.174,0.061,0.258,-5.337
0.195,0.060,0.260,-5.337
0.223,0.061,0.258,-5.337
0.211,0.062,0.255,-5.337
0.155,0.065,0.255,-5.337
0.154,0.063,0.260,-5.337
0.210,0.059,0.259,-5.337
0.278,0.059,0.257,-5.337
0.253,0.060,0.256,-5.337
0.239,0.059,0.256,-5.337
0.324,0.055,0.253,-5.337
0.310,0.063,0.253,-5.337
0.245,0.061,0.255,-5.337
0.223,0.060,0.259,-5.337
0.198,0.060,0.260,-5.337
0.178,0.062,0.259,-5.337
0.196,0.064,0.260,-5.337
0.184,0.065,0.260,-5.337
0.230,0.064,0.255,-5.337
0.308,0.062,0.253,-5.337
0.324,0.059,0.258,-5.337
0.244,0.061,0.261,-5.337
0.156,0.064,0.261,-5.337
0.155,0.067,0.259,-5.337
0.241,0.064,0.258,-5.337
0.241,0.065,0.255,-5.337
0.228,0.069,0.255,-5.337
0.234,0.067,0.255,-5.337
0.219,0.064,0.256,-5.337
0.233,0.064,0.258,-5.337
0.218,0.063,0.261,-5.337
0.182,0.067,0.261,-5.337
0.198,0.068,0.261,-5.337
0.266,0.066,0.259,-5.337
0.261,0.068,0.258,-5.337
0.230,0.066,0.255,-5.337
0.198,0.067,0.258,-5.337
0.208,0.067,0.263,-5.337
0.204,0.069,0.265,-5.337
0.158,0.066,0.261,-5.337
0.140,0.067,0.262,-5.337
0.173,0.065,0.261,-5.337
0.213,0.065,0.259,-5.337
0.196,0.069,0.256,-5.337
0.176,0.068,0.255,-5.337
0.207,0.068,0.255,-5.337
0.205,0.068,0.258,-5.337
0.210,0.069,0.261,-5.337
0.145,0.071,0.259,-5.337
0.140,0.069,0.253,-5.337
0.204,0.068,0.252,-5.337
0.213,0.068,0.255,-5.337
0.179,0.069,0.255,-5.337
0.195,0.067,0.259,-5.337
0.270,0.065,0.264,-5.337
0.260,0.065,0.263,-5.337
0.182,0.068,0.259,-5.337
0.204,0.067,0.259,-5.337
0.205,0.067,0.260,-5.337
0.198,0.070,0.261,-5.337
0.194,0.069,0.261,-5.337
0.234,0.070,0.260,-5.337
0.225,0.071,0.258,-5.337
0.212,0.072,0.253,-5.337
0.182,0.073,0.251,-5.337
0.156,0.069,0.251,-5.337
0.194,0.068,0.254,-5.337
0.185,0.067,0.259,-5.337
0.217,0.067,0.263,-5.337
0.256,0.066,0.261,-5.337
0.223,0.068,0.263,-5.337
0.193,0.068,0.262,-5.337
0.180,0.065,0.259,-5.337
0.227,0.064,0.255,-5.337
0.250,0.064,0.256,-5.337
0.238,0.064,0.258,-5.337
0.230,0.067,0.261,-5.337
0.275,0.063,0.256,-5.337
0.275,0.067,0.253,-5.337
0.236,0.067,0.251,-5.337
0.229,0.067,0.254,-5.337
0.271,0.063,0.256,-5.337
0.305,0.067,0.257,-5.337
0.301,0.068,0.258,-5.337
0.235,0.068,0.260,-5.337
0.212,0.067,0.259,-5.337
0.211,0.069,0.257,-5.337
0.194,0.072,0.258,-5.337
0.155,0.075,0.257,-5.337
0.178,0.069,0.259,-5.337
0.210,0.067,0.262,-5.337
0.258,0.064,0.261,-5.337
0.338,0.063,0.254,-5.337
0.374,0.064,0.253,-5.337
0.317,0.067,0.255,-5.337
0.261,0.070,0.260,-5.337
0.241,0.073,0.260,-5.337
0.199,0.073,0.258,-5.337
0.215,0.067,0.253,-5.337
0.202,0.069,0.253,-5.337
0.182,0.068,0.256,-5.337
0.135,0.067,0.257,-5.337
0.150,0.067,0.258,-5.337
0.212,0.065,0.259,-5.337
0.215,0.065,0.257,-5.337
0.161,0.068,0.257,-5.337
0.130,0.067,0.259,-5.337
0.199,0.066,0.260,-5.337
0.227,0.065,0.258,-5.337
0.222,0.060,0.255,-5.337
