[Parameters]
Operating Mode, Feedback
Subject  AA..ZZ, WT
Session  0..99, 44
No. Trials (1..9999), 500
Mouse Number, 1
Pressure Probe Serial Port, \00\00\00\04COM4
Save additional csv file, TRUE
Save using mouse number, FALSE
A/D Monitor Rate (Hz), 30000.000000
A/D Stimulate Rate (Hz), 30000.000000
A/D input range (+/- V), 5
No. Channels to acquire (N), 2
Pre-Stim Acq. time (ms), 100.000000
Post-Stim Acq. time (ms), 900.000000
Analysis window parameters.M-response Start (ms), 1.100000
Analysis window parameters.M-response Duration (ms), 5.500000
Analysis window parameters.H-response Duration (ms), 6.000000
Analysis window parameters.H-response Start (ms), 6.500000
Feedback window, H response
Proportional gain, 0.100000
Target value, 6.700000
Feedback Ch., 1
Stim Channel to Control (1-4), 4
Trial, 23
Wait for EMG Conditions, FALSE
Channel to monitor (0 - N-1), 1
EMG Hi Limit, 2.000000
EMG Lo Limit, 0.001000
Inter-Stim delay (sec), 10.000000
EMG Monitor Mode, Mean
Time to run Long Stim.(sec), 30
Save Long Stim Data?, OFF
BURST Save time (ms), 1000
BURST Save Interval (x above), 10
Long-Stim. Rep. Rate (Hz), 10.000000
Stim type cluster array.<size(s)>, 4
Stim type cluster array 0.Stimulus Output, Electrical
Stim type cluster array 1.Stimulus Output, OFF
Stim type cluster array 2.Stimulus Output, OFF
Stim type cluster array 3.Stimulus Output, Motor Length
Stim specs cluster array.<size(s)>, 4
Stim specs cluster array 0.Initial Stimulus ampl., 0.300000
Stim specs cluster array 0.Maximum Stimulus, 1.120000
Stim specs cluster array 0.#Pulses in train, 4
Stim specs cluster array 0.Peak Level time (ms), 1.000000
Stim specs cluster array 0.Total pulse period (ms), 150.000000
Stim specs cluster array 0.Start Delay (ms), -50.000000
Stim specs cluster array 0.Pulse Shape, Square
Stim specs cluster array 0.Ramp/Rel. time (ms), 0.100000
Stim specs cluster array 0.Peak Amplitude (V), 0.120000
Stim specs cluster array 1.Initial Stimulus ampl., 0.000000
Stim specs cluster array 1.Maximum Stimulus, 0.000000
Stim specs cluster array 1.#Pulses in train, 3
Stim specs cluster array 1.Peak Level time (ms), 29.000000
Stim specs cluster array 1.Total pulse period (ms), 200.000000
Stim specs cluster array 1.Start Delay (ms), 0.000000
Stim specs cluster array 1.Pulse Shape, Square
Stim specs cluster array 1.Ramp/Rel. time (ms), 0.000000
Stim specs cluster array 1.Peak Amplitude (V), 2.000000
Stim specs cluster array 2.Initial Stimulus ampl., 0.000000
Stim specs cluster array 2.Maximum Stimulus, 0.000000
Stim specs cluster array 2.#Pulses in train, 1
Stim specs cluster array 2.Peak Level time (ms), 25.000000
Stim specs cluster array 2.Total pulse period (ms), 200.000000
Stim specs cluster array 2.Start Delay (ms), 0.000000
Stim specs cluster array 2.Pulse Shape, Square
Stim specs cluster array 2.Ramp/Rel. time (ms), 20.000000
Stim specs cluster array 2.Peak Amplitude (V), 10.000000
Stim specs cluster array 3.Initial Stimulus ampl., 0.000000
Stim specs cluster array 3.Maximum Stimulus, 15.000000
Stim specs cluster array 3.#Pulses in train, 25
Stim specs cluster array 3.Peak Level time (ms), 0.100000
Stim specs cluster array 3.Total pulse period (ms), 4.000000
Stim specs cluster array 3.Start Delay (ms), 205.000000
Stim specs cluster array 3.Pulse Shape, Triangle
Stim specs cluster array 3.Ramp/Rel. time (ms), 3.000000
Stim specs cluster array 3.Peak Amplitude (V), 0.500000
Force cal. (mN/Volt), 100.000000
Force Range (mN), 100.000000
Length cal. (mm/Volt), 10.000000
Length Range (mm), 10.000000
Stim. 1, 0.300000
Stim. 2, 0.000000
Stim. 3, 0.000000
Stim. 4, 0.000000
Monitor acquire time (ms), 100.000000
EMG graph Ymax, 0.100000
Travel limit (mm), 20.000000
Use Pressure Probe, FALSE
Pressure goal (g), 100
Speed (mm/sec), 5.000000
Dwell time (ms), 100.000000
Pressure limit (g), 500.000000
Channel amplitude offset, 0.000000

[DATA]

0.181,0.053,0.199,-5.337
0.165,0.053,0.200,-5.337
0.168,0.053,0.199,-5.337
0.184,0.051,0.201,-5.337
0.208,0.053,0.199,-5.337
0.220,0.054,0.197,-5.337
0.192,0.052,0.200,-5.337
0.194,0.049,0.204,-5.337
0.206,0.049,0.202,-5.337
0.232,0.047,0.199,-5.337
0.227,0.049,0.202,-5.337
0.201,0.051,0.203,-5.337
0.182,0.046,0.203,-5.337
0.153,0.046,0.201,-5.337
0.165,0.046,0.201,-5.337
0.158,0.047,0.202,-5.337
0.155,0.042,0.202,-5.337
0.193,0.044,0.202,-5.337
0.237,0.046,0.206,-5.337
0.242,0.047,0.207,-5.337
0.207,0.046,0.203,-5.337
0.180,0.044,0.199,-5.337
0.193,0.046,0.200,-5.337
0.173,0.047,0.202,-5.337
0.148,0.046,0.201,-5.337
0.140,0.046,0.197,-5.337
0.127,0.047,0.200,-5.337
0.063,0.051,0.201,-5.337
0.083,0.047,0.203,-5.337
0.155,0.045,0.201,-5.337
0.186,0.047,0.201,-5.337
0.150,0.048,0.201,-5.337
0.083,0.047,0.202,-5.337
0.115,0.044,0.204,-5.337
0.162,0.046,0.203,-5.337
0.240,0.046,0.199,-5.337
0.246,0.042,0.197,-5.337
0.230,0.042,0.199,-5.337
0.184,0.044,0.201,-5.337
0.153,0.045,0.201,-5.337
0.165,0.045,0.201,-5.337
0.198,0.042,0.203,-5.337
0.231,0.041,0.205,-5.337
0.209,0.042,0.204,-5.337
0.201,0.045,0.201,-5.337
0.186,0.045,0.200,-5.337
0.197,0.045,0.199,-5.337
0.182,0.046,0.202,-5.337
0.110,0.046,0.199,-5.337
0.113,0.047,0.197,-5.337
0.149,0.041,0.195,-5.337
0.159,0.040,0.196,-5.337
0.142,0.036,0.200,-5.337
0.159,0.040,0.202,-5.337
0.245,0.036,0.202,-5.337
0.278,0.032,0.202,-5.337
0.177,0.034,0.199,-5.337
0.074,0.041,0.202,-5.337
0.128,0.042,0.202,-5.337
0.172,0.039,0.196,-5.337
0.167,0.040,0.194,-5.337
0.163,0.042,0.198,-5.337
0.183,0.038,0.205,-5.337
0.154,0.039,0.203,-5.337
0.119,0.038,0.198,-5.337
0.160,0.039,0.198,-5.337
0.169,0.042,0.203,-5.337
0.125,0.043,0.204,-5.337
0.075,0.041,0.202,-5.337
0.122,0.037,0.203,-5.337
0.241,0.034,0.203,-5.337
0.227,0.037,0.199,-5.337
0.182,0.039,0.198,-5.337
0.217,0.037,0.201,-5.337
0.208,0.034,0.203,-5.337
0.174,0.035,0.202,-5.337
0.170,0.036,0.199,-5.337
0.169,0.039,0.198,-5.337
0.131,0.039,0.202,-5.337
0.100,0.035,0.203,-5.337
0.156,0.037,0.203,-5.337
0.159,0.038,0.200,-5.337
0.216,0.039,0.200,-5.337
0.199,0.036,0.201,-5.337
0.156,0.037,0.202,-5.337
0.129,0.037,0.202,-5.337
0.163,0.037,0.202,-5.337
0.168,0.036,0.202,-5.337
0.141,0.037,0.203,-5.337
0.108,0.038,0.205,-5.337
0.092,0.036,0.204,-5.337
0.126,0.036,0.203,-5.337
0.162,0.037,0.203,-5.337
0.175,0.037,0.204,-5.337
0.154,0.036,0.203,-5.337
0.188,0.035,0.203,-5.337
0.212,0.038,0.200,-5.337
0.187,0.041,0.199,-5.337
0.171,0.042,0.199,-5.337
0.163,0.042,0.200,-5.337
0.140,0.041,0.205,-5.337
0.137,0.036,0.207,-5.337
0.196,0.030,0.208,-5.337
0.186,0.033,0.206,-5.337
0.131,0.035,0.200,-5.337
0.096,0.036,0.197,-5.337
0.109,0.038,0.201,-5.337
0.125,0.040,0.205,-5.337
0.206,0.038,0.202,-5.337
0.249,0.038,0.199,-5.337
0.178,0.040,0.201,-5.337
0.130,0.039,0.202,-5.337
0.152,0.037,0.203,-5.337
0.206,0.031,0.207,-5.337
0.235,0.033,0.212,-5.337
0.199,0.036,0.208,-5.337
0.117,0.037,0.207,-5.337
0.135,0.036,0.204,-5.337
0.155,0.036,0.206,-5.337
0.149,0.039,0.203,-5.337
0.175,0.041,0.197,-5.337
0.163,0.035,0.197,-5.337
0.149,0.035,0.199,-5.337
0.136,0.036,0.198,-5.337
0.149,0.039,0.200,-5.337
0.161,0.037,0.202,-5.337
0.116,0.036,0.204,-5.337
0.096,0.038,0.206,-5.337
0.133,0.038,0.205,-5.337
0.202,0.036,0.202,-5.337
0.197,0.037,0.199,-5.337
0.152,0.039,0.199,-5.337
0.161,0.040,0.200,-5.337
0.147,0.041,0.203,-5.337
0.166,0.038,0.205,-5.337
0.131,0.038,0.201,-5.337
0.114,0.043,0.192,-5.337
0.174,0.042,0.192,-5.337
0.166,0.040,0.196,-5.337
0.205,0.038,0.203,-5.337
0.250,0.039,0.207,-5.337
0.215,0.040,0.206,-5.337
0.194,0.039,0.200,-5.337
0.172,0.039,0.196,-5.337
0.126,0.039,0.195,-5.337
0.109,0.040,0.197,-5.337
0.108,0.038,0.201,-5.337
0.097,0.038,0.200,-5.337
0.116,0.037,0.197,-5.337
0.141,0.039,0.198,-5.337
0.140,0.038,0.203,-5.337
0.150,0.036,0.201,-5.337
0.163,0.035,0.199,-5.337
0.226,0.034,0.199,-5.337
0.222,0.034,0.202,-5.337
0.174,0.034,0.203,-5.337
0.149,0.039,0.203,-5.337
0.152,0.039,0.202,-5.337
0.170,0.041,0.202,-5.337
0.164,0.039,0.198,-5.337
0.156,0.039,0.195,-5.337
0.164,0.038,0.192,-5.337
0.182,0.037,0.196,-5.337
0.175,0.038,0.202,-5.337
0.173,0.040,0.205,-5.337
0.176,0.037,0.205,-5.337
0.180,0.033,0.206,-5.337
0.181,0.037,0.202,-5.337
0.165,0.040,0.199,-5.337
0.162,0.040,0.197,-5.337
0.133,0.044,0.198,-5.337
0.141,0.043,0.197,-5.337
0.191,0.038,0.197,-5.337
0.149,0.036,0.193,-5.337
0.104,0.037,0.195,-5.337
0.140,0.038,0.198,-5.337
0.206,0.042,0.200,-5.337
0.215,0.043,0.199,-5.337
0.123,0.042,0.196,-5.337
0.140,0.037,0.195,-5.337
0.125,0.041,0.195,-5.337
0.112,0.041,0.200,-5.337
0.170,0.040,0.199,-5.337
0.262,0.040,0.200,-5.337
0.283,0.041,0.199,-5.337
0.233,0.044,0.200,-5.337
0.271,0.037,0.201,-5.337
0.326,0.037,0.202,-5.337
0.273,0.040,0.203,-5.337
0.255,0.042,0.199,-5.337
0.151,0.041,0.196,-5.337
0.091,0.041,0.200,-5.337
0.119,0.040,0.203,-5.337
0.196,0.038,0.204,-5.337
0.244,0.039,0.202,-5.337
0.261,0.037,0.201,-5.337
0.256,0.034,0.202,-5.337
0.245,0.036,0.201,-5.337
0.191,0.037,0.199,-5.337
0.151,0.039,0.200,-5.337
0.188,0.038,0.201,-5.337
0.219,0.038,0.203,-5.337
0.154,0.040,0.203,-5.337
0.107,0.041,0.199,-5.337
0.068,0.043,0.199,-5.337
0.101,0.043,0.200,-5.337
0.152,0.044,0.201,-5.337
0.190,0.043,0.202,-5.337
0.159,0.045,0.203,-5.337
0.154,0.042,0.196,-5.337
0.181,0.041,0.194,-5.337
0.193,0.043,0.199,-5.337
0.216,0.042,0.203,-5.337
0.231,0.044,0.206,-5.337
0.194,0.044,0.205,-5.337
0.135,0.046,0.206,-5.337
0.154,0.043,0.205,-5.337
0.183,0.043,0.201,-5.337
0.183,0.044,0.196,-5.337
0.213,0.045,0.197,-5.337
0.196,0.045,0.198,-5.337
0.207,0.044,0.202,-5.337
0.255,0.042,0.201,-5.337
0.257,0.038,0.203,-5.337
0.241,0.039,0.203,-5.337
0.158,0.041,0.203,-5.337
0.159,0.040,0.202,-5.337
0.188,0.039,0.199,-5.337
0.163,0.040,0.196,-5.337
0.193,0.039,0.197,-5.337
0.238,0.038,0.199,-5.337
0.252,0.038,0.200,-5.337
0.226,0.040,0.199,-5.337
0.196,0.043,0.197,-5.337
0.185,0.042,0.199,-5.337
0.207,0.043,0.206,-5.337
0.214,0.041,0.208,-5.337
0.179,0.045,0.207,-5.337
0.155,0.041,0.203,-5.337
0.160,0.041,0.204,-5.337
0.119,0.044,0.204,-5.337
0.129,0.048,0.202,-5.337
0.170,0.044,0.200,-5.337
0.189,0.044,0.201,-5.337
0.203,0.042,0.203,-5.337
0.248,0.040,0.203,-5.337
0.236,0.039,0.200,-5.337
0.199,0.041,0.196,-5.337
0.179,0.043,0.194,-5.337
0.164,0.045,0.195,-5.337
0.147,0.049,0.199,-5.337
0.131,0.052,0.203,-5.337
0.135,0.050,0.202,-5.337
0.160,0.048,0.199,-5.337
0.169,0.045,0.199,-5.337
0.142,0.046,0.198,-5.337
0.126,0.048,0.198,-5.337
0.133,0.046,0.201,-5.337
0.141,0.045,0.201,-5.337
0.219,0.042,0.201,-5.337
0.232,0.046,0.201,-5.337
0.209,0.046,0.201,-5.337
0.212,0.048,0.201,-5.337
0.237,0.047,0.199,-5.337
0.217,0.049,0.199,-5.337
0.224,0.049,0.203,-5.337
0.240,0.049,0.205,-5.337
0.166,0.054,0.201,-5.337
0.157,0.052,0.196,-5.337
0.232,0.049,0.197,-5.337
0.233,0.046,0.200,-5.337
0.205,0.047,0.203,-5.337
0.223,0.049,0.201,-5.337
0.216,0.051,0.200,-5.337
0.173,0.050,0.197,-5.337
0.190,0.050,0.200,-5.337
0.256,0.045,0.198,-5.337
0.250,0.045,0.197,-5.337
0.166,0.049,0.199,-5.337
0.143,0.047,0.201,-5.337
0.183,0.049,0.200,-5.337
0.224,0.049,0.201,-5.337
0.229,0.047,0.203,-5.337
0.165,0.050,0.203,-5.337
0.151,0.051,0.202,-5.337
0.150,0.052,0.203,-5.337
0.169,0.051,0.201,-5.337
0.199,0.050,0.197,-5.337
0.208,0.048,0.199,-5.337
0.210,0.050,0.202,-5.337
0.156,0.051,0.204,-5.337
0.193,0.049,0.203,-5.337
0.284,0.048,0.203,-5.337
0.254,0.051,0.199,-5.337
0.215,0.050,0.197,-5.337
0.231,0.046,0.195,-5.337
0.299,0.047,0.196,-5.337
0.277,0.050,0.198,-5.337
0.201,0.051,0.201,-5.337
0.182,0.051,0.201,-5.337
0.226,0.051,0.199,-5.337
0.217,0.050,0.197,-5.337
0.255,0.047,0.199,-5.337
0.229,0.049,0.200,-5.337
0.160,0.055,0.199,-5.337
0.200,0.051,0.199,-5.337
0.303,0.049,0.197,-5.337
0.269,0.049,0.196,-5.337
0.258,0.050,0.200,-5.337
0.274,0.051,0.206,-5.337
0.226,0.051,0.204,-5.337
0.248,0.054,0.198,-5.337
0.266,0.054,0.199,-5.337
0.242,0.054,0.203,-5.337
0.235,0.055,0.203,-5.337
0.156,0.056,0.200,-5.337
0.097,0.054,0.199,-5.337
0.194,0.052,0.201,-5.337
0.253,0.051,0.199,-5.337
0.197,0.053,0.198,-5.337
0.198,0.053,0.195,-5.337
0.222,0.052,0.193,-5.337
0.252,0.053,0.197,-5.337
0.261,0.055,0.204,-5.337
0.220,0.054,0.205,-5.337
0.185,0.053,0.205,-5.337
0.183,0.054,0.203,-5.337
0.193,0.053,0.199,-5.337
0.208,0.055,0.198,-5.337
0.195,0.055,0.198,-5.337
0.185,0.055,0.199,-5.337
0.190,0.050,0.199,-5.337
0.217,0.050,0.199,-5.337
0.279,0.050,0.202,-5.337
0.258,0.052,0.205,-5.337
0.215,0.055,0.204,-5.337
0.277,0.050,0.203,-5.337
0.345,0.048,0.200,-5.337
0.275,0.051,0.201,-5.337
0.201,0.057,0.200,-5.337
0.183,0.058,0.203,-5.337
0.245,0.056,0.198,-5.337
0.257,0.057,0.195,-5.337
0.201,0.059,0.195,-5.337
0.195,0.059,0.198,-5.337
0.233,0.058,0.199,-5.337
0.214,0.062,0.198,-5.337
0.209,0.058,0.200,-5.337
0.220,0.058,0.203,-5.337
0.177,0.057,0.205,-5.337
0.213,0.056,0.205,-5.337
0.218,0.060,0.203,-5.337
0.171,0.060,0.203,-5.337
0.223,0.057,0.203,-5.337
0.269,0.055,0.206,-5.337
0.233,0.054,0.203,-5.337
0.186,0.057,0.198,-5.337
0.194,0.057,0.194,-5.337
0.177,0.056,0.196,-5.337
0.172,0.054,0.202,-5.337
0.216,0.053,0.200,-5.337
0.238,0.049,0.199,-5.337
0.276,0.046,0.195,-5.337
0.231,0.051,0.195,-5.337
0.221,0.053,0.197,-5.337
0.273,0.056,0.204,-5.337
0.345,0.050,0.208,-5.337
0.315,0.052,0.209,-5.337
0.264,0.053,0.205,-5.337
0.268,0.051,0.203,-5.337
0.250,0.053,0.201,-5.337
0.248,0.052,0.202,-5.337
0.280,0.051,0.202,-5.337
0.271,0.049,0.203,-5.337
0.218,0.052,0.202,-5.337
0.191,0.054,0.201,-5.337
0.241,0.053,0.202,-5.337
0.268,0.053,0.202,-5.337
0.242,0.051,0.203,-5.337
0.232,0.052,0.205,-5.337
0.201,0.053,0.205,-5.337
0.171,0.055,0.202,-5.337
0.211,0.057,0.200,-5.337
0.253,0.055,0.202,-5.337
0.227,0.054,0.205,-5.337
0.197,0.056,0.203,-5.337
0.228,0.056,0.202,-5.337
0.248,0.056,0.202,-5.337
0.250,0.057,0.200,-5.337
0.224,0.056,0.200,-5.337
0.194,0.057,0.203,-5.337
0.244,0.053,0.201,-5.337
0.263,0.053,0.201,-5.337
0.293,0.055,0.203,-5.337
0.315,0.057,0.206,-5.337
0.251,0.058,0.205,-5.337
0.197,0.056,0.206,-5.337
0.162,0.055,0.206,-5.337
0.152,0.056,0.206,-5.337
0.176,0.052,0.205,-5.337
0.169,0.053,0.201,-5.337
0.216,0.053,0.200,-5.337
0.256,0.050,0.199,-5.337
0.258,0.051,0.197,-5.337
0.253,0.054,0.196,-5.337
0.229,0.056,0.196,-5.337
0.164,0.061,0.200,-5.337
0.139,0.058,0.206,-5.337
0.192,0.052,0.206,-5.337
0.238,0.052,0.203,-5.337
0.207,0.054,0.199,-5.337
0.187,0.054,0.194,-5.337
0.241,0.054,0.197,-5.337
0.257,0.056,0.201,-5.337
0.197,0.055,0.201,-5.337
0.182,0.052,0.200,-5.337
0.239,0.047,0.203,-5.337
0.271,0.049,0.205,-5.337
0.216,0.051,0.202,-5.337
0.199,0.051,0.202,-5.337
0.229,0.050,0.205,-5.337
0.220,0.048,0.206,-5.337
0.243,0.048,0.204,-5.337
0.318,0.048,0.200,-5.337
0.253,0.051,0.195,-5.337
0.166,0.056,0.194,-5.337
0.190,0.055,0.197,-5.337
0.251,0.052,0.197,-5.337
0.242,0.051,0.204,-5.337
0.192,0.054,0.209,-5.337
0.175,0.049,0.208,-5.337
0.221,0.048,0.198,-5.337
0.224,0.053,0.194,-5.337
0.175,0.057,0.196,-5.337
0.177,0.058,0.200,-5.337
0.238,0.055,0.200,-5.337
0.246,0.054,0.200,-5.337
0.255,0.051,0.202,-5.337
0.209,0.053,0.200,-5.337
0.232,0.051,0.199,-5.337
0.243,0.054,0.201,-5.337
0.237,0.051,0.202,-5.337
0.235,0.052,0.199,-5.337
0.208,0.052,0.199,-5.337
0.196,0.052,0.198,-5.337
0.179,0.056,0.199,-5.337
0.176,0.057,0.202,-5.337
0.225,0.054,0.202,-5.337
0.213,0.054,0.199,-5.337
0.166,0.055,0.197,-5.337
0.159,0.052,0.197,-5.337
0.179,0.051,0.201,-5.337
0.229,0.052,0.200,-5.337
0.236,0.051,0.197,-5.337
0.212,0.052,0.197,-5.337
0.206,0.051,0.202,-5.337
0.218,0.050,0.203,-5.337
0.180,0.051,0.202,-5.337
0.141,0.051,0.198,-5.337
0.117,0.052,0.195,-5.337
0.103,0.053,0.194,-5.337
0.187,0.048,0.198,-5.337
0.260,0.046,0.203,-5.337
0.214,0.049,0.206,-5.337
0.165,0.051,0.203,-5.337
0.162,0.050,0.198,-5.337
0.164,0.048,0.197,-5.337
0.174,0.049,0.200,-5.337
0.175,0.048,0.203,-5.337
0.162,0.049,0.206,-5.337
0.147,0.051,0.207,-5.337
0.138,0.055,0.203,-5.337
0.145,0.056,0.202,-5.337
0.191,0.055,0.197,-5.337
0.216,0.054,0.197,-5.337
0.254,0.050,0.198,-5.337
0.287,0.047,0.199,-5.337
0.246,0.046,0.195,-5.337
0.231,0.046,0.198,-5.337
0.231,0.043,0.201,-5.337
0.167,0.046,0.202,-5.337
0.116,0.049,0.203,-5.337
0.134,0.049,0.204,-5.337
0.121,0.044,0.200,-5.337
0.147,0.042,0.197,-5.337
0.176,0.042,0.199,-5.337
0.174,0.041,0.201,-5.337
0.215,0.042,0.203,-5.337
0.234,0.043,0.204,-5.337
0.232,0.043,0.199,-5.337
0.164,0.043,0.197,-5.337
0.116,0.045,0.197,-5.337
0.168,0.045,0.199,-5.337
0.265,0.039,0.201,-5.337
0.240,0.041,0.201,-5.337
0.165,0.043,0.199,-5.337
0.198,0.047,0.198,-5.337
0.187,0.049,0.197,-5.337
0.170,0.046,0.194,-5.337
0.211,0.042,0.195,-5.337
0.227,0.045,0.197,-5.337
0.171,0.047,0.198,-5.337
0.196,0.045,0.199,-5.337
0.217,0.044,0.199,-5.337
0.147,0.046,0.196,-5.337
0.186,0.044,0.193,-5.337
0.219,0.045,0.198,-5.337
0.197,0.044,0.202,-5.337
0.131,0.044,0.205,-5.337
0.171,0.044,0.205,-5.337
0.196,0.043,0.205,-5.337
0.147,0.043,0.202,-5.337
0.171,0.044,0.200,-5.337
0.144,0.045,0.196,-5.337
0.095,0.047,0.197,-5.337
0.156,0.042,0.203,-5.337
0.190,0.040,0.204,-5.337
0.188,0.039,0.202,-5.337
0.199,0.041,0.197,-5.337
0.158,0.039,0.197,-5.337
0.141,0.038,0.199,-5.337
0.161,0.040,0.201,-5.337
0.175,0.043,0.202,-5.337
0.150,0.041,0.199,-5.337
0.140,0.038,0.199,-5.337
0.120,0.042,0.197,-5.337
0.118,0.044,0.195,-5.337
0.136,0.042,0.194,-5.337
0.170,0.042,0.197,-5.337
0.177,0.042,0.198,-5.337
0.189,0.043,0.199,-5.337
0.183,0.045,0.201,-5.337
0.162,0.048,0.202,-5.337
0.214,0.047,0.202,-5.337
0.212,0.050,0.199,-5.337
0.166,0.049,0.199,-5.337
0.187,0.045,0.199,-5.337
0.191,0.046,0.199,-5.337
0.123,0.048,0.197,-5.337
0.115,0.048,0.198,-5.337
0.202,0.045,0.199,-5.337
0.192,0.044,0.199,-5.337
0.153,0.044,0.200,-5.337
0.145,0.046,0.201,-5.337
0.129,0.043,0.198,-5.337
0.129,0.044,0.197,-5.337
0.177,0.045,0.202,-5.337
0.150,0.049,0.203,-5.337
0.078,0.052,0.199,-5.337
0.118,0.049,0.198,-5.337
0.167,0.045,0.198,-5.337
0.140,0.043,0.201,-5.337
0.084,0.045,0.203,-5.337
0.166,0.043,0.199,-5.337
0.213,0.048,0.194,-5.337
0.186,0.049,0.192,-5.337
0.190,0.049,0.195,-5.337
0.165,0.051,0.198,-5.337
0.108,0.052,0.200,-5.337
0.104,0.048,0.196,-5.337
0.194,0.044,0.196,-5.337
0.230,0.043,0.198,-5.337
0.217,0.048,0.202,-5.337
0.178,0.049,0.197,-5.337
0.144,0.052,0.198,-5.337
0.158,0.049,0.199,-5.337
0.202,0.046,0.197,-5.337
0.238,0.046,0.197,-5.337
0.216,0.049,0.203,-5.337
0.130,0.049,0.202,-5.337
0.045,0.048,0.200,-5.337
0.109,0.047,0.202,-5.337
0.218,0.047,0.204,-5.337
0.192,0.048,0.201,-5.337
0.133,0.048,0.195,-5.337
0.080,0.048,0.198,-5.337
0.101,0.047,0.202,-5.337
0.198,0.044,0.202,-5.337
0.214,0.043,0.200,-5.337
0.157,0.045,0.201,-5.337
0.147,0.042,0.202,-5.337
0.205,0.040,0.202,-5.337
0.203,0.041,0.201,-5.337
0.139,0.042,0.199,-5.337
0.166,0.039,0.197,-5.337
0.194,0.039,0.197,-5.337
0.152,0.040,0.198,-5.337
0.168,0.043,0.199,-5.337
0.232,0.043,0.198,-5.337
0.230,0.042,0.198,-5.337
0.181,0.042,0.200,-5.337
0.170,0.042,0.203,-5.337
0.182,0.043,0.201,-5.337
0.146,0.046,0.197,-5.337
0.118,0.048,0.195,-5.337
0.127,0.047,0.198,-5.337
0.134,0.041,0.196,-5.337
0.116,0.042,0.196,-5.337
0.139,0.042,0.199,-5.337
0.177,0.040,0.202,-5.337
0.135,0.038,0.205,-5.337
0.112,0.038,0.206,-5.337
0.131,0.040,0.203,-5.337
0.157,0.039,0.199,-5.337
0.070,0.039,0.197,-5.337
0.082,0.041,0.199,-5.337
0.085,0.041,0.198,-5.337
0.108,0.040,0.196,-5.337
0.133,0.043,0.196,-5.337
0.161,0.043,0.196,-5.337
0.169,0.044,0.200,-5.337
0.184,0.043,0.203,-5.337
0.168,0.042,0.202,-5.337
0.136,0.040,0.196,-5.337
0.129,0.041,0.195,-5.337
0.174,0.045,0.196,-5.337
0.188,0.047,0.197,-5.337
0.165,0.045,0.202,-5.337
0.155,0.047,0.205,-5.337
0.144,0.045,0.205,-5.337
0.179,0.045,0.202,-5.337
0.200,0.045,0.198,-5.337
0.193,0.043,0.196,-5.337
0.153,0.048,0.197,-5.337
0.117,0.048,0.199,-5.337
0.095,0.048,0.202,-5.337
0.139,0.047,0.205,-5.337
0.203,0.043,0.207,-5.337
0.221,0.045,0.205,-5.337
0.133,0.051,0.206,-5.337
0.076,0.048,0.204,-5.337
0.123,0.042,0.199,-5.337
0.156,0.045,0.195,-5.337
0.189,0.044,0.197,-5.337
0.173,0.044,0.199,-5.337
0.188,0.044,0.203,-5.337
0.192,0.042,0.203,-5.337
0.165,0.042,0.200,-5.337
0.140,0.037,0.196,-5.337
0.195,0.036,0.197,-5.337
0.235,0.037,0.201,-5.337
0.206,0.040,0.203,-5.337
0.174,0.042,0.202,-5.337
0.121,0.043,0.204,-5.337
0.097,0.046,0.205,-5.337
0.142,0.044,0.204,-5.337
0.154,0.043,0.202,-5.337
0.115,0.047,0.202,-5.337
0.134,0.048,0.204,-5.337
0.182,0.042,0.204,-5.337
0.192,0.041,0.205,-5.337
0.157,0.043,0.200,-5.337
0.175,0.044,0.195,-5.337
0.208,0.044,0.197,-5.337
0.195,0.043,0.202,-5.337
0.167,0.042,0.202,-5.337
0.135,0.042,0.204,-5.337
0.153,0.036,0.202,-5.337
0.225,0.033,0.205,-5.337
0.201,0.037,0.207,-5.337
0.133,0.038,0.202,-5.337
0.150,0.038,0.198,-5.337
0.195,0.039,0.202,-5.337
0.191,0.041,0.201,-5.337
0.151,0.046,0.198,-5.337
0.126,0.046,0.200,-5.337
0.173,0.040,0.202,-5.337
0.165,0.040,0.204,-5.337
0.130,0.042,0.202,-5.337
0.142,0.042,0.200,-5.337
0.173,0.043,0.201,-5.337
0.164,0.044,0.205,-5.337
0.151,0.039,0.207,-5.337
0.161,0.040,0.208,-5.337
0.186,0.040,0.203,-5.337
0.165,0.043,0.201,-5.337
0.137,0.045,0.201,-5.337
0.152,0.045,0.200,-5.337
0.189,0.042,0.195,-5.337
0.190,0.037,0.193,-5.337
0.212,0.034,0.197,-5.337
0.205,0.036,0.199,-5.337
0.222,0.034,0.201,-5.337
0.224,0.034,0.202,-5.337
0.218,0.035,0.203,-5.337
0.214,0.038,0.198,-5.337
0.181,0.040,0.194,-5.337
0.196,0.036,0.196,-5.337
0.204,0.035,0.200,-5.337
0.163,0.042,0.207,-5.337
0.126,0.045,0.210,-5.337
0.147,0.041,0.205,-5.337
0.176,0.041,0.200,-5.337
0.155,0.041,0.199,-5.337
0.192,0.037,0.199,-5.337
0.215,0.038,0.199,-5.337
0.214,0.038,0.197,-5.337
0.205,0.041,0.199,-5.337
0.187,0.046,0.201,-5.337
0.175,0.046,0.199,-5.337
0.167,0.046,0.198,-5.337
0.126,0.044,0.197,-5.337
0.160,0.041,0.195,-5.337
0.211,0.042,0.198,-5.337
0.194,0.045,0.203,-5.337
0.147,0.042,0.204,-5.337
0.102,0.040,0.205,-5.337
0.177,0.039,0.205,-5.337
0.253,0.037,0.200,-5.337
0.225,0.037,0.197,-5.337
0.198,0.037,0.199,-5.337
0.182,0.037,0.195,-5.337
0.187,0.038,0.195,-5.337
0.212,0.042,0.201,-5.337
0.129,0.047,0.206,-5.337
0.089,0.045,0.207,-5.337
0.113,0.042,0.202,-5.337
0.145,0.040,0.200,-5.337
0.181,0.041,0.201,-5.337
0.250,0.040,0.204,-5.337
0.257,0.042,0.202,-5.337
0.236,0.041,0.202,-5.337
0.213,0.043,0.201,-5.337
0.165,0.048,0.197,-5.337
0.176,0.050,0.194,-5.337
0.174,0.049,0.192,-5.337
0.173,0.046,0.199,-5.337
0.180,0.048,0.204,-5.337
0.227,0.043,0.204,-5.337
0.224,0.043,0.201,-5.337
0.147,0.045,0.199,-5.337
0.095,0.044,0.200,-5.337
0.107,0.043,0.202,-5.337
0.185,0.041,0.206,-5.337
0.169,0.044,0.206,-5.337
0.134,0.047,0.205,-5.337
0.185,0.046,0.202,-5.337
0.211,0.043,0.198,-5.337
0.271,0.041,0.198,-5.337
0.272,0.046,0.202,-5.337
0.226,0.048,0.206,-5.337
0.210,0.050,0.204,-5.337
0.192,0.048,0.202,-5.337
0.192,0.045,0.198,-5.337
0.216,0.044,0.200,-5.337
0.228,0.045,0.203,-5.337
0.229,0.045,0.204,-5.337
0.207,0.043,0.200,-5.337
0.199,0.043,0.200,-5.337
0.152,0.046,0.203,-5.337
0.150,0.049,0.206,-5.337
0.163,0.049,0.204,-5.337
0.126,0.052,0.200,-5.337
0.171,0.052,0.196,-5.337
0.204,0.050,0.199,-5.337
0.200,0.052,0.198,-5.337
0.205,0.050,0.196,-5.337
0.185,0.051,0.196,-5.337
0.204,0.051,0.199,-5.337
0.210,0.050,0.206,-5.337
0.243,0.049,0.205,-5.337
0.261,0.048,0.204,-5.337
0.234,0.051,0.203,-5.337
0.182,0.054,0.204,-5.337
0.189,0.051,0.198,-5.337
0.223,0.050,0.195,-5.337
0.172,0.052,0.197,-5.337
0.142,0.056,0.200,-5.337
0.149,0.055,0.198,-5.337
0.138,0.054,0.198,-5.337
0.197,0.050,0.200,-5.337
0.244,0.053,0.204,-5.337
0.248,0.055,0.204,-5.337
0.176,0.056,0.202,-5.337
0.190,0.052,0.204,-5.337
0.237,0.051,0.201,-5.337
0.288,0.048,0.197,-5.337
0.257,0.047,0.198,-5.337
0.228,0.048,0.203,-5.337
0.199,0.050,0.207,-5.337
0.177,0.051,0.206,-5.337
0.203,0.051,0.201,-5.337
0.167,0.054,0.198,-5.337
0.113,0.053,0.195,-5.337
0.120,0.054,0.196,-5.337
0.132,0.052,0.196,-5.337
0.201,0.050,0.198,-5.337
0.204,0.053,0.194,-5.337
0.186,0.053,0.193,-5.337
0.169,0.053,0.196,-5.337
0.215,0.054,0.199,-5.337
0.210,0.052,0.201,-5.337
0.194,0.054,0.202,-5.337
0.245,0.054,0.200,-5.337
0.272,0.053,0.204,-5.337
0.287,0.052,0.205,-5.337
0.226,0.054,0.202,-5.337
0.171,0.054,0.202,-5.337
0.145,0.054,0.204,-5.337
0.211,0.053,0.203,-5.337
0.208,0.053,0.203,-5.337
0.207,0.051,0.204,-5.337
0.210,0.051,0.199,-5.337
0.215,0.050,0.198,-5.337
0.227,0.053,0.202,-5.337
0.203,0.053,0.203,-5.337
0.220,0.051,0.200,-5.337
0.240,0.051,0.200,-5.337
0.262,0.050,0.198,-5.337
0.265,0.049,0.202,-5.337
0.284,0.047,0.204,-5.337
0.303,0.051,0.204,-5.337
0.240,0.057,0.202,-5.337
0.219,0.059,0.201,-5.337
0.194,0.057,0.196,-5.337
0.213,0.054,0.195,-5.337
0.227,0.054,0.195,-5.337
0.204,0.059,0.199,-5.337
0.209,0.061,0.201,-5.337
0.229,0.058,0.201,-5.337
0.223,0.056,0.200,-5.337
0.178,0.059,0.204,-5.337
0.139,0.057,0.205,-5.337
0.176,0.055,0.204,-5.337
0.235,0.057,0.197,-5.337
0.226,0.058,0.196,-5.337
0.206,0.061,0.196,-5.337
0.208,0.061,0.194,-5.337
0.222,0.057,0.198,-5.337
0.240,0.053,0.205,-5.337
0.250,0.049,0.206,-5.337
0.218,0.054,0.204,-5.337
0.202,0.059,0.202,-5.337
0.188,0.058,0.201,-5.337
0.230,0.054,0.202,-5.337
0.261,0.053,0.198,-5.337
0.258,0.056,0.196,-5.337
0.233,0.056,0.196,-5.337
0.276,0.052,0.200,-5.337
0.198,0.054,0.202,-5.337
0.170,0.057,0.202,-5.337
0.164,0.055,0.198,-5.337
0.149,0.057,0.199,-5.337
0.142,0.059,0.200,-5.337
0.158,0.059,0.202,-5.337
0.148,0.058,0.199,-5.337
0.180,0.057,0.194,-5.337
0.215,0.057,0.194,-5.337
0.243,0.058,0.196,-5.337
0.243,0.056,0.195,-5.337
0.242,0.057,0.197,-5.337
0.187,0.059,0.202,-5.337
0.198,0.060,0.204,-5.337
0.227,0.056,0.203,-5.337
0.276,0.052,0.199,-5.337
0.296,0.051,0.200,-5.337
0.271,0.054,0.201,-5.337
0.280,0.053,0.200,-5.337
0.283,0.055,0.197,-5.337
0.233,0.056,0.196,-5.337
0.246,0.051,0.196,-5.337
0.277,0.051,0.197,-5.337
0.290,0.052,0.197,-5.337
0.273,0.052,0.195,-5.337
0.240,0.050,0.195,-5.337
0.271,0.053,0.197,-5.337
0.267,0.055,0.202,-5.337
0.201,0.057,0.205,-5.337
0.226,0.052,0.202,-5.337
0.256,0.054,0.201,-5.337
0.239,0.056,0.200,-5.337
0.215,0.054,0.200,-5.337
0.224,0.054,0.199,-5.337
0.224,0.058,0.201,-5.337
0.207,0.062,0.202,-5.337
0.181,0.063,0.197,-5.337
0.216,0.059,0.195,-5.337
0.214,0.060,0.192,-5.337
0.172,0.061,0.194,-5.337
0.223,0.057,0.198,-5.337
0.215,0.055,0.203,-5.337
0.228,0.053,0.201,-5.337
0.260,0.053,0.200,-5.337
0.233,0.054,0.198,-5.337
0.191,0.059,0.198,-5.337
0.202,0.056,0.201,-5.337
0.288,0.056,0.200,-5.337
0.202,0.060,0.196,-5.337
0.188,0.060,0.197,-5.337
0.255,0.059,0.200,-5.337
0.245,0.060,0.202,-5.337
0.186,0.061,0.203,-5.337
0.214,0.061,0.200,-5.337
0.296,0.055,0.194,-5.337
0.307,0.057,0.190,-5.337
0.287,0.059,0.195,-5.337
0.279,0.058,0.200,-5.337
0.289,0.060,0.204,-5.337
0.264,0.059,0.205,-5.337
0.232,0.060,0.205,-5.337
0.226,0.063,0.201,-5.337
0.222,0.064,0.200,-5.337
0.221,0.062,0.200,-5.337
0.215,0.062,0.200,-5.337
0.191,0.064,0.200,-5.337
0.182,0.065,0.198,-5.337
0.174,0.063,0.196,-5.337
0.190,0.063,0.197,-5.337
0.208,0.063,0.201,-5.337
0.240,0.060,0.202,-5.337
0.222,0.058,0.199,-5.337
0.230,0.056,0.199,-5.337
0.252,0.054,0.199,-5.337
0.256,0.052,0.201,-5.337
0.268,0.056,0.199,-5.337
0.237,0.058,0.197,-5.337
0.247,0.058,0.199,-5.337
0.302,0.057,0.196,-5.337
0.249,0.056,0.197,-5.337
0.197,0.059,0.196,-5.337
0.223,0.057,0.198,-5.337
0.278,0.055,0.201,-5.337
0.275,0.059,0.205,-5.337
0.235,0.057,0.202,-5.337
0.166,0.056,0.200,-5.337
0.145,0.057,0.199,-5.337
0.163,0.055,0.199,-5.337
0.199,0.053,0.197,-5.337
0.205,0.055,0.198,-5.337
0.172,0.054,0.199,-5.337
0.138,0.054,0.205,-5.337
0.197,0.054,0.205,-5.337
0.236,0.055,0.203,-5.337
0.225,0.053,0.202,-5.337
0.193,0.055,0.200,-5.337
0.200,0.059,0.197,-5.337
0.204,0.063,0.199,-5.337
0.225,0.061,0.198,-5.337
0.266,0.057,0.199,-5.337
0.254,0.057,0.201,-5.337
0.233,0.057,0.200,-5.337
0.225,0.059,0.198,-5.337
0.223,0.058,0.195,-5.337
0.232,0.055,0.198,-5.337
0.203,0.055,0.199,-5.337
0.206,0.055,0.201,-5.337
0.241,0.053,0.201,-5.337
0.248,0.051,0.199,-5.337
0.270,0.049,0.199,-5.337
0.236,0.051,0.201,-5.337
0.174,0.051,0.199,-5.337
0.162,0.053,0.200,-5.337
0.193,0.053,0.202,-5.337
0.160,0.054,0.200,-5.337
0.175,0.051,0.198,-5.337
0.222,0.053,0.198,-5.337
0.191,0.053,0.199,-5.337
0.216,0.047,0.201,-5.337
0.246,0.046,0.200,-5.337
0.258,0.047,0.197,-5.337
0.216,0.048,0.195,-5.337
0.160,0.049,0.196,-5.337
0.138,0.048,0.199,-5.337
0.200,0.049,0.199,-5.337
0.208,0.049,0.194,-5.337
0.201,0.049,0.190,-5.337
0.186,0.048,0.192,-5.337
0.214,0.048,0.196,-5.337
0.221,0.044,0.200,-5.337
0.199,0.047,0.197,-5.337
0.164,0.049,0.192,-5.337
0.231,0.042,0.192,-5.337
0.259,0.040,0.198,-5.337
0.230,0.040,0.200,-5.337
0.211,0.045,0.200,-5.337
0.187,0.044,0.199,-5.337
0.174,0.044,0.197,-5.337
0.198,0.043,0.199,-5.337
0.217,0.044,0.201,-5.337
0.236,0.046,0.195,-5.337
0.158,0.051,0.191,-5.337
0.106,0.053,0.192,-5.337
0.135,0.051,0.195,-5.337
0.221,0.054,0.200,-5.337
0.252,0.053,0.200,-5.337
0.170,0.052,0.197,-5.337
0.172,0.051,0.197,-5.337
0.171,0.049,0.199,-5.337
0.139,0.051,0.199,-5.337
0.159,0.048,0.199,-5.337
0.251,0.042,0.197,-5.337
0.254,0.041,0.194,-5.337
0.200,0.046,0.193,-5.337
0.192,0.049,0.198,-5.337
0.217,0.047,0.195,-5.337
0.223,0.047,0.193,-5.337
0.189,0.051,0.197,-5.337
0.134,0.052,0.202,-5.337
0.175,0.047,0.200,-5.337
0.228,0.047,0.197,-5.337
0.184,0.049,0.195,-5.337
0.143,0.051,0.197,-5.337
0.135,0.048,0.200,-5.337
0.135,0.048,0.197,-5.337
0.163,0.048,0.197,-5.337
0.165,0.046,0.201,-5.337
0.102,0.044,0.202,-5.337
0.148,0.041,0.199,-5.337
0.203,0.040,0.195,-5.337
0.236,0.037,0.193,-5.337
0.279,0.038,0.195,-5.337
0.243,0.038,0.197,-5.337
0.235,0.037,0.198,-5.337
0.195,0.039,0.199,-5.337
0.160,0.041,0.197,-5.337
0.211,0.040,0.195,-5.337
0.283,0.041,0.199,-5.337
0.230,0.040,0.200,-5.337
0.153,0.040,0.194,-5.337
0.155,0.037,0.191,-5.337
0.179,0.036,0.193,-5.337
0.165,0.035,0.197,-5.337
0.122,0.039,0.202,-5.337
0.171,0.040,0.202,-5.337
0.192,0.042,0.200,-5.337
0.171,0.039,0.198,-5.337
0.147,0.036,0.197,-5.337
0.181,0.036,0.197,-5.337
0.167,0.039,0.197,-5.337
0.153,0.042,0.194,-5.337
0.125,0.041,0.192,-5.337
0.146,0.039,0.193,-5.337
0.161,0.043,0.195,-5.337
0.201,0.041,0.200,-5.337
0.203,0.041,0.202,-5.337
0.184,0.041,0.201,-5.337
0.171,0.038,0.196,-5.337
0.192,0.039,0.195,-5.337
0.218,0.036,0.195,-5.337
0.210,0.042,0.195,-5.337
0.133,0.047,0.194,-5.337
0.137,0.047,0.197,-5.337
0.189,0.041,0.198,-5.337
0.230,0.035,0.200,-5.337
0.237,0.036,0.199,-5.337
0.208,0.040,0.198,-5.337
0.157,0.036,0.196,-5.337
0.132,0.037,0.196,-5.337
0.185,0.037,0.199,-5.337
0.214,0.039,0.199,-5.337
0.166,0.041,0.196,-5.337
0.108,0.040,0.192,-5.337
0.134,0.039,0.193,-5.337
0.184,0.040,0.192,-5.337
0.175,0.040,0.194,-5.337
0.168,0.038,0.196,-5.337
0.181,0.036,0.198,-5.337
0.136,0.035,0.198,-5.337
0.126,0.037,0.199,-5.337
0.132,0.036,0.197,-5.337
0.190,0.032,0.195,-5.337
0.202,0.032,0.197,-5.337
0.163,0.034,0.199,-5.337
0.153,0.035,0.198,-5.337
0.149,0.039,0.196,-5.337
0.100,0.036,0.195,-5.337
0.111,0.033,0.199,-5.337
0.177,0.032,0.200,-5.337
0.237,0.033,0.199,-5.337
0.237,0.032,0.194,-5.337
0.209,0.035,0.192,-5.337
0.181,0.035,0.194,-5.337
0.180,0.034,0.199,-5.337
0.131,0.033,0.201,-5.337
0.100,0.033,0.195,-5.337
0.112,0.032,0.192,-5.337
0.195,0.032,0.192,-5.337
0.225,0.030,0.196,-5.337
0.204,0.029,0.194,-5.337
0.210,0.028,0.193,-5.337
0.200,0.029,0.193,-5.337
0.227,0.031,0.198,-5.337
0.252,0.030,0.201,-5.337
0.222,0.031,0.201,-5.337
0.183,0.028,0.198,-5.337
0.163,0.026,0.197,-5.337
0.166,0.028,0.195,-5.337
0.130,0.029,0.195,-5.337
0.067,0.031,0.194,-5.337
0.068,0.031,0.194,-5.337
0.136,0.030,0.197,-5.337
0.153,0.032,0.200,-5.337
0.166,0.032,0.199,-5.337
0.181,0.033,0.197,-5.337
0.156,0.033,0.196,-5.337
0.139,0.038,0.197,-5.337
0.167,0.036,0.201,-5.337
0.187,0.037,0.202,-5.337
0.158,0.037,0.200,-5.337
0.168,0.038,0.197,-5.337
0.158,0.038,0.195,-5.337
0.142,0.035,0.192,-5.337
0.136,0.035,0.196,-5.337
0.107,0.037,0.198,-5.337
0.106,0.037,0.198,-5.337
0.166,0.036,0.198,-5.337
0.212,0.037,0.197,-5.337
0.159,0.035,0.194,-5.337
0.107,0.032,0.192,-5.337
0.141,0.030,0.194,-5.337
0.155,0.027,0.198,-5.337
0.169,0.029,0.203,-5.337
0.167,0.030,0.200,-5.337
0.124,0.030,0.195,-5.337
0.148,0.029,0.193,-5.337
0.151,0.029,0.193,-5.337
0.155,0.031,0.194,-5.337
0.201,0.035,0.197,-5.337
0.195,0.040,0.199,-5.337
0.124,0.040,0.201,-5.337
0.103,0.038,0.200,-5.337
0.129,0.040,0.201,-5.337
0.132,0.039,0.199,-5.337
0.127,0.041,0.195,-5.337
0.152,0.041,0.191,-5.337
0.187,0.039,0.192,-5.337
0.177,0.039,0.194,-5.337
0.199,0.038,0.197,-5.337
0.186,0.040,0.196,-5.337
0.152,0.038,0.196,-5.337
0.167,0.034,0.198,-5.337
0.181,0.036,0.198,-5.337
0.180,0.034,0.198,-5.337
0.179,0.034,0.198,-5.337
0.136,0.035,0.197,-5.337
0.119,0.036,0.197,-5.337
0.139,0.033,0.195,-5.337
0.184,0.035,0.194,-5.337
0.219,0.038,0.194,-5.337
0.232,0.039,0.196,-5.337
0.135,0.039,0.196,-5.337
0.063,0.039,0.195,-5.337
0.119,0.038,0.194,-5.337
0.148,0.037,0.197,-5.337
0.149,0.039,0.201,-5.337
0.169,0.039,0.201,-5.337
0.201,0.036,0.199,-5.337
0.187,0.033,0.197,-5.337
0.181,0.032,0.198,-5.337
0.178,0.034,0.199,-5.337
0.181,0.038,0.202,-5.337
0.138,0.040,0.199,-5.337
0.086,0.041,0.195,-5.337
0.086,0.039,0.194,-5.337
0.160,0.040,0.197,-5.337
0.202,0.039,0.197,-5.337
0.174,0.040,0.199,-5.337
0.095,0.041,0.200,-5.337
0.163,0.038,0.200,-5.337
0.219,0.035,0.196,-5.337
0.199,0.038,0.193,-5.337
0.201,0.042,0.194,-5.337
0.217,0.040,0.194,-5.337
0.209,0.039,0.193,-5.337
0.235,0.037,0.196,-5.337
0.207,0.040,0.200,-5.337
0.154,0.042,0.200,-5.337
0.137,0.039,0.201,-5.337
0.182,0.036,0.199,-5.337
0.212,0.040,0.201,-5.337
0.182,0.041,0.202,-5.337
0.193,0.040,0.204,-5.337
0.217,0.039,0.201,-5.337
0.167,0.042,0.199,-5.337
0.140,0.041,0.194,-5.337
0.130,0.043,0.191,-5.337
0.142,0.040,0.193,-5.337
0.183,0.042,0.198,-5.337
0.168,0.043,0.200,-5.337
0.148,0.042,0.202,-5.337
0.161,0.040,0.201,-5.337
0.157,0.040,0.198,-5.337
0.207,0.042,0.197,-5.337
0.190,0.043,0.200,-5.337
0.197,0.044,0.204,-5.337
0.229,0.044,0.205,-5.337
0.223,0.043,0.198,-5.337
0.175,0.043,0.192,-5.337
0.208,0.039,0.192,-5.337
0.210,0.036,0.194,-5.337
0.129,0.039,0.198,-5.337
0.095,0.041,0.200,-5.337
0.165,0.042,0.200,-5.337
0.224,0.042,0.201,-5.337
0.250,0.040,0.202,-5.337
0.213,0.039,0.202,-5.337
0.177,0.041,0.199,-5.337
0.212,0.039,0.199,-5.337
0.238,0.039,0.200,-5.337
0.167,0.040,0.200,-5.337
0.091,0.043,0.202,-5.337
0.145,0.046,0.202,-5.337
0.216,0.043,0.203,-5.337
0.200,0.042,0.204,-5.337
0.176,0.046,0.200,-5.337
0.161,0.048,0.196,-5.337
0.163,0.046,0.194,-5.337
0.181,0.042,0.196,-5.337
0.212,0.041,0.196,-5.337
0.288,0.041,0.198,-5.337
0.262,0.043,0.198,-5.337
0.146,0.047,0.198,-5.337
0.086,0.047,0.197,-5.337
0.107,0.047,0.201,-5.337
0.184,0.045,0.200,-5.337
0.220,0.041,0.197,-5.337
0.224,0.041,0.198,-5.337
0.182,0.043,0.199,-5.337
0.190,0.043,0.196,-5.337
0.275,0.046,0.198,-5.337
0.312,0.045,0.199,-5.337
0.237,0.046,0.198,-5.337
0.172,0.046,0.196,-5.337
0.175,0.044,0.196,-5.337
0.228,0.042,0.199,-5.337
0.263,0.045,0.202,-5.337
0.253,0.042,0.201,-5.337
0.229,0.042,0.200,-5.337
0.175,0.044,0.198,-5.337
0.104,0.046,0.201,-5.337
0.093,0.046,0.200,-5.337
0.172,0.046,0.196,-5.337
0.211,0.045,0.197,-5.337
0.207,0.045,0.199,-5.337
0.154,0.049,0.197,-5.337
0.169,0.048,0.195,-5.337
0.170,0.047,0.195,-5.337
0.153,0.045,0.194,-5.337
0.195,0.047,0.200,-5.337
0.202,0.047,0.203,-5.337
0.196,0.046,0.204,-5.337
0.199,0.048,0.200,-5.337
0.203,0.051,0.196,-5.337
0.193,0.051,0.193,-5.337
0.230,0.050,0.197,-5.337
0.238,0.046,0.200,-5.337
0.248,0.043,0.199,-5.337
0.246,0.044,0.195,-5.337
0.188,0.048,0.194,-5.337
0.152,0.052,0.196,-5.337
0.187,0.054,0.198,-5.337
0.240,0.050,0.198,-5.337
0.214,0.049,0.200,-5.337
0.159,0.049,0.200,-5.337
0.134,0.051,0.197,-5.337
0.195,0.048,0.196,-5.337
0.245,0.048,0.194,-5.337
0.201,0.050,0.191,-5.337
0.223,0.051,0.190,-5.337
0.274,0.049,0.196,-5.337
0.217,0.055,0.198,-5.337
0.210,0.056,0.196,-5.337
0.258,0.055,0.194,-5.337
0.239,0.054,0.195,-5.337
0.245,0.054,0.198,-5.337
0.223,0.055,0.198,-5.337
0.214,0.056,0.200,-5.337
0.204,0.058,0.204,-5.337
0.189,0.058,0.205,-5.337
0.166,0.059,0.202,-5.337
0.192,0.056,0.197,-5.337
0.239,0.055,0.194,-5.337
0.267,0.055,0.193,-5.337
0.265,0.059,0.194,-5.337
0.244,0.058,0.197,-5.337
0.246,0.055,0.200,-5.337
0.204,0.056,0.203,-5.337
0.177,0.059,0.201,-5.337
0.199,0.057,0.201,-5.337
0.206,0.056,0.199,-5.337
0.186,0.055,0.199,-5.337
0.209,0.055,0.197,-5.337
0.228,0.056,0.195,-5.337
0.231,0.053,0.192,-5.337
0.244,0.050,0.195,-5.337
0.276,0.050,0.198,-5.337
0.332,0.050,0.199,-5.337
0.276,0.053,0.197,-5.337
0.152,0.055,0.195,-5.337
0.128,0.057,0.199,-5.337
0.200,0.055,0.200,-5.337
0.243,0.055,0.199,-5.337
0.194,0.057,0.197,-5.337
0.158,0.061,0.194,-5.337
0.174,0.058,0.194,-5.337
0.219,0.054,0.195,-5.337
0.245,0.053,0.197,-5.337
0.252,0.056,0.198,-5.337
0.267,0.054,0.198,-5.337
0.269,0.055,0.200,-5.337
0.221,0.056,0.199,-5.337
0.254,0.054,0.197,-5.337
0.240,0.055,0.197,-5.337
0.230,0.058,0.198,-5.337
0.235,0.059,0.195,-5.337
0.259,0.057,0.195,-5.337
0.263,0.055,0.192,-5.337
0.206,0.056,0.193,-5.337
0.151,0.057,0.197,-5.337
0.138,0.056,0.203,-5.337
0.138,0.053,0.201,-5.337
0.145,0.056,0.198,-5.337
0.110,0.057,0.195,-5.337
0.180,0.056,0.197,-5.337
0.296,0.054,0.197,-5.337
0.307,0.055,0.196,-5.337
0.235,0.058,0.197,-5.337
0.204,0.060,0.193,-5.337
0.238,0.057,0.194,-5.337
0.262,0.058,0.197,-5.337
0.268,0.059,0.199,-5.337
0.231,0.056,0.199,-5.337
0.212,0.054,0.202,-5.337
0.226,0.053,0.202,-5.337
0.238,0.055,0.202,-5.337
0.243,0.055,0.198,-5.337
0.301,0.053,0.198,-5.337
0.307,0.051,0.195,-5.337
0.255,0.056,0.192,-5.337
0.193,0.054,0.192,-5.337
0.177,0.057,0.196,-5.337
0.228,0.058,0.195,-5.337
0.271,0.055,0.193,-5.337
0.274,0.052,0.194,-5.337
0.232,0.056,0.197,-5.337
0.206,0.059,0.199,-5.337
0.217,0.061,0.199,-5.337
0.242,0.057,0.195,-5.337
0.305,0.053,0.195,-5.337
0.266,0.057,0.196,-5.337
0.223,0.059,0.199,-5.337
0.184,0.060,0.198,-5.337
0.226,0.056,0.194,-5.337
0.248,0.058,0.192,-5.337
0.228,0.059,0.194,-5.337
0.224,0.057,0.197,-5.337
0.275,0.057,0.197,-5.337
0.233,0.057,0.197,-5.337
0.184,0.057,0.196,-5.337
0.227,0.061,0.196,-5.337
0.262,0.061,0.194,-5.337
0.250,0.063,0.197,-5.337
0.206,0.062,0.198,-5.337
0.209,0.062,0.196,-5.337
0.232,0.058,0.193,-5.337
0.232,0.061,0.191,-5.337
0.251,0.065,0.195,-5.337
0.259,0.064,0.200,-5.337
0.230,0.060,0.200,-5.337
0.253,0.058,0.199,-5.337
0.249,0.060,0.196,-5.337
0.263,0.060,0.192,-5.337
0.273,0.058,0.191,-5.337
0.240,0.061,0.190,-5.337
0.189,0.057,0.192,-5.337
0.238,0.056,0.202,-5.337
0.297,0.055,0.205,-5.337
0.292,0.060,0.199,-5.337
0.301,0.059,0.195,-5.337
0.232,0.060,0.194,-5.337
0.197,0.060,0.195,-5.337
0.161,0.063,0.194,-5.337
0.179,0.062,0.200,-5.337
0.234,0.060,0.202,-5.337
0.287,0.058,0.199,-5.337
0.249,0.056,0.194,-5.337
0.248,0.057,0.193,-5.337
0.233,0.057,0.192,-5.337
0.208,0.056,0.193,-5.337
0.255,0.056,0.192,-5.337
0.246,0.060,0.192,-5.337
0.199,0.057,0.194,-5.337
0.202,0.056,0.197,-5.337
0.171,0.055,0.195,-5.337
0.193,0.054,0.196,-5.337
0.184,0.054,0.200,-5.337
0.202,0.056,0.202,-5.337
0.182,0.057,0.200,-5.337
0.202,0.056,0.197,-5.337
0.214,0.056,0.194,-5.337
0.247,0.059,0.191,-5.337
0.268,0.059,0.191,-5.337
0.231,0.058,0.193,-5.337
0.230,0.055,0.197,-5.337
0.288,0.053,0.196,-5.337
0.274,0.055,0.196,-5.337
0.233,0.057,0.196,-5.337
0.204,0.058,0.197,-5.337
0.220,0.056,0.196,-5.337
0.192,0.059,0.193,-5.337
0.176,0.059,0.190,-5.337
0.132,0.057,0.189,-5.337
0.184,0.054,0.195,-5.337
0.219,0.055,0.198,-5.337
0.255,0.055,0.198,-5.337
0.254,0.055,0.196,-5.337
0.197,0.056,0.197,-5.337
0.143,0.055,0.199,-5.337
0.148,0.059,0.195,-5.337
0.192,0.058,0.194,-5.337
0.218,0.057,0.195,-5.337
0.233,0.056,0.201,-5.337
0.217,0.061,0.206,-5.337
0.209,0.062,0.202,-5.337
0.223,0.063,0.197,-5.337
0.180,0.062,0.196,-5.337
0.163,0.060,0.196,-5.337
0.167,0.060,0.194,-5.337
0.174,0.061,0.197,-5.337
0.199,0.059,0.195,-5.337
0.222,0.057,0.195,-5.337
0.222,0.058,0.195,-5.337
0.213,0.061,0.196,-5.337
0.328,0.061,0.196,-5.337
0.362,0.060,0.199,-5.337
0.325,0.057,0.198,-5.337
0.291,0.057,0.194,-5.337
0.228,0.058,0.194,-5.337
0.221,0.059,0.198,-5.337
0.260,0.059,0.200,-5.337
0.217,0.060,0.201,-5.337
0.198,0.060,0.199,-5.337
0.200,0.060,0.198,-5.337
0.189,0.060,0.195,-5.337
0.200,0.057,0.194,-5.337
0.244,0.055,0.193,-5.337
0.242,0.057,0.192,-5.337
0.197,0.059,0.199,-5.337
0.235,0.057,0.203,-5.337
0.284,0.056,0.204,-5.337
0.171,0.058,0.202,-5.337
0.117,0.057,0.200,-5.337
0.216,0.054,0.194,-5.337
0.245,0.056,0.193,-5.337
0.184,0.056,0.195,-5.337
0.184,0.056,0.196,-5.337
0.216,0.054,0.197,-5.337
0.245,0.052,0.201,-5.337
0.213,0.052,0.203,-5.337
0.236,0.057,0.202,-5.337
0.231,0.058,0.201,-5.337
0.217,0.058,0.198,-5.337
0.192,0.060,0.196,-5.337
0.211,0.057,0.195,-5.337
0.213,0.054,0.192,-5.337
0.216,0.052,0.191,-5.337
0.200,0.057,0.197,-5.337
0.209,0.055,0.202,-5.337
0.193,0.050,0.203,-5.337
0.231,0.048,0.200,-5.337
0.224,0.051,0.200,-5.337
0.172,0.054,0.197,-5.337
0.165,0.053,0.195,-5.337
0.169,0.048,0.190,-5.337
0.205,0.049,0.194,-5.337
0.221,0.051,0.200,-5.337
0.218,0.051,0.201,-5.337
0.205,0.049,0.195,-5.337
0.190,0.055,0.195,-5.337
0.202,0.056,0.201,-5.337
0.229,0.061,0.204,-5.337
0.184,0.058,0.201,-5.337
0.214,0.052,0.197,-5.337
0.222,0.050,0.197,-5.337
0.228,0.055,0.199,-5.337
0.208,0.056,0.198,-5.337
0.154,0.056,0.196,-5.337
0.191,0.052,0.198,-5.337
0.215,0.050,0.199,-5.337
0.189,0.050,0.198,-5.337
0.222,0.046,0.194,-5.337
0.243,0.044,0.195,-5.337
0.248,0.043,0.195,-5.337
0.178,0.047,0.198,-5.337
0.150,0.049,0.200,-5.337
0.165,0.050,0.204,-5.337
0.239,0.048,0.201,-5.337
0.237,0.048,0.193,-5.337
0.212,0.044,0.186,-5.337
0.209,0.046,0.191,-5.337
0.131,0.045,0.200,-5.337
0.155,0.043,0.205,-5.337
0.153,0.046,0.202,-5.337
0.127,0.054,0.199,-5.337
0.130,0.054,0.197,-5.337
0.160,0.049,0.197,-5.337
0.207,0.046,0.199,-5.337
0.228,0.049,0.199,-5.337
0.224,0.051,0.197,-5.337
0.214,0.046,0.197,-5.337
0.240,0.047,0.196,-5.337
0.229,0.047,0.196,-5.337
0.249,0.045,0.196,-5.337
0.227,0.049,0.198,-5.337
0.201,0.048,0.201,-5.337
0.144,0.050,0.200,-5.337
0.101,0.049,0.194,-5.337
0.147,0.048,0.190,-5.337
0.151,0.048,0.192,-5.337
0.163,0.048,0.194,-5.337
0.192,0.050,0.196,-5.337
0.174,0.050,0.196,-5.337
0.130,0.054,0.196,-5.337
0.119,0.051,0.198,-5.337
0.179,0.047,0.199,-5.337
0.236,0.042,0.199,-5.337
0.242,0.041,0.197,-5.337
0.191,0.042,0.196,-5.337
0.168,0.044,0.198,-5.337
0.226,0.042,0.198,-5.337
0.262,0.042,0.197,-5.337
0.218,0.043,0.196,-5.337
0.235,0.043,0.190,-5.337
0.157,0.048,0.189,-5.337
0.120,0.051,0.192,-5.337
0.152,0.048,0.194,-5.337
0.176,0.043,0.196,-5.337
0.222,0.043,0.198,-5.337
0.190,0.045,0.202,-5.337
0.179,0.045,0.202,-5.337
0.214,0.044,0.198,-5.337
0.209,0.044,0.197,-5.337
0.182,0.047,0.197,-5.337
0.211,0.051,0.199,-5.337
0.213,0.045,0.198,-5.337
0.193,0.042,0.197,-5.337
0.182,0.047,0.195,-5.337
0.148,0.048,0.197,-5.337
0.122,0.048,0.198,-5.337
0.127,0.044,0.199,-5.337
0.176,0.040,0.194,-5.337
0.157,0.042,0.192,-5.337
0.146,0.043,0.194,-5.337
0.175,0.042,0.198,-5.337
0.115,0.043,0.201,-5.337
0.097,0.046,0.200,-5.337
0.113,0.046,0.197,-5.337
0.165,0.046,0.197,-5.337
0.179,0.045,0.198,-5.337
0.160,0.044,0.199,-5.337
0.105,0.047,0.198,-5.337
0.092,0.048,0.196,-5.337
0.137,0.047,0.195,-5.337
0.142,0.046,0.192,-5.337
0.183,0.046,0.196,-5.337
0.161,0.046,0.201,-5.337
0.142,0.050,0.204,-5.337
0.178,0.047,0.202,-5.337
0.226,0.044,0.199,-5.337
0.292,0.041,0.198,-5.337
0.257,0.040,0.198,-5.337
0.163,0.044,0.197,-5.337
0.070,0.052,0.196,-5.337
0.090,0.047,0.192,-5.337
0.163,0.047,0.197,-5.337
0.207,0.044,0.198,-5.337
0.200,0.041,0.197,-5.337
0.190,0.042,0.193,-5.337
0.179,0.045,0.196,-5.337
0.173,0.042,0.197,-5.337
0.192,0.044,0.196,-5.337
0.169,0.045,0.196,-5.337
0.136,0.046,0.195,-5.337
0.132,0.044,0.199,-5.337
0.107,0.046,0.199,-5.337
0.159,0.046,0.198,-5.337
0.180,0.044,0.196,-5.337
0.173,0.045,0.192,-5.337
0.174,0.044,0.194,-5.337
0.156,0.048,0.203,-5.337
0.093,0.047,0.204,-5.337
0.104,0.044,0.201,-5.337
0.109,0.045,0.196,-5.337
0.127,0.044,0.196,-5.337
0.124,0.046,0.196,-5.337
0.126,0.047,0.195,-5.337
0.167,0.045,0.192,-5.337
0.198,0.042,0.190,-5.337
0.161,0.041,0.193,-5.337
0.157,0.041,0.194,-5.337
0.181,0.042,0.196,-5.337
0.210,0.039,0.194,-5.337
0.153,0.039,0.197,-5.337
0.152,0.039,0.198,-5.337
0.213,0.038,0.201,-5.337
0.180,0.038,0.199,-5.337
0.142,0.042,0.197,-5.337
0.092,0.043,0.193,-5.337
0.132,0.043,0.193,-5.337
0.220,0.041,0.195,-5.337
0.260,0.044,0.197,-5.337
0.250,0.038,0.200,-5.337
0.211,0.039,0.201,-5.337
0.159,0.043,0.199,-5.337
0.212,0.043,0.195,-5.337
0.184,0.043,0.193,-5.337
0.072,0.045,0.192,-5.337
0.088,0.043,0.191,-5.337
0.155,0.043,0.194,-5.337
0.157,0.042,0.195,-5.337
0.162,0.043,0.195,-5.337
0.210,0.045,0.197,-5.337
0.175,0.041,0.197,-5.337
0.162,0.039,0.195,-5.337
0.174,0.041,0.194,-5.337
0.139,0.042,0.195,-5.337
0.137,0.045,0.194,-5.337
0.164,0.046,0.196,-5.337
0.205,0.042,0.199,-5.337
0.197,0.041,0.200,-5.337
0.159,0.041,0.196,-5.337
0.150,0.042,0.193,-5.337
0.164,0.043,0.194,-5.337
0.173,0.044,0.198,-5.337
0.144,0.043,0.200,-5.337
0.138,0.046,0.199,-5.337
0.113,0.046,0.198,-5.337
0.068,0.047,0.197,-5.337
0.127,0.042,0.193,-5.337
0.189,0.040,0.187,-5.337
0.175,0.040,0.191,-5.337
0.172,0.043,0.201,-5.337
0.152,0.041,0.205,-5.337
0.141,0.039,0.201,-5.337
0.143,0.038,0.199,-5.337
0.202,0.036,0.198,-5.337
0.240,0.037,0.199,-5.337
0.225,0.039,0.195,-5.337
0.165,0.042,0.193,-5.337
0.155,0.044,0.195,-5.337
0.165,0.044,0.198,-5.337
0.211,0.043,0.196,-5.337
0.195,0.042,0.194,-5.337
0.117,0.041,0.194,-5.337
0.085,0.043,0.195,-5.337
0.131,0.042,0.195,-5.337
0.150,0.044,0.198,-5.337
0.132,0.043,0.200,-5.337
0.193,0.042,0.197,-5.337
0.198,0.040,0.197,-5.337
0.160,0.042,0.197,-5.337
0.110,0.045,0.194,-5.337
0.094,0.045,0.192,-5.337
0.149,0.043,0.194,-5.337
0.161,0.040,0.194,-5.337
0.178,0.042,0.195,-5.337
0.169,0.043,0.194,-5.337
0.183,0.040,0.195,-5.337
0.162,0.041,0.197,-5.337
0.142,0.043,0.200,-5.337
0.125,0.042,0.199,-5.337
0.152,0.041,0.199,-5.337
0.173,0.037,0.195,-5.337
0.104,0.042,0.189,-5.337
0.130,0.045,0.189,-5.337
0.170,0.044,0.196,-5.337
0.206,0.043,0.196,-5.337
0.227,0.046,0.196,-5.337
0.182,0.044,0.194,-5.337
0.118,0.040,0.196,-5.337
0.104,0.036,0.199,-5.337
0.172,0.035,0.198,-5.337
0.191,0.035,0.196,-5.337
0.178,0.037,0.197,-5.337
0.154,0.036,0.197,-5.337
0.194,0.038,0.198,-5.337
0.238,0.038,0.194,-5.337
0.263,0.036,0.192,-5.337
0.225,0.038,0.195,-5.337
0.182,0.041,0.198,-5.337
0.156,0.042,0.200,-5.337
0.146,0.042,0.197,-5.337
0.239,0.041,0.195,-5.337
0.208,0.045,0.195,-5.337
0.105,0.047,0.197,-5.337
0.108,0.047,0.196,-5.337
0.195,0.045,0.198,-5.337
0.255,0.044,0.198,-5.337
0.261,0.041,0.198,-5.337
0.208,0.044,0.196,-5.337
0.191,0.042,0.197,-5.337
0.198,0.039,0.198,-5.337
0.215,0.041,0.199,-5.337
0.203,0.043,0.197,-5.337
0.190,0.045,0.196,-5.337
0.165,0.045,0.198,-5.337
0.170,0.042,0.198,-5.337
0.160,0.041,0.198,-5.337
0.148,0.038,0.199,-5.337
0.167,0.039,0.197,-5.337
0.179,0.042,0.199,-5.337
0.164,0.045,0.201,-5.337
0.169,0.044,0.199,-5.337
0.207,0.041,0.195,-5.337
0.202,0.040,0.194,-5.337
0.163,0.044,0.196,-5.337
0.161,0.047,0.195,-5.337
0.229,0.042,0.198,-5.337
0.277,0.040,0.198,-5.337
0.245,0.043,0.200,-5.337
0.220,0.041,0.198,-5.337
0.196,0.043,0.197,-5.337
0.206,0.043,0.200,-5.337
0.184,0.048,0.200,-5.337
0.187,0.049,0.197,-5.337
0.220,0.047,0.198,-5.337
0.209,0.047,0.200,-5.337
0.237,0.044,0.202,-5.337
0.233,0.047,0.199,-5.337
0.197,0.047,0.196,-5.337
0.144,0.053,0.194,-5.337
0.140,0.053,0.195,-5.337
0.192,0.051,0.197,-5.337
0.140,0.052,0.198,-5.337
0.118,0.050,0.196,-5.337
0.190,0.048,0.196,-5.337
0.242,0.047,0.199,-5.337
0.243,0.047,0.200,-5.337
0.119,0.049,0.199,-5.337
0.160,0.045,0.199,-5.337
0.171,0.046,0.203,-5.337
0.170,0.046,0.202,-5.337
0.195,0.045,0.200,-5.337
0.197,0.047,0.196,-5.337
0.217,0.051,0.194,-5.337
0.230,0.048,0.193,-5.337
0.199,0.048,0.193,-5.337
0.153,0.049,0.195,-5.337
0.168,0.050,0.198,-5.337
0.167,0.052,0.199,-5.337
0.180,0.051,0.203,-5.337
0.185,0.048,0.204,-5.337
0.190,0.050,0.202,-5.337
0.227,0.047,0.199,-5.337
0.243,0.049,0.199,-5.337
0.180,0.050,0.198,-5.337
0.153,0.054,0.199,-5.337
0.198,0.050,0.201,-5.337
0.221,0.046,0.198,-5.337
0.182,0.044,0.196,-5.337
0.223,0.045,0.193,-5.337
0.281,0.048,0.199,-5.337
0.280,0.051,0.200,-5.337
0.247,0.048,0.199,-5.337
0.246,0.044,0.197,-5.337
0.269,0.047,0.200,-5.337
0.235,0.049,0.203,-5.337
0.188,0.048,0.203,-5.337
0.181,0.047,0.200,-5.337
0.175,0.052,0.198,-5.337
0.179,0.053,0.196,-5.337
0.157,0.057,0.194,-5.337
0.157,0.055,0.196,-5.337
0.179,0.054,0.198,-5.337
0.217,0.053,0.201,-5.337
0.224,0.053,0.202,-5.337
0.200,0.053,0.196,-5.337
0.209,0.050,0.194,-5.337
0.237,0.048,0.197,-5.337
0.245,0.047,0.200,-5.337
0.251,0.049,0.200,-5.337
0.248,0.048,0.198,-5.337
0.294,0.047,0.198,-5.337
0.281,0.049,0.197,-5.337
0.227,0.054,0.198,-5.337
0.248,0.053,0.195,-5.337
0.192,0.054,0.195,-5.337
0.183,0.054,0.196,-5.337
0.273,0.053,0.199,-5.337
0.296,0.048,0.199,-5.337
0.265,0.050,0.202,-5.337
0.222,0.052,0.202,-5.337
0.181,0.054,0.200,-5.337
0.194,0.051,0.200,-5.337
0.240,0.048,0.201,-5.337
0.162,0.052,0.199,-5.337
0.162,0.053,0.195,-5.337
0.182,0.049,0.194,-5.337
0.172,0.051,0.192,-5.337
0.165,0.053,0.193,-5.337
0.133,0.056,0.197,-5.337
0.198,0.053,0.199,-5.337
0.255,0.051,0.197,-5.337
0.213,0.054,0.196,-5.337
0.219,0.054,0.202,-5.337
0.262,0.052,0.204,-5.337
0.195,0.053,0.201,-5.337
0.152,0.052,0.200,-5.337
0.205,0.055,0.198,-5.337
0.214,0.058,0.198,-5.337
0.182,0.059,0.197,-5.337
0.160,0.062,0.195,-5.337
0.164,0.061,0.194,-5.337
0.244,0.059,0.197,-5.337
0.291,0.058,0.199,-5.337
0.277,0.060,0.201,-5.337
0.223,0.061,0.203,-5.337
0.239,0.059,0.204,-5.337
0.277,0.058,0.199,-5.337
0.270,0.060,0.193,-5.337
0.236,0.054,0.190,-5.337
0.201,0.058,0.190,-5.337
0.227,0.056,0.192,-5.337
0.245,0.056,0.200,-5.337
0.190,0.059,0.207,-5.337
0.204,0.055,0.208,-5.337
0.211,0.052,0.201,-5.337
0.158,0.055,0.190,-5.337
0.152,0.057,0.190,-5.337
0.207,0.058,0.196,-5.337
0.223,0.058,0.199,-5.337
0.233,0.057,0.199,-5.337
0.217,0.057,0.203,-5.337
0.249,0.054,0.202,-5.337
0.254,0.055,0.199,-5.337
0.215,0.056,0.197,-5.337
0.171,0.055,0.198,-5.337
0.128,0.055,0.201,-5.337
0.120,0.054,0.201,-5.337
0.187,0.051,0.200,-5.337
0.216,0.053,0.198,-5.337
0.214,0.055,0.196,-5.337
0.223,0.055,0.194,-5.337
0.235,0.055,0.196,-5.337
0.247,0.056,0.200,-5.337
0.239,0.055,0.202,-5.337
0.245,0.054,0.203,-5.337
0.228,0.053,0.200,-5.337
0.213,0.054,0.196,-5.337
0.238,0.054,0.194,-5.337
0.232,0.056,0.197,-5.337
0.238,0.054,0.200,-5.337
0.179,0.057,0.197,-5.337
0.188,0.055,0.197,-5.337
0.269,0.053,0.196,-5.337
0.246,0.052,0.196,-5.337
0.198,0.051,0.194,-5.337
0.232,0.053,0.197,-5.337
0.248,0.052,0.194,-5.337
0.265,0.053,0.192,-5.337
0.251,0.053,0.193,-5.337
0.223,0.056,0.198,-5.337
0.192,0.057,0.200,-5.337
0.180,0.061,0.199,-5.337
0.203,0.060,0.198,-5.337
0.198,0.056,0.199,-5.337
0.237,0.056,0.199,-5.337
0.241,0.056,0.197,-5.337
0.224,0.055,0.196,-5.337
0.280,0.056,0.194,-5.337
0.294,0.055,0.195,-5.337
0.255,0.052,0.199,-5.337
0.257,0.048,0.200,-5.337
0.285,0.050,0.199,-5.337
0.245,0.052,0.200,-5.337
0.173,0.054,0.195,-5.337
0.216,0.054,0.194,-5.337
0.245,0.056,0.195,-5.337
0.230,0.055,0.196,-5.337
0.209,0.057,0.197,-5.337
0.206,0.061,0.199,-5.337
0.204,0.061,0.199,-5.337
0.233,0.057,0.198,-5.337
0.265,0.054,0.195,-5.337
0.277,0.056,0.193,-5.337
0.265,0.055,0.193,-5.337
0.261,0.057,0.194,-5.337
0.228,0.057,0.193,-5.337
0.198,0.059,0.190,-5.337
0.209,0.060,0.196,-5.337
0.267,0.059,0.198,-5.337
0.268,0.056,0.196,-5.337
0.208,0.059,0.197,-5.337
0.219,0.058,0.203,-5.337
0.238,0.057,0.204,-5.337
0.187,0.059,0.202,-5.337
0.161,0.058,0.197,-5.337
0.229,0.056,0.192,-5.337
0.293,0.053,0.192,-5.337
0.225,0.056,0.195,-5.337
0.186,0.058,0.197,-5.337
0.189,0.058,0.199,-5.337
0.184,0.059,0.197,-5.337
0.227,0.060,0.197,-5.337
0.263,0.058,0.198,-5.337
0.264,0.059,0.198,-5.337
0.237,0.060,0.196,-5.337
0.177,0.063,0.195,-5.337
0.185,0.063,0.196,-5.337
0.205,0.059,0.199,-5.337
0.244,0.057,0.198,-5.337
0.258,0.057,0.200,-5.337
0.243,0.057,0.201,-5.337
0.210,0.056,0.200,-5.337
0.249,0.053,0.195,-5.337
0.260,0.054,0.192,-5.337
0.188,0.059,0.191,-5.337
0.163,0.061,0.194,-5.337
0.202,0.057,0.201,-5.337
0.233,0.057,0.200,-5.337
0.232,0.055,0.198,-5.337
0.200,0.054,0.196,-5.337
0.186,0.056,0.196,-5.337
0.206,0.058,0.195,-5.337
0.235,0.056,0.194,-5.337
0.256,0.053,0.194,-5.337
0.266,0.052,0.193,-5.337
0.216,0.051,0.194,-5.337
0.216,0.054,0.198,-5.337
0.272,0.050,0.199,-5.337
0.292,0.050,0.200,-5.337
0.233,0.049,0.198,-5.337
0.270,0.047,0.197,-5.337
0.289,0.050,0.199,-5.337
0.219,0.056,0.199,-5.337
0.246,0.052,0.198,-5.337
0.274,0.051,0.199,-5.337
0.307,0.051,0.197,-5.337
0.275,0.052,0.193,-5.337
0.260,0.053,0.191,-5.337
0.232,0.055,0.191,-5.337
0.197,0.052,0.195,-5.337
0.173,0.056,0.197,-5.337
0.162,0.055,0.197,-5.337
0.183,0.053,0.197,-5.337
0.198,0.052,0.197,-5.337
0.189,0.052,0.194,-5.337
0.177,0.053,0.193,-5.337
0.164,0.051,0.196,-5.337
0.158,0.053,0.198,-5.337
0.166,0.053,0.196,-5.337
0.206,0.057,0.196,-5.337
0.210,0.059,0.195,-5.337
0.172,0.060,0.197,-5.337
0.141,0.059,0.202,-5.337
0.203,0.058,0.200,-5.337
0.266,0.055,0.197,-5.337
0.291,0.058,0.198,-5.337
0.249,0.056,0.195,-5.337
0.220,0.055,0.194,-5.337
0.208,0.054,0.195,-5.337
0.220,0.057,0.197,-5.337
0.204,0.059,0.195,-5.337
0.220,0.055,0.192,-5.337
0.251,0.051,0.199,-5.337
0.210,0.052,0.203,-5.337
0.206,0.051,0.200,-5.337
0.203,0.057,0.195,-5.337
0.215,0.054,0.196,-5.337
0.203,0.054,0.196,-5.337
0.147,0.056,0.197,-5.337
0.164,0.056,0.195,-5.337
0.218,0.056,0.195,-5.337
0.258,0.055,0.199,-5.337
0.217,0.057,0.198,-5.337
0.174,0.058,0.199,-5.337
0.201,0.054,0.200,-5.337
0.221,0.050,0.198,-5.337
0.182,0.051,0.199,-5.337
0.163,0.056,0.202,-5.337
0.209,0.056,0.204,-5.337
0.236,0.055,0.202,-5.337
0.239,0.053,0.200,-5.337
0.178,0.053,0.198,-5.337
0.183,0.053,0.195,-5.337
0.188,0.051,0.195,-5.337
0.174,0.048,0.197,-5.337
0.176,0.046,0.197,-5.337
0.195,0.048,0.198,-5.337
0.220,0.051,0.199,-5.337
0.191,0.051,0.198,-5.337
0.160,0.052,0.200,-5.337
0.187,0.052,0.200,-5.337
0.159,0.053,0.200,-5.337
0.196,0.050,0.201,-5.337
0.198,0.051,0.199,-5.337
0.123,0.053,0.197,-5.337
0.142,0.051,0.196,-5.337
0.175,0.050,0.194,-5.337
0.148,0.051,0.196,-5.337
0.154,0.051,0.199,-5.337
0.160,0.053,0.201,-5.337
0.131,0.052,0.196,-5.337
0.182,0.049,0.192,-5.337
0.198,0.050,0.194,-5.337
0.165,0.051,0.201,-5.337
0.153,0.049,0.205,-5.337
0.179,0.048,0.201,-5.337
0.150,0.049,0.197,-5.337
0.135,0.051,0.195,-5.337
0.169,0.052,0.196,-5.337
0.148,0.052,0.197,-5.337
0.128,0.050,0.200,-5.337
0.141,0.047,0.200,-5.337
0.163,0.044,0.198,-5.337
0.186,0.043,0.198,-5.337
0.201,0.044,0.198,-5.337
0.240,0.040,0.201,-5.337
0.264,0.037,0.204,-5.337
0.264,0.038,0.203,-5.337
0.259,0.039,0.201,-5.337
0.232,0.044,0.198,-5.337
0.189,0.048,0.199,-5.337
0.134,0.048,0.197,-5.337
0.152,0.047,0.197,-5.337
0.142,0.045,0.195,-5.337
0.124,0.043,0.195,-5.337
0.173,0.042,0.198,-5.337
0.241,0.039,0.197,-5.337
0.196,0.043,0.196,-5.337
0.110,0.041,0.198,-5.337
0.190,0.037,0.201,-5.337
0.211,0.039,0.201,-5.337
0.137,0.043,0.201,-5.337
0.123,0.045,0.196,-5.337
0.125,0.048,0.191,-5.337
0.120,0.045,0.188,-5.337
0.144,0.047,0.192,-5.337
0.140,0.046,0.199,-5.337
0.150,0.045,0.203,-5.337
0.196,0.042,0.205,-5.337
0.217,0.044,0.205,-5.337
0.212,0.044,0.200,-5.337
0.189,0.044,0.196,-5.337
0.125,0.043,0.193,-5.337
0.126,0.044,0.193,-5.337
0.170,0.044,0.192,-5.337
0.172,0.043,0.194,-5.337
0.197,0.040,0.195,-5.337
0.152,0.038,0.198,-5.337
0.194,0.036,0.199,-5.337
0.216,0.039,0.198,-5.337
0.212,0.042,0.198,-5.337
0.160,0.043,0.200,-5.337
0.120,0.045,0.201,-5.337
0.112,0.044,0.197,-5.337
0.183,0.044,0.196,-5.337
0.193,0.042,0.197,-5.337
0.230,0.039,0.202,-5.337
0.250,0.039,0.204,-5.337
0.202,0.040,0.203,-5.337
0.177,0.036,0.202,-5.337
0.200,0.041,0.201,-5.337
0.159,0.042,0.200,-5.337
0.139,0.041,0.199,-5.337
0.090,0.042,0.198,-5.337
0.053,0.045,0.196,-5.337
0.117,0.041,0.197,-5.337
0.156,0.038,0.200,-5.337
0.124,0.039,0.200,-5.337
0.160,0.039,0.199,-5.337
0.246,0.039,0.197,-5.337
0.262,0.037,0.201,-5.337
0.229,0.037,0.203,-5.337
0.207,0.037,0.200,-5.337
0.229,0.036,0.198,-5.337
0.182,0.039,0.198,-5.337
0.110,0.039,0.196,-5.337
0.079,0.043,0.196,-5.337
0.063,0.047,0.200,-5.337
0.057,0.046,0.201,-5.337
0.055,0.048,0.201,-5.337
0.058,0.046,0.199,-5.337
0.153,0.043,0.196,-5.337
0.192,0.041,0.198,-5.337
0.129,0.042,0.200,-5.337
0.107,0.043,0.199,-5.337
0.170,0.041,0.198,-5.337
0.215,0.038,0.198,-5.337
0.223,0.040,0.197,-5.337
0.198,0.044,0.194,-5.337
0.145,0.039,0.193,-5.337
0.168,0.036,0.193,-5.337
0.191,0.037,0.196,-5.337
0.167,0.042,0.199,-5.337
0.172,0.044,0.200,-5.337
0.187,0.042,0.199,-5.337
0.190,0.039,0.199,-5.337
0.250,0.034,0.198,-5.337
0.196,0.039,0.197,-5.337
0.143,0.043,0.198,-5.337
0.127,0.040,0.196,-5.337
0.144,0.038,0.200,-5.337
0.156,0.040,0.203,-5.337
0.141,0.042,0.206,-5.337
0.184,0.035,0.204,-5.337
0.180,0.038,0.200,-5.337
0.139,0.037,0.195,-5.337
0.139,0.036,0.193,-5.337
0.118,0.039,0.193,-5.337
0.091,0.042,0.195,-5.337
0.131,0.037,0.197,-5.337
0.140,0.038,0.201,-5.337
0.161,0.037,0.200,-5.337
0.177,0.035,0.199,-5.337
0.192,0.037,0.199,-5.337
0.142,0.038,0.198,-5.337
0.180,0.036,0.197,-5.337
0.166,0.036,0.194,-5.337
0.131,0.034,0.192,-5.337
0.106,0.030,0.192,-5.337
0.166,0.029,0.196,-5.337
0.247,0.028,0.196,-5.337
0.183,0.033,0.197,-5.337
0.126,0.034,0.200,-5.337
0.178,0.032,0.200,-5.337
0.220,0.030,0.196,-5.337
0.208,0.032,0.196,-5.337
0.202,0.034,0.197,-5.337
0.196,0.037,0.200,-5.337
0.180,0.039,0.202,-5.337
0.130,0.040,0.197,-5.337
0.059,0.043,0.194,-5.337
0.058,0.040,0.197,-5.337
0.108,0.035,0.201,-5.337
0.165,0.037,0.197,-5.337
0.168,0.038,0.193,-5.337
0.130,0.040,0.193,-5.337
0.103,0.035,0.196,-5.337
0.132,0.034,0.198,-5.337
0.128,0.034,0.198,-5.337
0.160,0.034,0.193,-5.337
0.142,0.040,0.192,-5.337
0.151,0.036,0.191,-5.337
0.202,0.032,0.192,-5.337
0.211,0.036,0.195,-5.337
0.225,0.037,0.200,-5.337
0.187,0.041,0.201,-5.337
0.151,0.038,0.200,-5.337
0.138,0.035,0.197,-5.337
0.140,0.036,0.197,-5.337
0.146,0.035,0.197,-5.337
0.174,0.036,0.195,-5.337
0.192,0.037,0.197,-5.337
0.189,0.041,0.196,-5.337
0.186,0.039,0.198,-5.337
0.225,0.037,0.198,-5.337
0.234,0.037,0.196,-5.337
0.231,0.040,0.197,-5.337
0.212,0.040,0.202,-5.337
0.158,0.042,0.203,-5.337
0.163,0.042,0.200,-5.337
0.214,0.040,0.195,-5.337
0.242,0.039,0.193,-5.337
0.231,0.042,0.193,-5.337
0.183,0.042,0.195,-5.337
0.143,0.040,0.193,-5.337
0.155,0.040,0.195,-5.337
0.180,0.040,0.195,-5.337
0.190,0.040,0.197,-5.337
0.178,0.044,0.196,-5.337
0.187,0.045,0.196,-5.337
0.213,0.042,0.198,-5.337
0.180,0.042,0.201,-5.337
0.143,0.041,0.201,-5.337
0.140,0.040,0.195,-5.337
0.168,0.036,0.192,-5.337
0.205,0.036,0.191,-5.337
0.131,0.039,0.190,-5.337
0.119,0.045,0.191,-5.337
0.129,0.045,0.196,-5.337
0.189,0.040,0.197,-5.337
0.191,0.038,0.195,-5.337
0.176,0.042,0.197,-5.337
0.188,0.044,0.198,-5.337
0.132,0.044,0.196,-5.337
0.129,0.041,0.197,-5.337
0.165,0.042,0.196,-5.337
0.117,0.044,0.198,-5.337
0.074,0.050,0.199,-5.337
0.117,0.049,0.200,-5.337
0.178,0.043,0.199,-5.337
0.174,0.047,0.200,-5.337
0.173,0.045,0.199,-5.337
0.251,0.042,0.198,-5.337
0.232,0.043,0.196,-5.337
0.138,0.047,0.196,-5.337
0.185,0.045,0.200,-5.337
0.205,0.043,0.199,-5.337
0.184,0.040,0.195,-5.337
0.213,0.039,0.195,-5.337
0.231,0.039,0.196,-5.337
0.181,0.041,0.197,-5.337
0.130,0.043,0.197,-5.337
0.160,0.040,0.195,-5.337
0.207,0.038,0.195,-5.337
0.212,0.035,0.195,-5.337
0.239,0.035,0.196,-5.337
0.241,0.036,0.194,-5.337
0.148,0.040,0.195,-5.337
0.139,0.037,0.196,-5.337
0.163,0.037,0.198,-5.337
0.209,0.035,0.195,-5.337
0.252,0.033,0.196,-5.337
0.213,0.037,0.200,-5.337
0.145,0.043,0.201,-5.337
0.128,0.044,0.200,-5.337
0.117,0.047,0.199,-5.337
0.177,0.045,0.195,-5.337
0.229,0.042,0.196,-5.337
0.218,0.039,0.197,-5.337
0.215,0.039,0.195,-5.337
0.193,0.044,0.200,-5.337
0.147,0.045,0.202,-5.337
0.119,0.043,0.200,-5.337
0.157,0.042,0.201,-5.337
0.225,0.040,0.200,-5.337
0.283,0.040,0.197,-5.337
0.252,0.039,0.193,-5.337
0.185,0.041,0.192,-5.337
0.223,0.040,0.197,-5.337
0.246,0.043,0.196,-5.337
0.210,0.044,0.196,-5.337
0.187,0.040,0.194,-5.337
0.195,0.038,0.194,-5.337
0.182,0.038,0.193,-5.337
0.140,0.040,0.196,-5.337
0.220,0.038,0.198,-5.337
0.278,0.042,0.201,-5.337
0.280,0.042,0.201,-5.337
0.299,0.041,0.201,-5.337
0.229,0.044,0.198,-5.337
0.202,0.047,0.198,-5.337
0.202,0.046,0.199,-5.337
0.224,0.048,0.204,-5.337
0.192,0.046,0.202,-5.337
0.243,0.043,0.199,-5.337
0.219,0.042,0.200,-5.337
0.168,0.043,0.198,-5.337
0.151,0.042,0.194,-5.337
0.149,0.047,0.196,-5.337
0.207,0.046,0.199,-5.337
0.224,0.047,0.198,-5.337
0.181,0.048,0.197,-5.337
0.193,0.049,0.193,-5.337
0.202,0.051,0.192,-5.337
0.179,0.050,0.193,-5.337
0.161,0.050,0.202,-5.337
0.190,0.049,0.205,-5.337
0.220,0.048,0.203,-5.337
0.216,0.048,0.197,-5.337
0.253,0.046,0.197,-5.337
0.283,0.045,0.199,-5.337
0.237,0.051,0.200,-5.337
0.164,0.052,0.200,-5.337
0.133,0.054,0.204,-5.337
0.138,0.052,0.202,-5.337
0.240,0.048,0.200,-5.337
0.238,0.052,0.197,-5.337
0.176,0.054,0.199,-5.337
0.207,0.052,0.199,-5.337
0.297,0.051,0.200,-5.337
0.269,0.052,0.199,-5.337
0.274,0.050,0.195,-5.337
0.248,0.051,0.194,-5.337
0.163,0.055,0.195,-5.337
0.109,0.059,0.196,-5.337
0.154,0.059,0.195,-5.337
0.221,0.061,0.199,-5.337
0.207,0.058,0.201,-5.337
0.175,0.059,0.201,-5.337
0.169,0.058,0.196,-5.337
0.244,0.055,0.195,-5.337
0.252,0.053,0.196,-5.337
0.232,0.053,0.197,-5.337
0.210,0.055,0.199,-5.337
0.156,0.059,0.201,-5.337
0.127,0.055,0.200,-5.337
0.144,0.056,0.200,-5.337
0.175,0.053,0.200,-5.337
0.248,0.051,0.198,-5.337
0.287,0.048,0.199,-5.337
0.292,0.049,0.198,-5.337
0.270,0.049,0.196,-5.337
0.205,0.053,0.195,-5.337
0.193,0.053,0.195,-5.337
0.192,0.051,0.194,-5.337
0.245,0.046,0.194,-5.337
0.315,0.046,0.194,-5.337
0.271,0.043,0.196,-5.337
0.282,0.045,0.196,-5.337
0.250,0.049,0.199,-5.337
0.228,0.047,0.202,-5.337
0.240,0.047,0.201,-5.337
0.219,0.053,0.200,-5.337
0.201,0.056,0.202,-5.337
0.246,0.051,0.202,-5.337
0.279,0.051,0.201,-5.337
0.252,0.054,0.197,-5.337
0.237,0.057,0.194,-5.337
0.231,0.054,0.195,-5.337
0.224,0.056,0.200,-5.337
0.268,0.053,0.200,-5.337
0.236,0.054,0.200,-5.337
0.191,0.057,0.203,-5.337
0.154,0.063,0.202,-5.337
0.187,0.061,0.197,-5.337
0.227,0.056,0.193,-5.337
0.251,0.054,0.191,-5.337
0.296,0.055,0.194,-5.337
0.241,0.054,0.199,-5.337
0.198,0.054,0.201,-5.337
0.225,0.054,0.203,-5.337
0.257,0.053,0.204,-5.337
0.278,0.052,0.202,-5.337
0.267,0.053,0.198,-5.337
0.204,0.054,0.200,-5.337
0.193,0.057,0.203,-5.337
0.177,0.061,0.201,-5.337
0.166,0.059,0.197,-5.337
0.250,0.054,0.199,-5.337
0.319,0.053,0.201,-5.337
0.325,0.056,0.199,-5.337
0.253,0.057,0.197,-5.337
0.260,0.056,0.196,-5.337
0.232,0.057,0.198,-5.337
0.192,0.058,0.197,-5.337
0.194,0.056,0.197,-5.337
0.230,0.055,0.202,-5.337
0.249,0.055,0.203,-5.337
0.319,0.055,0.203,-5.337
0.331,0.059,0.203,-5.337
0.241,0.061,0.198,-5.337
0.181,0.059,0.193,-5.337
0.204,0.058,0.195,-5.337
0.261,0.059,0.200,-5.337
0.235,0.061,0.201,-5.337
0.249,0.062,0.200,-5.337
0.243,0.061,0.195,-5.337
0.213,0.063,0.194,-5.337
0.207,0.063,0.194,-5.337
0.190,0.065,0.197,-5.337
0.181,0.061,0.198,-5.337
0.214,0.058,0.201,-5.337
0.234,0.060,0.202,-5.337
0.209,0.064,0.199,-5.337
0.167,0.064,0.196,-5.337
0.253,0.060,0.194,-5.337
0.278,0.057,0.194,-5.337
0.202,0.058,0.195,-5.337
0.209,0.057,0.197,-5.337
0.271,0.053,0.201,-5.337
0.262,0.054,0.204,-5.337
0.259,0.055,0.207,-5.337
0.265,0.055,0.204,-5.337
0.245,0.054,0.196,-5.337
0.245,0.051,0.194,-5.337
0.231,0.051,0.195,-5.337
0.229,0.049,0.195,-5.337
0.275,0.050,0.195,-5.337
0.272,0.051,0.198,-5.337
0.228,0.054,0.200,-5.337
0.277,0.055,0.201,-5.337
0.312,0.054,0.200,-5.337
0.262,0.058,0.201,-5.337
0.247,0.058,0.199,-5.337
0.286,0.054,0.196,-5.337
0.294,0.056,0.197,-5.337
0.237,0.058,0.197,-5.337
0.208,0.060,0.195,-5.337
0.174,0.059,0.195,-5.337
0.212,0.056,0.195,-5.337
0.259,0.057,0.197,-5.337
0.226,0.058,0.200,-5.337
0.166,0.057,0.201,-5.337
0.204,0.052,0.204,-5.337
0.254,0.055,0.202,-5.337
0.195,0.057,0.198,-5.337
0.171,0.054,0.197,-5.337
0.251,0.052,0.201,-5.337
0.251,0.056,0.203,-5.337
0.259,0.055,0.204,-5.337
0.286,0.054,0.198,-5.337
0.277,0.056,0.194,-5.337
0.281,0.056,0.190,-5.337
0.268,0.056,0.190,-5.337
0.222,0.059,0.191,-5.337
0.229,0.057,0.196,-5.337
0.261,0.054,0.200,-5.337
0.234,0.056,0.200,-5.337
0.163,0.065,0.198,-5.337
0.167,0.065,0.198,-5.337
0.216,0.058,0.195,-5.337
0.234,0.054,0.195,-5.337
0.232,0.057,0.198,-5.337
0.291,0.056,0.201,-5.337
0.257,0.060,0.198,-5.337
0.194,0.062,0.194,-5.337
0.240,0.060,0.193,-5.337
0.215,0.064,0.195,-5.337
0.183,0.064,0.198,-5.337
0.190,0.062,0.198,-5.337
0.162,0.065,0.198,-5.337
0.137,0.062,0.198,-5.337
0.111,0.064,0.197,-5.337
0.147,0.064,0.196,-5.337
0.225,0.058,0.198,-5.337
0.244,0.056,0.197,-5.337
0.212,0.057,0.195,-5.337
0.252,0.054,0.194,-5.337
0.272,0.058,0.197,-5.337
0.238,0.059,0.199,-5.337
0.273,0.056,0.198,-5.337
0.289,0.056,0.196,-5.337
0.256,0.061,0.194,-5.337
0.254,0.061,0.191,-5.337
0.210,0.061,0.194,-5.337
0.219,0.059,0.197,-5.337
0.232,0.061,0.195,-5.337
0.167,0.063,0.194,-5.337
0.209,0.060,0.194,-5.337
0.300,0.058,0.195,-5.337
0.314,0.059,0.196,-5.337
0.197,0.058,0.196,-5.337
0.148,0.055,0.193,-5.337
0.215,0.056,0.196,-5.337
0.274,0.055,0.201,-5.337
0.235,0.057,0.205,-5.337
0.181,0.058,0.198,-5.337
0.203,0.056,0.190,-5.337
0.254,0.059,0.188,-5.337
0.225,0.058,0.192,-5.337
0.252,0.053,0.196,-5.337
0.255,0.054,0.200,-5.337
0.205,0.052,0.200,-5.337
0.147,0.054,0.198,-5.337
0.174,0.053,0.198,-5.337
0.239,0.052,0.198,-5.337
0.242,0.054,0.196,-5.337
0.221,0.054,0.194,-5.337
0.209,0.051,0.193,-5.337
0.181,0.051,0.196,-5.337
0.239,0.051,0.196,-5.337
0.228,0.053,0.196,-5.337
0.168,0.055,0.196,-5.337
0.188,0.055,0.194,-5.337
0.178,0.051,0.197,-5.337
0.162,0.048,0.199,-5.337
0.203,0.050,0.199,-5.337
0.251,0.051,0.199,-5.337
0.210,0.054,0.202,-5.337
0.203,0.051,0.201,-5.337
0.227,0.052,0.198,-5.337
0.230,0.055,0.193,-5.337
0.224,0.056,0.194,-5.337
0.260,0.054,0.195,-5.337
0.234,0.054,0.198,-5.337
0.170,0.056,0.201,-5.337
0.194,0.052,0.199,-5.337
0.242,0.047,0.192,-5.337
0.218,0.048,0.192,-5.337
0.183,0.048,0.196,-5.337
0.137,0.047,0.200,-5.337
0.137,0.049,0.198,-5.337
0.176,0.048,0.199,-5.337
0.174,0.049,0.197,-5.337
0.198,0.049,0.192,-5.337
0.207,0.050,0.191,-5.337
0.187,0.052,0.194,-5.337
0.195,0.049,0.195,-5.337
0.195,0.054,0.193,-5.337
0.173,0.057,0.195,-5.337
0.154,0.054,0.194,-5.337
0.134,0.052,0.197,-5.337
0.141,0.051,0.200,-5.337
0.162,0.050,0.205,-5.337
0.180,0.048,0.206,-5.337
0.206,0.051,0.201,-5.337
0.182,0.049,0.192,-5.337
0.183,0.048,0.192,-5.337
0.213,0.048,0.195,-5.337
0.171,0.052,0.197,-5.337
0.131,0.054,0.196,-5.337
0.171,0.054,0.195,-5.337
0.233,0.054,0.195,-5.337
0.204,0.054,0.192,-5.337
0.140,0.057,0.192,-5.337
0.195,0.055,0.198,-5.337
0.241,0.052,0.200,-5.337
0.246,0.047,0.198,-5.337
0.260,0.044,0.198,-5.337
0.230,0.050,0.199,-5.337
0.162,0.051,0.199,-5.337
0.151,0.054,0.197,-5.337
0.197,0.055,0.200,-5.337
0.204,0.054,0.201,-5.337
0.202,0.048,0.205,-5.337
0.273,0.042,0.203,-5.337
0.253,0.044,0.200,-5.337
0.142,0.042,0.194,-5.337
0.101,0.044,0.194,-5.337
0.168,0.042,0.200,-5.337
0.217,0.045,0.201,-5.337
0.210,0.050,0.197,-5.337
0.182,0.050,0.197,-5.337
0.191,0.046,0.197,-5.337
0.217,0.044,0.196,-5.337
0.258,0.044,0.193,-5.337
0.248,0.041,0.196,-5.337
0.133,0.046,0.200,-5.337
0.119,0.050,0.202,-5.337
0.162,0.051,0.202,-5.337
0.157,0.049,0.198,-5.337
0.200,0.045,0.200,-5.337
0.205,0.045,0.200,-5.337
0.168,0.047,0.200,-5.337
0.142,0.047,0.198,-5.337
0.192,0.042,0.199,-5.337
0.230,0.040,0.197,-5.337
0.236,0.042,0.194,-5.337
0.219,0.042,0.194,-5.337
0.176,0.044,0.197,-5.337
0.183,0.043,0.196,-5.337
0.132,0.046,0.199,-5.337
0.117,0.045,0.201,-5.337
0.209,0.046,0.202,-5.337
0.253,0.044,0.200,-5.337
0.199,0.043,0.198,-5.337
0.172,0.044,0.198,-5.337
0.215,0.046,0.202,-5.337
0.247,0.040,0.202,-5.337
0.239,0.038,0.196,-5.337
0.224,0.042,0.197,-5.337
0.164,0.046,0.195,-5.337
0.114,0.044,0.196,-5.337
0.122,0.044,0.197,-5.337
0.153,0.044,0.198,-5.337
0.172,0.044,0.200,-5.337
0.203,0.043,0.200,-5.337
0.169,0.043,0.196,-5.337
0.164,0.043,0.194,-5.337
0.190,0.041,0.192,-5.337
0.206,0.040,0.197,-5.337
0.200,0.039,0.199,-5.337
0.214,0.039,0.200,-5.337
0.196,0.038,0.199,-5.337
0.187,0.039,0.199,-5.337
0.200,0.040,0.198,-5.337
0.187,0.040,0.195,-5.337
0.204,0.039,0.196,-5.337
0.192,0.040,0.197,-5.337
0.202,0.039,0.194,-5.337
0.184,0.040,0.196,-5.337
0.171,0.040,0.197,-5.337
0.165,0.040,0.198,-5.337
0.132,0.042,0.199,-5.337
0.161,0.042,0.196,-5.337
0.207,0.043,0.196,-5.337
0.192,0.042,0.199,-5.337
0.184,0.041,0.200,-5.337
0.194,0.042,0.197,-5.337
0.198,0.042,0.197,-5.337
0.206,0.039,0.198,-5.337
0.193,0.038,0.200,-5.337
0.214,0.040,0.200,-5.337
0.177,0.041,0.197,-5.337
0.157,0.040,0.191,-5.337
0.138,0.042,0.190,-5.337
0.121,0.044,0.193,-5.337
0.168,0.044,0.198,-5.337
0.161,0.041,0.198,-5.337
0.139,0.040,0.199,-5.337
0.157,0.040,0.199,-5.337
0.160,0.042,0.200,-5.337
0.144,0.044,0.202,-5.337
0.130,0.045,0.201,-5.337
0.181,0.044,0.199,-5.337
0.199,0.046,0.199,-5.337
0.194,0.045,0.198,-5.337
0.179,0.047,0.194,-5.337
0.117,0.048,0.193,-5.337
0.139,0.043,0.194,-5.337
0.181,0.042,0.200,-5.337
0.161,0.043,0.203,-5.337
0.148,0.046,0.201,-5.337
0.206,0.045,0.199,-5.337
0.248,0.044,0.200,-5.337
0.224,0.042,0.202,-5.337
0.161,0.042,0.200,-5.337
0.140,0.042,0.199,-5.337
0.166,0.044,0.199,-5.337
0.155,0.042,0.195,-5.337
0.177,0.042,0.196,-5.337
0.194,0.041,0.204,-5.337
0.200,0.038,0.207,-5.337
0.146,0.038,0.204,-5.337
0.151,0.039,0.201,-5.337
0.206,0.037,0.196,-5.337
0.178,0.042,0.195,-5.337
0.123,0.043,0.199,-5.337
0.149,0.042,0.201,-5.337
0.196,0.037,0.201,-5.337
0.226,0.037,0.201,-5.337
0.190,0.038,0.200,-5.337
0.168,0.041,0.196,-5.337
0.154,0.044,0.197,-5.337
0.174,0.039,0.196,-5.337
0.222,0.034,0.200,-5.337
0.185,0.037,0.204,-5.337
0.117,0.038,0.203,-5.337
0.155,0.034,0.201,-5.337
0.224,0.035,0.201,-5.337
0.209,0.038,0.200,-5.337
0.138,0.038,0.198,-5.337
0.104,0.037,0.195,-5.337
0.157,0.037,0.197,-5.337
0.207,0.036,0.200,-5.337
0.156,0.038,0.199,-5.337
0.104,0.039,0.200,-5.337
0.144,0.041,0.200,-5.337
0.145,0.040,0.196,-5.337
0.115,0.040,0.193,-5.337
0.140,0.038,0.192,-5.337
0.158,0.036,0.195,-5.337
0.154,0.036,0.199,-5.337
0.087,0.042,0.199,-5.337
0.102,0.039,0.202,-5.337
0.186,0.041,0.201,-5.337
0.182,0.043,0.201,-5.337
0.093,0.046,0.202,-5.337
0.128,0.043,0.202,-5.337
0.141,0.042,0.194,-5.337
0.146,0.042,0.190,-5.337
0.203,0.042,0.192,-5.337
0.216,0.041,0.196,-5.337
0.175,0.042,0.194,-5.337
0.171,0.042,0.197,-5.337
0.199,0.038,0.200,-5.337
0.263,0.037,0.203,-5.337
0.199,0.039,0.202,-5.337
0.167,0.039,0.198,-5.337
0.205,0.037,0.193,-5.337
0.232,0.039,0.195,-5.337
0.197,0.043,0.195,-5.337
0.189,0.045,0.194,-5.337
0.160,0.045,0.198,-5.337
0.217,0.041,0.202,-5.337
0.223,0.037,0.199,-5.337
0.210,0.040,0.197,-5.337
0.225,0.043,0.199,-5.337
0.221,0.042,0.200,-5.337
0.219,0.042,0.200,-5.337
0.187,0.044,0.195,-5.337
0.209,0.042,0.196,-5.337
0.198,0.041,0.199,-5.337
0.196,0.041,0.200,-5.337
0.204,0.042,0.198,-5.337
0.202,0.044,0.195,-5.337
0.217,0.043,0.192,-5.337
0.249,0.042,0.193,-5.337
0.284,0.040,0.199,-5.337
0.264,0.040,0.204,-5.337
0.232,0.042,0.204,-5.337
0.240,0.041,0.199,-5.337
0.229,0.040,0.195,-5.337
0.243,0.039,0.193,-5.337
0.272,0.038,0.193,-5.337
0.191,0.045,0.196,-5.337
0.155,0.047,0.195,-5.337
0.213,0.044,0.195,-5.337
0.271,0.041,0.197,-5.337
0.265,0.040,0.198,-5.337
0.249,0.039,0.194,-5.337
0.213,0.041,0.194,-5.337
0.163,0.042,0.201,-5.337
0.166,0.040,0.203,-5.337
0.204,0.041,0.203,-5.337
0.201,0.042,0.200,-5.337
0.098,0.042,0.198,-5.337
0.102,0.045,0.196,-5.337
0.175,0.047,0.198,-5.337
0.177,0.043,0.198,-5.337
0.156,0.044,0.199,-5.337
0.142,0.044,0.196,-5.337
0.199,0.045,0.195,-5.337
0.227,0.046,0.193,-5.337
0.297,0.042,0.192,-5.337
0.317,0.042,0.191,-5.337
0.234,0.043,0.198,-5.337
0.132,0.041,0.203,-5.337
0.148,0.044,0.199,-5.337
0.182,0.046,0.194,-5.337
0.196,0.045,0.195,-5.337
0.241,0.045,0.201,-5.337
0.198,0.045,0.200,-5.337
0.190,0.044,0.194,-5.337
0.238,0.040,0.193,-5.337
0.237,0.043,0.200,-5.337
0.243,0.043,0.203,-5.337
0.196,0.049,0.199,-5.337
0.090,0.050,0.195,-5.337
0.125,0.050,0.197,-5.337
0.185,0.045,0.199,-5.337
0.176,0.046,0.199,-5.337
0.161,0.049,0.194,-5.337
0.188,0.048,0.192,-5.337
0.194,0.046,0.194,-5.337
0.163,0.045,0.200,-5.337
0.164,0.048,0.199,-5.337
0.172,0.049,0.199,-5.337
0.173,0.046,0.197,-5.337
0.202,0.042,0.195,-5.337
0.217,0.045,0.196,-5.337
0.158,0.050,0.200,-5.337
0.133,0.050,0.200,-5.337
0.165,0.050,0.195,-5.337
0.184,0.051,0.194,-5.337
0.233,0.048,0.195,-5.337
0.272,0.043,0.197,-5.337
0.271,0.043,0.194,-5.337
0.195,0.045,0.196,-5.337
0.211,0.045,0.199,-5.337
0.188,0.048,0.200,-5.337
0.163,0.050,0.196,-5.337
0.220,0.051,0.196,-5.337
0.269,0.047,0.195,-5.337
0.230,0.047,0.194,-5.337
0.191,0.048,0.194,-5.337
0.220,0.047,0.198,-5.337
0.263,0.040,0.202,-5.337
0.272,0.042,0.200,-5.337
0.199,0.046,0.199,-5.337
0.167,0.046,0.201,-5.337
0.207,0.046,0.199,-5.337
0.222,0.049,0.197,-5.337
0.163,0.054,0.193,-5.337
0.133,0.054,0.191,-5.337
0.107,0.055,0.195,-5.337
0.118,0.053,0.203,-5.337
0.185,0.047,0.206,-5.337
0.200,0.049,0.199,-5.337
0.173,0.049,0.193,-5.337
0.125,0.047,0.191,-5.337
0.186,0.044,0.196,-5.337
0.260,0.045,0.197,-5.337
0.204,0.046,0.198,-5.337
0.130,0.048,0.197,-5.337
0.148,0.046,0.197,-5.337
0.214,0.044,0.197,-5.337
0.238,0.046,0.199,-5.337
0.194,0.046,0.201,-5.337
0.159,0.049,0.200,-5.337
0.175,0.048,0.201,-5.337
0.197,0.046,0.205,-5.337
0.185,0.046,0.205,-5.337
0.215,0.047,0.200,-5.337
0.218,0.047,0.194,-5.337
0.234,0.044,0.192,-5.337
0.276,0.045,0.197,-5.337
0.290,0.048,0.199,-5.337
0.262,0.050,0.197,-5.337
0.229,0.050,0.194,-5.337
0.281,0.049,0.199,-5.337
0.305,0.051,0.202,-5.337
0.205,0.052,0.203,-5.337
0.208,0.045,0.201,-5.337
0.290,0.042,0.200,-5.337
0.301,0.042,0.197,-5.337
0.201,0.050,0.196,-5.337
0.151,0.052,0.199,-5.337
0.136,0.055,0.198,-5.337
0.190,0.054,0.196,-5.337
0.210,0.051,0.200,-5.337
0.230,0.049,0.201,-5.337
0.233,0.048,0.202,-5.337
0.202,0.049,0.199,-5.337
0.172,0.050,0.198,-5.337
0.223,0.049,0.200,-5.337
0.285,0.050,0.201,-5.337
0.287,0.050,0.195,-5.337
0.251,0.053,0.192,-5.337
0.221,0.054,0.192,-5.337
0.246,0.048,0.196,-5.337
0.236,0.045,0.201,-5.337
0.217,0.052,0.201,-5.337
0.185,0.056,0.200,-5.337
0.224,0.051,0.196,-5.337
0.256,0.050,0.198,-5.337
0.257,0.049,0.202,-5.337
0.240,0.054,0.205,-5.337
0.204,0.052,0.204,-5.337
0.217,0.051,0.200,-5.337
0.207,0.049,0.200,-5.337
0.165,0.054,0.199,-5.337
0.200,0.052,0.197,-5.337
0.271,0.050,0.196,-5.337
0.231,0.051,0.197,-5.337
0.240,0.053,0.196,-5.337
0.248,0.054,0.196,-5.337
0.177,0.054,0.199,-5.337
0.194,0.049,0.200,-5.337
0.248,0.048,0.198,-5.337
0.232,0.049,0.197,-5.337
0.216,0.049,0.196,-5.337
0.208,0.050,0.199,-5.337
0.261,0.048,0.200,-5.337
0.272,0.048,0.202,-5.337
0.280,0.050,0.199,-5.337
0.261,0.049,0.198,-5.337
0.227,0.050,0.195,-5.337
0.262,0.052,0.195,-5.337
0.285,0.053,0.195,-5.337
0.287,0.056,0.197,-5.337
0.263,0.053,0.198,-5.337
0.221,0.053,0.198,-5.337
0.259,0.048,0.198,-5.337
0.244,0.050,0.198,-5.337
0.180,0.051,0.198,-5.337
0.208,0.054,0.197,-5.337
0.199,0.053,0.197,-5.337
0.217,0.050,0.198,-5.337
0.185,0.053,0.196,-5.337
0.239,0.049,0.195,-5.337
0.242,0.053,0.200,-5.337
0.213,0.053,0.200,-5.337
0.271,0.052,0.200,-5.337
0.311,0.053,0.199,-5.337
0.255,0.056,0.199,-5.337
0.215,0.052,0.198,-5.337
0.242,0.054,0.200,-5.337
0.227,0.058,0.197,-5.337
0.201,0.062,0.194,-5.337
0.198,0.060,0.193,-5.337
0.143,0.061,0.197,-5.337
0.151,0.059,0.198,-5.337
0.253,0.053,0.196,-5.337
0.223,0.051,0.196,-5.337
0.198,0.052,0.197,-5.337
0.196,0.053,0.196,-5.337
0.187,0.058,0.196,-5.337
0.242,0.055,0.197,-5.337
0.258,0.054,0.197,-5.337
0.201,0.055,0.197,-5.337
0.189,0.056,0.201,-5.337
0.242,0.052,0.197,-5.337
0.292,0.051,0.195,-5.337
0.217,0.054,0.193,-5.337
0.188,0.055,0.193,-5.337
0.186,0.052,0.199,-5.337
0.200,0.050,0.205,-5.337
0.232,0.049,0.205,-5.337
0.220,0.055,0.201,-5.337
0.192,0.054,0.198,-5.337
0.218,0.051,0.197,-5.337
0.199,0.055,0.198,-5.337
0.205,0.056,0.196,-5.337
0.249,0.055,0.198,-5.337
0.268,0.055,0.197,-5.337
0.287,0.055,0.198,-5.337
0.309,0.057,0.202,-5.337
0.235,0.061,0.203,-5.337
0.202,0.057,0.200,-5.337
0.216,0.055,0.199,-5.337
0.194,0.055,0.199,-5.337
0.185,0.059,0.200,-5.337
0.212,0.056,0.199,-5.337
0.232,0.055,0.200,-5.337
0.234,0.055,0.200,-5.337
0.246,0.058,0.199,-5.337
0.281,0.057,0.199,-5.337
0.315,0.056,0.200,-5.337
0.257,0.054,0.195,-5.337
0.267,0.054,0.192,-5.337
0.233,0.057,0.198,-5.337
0.174,0.059,0.203,-5.337
0.193,0.058,0.205,-5.337
0.255,0.057,0.200,-5.337
0.270,0.059,0.195,-5.337
0.247,0.055,0.196,-5.337
0.240,0.055,0.198,-5.337
0.243,0.057,0.198,-5.337
0.220,0.060,0.205,-5.337
0.157,0.062,0.208,-5.337
0.177,0.061,0.201,-5.337
0.264,0.057,0.197,-5.337
0.312,0.056,0.199,-5.337
0.260,0.056,0.203,-5.337
0.217,0.055,0.201,-5.337
0.212,0.055,0.198,-5.337
0.261,0.057,0.197,-5.337
0.288,0.058,0.196,-5.337
0.223,0.062,0.195,-5.337
0.178,0.062,0.195,-5.337
0.215,0.059,0.195,-5.337
0.231,0.060,0.198,-5.337
0.225,0.058,0.199,-5.337
0.204,0.059,0.199,-5.337
0.231,0.059,0.200,-5.337
0.192,0.058,0.198,-5.337
0.174,0.059,0.196,-5.337
0.210,0.057,0.197,-5.337
0.288,0.056,0.196,-5.337
0.386,0.053,0.195,-5.337
0.378,0.057,0.195,-5.337
0.225,0.059,0.197,-5.337
0.197,0.054,0.199,-5.337
0.211,0.058,0.198,-5.337
0.227,0.057,0.197,-5.337
0.248,0.059,0.199,-5.337
0.176,0.058,0.201,-5.337
0.113,0.059,0.200,-5.337
0.124,0.059,0.199,-5.337
0.172,0.060,0.200,-5.337
0.199,0.063,0.199,-5.337
0.213,0.064,0.201,-5.337
0.225,0.057,0.198,-5.337
0.267,0.055,0.199,-5.337
0.241,0.055,0.201,-5.337
0.242,0.053,0.200,-5.337
0.198,0.053,0.199,-5.337
0.221,0.052,0.195,-5.337
0.260,0.053,0.195,-5.337
0.199,0.056,0.192,-5.337
0.177,0.056,0.192,-5.337
0.228,0.055,0.192,-5.337
0.213,0.054,0.195,-5.337
0.159,0.052,0.195,-5.337
0.175,0.055,0.194,-5.337
0.188,0.054,0.194,-5.337
0.195,0.055,0.196,-5.337
0.229,0.056,0.200,-5.337
0.288,0.054,0.197,-5.337
0.284,0.051,0.192,-5.337
0.272,0.054,0.195,-5.337
0.268,0.051,0.198,-5.337
0.237,0.052,0.195,-5.337
0.209,0.056,0.194,-5.337
0.184,0.060,0.197,-5.337
0.174,0.060,0.201,-5.337
0.165,0.060,0.204,-5.337
0.098,0.060,0.203,-5.337
0.129,0.060,0.198,-5.337
0.236,0.055,0.198,-5.337
0.282,0.052,0.195,-5.337
0.208,0.055,0.196,-5.337
0.176,0.058,0.197,-5.337
0.192,0.059,0.196,-5.337
0.237,0.056,0.194,-5.337
0.219,0.059,0.192,-5.337
0.192,0.058,0.192,-5.337
0.228,0.055,0.197,-5.337
0.258,0.056,0.200,-5.337
0.247,0.057,0.205,-5.337
0.244,0.053,0.205,-5.337
0.273,0.054,0.201,-5.337
0.272,0.054,0.193,-5.337
0.228,0.056,0.192,-5.337
0.241,0.053,0.193,-5.337
0.232,0.053,0.195,-5.337
0.192,0.050,0.194,-5.337
0.224,0.052,0.194,-5.337
0.240,0.052,0.198,-5.337
0.257,0.047,0.194,-5.337
0.223,0.047,0.193,-5.337
0.202,0.053,0.192,-5.337
0.170,0.055,0.195,-5.337
0.179,0.048,0.196,-5.337
0.214,0.046,0.200,-5.337
0.172,0.046,0.198,-5.337
0.191,0.048,0.198,-5.337
0.149,0.052,0.196,-5.337
0.117,0.051,0.198,-5.337
0.115,0.047,0.203,-5.337
0.128,0.045,0.200,-5.337
0.160,0.041,0.194,-5.337
0.196,0.046,0.193,-5.337
0.205,0.050,0.194,-5.337
0.184,0.050,0.195,-5.337
0.202,0.049,0.193,-5.337
0.169,0.051,0.196,-5.337
0.115,0.048,0.196,-5.337
0.171,0.048,0.197,-5.337
0.217,0.051,0.196,-5.337
0.219,0.051,0.197,-5.337
0.257,0.047,0.197,-5.337
0.233,0.045,0.199,-5.337
0.184,0.047,0.199,-5.337
0.247,0.048,0.196,-5.337
0.311,0.043,0.194,-5.337
0.255,0.043,0.191,-5.337
0.206,0.043,0.197,-5.337
0.230,0.043,0.199,-5.337
0.258,0.043,0.198,-5.337
0.261,0.044,0.197,-5.337
0.235,0.048,0.200,-5.337
0.202,0.051,0.199,-5.337
0.209,0.050,0.193,-5.337
0.178,0.044,0.191,-5.337
0.149,0.042,0.193,-5.337
0.149,0.044,0.194,-5.337
0.174,0.044,0.197,-5.337
0.208,0.045,0.198,-5.337
0.182,0.047,0.198,-5.337
0.188,0.045,0.199,-5.337
0.146,0.047,0.199,-5.337
0.116,0.047,0.198,-5.337
0.145,0.048,0.197,-5.337
0.138,0.049,0.197,-5.337
0.149,0.045,0.200,-5.337
0.158,0.043,0.202,-5.337
0.143,0.044,0.198,-5.337
0.160,0.044,0.198,-5.337
0.189,0.045,0.196,-5.337
0.151,0.048,0.196,-5.337
0.148,0.047,0.194,-5.337
0.198,0.045,0.196,-5.337
0.224,0.041,0.197,-5.337
0.242,0.042,0.199,-5.337
0.226,0.043,0.196,-5.337
0.185,0.046,0.193,-5.337
0.139,0.048,0.194,-5.337
0.136,0.047,0.197,-5.337
0.181,0.042,0.197,-5.337
0.173,0.041,0.196,-5.337
0.176,0.042,0.195,-5.337
0.165,0.043,0.198,-5.337
0.120,0.042,0.201,-5.337
0.132,0.042,0.199,-5.337
0.123,0.045,0.198,-5.337
0.146,0.043,0.197,-5.337
0.121,0.040,0.199,-5.337
0.163,0.041,0.199,-5.337
0.140,0.043,0.199,-5.337
0.143,0.042,0.201,-5.337
0.193,0.039,0.203,-5.337
0.176,0.042,0.200,-5.337
0.169,0.042,0.197,-5.337
0.143,0.041,0.196,-5.337
0.102,0.040,0.203,-5.337
0.122,0.040,0.205,-5.337
0.216,0.037,0.200,-5.337
0.231,0.036,0.193,-5.337
0.233,0.034,0.194,-5.337
0.242,0.033,0.196,-5.337
0.230,0.037,0.198,-5.337
0.223,0.037,0.197,-5.337
0.248,0.036,0.199,-5.337
0.246,0.037,0.198,-5.337
0.181,0.039,0.197,-5.337
0.169,0.039,0.198,-5.337
0.201,0.042,0.200,-5.337
0.213,0.044,0.200,-5.337
0.196,0.041,0.199,-5.337
0.191,0.040,0.205,-5.337
0.136,0.040,0.205,-5.337
0.136,0.041,0.201,-5.337
0.131,0.042,0.198,-5.337
0.151,0.045,0.196,-5.337
0.180,0.045,0.194,-5.337
0.165,0.044,0.198,-5.337
0.135,0.043,0.199,-5.337
0.162,0.044,0.202,-5.337
0.162,0.042,0.202,-5.337
0.190,0.040,0.201,-5.337
0.222,0.040,0.199,-5.337
0.204,0.044,0.200,-5.337
0.192,0.042,0.197,-5.337
0.149,0.040,0.195,-5.337
0.114,0.038,0.194,-5.337
0.173,0.035,0.198,-5.337
0.204,0.035,0.196,-5.337
0.221,0.037,0.192,-5.337
0.188,0.039,0.192,-5.337
0.116,0.041,0.197,-5.337
0.159,0.034,0.200,-5.337
0.191,0.033,0.196,-5.337
0.157,0.040,0.193,-5.337
0.125,0.042,0.195,-5.337
0.166,0.037,0.197,-5.337
0.181,0.035,0.194,-5.337
0.112,0.040,0.198,-5.337
0.108,0.040,0.201,-5.337
0.122,0.039,0.202,-5.337
0.157,0.036,0.197,-5.337
0.187,0.036,0.197,-5.337
0.170,0.037,0.198,-5.337
0.171,0.037,0.200,-5.337
0.154,0.037,0.199,-5.337
0.096,0.038,0.198,-5.337
0.139,0.037,0.199,-5.337
0.202,0.040,0.200,-5.337
0.209,0.039,0.198,-5.337
0.221,0.038,0.197,-5.337
0.167,0.039,0.196,-5.337
0.145,0.040,0.195,-5.337
0.129,0.039,0.194,-5.337
0.145,0.040,0.193,-5.337
0.132,0.037,0.196,-5.337
0.104,0.037,0.197,-5.337
0.179,0.036,0.196,-5.337
0.245,0.036,0.194,-5.337
0.193,0.040,0.199,-5.337
0.114,0.040,0.202,-5.337
0.135,0.035,0.199,-5.337
0.182,0.033,0.197,-5.337
0.178,0.032,0.195,-5.337
0.135,0.035,0.192,-5.337
0.116,0.035,0.193,-5.337
0.137,0.033,0.198,-5.337
0.082,0.035,0.202,-5.337
0.095,0.034,0.202,-5.337
0.118,0.036,0.198,-5.337
0.098,0.037,0.194,-5.337
0.143,0.037,0.194,-5.337
0.134,0.037,0.198,-5.337
0.107,0.037,0.199,-5.337
0.100,0.038,0.201,-5.337
0.147,0.039,0.201,-5.337
0.153,0.039,0.198,-5.337
0.161,0.035,0.194,-5.337
0.164,0.033,0.193,-5.337
0.171,0.032,0.194,-5.337
0.181,0.032,0.196,-5.337
0.192,0.036,0.197,-5.337
0.189,0.037,0.201,-5.337
0.171,0.039,0.202,-5.337
0.159,0.039,0.202,-5.337
0.143,0.039,0.199,-5.337
0.173,0.038,0.196,-5.337
0.156,0.038,0.194,-5.337
0.120,0.041,0.195,-5.337
0.159,0.042,0.200,-5.337
0.179,0.042,0.201,-5.337
0.171,0.040,0.202,-5.337
0.136,0.041,0.201,-5.337
0.101,0.041,0.199,-5.337
0.130,0.038,0.196,-5.337
0.184,0.038,0.200,-5.337
0.177,0.040,0.202,-5.337
0.169,0.037,0.198,-5.337
0.155,0.036,0.198,-5.337
0.168,0.038,0.200,-5.337
0.151,0.042,0.199,-5.337
0.115,0.041,0.199,-5.337
0.129,0.037,0.198,-5.337
0.150,0.037,0.203,-5.337
0.154,0.036,0.203,-5.337
0.139,0.035,0.201,-5.337
0.218,0.034,0.200,-5.337
0.205,0.038,0.199,-5.337
0.192,0.039,0.196,-5.337
0.243,0.043,0.198,-5.337
0.217,0.041,0.201,-5.337
0.134,0.044,0.201,-5.337
0.177,0.039,0.198,-5.337
0.225,0.040,0.196,-5.337
0.185,0.038,0.198,-5.337
0.123,0.038,0.203,-5.337
0.101,0.038,0.202,-5.337
0.236,0.035,0.202,-5.337
0.230,0.037,0.199,-5.337
0.167,0.041,0.194,-5.337
0.228,0.038,0.194,-5.337
0.290,0.035,0.197,-5.337
0.262,0.040,0.201,-5.337
0.147,0.046,0.202,-5.337
0.115,0.044,0.201,-5.337
0.143,0.044,0.197,-5.337
0.139,0.044,0.196,-5.337
0.145,0.041,0.196,-5.337
0.167,0.040,0.197,-5.337
0.183,0.037,0.197,-5.337
0.174,0.036,0.194,-5.337
0.110,0.033,0.197,-5.337
0.108,0.035,0.199,-5.337
0.091,0.035,0.199,-5.337
0.108,0.035,0.195,-5.337
0.195,0.031,0.194,-5.337
0.230,0.032,0.196,-5.337
0.180,0.036,0.199,-5.337
0.163,0.036,0.202,-5.337
0.163,0.039,0.201,-5.337
0.173,0.041,0.195,-5.337
0.133,0.042,0.192,-5.337
0.122,0.042,0.193,-5.337
0.169,0.041,0.192,-5.337
0.181,0.038,0.192,-5.337
0.243,0.035,0.195,-5.337
0.248,0.035,0.196,-5.337
0.213,0.036,0.199,-5.337
0.187,0.037,0.199,-5.337
0.169,0.041,0.199,-5.337
0.180,0.040,0.199,-5.337
0.141,0.041,0.201,-5.337
0.123,0.037,0.201,-5.337
0.147,0.037,0.202,-5.337
0.199,0.036,0.202,-5.337
0.239,0.039,0.197,-5.337
0.187,0.039,0.192,-5.337
0.165,0.039,0.192,-5.337
0.149,0.039,0.194,-5.337
0.193,0.036,0.196,-5.337
0.218,0.039,0.195,-5.337
0.190,0.040,0.194,-5.337
0.200,0.042,0.195,-5.337
0.166,0.042,0.199,-5.337
0.159,0.038,0.203,-5.337
0.129,0.040,0.201,-5.337
0.163,0.039,0.195,-5.337
0.261,0.039,0.189,-5.337
0.280,0.037,0.191,-5.337
0.228,0.036,0.197,-5.337
0.190,0.036,0.201,-5.337
0.224,0.035,0.201,-5.337
0.201,0.039,0.203,-5.337
0.190,0.041,0.201,-5.337
0.219,0.042,0.199,-5.337
0.240,0.046,0.197,-5.337
0.241,0.049,0.195,-5.337
0.178,0.047,0.194,-5.337
0.146,0.047,0.195,-5.337
0.161,0.046,0.193,-5.337
0.202,0.046,0.196,-5.337
0.273,0.044,0.199,-5.337
0.256,0.046,0.201,-5.337
0.193,0.044,0.200,-5.337
0.176,0.045,0.195,-5.337
0.222,0.044,0.194,-5.337
0.245,0.043,0.195,-5.337
0.257,0.040,0.196,-5.337
0.206,0.042,0.198,-5.337
0.154,0.042,0.201,-5.337
0.169,0.042,0.199,-5.337
0.180,0.045,0.199,-5.337
0.194,0.048,0.199,-5.337
0.171,0.044,0.200,-5.337
0.181,0.038,0.195,-5.337
0.218,0.041,0.194,-5.337
0.210,0.044,0.194,-5.337
0.168,0.044,0.196,-5.337
0.149,0.044,0.198,-5.337
0.184,0.044,0.197,-5.337
0.184,0.042,0.198,-5.337
0.149,0.047,0.197,-5.337
0.142,0.046,0.192,-5.337
0.174,0.040,0.194,-5.337
0.164,0.042,0.199,-5.337
0.138,0.044,0.196,-5.337
0.147,0.046,0.193,-5.337
0.134,0.047,0.197,-5.337
0.177,0.046,0.201,-5.337
0.184,0.044,0.199,-5.337
0.180,0.044,0.199,-5.337
0.213,0.044,0.197,-5.337
0.199,0.044,0.194,-5.337
0.183,0.045,0.196,-5.337
0.218,0.043,0.200,-5.337
0.230,0.043,0.196,-5.337
0.132,0.047,0.195,-5.337
0.148,0.046,0.194,-5.337
0.263,0.045,0.197,-5.337
0.305,0.043,0.199,-5.337
0.190,0.046,0.198,-5.337
0.150,0.044,0.197,-5.337
0.180,0.046,0.197,-5.337
0.210,0.046,0.193,-5.337
0.237,0.047,0.191,-5.337
0.207,0.047,0.195,-5.337
0.168,0.048,0.196,-5.337
0.176,0.049,0.196,-5.337
0.214,0.048,0.196,-5.337
0.270,0.047,0.198,-5.337
0.228,0.050,0.198,-5.337
0.151,0.051,0.200,-5.337
0.162,0.047,0.201,-5.337
0.194,0.047,0.196,-5.337
0.216,0.050,0.192,-5.337
0.208,0.051,0.194,-5.337
0.219,0.052,0.199,-5.337
0.234,0.052,0.202,-5.337
0.250,0.051,0.199,-5.337
0.292,0.049,0.200,-5.337
0.263,0.048,0.201,-5.337
0.218,0.047,0.201,-5.337
0.206,0.047,0.199,-5.337
0.246,0.048,0.195,-5.337
0.242,0.047,0.193,-5.337
0.210,0.047,0.195,-5.337
0.195,0.049,0.200,-5.337
0.210,0.054,0.204,-5.337
0.218,0.051,0.205,-5.337
0.265,0.046,0.201,-5.337
0.256,0.044,0.199,-5.337
0.215,0.046,0.197,-5.337
0.223,0.044,0.195,-5.337
0.186,0.049,0.196,-5.337
0.152,0.052,0.194,-5.337
0.176,0.052,0.194,-5.337
0.203,0.053,0.197,-5.337
0.193,0.055,0.200,-5.337
0.188,0.051,0.200,-5.337
0.205,0.049,0.199,-5.337
0.251,0.053,0.199,-5.337
0.233,0.056,0.197,-5.337
0.219,0.056,0.197,-5.337
0.231,0.054,0.196,-5.337
0.223,0.054,0.199,-5.337
0.213,0.053,0.199,-5.337
0.226,0.050,0.198,-5.337
0.253,0.048,0.197,-5.337
0.265,0.048,0.198,-5.337
0.292,0.049,0.198,-5.337
0.304,0.054,0.199,-5.337
0.275,0.053,0.199,-5.337
0.266,0.050,0.199,-5.337
0.245,0.052,0.198,-5.337
0.203,0.050,0.195,-5.337
0.165,0.055,0.196,-5.337
0.145,0.060,0.200,-5.337
0.148,0.059,0.201,-5.337
0.144,0.054,0.203,-5.337
0.185,0.054,0.203,-5.337
0.226,0.053,0.199,-5.337
0.197,0.052,0.200,-5.337
0.225,0.048,0.198,-5.337
0.237,0.049,0.197,-5.337
0.244,0.048,0.195,-5.337
0.251,0.048,0.199,-5.337
0.232,0.049,0.202,-5.337
0.232,0.053,0.204,-5.337
0.205,0.051,0.201,-5.337
0.200,0.058,0.200,-5.337
0.184,0.059,0.199,-5.337
0.182,0.053,0.198,-5.337
0.168,0.049,0.195,-5.337
0.189,0.049,0.197,-5.337
0.265,0.050,0.199,-5.337
0.278,0.052,0.197,-5.337
0.271,0.050,0.196,-5.337
0.247,0.050,0.198,-5.337
0.153,0.056,0.197,-5.337
0.128,0.059,0.197,-5.337
0.164,0.056,0.200,-5.337
0.207,0.055,0.201,-5.337
0.185,0.054,0.203,-5.337
0.160,0.057,0.199,-5.337
0.126,0.062,0.201,-5.337
0.095,0.059,0.200,-5.337
0.166,0.057,0.197,-5.337
0.208,0.054,0.194,-5.337
0.256,0.053,0.197,-5.337
0.252,0.054,0.199,-5.337
0.248,0.054,0.198,-5.337
0.290,0.050,0.201,-5.337
0.282,0.050,0.201,-5.337
0.241,0.052,0.197,-5.337
0.212,0.055,0.196,-5.337
0.252,0.052,0.199,-5.337
0.305,0.052,0.200,-5.337
0.307,0.054,0.199,-5.337
0.263,0.055,0.199,-5.337
0.238,0.056,0.198,-5.337
0.239,0.056,0.199,-5.337
0.257,0.056,0.196,-5.337
0.238,0.058,0.196,-5.337
0.182,0.056,0.197,-5.337
0.259,0.054,0.195,-5.337
0.334,0.050,0.195,-5.337
0.312,0.051,0.194,-5.337
0.270,0.051,0.197,-5.337
0.255,0.055,0.199,-5.337
0.246,0.057,0.201,-5.337
0.180,0.057,0.202,-5.337
0.121,0.059,0.204,-5.337
0.148,0.057,0.201,-5.337
0.220,0.058,0.196,-5.337
0.262,0.056,0.194,-5.337
0.238,0.059,0.193,-5.337
0.217,0.060,0.194,-5.337
0.199,0.060,0.194,-5.337
0.231,0.058,0.194,-5.337
0.283,0.059,0.197,-5.337
0.269,0.061,0.200,-5.337
0.238,0.060,0.200,-5.337
0.171,0.061,0.198,-5.337
0.199,0.062,0.198,-5.337
0.205,0.064,0.200,-5.337
0.175,0.064,0.197,-5.337
0.153,0.061,0.196,-5.337
0.172,0.059,0.198,-5.337
0.216,0.056,0.198,-5.337
0.276,0.054,0.196,-5.337
0.283,0.056,0.197,-5.337
0.222,0.056,0.194,-5.337
0.201,0.058,0.196,-5.337
0.249,0.061,0.199,-5.337
0.274,0.059,0.204,-5.337
0.252,0.058,0.205,-5.337
0.195,0.060,0.202,-5.337
0.216,0.061,0.196,-5.337
0.223,0.060,0.195,-5.337
0.195,0.055,0.195,-5.337
0.221,0.057,0.196,-5.337
0.322,0.055,0.197,-5.337
0.349,0.055,0.199,-5.337
0.269,0.055,0.201,-5.337
0.177,0.059,0.204,-5.337
0.198,0.058,0.203,-5.337
0.175,0.062,0.198,-5.337
0.245,0.056,0.198,-5.337
0.296,0.054,0.200,-5.337
0.213,0.057,0.200,-5.337
0.190,0.056,0.201,-5.337
0.224,0.056,0.200,-5.337
0.247,0.057,0.197,-5.337
0.273,0.054,0.196,-5.337
0.239,0.054,0.196,-5.337
0.209,0.060,0.196,-5.337
0.238,0.060,0.197,-5.337
0.275,0.056,0.200,-5.337
0.258,0.054,0.199,-5.337
0.267,0.055,0.201,-5.337
0.307,0.056,0.203,-5.337
0.314,0.057,0.203,-5.337
0.266,0.055,0.202,-5.337
0.191,0.057,0.204,-5.337
0.146,0.057,0.204,-5.337
0.161,0.060,0.201,-5.337
0.145,0.060,0.200,-5.337
0.118,0.059,0.199,-5.337
0.112,0.060,0.198,-5.337
0.206,0.056,0.196,-5.337
0.277,0.052,0.196,-5.337
0.261,0.050,0.198,-5.337
0.233,0.051,0.198,-5.337
0.220,0.052,0.197,-5.337
0.180,0.057,0.199,-5.337
0.107,0.059,0.202,-5.337
0.166,0.056,0.201,-5.337
0.220,0.054,0.201,-5.337
0.172,0.054,0.203,-5.337
0.164,0.053,0.202,-5.337
0.177,0.052,0.199,-5.337
0.198,0.051,0.196,-5.337
0.257,0.051,0.197,-5.337
0.230,0.052,0.197,-5.337
0.207,0.055,0.201,-5.337
0.210,0.053,0.201,-5.337
0.192,0.052,0.196,-5.337
0.199,0.050,0.194,-5.337
0.202,0.054,0.199,-5.337
0.227,0.056,0.201,-5.337
0.239,0.056,0.200,-5.337
0.166,0.056,0.195,-5.337
0.192,0.054,0.192,-5.337
0.246,0.055,0.194,-5.337
0.264,0.052,0.194,-5.337
0.252,0.048,0.197,-5.337
0.216,0.049,0.202,-5.337
0.205,0.048,0.205,-5.337
0.147,0.052,0.200,-5.337
0.173,0.052,0.195,-5.337
0.231,0.049,0.194,-5.337
0.239,0.046,0.199,-5.337
0.224,0.047,0.198,-5.337
0.195,0.052,0.194,-5.337
0.230,0.048,0.195,-5.337
0.253,0.047,0.200,-5.337
0.237,0.048,0.199,-5.337
0.219,0.056,0.196,-5.337
0.186,0.058,0.196,-5.337
0.214,0.051,0.200,-5.337
0.204,0.047,0.200,-5.337
0.162,0.049,0.198,-5.337
0.209,0.051,0.197,-5.337
0.225,0.047,0.197,-5.337
0.246,0.043,0.196,-5.337
0.254,0.047,0.196,-5.337
0.238,0.050,0.193,-5.337
0.266,0.045,0.192,-5.337
0.287,0.043,0.193,-5.337
0.200,0.045,0.197,-5.337
0.167,0.045,0.199,-5.337
0.169,0.045,0.198,-5.337
0.201,0.040,0.198,-5.337
0.224,0.042,0.198,-5.337
0.212,0.049,0.200,-5.337
0.215,0.048,0.200,-5.337
0.204,0.046,0.198,-5.337
0.212,0.045,0.197,-5.337
0.259,0.047,0.196,-5.337
0.229,0.047,0.198,-5.337
0.177,0.048,0.197,-5.337
0.150,0.048,0.196,-5.337
0.099,0.053,0.197,-5.337
0.102,0.053,0.199,-5.337
0.175,0.052,0.203,-5.337
0.202,0.050,0.203,-5.337
0.185,0.050,0.198,-5.337
0.135,0.050,0.195,-5.337
0.218,0.047,0.195,-5.337
0.247,0.047,0.194,-5.337
0.195,0.047,0.195,-5.337
0.193,0.047,0.200,-5.337
0.189,0.048,0.199,-5.337
0.205,0.047,0.194,-5.337
0.198,0.045,0.193,-5.337
0.164,0.049,0.196,-5.337
0.167,0.051,0.197,-5.337
0.149,0.052,0.199,-5.337
0.175,0.052,0.200,-5.337
0.252,0.048,0.198,-5.337
0.288,0.043,0.197,-5.337
0.230,0.044,0.197,-5.337
0.166,0.048,0.200,-5.337
0.128,0.047,0.203,-5.337
0.137,0.046,0.201,-5.337
0.188,0.042,0.198,-5.337
0.177,0.042,0.195,-5.337
0.180,0.043,0.196,-5.337
0.179,0.043,0.200,-5.337
0.142,0.044,0.199,-5.337
0.089,0.046,0.193,-5.337
0.103,0.047,0.194,-5.337
0.134,0.043,0.197,-5.337
0.230,0.039,0.195,-5.337
0.246,0.039,0.197,-5.337
0.218,0.040,0.198,-5.337
0.183,0.041,0.196,-5.337
0.148,0.040,0.195,-5.337
0.176,0.043,0.201,-5.337
0.175,0.042,0.201,-5.337
0.126,0.044,0.200,-5.337
0.153,0.041,0.199,-5.337
0.237,0.041,0.199,-5.337
0.212,0.041,0.197,-5.337
0.159,0.044,0.194,-5.337
0.161,0.042,0.192,-5.337
0.159,0.043,0.195,-5.337
0.185,0.044,0.200,-5.337
0.191,0.045,0.201,-5.337
0.142,0.047,0.197,-5.337
0.094,0.049,0.193,-5.337
0.063,0.048,0.196,-5.337
0.089,0.046,0.202,-5.337
0.160,0.041,0.206,-5.337
0.171,0.041,0.200,-5.337
0.128,0.041,0.195,-5.337
0.140,0.043,0.195,-5.337
0.176,0.039,0.200,-5.337
0.220,0.036,0.201,-5.337
0.204,0.040,0.200,-5.337
0.209,0.040,0.198,-5.337
0.203,0.039,0.202,-5.337
0.249,0.039,0.198,-5.337
0.177,0.040,0.194,-5.337
0.162,0.038,0.195,-5.337
0.185,0.037,0.199,-5.337
0.186,0.037,0.203,-5.337
0.193,0.039,0.201,-5.337
0.258,0.035,0.198,-5.337
0.243,0.035,0.197,-5.337
0.171,0.038,0.194,-5.337
0.152,0.039,0.194,-5.337
0.166,0.039,0.196,-5.337
0.180,0.037,0.198,-5.337
0.186,0.033,0.200,-5.337
0.184,0.034,0.200,-5.337
0.222,0.033,0.200,-5.337
0.200,0.035,0.199,-5.337
0.212,0.036,0.199,-5.337
0.209,0.036,0.197,-5.337
0.212,0.038,0.199,-5.337
0.170,0.040,0.199,-5.337
0.165,0.041,0.200,-5.337
0.187,0.038,0.199,-5.337
0.180,0.036,0.198,-5.337
0.218,0.037,0.199,-5.337
0.229,0.039,0.201,-5.337
0.173,0.041,0.202,-5.337
0.137,0.040,0.201,-5.337
0.121,0.035,0.200,-5.337
0.193,0.034,0.200,-5.337
0.185,0.037,0.198,-5.337
0.163,0.038,0.200,-5.337
0.215,0.037,0.201,-5.337
0.239,0.033,0.201,-5.337
0.244,0.034,0.199,-5.337
0.179,0.036,0.199,-5.337
0.200,0.034,0.200,-5.337
0.168,0.036,0.198,-5.337
0.086,0.038,0.198,-5.337
0.103,0.039,0.198,-5.337
0.143,0.037,0.197,-5.337
0.170,0.034,0.193,-5.337
0.204,0.035,0.194,-5.337
0.183,0.035,0.197,-5.337
0.142,0.037,0.198,-5.337
0.163,0.033,0.199,-5.337
0.218,0.033,0.200,-5.337
0.210,0.033,0.202,-5.337
0.157,0.035,0.201,-5.337
0.156,0.033,0.197,-5.337
0.193,0.031,0.196,-5.337
0.211,0.031,0.201,-5.337
0.122,0.037,0.201,-5.337
0.109,0.042,0.195,-5.337
0.151,0.041,0.195,-5.337
0.185,0.039,0.196,-5.337
0.200,0.038,0.203,-5.337
0.167,0.037,0.203,-5.337
0.106,0.037,0.201,-5.337
0.055,0.038,0.201,-5.337
0.124,0.039,0.200,-5.337
0.169,0.037,0.197,-5.337
0.156,0.038,0.194,-5.337
0.139,0.039,0.194,-5.337
0.160,0.036,0.194,-5.337
0.178,0.033,0.197,-5.337
0.120,0.037,0.200,-5.337
0.103,0.037,0.199,-5.337
0.165,0.034,0.197,-5.337
0.209,0.031,0.197,-5.337
0.169,0.033,0.192,-5.337
0.118,0.037,0.192,-5.337
0.068,0.038,0.198,-5.337
0.119,0.037,0.197,-5.337
0.129,0.038,0.195,-5.337
0.099,0.039,0.200,-5.337
0.088,0.037,0.203,-5.337
0.142,0.038,0.202,-5.337
0.181,0.034,0.198,-5.337
0.194,0.032,0.195,-5.337
0.192,0.035,0.199,-5.337
0.205,0.038,0.201,-5.337
0.179,0.038,0.201,-5.337
0.186,0.037,0.198,-5.337
0.226,0.037,0.199,-5.337
0.196,0.038,0.198,-5.337
0.171,0.038,0.197,-5.337
0.237,0.037,0.198,-5.337
0.264,0.036,0.199,-5.337
0.218,0.037,0.198,-5.337
0.155,0.036,0.197,-5.337
0.157,0.036,0.196,-5.337
0.193,0.033,0.200,-5.337
0.216,0.033,0.201,-5.337
0.192,0.035,0.197,-5.337
0.192,0.035,0.195,-5.337
0.138,0.037,0.198,-5.337
0.115,0.036,0.201,-5.337
0.184,0.036,0.198,-5.337
0.208,0.039,0.194,-5.337
0.186,0.044,0.195,-5.337
0.142,0.039,0.197,-5.337
0.183,0.035,0.195,-5.337
0.145,0.039,0.195,-5.337
0.102,0.035,0.198,-5.337
0.136,0.036,0.200,-5.337
0.159,0.037,0.200,-5.337
0.129,0.036,0.198,-5.337
0.181,0.035,0.196,-5.337
0.210,0.038,0.196,-5.337
0.176,0.040,0.197,-5.337
0.223,0.036,0.199,-5.337
0.284,0.036,0.202,-5.337
0.257,0.038,0.206,-5.337
0.203,0.038,0.201,-5.337
0.164,0.040,0.203,-5.337
0.164,0.039,0.206,-5.337
0.189,0.041,0.203,-5.337
0.172,0.039,0.198,-5.337
0.162,0.041,0.197,-5.337
0.179,0.038,0.199,-5.337
0.175,0.039,0.206,-5.337
0.163,0.041,0.208,-5.337
0.158,0.042,0.205,-5.337
0.199,0.044,0.199,-5.337
0.212,0.044,0.198,-5.337
0.217,0.043,0.198,-5.337
0.183,0.048,0.200,-5.337
0.164,0.047,0.199,-5.337
0.208,0.045,0.195,-5.337
0.226,0.043,0.193,-5.337
0.214,0.046,0.193,-5.337
0.157,0.047,0.197,-5.337
0.180,0.046,0.199,-5.337
0.212,0.045,0.200,-5.337
0.185,0.044,0.201,-5.337
0.202,0.044,0.203,-5.337
0.248,0.043,0.202,-5.337
0.221,0.045,0.204,-5.337
0.209,0.040,0.204,-5.337
0.214,0.042,0.200,-5.337
0.189,0.047,0.195,-5.337
0.200,0.047,0.195,-5.337
0.167,0.046,0.197,-5.337
0.147,0.045,0.199,-5.337
0.173,0.043,0.202,-5.337
0.201,0.044,0.203,-5.337
0.147,0.049,0.202,-5.337
0.143,0.048,0.205,-5.337
0.147,0.047,0.207,-5.337
0.132,0.048,0.201,-5.337
0.174,0.048,0.197,-5.337
0.161,0.049,0.195,-5.337
0.161,0.050,0.199,-5.337
0.155,0.053,0.196,-5.337
0.174,0.054,0.198,-5.337
0.198,0.051,0.197,-5.337
0.253,0.048,0.199,-5.337
0.255,0.046,0.201,-5.337
0.236,0.048,0.197,-5.337
0.250,0.047,0.197,-5.337
0.265,0.047,0.200,-5.337
0.236,0.046,0.198,-5.337
0.210,0.045,0.195,-5.337
0.194,0.043,0.192,-5.337
0.205,0.045,0.193,-5.337
0.250,0.048,0.198,-5.337
0.220,0.051,0.204,-5.337
0.187,0.050,0.202,-5.337
0.158,0.049,0.199,-5.337
0.220,0.047,0.198,-5.337
0.182,0.048,0.196,-5.337
0.179,0.045,0.195,-5.337
0.231,0.043,0.197,-5.337
0.172,0.045,0.202,-5.337
0.161,0.046,0.205,-5.337
0.223,0.044,0.203,-5.337
0.263,0.043,0.197,-5.337
0.237,0.044,0.196,-5.337
0.176,0.044,0.195,-5.337
0.158,0.046,0.200,-5.337
0.180,0.047,0.202,-5.337
0.221,0.044,0.198,-5.337
0.279,0.041,0.196,-5.337
0.231,0.043,0.196,-5.337
0.230,0.042,0.194,-5.337
0.272,0.042,0.194,-5.337
0.222,0.045,0.195,-5.337
0.181,0.049,0.201,-5.337
0.205,0.047,0.203,-5.337
0.261,0.046,0.197,-5.337
0.242,0.046,0.195,-5.337
0.216,0.049,0.197,-5.337
0.213,0.049,0.199,-5.337
0.216,0.047,0.199,-5.337
0.219,0.046,0.197,-5.337
0.193,0.050,0.197,-5.337
0.209,0.051,0.199,-5.337
0.211,0.052,0.196,-5.337
0.199,0.052,0.197,-5.337
0.188,0.049,0.196,-5.337
0.222,0.049,0.200,-5.337
0.220,0.052,0.202,-5.337
0.178,0.052,0.198,-5.337
0.237,0.051,0.196,-5.337
0.252,0.049,0.194,-5.337
0.217,0.046,0.196,-5.337
0.185,0.050,0.197,-5.337
0.221,0.047,0.198,-5.337
0.199,0.046,0.199,-5.337
0.120,0.050,0.199,-5.337
0.171,0.054,0.197,-5.337
0.226,0.054,0.198,-5.337
0.214,0.051,0.194,-5.337
0.261,0.050,0.191,-5.337
0.272,0.052,0.190,-5.337
0.252,0.052,0.194,-5.337
0.290,0.052,0.203,-5.337
0.276,0.055,0.204,-5.337
0.204,0.056,0.201,-5.337
0.222,0.060,0.198,-5.337
0.211,0.060,0.195,-5.337
0.202,0.056,0.194,-5.337
0.287,0.053,0.194,-5.337
0.269,0.057,0.199,-5.337
0.261,0.054,0.201,-5.337
0.279,0.054,0.201,-5.337
0.224,0.054,0.200,-5.337
0.179,0.055,0.195,-5.337
0.217,0.055,0.191,-5.337
0.230,0.054,0.196,-5.337
0.221,0.053,0.196,-5.337
0.221,0.057,0.197,-5.337
0.260,0.059,0.197,-5.337
0.278,0.055,0.195,-5.337
0.228,0.051,0.197,-5.337
0.244,0.051,0.195,-5.337
0.221,0.054,0.192,-5.337
0.210,0.054,0.192,-5.337
0.219,0.054,0.197,-5.337
0.220,0.058,0.198,-5.337
0.229,0.058,0.197,-5.337
0.209,0.056,0.195,-5.337
0.175,0.056,0.195,-5.337
0.162,0.059,0.196,-5.337
0.158,0.057,0.198,-5.337
0.175,0.053,0.195,-5.337
0.231,0.054,0.195,-5.337
0.259,0.055,0.197,-5.337
0.237,0.055,0.200,-5.337
0.205,0.054,0.199,-5.337
0.290,0.052,0.198,-5.337
0.347,0.053,0.195,-5.337
0.328,0.054,0.191,-5.337
0.312,0.052,0.194,-5.337
0.303,0.055,0.197,-5.337
0.280,0.056,0.195,-5.337
0.191,0.060,0.198,-5.337
0.169,0.056,0.198,-5.337
0.219,0.059,0.193,-5.337
0.214,0.062,0.192,-5.337
0.229,0.063,0.192,-5.337
0.213,0.062,0.195,-5.337
0.222,0.062,0.199,-5.337
0.234,0.062,0.200,-5.337
0.210,0.061,0.200,-5.337
0.190,0.059,0.201,-5.337
0.142,0.056,0.198,-5.337
0.137,0.056,0.197,-5.337
0.162,0.058,0.200,-5.337
0.196,0.056,0.204,-5.337
0.236,0.056,0.200,-5.337
0.207,0.057,0.196,-5.337
0.210,0.056,0.194,-5.337
0.215,0.056,0.195,-5.337
0.240,0.054,0.195,-5.337
0.224,0.058,0.194,-5.337
0.215,0.056,0.194,-5.337
0.253,0.052,0.198,-5.337
0.230,0.053,0.200,-5.337
0.215,0.060,0.195,-5.337
0.251,0.061,0.197,-5.337
0.342,0.057,0.205,-5.337
0.324,0.058,0.206,-5.337
0.218,0.061,0.203,-5.337
0.156,0.063,0.199,-5.337
0.169,0.059,0.195,-5.337
0.179,0.058,0.193,-5.337
0.177,0.060,0.197,-5.337
0.219,0.060,0.204,-5.337
0.284,0.059,0.199,-5.337
0.286,0.055,0.196,-5.337
0.261,0.057,0.195,-5.337
0.252,0.057,0.202,-5.337
0.214,0.057,0.206,-5.337
0.178,0.059,0.205,-5.337
0.118,0.058,0.201,-5.337
0.152,0.056,0.197,-5.337
0.235,0.055,0.194,-5.337
0.256,0.059,0.195,-5.337
0.264,0.058,0.195,-5.337
0.255,0.059,0.196,-5.337
0.243,0.063,0.196,-5.337
0.281,0.064,0.199,-5.337
0.304,0.059,0.202,-5.337
0.267,0.058,0.202,-5.337
0.226,0.059,0.199,-5.337
0.212,0.063,0.197,-5.337
0.227,0.064,0.197,-5.337
0.242,0.065,0.198,-5.337
0.273,0.065,0.200,-5.337
0.291,0.062,0.197,-5.337
0.270,0.061,0.198,-5.337
0.243,0.067,0.199,-5.337
0.205,0.066,0.201,-5.337
0.256,0.059,0.201,-5.337
0.312,0.058,0.201,-5.337
0.261,0.057,0.199,-5.337
0.233,0.061,0.199,-5.337
0.247,0.062,0.197,-5.337
0.268,0.059,0.194,-5.337
0.304,0.056,0.195,-5.337
0.285,0.058,0.198,-5.337
0.233,0.060,0.196,-5.337
0.243,0.060,0.195,-5.337
0.264,0.062,0.193,-5.337
0.248,0.063,0.192,-5.337
0.239,0.062,0.191,-5.337
0.207,0.060,0.195,-5.337
0.205,0.060,0.199,-5.337
0.190,0.064,0.199,-5.337
0.183,0.064,0.201,-5.337
0.220,0.062,0.203,-5.337
0.252,0.062,0.200,-5.337
0.237,0.061,0.195,-5.337
0.205,0.064,0.197,-5.337
0.232,0.064,0.199,-5.337
0.241,0.064,0.197,-5.337
0.238,0.063,0.194,-5.337
0.255,0.063,0.195,-5.337
0.231,0.063,0.199,-5.337
0.215,0.067,0.200,-5.337
0.267,0.065,0.198,-5.337
0.230,0.063,0.200,-5.337
0.208,0.065,0.200,-5.337
0.236,0.066,0.197,-5.337
0.247,0.066,0.193,-5.337
0.231,0.065,0.192,-5.337
0.222,0.066,0.194,-5.337
0.201,0.064,0.200,-5.337
0.226,0.064,0.201,-5.337
0.230,0.064,0.196,-5.337
0.248,0.066,0.197,-5.337
0.233,0.068,0.198,-5.337
0.177,0.067,0.197,-5.337
0.184,0.065,0.195,-5.337
0.202,0.066,0.196,-5.337
0.222,0.066,0.194,-5.337
0.235,0.064,0.196,-5.337
0.219,0.063,0.195,-5.337
0.236,0.062,0.195,-5.337
0.282,0.061,0.194,-5.337
0.203,0.063,0.192,-5.337
0.203,0.061,0.192,-5.337
0.236,0.059,0.193,-5.337
0.240,0.058,0.195,-5.337
0.281,0.061,0.198,-5.337
0.258,0.060,0.199,-5.337
0.212,0.061,0.201,-5.337
0.197,0.065,0.198,-5.337
0.185,0.063,0.198,-5.337
0.170,0.063,0.198,-5.337
0.239,0.061,0.198,-5.337
0.292,0.057,0.194,-5.337
0.241,0.060,0.191,-5.337
0.225,0.060,0.195,-5.337
0.198,0.061,0.200,-5.337
0.209,0.062,0.199,-5.337
0.191,0.060,0.197,-5.337
0.148,0.061,0.198,-5.337
0.171,0.062,0.197,-5.337
0.222,0.058,0.199,-5.337
0.215,0.060,0.199,-5.337
0.183,0.062,0.201,-5.337
0.157,0.061,0.198,-5.337
0.145,0.061,0.194,-5.337
0.206,0.061,0.192,-5.337
0.234,0.063,0.196,-5.337
0.212,0.063,0.196,-5.337
0.204,0.064,0.196,-5.337
0.232,0.057,0.197,-5.337
0.266,0.056,0.201,-5.337
0.229,0.055,0.204,-5.337
0.151,0.061,0.203,-5.337
0.157,0.059,0.199,-5.337
0.216,0.057,0.195,-5.337
0.213,0.058,0.192,-5.337
0.170,0.062,0.195,-5.337
0.205,0.058,0.198,-5.337
0.235,0.056,0.199,-5.337
0.202,0.059,0.199,-5.337
0.179,0.062,0.199,-5.337
0.202,0.058,0.199,-5.337
0.229,0.055,0.198,-5.337
0.211,0.056,0.201,-5.337
0.204,0.054,0.202,-5.337
0.270,0.048,0.202,-5.337
0.319,0.050,0.202,-5.337
0.306,0.051,0.202,-5.337
0.261,0.053,0.200,-5.337
0.180,0.056,0.196,-5.337
0.168,0.057,0.192,-5.337
0.150,0.058,0.196,-5.337
0.190,0.054,0.201,-5.337
0.176,0.056,0.199,-5.337
0.148,0.057,0.196,-5.337
0.173,0.056,0.197,-5.337
0.169,0.058,0.196,-5.337
0.174,0.060,0.198,-5.337
0.157,0.058,0.202,-5.337
0.132,0.059,0.202,-5.337
0.139,0.059,0.200,-5.337
0.170,0.055,0.196,-5.337
0.174,0.050,0.198,-5.337
0.188,0.051,0.199,-5.337
0.245,0.049,0.198,-5.337
0.297,0.050,0.195,-5.337
0.283,0.054,0.192,-5.337
0.232,0.053,0.194,-5.337
0.209,0.058,0.198,-5.337
0.218,0.058,0.201,-5.337
0.214,0.057,0.200,-5.337
0.210,0.054,0.200,-5.337
0.200,0.052,0.200,-5.337
0.164,0.049,0.200,-5.337
0.179,0.048,0.201,-5.337
0.204,0.045,0.201,-5.337
0.182,0.045,0.201,-5.337
0.177,0.048,0.198,-5.337
0.180,0.047,0.196,-5.337
0.179,0.045,0.199,-5.337
0.158,0.044,0.198,-5.337
0.212,0.043,0.193,-5.337
0.208,0.048,0.190,-5.337
0.168,0.049,0.190,-5.337
0.174,0.047,0.192,-5.337
0.165,0.047,0.197,-5.337
0.144,0.048,0.202,-5.337
0.128,0.046,0.204,-5.337
0.159,0.045,0.199,-5.337
0.182,0.046,0.196,-5.337
0.191,0.046,0.196,-5.337
0.179,0.048,0.196,-5.337
0.214,0.047,0.196,-5.337
0.265,0.048,0.196,-5.337
0.263,0.048,0.194,-5.337
0.252,0.049,0.192,-5.337
0.266,0.048,0.195,-5.337
0.239,0.048,0.196,-5.337
0.252,0.046,0.197,-5.337
0.244,0.048,0.202,-5.337
0.180,0.049,0.202,-5.337
0.130,0.050,0.198,-5.337
0.130,0.045,0.198,-5.337
0.126,0.046,0.196,-5.337
0.147,0.044,0.197,-5.337
0.171,0.042,0.198,-5.337
0.136,0.043,0.196,-5.337
0.107,0.046,0.193,-5.337
0.145,0.046,0.195,-5.337
0.203,0.045,0.192,-5.337
0.190,0.049,0.192,-5.337
0.172,0.049,0.195,-5.337
0.171,0.048,0.199,-5.337
0.179,0.042,0.199,-5.337
0.141,0.043,0.195,-5.337
0.142,0.044,0.195,-5.337
0.224,0.045,0.196,-5.337
0.227,0.047,0.198,-5.337
0.215,0.047,0.197,-5.337
0.196,0.048,0.198,-5.337
0.144,0.048,0.198,-5.337
0.121,0.047,0.198,-5.337
0.131,0.044,0.197,-5.337
0.126,0.047,0.196,-5.337
0.118,0.047,0.195,-5.337
0.137,0.046,0.197,-5.337
0.155,0.051,0.194,-5.337
0.178,0.050,0.191,-5.337
0.180,0.047,0.192,-5.337
0.207,0.043,0.199,-5.337
0.143,0.047,0.202,-5.337
0.147,0.047,0.199,-5.337
0.159,0.044,0.195,-5.337
0.181,0.044,0.195,-5.337
0.260,0.043,0.194,-5.337
0.268,0.043,0.194,-5.337
0.168,0.042,0.193,-5.337
0.148,0.046,0.196,-5.337
0.172,0.045,0.198,-5.337
0.225,0.045,0.198,-5.337
0.204,0.045,0.201,-5.337
0.154,0.044,0.203,-5.337
0.186,0.038,0.196,-5.337
0.251,0.035,0.194,-5.337
0.231,0.036,0.197,-5.337
0.219,0.038,0.198,-5.337
0.223,0.042,0.197,-5.337
0.206,0.044,0.195,-5.337
0.189,0.042,0.194,-5.337
0.168,0.043,0.194,-5.337
0.153,0.042,0.194,-5.337
0.169,0.040,0.193,-5.337
0.131,0.041,0.194,-5.337
0.119,0.045,0.196,-5.337
0.167,0.041,0.199,-5.337
0.147,0.039,0.194,-5.337
0.125,0.037,0.194,-5.337
0.170,0.034,0.198,-5.337
0.184,0.036,0.200,-5.337
0.204,0.036,0.198,-5.337
0.217,0.041,0.197,-5.337
0.210,0.042,0.195,-5.337
0.178,0.043,0.194,-5.337
0.143,0.042,0.193,-5.337
0.134,0.043,0.194,-5.337
0.167,0.042,0.194,-5.337
0.216,0.040,0.194,-5.337
0.241,0.039,0.196,-5.337
0.227,0.040,0.199,-5.337
0.192,0.043,0.200,-5.337
0.171,0.045,0.200,-5.337
0.151,0.042,0.199,-5.337
0.091,0.041,0.195,-5.337
0.051,0.042,0.196,-5.337
0.099,0.044,0.198,-5.337
0.155,0.043,0.198,-5.337
0.222,0.038,0.197,-5.337
0.148,0.041,0.194,-5.337
0.122,0.042,0.191,-5.337
0.173,0.042,0.196,-5.337
0.246,0.038,0.199,-5.337
0.246,0.037,0.199,-5.337
0.239,0.038,0.195,-5.337
0.158,0.043,0.193,-5.337
0.119,0.043,0.193,-5.337
0.167,0.039,0.193,-5.337
0.205,0.038,0.196,-5.337
0.144,0.040,0.202,-5.337
0.098,0.042,0.202,-5.337
0.115,0.042,0.201,-5.337
0.170,0.039,0.200,-5.337
0.154,0.041,0.197,-5.337
0.136,0.042,0.198,-5.337
0.187,0.040,0.199,-5.337
0.174,0.039,0.199,-5.337
0.192,0.033,0.199,-5.337
0.222,0.035,0.201,-5.337
0.211,0.035,0.200,-5.337
0.150,0.037,0.197,-5.337
0.145,0.038,0.195,-5.337
0.196,0.039,0.195,-5.337
0.160,0.038,0.199,-5.337
0.152,0.039,0.201,-5.337
0.138,0.038,0.197,-5.337
0.215,0.036,0.197,-5.337
0.225,0.035,0.197,-5.337
0.204,0.037,0.196,-5.337
0.203,0.038,0.196,-5.337
0.197,0.037,0.199,-5.337
0.144,0.033,0.202,-5.337
0.120,0.036,0.201,-5.337
0.164,0.038,0.199,-5.337
0.171,0.038,0.198,-5.337
0.158,0.038,0.197,-5.337
0.150,0.039,0.199,-5.337
0.164,0.036,0.200,-5.337
0.196,0.033,0.201,-5.337
0.176,0.032,0.204,-5.337
0.188,0.033,0.202,-5.337
0.213,0.033,0.193,-5.337
0.170,0.033,0.190,-5.337
0.121,0.039,0.194,-5.337
0.161,0.037,0.200,-5.337
0.160,0.034,0.205,-5.337
0.152,0.030,0.202,-5.337
0.164,0.034,0.198,-5.337
0.151,0.034,0.192,-5.337
0.185,0.032,0.191,-5.337
0.218,0.035,0.195,-5.337
0.207,0.035,0.198,-5.337
0.218,0.033,0.197,-5.337
0.206,0.034,0.196,-5.337
0.204,0.037,0.194,-5.337
0.189,0.037,0.194,-5.337
0.188,0.035,0.196,-5.337
0.213,0.037,0.195,-5.337
0.233,0.038,0.196,-5.337
0.210,0.036,0.198,-5.337
0.246,0.031,0.200,-5.337
0.206,0.032,0.197,-5.337
0.142,0.033,0.200,-5.337
0.101,0.035,0.199,-5.337
0.118,0.037,0.197,-5.337
0.144,0.034,0.196,-5.337
0.158,0.034,0.194,-5.337
0.154,0.032,0.194,-5.337
0.145,0.036,0.200,-5.337
0.146,0.036,0.199,-5.337
0.158,0.037,0.198,-5.337
0.216,0.033,0.195,-5.337
0.249,0.032,0.195,-5.337
0.259,0.029,0.195,-5.337
0.319,0.029,0.197,-5.337
0.278,0.032,0.198,-5.337
0.158,0.041,0.195,-5.337
0.153,0.039,0.194,-5.337
0.260,0.033,0.197,-5.337
0.266,0.035,0.200,-5.337
0.138,0.036,0.199,-5.337
0.145,0.036,0.196,-5.337
0.188,0.038,0.197,-5.337
0.199,0.038,0.196,-5.337
0.176,0.039,0.194,-5.337
0.129,0.042,0.198,-5.337
0.128,0.044,0.199,-5.337
0.203,0.040,0.200,-5.337
0.227,0.037,0.195,-5.337
0.252,0.037,0.193,-5.337
0.284,0.038,0.193,-5.337
0.241,0.039,0.197,-5.337
0.193,0.039,0.199,-5.337
0.151,0.044,0.198,-5.337
0.156,0.042,0.196,-5.337
0.208,0.039,0.197,-5.337
0.224,0.040,0.194,-5.337
0.224,0.044,0.193,-5.337
0.250,0.041,0.196,-5.337
0.218,0.040,0.199,-5.337
0.179,0.043,0.201,-5.337
0.180,0.042,0.197,-5.337
0.215,0.040,0.194,-5.337
0.249,0.037,0.197,-5.337
0.249,0.039,0.198,-5.337
0.194,0.042,0.197,-5.337
0.204,0.039,0.198,-5.337
0.182,0.039,0.197,-5.337
0.155,0.041,0.196,-5.337
0.172,0.042,0.200,-5.337
0.221,0.041,0.202,-5.337
0.201,0.041,0.198,-5.337
0.184,0.039,0.199,-5.337
0.161,0.040,0.201,-5.337
0.160,0.042,0.201,-5.337
0.204,0.039,0.198,-5.337
0.250,0.035,0.196,-5.337
0.228,0.036,0.196,-5.337
0.143,0.039,0.196,-5.337
0.131,0.037,0.196,-5.337
0.221,0.035,0.198,-5.337
0.246,0.038,0.200,-5.337
0.192,0.040,0.198,-5.337
0.182,0.043,0.197,-5.337
0.212,0.045,0.193,-5.337
0.287,0.041,0.192,-5.337
0.305,0.041,0.194,-5.337
0.242,0.041,0.199,-5.337
0.246,0.042,0.199,-5.337
0.265,0.042,0.204,-5.337
0.172,0.048,0.208,-5.337
0.191,0.048,0.208,-5.337
0.194,0.046,0.202,-5.337
0.181,0.044,0.198,-5.337
0.228,0.041,0.199,-5.337
0.213,0.043,0.199,-5.337
0.204,0.043,0.200,-5.337
0.183,0.043,0.201,-5.337
0.232,0.045,0.198,-5.337
0.266,0.043,0.199,-5.337
0.263,0.042,0.200,-5.337
0.274,0.044,0.196,-5.337
0.266,0.047,0.191,-5.337
0.229,0.047,0.193,-5.337
0.208,0.046,0.198,-5.337
0.228,0.048,0.200,-5.337
0.271,0.043,0.200,-5.337
0.260,0.043,0.196,-5.337
0.146,0.048,0.195,-5.337
0.165,0.048,0.194,-5.337
0.192,0.046,0.199,-5.337
0.156,0.047,0.204,-5.337
0.124,0.045,0.205,-5.337
0.165,0.042,0.200,-5.337
0.192,0.043,0.196,-5.337
0.194,0.045,0.196,-5.337
0.193,0.043,0.199,-5.337
0.259,0.038,0.201,-5.337
0.287,0.041,0.200,-5.337
0.249,0.041,0.197,-5.337
0.226,0.046,0.196,-5.337
0.226,0.044,0.198,-5.337
0.228,0.043,0.198,-5.337
0.210,0.044,0.198,-5.337
0.143,0.048,0.199,-5.337
0.166,0.044,0.197,-5.337
0.179,0.047,0.196,-5.337
0.191,0.048,0.195,-5.337
0.217,0.048,0.199,-5.337
0.212,0.046,0.198,-5.337
0.182,0.046,0.196,-5.337
0.219,0.044,0.195,-5.337
0.283,0.046,0.195,-5.337
0.256,0.048,0.195,-5.337
0.209,0.052,0.195,-5.337
0.167,0.049,0.194,-5.337
0.249,0.045,0.194,-5.337
0.309,0.047,0.195,-5.337
0.279,0.046,0.194,-5.337
0.245,0.046,0.195,-5.337
0.243,0.045,0.194,-5.337
0.211,0.045,0.196,-5.337
0.190,0.048,0.200,-5.337
0.192,0.050,0.199,-5.337
0.214,0.050,0.197,-5.337
0.180,0.051,0.197,-5.337
0.205,0.052,0.192,-5.337
0.255,0.052,0.190,-5.337
0.253,0.048,0.192,-5.337
0.308,0.045,0.195,-5.337
0.332,0.047,0.196,-5.337
0.266,0.050,0.196,-5.337
0.229,0.049,0.197,-5.337
0.254,0.048,0.199,-5.337
0.244,0.052,0.205,-5.337
0.218,0.057,0.205,-5.337
0.181,0.056,0.203,-5.337
0.188,0.053,0.197,-5.337
0.186,0.054,0.193,-5.337
0.200,0.053,0.189,-5.337
0.206,0.056,0.194,-5.337
0.201,0.053,0.196,-5.337
0.262,0.051,0.197,-5.337
0.295,0.049,0.196,-5.337
0.233,0.054,0.193,-5.337
0.160,0.054,0.189,-5.337
0.226,0.050,0.192,-5.337
0.246,0.049,0.195,-5.337
0.211,0.051,0.193,-5.337
0.177,0.054,0.194,-5.337
0.239,0.053,0.197,-5.337
0.230,0.055,0.199,-5.337
0.193,0.055,0.199,-5.337
0.208,0.052,0.195,-5.337
0.229,0.053,0.192,-5.337
0.216,0.053,0.191,-5.337
0.232,0.051,0.191,-5.337
0.302,0.051,0.193,-5.337
0.314,0.050,0.195,-5.337
0.297,0.049,0.198,-5.337
0.230,0.053,0.200,-5.337
0.206,0.055,0.199,-5.337
0.207,0.052,0.198,-5.337
0.217,0.052,0.199,-5.337
0.229,0.050,0.196,-5.337
0.264,0.048,0.193,-5.337
0.265,0.047,0.194,-5.337
0.206,0.053,0.196,-5.337
0.177,0.059,0.194,-5.337
0.199,0.060,0.192,-5.337
0.228,0.059,0.190,-5.337
0.208,0.058,0.191,-5.337
0.239,0.052,0.193,-5.337
0.289,0.053,0.197,-5.337
0.303,0.053,0.197,-5.337
0.313,0.051,0.195,-5.337
0.246,0.056,0.192,-5.337
0.182,0.060,0.192,-5.337
0.147,0.059,0.193,-5.337
0.217,0.054,0.197,-5.337
0.247,0.053,0.200,-5.337
0.252,0.055,0.200,-5.337
0.264,0.053,0.196,-5.337
0.267,0.052,0.192,-5.337
0.287,0.051,0.196,-5.337
0.260,0.056,0.197,-5.337
0.210,0.058,0.197,-5.337
0.261,0.056,0.198,-5.337
0.315,0.055,0.198,-5.337
0.289,0.054,0.197,-5.337
0.228,0.055,0.198,-5.337
0.196,0.056,0.200,-5.337
0.295,0.057,0.197,-5.337
0.291,0.058,0.195,-5.337
0.257,0.058,0.193,-5.337
0.223,0.060,0.194,-5.337
0.247,0.059,0.196,-5.337
0.227,0.057,0.195,-5.337
0.222,0.055,0.196,-5.337
0.252,0.052,0.197,-5.337
0.261,0.051,0.198,-5.337
0.222,0.054,0.196,-5.337
0.221,0.054,0.195,-5.337
0.219,0.054,0.196,-5.337
0.230,0.054,0.194,-5.337
0.254,0.057,0.195,-5.337
0.211,0.061,0.195,-5.337
0.217,0.058,0.197,-5.337
0.295,0.053,0.197,-5.337
0.345,0.053,0.198,-5.337
0.284,0.055,0.196,-5.337
0.270,0.057,0.196,-5.337
0.265,0.054,0.198,-5.337
0.242,0.054,0.200,-5.337
0.253,0.055,0.196,-5.337
0.200,0.055,0.193,-5.337
0.167,0.054,0.192,-5.337
0.222,0.052,0.194,-5.337
0.267,0.054,0.198,-5.337
0.284,0.054,0.204,-5.337
0.287,0.057,0.200,-5.337
0.284,0.060,0.195,-5.337
0.263,0.056,0.196,-5.337
0.231,0.056,0.199,-5.337
0.233,0.060,0.199,-5.337
0.265,0.060,0.195,-5.337
0.274,0.058,0.195,-5.337
0.188,0.061,0.193,-5.337
0.221,0.060,0.197,-5.337
0.253,0.061,0.200,-5.337
0.232,0.062,0.202,-5.337
0.228,0.061,0.196,-5.337
0.246,0.058,0.193,-5.337
0.232,0.055,0.193,-5.337
0.252,0.055,0.193,-5.337
0.245,0.056,0.196,-5.337
0.183,0.060,0.199,-5.337
0.167,0.059,0.200,-5.337
0.245,0.054,0.201,-5.337
0.260,0.054,0.202,-5.337
0.300,0.053,0.203,-5.337
0.300,0.055,0.200,-5.337
0.263,0.057,0.199,-5.337
0.243,0.056,0.197,-5.337
0.277,0.056,0.196,-5.337
0.276,0.057,0.197,-5.337
0.277,0.060,0.197,-5.337
0.255,0.059,0.194,-5.337
0.258,0.058,0.191,-5.337
0.267,0.058,0.194,-5.337
0.259,0.060,0.200,-5.337
0.217,0.060,0.199,-5.337
0.194,0.056,0.195,-5.337
0.245,0.055,0.197,-5.337
0.274,0.055,0.197,-5.337
0.325,0.054,0.200,-5.337
0.306,0.054,0.202,-5.337
0.204,0.057,0.199,-5.337
0.125,0.059,0.194,-5.337
0.176,0.056,0.193,-5.337
0.245,0.054,0.195,-5.337
0.212,0.058,0.198,-5.337
0.138,0.060,0.197,-5.337
0.124,0.058,0.191,-5.337
0.178,0.058,0.190,-5.337
0.187,0.059,0.193,-5.337
0.191,0.059,0.195,-5.337
0.246,0.058,0.196,-5.337
0.241,0.055,0.198,-5.337
0.277,0.052,0.199,-5.337
0.279,0.051,0.200,-5.337
0.177,0.057,0.198,-5.337
0.187,0.057,0.198,-5.337
0.248,0.054,0.196,-5.337
0.239,0.054,0.197,-5.337
0.161,0.057,0.199,-5.337
0.199,0.054,0.199,-5.337
0.298,0.051,0.194,-5.337
0.263,0.051,0.193,-5.337
0.205,0.051,0.195,-5.337
0.276,0.052,0.195,-5.337
0.279,0.053,0.192,-5.337
0.225,0.058,0.191,-5.337
0.161,0.059,0.189,-5.337
0.159,0.055,0.191,-5.337
0.192,0.055,0.196,-5.337
0.211,0.055,0.199,-5.337
0.229,0.055,0.197,-5.337
0.267,0.057,0.194,-5.337
0.278,0.057,0.195,-5.337
0.213,0.057,0.194,-5.337
0.192,0.057,0.195,-5.337
0.201,0.056,0.201,-5.337
0.205,0.058,0.204,-5.337
0.199,0.058,0.201,-5.337
0.170,0.058,0.195,-5.337
0.131,0.058,0.192,-5.337
0.137,0.056,0.192,-5.337
0.160,0.061,0.192,-5.337
0.179,0.059,0.195,-5.337
0.224,0.057,0.196,-5.337
0.250,0.055,0.197,-5.337
0.269,0.052,0.196,-5.337
0.219,0.051,0.193,-5.337
0.214,0.051,0.193,-5.337
0.246,0.054,0.194,-5.337
0.233,0.056,0.196,-5.337
0.237,0.056,0.200,-5.337
0.215,0.054,0.200,-5.337
0.204,0.054,0.198,-5.337
0.255,0.052,0.193,-5.337
0.263,0.054,0.193,-5.337
0.297,0.051,0.196,-5.337
0.264,0.052,0.199,-5.337
0.210,0.056,0.199,-5.337
0.194,0.054,0.196,-5.337
0.238,0.051,0.196,-5.337
0.201,0.054,0.200,-5.337
0.184,0.055,0.203,-5.337
0.166,0.058,0.199,-5.337
0.189,0.056,0.195,-5.337
0.224,0.055,0.193,-5.337
0.240,0.054,0.192,-5.337
0.231,0.051,0.192,-5.337
0.222,0.053,0.196,-5.337
0.177,0.056,0.198,-5.337
0.129,0.056,0.196,-5.337
0.135,0.054,0.194,-5.337
0.159,0.054,0.195,-5.337
0.136,0.054,0.194,-5.337
0.182,0.054,0.192,-5.337
0.232,0.050,0.196,-5.337
0.208,0.050,0.200,-5.337
0.234,0.052,0.200,-5.337
0.175,0.056,0.197,-5.337
0.105,0.055,0.198,-5.337
0.139,0.053,0.199,-5.337
0.222,0.045,0.197,-5.337
0.279,0.047,0.192,-5.337
0.276,0.050,0.192,-5.337
0.230,0.047,0.194,-5.337
0.224,0.045,0.197,-5.337
0.211,0.048,0.199,-5.337
0.179,0.047,0.202,-5.337
0.190,0.045,0.195,-5.337
0.215,0.051,0.195,-5.337
0.220,0.051,0.196,-5.337
0.234,0.051,0.200,-5.337
0.221,0.045,0.204,-5.337
0.196,0.046,0.202,-5.337
0.200,0.045,0.198,-5.337
0.261,0.044,0.197,-5.337
0.255,0.043,0.196,-5.337
0.223,0.045,0.194,-5.337
0.230,0.047,0.195,-5.337
0.225,0.047,0.199,-5.337
0.181,0.049,0.199,-5.337
0.175,0.047,0.200,-5.337
0.191,0.048,0.202,-5.337
0.175,0.046,0.200,-5.337
0.148,0.046,0.198,-5.337
0.173,0.046,0.195,-5.337
0.153,0.045,0.195,-5.337
0.177,0.043,0.197,-5.337
0.197,0.044,0.198,-5.337
0.188,0.044,0.196,-5.337
0.206,0.042,0.198,-5.337
0.198,0.042,0.195,-5.337
0.209,0.042,0.193,-5.337
0.208,0.042,0.194,-5.337
0.178,0.042,0.198,-5.337
0.176,0.042,0.203,-5.337
0.171,0.043,0.204,-5.337
0.194,0.042,0.201,-5.337
0.181,0.040,0.199,-5.337
0.224,0.040,0.194,-5.337
0.236,0.044,0.192,-5.337
0.231,0.043,0.196,-5.337
0.220,0.044,0.200,-5.337
0.210,0.045,0.196,-5.337
0.187,0.045,0.195,-5.337
0.164,0.043,0.199,-5.337
0.225,0.043,0.199,-5.337
0.261,0.041,0.198,-5.337
0.195,0.048,0.196,-5.337
0.125,0.051,0.197,-5.337
0.192,0.044,0.196,-5.337
0.244,0.040,0.196,-5.337
0.192,0.042,0.199,-5.337
0.144,0.042,0.196,-5.337
0.120,0.040,0.192,-5.337
0.153,0.038,0.193,-5.337
0.165,0.040,0.193,-5.337
0.136,0.041,0.192,-5.337
0.172,0.040,0.194,-5.337
0.211,0.038,0.196,-5.337
0.211,0.036,0.195,-5.337
0.221,0.035,0.194,-5.337
0.205,0.040,0.195,-5.337
0.184,0.040,0.193,-5.337
0.200,0.042,0.193,-5.337
0.203,0.041,0.196,-5.337
0.171,0.041,0.195,-5.337
0.163,0.043,0.196,-5.337
0.141,0.041,0.201,-5.337
0.196,0.040,0.200,-5.337
0.194,0.041,0.197,-5.337
0.160,0.042,0.192,-5.337
0.148,0.043,0.195,-5.337
0.137,0.045,0.195,-5.337
0.144,0.045,0.193,-5.337
0.153,0.043,0.196,-5.337
0.204,0.041,0.199,-5.337
0.238,0.039,0.195,-5.337
0.206,0.042,0.193,-5.337
0.188,0.039,0.189,-5.337
0.173,0.038,0.189,-5.337
0.198,0.038,0.191,-5.337
0.206,0.037,0.192,-5.337
0.206,0.038,0.191,-5.337
0.204,0.038,0.193,-5.337
0.184,0.037,0.196,-5.337
0.203,0.040,0.199,-5.337
0.171,0.043,0.198,-5.337
0.142,0.045,0.195,-5.337
0.181,0.043,0.198,-5.337
0.180,0.038,0.202,-5.337
0.156,0.041,0.205,-5.337
0.155,0.041,0.198,-5.337
0.132,0.034,0.194,-5.337
0.142,0.032,0.194,-5.337
0.174,0.034,0.196,-5.337
0.222,0.031,0.197,-5.337
0.221,0.031,0.196,-5.337
0.226,0.031,0.194,-5.337
0.167,0.031,0.192,-5.337
0.165,0.031,0.191,-5.337
0.225,0.030,0.194,-5.337
0.234,0.034,0.194,-5.337
0.219,0.031,0.194,-5.337
0.204,0.033,0.194,-5.337
0.161,0.038,0.195,-5.337
0.168,0.032,0.195,-5.337
0.217,0.032,0.195,-5.337
0.241,0.032,0.194,-5.337
0.248,0.034,0.192,-5.337
0.209,0.036,0.194,-5.337
0.167,0.038,0.194,-5.337
0.177,0.037,0.195,-5.337
0.218,0.038,0.197,-5.337
0.207,0.037,0.195,-5.337
0.177,0.035,0.193,-5.337
0.197,0.035,0.194,-5.337
0.173,0.036,0.194,-5.337
0.166,0.036,0.198,-5.337
0.198,0.032,0.200,-5.337
0.215,0.029,0.197,-5.337
0.189,0.029,0.193,-5.337
0.158,0.030,0.193,-5.337
0.200,0.033,0.191,-5.337
0.202,0.036,0.190,-5.337
0.150,0.037,0.192,-5.337
0.131,0.039,0.193,-5.337
0.141,0.036,0.196,-5.337
0.175,0.035,0.196,-5.337
0.216,0.034,0.197,-5.337
0.248,0.036,0.199,-5.337
0.182,0.037,0.196,-5.337
0.138,0.035,0.190,-5.337
0.123,0.038,0.190,-5.337
0.175,0.037,0.194,-5.337
0.208,0.037,0.194,-5.337
0.246,0.035,0.193,-5.337
0.265,0.033,0.199,-5.337
0.252,0.034,0.202,-5.337
0.241,0.032,0.201,-5.337
0.246,0.032,0.195,-5.337
0.185,0.034,0.194,-5.337
0.105,0.037,0.194,-5.337
0.096,0.033,0.195,-5.337
0.163,0.033,0.192,-5.337
0.237,0.034,0.195,-5.337
0.219,0.036,0.197,-5.337
0.171,0.038,0.199,-5.337
0.110,0.036,0.196,-5.337
0.129,0.035,0.194,-5.337
0.160,0.031,0.195,-5.337
0.119,0.034,0.192,-5.337
0.144,0.035,0.193,-5.337
0.213,0.031,0.194,-5.337
0.170,0.032,0.196,-5.337
0.117,0.032,0.198,-5.337
0.092,0.032,0.196,-5.337
