[Parameters]
Operating Mode, Feedback
Subject  AA..ZZ, WT
Session  0..99, 44
No. Trials (1..9999), 500
Mouse Number, 1
Pressure Probe Serial Port, \00\00\00\04COM4
Save additional csv file, TRUE
Save using mouse number, FALSE
A/D Monitor Rate (Hz), 30000.000000
A/D Stimulate Rate (Hz), 30000.000000
A/D input range (+/- V), 5
No. Channels to acquire (N), 2
Pre-Stim Acq. time (ms), 100.000000
Post-Stim Acq. time (ms), 900.000000
Analysis window parameters.M-response Start (ms), 1.100000
Analysis window parameters.M-response Duration (ms), 5.500000
Analysis window parameters.H-response Duration (ms), 6.000000
Analysis window parameters.H-response Start (ms), 6.500000
Feedback window, H response
Proportional gain, 0.100000
Target value, 6.700000
Feedback Ch., 1
Stim Channel to Control (1-4), 4
Trial, 23
Wait for EMG Conditions, FALSE
Channel to monitor (0 - N-1), 1
EMG Hi Limit, 2.000000
EMG Lo Limit, 0.001000
Inter-Stim delay (sec), 10.000000
EMG Monitor Mode, Mean
Time to run Long Stim.(sec), 30
Save Long Stim Data?, OFF
BURST Save time (ms), 1000
BURST Save Interval (x above), 10
Long-Stim. Rep. Rate (Hz), 10.000000
Stim type cluster array.<size(s)>, 4
Stim type cluster array 0.Stimulus Output, Electrical
Stim type cluster array 1.Stimulus Output, OFF
Stim type cluster array 2.Stimulus Output, OFF
Stim type cluster array 3.Stimulus Output, Motor Length
Stim specs cluster array.<size(s)>, 4
Stim specs cluster array 0.Initial Stimulus ampl., 0.300000
Stim specs cluster array 0.Maximum Stimulus, 1.120000
Stim specs cluster array 0.#Pulses in train, 4
Stim specs cluster array 0.Peak Level time (ms), 1.000000
Stim specs cluster array 0.Total pulse period (ms), 150.000000
Stim specs cluster array 0.Start Delay (ms), -50.000000
Stim specs cluster array 0.Pulse Shape, Square
Stim specs cluster array 0.Ramp/Rel. time (ms), 0.100000
Stim specs cluster array 0.Peak Amplitude (V), 0.120000
Stim specs cluster array 1.Initial Stimulus ampl., 0.000000
Stim specs cluster array 1.Maximum Stimulus, 0.000000
Stim specs cluster array 1.#Pulses in train, 3
Stim specs cluster array 1.Peak Level time (ms), 29.000000
Stim specs cluster array 1.Total pulse period (ms), 200.000000
Stim specs cluster array 1.Start Delay (ms), 0.000000
Stim specs cluster array 1.Pulse Shape, Square
Stim specs cluster array 1.Ramp/Rel. time (ms), 0.000000
Stim specs cluster array 1.Peak Amplitude (V), 2.000000
Stim specs cluster array 2.Initial Stimulus ampl., 0.000000
Stim specs cluster array 2.Maximum Stimulus, 0.000000
Stim specs cluster array 2.#Pulses in train, 1
Stim specs cluster array 2.Peak Level time (ms), 25.000000
Stim specs cluster array 2.Total pulse period (ms), 200.000000
Stim specs cluster array 2.Start Delay (ms), 0.000000
Stim specs cluster array 2.Pulse Shape, Square
Stim specs cluster array 2.Ramp/Rel. time (ms), 20.000000
Stim specs cluster array 2.Peak Amplitude (V), 10.000000
Stim specs cluster array 3.Initial Stimulus ampl., 0.000000
Stim specs cluster array 3.Maximum Stimulus, 15.000000
Stim specs cluster array 3.#Pulses in train, 25
Stim specs cluster array 3.Peak Level time (ms), 0.100000
Stim specs cluster array 3.Total pulse period (ms), 4.000000
Stim specs cluster array 3.Start Delay (ms), 205.000000
Stim specs cluster array 3.Pulse Shape, Triangle
Stim specs cluster array 3.Ramp/Rel. time (ms), 3.000000
Stim specs cluster array 3.Peak Amplitude (V), 0.500000
Force cal. (mN/Volt), 100.000000
Force Range (mN), 100.000000
Length cal. (mm/Volt), 10.000000
Length Range (mm), 10.000000
Stim. 1, 0.300000
Stim. 2, 0.000000
Stim. 3, 0.000000
Stim. 4, 0.000000
Monitor acquire time (ms), 100.000000
EMG graph Ymax, 0.100000
Travel limit (mm), 20.000000
Use Pressure Probe, FALSE
Pressure goal (g), 100
Speed (mm/sec), 5.000000
Dwell time (ms), 100.000000
Pressure limit (g), 500.000000
Channel amplitude offset, 0.000000

[DATA]

0.198,0.049,0.279,-5.337
0.314,0.049,0.275,-5.337
0.315,0.053,0.272,-5.337
0.184,0.058,0.273,-5.337
0.063,0.059,0.275,-5.337
0.076,0.058,0.276,-5.337
0.183,0.055,0.274,-5.337
0.284,0.052,0.276,-5.337
0.248,0.053,0.279,-5.337
0.145,0.054,0.281,-5.337
0.128,0.053,0.278,-5.337
0.187,0.055,0.275,-5.337
0.236,0.055,0.273,-5.337
0.257,0.056,0.272,-5.337
0.171,0.054,0.274,-5.337
0.171,0.053,0.277,-5.337
0.213,0.054,0.280,-5.337
0.185,0.057,0.278,-5.337
0.140,0.054,0.274,-5.337
0.146,0.049,0.274,-5.337
0.191,0.051,0.275,-5.337
0.285,0.051,0.270,-5.337
0.313,0.051,0.271,-5.337
0.236,0.051,0.275,-5.337
0.185,0.051,0.274,-5.337
0.232,0.051,0.277,-5.337
0.191,0.053,0.281,-5.337
0.158,0.050,0.277,-5.337
0.262,0.044,0.272,-5.337
0.299,0.047,0.273,-5.337
0.233,0.054,0.276,-5.337
0.227,0.051,0.277,-5.337
0.182,0.046,0.276,-5.337
0.179,0.046,0.274,-5.337
0.239,0.050,0.268,-5.337
0.264,0.049,0.271,-5.337
0.252,0.050,0.273,-5.337
0.188,0.053,0.273,-5.337
0.111,0.054,0.272,-5.337
0.103,0.053,0.275,-5.337
0.173,0.049,0.275,-5.337
0.198,0.050,0.275,-5.337
0.230,0.050,0.274,-5.337
0.238,0.050,0.277,-5.337
0.267,0.048,0.278,-5.337
0.270,0.048,0.277,-5.337
0.189,0.048,0.276,-5.337
0.101,0.048,0.274,-5.337
0.164,0.045,0.272,-5.337
0.179,0.047,0.272,-5.337
0.142,0.052,0.270,-5.337
0.203,0.053,0.271,-5.337
0.265,0.048,0.273,-5.337
0.227,0.049,0.277,-5.337
0.132,0.046,0.280,-5.337
0.224,0.045,0.274,-5.337
0.257,0.046,0.270,-5.337
0.289,0.043,0.267,-5.337
0.319,0.043,0.270,-5.337
0.271,0.047,0.273,-5.337
0.209,0.047,0.274,-5.337
0.198,0.043,0.271,-5.337
0.233,0.041,0.272,-5.337
0.238,0.041,0.276,-5.337
0.271,0.040,0.276,-5.337
0.300,0.039,0.276,-5.337
0.299,0.037,0.275,-5.337
0.253,0.038,0.272,-5.337
0.247,0.038,0.269,-5.337
0.198,0.040,0.269,-5.337
0.190,0.041,0.272,-5.337
0.188,0.043,0.271,-5.337
0.190,0.042,0.272,-5.337
0.162,0.041,0.274,-5.337
0.153,0.045,0.275,-5.337
0.121,0.046,0.276,-5.337
0.180,0.042,0.277,-5.337
0.253,0.039,0.276,-5.337
0.287,0.043,0.275,-5.337
0.211,0.047,0.278,-5.337
0.193,0.045,0.278,-5.337
0.191,0.043,0.275,-5.337
0.200,0.042,0.272,-5.337
0.193,0.040,0.270,-5.337
0.254,0.037,0.269,-5.337
0.294,0.040,0.268,-5.337
0.297,0.042,0.271,-5.337
0.214,0.042,0.275,-5.337
0.190,0.044,0.278,-5.337
0.175,0.042,0.275,-5.337
0.179,0.045,0.274,-5.337
0.205,0.045,0.277,-5.337
0.203,0.047,0.275,-5.337
0.189,0.051,0.273,-5.337
0.141,0.048,0.272,-5.337
0.201,0.043,0.272,-5.337
0.238,0.045,0.274,-5.337
0.278,0.046,0.273,-5.337
0.240,0.045,0.270,-5.337
0.190,0.045,0.270,-5.337
0.215,0.047,0.272,-5.337
0.297,0.046,0.274,-5.337
0.299,0.045,0.275,-5.337
0.242,0.045,0.275,-5.337
0.251,0.045,0.276,-5.337
0.289,0.043,0.275,-5.337
0.237,0.044,0.275,-5.337
0.262,0.042,0.274,-5.337
0.250,0.041,0.277,-5.337
0.205,0.045,0.281,-5.337
0.169,0.050,0.284,-5.337
0.195,0.049,0.283,-5.337
0.259,0.043,0.282,-5.337
0.272,0.041,0.276,-5.337
0.288,0.042,0.269,-5.337
0.311,0.041,0.272,-5.337
0.280,0.041,0.277,-5.337
0.267,0.040,0.280,-5.337
0.283,0.040,0.277,-5.337
0.210,0.036,0.278,-5.337
0.188,0.033,0.277,-5.337
0.187,0.032,0.274,-5.337
0.225,0.035,0.272,-5.337
0.217,0.040,0.272,-5.337
0.245,0.039,0.272,-5.337
0.304,0.035,0.274,-5.337
0.311,0.033,0.275,-5.337
0.259,0.035,0.280,-5.337
0.172,0.039,0.282,-5.337
0.205,0.037,0.277,-5.337
0.270,0.031,0.274,-5.337
0.248,0.034,0.273,-5.337
0.209,0.032,0.273,-5.337
0.203,0.035,0.274,-5.337
0.236,0.034,0.277,-5.337
0.252,0.033,0.279,-5.337
0.209,0.035,0.277,-5.337
0.153,0.037,0.274,-5.337
0.149,0.040,0.274,-5.337
0.279,0.038,0.273,-5.337
0.322,0.034,0.274,-5.337
0.204,0.038,0.277,-5.337
0.164,0.038,0.278,-5.337
0.170,0.035,0.276,-5.337
0.179,0.037,0.277,-5.337
0.215,0.035,0.274,-5.337
0.227,0.036,0.271,-5.337
0.193,0.036,0.267,-5.337
0.228,0.035,0.270,-5.337
0.229,0.034,0.272,-5.337
0.227,0.036,0.274,-5.337
0.233,0.035,0.273,-5.337
0.214,0.037,0.270,-5.337
0.221,0.037,0.270,-5.337
0.220,0.038,0.273,-5.337
0.256,0.036,0.271,-5.337
0.279,0.034,0.272,-5.337
0.237,0.038,0.274,-5.337
0.182,0.038,0.276,-5.337
0.224,0.038,0.276,-5.337
0.265,0.039,0.273,-5.337
0.239,0.039,0.271,-5.337
0.202,0.038,0.270,-5.337
0.180,0.036,0.272,-5.337
0.246,0.033,0.275,-5.337
0.309,0.033,0.275,-5.337
0.256,0.035,0.273,-5.337
0.218,0.033,0.273,-5.337
0.189,0.035,0.269,-5.337
0.186,0.036,0.268,-5.337
0.246,0.032,0.268,-5.337
0.290,0.030,0.268,-5.337
0.268,0.031,0.270,-5.337
0.249,0.033,0.275,-5.337
0.233,0.037,0.278,-5.337
0.233,0.038,0.281,-5.337
0.183,0.036,0.280,-5.337
0.178,0.038,0.277,-5.337
0.179,0.039,0.271,-5.337
0.162,0.041,0.271,-5.337
0.151,0.040,0.272,-5.337
0.150,0.038,0.271,-5.337
0.173,0.036,0.270,-5.337
0.180,0.036,0.271,-5.337
0.209,0.036,0.274,-5.337
0.238,0.037,0.274,-5.337
0.223,0.036,0.274,-5.337
0.209,0.036,0.269,-5.337
0.232,0.040,0.267,-5.337
0.249,0.044,0.266,-5.337
0.278,0.043,0.272,-5.337
0.246,0.041,0.274,-5.337
0.273,0.041,0.274,-5.337
0.280,0.039,0.277,-5.337
0.244,0.041,0.274,-5.337
0.199,0.044,0.270,-5.337
0.202,0.043,0.269,-5.337
0.228,0.039,0.271,-5.337
0.224,0.041,0.274,-5.337
0.270,0.040,0.272,-5.337
0.281,0.039,0.271,-5.337
0.259,0.039,0.271,-5.337
0.258,0.043,0.271,-5.337
0.201,0.045,0.273,-5.337
0.171,0.042,0.275,-5.337
0.157,0.041,0.273,-5.337
0.151,0.040,0.268,-5.337
0.227,0.038,0.271,-5.337
0.290,0.040,0.275,-5.337
0.222,0.042,0.274,-5.337
0.200,0.044,0.270,-5.337
0.246,0.045,0.271,-5.337
0.257,0.043,0.272,-5.337
0.218,0.046,0.270,-5.337
0.205,0.045,0.270,-5.337
0.217,0.042,0.273,-5.337
0.245,0.041,0.272,-5.337
0.246,0.042,0.271,-5.337
0.192,0.045,0.269,-5.337
0.185,0.044,0.270,-5.337
0.237,0.041,0.272,-5.337
0.226,0.045,0.270,-5.337
0.142,0.045,0.270,-5.337
0.153,0.049,0.273,-5.337
0.133,0.051,0.274,-5.337
0.140,0.051,0.275,-5.337
0.121,0.052,0.278,-5.337
0.180,0.050,0.278,-5.337
0.235,0.046,0.275,-5.337
0.224,0.048,0.269,-5.337
0.204,0.048,0.269,-5.337
0.275,0.043,0.271,-5.337
0.293,0.042,0.274,-5.337
0.277,0.042,0.275,-5.337
0.280,0.044,0.278,-5.337
0.210,0.048,0.277,-5.337
0.158,0.046,0.275,-5.337
0.202,0.046,0.273,-5.337
0.264,0.049,0.273,-5.337
0.185,0.052,0.272,-5.337
0.105,0.059,0.272,-5.337
0.090,0.056,0.271,-5.337
0.162,0.051,0.269,-5.337
0.191,0.051,0.273,-5.337
0.239,0.050,0.277,-5.337
0.271,0.052,0.275,-5.337
0.199,0.051,0.272,-5.337
0.168,0.049,0.274,-5.337
0.182,0.044,0.273,-5.337
0.250,0.042,0.274,-5.337
0.278,0.047,0.273,-5.337
0.211,0.053,0.274,-5.337
0.178,0.054,0.271,-5.337
0.148,0.053,0.271,-5.337
0.135,0.053,0.272,-5.337
0.170,0.051,0.273,-5.337
0.203,0.054,0.275,-5.337
0.165,0.054,0.275,-5.337
0.163,0.051,0.274,-5.337
0.198,0.049,0.274,-5.337
0.172,0.053,0.273,-5.337
0.150,0.055,0.274,-5.337
0.235,0.053,0.277,-5.337
0.238,0.054,0.277,-5.337
0.105,0.058,0.275,-5.337
0.096,0.059,0.274,-5.337
0.216,0.053,0.271,-5.337
0.279,0.051,0.268,-5.337
0.198,0.055,0.271,-5.337
0.109,0.056,0.273,-5.337
0.149,0.051,0.274,-5.337
0.220,0.053,0.272,-5.337
0.145,0.058,0.275,-5.337
0.093,0.056,0.275,-5.337
0.238,0.051,0.274,-5.337
0.270,0.053,0.273,-5.337
0.212,0.059,0.274,-5.337
0.164,0.061,0.273,-5.337
0.174,0.061,0.274,-5.337
0.139,0.057,0.272,-5.337
0.130,0.059,0.273,-5.337
0.146,0.060,0.278,-5.337
0.137,0.057,0.283,-5.337
0.206,0.058,0.280,-5.337
0.267,0.058,0.276,-5.337
0.228,0.059,0.272,-5.337
0.163,0.058,0.271,-5.337
0.160,0.057,0.273,-5.337
0.195,0.058,0.274,-5.337
0.255,0.057,0.276,-5.337
0.190,0.060,0.275,-5.337
0.083,0.066,0.276,-5.337
0.145,0.064,0.275,-5.337
0.228,0.059,0.275,-5.337
0.180,0.058,0.274,-5.337
0.138,0.059,0.275,-5.337
0.158,0.057,0.270,-5.337
0.233,0.058,0.269,-5.337
0.174,0.060,0.272,-5.337
0.140,0.059,0.277,-5.337
0.217,0.054,0.278,-5.337
0.218,0.059,0.272,-5.337
0.186,0.061,0.269,-5.337
0.181,0.060,0.267,-5.337
0.240,0.058,0.269,-5.337
0.264,0.059,0.276,-5.337
0.173,0.062,0.279,-5.337
0.097,0.061,0.279,-5.337
0.069,0.063,0.279,-5.337
0.125,0.061,0.276,-5.337
0.204,0.061,0.272,-5.337
0.213,0.061,0.266,-5.337
0.196,0.061,0.266,-5.337
0.215,0.061,0.267,-5.337
0.238,0.064,0.273,-5.337
0.240,0.059,0.275,-5.337
0.196,0.062,0.278,-5.337
0.181,0.060,0.272,-5.337
0.213,0.061,0.269,-5.337
0.208,0.062,0.270,-5.337
0.181,0.061,0.270,-5.337
0.159,0.057,0.268,-5.337
0.175,0.060,0.272,-5.337
0.210,0.058,0.276,-5.337
0.226,0.062,0.274,-5.337
0.197,0.059,0.273,-5.337
0.168,0.061,0.274,-5.337
0.141,0.064,0.276,-5.337
0.097,0.067,0.277,-5.337
0.127,0.061,0.280,-5.337
0.215,0.058,0.280,-5.337
0.225,0.060,0.277,-5.337
0.114,0.064,0.274,-5.337
0.124,0.063,0.276,-5.337
0.146,0.062,0.276,-5.337
0.214,0.059,0.274,-5.337
0.325,0.057,0.271,-5.337
0.228,0.057,0.269,-5.337
0.194,0.058,0.266,-5.337
0.219,0.059,0.271,-5.337
0.202,0.059,0.275,-5.337
0.096,0.065,0.279,-5.337
0.002,0.067,0.277,-5.337
0.009,0.067,0.274,-5.337
0.074,0.063,0.270,-5.337
0.172,0.065,0.272,-5.337
0.235,0.063,0.272,-5.337
0.223,0.058,0.271,-5.337
0.167,0.062,0.272,-5.337
0.077,0.067,0.275,-5.337
0.126,0.067,0.274,-5.337
0.214,0.063,0.272,-5.337
0.167,0.067,0.273,-5.337
0.078,0.069,0.275,-5.337
0.089,0.071,0.277,-5.337
0.177,0.068,0.278,-5.337
0.185,0.066,0.279,-5.337
0.210,0.062,0.274,-5.337
0.260,0.065,0.271,-5.337
0.229,0.066,0.274,-5.337
0.170,0.067,0.280,-5.337
0.189,0.065,0.278,-5.337
0.198,0.067,0.275,-5.337
0.192,0.067,0.272,-5.337
0.241,0.067,0.270,-5.337
0.244,0.066,0.271,-5.337
0.223,0.068,0.276,-5.337
0.219,0.066,0.277,-5.337
0.170,0.067,0.279,-5.337
0.086,0.066,0.282,-5.337
0.117,0.059,0.284,-5.337
0.177,0.062,0.282,-5.337
0.198,0.066,0.277,-5.337
0.175,0.068,0.269,-5.337
0.126,0.068,0.269,-5.337
0.104,0.066,0.272,-5.337
0.150,0.062,0.274,-5.337
0.168,0.063,0.277,-5.337
0.105,0.065,0.280,-5.337
0.114,0.066,0.280,-5.337
0.190,0.064,0.276,-5.337
0.174,0.067,0.274,-5.337
0.121,0.066,0.275,-5.337
0.162,0.063,0.276,-5.337
0.157,0.062,0.276,-5.337
0.087,0.067,0.274,-5.337
0.047,0.068,0.274,-5.337
0.086,0.064,0.277,-5.337
0.172,0.063,0.280,-5.337
0.161,0.066,0.280,-5.337
0.171,0.066,0.276,-5.337
0.216,0.066,0.272,-5.337
0.194,0.065,0.274,-5.337
0.107,0.067,0.278,-5.337
0.055,0.066,0.280,-5.337
0.072,0.063,0.280,-5.337
0.129,0.060,0.278,-5.337
0.152,0.062,0.273,-5.337
0.182,0.061,0.271,-5.337
0.181,0.062,0.273,-5.337
0.183,0.061,0.277,-5.337
0.133,0.061,0.276,-5.337
0.146,0.058,0.276,-5.337
0.215,0.057,0.280,-5.337
0.266,0.060,0.282,-5.337
0.277,0.058,0.278,-5.337
0.228,0.060,0.278,-5.337
0.154,0.061,0.279,-5.337
0.127,0.062,0.280,-5.337
0.100,0.062,0.277,-5.337
0.102,0.062,0.274,-5.337
0.181,0.061,0.270,-5.337
0.167,0.060,0.268,-5.337
0.085,0.059,0.271,-5.337
0.131,0.059,0.275,-5.337
0.179,0.060,0.277,-5.337
0.203,0.061,0.276,-5.337
0.163,0.059,0.275,-5.337
0.162,0.056,0.269,-5.337
0.182,0.057,0.266,-5.337
0.224,0.060,0.267,-5.337
0.175,0.065,0.272,-5.337
0.091,0.066,0.277,-5.337
0.064,0.069,0.276,-5.337
0.139,0.066,0.271,-5.337
0.211,0.065,0.274,-5.337
0.198,0.064,0.272,-5.337
0.185,0.063,0.270,-5.337
0.171,0.063,0.270,-5.337
0.142,0.066,0.272,-5.337
0.199,0.062,0.275,-5.337
0.228,0.060,0.278,-5.337
0.207,0.060,0.276,-5.337
0.171,0.065,0.275,-5.337
0.130,0.065,0.273,-5.337
0.161,0.064,0.270,-5.337
0.198,0.066,0.271,-5.337
0.198,0.063,0.269,-5.337
0.208,0.059,0.268,-5.337
0.201,0.060,0.270,-5.337
0.118,0.061,0.273,-5.337
0.129,0.064,0.274,-5.337
0.198,0.065,0.274,-5.337
0.168,0.064,0.270,-5.337
0.156,0.061,0.268,-5.337
0.147,0.061,0.268,-5.337
0.136,0.064,0.271,-5.337
0.157,0.065,0.271,-5.337
0.147,0.064,0.267,-5.337
0.118,0.062,0.267,-5.337
0.176,0.060,0.269,-5.337
0.171,0.061,0.273,-5.337
0.142,0.062,0.271,-5.337
0.143,0.059,0.268,-5.337
0.185,0.056,0.267,-5.337
0.197,0.057,0.271,-5.337
0.209,0.056,0.270,-5.337
0.170,0.057,0.270,-5.337
0.152,0.056,0.269,-5.337
0.154,0.055,0.267,-5.337
0.171,0.056,0.265,-5.337
0.190,0.054,0.268,-5.337
0.200,0.049,0.273,-5.337
0.257,0.047,0.274,-5.337
0.227,0.053,0.272,-5.337
0.191,0.054,0.269,-5.337
0.183,0.054,0.269,-5.337
0.182,0.052,0.270,-5.337
0.129,0.051,0.273,-5.337
0.170,0.052,0.272,-5.337
0.245,0.052,0.272,-5.337
0.214,0.058,0.272,-5.337
0.140,0.059,0.270,-5.337
0.145,0.055,0.269,-5.337
0.156,0.054,0.271,-5.337
0.127,0.057,0.271,-5.337
0.123,0.056,0.269,-5.337
0.175,0.055,0.269,-5.337
0.203,0.055,0.268,-5.337
0.198,0.056,0.267,-5.337
0.219,0.056,0.271,-5.337
0.214,0.055,0.269,-5.337
0.159,0.054,0.267,-5.337
0.150,0.058,0.268,-5.337
0.141,0.056,0.268,-5.337
0.187,0.053,0.266,-5.337
0.219,0.052,0.267,-5.337
0.201,0.053,0.273,-5.337
0.160,0.054,0.279,-5.337
0.157,0.054,0.277,-5.337
0.237,0.051,0.271,-5.337
0.261,0.051,0.266,-5.337
0.181,0.051,0.266,-5.337
0.132,0.052,0.272,-5.337
0.043,0.054,0.276,-5.337
0.103,0.051,0.274,-5.337
0.215,0.048,0.271,-5.337
0.236,0.050,0.269,-5.337
0.241,0.050,0.269,-5.337
0.232,0.053,0.264,-5.337
0.258,0.052,0.264,-5.337
0.243,0.048,0.270,-5.337
0.172,0.051,0.272,-5.337
0.148,0.055,0.271,-5.337
0.179,0.055,0.268,-5.337
0.250,0.054,0.272,-5.337
0.240,0.049,0.274,-5.337
0.197,0.049,0.276,-5.337
0.238,0.048,0.273,-5.337
0.255,0.049,0.267,-5.337
0.172,0.049,0.263,-5.337
0.208,0.049,0.265,-5.337
0.269,0.049,0.267,-5.337
0.229,0.053,0.270,-5.337
0.142,0.052,0.272,-5.337
0.153,0.049,0.273,-5.337
0.234,0.047,0.273,-5.337
0.232,0.049,0.272,-5.337
0.199,0.055,0.269,-5.337
0.189,0.053,0.266,-5.337
0.204,0.051,0.266,-5.337
0.156,0.054,0.270,-5.337
0.109,0.055,0.273,-5.337
0.120,0.052,0.273,-5.337
0.144,0.048,0.271,-5.337
0.108,0.055,0.266,-5.337
0.088,0.052,0.267,-5.337
0.143,0.045,0.271,-5.337
0.203,0.045,0.273,-5.337
0.201,0.049,0.266,-5.337
0.279,0.050,0.267,-5.337
0.271,0.049,0.271,-5.337
0.214,0.048,0.273,-5.337
0.177,0.044,0.271,-5.337
0.231,0.046,0.275,-5.337
0.263,0.044,0.274,-5.337
0.203,0.047,0.268,-5.337
0.142,0.047,0.267,-5.337
0.158,0.044,0.270,-5.337
0.203,0.041,0.271,-5.337
0.236,0.046,0.269,-5.337
0.131,0.047,0.270,-5.337
0.131,0.045,0.271,-5.337
0.161,0.045,0.271,-5.337
0.182,0.045,0.273,-5.337
0.225,0.046,0.274,-5.337
0.189,0.046,0.275,-5.337
0.158,0.043,0.273,-5.337
0.244,0.042,0.268,-5.337
0.270,0.046,0.266,-5.337
0.167,0.049,0.268,-5.337
0.129,0.047,0.273,-5.337
0.218,0.045,0.273,-5.337
0.318,0.041,0.271,-5.337
0.289,0.044,0.270,-5.337
0.261,0.045,0.269,-5.337
0.252,0.043,0.269,-5.337
0.184,0.048,0.270,-5.337
0.150,0.043,0.271,-5.337
0.208,0.038,0.271,-5.337
0.290,0.038,0.271,-5.337
0.269,0.039,0.273,-5.337
0.171,0.043,0.272,-5.337
0.152,0.046,0.271,-5.337
0.180,0.045,0.272,-5.337
0.174,0.048,0.271,-5.337
0.167,0.049,0.268,-5.337
0.222,0.045,0.268,-5.337
0.271,0.044,0.269,-5.337
0.255,0.044,0.271,-5.337
0.178,0.046,0.272,-5.337
0.155,0.045,0.267,-5.337
0.188,0.049,0.265,-5.337
0.267,0.048,0.268,-5.337
0.265,0.044,0.272,-5.337
0.239,0.044,0.271,-5.337
0.227,0.045,0.268,-5.337
0.230,0.045,0.271,-5.337
0.248,0.044,0.275,-5.337
0.237,0.045,0.275,-5.337
0.215,0.048,0.273,-5.337
0.262,0.046,0.271,-5.337
0.226,0.046,0.271,-5.337
0.114,0.048,0.271,-5.337
0.084,0.050,0.270,-5.337
0.063,0.051,0.270,-5.337
0.130,0.047,0.268,-5.337
0.271,0.039,0.267,-5.337
0.314,0.039,0.267,-5.337
0.242,0.046,0.268,-5.337
0.218,0.047,0.270,-5.337
0.188,0.042,0.270,-5.337
0.206,0.042,0.267,-5.337
0.173,0.045,0.268,-5.337
0.168,0.044,0.267,-5.337
0.202,0.045,0.266,-5.337
0.186,0.051,0.269,-5.337
0.170,0.051,0.273,-5.337
0.185,0.047,0.271,-5.337
0.206,0.046,0.272,-5.337
0.164,0.047,0.271,-5.337
0.175,0.043,0.272,-5.337
0.248,0.041,0.273,-5.337
0.278,0.047,0.271,-5.337
0.243,0.049,0.264,-5.337
0.218,0.050,0.262,-5.337
0.231,0.048,0.267,-5.337
0.226,0.048,0.271,-5.337
0.250,0.046,0.271,-5.337
0.292,0.042,0.268,-5.337
0.234,0.043,0.267,-5.337
0.159,0.043,0.268,-5.337
0.131,0.043,0.271,-5.337
0.149,0.043,0.271,-5.337
0.134,0.048,0.271,-5.337
0.156,0.044,0.269,-5.337
0.235,0.039,0.268,-5.337
0.283,0.042,0.268,-5.337
0.263,0.047,0.268,-5.337
0.271,0.048,0.270,-5.337
0.266,0.045,0.272,-5.337
0.188,0.044,0.273,-5.337
0.174,0.045,0.273,-5.337
0.222,0.046,0.273,-5.337
0.210,0.048,0.271,-5.337
0.190,0.045,0.268,-5.337
0.178,0.046,0.269,-5.337
0.215,0.047,0.268,-5.337
0.219,0.046,0.266,-5.337
0.168,0.044,0.268,-5.337
0.176,0.047,0.272,-5.337
0.174,0.047,0.271,-5.337
0.202,0.046,0.270,-5.337
0.217,0.047,0.274,-5.337
0.192,0.049,0.275,-5.337
0.197,0.048,0.272,-5.337
0.258,0.046,0.269,-5.337
0.267,0.044,0.272,-5.337
0.247,0.043,0.272,-5.337
0.272,0.045,0.269,-5.337
0.284,0.043,0.267,-5.337
0.296,0.041,0.270,-5.337
0.263,0.044,0.273,-5.337
0.250,0.047,0.276,-5.337
0.316,0.047,0.275,-5.337
0.271,0.048,0.274,-5.337
0.163,0.052,0.273,-5.337
0.165,0.050,0.269,-5.337
0.218,0.047,0.267,-5.337
0.242,0.043,0.267,-5.337
0.288,0.042,0.269,-5.337
0.226,0.049,0.271,-5.337
0.154,0.053,0.273,-5.337
0.203,0.053,0.272,-5.337
0.163,0.053,0.270,-5.337
0.149,0.051,0.264,-5.337
0.227,0.045,0.266,-5.337
0.256,0.044,0.271,-5.337
0.221,0.046,0.275,-5.337
0.128,0.048,0.275,-5.337
0.120,0.046,0.269,-5.337
0.181,0.044,0.267,-5.337
0.223,0.047,0.272,-5.337
0.261,0.043,0.273,-5.337
0.204,0.045,0.276,-5.337
0.166,0.043,0.275,-5.337
0.187,0.039,0.270,-5.337
0.243,0.040,0.270,-5.337
0.264,0.042,0.268,-5.337
0.227,0.041,0.268,-5.337
0.196,0.038,0.270,-5.337
0.237,0.040,0.272,-5.337
0.273,0.041,0.270,-5.337
0.210,0.043,0.271,-5.337
0.142,0.045,0.273,-5.337
0.245,0.041,0.274,-5.337
0.303,0.041,0.270,-5.337
0.240,0.045,0.270,-5.337
0.267,0.043,0.268,-5.337
0.285,0.041,0.269,-5.337
0.205,0.047,0.267,-5.337
0.111,0.050,0.267,-5.337
0.156,0.044,0.271,-5.337
0.186,0.043,0.275,-5.337
0.212,0.043,0.276,-5.337
0.244,0.045,0.274,-5.337
0.227,0.043,0.272,-5.337
0.230,0.043,0.271,-5.337
0.209,0.046,0.270,-5.337
0.192,0.047,0.270,-5.337
0.143,0.046,0.272,-5.337
0.202,0.049,0.270,-5.337
0.292,0.047,0.268,-5.337
0.289,0.043,0.267,-5.337
0.254,0.045,0.266,-5.337
0.229,0.053,0.267,-5.337
0.174,0.054,0.271,-5.337
0.134,0.051,0.274,-5.337
0.181,0.048,0.272,-5.337
0.173,0.053,0.268,-5.337
0.229,0.051,0.269,-5.337
0.245,0.049,0.268,-5.337
0.237,0.052,0.270,-5.337
0.171,0.053,0.269,-5.337
0.143,0.058,0.266,-5.337
0.202,0.054,0.266,-5.337
0.222,0.052,0.268,-5.337
0.178,0.048,0.271,-5.337
0.213,0.047,0.268,-5.337
0.198,0.041,0.266,-5.337
0.232,0.043,0.266,-5.337
0.280,0.044,0.265,-5.337
0.321,0.040,0.267,-5.337
0.243,0.042,0.271,-5.337
0.188,0.044,0.275,-5.337
0.214,0.043,0.276,-5.337
0.193,0.047,0.271,-5.337
0.152,0.048,0.266,-5.337
0.156,0.049,0.262,-5.337
0.130,0.048,0.264,-5.337
0.161,0.047,0.266,-5.337
0.194,0.049,0.268,-5.337
0.193,0.051,0.267,-5.337
0.203,0.049,0.270,-5.337
0.190,0.048,0.269,-5.337
0.219,0.047,0.270,-5.337
0.207,0.046,0.274,-5.337
0.117,0.052,0.273,-5.337
0.186,0.052,0.265,-5.337
0.192,0.054,0.262,-5.337
0.195,0.052,0.266,-5.337
0.254,0.050,0.273,-5.337
0.332,0.047,0.272,-5.337
0.308,0.046,0.267,-5.337
0.201,0.048,0.266,-5.337
0.173,0.045,0.271,-5.337
0.239,0.045,0.273,-5.337
0.219,0.050,0.270,-5.337
0.171,0.054,0.267,-5.337
0.166,0.052,0.266,-5.337
0.182,0.050,0.272,-5.337
0.199,0.051,0.271,-5.337
0.143,0.053,0.268,-5.337
0.129,0.054,0.265,-5.337
0.142,0.057,0.265,-5.337
0.116,0.058,0.265,-5.337
0.155,0.059,0.266,-5.337
0.190,0.053,0.264,-5.337
0.215,0.054,0.264,-5.337
0.212,0.055,0.266,-5.337
0.222,0.056,0.268,-5.337
0.240,0.051,0.271,-5.337
0.235,0.054,0.275,-5.337
0.250,0.053,0.275,-5.337
0.198,0.054,0.272,-5.337
0.213,0.053,0.273,-5.337
0.248,0.050,0.274,-5.337
0.266,0.051,0.274,-5.337
0.212,0.055,0.270,-5.337
0.125,0.051,0.268,-5.337
0.169,0.049,0.267,-5.337
0.191,0.049,0.267,-5.337
0.154,0.052,0.266,-5.337
0.184,0.049,0.270,-5.337
0.180,0.049,0.268,-5.337
0.205,0.048,0.268,-5.337
0.228,0.048,0.268,-5.337
0.184,0.049,0.268,-5.337
0.180,0.042,0.266,-5.337
0.200,0.042,0.266,-5.337
0.249,0.042,0.266,-5.337
0.189,0.048,0.265,-5.337
0.139,0.048,0.265,-5.337
0.179,0.049,0.268,-5.337
0.230,0.048,0.272,-5.337
0.227,0.053,0.273,-5.337
0.181,0.053,0.269,-5.337
0.145,0.050,0.266,-5.337
0.137,0.053,0.267,-5.337
0.203,0.050,0.270,-5.337
0.214,0.049,0.274,-5.337
0.139,0.052,0.275,-5.337
0.168,0.054,0.274,-5.337
0.271,0.052,0.271,-5.337
0.264,0.051,0.271,-5.337
0.205,0.051,0.270,-5.337
0.178,0.054,0.271,-5.337
0.116,0.053,0.269,-5.337
0.162,0.050,0.268,-5.337
0.165,0.051,0.268,-5.337
0.118,0.052,0.268,-5.337
0.164,0.050,0.264,-5.337
0.207,0.050,0.265,-5.337
0.200,0.050,0.267,-5.337
0.142,0.054,0.270,-5.337
0.083,0.053,0.270,-5.337
0.120,0.050,0.270,-5.337
0.167,0.047,0.268,-5.337
0.134,0.051,0.266,-5.337
0.103,0.053,0.268,-5.337
0.140,0.053,0.269,-5.337
0.181,0.051,0.269,-5.337
0.171,0.054,0.271,-5.337
0.193,0.053,0.269,-5.337
0.157,0.055,0.267,-5.337
0.087,0.055,0.272,-5.337
0.088,0.057,0.270,-5.337
0.072,0.059,0.267,-5.337
0.100,0.055,0.265,-5.337
0.140,0.054,0.265,-5.337
0.175,0.054,0.268,-5.337
0.160,0.059,0.270,-5.337
0.117,0.057,0.269,-5.337
0.150,0.054,0.270,-5.337
0.156,0.054,0.273,-5.337
0.202,0.051,0.274,-5.337
0.252,0.048,0.274,-5.337
0.236,0.048,0.273,-5.337
0.216,0.048,0.269,-5.337
0.287,0.051,0.266,-5.337
0.224,0.056,0.270,-5.337
0.169,0.057,0.269,-5.337
0.170,0.054,0.271,-5.337
0.166,0.051,0.273,-5.337
0.188,0.048,0.268,-5.337
0.248,0.049,0.261,-5.337
0.224,0.052,0.262,-5.337
0.150,0.059,0.267,-5.337
0.130,0.063,0.273,-5.337
0.084,0.065,0.272,-5.337
0.066,0.061,0.274,-5.337
0.062,0.056,0.271,-5.337
0.121,0.057,0.270,-5.337
0.196,0.059,0.272,-5.337
0.190,0.062,0.272,-5.337
0.153,0.059,0.272,-5.337
0.161,0.057,0.270,-5.337
0.176,0.056,0.270,-5.337
0.155,0.060,0.271,-5.337
0.138,0.062,0.270,-5.337
0.155,0.062,0.270,-5.337
0.142,0.060,0.270,-5.337
0.105,0.058,0.271,-5.337
0.179,0.056,0.272,-5.337
0.208,0.058,0.268,-5.337
0.160,0.061,0.269,-5.337
0.143,0.059,0.269,-5.337
0.136,0.058,0.272,-5.337
0.102,0.057,0.269,-5.337
0.209,0.055,0.268,-5.337
0.268,0.056,0.267,-5.337
0.182,0.058,0.270,-5.337
0.151,0.059,0.271,-5.337
0.140,0.063,0.272,-5.337
0.125,0.059,0.272,-5.337
0.102,0.058,0.268,-5.337
0.171,0.054,0.266,-5.337
0.169,0.054,0.267,-5.337
0.184,0.056,0.265,-5.337
0.194,0.059,0.266,-5.337
0.116,0.058,0.266,-5.337
0.125,0.058,0.267,-5.337
0.166,0.056,0.269,-5.337
0.183,0.057,0.269,-5.337
0.192,0.057,0.272,-5.337
0.151,0.062,0.274,-5.337
0.171,0.059,0.275,-5.337
0.218,0.057,0.270,-5.337
0.235,0.054,0.266,-5.337
0.246,0.053,0.267,-5.337
0.191,0.053,0.273,-5.337
0.172,0.052,0.276,-5.337
0.217,0.055,0.275,-5.337
0.206,0.055,0.267,-5.337
0.192,0.056,0.262,-5.337
0.186,0.056,0.265,-5.337
0.153,0.060,0.273,-5.337
0.163,0.065,0.271,-5.337
0.145,0.065,0.269,-5.337
0.128,0.062,0.270,-5.337
0.177,0.063,0.270,-5.337
0.215,0.060,0.270,-5.337
0.193,0.058,0.272,-5.337
0.145,0.060,0.273,-5.337
0.165,0.061,0.276,-5.337
0.223,0.062,0.277,-5.337
0.167,0.063,0.271,-5.337
0.111,0.063,0.266,-5.337
0.174,0.062,0.266,-5.337
0.255,0.059,0.268,-5.337
0.233,0.063,0.271,-5.337
0.116,0.063,0.271,-5.337
0.087,0.060,0.267,-5.337
0.186,0.059,0.267,-5.337
0.217,0.058,0.268,-5.337
0.157,0.061,0.274,-5.337
0.121,0.064,0.275,-5.337
0.135,0.063,0.271,-5.337
0.177,0.057,0.269,-5.337
0.211,0.054,0.268,-5.337
0.199,0.056,0.266,-5.337
0.094,0.060,0.267,-5.337
0.017,0.060,0.270,-5.337
0.074,0.060,0.271,-5.337
0.124,0.057,0.270,-5.337
0.199,0.053,0.269,-5.337
0.268,0.052,0.270,-5.337
0.222,0.057,0.272,-5.337
0.108,0.059,0.273,-5.337
0.131,0.059,0.272,-5.337
0.197,0.059,0.272,-5.337
0.199,0.063,0.269,-5.337
0.164,0.066,0.270,-5.337
0.082,0.066,0.269,-5.337
0.119,0.065,0.273,-5.337
0.123,0.064,0.275,-5.337
0.122,0.063,0.277,-5.337
0.188,0.061,0.279,-5.337
0.242,0.061,0.277,-5.337
0.242,0.060,0.272,-5.337
0.151,0.061,0.270,-5.337
0.096,0.059,0.269,-5.337
0.108,0.057,0.270,-5.337
0.145,0.058,0.270,-5.337
0.099,0.057,0.268,-5.337
0.012,0.060,0.268,-5.337
0.074,0.058,0.272,-5.337
0.161,0.053,0.277,-5.337
0.208,0.054,0.277,-5.337
0.186,0.055,0.274,-5.337
0.182,0.054,0.274,-5.337
0.242,0.054,0.271,-5.337
0.243,0.054,0.267,-5.337
0.235,0.057,0.268,-5.337
0.236,0.054,0.271,-5.337
0.220,0.053,0.275,-5.337
0.136,0.055,0.275,-5.337
0.092,0.055,0.274,-5.337
0.106,0.055,0.274,-5.337
0.156,0.054,0.274,-5.337
0.126,0.051,0.274,-5.337
0.110,0.049,0.275,-5.337
0.174,0.050,0.276,-5.337
0.190,0.055,0.278,-5.337
0.163,0.055,0.278,-5.337
0.168,0.051,0.273,-5.337
0.172,0.052,0.268,-5.337
0.205,0.055,0.266,-5.337
0.216,0.051,0.268,-5.337
0.250,0.050,0.270,-5.337
0.220,0.050,0.271,-5.337
0.080,0.055,0.269,-5.337
0.016,0.056,0.271,-5.337
0.140,0.054,0.269,-5.337
0.094,0.056,0.270,-5.337
0.078,0.052,0.274,-5.337
0.155,0.050,0.277,-5.337
0.233,0.049,0.272,-5.337
0.172,0.057,0.267,-5.337
0.123,0.057,0.263,-5.337
0.131,0.056,0.264,-5.337
0.122,0.053,0.266,-5.337
0.172,0.049,0.268,-5.337
0.243,0.051,0.271,-5.337
0.228,0.057,0.273,-5.337
0.269,0.054,0.275,-5.337
0.271,0.051,0.280,-5.337
0.242,0.052,0.277,-5.337
0.196,0.055,0.271,-5.337
0.166,0.053,0.271,-5.337
0.190,0.049,0.267,-5.337
0.163,0.049,0.268,-5.337
0.190,0.051,0.267,-5.337
0.171,0.054,0.267,-5.337
0.194,0.050,0.269,-5.337
0.214,0.051,0.268,-5.337
0.210,0.047,0.267,-5.337
0.301,0.041,0.271,-5.337
0.313,0.044,0.275,-5.337
0.295,0.045,0.278,-5.337
0.221,0.046,0.276,-5.337
0.156,0.046,0.273,-5.337
0.169,0.048,0.274,-5.337
0.137,0.050,0.272,-5.337
0.116,0.048,0.270,-5.337
0.114,0.047,0.268,-5.337
0.114,0.045,0.269,-5.337
0.145,0.043,0.271,-5.337
0.180,0.042,0.271,-5.337
0.217,0.041,0.269,-5.337
0.216,0.046,0.268,-5.337
0.140,0.050,0.267,-5.337
0.131,0.044,0.269,-5.337
0.193,0.040,0.270,-5.337
0.206,0.044,0.267,-5.337
0.201,0.046,0.265,-5.337
0.151,0.046,0.267,-5.337
0.199,0.042,0.270,-5.337
0.273,0.045,0.271,-5.337
0.262,0.046,0.265,-5.337
0.190,0.046,0.264,-5.337
0.098,0.047,0.269,-5.337
0.120,0.046,0.271,-5.337
0.152,0.043,0.269,-5.337
0.177,0.044,0.270,-5.337
0.151,0.045,0.275,-5.337
0.206,0.041,0.276,-5.337
0.207,0.042,0.277,-5.337
0.187,0.047,0.273,-5.337
0.216,0.046,0.270,-5.337
0.236,0.048,0.270,-5.337
0.175,0.046,0.270,-5.337
0.171,0.041,0.268,-5.337
0.203,0.043,0.271,-5.337
0.193,0.046,0.270,-5.337
0.107,0.049,0.270,-5.337
0.092,0.047,0.270,-5.337
0.186,0.044,0.270,-5.337
0.244,0.043,0.269,-5.337
0.193,0.048,0.269,-5.337
0.242,0.043,0.269,-5.337
0.291,0.041,0.270,-5.337
0.310,0.040,0.270,-5.337
0.253,0.042,0.269,-5.337
0.200,0.041,0.267,-5.337
0.176,0.041,0.268,-5.337
0.198,0.038,0.268,-5.337
0.278,0.039,0.274,-5.337
0.225,0.045,0.276,-5.337
0.136,0.046,0.274,-5.337
0.113,0.043,0.270,-5.337
0.116,0.045,0.268,-5.337
0.163,0.041,0.269,-5.337
0.199,0.037,0.271,-5.337
0.181,0.037,0.272,-5.337
0.149,0.040,0.268,-5.337
0.196,0.039,0.271,-5.337
0.203,0.039,0.270,-5.337
0.197,0.039,0.271,-5.337
0.207,0.041,0.270,-5.337
0.204,0.042,0.268,-5.337
0.152,0.040,0.264,-5.337
0.137,0.044,0.267,-5.337
0.127,0.044,0.270,-5.337
0.144,0.042,0.273,-5.337
0.130,0.041,0.271,-5.337
0.142,0.043,0.268,-5.337
0.207,0.041,0.271,-5.337
0.269,0.041,0.272,-5.337
0.202,0.039,0.274,-5.337
0.203,0.039,0.274,-5.337
0.269,0.038,0.272,-5.337
0.243,0.039,0.271,-5.337
0.212,0.041,0.270,-5.337
0.199,0.039,0.266,-5.337
0.196,0.040,0.264,-5.337
0.215,0.040,0.265,-5.337
0.264,0.037,0.272,-5.337
0.324,0.036,0.278,-5.337
0.282,0.039,0.278,-5.337
0.219,0.039,0.273,-5.337
0.216,0.040,0.272,-5.337
0.219,0.040,0.271,-5.337
0.230,0.036,0.275,-5.337
0.246,0.041,0.273,-5.337
0.170,0.043,0.271,-5.337
0.122,0.044,0.268,-5.337
0.165,0.044,0.269,-5.337
0.198,0.045,0.270,-5.337
0.212,0.044,0.266,-5.337
0.213,0.041,0.263,-5.337
0.276,0.037,0.263,-5.337
0.296,0.041,0.266,-5.337
0.257,0.042,0.270,-5.337
0.294,0.036,0.273,-5.337
0.281,0.035,0.275,-5.337
0.222,0.037,0.272,-5.337
0.231,0.037,0.271,-5.337
0.272,0.035,0.273,-5.337
0.232,0.040,0.275,-5.337
0.141,0.042,0.273,-5.337
0.187,0.039,0.273,-5.337
0.256,0.037,0.269,-5.337
0.246,0.039,0.266,-5.337
0.195,0.039,0.268,-5.337
0.222,0.038,0.269,-5.337
0.241,0.038,0.270,-5.337
0.203,0.037,0.268,-5.337
0.150,0.038,0.267,-5.337
0.170,0.038,0.269,-5.337
0.195,0.037,0.271,-5.337
0.259,0.032,0.272,-5.337
0.306,0.036,0.272,-5.337
0.263,0.039,0.271,-5.337
0.232,0.037,0.271,-5.337
0.257,0.034,0.271,-5.337
0.271,0.036,0.269,-5.337
0.208,0.041,0.268,-5.337
0.213,0.039,0.271,-5.337
0.201,0.038,0.272,-5.337
0.247,0.038,0.273,-5.337
0.250,0.036,0.272,-5.337
0.267,0.037,0.272,-5.337
0.252,0.042,0.271,-5.337
0.193,0.044,0.268,-5.337
0.177,0.046,0.268,-5.337
0.190,0.045,0.267,-5.337
0.221,0.042,0.267,-5.337
0.180,0.043,0.266,-5.337
0.165,0.041,0.266,-5.337
0.201,0.042,0.269,-5.337
0.228,0.045,0.278,-5.337
0.275,0.042,0.284,-5.337
0.284,0.039,0.282,-5.337
0.278,0.039,0.272,-5.337
0.293,0.038,0.266,-5.337
0.277,0.040,0.266,-5.337
0.267,0.042,0.272,-5.337
0.248,0.041,0.273,-5.337
0.252,0.039,0.272,-5.337
0.177,0.038,0.268,-5.337
0.168,0.036,0.264,-5.337
0.222,0.035,0.265,-5.337
0.277,0.034,0.267,-5.337
0.232,0.040,0.269,-5.337
0.156,0.044,0.273,-5.337
0.183,0.040,0.276,-5.337
0.189,0.038,0.273,-5.337
0.198,0.038,0.269,-5.337
0.223,0.039,0.267,-5.337
0.213,0.040,0.268,-5.337
0.240,0.036,0.271,-5.337
0.224,0.039,0.272,-5.337
0.129,0.043,0.272,-5.337
0.158,0.037,0.267,-5.337
0.179,0.034,0.265,-5.337
0.261,0.029,0.269,-5.337
0.247,0.033,0.272,-5.337
0.241,0.035,0.273,-5.337
0.255,0.034,0.272,-5.337
0.275,0.032,0.273,-5.337
0.265,0.037,0.272,-5.337
0.226,0.038,0.271,-5.337
0.225,0.036,0.273,-5.337
0.170,0.041,0.272,-5.337
0.189,0.043,0.271,-5.337
0.223,0.042,0.270,-5.337
0.254,0.040,0.268,-5.337
0.203,0.039,0.264,-5.337
0.179,0.040,0.264,-5.337
0.164,0.044,0.267,-5.337
0.220,0.042,0.269,-5.337
0.261,0.042,0.268,-5.337
0.222,0.044,0.268,-5.337
0.146,0.040,0.269,-5.337
0.238,0.035,0.270,-5.337
0.278,0.036,0.269,-5.337
0.230,0.039,0.268,-5.337
0.191,0.040,0.267,-5.337
0.135,0.043,0.267,-5.337
0.172,0.039,0.268,-5.337
0.231,0.037,0.272,-5.337
0.278,0.040,0.277,-5.337
0.201,0.039,0.273,-5.337
0.174,0.039,0.273,-5.337
0.178,0.038,0.270,-5.337
0.226,0.034,0.267,-5.337
0.225,0.038,0.270,-5.337
0.157,0.038,0.274,-5.337
0.140,0.040,0.270,-5.337
0.145,0.039,0.272,-5.337
0.167,0.035,0.274,-5.337
0.253,0.034,0.273,-5.337
0.331,0.035,0.268,-5.337
0.256,0.038,0.266,-5.337
0.155,0.037,0.270,-5.337
0.189,0.032,0.272,-5.337
0.285,0.031,0.271,-5.337
0.353,0.035,0.272,-5.337
0.310,0.040,0.274,-5.337
0.245,0.039,0.275,-5.337
0.203,0.039,0.275,-5.337
0.248,0.040,0.272,-5.337
0.297,0.040,0.274,-5.337
0.275,0.044,0.275,-5.337
0.161,0.044,0.272,-5.337
0.147,0.041,0.271,-5.337
0.132,0.043,0.273,-5.337
0.171,0.042,0.273,-5.337
0.206,0.041,0.274,-5.337
0.208,0.039,0.268,-5.337
0.237,0.038,0.264,-5.337
0.236,0.042,0.265,-5.337
0.221,0.046,0.269,-5.337
0.218,0.046,0.272,-5.337
0.228,0.042,0.274,-5.337
0.211,0.044,0.274,-5.337
0.190,0.050,0.275,-5.337
0.208,0.046,0.276,-5.337
0.203,0.042,0.277,-5.337
0.190,0.042,0.275,-5.337
0.259,0.043,0.269,-5.337
0.291,0.046,0.266,-5.337
0.255,0.046,0.267,-5.337
0.275,0.043,0.271,-5.337
0.264,0.042,0.273,-5.337
0.258,0.042,0.270,-5.337
0.203,0.046,0.269,-5.337
0.143,0.048,0.268,-5.337
0.110,0.046,0.267,-5.337
0.112,0.045,0.271,-5.337
0.150,0.047,0.273,-5.337
0.149,0.045,0.276,-5.337
0.206,0.042,0.279,-5.337
0.267,0.044,0.280,-5.337
0.277,0.039,0.275,-5.337
0.238,0.043,0.269,-5.337
0.198,0.041,0.266,-5.337
0.231,0.040,0.269,-5.337
0.264,0.042,0.271,-5.337
0.180,0.045,0.274,-5.337
0.119,0.045,0.274,-5.337
0.137,0.049,0.272,-5.337
0.161,0.049,0.269,-5.337
0.242,0.047,0.272,-5.337
0.271,0.045,0.275,-5.337
0.206,0.045,0.275,-5.337
0.174,0.046,0.276,-5.337
0.174,0.051,0.271,-5.337
0.154,0.049,0.269,-5.337
0.252,0.047,0.271,-5.337
0.235,0.045,0.273,-5.337
0.156,0.046,0.272,-5.337
0.117,0.048,0.270,-5.337
0.136,0.049,0.264,-5.337
0.200,0.052,0.264,-5.337
0.218,0.054,0.266,-5.337
0.228,0.051,0.272,-5.337
0.189,0.049,0.277,-5.337
0.199,0.047,0.274,-5.337
0.254,0.049,0.271,-5.337
0.208,0.050,0.270,-5.337
0.214,0.046,0.267,-5.337
0.206,0.048,0.269,-5.337
0.183,0.050,0.271,-5.337
0.174,0.052,0.271,-5.337
0.188,0.053,0.271,-5.337
0.236,0.050,0.271,-5.337
0.205,0.047,0.274,-5.337
0.191,0.049,0.274,-5.337
0.164,0.052,0.271,-5.337
0.156,0.052,0.271,-5.337
0.171,0.053,0.274,-5.337
0.186,0.050,0.274,-5.337
0.202,0.050,0.273,-5.337
0.214,0.048,0.271,-5.337
0.164,0.049,0.272,-5.337
0.192,0.048,0.268,-5.337
0.212,0.050,0.267,-5.337
0.143,0.049,0.266,-5.337
0.129,0.050,0.267,-5.337
0.167,0.049,0.269,-5.337
0.186,0.054,0.271,-5.337
0.124,0.054,0.273,-5.337
0.180,0.054,0.274,-5.337
0.211,0.055,0.274,-5.337
0.215,0.058,0.272,-5.337
0.153,0.060,0.269,-5.337
0.204,0.054,0.273,-5.337
0.216,0.056,0.271,-5.337
0.158,0.057,0.265,-5.337
0.166,0.053,0.264,-5.337
0.195,0.050,0.266,-5.337
0.190,0.054,0.268,-5.337
0.186,0.055,0.268,-5.337
0.182,0.056,0.272,-5.337
0.157,0.054,0.270,-5.337
0.211,0.052,0.269,-5.337
0.249,0.051,0.271,-5.337
0.232,0.055,0.274,-5.337
0.239,0.055,0.272,-5.337
0.213,0.058,0.268,-5.337
0.204,0.055,0.267,-5.337
0.191,0.057,0.266,-5.337
0.153,0.058,0.265,-5.337
0.093,0.062,0.269,-5.337
0.110,0.060,0.270,-5.337
0.199,0.058,0.269,-5.337
0.182,0.060,0.268,-5.337
0.082,0.061,0.271,-5.337
0.084,0.057,0.275,-5.337
0.150,0.058,0.275,-5.337
0.137,0.061,0.273,-5.337
0.199,0.060,0.268,-5.337
0.303,0.060,0.267,-5.337
0.252,0.062,0.267,-5.337
0.198,0.065,0.268,-5.337
0.134,0.064,0.271,-5.337
0.141,0.059,0.270,-5.337
0.153,0.060,0.266,-5.337
0.164,0.062,0.264,-5.337
0.136,0.062,0.265,-5.337
0.139,0.058,0.269,-5.337
0.173,0.055,0.273,-5.337
0.176,0.056,0.269,-5.337
0.149,0.060,0.267,-5.337
0.126,0.059,0.269,-5.337
0.216,0.056,0.268,-5.337
0.211,0.060,0.265,-5.337
0.116,0.064,0.266,-5.337
0.085,0.061,0.269,-5.337
0.078,0.063,0.273,-5.337
0.096,0.066,0.270,-5.337
0.156,0.063,0.270,-5.337
0.205,0.059,0.272,-5.337
0.210,0.061,0.274,-5.337
0.223,0.060,0.272,-5.337
0.236,0.060,0.269,-5.337
0.258,0.063,0.267,-5.337
0.264,0.063,0.268,-5.337
0.172,0.065,0.269,-5.337
0.076,0.067,0.268,-5.337
0.150,0.061,0.268,-5.337
0.200,0.062,0.267,-5.337
0.249,0.063,0.268,-5.337
0.219,0.063,0.270,-5.337
0.191,0.060,0.274,-5.337
0.156,0.059,0.274,-5.337
0.138,0.059,0.270,-5.337
0.157,0.062,0.268,-5.337
0.159,0.061,0.273,-5.337
0.184,0.060,0.276,-5.337
0.139,0.061,0.273,-5.337
0.089,0.063,0.270,-5.337
0.110,0.064,0.268,-5.337
0.167,0.064,0.269,-5.337
0.152,0.066,0.271,-5.337
0.159,0.065,0.274,-5.337
0.167,0.064,0.274,-5.337
0.207,0.065,0.271,-5.337
0.191,0.066,0.274,-5.337
0.178,0.067,0.274,-5.337
0.132,0.069,0.272,-5.337
0.120,0.068,0.270,-5.337
0.100,0.071,0.267,-5.337
0.088,0.070,0.264,-5.337
0.133,0.068,0.272,-5.337
0.174,0.063,0.277,-5.337
0.162,0.059,0.275,-5.337
0.111,0.061,0.269,-5.337
0.167,0.065,0.267,-5.337
0.202,0.069,0.267,-5.337
0.159,0.067,0.266,-5.337
0.160,0.066,0.265,-5.337
0.174,0.063,0.264,-5.337
0.152,0.062,0.267,-5.337
0.126,0.062,0.269,-5.337
0.168,0.064,0.272,-5.337
0.194,0.065,0.273,-5.337
0.199,0.063,0.273,-5.337
0.144,0.066,0.270,-5.337
0.122,0.069,0.271,-5.337
0.127,0.068,0.270,-5.337
0.161,0.066,0.275,-5.337
0.199,0.067,0.276,-5.337
0.248,0.069,0.274,-5.337
0.185,0.070,0.274,-5.337
0.121,0.069,0.276,-5.337
0.158,0.067,0.273,-5.337
0.153,0.069,0.268,-5.337
0.089,0.069,0.268,-5.337
0.101,0.065,0.271,-5.337
0.088,0.068,0.269,-5.337
0.159,0.069,0.267,-5.337
0.208,0.069,0.268,-5.337
0.164,0.068,0.272,-5.337
0.135,0.066,0.270,-5.337
0.151,0.066,0.269,-5.337
0.154,0.068,0.274,-5.337
0.144,0.068,0.273,-5.337
0.128,0.067,0.270,-5.337
0.110,0.065,0.267,-5.337
0.136,0.065,0.268,-5.337
0.154,0.063,0.269,-5.337
0.123,0.064,0.269,-5.337
0.112,0.067,0.270,-5.337
0.069,0.069,0.270,-5.337
0.136,0.068,0.267,-5.337
0.196,0.066,0.268,-5.337
0.179,0.065,0.268,-5.337
0.150,0.066,0.267,-5.337
0.157,0.065,0.268,-5.337
0.210,0.063,0.270,-5.337
0.213,0.064,0.270,-5.337
0.231,0.065,0.270,-5.337
0.243,0.064,0.269,-5.337
0.186,0.060,0.270,-5.337
0.145,0.057,0.272,-5.337
0.137,0.057,0.274,-5.337
0.174,0.055,0.277,-5.337
0.202,0.056,0.273,-5.337
0.153,0.060,0.271,-5.337
0.082,0.062,0.272,-5.337
0.156,0.059,0.270,-5.337
0.239,0.058,0.268,-5.337
0.238,0.059,0.270,-5.337
0.133,0.060,0.270,-5.337
0.109,0.063,0.269,-5.337
0.166,0.068,0.268,-5.337
0.188,0.069,0.266,-5.337
0.167,0.066,0.268,-5.337
0.149,0.066,0.273,-5.337
0.152,0.064,0.272,-5.337
0.121,0.066,0.272,-5.337
0.123,0.063,0.270,-5.337
0.117,0.064,0.272,-5.337
0.113,0.065,0.270,-5.337
0.120,0.064,0.267,-5.337
0.168,0.062,0.268,-5.337
0.173,0.065,0.270,-5.337
0.201,0.063,0.272,-5.337
0.206,0.063,0.268,-5.337
0.210,0.063,0.263,-5.337
0.204,0.062,0.262,-5.337
0.141,0.060,0.267,-5.337
0.149,0.057,0.270,-5.337
0.230,0.058,0.271,-5.337
0.278,0.060,0.270,-5.337
0.196,0.063,0.271,-5.337
0.105,0.063,0.273,-5.337
0.109,0.063,0.275,-5.337
0.094,0.058,0.273,-5.337
0.094,0.057,0.270,-5.337
0.216,0.052,0.271,-5.337
0.251,0.053,0.270,-5.337
0.221,0.051,0.270,-5.337
0.192,0.054,0.268,-5.337
0.152,0.059,0.267,-5.337
0.093,0.063,0.270,-5.337
0.086,0.062,0.274,-5.337
0.176,0.056,0.273,-5.337
0.259,0.054,0.273,-5.337
0.296,0.053,0.274,-5.337
0.250,0.055,0.276,-5.337
0.171,0.054,0.274,-5.337
0.132,0.055,0.271,-5.337
0.154,0.054,0.271,-5.337
0.132,0.054,0.272,-5.337
0.083,0.057,0.272,-5.337
0.119,0.054,0.273,-5.337
0.208,0.054,0.273,-5.337
0.253,0.053,0.271,-5.337
0.246,0.052,0.272,-5.337
0.181,0.051,0.276,-5.337
0.128,0.049,0.277,-5.337
0.103,0.054,0.273,-5.337
0.126,0.054,0.273,-5.337
0.141,0.053,0.274,-5.337
0.137,0.055,0.276,-5.337
0.143,0.055,0.275,-5.337
0.141,0.057,0.269,-5.337
0.212,0.054,0.267,-5.337
0.231,0.053,0.270,-5.337
0.177,0.052,0.272,-5.337
0.152,0.053,0.274,-5.337
0.231,0.050,0.273,-5.337
0.216,0.051,0.272,-5.337
0.224,0.048,0.268,-5.337
0.242,0.050,0.267,-5.337
0.212,0.055,0.266,-5.337
0.150,0.057,0.269,-5.337
0.139,0.053,0.270,-5.337
0.189,0.053,0.276,-5.337
0.150,0.055,0.281,-5.337
0.124,0.056,0.280,-5.337
0.143,0.054,0.273,-5.337
0.129,0.056,0.269,-5.337
0.091,0.056,0.272,-5.337
0.091,0.056,0.275,-5.337
0.171,0.055,0.274,-5.337
0.251,0.053,0.273,-5.337
0.211,0.055,0.271,-5.337
0.158,0.058,0.271,-5.337
0.152,0.058,0.273,-5.337
0.216,0.054,0.275,-5.337
0.234,0.053,0.276,-5.337
0.233,0.049,0.272,-5.337
0.243,0.051,0.272,-5.337
0.244,0.053,0.274,-5.337
0.220,0.051,0.273,-5.337
0.238,0.046,0.276,-5.337
0.227,0.049,0.278,-5.337
0.226,0.050,0.274,-5.337
0.249,0.053,0.271,-5.337
0.195,0.053,0.271,-5.337
0.076,0.055,0.273,-5.337
0.078,0.054,0.272,-5.337
0.199,0.047,0.270,-5.337
0.246,0.048,0.271,-5.337
0.178,0.050,0.275,-5.337
0.171,0.046,0.274,-5.337
0.169,0.045,0.274,-5.337
0.162,0.046,0.274,-5.337
0.192,0.046,0.276,-5.337
0.245,0.044,0.275,-5.337
0.215,0.047,0.271,-5.337
0.176,0.044,0.270,-5.337
0.170,0.048,0.270,-5.337
0.174,0.046,0.272,-5.337
0.136,0.046,0.272,-5.337
0.103,0.048,0.272,-5.337
0.178,0.048,0.272,-5.337
0.241,0.052,0.272,-5.337
0.234,0.051,0.268,-5.337
0.213,0.052,0.266,-5.337
0.159,0.053,0.270,-5.337
0.117,0.055,0.270,-5.337
0.111,0.054,0.270,-5.337
0.151,0.054,0.272,-5.337
0.220,0.055,0.275,-5.337
0.282,0.055,0.275,-5.337
0.259,0.054,0.270,-5.337
0.157,0.051,0.270,-5.337
0.143,0.053,0.269,-5.337
0.184,0.054,0.267,-5.337
0.211,0.053,0.265,-5.337
0.267,0.050,0.266,-5.337
0.263,0.049,0.269,-5.337
0.205,0.050,0.269,-5.337
0.196,0.052,0.269,-5.337
0.241,0.050,0.271,-5.337
0.236,0.046,0.275,-5.337
0.188,0.048,0.274,-5.337
0.134,0.053,0.269,-5.337
0.121,0.051,0.265,-5.337
0.206,0.046,0.268,-5.337
0.220,0.045,0.272,-5.337
0.217,0.050,0.272,-5.337
0.231,0.048,0.274,-5.337
0.169,0.050,0.274,-5.337
0.115,0.049,0.271,-5.337
0.164,0.050,0.270,-5.337
0.175,0.051,0.274,-5.337
0.191,0.051,0.275,-5.337
0.198,0.049,0.274,-5.337
0.201,0.050,0.272,-5.337
0.248,0.048,0.271,-5.337
0.317,0.046,0.274,-5.337
0.299,0.046,0.277,-5.337
0.217,0.046,0.273,-5.337
0.191,0.044,0.268,-5.337
0.190,0.046,0.269,-5.337
0.174,0.047,0.271,-5.337
0.183,0.045,0.267,-5.337
0.179,0.047,0.267,-5.337
0.183,0.042,0.271,-5.337
0.184,0.042,0.271,-5.337
0.193,0.040,0.271,-5.337
0.204,0.042,0.270,-5.337
0.154,0.046,0.270,-5.337
0.101,0.051,0.270,-5.337
0.092,0.052,0.271,-5.337
0.093,0.049,0.270,-5.337
0.139,0.047,0.268,-5.337
0.171,0.049,0.267,-5.337
0.165,0.049,0.269,-5.337
0.185,0.046,0.268,-5.337
0.255,0.043,0.267,-5.337
0.240,0.042,0.267,-5.337
0.191,0.044,0.271,-5.337
0.201,0.044,0.270,-5.337
0.217,0.043,0.271,-5.337
0.164,0.046,0.272,-5.337
0.172,0.043,0.280,-5.337
0.166,0.040,0.281,-5.337
0.196,0.043,0.275,-5.337
0.244,0.044,0.269,-5.337
0.284,0.046,0.267,-5.337
0.275,0.045,0.270,-5.337
0.241,0.043,0.271,-5.337
0.244,0.040,0.267,-5.337
0.270,0.041,0.264,-5.337
0.219,0.041,0.263,-5.337
0.213,0.039,0.268,-5.337
0.218,0.040,0.271,-5.337
0.222,0.046,0.272,-5.337
0.147,0.047,0.271,-5.337
0.147,0.045,0.269,-5.337
0.216,0.044,0.268,-5.337
0.194,0.046,0.268,-5.337
0.177,0.047,0.271,-5.337
0.229,0.046,0.274,-5.337
0.270,0.047,0.277,-5.337
0.251,0.049,0.278,-5.337
0.153,0.050,0.275,-5.337
0.194,0.051,0.268,-5.337
0.214,0.051,0.265,-5.337
0.171,0.047,0.266,-5.337
0.204,0.046,0.271,-5.337
0.262,0.043,0.272,-5.337
0.242,0.044,0.272,-5.337
0.237,0.044,0.273,-5.337
0.209,0.043,0.273,-5.337
0.270,0.041,0.267,-5.337
0.353,0.039,0.267,-5.337
0.290,0.041,0.271,-5.337
0.253,0.041,0.270,-5.337
0.197,0.039,0.266,-5.337
0.243,0.037,0.265,-5.337
0.237,0.037,0.269,-5.337
0.154,0.041,0.276,-5.337
0.168,0.044,0.275,-5.337
0.192,0.042,0.273,-5.337
0.174,0.042,0.273,-5.337
0.226,0.042,0.271,-5.337
0.247,0.044,0.269,-5.337
0.211,0.047,0.270,-5.337
0.184,0.043,0.271,-5.337
0.203,0.044,0.270,-5.337
0.232,0.046,0.270,-5.337
0.220,0.043,0.268,-5.337
0.172,0.044,0.266,-5.337
0.129,0.049,0.266,-5.337
0.162,0.050,0.271,-5.337
0.262,0.046,0.276,-5.337
0.254,0.045,0.276,-5.337
0.275,0.042,0.269,-5.337
0.304,0.038,0.264,-5.337
0.300,0.035,0.266,-5.337
0.288,0.039,0.270,-5.337
0.212,0.041,0.268,-5.337
0.171,0.037,0.268,-5.337
0.246,0.037,0.271,-5.337
0.354,0.038,0.273,-5.337
0.319,0.040,0.275,-5.337
0.249,0.037,0.277,-5.337
0.225,0.034,0.278,-5.337
0.277,0.033,0.273,-5.337
0.302,0.035,0.271,-5.337
0.272,0.037,0.269,-5.337
0.230,0.038,0.271,-5.337
0.202,0.039,0.269,-5.337
0.220,0.040,0.268,-5.337
0.303,0.038,0.268,-5.337
0.294,0.044,0.269,-5.337
0.276,0.041,0.268,-5.337
0.310,0.043,0.267,-5.337
0.212,0.048,0.268,-5.337
0.114,0.046,0.270,-5.337
0.194,0.040,0.269,-5.337
0.209,0.035,0.270,-5.337
0.226,0.038,0.272,-5.337
0.272,0.038,0.271,-5.337
0.307,0.037,0.271,-5.337
0.282,0.040,0.273,-5.337
0.243,0.040,0.274,-5.337
0.161,0.043,0.276,-5.337
0.135,0.042,0.277,-5.337
0.169,0.041,0.276,-5.337
0.111,0.042,0.272,-5.337
0.075,0.043,0.267,-5.337
0.156,0.042,0.265,-5.337
0.179,0.042,0.265,-5.337
0.164,0.041,0.267,-5.337
0.185,0.040,0.270,-5.337
0.225,0.040,0.269,-5.337
0.209,0.039,0.268,-5.337
0.132,0.041,0.268,-5.337
0.152,0.039,0.267,-5.337
0.235,0.039,0.267,-5.337
0.275,0.044,0.269,-5.337
0.183,0.046,0.270,-5.337
0.176,0.041,0.270,-5.337
0.200,0.041,0.271,-5.337
0.274,0.041,0.269,-5.337
0.249,0.040,0.265,-5.337
0.249,0.041,0.265,-5.337
0.258,0.042,0.266,-5.337
0.216,0.044,0.271,-5.337
0.195,0.041,0.273,-5.337
0.254,0.039,0.274,-5.337
0.320,0.039,0.273,-5.337
0.349,0.038,0.273,-5.337
0.335,0.036,0.272,-5.337
0.263,0.040,0.272,-5.337
0.255,0.039,0.269,-5.337
0.284,0.039,0.265,-5.337
0.287,0.040,0.265,-5.337
0.211,0.043,0.266,-5.337
0.166,0.044,0.269,-5.337
0.171,0.043,0.271,-5.337
0.256,0.039,0.276,-5.337
0.228,0.042,0.278,-5.337
0.166,0.044,0.276,-5.337
0.188,0.043,0.271,-5.337
0.253,0.037,0.267,-5.337
0.262,0.039,0.265,-5.337
0.191,0.046,0.267,-5.337
0.164,0.046,0.270,-5.337
0.226,0.044,0.273,-5.337
0.253,0.043,0.270,-5.337
0.175,0.045,0.269,-5.337
0.179,0.043,0.271,-5.337
0.180,0.044,0.273,-5.337
0.168,0.046,0.273,-5.337
0.183,0.045,0.272,-5.337
0.239,0.043,0.269,-5.337
0.252,0.040,0.269,-5.337
0.266,0.042,0.272,-5.337
0.266,0.044,0.271,-5.337
0.222,0.042,0.269,-5.337
0.171,0.046,0.269,-5.337
0.169,0.046,0.270,-5.337
0.209,0.045,0.272,-5.337
0.231,0.042,0.270,-5.337
0.236,0.047,0.267,-5.337
0.197,0.051,0.272,-5.337
0.243,0.046,0.275,-5.337
0.241,0.042,0.274,-5.337
0.231,0.046,0.272,-5.337
0.225,0.050,0.273,-5.337
0.180,0.050,0.273,-5.337
0.183,0.049,0.271,-5.337
0.187,0.047,0.270,-5.337
0.180,0.049,0.272,-5.337
0.166,0.054,0.271,-5.337
0.156,0.052,0.268,-5.337
0.203,0.049,0.268,-5.337
0.185,0.052,0.274,-5.337
0.181,0.047,0.273,-5.337
0.276,0.046,0.269,-5.337
0.294,0.044,0.268,-5.337
0.200,0.048,0.272,-5.337
0.165,0.047,0.277,-5.337
0.248,0.047,0.280,-5.337
0.272,0.049,0.278,-5.337
0.259,0.048,0.273,-5.337
0.245,0.049,0.270,-5.337
0.239,0.050,0.267,-5.337
0.213,0.053,0.268,-5.337
0.151,0.054,0.268,-5.337
0.188,0.051,0.272,-5.337
0.210,0.051,0.276,-5.337
0.280,0.053,0.277,-5.337
0.261,0.054,0.277,-5.337
0.301,0.052,0.277,-5.337
0.266,0.054,0.272,-5.337
0.200,0.054,0.270,-5.337
0.214,0.052,0.272,-5.337
0.199,0.056,0.273,-5.337
0.145,0.058,0.270,-5.337
0.226,0.057,0.267,-5.337
0.246,0.054,0.269,-5.337
0.248,0.054,0.273,-5.337
0.273,0.055,0.276,-5.337
0.246,0.058,0.274,-5.337
0.237,0.056,0.270,-5.337
0.307,0.050,0.267,-5.337
0.280,0.050,0.271,-5.337
0.247,0.052,0.274,-5.337
0.283,0.048,0.271,-5.337
0.317,0.045,0.266,-5.337
0.264,0.049,0.266,-5.337
0.162,0.056,0.265,-5.337
0.175,0.057,0.269,-5.337
0.195,0.055,0.271,-5.337
0.169,0.056,0.276,-5.337
0.140,0.058,0.276,-5.337
0.177,0.058,0.275,-5.337
0.216,0.057,0.274,-5.337
0.221,0.055,0.276,-5.337
0.174,0.054,0.273,-5.337
0.170,0.056,0.270,-5.337
0.129,0.055,0.271,-5.337
0.163,0.057,0.272,-5.337
0.132,0.056,0.273,-5.337
0.078,0.060,0.269,-5.337
0.168,0.061,0.266,-5.337
0.217,0.062,0.263,-5.337
0.222,0.062,0.265,-5.337
0.208,0.058,0.269,-5.337
0.190,0.057,0.273,-5.337
0.153,0.056,0.274,-5.337
0.188,0.054,0.275,-5.337
0.271,0.053,0.276,-5.337
0.217,0.058,0.275,-5.337
0.125,0.060,0.269,-5.337
0.178,0.061,0.269,-5.337
0.235,0.056,0.268,-5.337
0.209,0.055,0.270,-5.337
0.161,0.055,0.269,-5.337
0.135,0.062,0.271,-5.337
0.191,0.062,0.273,-5.337
0.183,0.061,0.277,-5.337
0.176,0.060,0.275,-5.337
0.190,0.060,0.272,-5.337
0.163,0.059,0.273,-5.337
0.137,0.058,0.270,-5.337
0.181,0.054,0.263,-5.337
0.225,0.056,0.262,-5.337
0.181,0.062,0.267,-5.337
0.199,0.063,0.271,-5.337
0.211,0.062,0.274,-5.337
0.174,0.061,0.276,-5.337
0.120,0.062,0.274,-5.337
0.149,0.062,0.270,-5.337
0.178,0.060,0.274,-5.337
0.151,0.061,0.273,-5.337
0.197,0.063,0.273,-5.337
0.216,0.061,0.273,-5.337
0.188,0.061,0.271,-5.337
0.100,0.061,0.269,-5.337
0.151,0.057,0.265,-5.337
0.187,0.060,0.266,-5.337
0.160,0.067,0.270,-5.337
0.184,0.068,0.274,-5.337
0.251,0.062,0.273,-5.337
0.221,0.063,0.270,-5.337
0.181,0.065,0.270,-5.337
0.223,0.063,0.271,-5.337
0.253,0.062,0.269,-5.337
0.167,0.067,0.266,-5.337
0.109,0.068,0.264,-5.337
0.135,0.068,0.266,-5.337
0.188,0.064,0.270,-5.337
0.256,0.063,0.277,-5.337
0.223,0.070,0.277,-5.337
0.141,0.069,0.277,-5.337
0.156,0.070,0.269,-5.337
0.178,0.067,0.264,-5.337
0.217,0.063,0.262,-5.337
0.235,0.061,0.268,-5.337
0.199,0.062,0.273,-5.337
0.155,0.064,0.277,-5.337
0.083,0.064,0.277,-5.337
0.137,0.064,0.273,-5.337
0.188,0.063,0.270,-5.337
0.196,0.065,0.271,-5.337
0.167,0.064,0.271,-5.337
0.175,0.059,0.270,-5.337
0.203,0.063,0.269,-5.337
0.180,0.064,0.269,-5.337
0.185,0.061,0.270,-5.337
0.208,0.058,0.269,-5.337
0.187,0.057,0.267,-5.337
0.171,0.058,0.269,-5.337
0.136,0.060,0.276,-5.337
0.153,0.061,0.273,-5.337
0.139,0.060,0.271,-5.337
0.158,0.061,0.267,-5.337
0.114,0.067,0.267,-5.337
0.079,0.065,0.266,-5.337
0.134,0.060,0.270,-5.337
0.174,0.058,0.272,-5.337
0.122,0.061,0.275,-5.337
0.106,0.065,0.274,-5.337
0.168,0.067,0.273,-5.337
0.219,0.062,0.273,-5.337
0.255,0.059,0.274,-5.337
0.216,0.061,0.274,-5.337
0.215,0.062,0.272,-5.337
0.297,0.058,0.268,-5.337
0.363,0.058,0.266,-5.337
0.224,0.063,0.267,-5.337
0.116,0.064,0.271,-5.337
0.157,0.060,0.273,-5.337
0.161,0.063,0.271,-5.337
0.144,0.067,0.270,-5.337
0.119,0.067,0.270,-5.337
0.112,0.066,0.274,-5.337
0.074,0.068,0.275,-5.337
0.115,0.068,0.271,-5.337
0.196,0.062,0.268,-5.337
0.240,0.063,0.270,-5.337
0.238,0.064,0.270,-5.337
0.219,0.066,0.275,-5.337
0.162,0.066,0.276,-5.337
0.105,0.071,0.275,-5.337
0.109,0.069,0.272,-5.337
0.138,0.066,0.270,-5.337
0.119,0.067,0.268,-5.337
0.165,0.067,0.266,-5.337
0.184,0.065,0.269,-5.337
0.182,0.066,0.273,-5.337
0.164,0.064,0.273,-5.337
0.154,0.064,0.272,-5.337
0.146,0.065,0.272,-5.337
0.162,0.060,0.267,-5.337
0.159,0.062,0.267,-5.337
0.161,0.066,0.269,-5.337
0.159,0.066,0.271,-5.337
0.151,0.064,0.269,-5.337
0.105,0.071,0.272,-5.337
0.027,0.075,0.276,-5.337
0.090,0.073,0.277,-5.337
0.181,0.069,0.273,-5.337
0.133,0.069,0.270,-5.337
0.157,0.066,0.268,-5.337
0.238,0.066,0.267,-5.337
0.200,0.066,0.270,-5.337
0.128,0.071,0.274,-5.337
0.112,0.068,0.273,-5.337
0.155,0.067,0.272,-5.337
0.172,0.064,0.268,-5.337
0.166,0.067,0.264,-5.337
0.162,0.067,0.265,-5.337
0.146,0.069,0.269,-5.337
0.110,0.070,0.273,-5.337
0.123,0.067,0.274,-5.337
0.168,0.065,0.272,-5.337
0.147,0.068,0.271,-5.337
0.136,0.066,0.270,-5.337
0.145,0.066,0.269,-5.337
0.149,0.066,0.274,-5.337
0.142,0.068,0.272,-5.337
0.140,0.068,0.273,-5.337
0.152,0.068,0.272,-5.337
0.157,0.068,0.269,-5.337
0.166,0.067,0.265,-5.337
0.174,0.067,0.266,-5.337
0.168,0.065,0.266,-5.337
0.138,0.064,0.266,-5.337
0.141,0.066,0.269,-5.337
0.171,0.067,0.273,-5.337
0.164,0.065,0.277,-5.337
0.171,0.063,0.276,-5.337
0.134,0.066,0.272,-5.337
0.129,0.070,0.270,-5.337
0.185,0.069,0.269,-5.337
0.194,0.069,0.266,-5.337
0.194,0.068,0.268,-5.337
0.208,0.068,0.269,-5.337
0.200,0.068,0.270,-5.337
0.217,0.069,0.268,-5.337
0.239,0.070,0.270,-5.337
0.228,0.069,0.269,-5.337
0.115,0.068,0.266,-5.337
0.040,0.068,0.265,-5.337
0.082,0.067,0.268,-5.337
0.143,0.064,0.271,-5.337
0.162,0.067,0.272,-5.337
0.182,0.064,0.270,-5.337
0.188,0.061,0.270,-5.337
0.125,0.063,0.272,-5.337
0.099,0.066,0.271,-5.337
0.105,0.065,0.270,-5.337
0.153,0.062,0.269,-5.337
0.146,0.063,0.270,-5.337
0.141,0.063,0.270,-5.337
0.150,0.059,0.269,-5.337
0.193,0.056,0.269,-5.337
0.206,0.058,0.273,-5.337
0.231,0.058,0.273,-5.337
0.226,0.060,0.273,-5.337
0.174,0.060,0.272,-5.337
0.201,0.056,0.268,-5.337
0.237,0.056,0.264,-5.337
0.224,0.057,0.265,-5.337
0.191,0.057,0.267,-5.337
0.164,0.055,0.269,-5.337
0.205,0.053,0.269,-5.337
0.221,0.054,0.268,-5.337
0.217,0.054,0.270,-5.337
0.240,0.055,0.271,-5.337
0.294,0.054,0.273,-5.337
0.344,0.054,0.275,-5.337
0.213,0.058,0.275,-5.337
0.070,0.060,0.272,-5.337
0.108,0.060,0.268,-5.337
0.198,0.058,0.265,-5.337
0.137,0.059,0.266,-5.337
0.100,0.057,0.267,-5.337
0.160,0.056,0.272,-5.337
0.205,0.056,0.274,-5.337
0.167,0.052,0.274,-5.337
0.133,0.054,0.275,-5.337
0.143,0.061,0.277,-5.337
0.121,0.060,0.276,-5.337
0.189,0.055,0.271,-5.337
0.234,0.054,0.271,-5.337
0.222,0.054,0.276,-5.337
0.227,0.054,0.279,-5.337
0.220,0.053,0.280,-5.337
0.216,0.052,0.279,-5.337
0.234,0.055,0.271,-5.337
0.220,0.055,0.266,-5.337
0.254,0.053,0.264,-5.337
0.280,0.054,0.266,-5.337
0.268,0.055,0.271,-5.337
0.285,0.055,0.273,-5.337
0.277,0.053,0.272,-5.337
0.202,0.053,0.270,-5.337
0.168,0.052,0.272,-5.337
0.213,0.052,0.274,-5.337
0.217,0.058,0.272,-5.337
0.169,0.057,0.269,-5.337
0.160,0.052,0.270,-5.337
0.148,0.055,0.273,-5.337
0.140,0.056,0.274,-5.337
0.174,0.055,0.273,-5.337
0.135,0.056,0.271,-5.337
0.145,0.056,0.273,-5.337
0.211,0.056,0.273,-5.337
0.237,0.053,0.275,-5.337
0.196,0.050,0.275,-5.337
0.158,0.052,0.274,-5.337
0.145,0.055,0.275,-5.337
0.172,0.056,0.276,-5.337
0.183,0.056,0.273,-5.337
0.230,0.052,0.272,-5.337
0.216,0.052,0.271,-5.337
0.189,0.053,0.271,-5.337
0.142,0.052,0.272,-5.337
0.148,0.050,0.273,-5.337
0.188,0.050,0.274,-5.337
0.167,0.049,0.274,-5.337
0.148,0.048,0.275,-5.337
0.191,0.049,0.278,-5.337
0.221,0.047,0.279,-5.337
0.145,0.049,0.275,-5.337
0.094,0.052,0.270,-5.337
0.166,0.051,0.268,-5.337
0.217,0.049,0.269,-5.337
0.188,0.043,0.271,-5.337
0.225,0.041,0.272,-5.337
0.214,0.043,0.274,-5.337
0.186,0.045,0.273,-5.337
0.173,0.042,0.271,-5.337
0.165,0.041,0.271,-5.337
0.151,0.044,0.272,-5.337
0.113,0.046,0.272,-5.337
0.079,0.050,0.271,-5.337
0.133,0.049,0.274,-5.337
0.215,0.046,0.276,-5.337
0.246,0.044,0.277,-5.337
0.253,0.044,0.273,-5.337
0.157,0.047,0.270,-5.337
0.158,0.045,0.269,-5.337
0.226,0.044,0.270,-5.337
0.195,0.045,0.273,-5.337
0.180,0.044,0.275,-5.337
0.244,0.044,0.276,-5.337
0.276,0.045,0.275,-5.337
0.338,0.042,0.276,-5.337
0.328,0.044,0.274,-5.337
0.265,0.048,0.272,-5.337
0.206,0.048,0.267,-5.337
0.203,0.042,0.271,-5.337
0.233,0.038,0.273,-5.337
0.176,0.042,0.272,-5.337
0.093,0.043,0.272,-5.337
0.186,0.039,0.271,-5.337
0.233,0.039,0.269,-5.337
0.175,0.041,0.271,-5.337
0.215,0.040,0.272,-5.337
0.260,0.039,0.273,-5.337
0.247,0.045,0.270,-5.337
0.200,0.045,0.267,-5.337
0.129,0.045,0.268,-5.337
0.094,0.045,0.269,-5.337
0.169,0.043,0.271,-5.337
0.189,0.042,0.269,-5.337
0.167,0.041,0.270,-5.337
0.191,0.040,0.273,-5.337
0.217,0.043,0.274,-5.337
0.184,0.044,0.273,-5.337
0.189,0.042,0.275,-5.337
0.234,0.040,0.273,-5.337
0.238,0.040,0.271,-5.337
0.205,0.038,0.269,-5.337
0.201,0.044,0.267,-5.337
0.166,0.044,0.267,-5.337
0.189,0.043,0.271,-5.337
0.280,0.038,0.273,-5.337
0.320,0.035,0.266,-5.337
0.234,0.042,0.263,-5.337
0.168,0.046,0.270,-5.337
0.203,0.046,0.276,-5.337
0.178,0.047,0.277,-5.337
0.142,0.046,0.277,-5.337
0.102,0.047,0.273,-5.337
0.199,0.042,0.269,-5.337
0.234,0.042,0.266,-5.337
0.188,0.043,0.270,-5.337
0.207,0.043,0.271,-5.337
0.157,0.042,0.269,-5.337
0.190,0.038,0.266,-5.337
0.217,0.039,0.268,-5.337
0.199,0.037,0.270,-5.337
0.195,0.038,0.268,-5.337
0.215,0.040,0.267,-5.337
0.220,0.044,0.266,-5.337
0.209,0.043,0.267,-5.337
0.216,0.039,0.269,-5.337
0.219,0.038,0.270,-5.337
0.213,0.039,0.269,-5.337
0.213,0.038,0.270,-5.337
0.279,0.033,0.270,-5.337
0.323,0.034,0.274,-5.337
0.301,0.034,0.275,-5.337
0.271,0.039,0.271,-5.337
0.217,0.041,0.268,-5.337
0.209,0.040,0.268,-5.337
0.248,0.042,0.270,-5.337
0.249,0.042,0.271,-5.337
0.223,0.039,0.273,-5.337
0.190,0.042,0.273,-5.337
0.185,0.042,0.269,-5.337
0.171,0.042,0.269,-5.337
0.172,0.038,0.270,-5.337
0.241,0.037,0.271,-5.337
0.274,0.039,0.271,-5.337
0.249,0.042,0.269,-5.337
0.211,0.040,0.267,-5.337
0.250,0.042,0.266,-5.337
0.289,0.042,0.269,-5.337
0.265,0.041,0.273,-5.337
0.272,0.040,0.274,-5.337
0.296,0.041,0.272,-5.337
0.256,0.039,0.270,-5.337
0.184,0.041,0.275,-5.337
0.178,0.039,0.278,-5.337
0.225,0.039,0.278,-5.337
0.238,0.040,0.274,-5.337
0.162,0.041,0.269,-5.337
0.136,0.038,0.267,-5.337
0.203,0.036,0.265,-5.337
0.209,0.041,0.265,-5.337
0.202,0.040,0.265,-5.337
0.229,0.038,0.267,-5.337
0.196,0.039,0.269,-5.337
0.200,0.037,0.274,-5.337
0.222,0.037,0.276,-5.337
0.214,0.041,0.277,-5.337
0.190,0.040,0.276,-5.337
0.192,0.033,0.274,-5.337
0.242,0.029,0.271,-5.337
0.197,0.035,0.268,-5.337
0.205,0.038,0.267,-5.337
0.284,0.035,0.269,-5.337
0.275,0.032,0.272,-5.337
0.208,0.036,0.273,-5.337
0.220,0.033,0.268,-5.337
0.291,0.035,0.265,-5.337
0.293,0.037,0.269,-5.337
0.312,0.038,0.268,-5.337
0.318,0.040,0.267,-5.337
0.269,0.041,0.269,-5.337
0.192,0.043,0.274,-5.337
0.153,0.044,0.276,-5.337
0.191,0.042,0.275,-5.337
0.207,0.043,0.273,-5.337
0.207,0.044,0.271,-5.337
0.215,0.041,0.267,-5.337
0.208,0.039,0.269,-5.337
0.156,0.039,0.267,-5.337
0.126,0.042,0.266,-5.337
0.138,0.044,0.267,-5.337
0.158,0.046,0.268,-5.337
0.172,0.039,0.268,-5.337
0.184,0.038,0.273,-5.337
0.168,0.036,0.274,-5.337
0.204,0.034,0.272,-5.337
0.189,0.037,0.272,-5.337
0.185,0.036,0.271,-5.337
0.238,0.034,0.273,-5.337
0.276,0.034,0.273,-5.337
0.268,0.033,0.274,-5.337
0.204,0.034,0.273,-5.337
0.192,0.034,0.273,-5.337
0.219,0.034,0.269,-5.337
0.268,0.036,0.269,-5.337
0.258,0.040,0.268,-5.337
0.228,0.037,0.267,-5.337
0.294,0.036,0.268,-5.337
0.264,0.038,0.268,-5.337
0.201,0.039,0.264,-5.337
0.221,0.041,0.265,-5.337
0.262,0.040,0.272,-5.337
0.201,0.039,0.275,-5.337
0.171,0.036,0.270,-5.337
0.227,0.038,0.268,-5.337
0.317,0.036,0.268,-5.337
0.289,0.039,0.269,-5.337
0.180,0.043,0.270,-5.337
0.154,0.045,0.273,-5.337
0.154,0.046,0.272,-5.337
0.127,0.046,0.267,-5.337
0.158,0.042,0.266,-5.337
0.240,0.041,0.268,-5.337
0.238,0.043,0.270,-5.337
0.173,0.045,0.269,-5.337
0.196,0.038,0.269,-5.337
0.215,0.036,0.265,-5.337
0.187,0.041,0.268,-5.337
0.190,0.043,0.270,-5.337
0.235,0.043,0.272,-5.337
0.198,0.044,0.275,-5.337
0.149,0.043,0.278,-5.337
0.251,0.040,0.275,-5.337
0.239,0.042,0.269,-5.337
0.131,0.042,0.266,-5.337
0.118,0.042,0.265,-5.337
0.174,0.043,0.267,-5.337
0.195,0.046,0.269,-5.337
0.237,0.044,0.267,-5.337
0.284,0.041,0.269,-5.337
0.217,0.044,0.271,-5.337
0.211,0.044,0.269,-5.337
0.277,0.042,0.268,-5.337
0.273,0.039,0.271,-5.337
0.255,0.042,0.275,-5.337
0.188,0.044,0.273,-5.337
0.134,0.046,0.271,-5.337
0.127,0.046,0.267,-5.337
0.169,0.048,0.269,-5.337
0.183,0.046,0.274,-5.337
0.161,0.046,0.276,-5.337
0.150,0.048,0.273,-5.337
0.194,0.052,0.271,-5.337
0.230,0.051,0.269,-5.337
0.215,0.048,0.266,-5.337
0.237,0.049,0.264,-5.337
0.281,0.047,0.263,-5.337
0.260,0.042,0.264,-5.337
0.222,0.040,0.264,-5.337
0.190,0.040,0.264,-5.337
0.204,0.042,0.267,-5.337
0.242,0.040,0.270,-5.337
0.235,0.040,0.272,-5.337
0.160,0.042,0.278,-5.337
0.146,0.045,0.275,-5.337
0.204,0.042,0.271,-5.337
0.231,0.045,0.269,-5.337
0.264,0.047,0.272,-5.337
0.292,0.045,0.269,-5.337
0.297,0.046,0.267,-5.337
0.200,0.048,0.268,-5.337
0.165,0.049,0.269,-5.337
0.154,0.048,0.269,-5.337
0.269,0.048,0.271,-5.337
0.248,0.051,0.277,-5.337
0.172,0.051,0.277,-5.337
0.156,0.051,0.273,-5.337
0.161,0.050,0.268,-5.337
0.250,0.049,0.267,-5.337
0.238,0.047,0.270,-5.337
0.223,0.048,0.271,-5.337
0.169,0.050,0.270,-5.337
0.174,0.051,0.272,-5.337
0.184,0.049,0.274,-5.337
0.132,0.048,0.274,-5.337
0.048,0.050,0.271,-5.337
0.050,0.050,0.270,-5.337
0.090,0.051,0.269,-5.337
0.123,0.051,0.269,-5.337
0.112,0.052,0.267,-5.337
0.186,0.047,0.270,-5.337
0.226,0.043,0.271,-5.337
0.239,0.045,0.269,-5.337
0.223,0.048,0.271,-5.337
0.199,0.049,0.272,-5.337
0.240,0.046,0.272,-5.337
0.274,0.047,0.274,-5.337
0.201,0.050,0.278,-5.337
0.092,0.049,0.277,-5.337
0.103,0.048,0.274,-5.337
0.181,0.049,0.272,-5.337
0.200,0.053,0.267,-5.337
0.221,0.053,0.264,-5.337
0.266,0.053,0.264,-5.337
0.293,0.049,0.266,-5.337
0.218,0.051,0.270,-5.337
0.151,0.053,0.274,-5.337
0.163,0.054,0.274,-5.337
0.183,0.055,0.273,-5.337
0.193,0.051,0.272,-5.337
0.209,0.051,0.267,-5.337
0.172,0.056,0.269,-5.337
0.117,0.057,0.273,-5.337
0.174,0.054,0.275,-5.337
0.200,0.055,0.272,-5.337
0.217,0.056,0.270,-5.337
0.178,0.056,0.267,-5.337
0.204,0.057,0.266,-5.337
0.159,0.057,0.270,-5.337
0.140,0.054,0.274,-5.337
0.188,0.052,0.273,-5.337
0.234,0.054,0.270,-5.337
0.238,0.050,0.270,-5.337
0.235,0.050,0.272,-5.337
0.222,0.052,0.272,-5.337
0.211,0.055,0.270,-5.337
0.235,0.054,0.270,-5.337
0.258,0.056,0.269,-5.337
0.218,0.059,0.266,-5.337
0.212,0.057,0.265,-5.337
0.214,0.055,0.267,-5.337
0.194,0.056,0.269,-5.337
0.151,0.053,0.272,-5.337
0.196,0.053,0.274,-5.337
0.207,0.056,0.274,-5.337
0.196,0.057,0.270,-5.337
0.156,0.055,0.270,-5.337
0.157,0.057,0.270,-5.337
0.106,0.059,0.272,-5.337
0.126,0.059,0.274,-5.337
0.181,0.056,0.274,-5.337
0.219,0.054,0.273,-5.337
0.252,0.054,0.270,-5.337
0.233,0.057,0.269,-5.337
0.192,0.055,0.275,-5.337
0.175,0.052,0.276,-5.337
0.192,0.050,0.271,-5.337
0.204,0.053,0.268,-5.337
0.177,0.054,0.267,-5.337
0.225,0.054,0.267,-5.337
0.247,0.053,0.266,-5.337
0.223,0.054,0.271,-5.337
0.140,0.058,0.275,-5.337
0.097,0.060,0.275,-5.337
0.182,0.055,0.272,-5.337
0.198,0.055,0.274,-5.337
0.103,0.058,0.271,-5.337
0.083,0.057,0.268,-5.337
0.149,0.054,0.267,-5.337
0.156,0.055,0.268,-5.337
0.146,0.055,0.268,-5.337
0.256,0.056,0.268,-5.337
0.275,0.060,0.270,-5.337
0.210,0.061,0.273,-5.337
0.109,0.058,0.277,-5.337
0.119,0.055,0.278,-5.337
0.146,0.052,0.273,-5.337
0.209,0.053,0.269,-5.337
0.162,0.059,0.270,-5.337
0.062,0.063,0.271,-5.337
0.130,0.060,0.272,-5.337
0.208,0.058,0.272,-5.337
0.177,0.059,0.272,-5.337
0.090,0.060,0.274,-5.337
0.075,0.062,0.275,-5.337
0.114,0.064,0.273,-5.337
0.134,0.064,0.269,-5.337
0.132,0.059,0.265,-5.337
0.096,0.060,0.265,-5.337
0.064,0.063,0.267,-5.337
0.145,0.066,0.269,-5.337
0.187,0.066,0.269,-5.337
0.185,0.068,0.268,-5.337
0.208,0.063,0.267,-5.337
0.184,0.065,0.268,-5.337
0.159,0.063,0.271,-5.337
0.173,0.061,0.272,-5.337
0.184,0.063,0.269,-5.337
0.178,0.064,0.269,-5.337
0.200,0.062,0.270,-5.337
0.200,0.059,0.269,-5.337
0.191,0.057,0.267,-5.337
0.196,0.056,0.264,-5.337
0.209,0.056,0.267,-5.337
0.213,0.056,0.270,-5.337
0.226,0.057,0.273,-5.337
0.255,0.059,0.272,-5.337
0.202,0.059,0.275,-5.337
0.101,0.060,0.276,-5.337
0.108,0.058,0.274,-5.337
0.193,0.059,0.270,-5.337
0.123,0.062,0.268,-5.337
0.042,0.061,0.272,-5.337
0.065,0.062,0.274,-5.337
0.118,0.062,0.269,-5.337
0.114,0.065,0.265,-5.337
0.111,0.066,0.267,-5.337
0.117,0.064,0.267,-5.337
0.180,0.062,0.267,-5.337
0.207,0.061,0.269,-5.337
0.171,0.063,0.272,-5.337
0.175,0.064,0.273,-5.337
0.183,0.064,0.269,-5.337
0.166,0.064,0.264,-5.337
0.157,0.066,0.265,-5.337
0.143,0.065,0.269,-5.337
0.155,0.063,0.272,-5.337
0.173,0.063,0.271,-5.337
0.153,0.064,0.269,-5.337
0.086,0.067,0.267,-5.337
0.121,0.068,0.268,-5.337
0.149,0.066,0.269,-5.337
0.115,0.068,0.272,-5.337
0.128,0.065,0.272,-5.337
0.165,0.066,0.272,-5.337
0.122,0.067,0.271,-5.337
0.093,0.068,0.271,-5.337
0.056,0.067,0.274,-5.337
0.039,0.070,0.276,-5.337
0.071,0.068,0.270,-5.337
0.146,0.066,0.267,-5.337
0.199,0.065,0.267,-5.337
0.153,0.069,0.268,-5.337
0.132,0.067,0.271,-5.337
0.226,0.060,0.271,-5.337
0.246,0.061,0.269,-5.337
0.116,0.066,0.265,-5.337
0.103,0.065,0.268,-5.337
0.152,0.067,0.269,-5.337
0.184,0.066,0.270,-5.337
0.182,0.065,0.272,-5.337
0.161,0.067,0.273,-5.337
0.214,0.065,0.272,-5.337
0.165,0.065,0.269,-5.337
0.076,0.062,0.268,-5.337
0.145,0.061,0.269,-5.337
0.156,0.063,0.272,-5.337
0.138,0.062,0.273,-5.337
0.132,0.064,0.270,-5.337
0.152,0.064,0.269,-5.337
0.172,0.062,0.271,-5.337
0.186,0.062,0.273,-5.337
0.229,0.057,0.268,-5.337
0.250,0.054,0.266,-5.337
0.165,0.055,0.267,-5.337
0.139,0.061,0.267,-5.337
0.134,0.061,0.270,-5.337
0.179,0.058,0.272,-5.337
0.210,0.059,0.273,-5.337
0.201,0.062,0.269,-5.337
0.167,0.060,0.269,-5.337
0.187,0.057,0.271,-5.337
0.140,0.062,0.271,-5.337
0.148,0.063,0.267,-5.337
0.150,0.063,0.267,-5.337
0.208,0.058,0.271,-5.337
0.212,0.059,0.276,-5.337
0.079,0.062,0.274,-5.337
0.081,0.059,0.268,-5.337
0.177,0.059,0.265,-5.337
0.145,0.062,0.267,-5.337
0.146,0.058,0.266,-5.337
0.211,0.057,0.266,-5.337
0.278,0.056,0.270,-5.337
0.228,0.056,0.274,-5.337
0.160,0.060,0.275,-5.337
0.215,0.060,0.273,-5.337
0.233,0.060,0.274,-5.337
0.190,0.059,0.274,-5.337
0.132,0.058,0.273,-5.337
0.151,0.055,0.268,-5.337
0.173,0.054,0.269,-5.337
0.206,0.053,0.269,-5.337
0.216,0.054,0.269,-5.337
0.231,0.055,0.269,-5.337
0.223,0.052,0.269,-5.337
0.197,0.050,0.268,-5.337
0.236,0.054,0.268,-5.337
0.168,0.057,0.269,-5.337
0.144,0.056,0.271,-5.337
0.192,0.054,0.272,-5.337
0.151,0.054,0.269,-5.337
0.188,0.053,0.269,-5.337
0.184,0.056,0.269,-5.337
0.166,0.054,0.270,-5.337
0.141,0.053,0.269,-5.337
0.171,0.050,0.270,-5.337
0.129,0.052,0.271,-5.337
0.082,0.056,0.269,-5.337
0.133,0.058,0.269,-5.337
0.176,0.055,0.269,-5.337
0.209,0.052,0.267,-5.337
0.201,0.049,0.268,-5.337
0.160,0.051,0.268,-5.337
0.156,0.054,0.271,-5.337
0.222,0.055,0.274,-5.337
0.266,0.054,0.274,-5.337
0.235,0.051,0.273,-5.337
0.252,0.053,0.271,-5.337
0.254,0.054,0.271,-5.337
0.242,0.056,0.271,-5.337
0.187,0.056,0.271,-5.337
0.151,0.055,0.272,-5.337
0.135,0.058,0.273,-5.337
0.105,0.057,0.275,-5.337
0.190,0.047,0.274,-5.337
0.269,0.043,0.270,-5.337
0.227,0.047,0.272,-5.337
0.189,0.052,0.270,-5.337
0.095,0.056,0.266,-5.337
0.082,0.051,0.262,-5.337
0.154,0.047,0.264,-5.337
0.220,0.044,0.268,-5.337
0.206,0.044,0.275,-5.337
0.193,0.047,0.271,-5.337
0.205,0.048,0.268,-5.337
0.236,0.044,0.270,-5.337
0.251,0.045,0.275,-5.337
0.246,0.044,0.271,-5.337
0.249,0.043,0.269,-5.337
0.228,0.044,0.272,-5.337
0.151,0.052,0.272,-5.337
0.059,0.053,0.270,-5.337
0.092,0.048,0.272,-5.337
0.195,0.046,0.271,-5.337
0.207,0.049,0.274,-5.337
0.135,0.049,0.273,-5.337
0.168,0.047,0.273,-5.337
0.207,0.049,0.269,-5.337
0.147,0.049,0.266,-5.337
0.110,0.049,0.274,-5.337
0.109,0.050,0.279,-5.337
0.191,0.046,0.279,-5.337
0.257,0.044,0.273,-5.337
0.235,0.047,0.273,-5.337
0.212,0.049,0.272,-5.337
0.219,0.051,0.270,-5.337
0.156,0.049,0.268,-5.337
0.151,0.051,0.272,-5.337
0.202,0.054,0.271,-5.337
0.216,0.053,0.269,-5.337
0.217,0.046,0.273,-5.337
0.213,0.046,0.275,-5.337
0.209,0.045,0.271,-5.337
0.241,0.046,0.266,-5.337
0.225,0.048,0.266,-5.337
0.180,0.049,0.265,-5.337
0.155,0.045,0.265,-5.337
0.183,0.045,0.274,-5.337
0.091,0.047,0.282,-5.337
0.114,0.043,0.282,-5.337
0.176,0.040,0.278,-5.337
0.196,0.039,0.275,-5.337
0.200,0.039,0.269,-5.337
0.157,0.044,0.267,-5.337
0.145,0.045,0.272,-5.337
0.154,0.044,0.274,-5.337
0.168,0.041,0.279,-5.337
0.209,0.042,0.278,-5.337
0.270,0.042,0.274,-5.337
0.244,0.042,0.270,-5.337
0.198,0.040,0.272,-5.337
0.237,0.037,0.272,-5.337
0.280,0.039,0.274,-5.337
0.243,0.038,0.274,-5.337
0.229,0.041,0.275,-5.337
0.250,0.043,0.278,-5.337
0.205,0.046,0.277,-5.337
0.175,0.043,0.273,-5.337
0.126,0.042,0.270,-5.337
0.119,0.044,0.270,-5.337
0.169,0.042,0.269,-5.337
0.219,0.041,0.273,-5.337
0.216,0.044,0.276,-5.337
0.248,0.042,0.275,-5.337
0.275,0.039,0.272,-5.337
0.291,0.041,0.271,-5.337
0.261,0.040,0.271,-5.337
0.200,0.041,0.271,-5.337
0.169,0.040,0.270,-5.337
0.224,0.037,0.269,-5.337
0.298,0.036,0.270,-5.337
0.307,0.039,0.270,-5.337
0.263,0.038,0.272,-5.337
0.191,0.040,0.274,-5.337
0.160,0.041,0.273,-5.337
0.214,0.041,0.272,-5.337
0.193,0.042,0.272,-5.337
0.137,0.043,0.273,-5.337
0.132,0.041,0.272,-5.337
0.130,0.040,0.276,-5.337
0.151,0.039,0.278,-5.337
0.158,0.039,0.276,-5.337
0.195,0.038,0.273,-5.337
0.232,0.037,0.270,-5.337
0.271,0.040,0.266,-5.337
0.206,0.043,0.267,-5.337
0.148,0.040,0.274,-5.337
0.181,0.040,0.276,-5.337
0.142,0.045,0.274,-5.337
0.125,0.046,0.270,-5.337
0.202,0.042,0.271,-5.337
0.187,0.042,0.272,-5.337
0.187,0.042,0.270,-5.337
0.235,0.042,0.267,-5.337
0.220,0.045,0.269,-5.337
0.202,0.044,0.274,-5.337
0.246,0.042,0.273,-5.337
0.288,0.042,0.269,-5.337
0.261,0.043,0.268,-5.337
0.220,0.045,0.271,-5.337
0.237,0.043,0.273,-5.337
0.254,0.040,0.275,-5.337
0.233,0.040,0.274,-5.337
0.255,0.039,0.273,-5.337
0.279,0.039,0.276,-5.337
0.257,0.039,0.279,-5.337
0.236,0.039,0.277,-5.337
0.200,0.043,0.277,-5.337
0.187,0.043,0.274,-5.337
0.257,0.038,0.271,-5.337
0.292,0.037,0.270,-5.337
0.194,0.041,0.273,-5.337
0.145,0.040,0.272,-5.337
0.213,0.041,0.272,-5.337
0.263,0.039,0.273,-5.337
0.284,0.037,0.272,-5.337
0.263,0.036,0.271,-5.337
0.171,0.041,0.271,-5.337
0.150,0.042,0.272,-5.337
0.187,0.041,0.273,-5.337
0.219,0.040,0.272,-5.337
0.274,0.041,0.274,-5.337
0.276,0.039,0.275,-5.337
0.298,0.035,0.275,-5.337
0.320,0.033,0.274,-5.337
0.282,0.035,0.273,-5.337
0.289,0.036,0.271,-5.337
0.282,0.038,0.270,-5.337
0.223,0.035,0.271,-5.337
0.166,0.037,0.269,-5.337
0.176,0.040,0.268,-5.337
0.212,0.043,0.271,-5.337
0.237,0.044,0.272,-5.337
0.256,0.043,0.271,-5.337
0.251,0.043,0.273,-5.337
0.242,0.040,0.276,-5.337
0.267,0.039,0.274,-5.337
0.224,0.043,0.275,-5.337
0.172,0.044,0.273,-5.337
0.175,0.043,0.271,-5.337
0.233,0.042,0.271,-5.337
0.254,0.040,0.271,-5.337
0.279,0.040,0.269,-5.337
0.318,0.043,0.270,-5.337
0.233,0.042,0.275,-5.337
0.195,0.040,0.277,-5.337
0.251,0.035,0.272,-5.337
0.260,0.032,0.268,-5.337
0.253,0.035,0.268,-5.337
0.243,0.038,0.269,-5.337
0.263,0.033,0.269,-5.337
0.320,0.036,0.272,-5.337
0.289,0.036,0.271,-5.337
0.225,0.035,0.272,-5.337
0.196,0.037,0.269,-5.337
0.205,0.040,0.270,-5.337
0.221,0.041,0.271,-5.337
0.203,0.040,0.272,-5.337
0.227,0.037,0.271,-5.337
0.268,0.042,0.274,-5.337
0.267,0.041,0.274,-5.337
0.221,0.037,0.273,-5.337
0.148,0.033,0.275,-5.337
0.146,0.032,0.274,-5.337
0.199,0.035,0.273,-5.337
0.245,0.039,0.271,-5.337
0.211,0.042,0.269,-5.337
0.129,0.042,0.267,-5.337
0.083,0.041,0.268,-5.337
0.155,0.039,0.270,-5.337
0.201,0.039,0.273,-5.337
0.164,0.040,0.272,-5.337
0.130,0.039,0.272,-5.337
0.191,0.038,0.270,-5.337
0.165,0.039,0.270,-5.337
0.211,0.039,0.273,-5.337
0.226,0.038,0.274,-5.337
0.219,0.035,0.272,-5.337
0.213,0.037,0.271,-5.337
0.223,0.038,0.268,-5.337
0.245,0.038,0.269,-5.337
0.167,0.040,0.271,-5.337
0.156,0.039,0.272,-5.337
0.231,0.036,0.273,-5.337
0.283,0.036,0.278,-5.337
0.214,0.038,0.280,-5.337
0.182,0.041,0.278,-5.337
0.245,0.039,0.269,-5.337
0.269,0.044,0.265,-5.337
0.158,0.045,0.269,-5.337
0.175,0.043,0.274,-5.337
0.222,0.043,0.277,-5.337
0.215,0.042,0.274,-5.337
0.185,0.041,0.270,-5.337
0.147,0.043,0.270,-5.337
0.203,0.044,0.273,-5.337
0.280,0.040,0.271,-5.337
0.270,0.041,0.274,-5.337
0.244,0.041,0.274,-5.337
0.219,0.042,0.276,-5.337
0.174,0.041,0.273,-5.337
0.195,0.042,0.269,-5.337
0.192,0.041,0.268,-5.337
0.168,0.040,0.272,-5.337
0.166,0.040,0.272,-5.337
0.229,0.039,0.270,-5.337
0.224,0.042,0.271,-5.337
0.167,0.044,0.271,-5.337
0.208,0.041,0.272,-5.337
0.300,0.039,0.272,-5.337
0.335,0.037,0.270,-5.337
0.329,0.039,0.269,-5.337
0.243,0.039,0.272,-5.337
0.197,0.043,0.273,-5.337
0.207,0.044,0.274,-5.337
0.122,0.046,0.271,-5.337
0.105,0.046,0.276,-5.337
0.167,0.042,0.276,-5.337
0.184,0.042,0.274,-5.337
0.181,0.039,0.272,-5.337
0.268,0.038,0.270,-5.337
0.291,0.043,0.267,-5.337
0.180,0.047,0.271,-5.337
0.116,0.047,0.274,-5.337
0.135,0.050,0.272,-5.337
0.146,0.050,0.267,-5.337
0.161,0.045,0.270,-5.337
0.259,0.041,0.272,-5.337
0.261,0.045,0.273,-5.337
0.185,0.047,0.273,-5.337
0.167,0.048,0.272,-5.337
0.145,0.049,0.269,-5.337
0.142,0.054,0.269,-5.337
0.120,0.054,0.271,-5.337
0.168,0.050,0.275,-5.337
0.238,0.050,0.278,-5.337
0.182,0.053,0.273,-5.337
0.171,0.049,0.271,-5.337
0.200,0.047,0.270,-5.337
0.189,0.051,0.268,-5.337
0.151,0.052,0.268,-5.337
0.166,0.050,0.272,-5.337
0.212,0.046,0.275,-5.337
0.284,0.045,0.276,-5.337
0.271,0.048,0.271,-5.337
0.235,0.049,0.269,-5.337
0.192,0.045,0.271,-5.337
0.182,0.044,0.275,-5.337
0.198,0.045,0.275,-5.337
0.193,0.049,0.273,-5.337
0.195,0.045,0.267,-5.337
0.212,0.042,0.266,-5.337
0.203,0.045,0.270,-5.337
0.170,0.052,0.275,-5.337
0.131,0.054,0.279,-5.337
0.122,0.055,0.278,-5.337
0.153,0.053,0.274,-5.337
0.206,0.053,0.270,-5.337
0.217,0.055,0.269,-5.337
0.225,0.056,0.269,-5.337
0.208,0.057,0.268,-5.337
0.213,0.053,0.268,-5.337
0.198,0.055,0.272,-5.337
0.254,0.056,0.270,-5.337
0.203,0.056,0.268,-5.337
0.172,0.052,0.270,-5.337
0.233,0.052,0.275,-5.337
0.221,0.054,0.276,-5.337
0.205,0.054,0.274,-5.337
0.111,0.057,0.271,-5.337
0.077,0.058,0.271,-5.337
0.110,0.054,0.271,-5.337
0.143,0.053,0.268,-5.337
0.177,0.052,0.267,-5.337
0.209,0.052,0.269,-5.337
0.198,0.051,0.273,-5.337
0.176,0.051,0.275,-5.337
0.152,0.047,0.277,-5.337
0.224,0.042,0.275,-5.337
0.232,0.046,0.274,-5.337
0.219,0.048,0.272,-5.337
0.168,0.048,0.273,-5.337
0.142,0.053,0.274,-5.337
0.045,0.058,0.275,-5.337
0.081,0.054,0.272,-5.337
0.118,0.053,0.270,-5.337
0.151,0.053,0.269,-5.337
0.138,0.058,0.270,-5.337
0.111,0.058,0.268,-5.337
0.152,0.054,0.267,-5.337
0.180,0.054,0.269,-5.337
0.139,0.054,0.278,-5.337
0.120,0.054,0.279,-5.337
0.168,0.049,0.273,-5.337
0.116,0.047,0.268,-5.337
0.093,0.049,0.270,-5.337
0.083,0.052,0.275,-5.337
0.155,0.048,0.271,-5.337
0.249,0.048,0.273,-5.337
0.213,0.054,0.274,-5.337
0.129,0.057,0.277,-5.337
0.084,0.055,0.277,-5.337
0.092,0.054,0.275,-5.337
0.096,0.059,0.270,-5.337
0.130,0.060,0.270,-5.337
0.166,0.056,0.269,-5.337
0.204,0.054,0.272,-5.337
0.154,0.055,0.275,-5.337
0.153,0.055,0.279,-5.337
0.193,0.054,0.278,-5.337
0.264,0.054,0.273,-5.337
0.246,0.053,0.272,-5.337
0.202,0.051,0.275,-5.337
0.188,0.052,0.274,-5.337
0.197,0.053,0.272,-5.337
0.228,0.050,0.276,-5.337
0.247,0.047,0.278,-5.337
0.205,0.049,0.275,-5.337
0.192,0.054,0.274,-5.337
0.136,0.059,0.273,-5.337
0.072,0.059,0.272,-5.337
0.087,0.055,0.275,-5.337
0.149,0.057,0.275,-5.337
0.136,0.057,0.275,-5.337
0.120,0.054,0.274,-5.337
0.105,0.052,0.275,-5.337
0.106,0.054,0.272,-5.337
0.113,0.054,0.273,-5.337
0.135,0.054,0.273,-5.337
0.169,0.056,0.269,-5.337
0.139,0.057,0.269,-5.337
0.115,0.055,0.272,-5.337
0.156,0.052,0.277,-5.337
0.173,0.051,0.277,-5.337
0.181,0.053,0.271,-5.337
0.176,0.056,0.267,-5.337
0.147,0.060,0.270,-5.337
0.166,0.057,0.272,-5.337
0.191,0.053,0.275,-5.337
0.218,0.051,0.274,-5.337
0.210,0.053,0.269,-5.337
0.244,0.052,0.268,-5.337
0.236,0.054,0.273,-5.337
0.184,0.058,0.276,-5.337
0.162,0.059,0.279,-5.337
0.185,0.058,0.275,-5.337
0.166,0.058,0.272,-5.337
0.172,0.058,0.272,-5.337
0.201,0.057,0.276,-5.337
0.253,0.058,0.276,-5.337
0.229,0.064,0.277,-5.337
0.221,0.063,0.273,-5.337
0.160,0.063,0.273,-5.337
0.159,0.057,0.271,-5.337
0.185,0.059,0.269,-5.337
0.156,0.057,0.267,-5.337
0.079,0.064,0.269,-5.337
0.109,0.066,0.270,-5.337
0.174,0.064,0.272,-5.337
0.179,0.066,0.276,-5.337
0.106,0.065,0.280,-5.337
0.122,0.063,0.278,-5.337
0.155,0.063,0.274,-5.337
0.167,0.060,0.272,-5.337
0.140,0.063,0.274,-5.337
0.054,0.063,0.275,-5.337
0.077,0.061,0.272,-5.337
0.113,0.058,0.272,-5.337
0.130,0.060,0.273,-5.337
0.120,0.065,0.275,-5.337
0.104,0.066,0.274,-5.337
0.127,0.064,0.274,-5.337
0.135,0.064,0.271,-5.337
0.136,0.065,0.271,-5.337
0.149,0.061,0.272,-5.337
0.180,0.059,0.275,-5.337
0.144,0.059,0.279,-5.337
0.117,0.059,0.278,-5.337
0.107,0.059,0.274,-5.337
0.138,0.058,0.270,-5.337
0.166,0.061,0.270,-5.337
0.142,0.062,0.270,-5.337
0.132,0.060,0.270,-5.337
0.165,0.062,0.270,-5.337
0.185,0.062,0.274,-5.337
0.250,0.058,0.274,-5.337
0.240,0.065,0.276,-5.337
0.165,0.066,0.276,-5.337
0.160,0.063,0.279,-5.337
0.223,0.058,0.276,-5.337
0.251,0.057,0.271,-5.337
0.195,0.060,0.270,-5.337
0.170,0.064,0.274,-5.337
0.162,0.063,0.280,-5.337
0.209,0.060,0.280,-5.337
0.214,0.059,0.276,-5.337
0.176,0.061,0.274,-5.337
0.171,0.061,0.272,-5.337
0.146,0.062,0.269,-5.337
0.090,0.062,0.266,-5.337
0.138,0.059,0.269,-5.337
0.177,0.061,0.274,-5.337
0.145,0.065,0.273,-5.337
0.105,0.064,0.270,-5.337
0.180,0.061,0.270,-5.337
0.230,0.062,0.274,-5.337
0.182,0.064,0.274,-5.337
0.112,0.066,0.273,-5.337
0.117,0.062,0.269,-5.337
0.159,0.060,0.270,-5.337
0.181,0.061,0.273,-5.337
0.227,0.063,0.275,-5.337
0.207,0.063,0.275,-5.337
0.123,0.067,0.273,-5.337
0.075,0.065,0.272,-5.337
0.097,0.062,0.271,-5.337
0.117,0.063,0.270,-5.337
0.119,0.067,0.268,-5.337
0.118,0.066,0.268,-5.337
0.082,0.066,0.269,-5.337
0.128,0.063,0.272,-5.337
0.181,0.062,0.269,-5.337
0.159,0.062,0.267,-5.337
0.139,0.062,0.270,-5.337
0.096,0.062,0.276,-5.337
0.065,0.060,0.276,-5.337
0.093,0.061,0.274,-5.337
0.159,0.061,0.270,-5.337
0.167,0.063,0.272,-5.337
0.130,0.063,0.275,-5.337
0.090,0.067,0.276,-5.337
0.100,0.065,0.273,-5.337
0.177,0.061,0.275,-5.337
0.160,0.062,0.276,-5.337
0.099,0.065,0.275,-5.337
0.111,0.063,0.271,-5.337
0.141,0.062,0.270,-5.337
0.127,0.058,0.270,-5.337
0.127,0.062,0.272,-5.337
0.194,0.057,0.270,-5.337
0.205,0.060,0.269,-5.337
0.162,0.061,0.274,-5.337
0.197,0.058,0.273,-5.337
0.194,0.058,0.271,-5.337
0.183,0.059,0.273,-5.337
0.123,0.063,0.275,-5.337
0.086,0.065,0.274,-5.337
0.149,0.062,0.274,-5.337
0.229,0.060,0.271,-5.337
0.183,0.062,0.270,-5.337
0.161,0.063,0.270,-5.337
0.193,0.063,0.271,-5.337
0.155,0.063,0.271,-5.337
0.122,0.062,0.273,-5.337
0.171,0.061,0.274,-5.337
0.156,0.062,0.274,-5.337
0.138,0.057,0.272,-5.337
0.114,0.058,0.272,-5.337
0.089,0.055,0.271,-5.337
0.119,0.054,0.272,-5.337
0.203,0.052,0.271,-5.337
0.250,0.053,0.271,-5.337
0.164,0.053,0.271,-5.337
0.136,0.053,0.271,-5.337
0.127,0.051,0.272,-5.337
0.131,0.050,0.276,-5.337
0.135,0.052,0.276,-5.337
0.156,0.051,0.277,-5.337
0.179,0.050,0.275,-5.337
0.208,0.048,0.272,-5.337
0.239,0.042,0.272,-5.337
0.255,0.045,0.270,-5.337
0.125,0.049,0.267,-5.337
0.056,0.051,0.266,-5.337
0.120,0.047,0.271,-5.337
0.178,0.045,0.273,-5.337
0.219,0.046,0.272,-5.337
0.178,0.050,0.271,-5.337
0.143,0.054,0.273,-5.337
0.159,0.052,0.274,-5.337
0.149,0.051,0.274,-5.337
0.102,0.049,0.274,-5.337
0.083,0.053,0.278,-5.337
0.132,0.056,0.278,-5.337
0.169,0.055,0.274,-5.337
0.166,0.054,0.270,-5.337
0.152,0.051,0.272,-5.337
0.170,0.053,0.272,-5.337
0.207,0.054,0.271,-5.337
0.185,0.053,0.271,-5.337
0.148,0.052,0.273,-5.337
0.153,0.051,0.277,-5.337
0.161,0.052,0.274,-5.337
0.145,0.055,0.271,-5.337
0.107,0.056,0.267,-5.337
0.092,0.053,0.271,-5.337
0.152,0.050,0.272,-5.337
0.231,0.050,0.274,-5.337
0.214,0.050,0.272,-5.337
0.158,0.053,0.272,-5.337
0.181,0.049,0.273,-5.337
0.188,0.048,0.272,-5.337
0.177,0.051,0.267,-5.337
0.145,0.051,0.266,-5.337
0.127,0.053,0.266,-5.337
0.161,0.054,0.271,-5.337
0.192,0.052,0.272,-5.337
0.241,0.050,0.274,-5.337
0.230,0.050,0.277,-5.337
0.240,0.047,0.277,-5.337
0.255,0.048,0.274,-5.337
0.234,0.047,0.271,-5.337
0.249,0.050,0.273,-5.337
0.265,0.048,0.273,-5.337
0.199,0.049,0.273,-5.337
0.151,0.048,0.272,-5.337
0.180,0.049,0.273,-5.337
0.175,0.052,0.272,-5.337
0.152,0.051,0.273,-5.337
0.185,0.052,0.271,-5.337
0.208,0.052,0.271,-5.337
0.190,0.049,0.271,-5.337
0.261,0.047,0.275,-5.337
0.304,0.042,0.274,-5.337
0.296,0.043,0.276,-5.337
0.263,0.044,0.272,-5.337
0.232,0.045,0.270,-5.337
0.166,0.048,0.270,-5.337
0.158,0.045,0.272,-5.337
0.173,0.046,0.273,-5.337
0.164,0.052,0.277,-5.337
0.165,0.051,0.274,-5.337
0.203,0.050,0.272,-5.337
0.200,0.049,0.276,-5.337
0.235,0.047,0.276,-5.337
0.224,0.052,0.272,-5.337
0.127,0.057,0.266,-5.337
0.120,0.051,0.265,-5.337
0.211,0.045,0.273,-5.337
0.260,0.047,0.276,-5.337
0.203,0.049,0.272,-5.337
0.171,0.051,0.268,-5.337
0.168,0.048,0.272,-5.337
0.187,0.045,0.275,-5.337
0.200,0.047,0.275,-5.337
0.181,0.051,0.274,-5.337
0.145,0.047,0.274,-5.337
0.163,0.048,0.275,-5.337
0.243,0.046,0.275,-5.337
0.246,0.042,0.272,-5.337
0.214,0.044,0.271,-5.337
0.186,0.047,0.273,-5.337
0.160,0.047,0.273,-5.337
0.172,0.046,0.274,-5.337
0.257,0.045,0.276,-5.337
0.286,0.043,0.275,-5.337
0.228,0.042,0.277,-5.337
0.150,0.044,0.277,-5.337
0.102,0.044,0.274,-5.337
0.174,0.041,0.267,-5.337
0.199,0.041,0.264,-5.337
0.215,0.040,0.266,-5.337
0.256,0.042,0.270,-5.337
0.255,0.043,0.272,-5.337
0.228,0.043,0.270,-5.337
0.206,0.041,0.268,-5.337
0.187,0.039,0.274,-5.337
0.187,0.036,0.279,-5.337
0.203,0.039,0.282,-5.337
0.229,0.039,0.280,-5.337
0.257,0.036,0.273,-5.337
0.195,0.035,0.268,-5.337
0.063,0.038,0.269,-5.337
0.111,0.038,0.273,-5.337
0.220,0.038,0.274,-5.337
0.316,0.036,0.273,-5.337
0.288,0.036,0.271,-5.337
0.168,0.040,0.275,-5.337
0.133,0.044,0.277,-5.337
0.132,0.046,0.279,-5.337
0.123,0.045,0.276,-5.337
0.089,0.046,0.273,-5.337
0.138,0.043,0.269,-5.337
0.260,0.040,0.273,-5.337
0.280,0.043,0.277,-5.337
0.193,0.045,0.277,-5.337
0.104,0.048,0.275,-5.337
0.092,0.046,0.275,-5.337
0.157,0.044,0.272,-5.337
0.196,0.043,0.269,-5.337
0.209,0.043,0.268,-5.337
0.203,0.042,0.268,-5.337
0.168,0.044,0.268,-5.337
0.161,0.044,0.270,-5.337
0.181,0.043,0.276,-5.337
0.230,0.042,0.277,-5.337
0.282,0.042,0.277,-5.337
0.255,0.042,0.273,-5.337
0.299,0.043,0.272,-5.337
0.316,0.040,0.270,-5.337
0.303,0.037,0.271,-5.337
0.249,0.037,0.272,-5.337
0.185,0.041,0.276,-5.337
0.172,0.041,0.277,-5.337
0.207,0.036,0.277,-5.337
0.188,0.041,0.273,-5.337
0.159,0.045,0.274,-5.337
0.222,0.042,0.271,-5.337
0.240,0.043,0.268,-5.337
0.213,0.044,0.268,-5.337
0.117,0.048,0.272,-5.337
0.102,0.045,0.272,-5.337
0.135,0.040,0.271,-5.337
0.171,0.042,0.271,-5.337
0.224,0.044,0.272,-5.337
0.290,0.044,0.271,-5.337
0.240,0.045,0.271,-5.337
0.144,0.047,0.272,-5.337
0.113,0.046,0.273,-5.337
0.214,0.045,0.276,-5.337
0.249,0.047,0.279,-5.337
0.196,0.047,0.276,-5.337
0.142,0.045,0.268,-5.337
0.188,0.042,0.265,-5.337
0.218,0.045,0.271,-5.337
0.207,0.048,0.275,-5.337
0.181,0.048,0.274,-5.337
0.213,0.046,0.273,-5.337
0.171,0.044,0.272,-5.337
0.187,0.042,0.272,-5.337
0.256,0.039,0.272,-5.337
0.261,0.038,0.272,-5.337
0.262,0.037,0.274,-5.337
0.287,0.037,0.272,-5.337
0.258,0.041,0.269,-5.337
0.188,0.040,0.267,-5.337
0.174,0.038,0.267,-5.337
0.201,0.038,0.267,-5.337
0.218,0.036,0.271,-5.337
0.280,0.035,0.278,-5.337
0.260,0.037,0.283,-5.337
0.196,0.037,0.279,-5.337
0.209,0.039,0.274,-5.337
0.244,0.038,0.272,-5.337
0.187,0.044,0.273,-5.337
0.157,0.044,0.273,-5.337
0.175,0.043,0.276,-5.337
0.185,0.043,0.278,-5.337
0.202,0.042,0.276,-5.337
0.198,0.043,0.272,-5.337
0.173,0.044,0.271,-5.337
0.201,0.042,0.271,-5.337
0.220,0.040,0.270,-5.337
0.196,0.036,0.275,-5.337
0.242,0.035,0.276,-5.337
0.257,0.036,0.269,-5.337
0.182,0.040,0.265,-5.337
0.189,0.041,0.266,-5.337
0.251,0.042,0.269,-5.337
0.285,0.043,0.274,-5.337
0.340,0.039,0.274,-5.337
0.325,0.036,0.273,-5.337
0.264,0.039,0.272,-5.337
0.232,0.040,0.273,-5.337
0.223,0.045,0.277,-5.337
0.180,0.047,0.279,-5.337
0.108,0.043,0.274,-5.337
0.144,0.047,0.271,-5.337
0.198,0.045,0.272,-5.337
0.098,0.048,0.275,-5.337
0.060,0.044,0.278,-5.337
0.176,0.042,0.276,-5.337
0.234,0.037,0.273,-5.337
0.217,0.038,0.269,-5.337
0.189,0.040,0.271,-5.337
0.173,0.041,0.273,-5.337
0.166,0.041,0.273,-5.337
0.198,0.040,0.270,-5.337
0.236,0.039,0.271,-5.337
0.256,0.040,0.273,-5.337
0.249,0.042,0.274,-5.337
0.249,0.042,0.274,-5.337
0.262,0.038,0.275,-5.337
0.240,0.033,0.273,-5.337
0.233,0.037,0.272,-5.337
0.237,0.042,0.271,-5.337
0.213,0.042,0.271,-5.337
0.237,0.040,0.270,-5.337
0.224,0.043,0.270,-5.337
0.158,0.047,0.271,-5.337
0.206,0.045,0.269,-5.337
0.257,0.042,0.270,-5.337
0.263,0.041,0.275,-5.337
0.272,0.041,0.273,-5.337
0.248,0.040,0.270,-5.337
0.214,0.041,0.269,-5.337
0.241,0.043,0.269,-5.337
0.259,0.043,0.269,-5.337
0.235,0.042,0.269,-5.337
0.189,0.047,0.269,-5.337
0.177,0.051,0.272,-5.337
0.136,0.057,0.274,-5.337
0.081,0.054,0.273,-5.337
0.191,0.050,0.273,-5.337
0.231,0.048,0.273,-5.337
0.146,0.052,0.273,-5.337
0.090,0.053,0.268,-5.337
0.111,0.051,0.269,-5.337
0.151,0.052,0.270,-5.337
0.156,0.048,0.275,-5.337
0.184,0.044,0.275,-5.337
0.217,0.045,0.273,-5.337
0.196,0.050,0.268,-5.337
0.158,0.053,0.270,-5.337
0.173,0.056,0.272,-5.337
0.122,0.057,0.275,-5.337
0.132,0.056,0.273,-5.337
0.177,0.054,0.271,-5.337
0.169,0.053,0.272,-5.337
0.166,0.051,0.274,-5.337
0.176,0.050,0.274,-5.337
0.227,0.049,0.272,-5.337
0.271,0.047,0.267,-5.337
0.222,0.048,0.268,-5.337
0.196,0.049,0.274,-5.337
0.245,0.049,0.275,-5.337
0.200,0.049,0.271,-5.337
0.217,0.047,0.270,-5.337
0.311,0.047,0.272,-5.337
0.324,0.047,0.271,-5.337
0.262,0.052,0.272,-5.337
0.231,0.053,0.270,-5.337
0.241,0.053,0.270,-5.337
0.218,0.053,0.271,-5.337
0.213,0.052,0.271,-5.337
0.148,0.049,0.270,-5.337
0.112,0.050,0.273,-5.337
0.161,0.051,0.271,-5.337
0.160,0.055,0.267,-5.337
0.150,0.051,0.267,-5.337
0.136,0.054,0.274,-5.337
0.147,0.051,0.278,-5.337
0.157,0.048,0.279,-5.337
0.165,0.049,0.274,-5.337
0.134,0.049,0.269,-5.337
0.191,0.046,0.270,-5.337
0.229,0.047,0.272,-5.337
0.236,0.044,0.269,-5.337
0.282,0.044,0.268,-5.337
0.278,0.048,0.271,-5.337
0.242,0.050,0.270,-5.337
0.206,0.050,0.273,-5.337
0.174,0.050,0.272,-5.337
0.186,0.047,0.272,-5.337
0.215,0.048,0.275,-5.337
0.167,0.049,0.278,-5.337
0.157,0.048,0.277,-5.337
0.234,0.047,0.274,-5.337
0.275,0.046,0.272,-5.337
0.243,0.046,0.275,-5.337
0.235,0.047,0.277,-5.337
0.181,0.050,0.274,-5.337
0.141,0.051,0.269,-5.337
0.092,0.051,0.267,-5.337
0.105,0.048,0.266,-5.337
0.147,0.050,0.267,-5.337
0.187,0.055,0.268,-5.337
0.197,0.053,0.270,-5.337
0.188,0.051,0.271,-5.337
0.168,0.051,0.271,-5.337
0.168,0.049,0.273,-5.337
0.183,0.049,0.269,-5.337
0.117,0.053,0.269,-5.337
0.120,0.053,0.269,-5.337
0.181,0.055,0.274,-5.337
0.206,0.052,0.274,-5.337
0.171,0.054,0.275,-5.337
0.127,0.051,0.271,-5.337
0.158,0.051,0.267,-5.337
0.210,0.048,0.263,-5.337
0.178,0.050,0.266,-5.337
0.178,0.048,0.270,-5.337
0.224,0.049,0.271,-5.337
0.223,0.051,0.272,-5.337
0.161,0.053,0.277,-5.337
0.142,0.054,0.277,-5.337
0.125,0.053,0.273,-5.337
0.147,0.050,0.268,-5.337
0.129,0.049,0.266,-5.337
0.113,0.047,0.266,-5.337
0.181,0.048,0.267,-5.337
0.215,0.050,0.269,-5.337
0.227,0.056,0.270,-5.337
0.140,0.061,0.271,-5.337
0.080,0.058,0.271,-5.337
0.154,0.053,0.273,-5.337
0.141,0.055,0.274,-5.337
0.128,0.054,0.273,-5.337
0.155,0.055,0.271,-5.337
0.152,0.056,0.273,-5.337
0.164,0.053,0.272,-5.337
0.167,0.055,0.269,-5.337
0.182,0.056,0.268,-5.337
0.143,0.058,0.271,-5.337
0.120,0.056,0.274,-5.337
0.129,0.053,0.272,-5.337
0.101,0.056,0.267,-5.337
0.124,0.056,0.264,-5.337
0.217,0.053,0.267,-5.337
0.218,0.052,0.269,-5.337
0.166,0.056,0.267,-5.337
0.193,0.055,0.267,-5.337
0.166,0.056,0.274,-5.337
0.091,0.058,0.275,-5.337
0.107,0.060,0.276,-5.337
0.141,0.058,0.274,-5.337
0.108,0.060,0.271,-5.337
0.097,0.060,0.275,-5.337
0.153,0.059,0.277,-5.337
0.201,0.057,0.277,-5.337
0.146,0.060,0.276,-5.337
0.137,0.057,0.276,-5.337
0.172,0.056,0.275,-5.337
0.184,0.054,0.269,-5.337
0.187,0.054,0.269,-5.337
0.167,0.055,0.271,-5.337
0.188,0.054,0.276,-5.337
0.216,0.053,0.276,-5.337
0.190,0.057,0.276,-5.337
0.133,0.057,0.274,-5.337
0.111,0.057,0.268,-5.337
0.163,0.055,0.267,-5.337
0.182,0.056,0.269,-5.337
0.123,0.057,0.268,-5.337
0.098,0.060,0.268,-5.337
0.120,0.061,0.270,-5.337
0.090,0.061,0.276,-5.337
0.144,0.057,0.280,-5.337
0.181,0.058,0.280,-5.337
0.222,0.058,0.276,-5.337
0.296,0.053,0.272,-5.337
0.296,0.055,0.270,-5.337
0.222,0.059,0.273,-5.337
0.180,0.058,0.275,-5.337
0.194,0.055,0.278,-5.337
0.153,0.057,0.277,-5.337
0.102,0.057,0.272,-5.337
0.150,0.055,0.274,-5.337
0.151,0.057,0.277,-5.337
0.123,0.061,0.277,-5.337
0.105,0.060,0.274,-5.337
0.133,0.058,0.270,-5.337
0.135,0.057,0.269,-5.337
0.147,0.060,0.271,-5.337
0.160,0.064,0.275,-5.337
0.078,0.065,0.274,-5.337
0.156,0.060,0.270,-5.337
0.189,0.058,0.270,-5.337
0.094,0.058,0.274,-5.337
0.155,0.058,0.273,-5.337
0.183,0.061,0.273,-5.337
0.114,0.058,0.269,-5.337
0.112,0.054,0.272,-5.337
0.189,0.054,0.273,-5.337
0.247,0.056,0.273,-5.337
0.149,0.063,0.274,-5.337
0.147,0.064,0.275,-5.337
0.222,0.061,0.272,-5.337
0.180,0.063,0.270,-5.337
0.136,0.064,0.271,-5.337
0.146,0.065,0.273,-5.337
0.140,0.065,0.274,-5.337
0.182,0.065,0.270,-5.337
0.179,0.061,0.268,-5.337
0.209,0.058,0.273,-5.337
0.202,0.059,0.279,-5.337
0.147,0.063,0.277,-5.337
0.131,0.066,0.274,-5.337
0.178,0.059,0.271,-5.337
0.209,0.055,0.271,-5.337
0.194,0.057,0.268,-5.337
0.177,0.058,0.268,-5.337
0.151,0.061,0.269,-5.337
0.193,0.060,0.272,-5.337
0.240,0.057,0.275,-5.337
0.207,0.063,0.274,-5.337
0.129,0.067,0.272,-5.337
0.068,0.067,0.272,-5.337
0.104,0.059,0.273,-5.337
0.143,0.061,0.272,-5.337
0.132,0.065,0.272,-5.337
0.155,0.065,0.272,-5.337
0.195,0.063,0.274,-5.337
0.167,0.063,0.278,-5.337
0.111,0.063,0.276,-5.337
0.147,0.061,0.274,-5.337
0.135,0.066,0.271,-5.337
0.088,0.065,0.267,-5.337
0.152,0.059,0.271,-5.337
0.182,0.059,0.275,-5.337
0.204,0.062,0.276,-5.337
0.153,0.064,0.274,-5.337
0.133,0.062,0.276,-5.337
0.146,0.061,0.274,-5.337
0.155,0.064,0.273,-5.337
0.198,0.062,0.274,-5.337
0.119,0.065,0.273,-5.337
0.149,0.063,0.272,-5.337
0.262,0.063,0.272,-5.337
0.245,0.064,0.272,-5.337
0.236,0.061,0.272,-5.337
0.290,0.058,0.269,-5.337
0.218,0.059,0.268,-5.337
0.080,0.063,0.269,-5.337
0.056,0.065,0.272,-5.337
0.081,0.068,0.275,-5.337
0.159,0.065,0.276,-5.337
0.183,0.064,0.275,-5.337
0.156,0.062,0.273,-5.337
0.157,0.063,0.272,-5.337
0.119,0.067,0.272,-5.337
0.070,0.068,0.273,-5.337
0.116,0.060,0.273,-5.337
0.152,0.063,0.273,-5.337
0.158,0.064,0.271,-5.337
0.155,0.064,0.270,-5.337
0.153,0.060,0.269,-5.337
0.157,0.063,0.271,-5.337
0.131,0.062,0.275,-5.337
0.124,0.063,0.277,-5.337
0.149,0.060,0.276,-5.337
0.199,0.058,0.279,-5.337
0.212,0.058,0.276,-5.337
0.158,0.060,0.271,-5.337
0.069,0.062,0.270,-5.337
0.073,0.058,0.272,-5.337
0.133,0.056,0.276,-5.337
0.178,0.060,0.280,-5.337
0.171,0.061,0.281,-5.337
0.186,0.059,0.278,-5.337
0.193,0.060,0.275,-5.337
0.178,0.059,0.269,-5.337
0.182,0.057,0.269,-5.337
0.288,0.053,0.271,-5.337
0.355,0.054,0.271,-5.337
0.203,0.059,0.271,-5.337
0.114,0.060,0.272,-5.337
0.076,0.061,0.273,-5.337
0.054,0.063,0.274,-5.337
0.092,0.061,0.272,-5.337
0.097,0.063,0.271,-5.337
0.132,0.062,0.269,-5.337
0.177,0.060,0.272,-5.337
0.145,0.060,0.277,-5.337
0.074,0.059,0.279,-5.337
0.093,0.055,0.275,-5.337
0.245,0.052,0.272,-5.337
0.332,0.050,0.273,-5.337
0.223,0.050,0.271,-5.337
0.124,0.050,0.272,-5.337
0.198,0.049,0.269,-5.337
0.230,0.052,0.271,-5.337
0.223,0.052,0.270,-5.337
0.232,0.053,0.268,-5.337
0.180,0.059,0.268,-5.337
0.089,0.062,0.269,-5.337
0.075,0.056,0.269,-5.337
0.157,0.051,0.271,-5.337
0.203,0.049,0.276,-5.337
0.176,0.048,0.278,-5.337
0.156,0.047,0.278,-5.337
0.204,0.047,0.276,-5.337
0.228,0.048,0.273,-5.337
0.190,0.052,0.271,-5.337
0.171,0.052,0.271,-5.337
0.192,0.051,0.270,-5.337
0.216,0.049,0.272,-5.337
0.205,0.048,0.274,-5.337
0.167,0.055,0.275,-5.337
0.153,0.056,0.274,-5.337
0.155,0.053,0.272,-5.337
0.151,0.052,0.272,-5.337
0.168,0.051,0.275,-5.337
0.137,0.052,0.273,-5.337
0.120,0.056,0.273,-5.337
0.159,0.056,0.273,-5.337
0.184,0.055,0.270,-5.337
0.216,0.052,0.271,-5.337
0.246,0.050,0.272,-5.337
0.176,0.049,0.272,-5.337
0.184,0.047,0.274,-5.337
0.117,0.049,0.275,-5.337
0.119,0.048,0.275,-5.337
0.140,0.045,0.275,-5.337
0.186,0.043,0.274,-5.337
0.178,0.045,0.272,-5.337
0.166,0.048,0.270,-5.337
0.144,0.049,0.271,-5.337
0.172,0.048,0.277,-5.337
0.200,0.042,0.277,-5.337
0.250,0.038,0.274,-5.337
0.213,0.041,0.271,-5.337
0.160,0.043,0.269,-5.337
0.186,0.044,0.271,-5.337
0.164,0.048,0.273,-5.337
0.091,0.051,0.275,-5.337
0.130,0.046,0.274,-5.337
0.250,0.041,0.275,-5.337
0.222,0.044,0.274,-5.337
0.210,0.047,0.272,-5.337
0.243,0.045,0.269,-5.337
0.292,0.041,0.267,-5.337
0.253,0.040,0.267,-5.337
0.198,0.044,0.270,-5.337
0.228,0.044,0.273,-5.337
0.285,0.044,0.272,-5.337
0.248,0.043,0.275,-5.337
0.212,0.044,0.279,-5.337
0.211,0.045,0.282,-5.337
0.228,0.042,0.278,-5.337
0.190,0.041,0.274,-5.337
0.180,0.042,0.274,-5.337
0.187,0.040,0.273,-5.337
0.236,0.040,0.272,-5.337
0.210,0.047,0.274,-5.337
0.105,0.049,0.273,-5.337
0.141,0.044,0.272,-5.337
0.205,0.043,0.273,-5.337
0.145,0.048,0.274,-5.337
0.106,0.049,0.272,-5.337
0.121,0.044,0.272,-5.337
0.191,0.041,0.268,-5.337
0.231,0.046,0.263,-5.337
0.183,0.050,0.262,-5.337
0.123,0.048,0.267,-5.337
0.150,0.041,0.273,-5.337
0.248,0.043,0.278,-5.337
0.239,0.047,0.277,-5.337
0.260,0.042,0.272,-5.337
0.248,0.039,0.273,-5.337
0.200,0.040,0.278,-5.337
0.151,0.041,0.277,-5.337
0.174,0.042,0.273,-5.337
0.184,0.042,0.270,-5.337
0.123,0.044,0.271,-5.337
0.098,0.045,0.275,-5.337
0.154,0.042,0.275,-5.337
0.259,0.035,0.273,-5.337
0.202,0.037,0.270,-5.337
0.128,0.042,0.272,-5.337
0.177,0.040,0.271,-5.337
0.243,0.040,0.271,-5.337
0.220,0.038,0.274,-5.337
0.247,0.040,0.279,-5.337
0.209,0.041,0.277,-5.337
0.195,0.041,0.273,-5.337
0.210,0.039,0.270,-5.337
0.187,0.039,0.270,-5.337
0.159,0.038,0.269,-5.337
0.164,0.041,0.272,-5.337
0.160,0.040,0.273,-5.337
0.240,0.039,0.272,-5.337
0.233,0.043,0.272,-5.337
0.153,0.044,0.274,-5.337
0.155,0.041,0.275,-5.337
0.172,0.036,0.274,-5.337
0.189,0.031,0.276,-5.337
0.275,0.033,0.277,-5.337
0.210,0.036,0.278,-5.337
0.143,0.040,0.276,-5.337
0.121,0.037,0.273,-5.337
0.193,0.033,0.268,-5.337
0.200,0.036,0.267,-5.337
0.128,0.039,0.267,-5.337
0.117,0.036,0.270,-5.337
0.161,0.033,0.271,-5.337
0.247,0.032,0.270,-5.337
0.285,0.037,0.271,-5.337
0.237,0.038,0.274,-5.337
0.229,0.035,0.273,-5.337
0.252,0.037,0.271,-5.337
0.250,0.044,0.276,-5.337
0.237,0.041,0.278,-5.337
0.273,0.037,0.276,-5.337
0.309,0.034,0.274,-5.337
0.274,0.037,0.273,-5.337
0.254,0.039,0.273,-5.337
0.208,0.039,0.275,-5.337
0.144,0.040,0.274,-5.337
0.151,0.041,0.275,-5.337
0.176,0.039,0.274,-5.337
0.192,0.037,0.274,-5.337
0.108,0.039,0.272,-5.337
0.134,0.036,0.272,-5.337
0.177,0.035,0.274,-5.337
0.211,0.038,0.276,-5.337
0.319,0.032,0.271,-5.337
0.295,0.038,0.271,-5.337
0.140,0.042,0.275,-5.337
0.091,0.044,0.277,-5.337
0.162,0.041,0.277,-5.337
0.222,0.042,0.275,-5.337
0.213,0.041,0.275,-5.337
0.212,0.037,0.276,-5.337
0.238,0.036,0.272,-5.337
0.228,0.037,0.269,-5.337
0.191,0.038,0.270,-5.337
0.209,0.037,0.273,-5.337
0.174,0.035,0.279,-5.337
0.161,0.033,0.278,-5.337
0.219,0.030,0.277,-5.337
0.312,0.034,0.278,-5.337
0.260,0.035,0.277,-5.337
0.155,0.035,0.275,-5.337
0.168,0.037,0.279,-5.337
0.249,0.037,0.280,-5.337
0.292,0.038,0.276,-5.337
0.266,0.037,0.269,-5.337
0.262,0.038,0.270,-5.337
0.243,0.038,0.273,-5.337
0.245,0.039,0.269,-5.337
0.263,0.040,0.269,-5.337
0.208,0.040,0.272,-5.337
0.185,0.039,0.276,-5.337
0.228,0.038,0.277,-5.337
0.292,0.039,0.277,-5.337
0.279,0.040,0.276,-5.337
0.290,0.038,0.276,-5.337
0.282,0.039,0.274,-5.337
0.205,0.040,0.270,-5.337
0.182,0.039,0.273,-5.337
0.257,0.039,0.278,-5.337
0.267,0.039,0.279,-5.337
0.204,0.038,0.279,-5.337
0.164,0.037,0.275,-5.337
0.133,0.042,0.272,-5.337
0.197,0.039,0.272,-5.337
0.248,0.036,0.278,-5.337
0.192,0.039,0.280,-5.337
0.192,0.042,0.277,-5.337
0.235,0.038,0.270,-5.337
0.213,0.036,0.267,-5.337
0.202,0.030,0.269,-5.337
0.261,0.031,0.270,-5.337
0.296,0.034,0.270,-5.337
0.271,0.036,0.271,-5.337
0.255,0.030,0.272,-5.337
0.267,0.034,0.272,-5.337
0.237,0.035,0.271,-5.337
0.236,0.035,0.275,-5.337
0.200,0.035,0.276,-5.337
0.227,0.035,0.275,-5.337
0.323,0.032,0.276,-5.337
0.338,0.030,0.277,-5.337
0.240,0.032,0.275,-5.337
0.205,0.033,0.273,-5.337
0.194,0.032,0.271,-5.337
0.171,0.035,0.271,-5.337
0.137,0.042,0.271,-5.337
0.181,0.041,0.269,-5.337
0.220,0.038,0.272,-5.337
0.226,0.037,0.279,-5.337
0.237,0.039,0.279,-5.337
0.234,0.039,0.275,-5.337
0.270,0.039,0.273,-5.337
0.290,0.035,0.278,-5.337
0.275,0.035,0.278,-5.337
0.213,0.035,0.275,-5.337
0.204,0.037,0.271,-5.337
0.192,0.040,0.272,-5.337
0.285,0.036,0.275,-5.337
0.323,0.034,0.276,-5.337
0.314,0.035,0.276,-5.337
0.267,0.037,0.274,-5.337
0.250,0.038,0.270,-5.337
0.241,0.038,0.272,-5.337
0.186,0.044,0.273,-5.337
0.181,0.042,0.273,-5.337
0.254,0.036,0.271,-5.337
0.292,0.035,0.271,-5.337
0.247,0.042,0.270,-5.337
0.190,0.043,0.273,-5.337
0.141,0.041,0.276,-5.337
0.138,0.037,0.277,-5.337
0.234,0.036,0.276,-5.337
0.222,0.039,0.274,-5.337
0.163,0.038,0.272,-5.337
0.186,0.038,0.276,-5.337
0.212,0.039,0.277,-5.337
0.181,0.042,0.275,-5.337
0.156,0.040,0.274,-5.337
0.225,0.040,0.274,-5.337
0.229,0.040,0.273,-5.337
0.224,0.042,0.273,-5.337
0.275,0.042,0.275,-5.337
0.239,0.046,0.277,-5.337
0.159,0.045,0.280,-5.337
0.140,0.041,0.275,-5.337
0.219,0.039,0.270,-5.337
0.295,0.037,0.268,-5.337
0.346,0.036,0.273,-5.337
0.261,0.037,0.274,-5.337
0.182,0.042,0.277,-5.337
0.169,0.044,0.279,-5.337
0.233,0.043,0.276,-5.337
0.233,0.040,0.274,-5.337
0.243,0.040,0.277,-5.337
0.199,0.041,0.277,-5.337
0.240,0.042,0.275,-5.337
0.217,0.042,0.275,-5.337
0.172,0.042,0.275,-5.337
0.162,0.042,0.273,-5.337
0.164,0.043,0.271,-5.337
0.195,0.041,0.269,-5.337
0.234,0.042,0.271,-5.337
0.195,0.047,0.273,-5.337
0.168,0.046,0.272,-5.337
0.194,0.044,0.272,-5.337
0.229,0.043,0.271,-5.337
0.182,0.044,0.273,-5.337
0.144,0.046,0.274,-5.337
0.234,0.042,0.276,-5.337
0.263,0.038,0.278,-5.337
0.245,0.039,0.277,-5.337
0.258,0.040,0.277,-5.337
0.250,0.042,0.274,-5.337
0.221,0.043,0.272,-5.337
0.174,0.046,0.277,-5.337
0.172,0.046,0.276,-5.337
0.244,0.040,0.270,-5.337
0.260,0.038,0.269,-5.337
0.318,0.042,0.272,-5.337
0.288,0.045,0.272,-5.337
0.301,0.042,0.272,-5.337
0.347,0.041,0.275,-5.337
0.245,0.045,0.278,-5.337
0.192,0.046,0.279,-5.337
0.243,0.043,0.278,-5.337
0.273,0.042,0.278,-5.337
0.252,0.044,0.275,-5.337
0.215,0.046,0.273,-5.337
0.164,0.044,0.269,-5.337
0.175,0.045,0.267,-5.337
0.193,0.043,0.269,-5.337
0.249,0.042,0.274,-5.337
0.240,0.042,0.279,-5.337
0.184,0.045,0.277,-5.337
0.147,0.044,0.274,-5.337
0.168,0.043,0.274,-5.337
0.219,0.044,0.277,-5.337
0.178,0.049,0.276,-5.337
0.179,0.046,0.273,-5.337
0.223,0.046,0.276,-5.337
0.224,0.046,0.274,-5.337
0.162,0.050,0.270,-5.337
0.109,0.050,0.268,-5.337
0.091,0.049,0.267,-5.337
0.146,0.046,0.273,-5.337
0.203,0.046,0.274,-5.337
0.167,0.045,0.273,-5.337
0.184,0.043,0.271,-5.337
0.169,0.043,0.270,-5.337
0.194,0.044,0.268,-5.337
0.194,0.048,0.274,-5.337
0.148,0.049,0.276,-5.337
0.218,0.046,0.276,-5.337
0.258,0.048,0.274,-5.337
0.186,0.049,0.273,-5.337
0.177,0.050,0.274,-5.337
0.205,0.049,0.277,-5.337
0.250,0.044,0.277,-5.337
0.263,0.045,0.273,-5.337
0.126,0.054,0.266,-5.337
0.004,0.057,0.267,-5.337
0.127,0.050,0.273,-5.337
0.192,0.051,0.276,-5.337
0.164,0.051,0.273,-5.337
0.218,0.050,0.274,-5.337
0.258,0.050,0.274,-5.337
0.256,0.049,0.271,-5.337
0.265,0.051,0.272,-5.337
0.252,0.053,0.276,-5.337
0.218,0.052,0.278,-5.337
0.169,0.051,0.277,-5.337
0.145,0.053,0.276,-5.337
0.104,0.051,0.272,-5.337
0.100,0.047,0.274,-5.337
0.176,0.049,0.272,-5.337
0.206,0.051,0.272,-5.337
0.175,0.049,0.272,-5.337
0.160,0.051,0.274,-5.337
0.145,0.054,0.276,-5.337
0.180,0.054,0.278,-5.337
0.200,0.053,0.277,-5.337
0.164,0.054,0.276,-5.337
0.085,0.057,0.274,-5.337
0.106,0.057,0.273,-5.337
0.173,0.055,0.269,-5.337
0.190,0.056,0.269,-5.337
0.210,0.058,0.270,-5.337
0.263,0.055,0.270,-5.337
0.260,0.054,0.270,-5.337
0.220,0.055,0.271,-5.337
0.167,0.052,0.274,-5.337
0.150,0.055,0.273,-5.337
0.148,0.056,0.271,-5.337
0.129,0.057,0.266,-5.337
0.127,0.060,0.265,-5.337
0.128,0.062,0.270,-5.337
0.117,0.058,0.276,-5.337
0.126,0.055,0.279,-5.337
0.123,0.059,0.279,-5.337
0.170,0.057,0.275,-5.337
0.239,0.053,0.274,-5.337
0.268,0.051,0.274,-5.337
0.221,0.052,0.275,-5.337
0.196,0.048,0.273,-5.337
0.179,0.052,0.272,-5.337
0.125,0.054,0.268,-5.337
0.165,0.051,0.267,-5.337
0.213,0.052,0.269,-5.337
0.235,0.054,0.271,-5.337
0.230,0.054,0.275,-5.337
0.217,0.053,0.277,-5.337
0.167,0.054,0.278,-5.337
0.194,0.058,0.275,-5.337
0.232,0.062,0.272,-5.337
0.200,0.063,0.269,-5.337
0.167,0.063,0.268,-5.337
0.156,0.061,0.265,-5.337
0.165,0.059,0.267,-5.337
0.145,0.061,0.272,-5.337
0.145,0.058,0.273,-5.337
0.208,0.057,0.273,-5.337
0.167,0.060,0.278,-5.337
0.111,0.060,0.278,-5.337
0.123,0.059,0.272,-5.337
0.158,0.058,0.271,-5.337
0.179,0.057,0.271,-5.337
0.182,0.056,0.267,-5.337
0.197,0.059,0.266,-5.337
0.211,0.061,0.271,-5.337
0.222,0.059,0.277,-5.337
0.204,0.058,0.282,-5.337
0.196,0.054,0.276,-5.337
0.225,0.056,0.273,-5.337
0.186,0.059,0.273,-5.337
0.151,0.061,0.276,-5.337
0.166,0.061,0.276,-5.337
0.192,0.061,0.276,-5.337
0.150,0.058,0.275,-5.337
0.191,0.057,0.272,-5.337
0.235,0.056,0.271,-5.337
0.224,0.059,0.273,-5.337
0.279,0.054,0.276,-5.337
0.255,0.054,0.274,-5.337
0.184,0.056,0.272,-5.337
0.099,0.062,0.273,-5.337
0.136,0.063,0.274,-5.337
0.150,0.067,0.274,-5.337
0.076,0.067,0.274,-5.337
0.068,0.066,0.275,-5.337
0.098,0.067,0.274,-5.337
0.138,0.061,0.273,-5.337
0.164,0.061,0.277,-5.337
0.128,0.063,0.277,-5.337
0.159,0.059,0.275,-5.337
0.206,0.058,0.273,-5.337
0.161,0.060,0.274,-5.337
0.151,0.057,0.271,-5.337
0.095,0.055,0.269,-5.337
0.121,0.055,0.272,-5.337
0.094,0.060,0.278,-5.337
0.090,0.061,0.280,-5.337
0.171,0.059,0.277,-5.337
0.163,0.054,0.274,-5.337
0.172,0.054,0.273,-5.337
0.135,0.055,0.275,-5.337
0.163,0.054,0.275,-5.337
0.181,0.056,0.271,-5.337
0.174,0.055,0.272,-5.337
0.179,0.060,0.276,-5.337
0.166,0.059,0.278,-5.337
0.108,0.058,0.276,-5.337
0.141,0.059,0.275,-5.337
0.212,0.058,0.277,-5.337
0.263,0.055,0.273,-5.337
0.296,0.053,0.269,-5.337
0.210,0.057,0.268,-5.337
0.092,0.062,0.272,-5.337
0.105,0.062,0.274,-5.337
0.121,0.066,0.279,-5.337
0.093,0.066,0.278,-5.337
0.088,0.067,0.272,-5.337
0.167,0.065,0.271,-5.337
0.223,0.062,0.274,-5.337
0.203,0.061,0.276,-5.337
0.176,0.064,0.276,-5.337
0.152,0.065,0.275,-5.337
0.197,0.063,0.276,-5.337
0.254,0.061,0.276,-5.337
0.168,0.064,0.277,-5.337
0.093,0.068,0.277,-5.337
0.076,0.067,0.277,-5.337
0.139,0.063,0.277,-5.337
0.175,0.063,0.276,-5.337
0.131,0.064,0.275,-5.337
0.150,0.066,0.278,-5.337
0.191,0.066,0.279,-5.337
0.219,0.065,0.274,-5.337
0.195,0.066,0.270,-5.337
0.134,0.067,0.268,-5.337
0.112,0.068,0.270,-5.337
0.151,0.063,0.269,-5.337
0.219,0.064,0.268,-5.337
0.232,0.064,0.268,-5.337
0.147,0.068,0.268,-5.337
0.134,0.062,0.269,-5.337
0.231,0.063,0.276,-5.337
0.187,0.069,0.280,-5.337
0.123,0.068,0.280,-5.337
0.159,0.063,0.277,-5.337
0.187,0.067,0.277,-5.337
0.161,0.069,0.276,-5.337
0.139,0.066,0.274,-5.337
0.158,0.065,0.271,-5.337
0.192,0.067,0.269,-5.337
0.156,0.067,0.268,-5.337
0.144,0.065,0.270,-5.337
0.089,0.065,0.272,-5.337
0.134,0.067,0.272,-5.337
0.195,0.066,0.272,-5.337
0.107,0.067,0.272,-5.337
0.142,0.063,0.273,-5.337
0.267,0.061,0.274,-5.337
0.243,0.066,0.275,-5.337
0.167,0.067,0.273,-5.337
0.141,0.067,0.276,-5.337
0.071,0.068,0.281,-5.337
0.082,0.066,0.279,-5.337
0.087,0.065,0.274,-5.337
0.058,0.066,0.269,-5.337
0.137,0.064,0.267,-5.337
0.221,0.063,0.274,-5.337
0.251,0.061,0.277,-5.337
0.245,0.059,0.275,-5.337
0.197,0.063,0.273,-5.337
0.133,0.065,0.271,-5.337
0.148,0.063,0.271,-5.337
0.211,0.061,0.272,-5.337
0.207,0.060,0.275,-5.337
0.226,0.055,0.275,-5.337
0.238,0.055,0.273,-5.337
0.158,0.057,0.269,-5.337
0.129,0.059,0.268,-5.337
0.157,0.057,0.269,-5.337
0.197,0.061,0.272,-5.337
0.156,0.063,0.274,-5.337
0.149,0.061,0.274,-5.337
0.173,0.055,0.276,-5.337
0.215,0.054,0.277,-5.337
0.221,0.054,0.278,-5.337
0.228,0.057,0.276,-5.337
0.163,0.055,0.273,-5.337
0.143,0.056,0.273,-5.337
0.133,0.057,0.275,-5.337
0.087,0.057,0.276,-5.337
0.140,0.056,0.274,-5.337
0.162,0.061,0.272,-5.337
0.120,0.058,0.274,-5.337
0.129,0.051,0.273,-5.337
0.189,0.050,0.272,-5.337
0.151,0.053,0.272,-5.337
0.107,0.058,0.274,-5.337
0.179,0.055,0.272,-5.337
0.256,0.054,0.275,-5.337
0.168,0.058,0.276,-5.337
0.161,0.057,0.277,-5.337
0.206,0.056,0.277,-5.337
0.160,0.058,0.277,-5.337
0.130,0.054,0.278,-5.337
0.165,0.055,0.274,-5.337
0.200,0.051,0.269,-5.337
0.207,0.053,0.270,-5.337
0.207,0.054,0.271,-5.337
0.245,0.056,0.273,-5.337
0.214,0.058,0.272,-5.337
0.187,0.056,0.271,-5.337
0.170,0.056,0.273,-5.337
0.187,0.056,0.277,-5.337
0.154,0.058,0.279,-5.337
0.132,0.060,0.275,-5.337
0.123,0.062,0.275,-5.337
0.174,0.055,0.273,-5.337
0.215,0.054,0.274,-5.337
0.204,0.055,0.273,-5.337
0.148,0.056,0.276,-5.337
0.116,0.057,0.280,-5.337
0.135,0.056,0.280,-5.337
0.117,0.052,0.274,-5.337
0.162,0.056,0.272,-5.337
0.199,0.053,0.271,-5.337
0.290,0.048,0.274,-5.337
0.346,0.045,0.274,-5.337
0.342,0.047,0.275,-5.337
0.283,0.047,0.277,-5.337
0.223,0.048,0.275,-5.337
0.219,0.051,0.269,-5.337
0.255,0.050,0.266,-5.337
0.245,0.053,0.265,-5.337
0.194,0.058,0.269,-5.337
0.119,0.055,0.277,-5.337
0.180,0.052,0.280,-5.337
0.262,0.048,0.279,-5.337
0.245,0.047,0.275,-5.337
0.184,0.046,0.273,-5.337
0.248,0.050,0.273,-5.337
0.233,0.053,0.275,-5.337
0.227,0.053,0.276,-5.337
0.230,0.056,0.275,-5.337
0.195,0.057,0.272,-5.337
0.205,0.056,0.273,-5.337
0.207,0.054,0.273,-5.337
0.230,0.056,0.272,-5.337
0.166,0.058,0.270,-5.337
0.135,0.057,0.270,-5.337
0.132,0.056,0.273,-5.337
0.140,0.056,0.272,-5.337
0.159,0.056,0.272,-5.337
0.115,0.058,0.270,-5.337
0.083,0.056,0.273,-5.337
0.116,0.053,0.277,-5.337
0.189,0.053,0.280,-5.337
0.264,0.051,0.281,-5.337
0.256,0.052,0.279,-5.337
0.210,0.053,0.274,-5.337
0.166,0.055,0.272,-5.337
0.205,0.048,0.272,-5.337
0.282,0.048,0.273,-5.337
0.192,0.050,0.271,-5.337
0.140,0.048,0.273,-5.337
0.187,0.045,0.273,-5.337
0.191,0.046,0.276,-5.337
0.177,0.046,0.272,-5.337
0.173,0.045,0.269,-5.337
0.165,0.047,0.270,-5.337
0.123,0.052,0.276,-5.337
0.141,0.052,0.276,-5.337
0.199,0.050,0.272,-5.337
0.269,0.043,0.271,-5.337
0.227,0.046,0.274,-5.337
0.170,0.049,0.276,-5.337
0.067,0.054,0.277,-5.337
0.064,0.053,0.274,-5.337
0.199,0.050,0.271,-5.337
0.246,0.048,0.274,-5.337
0.287,0.045,0.274,-5.337
0.224,0.049,0.271,-5.337
0.200,0.050,0.272,-5.337
0.202,0.048,0.275,-5.337
0.160,0.046,0.275,-5.337
0.128,0.048,0.275,-5.337
0.199,0.045,0.273,-5.337
0.236,0.050,0.274,-5.337
0.200,0.051,0.272,-5.337
0.217,0.051,0.271,-5.337
0.202,0.050,0.271,-5.337
0.220,0.050,0.272,-5.337
0.144,0.049,0.275,-5.337
0.180,0.047,0.276,-5.337
0.205,0.047,0.275,-5.337
0.220,0.044,0.277,-5.337
0.219,0.043,0.277,-5.337
0.201,0.046,0.275,-5.337
0.225,0.049,0.272,-5.337
0.238,0.051,0.270,-5.337
0.241,0.046,0.270,-5.337
0.248,0.045,0.270,-5.337
0.237,0.045,0.274,-5.337
0.212,0.046,0.275,-5.337
0.198,0.046,0.276,-5.337
0.175,0.048,0.273,-5.337
0.216,0.044,0.275,-5.337
0.272,0.045,0.274,-5.337
0.206,0.047,0.273,-5.337
0.178,0.047,0.271,-5.337
0.194,0.050,0.272,-5.337
0.204,0.049,0.273,-5.337
0.171,0.047,0.270,-5.337
0.159,0.045,0.268,-5.337
0.262,0.043,0.271,-5.337
0.303,0.043,0.273,-5.337
0.216,0.047,0.275,-5.337
0.098,0.051,0.276,-5.337
0.077,0.052,0.271,-5.337
0.144,0.046,0.271,-5.337
0.236,0.042,0.271,-5.337
0.235,0.040,0.273,-5.337
0.278,0.039,0.274,-5.337
0.249,0.039,0.274,-5.337
0.235,0.041,0.272,-5.337
0.264,0.042,0.274,-5.337
0.230,0.044,0.271,-5.337
0.145,0.044,0.272,-5.337
0.193,0.041,0.273,-5.337
0.286,0.039,0.272,-5.337
0.307,0.040,0.271,-5.337
0.258,0.043,0.270,-5.337
0.247,0.043,0.272,-5.337
0.314,0.042,0.276,-5.337
0.329,0.043,0.279,-5.337
0.280,0.046,0.279,-5.337
0.258,0.048,0.274,-5.337
0.272,0.050,0.270,-5.337
0.244,0.047,0.269,-5.337
0.237,0.047,0.269,-5.337
0.281,0.048,0.269,-5.337
0.245,0.049,0.271,-5.337
0.223,0.045,0.271,-5.337
0.226,0.044,0.272,-5.337
0.253,0.045,0.278,-5.337
0.256,0.048,0.279,-5.337
0.191,0.049,0.278,-5.337
0.167,0.048,0.277,-5.337
0.276,0.048,0.271,-5.337
0.259,0.049,0.269,-5.337
0.196,0.051,0.272,-5.337
0.135,0.051,0.275,-5.337
0.184,0.049,0.275,-5.337
0.197,0.045,0.271,-5.337
0.190,0.045,0.268,-5.337
0.175,0.046,0.270,-5.337
0.223,0.042,0.271,-5.337
0.269,0.044,0.272,-5.337
0.255,0.045,0.276,-5.337
0.176,0.045,0.280,-5.337
0.125,0.045,0.277,-5.337
0.135,0.046,0.276,-5.337
0.175,0.043,0.277,-5.337
0.195,0.048,0.277,-5.337
0.209,0.048,0.277,-5.337
0.274,0.048,0.277,-5.337
0.229,0.049,0.279,-5.337
0.211,0.048,0.281,-5.337
0.244,0.045,0.277,-5.337
0.221,0.046,0.275,-5.337
0.236,0.046,0.274,-5.337
0.247,0.045,0.273,-5.337
0.177,0.044,0.269,-5.337
0.171,0.043,0.271,-5.337
0.247,0.041,0.275,-5.337
0.249,0.042,0.277,-5.337
0.271,0.039,0.277,-5.337
0.303,0.047,0.277,-5.337
0.257,0.047,0.275,-5.337
0.227,0.042,0.275,-5.337
0.289,0.039,0.274,-5.337
0.317,0.041,0.271,-5.337
0.278,0.042,0.270,-5.337
0.259,0.042,0.275,-5.337
0.247,0.042,0.277,-5.337
0.235,0.043,0.272,-5.337
0.222,0.045,0.271,-5.337
0.230,0.045,0.273,-5.337
0.226,0.044,0.276,-5.337
0.244,0.043,0.276,-5.337
0.256,0.045,0.274,-5.337
0.185,0.049,0.270,-5.337
0.189,0.048,0.271,-5.337
0.228,0.048,0.271,-5.337
0.300,0.049,0.274,-5.337
0.271,0.046,0.276,-5.337
0.214,0.049,0.276,-5.337
0.191,0.050,0.274,-5.337
0.178,0.048,0.271,-5.337
0.191,0.044,0.269,-5.337
0.253,0.040,0.270,-5.337
0.284,0.044,0.274,-5.337
0.230,0.045,0.276,-5.337
0.195,0.040,0.274,-5.337
0.236,0.038,0.275,-5.337
0.254,0.039,0.280,-5.337
0.232,0.043,0.282,-5.337
0.213,0.041,0.279,-5.337
0.264,0.040,0.271,-5.337
0.312,0.037,0.270,-5.337
0.292,0.040,0.272,-5.337
0.208,0.040,0.274,-5.337
0.174,0.042,0.272,-5.337
0.255,0.040,0.271,-5.337
0.311,0.042,0.270,-5.337
0.221,0.047,0.272,-5.337
0.122,0.045,0.270,-5.337
0.139,0.046,0.270,-5.337
0.209,0.045,0.271,-5.337
0.233,0.044,0.271,-5.337
0.217,0.045,0.274,-5.337
0.228,0.048,0.275,-5.337
0.223,0.045,0.270,-5.337
0.207,0.045,0.270,-5.337
0.194,0.041,0.271,-5.337
0.248,0.043,0.271,-5.337
0.257,0.046,0.272,-5.337
0.240,0.044,0.273,-5.337
0.155,0.042,0.273,-5.337
0.138,0.042,0.273,-5.337
0.215,0.042,0.275,-5.337
0.271,0.043,0.275,-5.337
0.222,0.046,0.275,-5.337
0.155,0.049,0.273,-5.337
0.157,0.049,0.278,-5.337
0.187,0.048,0.279,-5.337
0.204,0.048,0.277,-5.337
0.178,0.050,0.274,-5.337
0.208,0.051,0.271,-5.337
0.235,0.049,0.270,-5.337
0.250,0.049,0.274,-5.337
0.211,0.053,0.277,-5.337
0.119,0.056,0.275,-5.337
0.161,0.051,0.273,-5.337
0.303,0.051,0.275,-5.337
0.318,0.051,0.273,-5.337
0.186,0.055,0.272,-5.337
0.138,0.053,0.272,-5.337
0.155,0.051,0.271,-5.337
0.147,0.049,0.271,-5.337
0.152,0.050,0.272,-5.337
0.181,0.051,0.276,-5.337
0.150,0.054,0.280,-5.337
0.112,0.051,0.279,-5.337
0.118,0.051,0.277,-5.337
0.200,0.052,0.276,-5.337
0.249,0.052,0.275,-5.337
0.191,0.053,0.272,-5.337
0.139,0.052,0.273,-5.337
0.250,0.051,0.276,-5.337
0.326,0.047,0.277,-5.337
0.292,0.049,0.276,-5.337
0.272,0.050,0.275,-5.337
0.267,0.051,0.274,-5.337
0.246,0.054,0.276,-5.337
0.192,0.053,0.275,-5.337
0.123,0.051,0.273,-5.337
0.151,0.050,0.273,-5.337
0.195,0.049,0.273,-5.337
0.240,0.051,0.271,-5.337
0.261,0.051,0.273,-5.337
0.276,0.049,0.272,-5.337
0.243,0.048,0.275,-5.337
0.215,0.048,0.276,-5.337
0.214,0.048,0.277,-5.337
0.201,0.048,0.276,-5.337
0.206,0.050,0.275,-5.337
0.222,0.051,0.271,-5.337
0.238,0.055,0.273,-5.337
0.119,0.056,0.276,-5.337
0.054,0.054,0.277,-5.337
0.100,0.051,0.271,-5.337
0.113,0.053,0.267,-5.337
0.105,0.055,0.271,-5.337
0.124,0.057,0.277,-5.337
0.129,0.053,0.278,-5.337
0.170,0.051,0.275,-5.337
0.177,0.052,0.271,-5.337
0.209,0.054,0.272,-5.337
0.234,0.055,0.273,-5.337
0.274,0.053,0.274,-5.337
0.222,0.056,0.279,-5.337
0.170,0.057,0.279,-5.337
0.168,0.053,0.278,-5.337
0.216,0.053,0.275,-5.337
0.194,0.058,0.272,-5.337
0.183,0.057,0.270,-5.337
0.273,0.050,0.272,-5.337
0.340,0.048,0.277,-5.337
0.222,0.055,0.280,-5.337
0.155,0.058,0.274,-5.337
0.102,0.058,0.271,-5.337
0.137,0.060,0.269,-5.337
0.158,0.062,0.270,-5.337
0.180,0.058,0.273,-5.337
0.188,0.055,0.277,-5.337
0.164,0.055,0.277,-5.337
0.205,0.054,0.276,-5.337
0.228,0.052,0.274,-5.337
0.240,0.051,0.273,-5.337
0.286,0.053,0.272,-5.337
0.254,0.056,0.273,-5.337
0.192,0.056,0.274,-5.337
0.160,0.055,0.274,-5.337
0.187,0.056,0.274,-5.337
0.177,0.057,0.274,-5.337
0.175,0.056,0.274,-5.337
0.200,0.055,0.274,-5.337
0.182,0.054,0.274,-5.337
0.184,0.052,0.270,-5.337
0.174,0.054,0.269,-5.337
0.128,0.057,0.269,-5.337
0.124,0.061,0.271,-5.337
0.150,0.059,0.272,-5.337
0.199,0.056,0.272,-5.337
0.177,0.055,0.275,-5.337
0.189,0.055,0.278,-5.337
0.164,0.055,0.280,-5.337
0.207,0.055,0.284,-5.337
0.290,0.051,0.277,-5.337
0.280,0.055,0.269,-5.337
0.226,0.058,0.267,-5.337
0.221,0.060,0.273,-5.337
0.212,0.060,0.277,-5.337
0.131,0.062,0.273,-5.337
0.087,0.062,0.271,-5.337
0.132,0.060,0.274,-5.337
0.198,0.056,0.275,-5.337
0.145,0.060,0.274,-5.337
0.121,0.063,0.275,-5.337
0.194,0.057,0.274,-5.337
0.272,0.056,0.276,-5.337
0.260,0.058,0.271,-5.337
0.269,0.054,0.269,-5.337
0.261,0.054,0.268,-5.337
0.221,0.056,0.268,-5.337
0.218,0.056,0.269,-5.337
0.204,0.057,0.273,-5.337
0.192,0.058,0.276,-5.337
0.236,0.059,0.280,-5.337
0.194,0.060,0.282,-5.337
0.133,0.058,0.277,-5.337
0.138,0.059,0.274,-5.337
0.113,0.059,0.274,-5.337
0.100,0.059,0.273,-5.337
0.163,0.058,0.273,-5.337
0.129,0.061,0.273,-5.337
0.096,0.063,0.272,-5.337
0.164,0.058,0.274,-5.337
0.164,0.058,0.273,-5.337
0.145,0.058,0.273,-5.337
0.159,0.054,0.272,-5.337
0.200,0.054,0.274,-5.337
0.206,0.058,0.271,-5.337
0.163,0.059,0.272,-5.337
0.153,0.058,0.273,-5.337
0.176,0.056,0.277,-5.337
0.163,0.058,0.277,-5.337
0.129,0.058,0.274,-5.337
0.169,0.056,0.269,-5.337
0.194,0.062,0.266,-5.337
0.171,0.061,0.269,-5.337
0.174,0.060,0.274,-5.337
0.177,0.057,0.278,-5.337
0.185,0.054,0.282,-5.337
0.230,0.057,0.279,-5.337
0.269,0.057,0.271,-5.337
0.204,0.060,0.269,-5.337
0.112,0.063,0.272,-5.337
0.057,0.062,0.271,-5.337
0.062,0.060,0.267,-5.337
0.114,0.059,0.267,-5.337
0.147,0.057,0.269,-5.337
0.155,0.062,0.273,-5.337
0.117,0.063,0.271,-5.337
0.139,0.063,0.271,-5.337
0.201,0.059,0.274,-5.337
0.244,0.061,0.276,-5.337
0.191,0.064,0.278,-5.337
0.134,0.067,0.277,-5.337
0.155,0.062,0.272,-5.337
0.214,0.058,0.272,-5.337
0.203,0.058,0.271,-5.337
0.202,0.059,0.271,-5.337
0.176,0.066,0.274,-5.337
0.195,0.065,0.276,-5.337
0.153,0.061,0.275,-5.337
0.146,0.064,0.272,-5.337
0.175,0.064,0.272,-5.337
0.152,0.063,0.274,-5.337
0.135,0.064,0.276,-5.337
0.205,0.061,0.272,-5.337
0.233,0.059,0.273,-5.337
0.161,0.062,0.275,-5.337
0.114,0.066,0.275,-5.337
0.163,0.065,0.274,-5.337
0.177,0.065,0.275,-5.337
0.137,0.062,0.273,-5.337
0.131,0.065,0.274,-5.337
0.171,0.066,0.274,-5.337
0.185,0.067,0.272,-5.337
0.134,0.067,0.271,-5.337
0.096,0.066,0.271,-5.337
0.125,0.066,0.271,-5.337
0.164,0.068,0.276,-5.337
0.146,0.072,0.277,-5.337
0.103,0.072,0.275,-5.337
0.102,0.075,0.271,-5.337
0.121,0.074,0.273,-5.337
0.145,0.071,0.276,-5.337
0.107,0.067,0.276,-5.337
0.122,0.069,0.275,-5.337
0.111,0.073,0.275,-5.337
0.078,0.068,0.278,-5.337
0.121,0.064,0.278,-5.337
0.103,0.065,0.273,-5.337
0.116,0.064,0.269,-5.337
0.183,0.063,0.274,-5.337
0.249,0.060,0.277,-5.337
0.238,0.063,0.278,-5.337
0.199,0.060,0.277,-5.337
0.240,0.060,0.278,-5.337
0.162,0.066,0.276,-5.337
0.029,0.068,0.275,-5.337
0.069,0.066,0.268,-5.337
0.164,0.062,0.267,-5.337
0.155,0.059,0.272,-5.337
0.176,0.063,0.280,-5.337
0.117,0.065,0.283,-5.337
0.137,0.063,0.281,-5.337
0.222,0.062,0.277,-5.337
0.230,0.065,0.276,-5.337
0.253,0.065,0.275,-5.337
0.205,0.067,0.272,-5.337
0.226,0.064,0.272,-5.337
0.223,0.065,0.272,-5.337
0.156,0.068,0.276,-5.337
0.123,0.068,0.275,-5.337
0.126,0.064,0.273,-5.337
0.183,0.063,0.271,-5.337
0.218,0.063,0.276,-5.337
0.175,0.062,0.276,-5.337
0.096,0.062,0.271,-5.337
0.086,0.063,0.273,-5.337
0.135,0.064,0.278,-5.337
0.168,0.066,0.282,-5.337
0.137,0.067,0.280,-5.337
0.194,0.062,0.277,-5.337
0.165,0.064,0.274,-5.337
0.128,0.068,0.271,-5.337
0.187,0.067,0.272,-5.337
0.172,0.068,0.273,-5.337
0.165,0.067,0.272,-5.337
0.167,0.067,0.275,-5.337
0.159,0.068,0.279,-5.337
0.189,0.067,0.278,-5.337
0.205,0.066,0.271,-5.337
0.215,0.064,0.270,-5.337
0.233,0.064,0.273,-5.337
0.175,0.068,0.278,-5.337
0.215,0.070,0.278,-5.337
0.179,0.069,0.275,-5.337
0.202,0.064,0.273,-5.337
0.240,0.062,0.273,-5.337
0.193,0.062,0.274,-5.337
0.132,0.068,0.275,-5.337
0.070,0.067,0.276,-5.337
0.135,0.064,0.273,-5.337
0.134,0.063,0.272,-5.337
0.098,0.063,0.276,-5.337
0.143,0.062,0.275,-5.337
0.160,0.060,0.276,-5.337
0.192,0.059,0.276,-5.337
0.151,0.063,0.277,-5.337
0.182,0.059,0.271,-5.337
0.273,0.055,0.269,-5.337
0.282,0.051,0.276,-5.337
0.262,0.053,0.279,-5.337
0.210,0.057,0.279,-5.337
0.170,0.062,0.273,-5.337
0.171,0.060,0.270,-5.337
0.242,0.057,0.270,-5.337
0.260,0.058,0.274,-5.337
0.133,0.059,0.276,-5.337
0.082,0.063,0.276,-5.337
0.132,0.061,0.276,-5.337
0.168,0.055,0.275,-5.337
0.169,0.055,0.274,-5.337
0.153,0.055,0.272,-5.337
0.211,0.056,0.271,-5.337
0.244,0.057,0.273,-5.337
0.198,0.056,0.273,-5.337
0.204,0.053,0.272,-5.337
0.220,0.051,0.274,-5.337
0.173,0.054,0.275,-5.337
0.149,0.055,0.274,-5.337
0.168,0.057,0.273,-5.337
0.198,0.058,0.279,-5.337
0.208,0.059,0.281,-5.337
0.166,0.057,0.278,-5.337
0.125,0.055,0.274,-5.337
0.119,0.055,0.271,-5.337
0.100,0.060,0.271,-5.337
0.138,0.062,0.275,-5.337
0.170,0.058,0.279,-5.337
0.163,0.057,0.279,-5.337
0.199,0.056,0.278,-5.337
0.208,0.055,0.277,-5.337
0.172,0.056,0.274,-5.337
0.234,0.054,0.275,-5.337
0.260,0.051,0.277,-5.337
0.240,0.051,0.277,-5.337
0.239,0.054,0.272,-5.337
0.274,0.052,0.270,-5.337
0.277,0.052,0.274,-5.337
0.220,0.055,0.276,-5.337
0.217,0.051,0.277,-5.337
0.215,0.052,0.273,-5.337
0.167,0.056,0.271,-5.337
0.119,0.056,0.271,-5.337
0.136,0.053,0.276,-5.337
0.231,0.051,0.280,-5.337
0.250,0.056,0.281,-5.337
0.215,0.055,0.280,-5.337
0.180,0.054,0.273,-5.337
0.151,0.053,0.270,-5.337
0.140,0.053,0.272,-5.337
0.206,0.047,0.274,-5.337
0.249,0.048,0.275,-5.337
0.246,0.047,0.275,-5.337
0.227,0.048,0.277,-5.337
0.165,0.052,0.275,-5.337
0.193,0.050,0.273,-5.337
0.292,0.048,0.274,-5.337
0.256,0.049,0.275,-5.337
0.170,0.051,0.279,-5.337
0.147,0.056,0.280,-5.337
0.127,0.055,0.277,-5.337
0.111,0.055,0.276,-5.337
0.140,0.052,0.281,-5.337
0.139,0.047,0.279,-5.337
0.175,0.047,0.276,-5.337
0.210,0.051,0.272,-5.337
0.188,0.054,0.271,-5.337
0.186,0.052,0.275,-5.337
0.224,0.054,0.276,-5.337
0.217,0.052,0.273,-5.337
0.165,0.051,0.273,-5.337
0.154,0.052,0.274,-5.337
0.138,0.049,0.274,-5.337
0.170,0.049,0.273,-5.337
0.173,0.051,0.274,-5.337
0.134,0.049,0.273,-5.337
0.147,0.046,0.276,-5.337
0.193,0.045,0.278,-5.337
0.239,0.042,0.276,-5.337
0.213,0.043,0.275,-5.337
0.130,0.043,0.276,-5.337
0.153,0.047,0.272,-5.337
0.179,0.047,0.268,-5.337
0.264,0.041,0.268,-5.337
0.297,0.041,0.274,-5.337
0.233,0.042,0.280,-5.337
0.198,0.041,0.279,-5.337
0.213,0.043,0.280,-5.337
0.268,0.042,0.278,-5.337
0.273,0.046,0.278,-5.337
0.209,0.048,0.276,-5.337
0.103,0.049,0.273,-5.337
0.104,0.044,0.273,-5.337
0.205,0.042,0.275,-5.337
0.266,0.038,0.272,-5.337
0.189,0.044,0.271,-5.337
0.176,0.046,0.272,-5.337
0.203,0.050,0.273,-5.337
0.256,0.049,0.273,-5.337
0.238,0.049,0.275,-5.337
0.181,0.048,0.277,-5.337
0.175,0.048,0.280,-5.337
0.109,0.052,0.280,-5.337
0.164,0.050,0.278,-5.337
0.278,0.045,0.278,-5.337
0.267,0.047,0.277,-5.337
0.242,0.044,0.275,-5.337
0.295,0.044,0.272,-5.337
0.248,0.047,0.271,-5.337
0.211,0.048,0.274,-5.337
0.254,0.045,0.280,-5.337
0.244,0.048,0.280,-5.337
0.253,0.046,0.278,-5.337
0.267,0.046,0.273,-5.337
0.266,0.046,0.274,-5.337
0.250,0.044,0.274,-5.337
0.241,0.044,0.276,-5.337
0.157,0.045,0.278,-5.337
0.172,0.045,0.277,-5.337
0.186,0.044,0.275,-5.337
0.161,0.042,0.274,-5.337
0.187,0.038,0.275,-5.337
0.241,0.037,0.279,-5.337
0.256,0.038,0.279,-5.337
0.267,0.038,0.278,-5.337
0.267,0.042,0.275,-5.337
0.291,0.043,0.271,-5.337
0.318,0.043,0.273,-5.337
0.313,0.045,0.277,-5.337
0.300,0.044,0.275,-5.337
0.311,0.042,0.270,-5.337
0.290,0.045,0.270,-5.337
0.227,0.043,0.270,-5.337
0.198,0.044,0.271,-5.337
0.228,0.043,0.273,-5.337
0.284,0.039,0.275,-5.337
0.268,0.042,0.275,-5.337
0.230,0.044,0.274,-5.337
0.209,0.041,0.272,-5.337
0.181,0.042,0.274,-5.337
0.216,0.045,0.277,-5.337
0.221,0.049,0.275,-5.337
0.255,0.046,0.272,-5.337
0.262,0.045,0.275,-5.337
0.251,0.047,0.277,-5.337
0.283,0.044,0.276,-5.337
0.238,0.046,0.275,-5.337
0.211,0.047,0.275,-5.337
0.180,0.048,0.272,-5.337
0.192,0.048,0.271,-5.337
0.190,0.051,0.271,-5.337
0.173,0.050,0.267,-5.337
0.211,0.050,0.269,-5.337
0.219,0.049,0.269,-5.337
0.238,0.050,0.271,-5.337
0.199,0.049,0.272,-5.337
0.161,0.048,0.273,-5.337
0.168,0.045,0.274,-5.337
0.148,0.046,0.275,-5.337
0.134,0.046,0.274,-5.337
0.179,0.047,0.273,-5.337
0.207,0.043,0.276,-5.337
0.242,0.044,0.277,-5.337
0.270,0.043,0.276,-5.337
0.255,0.043,0.275,-5.337
0.278,0.043,0.272,-5.337
0.274,0.044,0.271,-5.337
0.184,0.049,0.272,-5.337
0.189,0.049,0.272,-5.337
0.226,0.046,0.276,-5.337
0.285,0.042,0.276,-5.337
0.297,0.040,0.271,-5.337
0.260,0.043,0.267,-5.337
0.217,0.046,0.273,-5.337
0.166,0.047,0.277,-5.337
0.091,0.046,0.277,-5.337
0.129,0.044,0.273,-5.337
0.226,0.042,0.273,-5.337
0.293,0.040,0.275,-5.337
0.287,0.041,0.274,-5.337
0.218,0.044,0.274,-5.337
0.165,0.045,0.276,-5.337
0.247,0.042,0.277,-5.337
0.249,0.044,0.279,-5.337
0.173,0.048,0.278,-5.337
0.252,0.045,0.277,-5.337
0.317,0.046,0.274,-5.337
0.283,0.046,0.269,-5.337
0.250,0.048,0.268,-5.337
0.213,0.047,0.270,-5.337
0.203,0.050,0.271,-5.337
0.231,0.048,0.270,-5.337
0.196,0.049,0.272,-5.337
0.246,0.050,0.273,-5.337
