[Parameters]
Operating Mode, Feedback
Subject  AA..ZZ, WT
Session  0..99, 44
No. Trials (1..9999), 500
Mouse Number, 1
Pressure Probe Serial Port, \00\00\00\04COM4
Save additional csv file, TRUE
Save using mouse number, FALSE
A/D Monitor Rate (Hz), 30000.000000
A/D Stimulate Rate (Hz), 30000.000000
A/D input range (+/- V), 5
No. Channels to acquire (N), 2
Pre-Stim Acq. time (ms), 100.000000
Post-Stim Acq. time (ms), 900.000000
Analysis window parameters.M-response Start (ms), 1.100000
Analysis window parameters.M-response Duration (ms), 5.500000
Analysis window parameters.H-response Duration (ms), 6.000000
Analysis window parameters.H-response Start (ms), 6.500000
Feedback window, H response
Proportional gain, 0.100000
Target value, 6.700000
Feedback Ch., 1
Stim Channel to Control (1-4), 4
Trial, 23
Wait for EMG Conditions, FALSE
Channel to monitor (0 - N-1), 1
EMG Hi Limit, 2.000000
EMG Lo Limit, 0.001000
Inter-Stim delay (sec), 10.000000
EMG Monitor Mode, Mean
Time to run Long Stim.(sec), 30
Save Long Stim Data?, OFF
BURST Save time (ms), 1000
BURST Save Interval (x above), 10
Long-Stim. Rep. Rate (Hz), 10.000000
Stim type cluster array.<size(s)>, 4
Stim type cluster array 0.Stimulus Output, Electrical
Stim type cluster array 1.Stimulus Output, OFF
Stim type cluster array 2.Stimulus Output, OFF
Stim type cluster array 3.Stimulus Output, Motor Length
Stim specs cluster array.<size(s)>, 4
Stim specs cluster array 0.Initial Stimulus ampl., 0.300000
Stim specs cluster array 0.Maximum Stimulus, 1.120000
Stim specs cluster array 0.#Pulses in train, 4
Stim specs cluster array 0.Peak Level time (ms), 1.000000
Stim specs cluster array 0.Total pulse period (ms), 150.000000
Stim specs cluster array 0.Start Delay (ms), -50.000000
Stim specs cluster array 0.Pulse Shape, Square
Stim specs cluster array 0.Ramp/Rel. time (ms), 0.100000
Stim specs cluster array 0.Peak Amplitude (V), 0.120000
Stim specs cluster array 1.Initial Stimulus ampl., 0.000000
Stim specs cluster array 1.Maximum Stimulus, 0.000000
Stim specs cluster array 1.#Pulses in train, 3
Stim specs cluster array 1.Peak Level time (ms), 29.000000
Stim specs cluster array 1.Total pulse period (ms), 200.000000
Stim specs cluster array 1.Start Delay (ms), 0.000000
Stim specs cluster array 1.Pulse Shape, Square
Stim specs cluster array 1.Ramp/Rel. time (ms), 0.000000
Stim specs cluster array 1.Peak Amplitude (V), 2.000000
Stim specs cluster array 2.Initial Stimulus ampl., 0.000000
Stim specs cluster array 2.Maximum Stimulus, 0.000000
Stim specs cluster array 2.#Pulses in train, 1
Stim specs cluster array 2.Peak Level time (ms), 25.000000
Stim specs cluster array 2.Total pulse period (ms), 200.000000
Stim specs cluster array 2.Start Delay (ms), 0.000000
Stim specs cluster array 2.Pulse Shape, Square
Stim specs cluster array 2.Ramp/Rel. time (ms), 20.000000
Stim specs cluster array 2.Peak Amplitude (V), 10.000000
Stim specs cluster array 3.Initial Stimulus ampl., 0.000000
Stim specs cluster array 3.Maximum Stimulus, 15.000000
Stim specs cluster array 3.#Pulses in train, 25
Stim specs cluster array 3.Peak Level time (ms), 0.100000
Stim specs cluster array 3.Total pulse period (ms), 4.000000
Stim specs cluster array 3.Start Delay (ms), 205.000000
Stim specs cluster array 3.Pulse Shape, Triangle
Stim specs cluster array 3.Ramp/Rel. time (ms), 3.000000
Stim specs cluster array 3.Peak Amplitude (V), 0.500000
Force cal. (mN/Volt), 100.000000
Force Range (mN), 100.000000
Length cal. (mm/Volt), 10.000000
Length Range (mm), 10.000000
Stim. 1, 0.300000
Stim. 2, 0.000000
Stim. 3, 0.000000
Stim. 4, 0.000000
Monitor acquire time (ms), 100.000000
EMG graph Ymax, 0.100000
Travel limit (mm), 20.000000
Use Pressure Probe, FALSE
Pressure goal (g), 100
Speed (mm/sec), 5.000000
Dwell time (ms), 100.000000
Pressure limit (g), 500.000000
Channel amplitude offset, 0.000000

[DATA]

0.226,0.054,0.263,-5.337
0.176,0.055,0.264,-5.337
0.146,0.058,0.264,-5.337
0.175,0.061,0.263,-5.337
0.137,0.061,0.264,-5.337
0.105,0.061,0.261,-5.337
0.105,0.055,0.260,-5.337
0.118,0.055,0.263,-5.337
0.164,0.056,0.267,-5.337
0.175,0.056,0.265,-5.337
0.116,0.058,0.263,-5.337
0.112,0.056,0.261,-5.337
0.145,0.057,0.261,-5.337
0.107,0.055,0.258,-5.337
0.148,0.053,0.257,-5.337
0.199,0.052,0.258,-5.337
0.199,0.052,0.261,-5.337
0.185,0.051,0.262,-5.337
0.216,0.054,0.261,-5.337
0.189,0.058,0.261,-5.337
0.189,0.057,0.264,-5.337
0.178,0.055,0.261,-5.337
0.142,0.056,0.262,-5.337
0.124,0.057,0.261,-5.337
0.196,0.054,0.259,-5.337
0.205,0.052,0.258,-5.337
0.197,0.054,0.256,-5.337
0.210,0.055,0.255,-5.337
0.226,0.056,0.260,-5.337
0.214,0.057,0.263,-5.337
0.204,0.052,0.264,-5.337
0.186,0.052,0.264,-5.337
0.166,0.052,0.260,-5.337
0.183,0.052,0.259,-5.337
0.214,0.050,0.257,-5.337
0.176,0.053,0.258,-5.337
0.131,0.049,0.258,-5.337
0.173,0.048,0.260,-5.337
0.241,0.043,0.264,-5.337
0.277,0.043,0.260,-5.337
0.228,0.045,0.253,-5.337
0.162,0.045,0.257,-5.337
0.187,0.046,0.262,-5.337
0.168,0.047,0.265,-5.337
0.139,0.050,0.264,-5.337
0.148,0.053,0.261,-5.337
0.114,0.050,0.261,-5.337
0.082,0.052,0.261,-5.337
0.106,0.051,0.261,-5.337
0.110,0.050,0.260,-5.337
0.143,0.051,0.258,-5.337
0.193,0.052,0.254,-5.337
0.214,0.055,0.255,-5.337
0.171,0.057,0.255,-5.337
0.166,0.057,0.255,-5.337
0.155,0.058,0.254,-5.337
0.105,0.055,0.258,-5.337
0.128,0.050,0.258,-5.337
0.175,0.049,0.258,-5.337
0.228,0.046,0.258,-5.337
0.215,0.051,0.259,-5.337
0.123,0.053,0.260,-5.337
0.153,0.052,0.263,-5.337
0.181,0.048,0.263,-5.337
0.162,0.049,0.266,-5.337
0.097,0.052,0.267,-5.337
0.146,0.053,0.263,-5.337
0.208,0.049,0.256,-5.337
0.227,0.053,0.254,-5.337
0.204,0.056,0.254,-5.337
0.140,0.057,0.253,-5.337
0.110,0.054,0.255,-5.337
0.125,0.052,0.255,-5.337
0.169,0.055,0.257,-5.337
0.108,0.057,0.258,-5.337
0.115,0.050,0.259,-5.337
0.206,0.043,0.260,-5.337
0.222,0.045,0.259,-5.337
0.187,0.049,0.259,-5.337
0.197,0.049,0.261,-5.337
0.246,0.047,0.260,-5.337
0.255,0.050,0.257,-5.337
0.209,0.050,0.255,-5.337
0.243,0.046,0.255,-5.337
0.262,0.044,0.256,-5.337
0.207,0.048,0.255,-5.337
0.185,0.045,0.255,-5.337
0.198,0.042,0.258,-5.337
0.171,0.043,0.261,-5.337
0.110,0.048,0.261,-5.337
0.059,0.045,0.259,-5.337
0.062,0.047,0.258,-5.337
0.095,0.047,0.261,-5.337
0.169,0.043,0.260,-5.337
0.178,0.044,0.264,-5.337
0.142,0.047,0.267,-5.337
0.084,0.046,0.261,-5.337
0.109,0.044,0.255,-5.337
0.203,0.040,0.258,-5.337
0.244,0.040,0.261,-5.337
0.233,0.040,0.261,-5.337
0.250,0.041,0.257,-5.337
0.176,0.043,0.257,-5.337
0.154,0.042,0.259,-5.337
0.151,0.045,0.258,-5.337
0.180,0.044,0.257,-5.337
0.208,0.042,0.258,-5.337
0.204,0.040,0.258,-5.337
0.196,0.040,0.258,-5.337
0.200,0.044,0.257,-5.337
0.184,0.041,0.254,-5.337
0.182,0.039,0.255,-5.337
0.130,0.042,0.258,-5.337
0.110,0.042,0.260,-5.337
0.183,0.037,0.259,-5.337
0.190,0.039,0.258,-5.337
0.173,0.039,0.256,-5.337
0.202,0.036,0.259,-5.337
0.178,0.039,0.259,-5.337
0.193,0.040,0.261,-5.337
0.182,0.041,0.257,-5.337
0.156,0.041,0.256,-5.337
0.201,0.039,0.256,-5.337
0.193,0.042,0.260,-5.337
0.184,0.042,0.258,-5.337
0.162,0.040,0.257,-5.337
0.212,0.039,0.260,-5.337
0.312,0.038,0.262,-5.337
0.274,0.039,0.258,-5.337
0.199,0.041,0.255,-5.337
0.242,0.037,0.254,-5.337
0.259,0.038,0.257,-5.337
0.220,0.042,0.260,-5.337
0.240,0.042,0.261,-5.337
0.275,0.039,0.260,-5.337
0.240,0.038,0.261,-5.337
0.188,0.040,0.257,-5.337
0.216,0.039,0.255,-5.337
0.244,0.042,0.259,-5.337
0.182,0.042,0.260,-5.337
0.144,0.039,0.262,-5.337
0.190,0.036,0.259,-5.337
0.234,0.036,0.257,-5.337
0.246,0.040,0.255,-5.337
0.249,0.040,0.255,-5.337
0.266,0.038,0.256,-5.337
0.252,0.039,0.257,-5.337
0.213,0.040,0.258,-5.337
0.211,0.040,0.261,-5.337
0.172,0.039,0.265,-5.337
0.134,0.040,0.262,-5.337
0.141,0.040,0.260,-5.337
0.121,0.039,0.263,-5.337
0.116,0.039,0.262,-5.337
0.130,0.042,0.257,-5.337
0.133,0.043,0.258,-5.337
0.117,0.041,0.258,-5.337
0.174,0.043,0.260,-5.337
0.146,0.044,0.262,-5.337
0.151,0.044,0.265,-5.337
0.140,0.041,0.263,-5.337
0.128,0.039,0.258,-5.337
0.115,0.037,0.255,-5.337
0.144,0.036,0.257,-5.337
0.162,0.039,0.260,-5.337
0.174,0.039,0.264,-5.337
0.218,0.037,0.264,-5.337
0.222,0.035,0.262,-5.337
0.187,0.034,0.259,-5.337
0.170,0.038,0.257,-5.337
0.173,0.041,0.255,-5.337
0.154,0.045,0.256,-5.337
0.110,0.042,0.256,-5.337
0.124,0.041,0.260,-5.337
0.230,0.039,0.258,-5.337
0.260,0.039,0.257,-5.337
0.220,0.042,0.262,-5.337
0.211,0.044,0.266,-5.337
0.195,0.042,0.261,-5.337
0.196,0.042,0.257,-5.337
0.200,0.040,0.254,-5.337
0.152,0.039,0.255,-5.337
0.167,0.038,0.261,-5.337
0.183,0.036,0.266,-5.337
0.209,0.039,0.268,-5.337
0.222,0.037,0.263,-5.337
0.215,0.038,0.260,-5.337
0.198,0.037,0.260,-5.337
0.242,0.034,0.257,-5.337
0.243,0.035,0.256,-5.337
0.215,0.038,0.257,-5.337
0.182,0.038,0.256,-5.337
0.168,0.039,0.259,-5.337
0.170,0.040,0.266,-5.337
0.187,0.041,0.269,-5.337
0.178,0.041,0.264,-5.337
0.155,0.038,0.258,-5.337
0.200,0.032,0.260,-5.337
0.253,0.034,0.260,-5.337
0.213,0.038,0.260,-5.337
0.171,0.036,0.260,-5.337
0.193,0.036,0.259,-5.337
0.214,0.039,0.255,-5.337
0.227,0.039,0.255,-5.337
0.184,0.044,0.257,-5.337
0.118,0.045,0.262,-5.337
0.135,0.042,0.259,-5.337
0.180,0.041,0.255,-5.337
0.228,0.037,0.252,-5.337
0.272,0.038,0.255,-5.337
0.249,0.039,0.260,-5.337
0.235,0.039,0.265,-5.337
0.217,0.037,0.264,-5.337
0.204,0.039,0.261,-5.337
0.175,0.042,0.257,-5.337
0.192,0.043,0.257,-5.337
0.217,0.038,0.258,-5.337
0.249,0.035,0.261,-5.337
0.244,0.037,0.257,-5.337
0.198,0.038,0.256,-5.337
0.197,0.036,0.258,-5.337
0.242,0.035,0.259,-5.337
0.239,0.037,0.258,-5.337
0.217,0.038,0.262,-5.337
0.174,0.040,0.265,-5.337
0.217,0.038,0.264,-5.337
0.187,0.040,0.260,-5.337
0.155,0.038,0.259,-5.337
0.179,0.040,0.259,-5.337
0.188,0.041,0.259,-5.337
0.226,0.038,0.260,-5.337
0.257,0.040,0.261,-5.337
0.258,0.042,0.262,-5.337
0.232,0.037,0.261,-5.337
0.192,0.036,0.261,-5.337
0.202,0.033,0.262,-5.337
0.207,0.035,0.263,-5.337
0.185,0.040,0.261,-5.337
0.163,0.041,0.259,-5.337
0.177,0.035,0.260,-5.337
0.138,0.039,0.261,-5.337
0.117,0.038,0.258,-5.337
0.125,0.042,0.257,-5.337
0.103,0.043,0.261,-5.337
0.104,0.043,0.265,-5.337
0.136,0.043,0.266,-5.337
0.150,0.042,0.263,-5.337
0.205,0.042,0.260,-5.337
0.217,0.042,0.257,-5.337
0.258,0.042,0.255,-5.337
0.250,0.044,0.256,-5.337
0.206,0.044,0.262,-5.337
0.251,0.041,0.265,-5.337
0.239,0.042,0.267,-5.337
0.197,0.042,0.263,-5.337
0.182,0.046,0.261,-5.337
0.212,0.045,0.261,-5.337
0.236,0.045,0.259,-5.337
0.253,0.042,0.257,-5.337
0.262,0.043,0.257,-5.337
0.202,0.046,0.258,-5.337
0.146,0.052,0.261,-5.337
0.083,0.049,0.266,-5.337
0.126,0.043,0.271,-5.337
0.184,0.042,0.272,-5.337
0.201,0.044,0.264,-5.337
0.221,0.043,0.257,-5.337
0.295,0.041,0.253,-5.337
0.291,0.043,0.252,-5.337
0.180,0.046,0.258,-5.337
0.132,0.047,0.264,-5.337
0.150,0.046,0.265,-5.337
0.170,0.048,0.268,-5.337
0.197,0.044,0.268,-5.337
0.212,0.044,0.268,-5.337
0.205,0.044,0.264,-5.337
0.250,0.044,0.263,-5.337
0.229,0.046,0.264,-5.337
0.152,0.047,0.264,-5.337
0.185,0.044,0.260,-5.337
0.199,0.046,0.261,-5.337
0.150,0.050,0.265,-5.337
0.178,0.046,0.266,-5.337
0.220,0.039,0.264,-5.337
0.170,0.038,0.263,-5.337
0.160,0.039,0.258,-5.337
0.178,0.042,0.255,-5.337
0.201,0.043,0.256,-5.337
0.240,0.039,0.259,-5.337
0.203,0.041,0.261,-5.337
0.144,0.044,0.258,-5.337
0.231,0.040,0.259,-5.337
0.295,0.038,0.262,-5.337
0.306,0.042,0.264,-5.337
0.261,0.046,0.263,-5.337
0.207,0.045,0.262,-5.337
0.205,0.042,0.263,-5.337
0.198,0.044,0.264,-5.337
0.197,0.043,0.265,-5.337
0.187,0.047,0.261,-5.337
0.232,0.047,0.259,-5.337
0.209,0.050,0.260,-5.337
0.128,0.050,0.263,-5.337
0.123,0.049,0.263,-5.337
0.154,0.048,0.261,-5.337
0.200,0.045,0.257,-5.337
0.236,0.050,0.255,-5.337
0.224,0.053,0.256,-5.337
0.199,0.052,0.258,-5.337
0.219,0.048,0.257,-5.337
0.179,0.049,0.258,-5.337
0.172,0.051,0.256,-5.337
0.205,0.054,0.259,-5.337
0.151,0.053,0.263,-5.337
0.145,0.052,0.266,-5.337
0.163,0.051,0.262,-5.337
0.180,0.050,0.258,-5.337
0.138,0.047,0.258,-5.337
0.129,0.050,0.261,-5.337
0.201,0.051,0.261,-5.337
0.202,0.051,0.259,-5.337
0.156,0.051,0.258,-5.337
0.143,0.053,0.258,-5.337
0.131,0.054,0.257,-5.337
0.126,0.054,0.257,-5.337
0.108,0.052,0.262,-5.337
0.128,0.050,0.264,-5.337
0.178,0.048,0.264,-5.337
0.193,0.048,0.259,-5.337
0.184,0.050,0.254,-5.337
0.202,0.050,0.255,-5.337
0.174,0.053,0.261,-5.337
0.146,0.052,0.262,-5.337
0.148,0.052,0.259,-5.337
0.155,0.052,0.259,-5.337
0.225,0.049,0.264,-5.337
0.222,0.050,0.265,-5.337
0.137,0.055,0.266,-5.337
0.114,0.054,0.264,-5.337
0.115,0.053,0.262,-5.337
0.145,0.056,0.259,-5.337
0.166,0.055,0.257,-5.337
0.152,0.057,0.255,-5.337
0.122,0.057,0.256,-5.337
0.178,0.054,0.258,-5.337
0.279,0.052,0.261,-5.337
0.267,0.053,0.260,-5.337
0.183,0.055,0.258,-5.337
0.153,0.055,0.256,-5.337
0.231,0.050,0.255,-5.337
0.246,0.049,0.259,-5.337
0.231,0.048,0.264,-5.337
0.217,0.048,0.265,-5.337
0.202,0.052,0.264,-5.337
0.190,0.053,0.261,-5.337
0.203,0.052,0.257,-5.337
0.199,0.054,0.258,-5.337
0.170,0.055,0.260,-5.337
0.159,0.056,0.263,-5.337
0.196,0.056,0.260,-5.337
0.187,0.056,0.261,-5.337
0.137,0.060,0.262,-5.337
0.109,0.061,0.265,-5.337
0.129,0.061,0.265,-5.337
0.117,0.062,0.264,-5.337
0.168,0.059,0.258,-5.337
0.194,0.059,0.258,-5.337
0.181,0.060,0.261,-5.337
0.174,0.062,0.263,-5.337
0.185,0.060,0.260,-5.337
0.202,0.057,0.259,-5.337
0.215,0.055,0.258,-5.337
0.204,0.055,0.258,-5.337
0.164,0.058,0.255,-5.337
0.125,0.058,0.260,-5.337
0.218,0.054,0.264,-5.337
0.291,0.059,0.259,-5.337
0.218,0.056,0.259,-5.337
0.212,0.053,0.265,-5.337
0.180,0.056,0.264,-5.337
0.195,0.052,0.260,-5.337
0.214,0.053,0.257,-5.337
0.205,0.058,0.254,-5.337
0.159,0.057,0.255,-5.337
0.161,0.057,0.260,-5.337
0.164,0.058,0.263,-5.337
0.146,0.058,0.261,-5.337
0.103,0.061,0.261,-5.337
0.102,0.056,0.260,-5.337
0.196,0.055,0.257,-5.337
0.244,0.055,0.256,-5.337
0.162,0.058,0.260,-5.337
0.123,0.057,0.259,-5.337
0.169,0.054,0.257,-5.337
0.195,0.053,0.258,-5.337
0.240,0.053,0.260,-5.337
0.229,0.053,0.263,-5.337
0.235,0.054,0.262,-5.337
0.240,0.053,0.262,-5.337
0.210,0.053,0.259,-5.337
0.243,0.056,0.259,-5.337
0.233,0.057,0.256,-5.337
0.181,0.058,0.257,-5.337
0.179,0.058,0.257,-5.337
0.181,0.059,0.258,-5.337
0.180,0.056,0.258,-5.337
0.142,0.058,0.261,-5.337
0.103,0.060,0.260,-5.337
0.116,0.060,0.262,-5.337
0.164,0.059,0.261,-5.337
0.174,0.061,0.258,-5.337
0.208,0.058,0.256,-5.337
0.214,0.056,0.260,-5.337
0.158,0.059,0.261,-5.337
0.154,0.065,0.256,-5.337
0.152,0.065,0.253,-5.337
0.161,0.059,0.256,-5.337
0.180,0.059,0.258,-5.337
0.195,0.060,0.257,-5.337
0.175,0.065,0.258,-5.337
0.158,0.062,0.260,-5.337
0.193,0.053,0.255,-5.337
0.228,0.054,0.252,-5.337
0.177,0.057,0.257,-5.337
0.181,0.059,0.260,-5.337
0.162,0.059,0.264,-5.337
0.162,0.057,0.263,-5.337
0.180,0.058,0.264,-5.337
0.194,0.059,0.261,-5.337
0.215,0.058,0.258,-5.337
0.209,0.054,0.255,-5.337
0.166,0.059,0.256,-5.337
0.105,0.061,0.256,-5.337
0.121,0.060,0.256,-5.337
0.141,0.057,0.256,-5.337
0.165,0.059,0.259,-5.337
0.168,0.061,0.259,-5.337
0.219,0.061,0.255,-5.337
0.189,0.060,0.254,-5.337
0.189,0.054,0.256,-5.337
0.212,0.051,0.258,-5.337
0.214,0.055,0.256,-5.337
0.171,0.055,0.254,-5.337
0.161,0.054,0.255,-5.337
0.138,0.055,0.258,-5.337
0.196,0.057,0.261,-5.337
0.223,0.057,0.261,-5.337
0.233,0.054,0.258,-5.337
0.254,0.055,0.259,-5.337
0.185,0.060,0.262,-5.337
0.160,0.062,0.261,-5.337
0.179,0.061,0.257,-5.337
0.191,0.062,0.255,-5.337
0.224,0.062,0.255,-5.337
0.207,0.063,0.254,-5.337
0.130,0.061,0.255,-5.337
0.150,0.062,0.255,-5.337
0.138,0.062,0.256,-5.337
0.122,0.062,0.257,-5.337
0.123,0.060,0.255,-5.337
0.146,0.060,0.255,-5.337
0.232,0.055,0.255,-5.337
0.248,0.059,0.255,-5.337
0.182,0.063,0.257,-5.337
0.200,0.055,0.257,-5.337
0.202,0.053,0.260,-5.337
0.204,0.057,0.259,-5.337
0.220,0.058,0.254,-5.337
0.178,0.058,0.251,-5.337
0.172,0.055,0.253,-5.337
0.165,0.056,0.253,-5.337
0.124,0.057,0.254,-5.337
0.179,0.053,0.253,-5.337
0.237,0.049,0.257,-5.337
0.214,0.054,0.258,-5.337
0.166,0.057,0.259,-5.337
0.173,0.056,0.257,-5.337
0.223,0.059,0.258,-5.337
0.191,0.057,0.255,-5.337
0.117,0.058,0.255,-5.337
0.108,0.056,0.256,-5.337
0.164,0.055,0.256,-5.337
0.150,0.054,0.255,-5.337
0.175,0.053,0.255,-5.337
0.193,0.056,0.259,-5.337
0.200,0.058,0.263,-5.337
0.216,0.059,0.260,-5.337
0.228,0.058,0.254,-5.337
0.236,0.052,0.252,-5.337
0.208,0.052,0.252,-5.337
0.216,0.056,0.251,-5.337
0.237,0.054,0.250,-5.337
0.217,0.054,0.255,-5.337
0.218,0.056,0.262,-5.337
0.178,0.056,0.265,-5.337
0.132,0.056,0.259,-5.337
0.137,0.054,0.253,-5.337
0.149,0.051,0.252,-5.337
0.176,0.053,0.254,-5.337
0.158,0.054,0.253,-5.337
0.151,0.054,0.253,-5.337
0.239,0.052,0.252,-5.337
0.173,0.055,0.252,-5.337
0.113,0.054,0.250,-5.337
0.119,0.058,0.250,-5.337
0.161,0.056,0.255,-5.337
0.166,0.054,0.260,-5.337
0.195,0.057,0.260,-5.337
0.189,0.056,0.256,-5.337
0.155,0.056,0.256,-5.337
0.155,0.058,0.262,-5.337
0.193,0.056,0.267,-5.337
0.177,0.057,0.265,-5.337
0.177,0.057,0.260,-5.337
0.199,0.054,0.256,-5.337
0.174,0.056,0.258,-5.337
0.127,0.058,0.256,-5.337
0.160,0.056,0.259,-5.337
0.205,0.056,0.258,-5.337
0.174,0.056,0.256,-5.337
0.147,0.052,0.256,-5.337
0.167,0.057,0.260,-5.337
0.138,0.059,0.258,-5.337
0.122,0.059,0.255,-5.337
0.160,0.060,0.256,-5.337
0.191,0.061,0.260,-5.337
0.198,0.061,0.260,-5.337
0.198,0.062,0.255,-5.337
0.174,0.058,0.248,-5.337
0.182,0.058,0.251,-5.337
0.232,0.057,0.258,-5.337
0.192,0.057,0.258,-5.337
0.157,0.059,0.257,-5.337
0.207,0.053,0.260,-5.337
0.226,0.051,0.263,-5.337
0.184,0.049,0.258,-5.337
0.142,0.050,0.257,-5.337
0.158,0.052,0.259,-5.337
0.153,0.053,0.262,-5.337
0.123,0.050,0.257,-5.337
0.141,0.053,0.253,-5.337
0.166,0.053,0.252,-5.337
0.170,0.054,0.259,-5.337
0.186,0.052,0.264,-5.337
0.203,0.052,0.263,-5.337
0.211,0.051,0.260,-5.337
0.222,0.049,0.258,-5.337
0.241,0.046,0.258,-5.337
0.205,0.045,0.261,-5.337
0.191,0.050,0.259,-5.337
0.164,0.053,0.258,-5.337
0.110,0.055,0.257,-5.337
0.156,0.054,0.259,-5.337
0.227,0.053,0.261,-5.337
0.211,0.051,0.257,-5.337
0.136,0.051,0.254,-5.337
0.132,0.054,0.254,-5.337
0.169,0.054,0.257,-5.337
0.206,0.052,0.256,-5.337
0.244,0.053,0.256,-5.337
0.180,0.055,0.255,-5.337
0.143,0.053,0.255,-5.337
0.139,0.049,0.252,-5.337
0.156,0.054,0.252,-5.337
0.162,0.051,0.254,-5.337
0.160,0.054,0.257,-5.337
0.171,0.053,0.262,-5.337
0.197,0.051,0.262,-5.337
0.245,0.046,0.257,-5.337
0.226,0.047,0.253,-5.337
0.132,0.052,0.254,-5.337
0.139,0.052,0.255,-5.337
0.152,0.054,0.256,-5.337
0.131,0.054,0.255,-5.337
0.190,0.054,0.254,-5.337
0.191,0.053,0.255,-5.337
0.200,0.053,0.258,-5.337
0.183,0.054,0.258,-5.337
0.154,0.051,0.257,-5.337
0.186,0.052,0.254,-5.337
0.229,0.051,0.256,-5.337
0.191,0.050,0.256,-5.337
0.188,0.049,0.254,-5.337
0.200,0.051,0.254,-5.337
0.144,0.054,0.257,-5.337
0.153,0.052,0.259,-5.337
0.142,0.056,0.261,-5.337
0.073,0.053,0.260,-5.337
0.143,0.047,0.261,-5.337
0.226,0.045,0.261,-5.337
0.192,0.046,0.259,-5.337
0.153,0.046,0.257,-5.337
0.129,0.049,0.253,-5.337
0.142,0.047,0.249,-5.337
0.159,0.047,0.253,-5.337
0.137,0.050,0.256,-5.337
0.140,0.048,0.256,-5.337
0.155,0.049,0.257,-5.337
0.120,0.045,0.260,-5.337
0.121,0.044,0.257,-5.337
0.166,0.042,0.251,-5.337
0.216,0.043,0.249,-5.337
0.224,0.046,0.249,-5.337
0.198,0.048,0.255,-5.337
0.162,0.048,0.258,-5.337
0.174,0.048,0.260,-5.337
0.155,0.047,0.257,-5.337
0.207,0.044,0.255,-5.337
0.201,0.046,0.252,-5.337
0.145,0.048,0.251,-5.337
0.141,0.045,0.254,-5.337
0.179,0.041,0.257,-5.337
0.232,0.040,0.257,-5.337
0.269,0.039,0.261,-5.337
0.255,0.039,0.263,-5.337
0.267,0.042,0.261,-5.337
0.290,0.045,0.257,-5.337
0.272,0.047,0.252,-5.337
0.245,0.049,0.251,-5.337
0.214,0.050,0.253,-5.337
0.196,0.048,0.257,-5.337
0.167,0.049,0.257,-5.337
0.165,0.050,0.260,-5.337
0.191,0.048,0.259,-5.337
0.160,0.047,0.257,-5.337
0.107,0.047,0.253,-5.337
0.103,0.049,0.254,-5.337
0.200,0.051,0.255,-5.337
0.221,0.054,0.256,-5.337
0.179,0.054,0.257,-5.337
0.151,0.055,0.259,-5.337
0.162,0.053,0.259,-5.337
0.159,0.052,0.256,-5.337
0.167,0.050,0.252,-5.337
0.202,0.049,0.251,-5.337
0.216,0.046,0.252,-5.337
0.197,0.043,0.257,-5.337
0.160,0.043,0.256,-5.337
0.189,0.041,0.257,-5.337
0.201,0.042,0.256,-5.337
0.189,0.044,0.252,-5.337
0.157,0.047,0.252,-5.337
0.123,0.045,0.254,-5.337
0.106,0.046,0.255,-5.337
0.106,0.048,0.255,-5.337
0.081,0.049,0.256,-5.337
0.154,0.043,0.253,-5.337
0.184,0.048,0.255,-5.337
0.112,0.052,0.256,-5.337
0.120,0.052,0.261,-5.337
0.198,0.049,0.260,-5.337
0.228,0.047,0.257,-5.337
0.218,0.045,0.256,-5.337
0.142,0.047,0.256,-5.337
0.103,0.048,0.255,-5.337
0.115,0.049,0.257,-5.337
0.177,0.044,0.258,-5.337
0.184,0.045,0.256,-5.337
0.161,0.047,0.255,-5.337
0.163,0.050,0.254,-5.337
0.172,0.049,0.250,-5.337
0.156,0.050,0.252,-5.337
0.167,0.049,0.254,-5.337
0.168,0.047,0.255,-5.337
0.178,0.046,0.259,-5.337
0.205,0.046,0.261,-5.337
0.192,0.048,0.258,-5.337
0.184,0.048,0.256,-5.337
0.171,0.048,0.255,-5.337
0.151,0.047,0.255,-5.337
0.203,0.040,0.253,-5.337
0.219,0.041,0.255,-5.337
0.235,0.044,0.258,-5.337
0.237,0.042,0.262,-5.337
0.248,0.043,0.263,-5.337
0.267,0.040,0.261,-5.337
0.225,0.043,0.258,-5.337
0.187,0.043,0.255,-5.337
0.196,0.043,0.255,-5.337
0.179,0.043,0.255,-5.337
0.144,0.045,0.254,-5.337
0.146,0.042,0.253,-5.337
0.215,0.040,0.255,-5.337
0.195,0.040,0.255,-5.337
0.167,0.042,0.253,-5.337
0.211,0.039,0.255,-5.337
0.212,0.039,0.259,-5.337
0.207,0.036,0.263,-5.337
0.230,0.038,0.261,-5.337
0.194,0.041,0.260,-5.337
0.141,0.040,0.257,-5.337
0.142,0.039,0.256,-5.337
0.158,0.039,0.255,-5.337
0.157,0.043,0.256,-5.337
0.182,0.040,0.259,-5.337
0.222,0.038,0.263,-5.337
0.224,0.036,0.261,-5.337
0.166,0.040,0.259,-5.337
0.103,0.041,0.256,-5.337
0.108,0.040,0.257,-5.337
0.153,0.037,0.255,-5.337
0.235,0.033,0.255,-5.337
0.203,0.040,0.256,-5.337
0.129,0.042,0.256,-5.337
0.131,0.042,0.257,-5.337
0.139,0.046,0.257,-5.337
0.180,0.041,0.255,-5.337
0.262,0.037,0.256,-5.337
0.200,0.040,0.257,-5.337
0.191,0.039,0.254,-5.337
0.283,0.036,0.252,-5.337
0.290,0.037,0.252,-5.337
0.195,0.040,0.255,-5.337
0.165,0.041,0.256,-5.337
0.197,0.042,0.256,-5.337
0.273,0.036,0.255,-5.337
0.307,0.037,0.255,-5.337
0.238,0.038,0.255,-5.337
0.150,0.039,0.260,-5.337
0.151,0.036,0.260,-5.337
0.219,0.035,0.257,-5.337
0.198,0.039,0.255,-5.337
0.158,0.038,0.255,-5.337
0.178,0.039,0.251,-5.337
0.217,0.036,0.248,-5.337
0.193,0.037,0.249,-5.337
0.118,0.039,0.255,-5.337
0.135,0.038,0.260,-5.337
0.159,0.040,0.260,-5.337
0.158,0.041,0.256,-5.337
0.153,0.039,0.252,-5.337
0.147,0.037,0.252,-5.337
0.145,0.036,0.252,-5.337
0.147,0.036,0.254,-5.337
0.168,0.036,0.254,-5.337
0.218,0.037,0.257,-5.337
0.232,0.037,0.259,-5.337
0.198,0.037,0.261,-5.337
0.206,0.038,0.260,-5.337
0.156,0.039,0.257,-5.337
0.126,0.037,0.256,-5.337
0.161,0.039,0.257,-5.337
0.155,0.044,0.256,-5.337
0.132,0.044,0.256,-5.337
0.179,0.041,0.260,-5.337
0.235,0.040,0.260,-5.337
0.219,0.039,0.257,-5.337
0.206,0.040,0.254,-5.337
0.195,0.039,0.254,-5.337
0.190,0.040,0.257,-5.337
0.185,0.040,0.261,-5.337
0.215,0.041,0.258,-5.337
0.199,0.041,0.255,-5.337
0.169,0.039,0.250,-5.337
0.198,0.037,0.248,-5.337
0.246,0.038,0.247,-5.337
0.242,0.039,0.254,-5.337
0.206,0.040,0.258,-5.337
0.154,0.041,0.258,-5.337
0.153,0.042,0.254,-5.337
0.140,0.043,0.254,-5.337
0.127,0.042,0.257,-5.337
0.159,0.043,0.259,-5.337
0.168,0.043,0.258,-5.337
0.157,0.043,0.254,-5.337
0.198,0.039,0.249,-5.337
0.160,0.044,0.247,-5.337
0.175,0.043,0.252,-5.337
0.210,0.045,0.255,-5.337
0.168,0.044,0.256,-5.337
0.164,0.045,0.255,-5.337
0.191,0.045,0.255,-5.337
0.204,0.042,0.255,-5.337
0.212,0.039,0.257,-5.337
0.230,0.037,0.257,-5.337
0.254,0.036,0.261,-5.337
0.282,0.037,0.265,-5.337
0.237,0.037,0.265,-5.337
0.185,0.042,0.258,-5.337
0.180,0.044,0.253,-5.337
0.128,0.045,0.254,-5.337
0.108,0.044,0.258,-5.337
0.189,0.041,0.261,-5.337
0.236,0.041,0.260,-5.337
0.187,0.042,0.260,-5.337
0.162,0.048,0.260,-5.337
0.184,0.046,0.259,-5.337
0.236,0.043,0.258,-5.337
0.268,0.042,0.256,-5.337
0.219,0.045,0.254,-5.337
0.191,0.046,0.256,-5.337
0.229,0.043,0.258,-5.337
0.237,0.043,0.259,-5.337
0.203,0.043,0.257,-5.337
0.227,0.043,0.255,-5.337
0.261,0.043,0.255,-5.337
0.240,0.043,0.257,-5.337
0.175,0.045,0.259,-5.337
0.123,0.047,0.259,-5.337
0.171,0.047,0.256,-5.337
0.208,0.042,0.256,-5.337
0.193,0.041,0.257,-5.337
0.209,0.042,0.261,-5.337
0.269,0.039,0.265,-5.337
0.218,0.043,0.262,-5.337
0.165,0.046,0.255,-5.337
0.105,0.047,0.256,-5.337
0.128,0.047,0.261,-5.337
0.166,0.048,0.261,-5.337
0.194,0.046,0.256,-5.337
0.211,0.044,0.255,-5.337
0.225,0.042,0.259,-5.337
0.187,0.042,0.262,-5.337
0.186,0.043,0.260,-5.337
0.240,0.043,0.258,-5.337
0.200,0.045,0.259,-5.337
0.160,0.049,0.258,-5.337
0.181,0.052,0.256,-5.337
0.200,0.049,0.251,-5.337
0.211,0.048,0.255,-5.337
0.226,0.047,0.259,-5.337
0.226,0.048,0.262,-5.337
0.216,0.047,0.262,-5.337
0.285,0.045,0.262,-5.337
0.320,0.044,0.262,-5.337
0.271,0.046,0.262,-5.337
0.159,0.051,0.261,-5.337
0.067,0.050,0.259,-5.337
0.117,0.048,0.257,-5.337
0.156,0.050,0.257,-5.337
0.181,0.048,0.255,-5.337
0.236,0.045,0.257,-5.337
0.240,0.045,0.261,-5.337
0.226,0.051,0.261,-5.337
0.223,0.054,0.259,-5.337
0.188,0.056,0.258,-5.337
0.164,0.055,0.260,-5.337
0.194,0.050,0.261,-5.337
0.263,0.048,0.255,-5.337
0.261,0.048,0.249,-5.337
0.140,0.050,0.252,-5.337
0.106,0.048,0.254,-5.337
0.168,0.050,0.257,-5.337
0.200,0.050,0.260,-5.337
0.256,0.053,0.256,-5.337
0.233,0.053,0.251,-5.337
0.242,0.054,0.252,-5.337
0.203,0.060,0.257,-5.337
0.152,0.060,0.258,-5.337
0.171,0.058,0.259,-5.337
0.214,0.058,0.259,-5.337
0.190,0.059,0.257,-5.337
0.127,0.054,0.259,-5.337
0.135,0.054,0.256,-5.337
0.161,0.055,0.254,-5.337
0.169,0.053,0.253,-5.337
0.184,0.055,0.253,-5.337
0.154,0.058,0.251,-5.337
0.169,0.060,0.253,-5.337
0.221,0.058,0.256,-5.337
0.147,0.059,0.260,-5.337
0.122,0.060,0.262,-5.337
0.134,0.061,0.260,-5.337
0.144,0.063,0.258,-5.337
0.175,0.063,0.257,-5.337
0.169,0.064,0.260,-5.337
0.184,0.062,0.253,-5.337
0.174,0.063,0.250,-5.337
0.184,0.060,0.254,-5.337
0.169,0.058,0.260,-5.337
0.153,0.057,0.257,-5.337
0.187,0.061,0.253,-5.337
0.205,0.060,0.253,-5.337
0.189,0.060,0.256,-5.337
0.185,0.060,0.261,-5.337
0.225,0.057,0.262,-5.337
0.204,0.058,0.259,-5.337
0.151,0.058,0.256,-5.337
0.212,0.056,0.254,-5.337
0.231,0.060,0.253,-5.337
0.175,0.062,0.251,-5.337
0.135,0.060,0.250,-5.337
0.123,0.060,0.253,-5.337
0.203,0.063,0.258,-5.337
0.199,0.063,0.261,-5.337
0.204,0.060,0.259,-5.337
0.216,0.058,0.257,-5.337
0.242,0.057,0.256,-5.337
0.254,0.056,0.257,-5.337
0.181,0.057,0.257,-5.337
0.154,0.060,0.256,-5.337
0.187,0.061,0.255,-5.337
0.188,0.063,0.257,-5.337
0.136,0.063,0.259,-5.337
0.117,0.065,0.255,-5.337
0.164,0.061,0.253,-5.337
0.209,0.059,0.255,-5.337
0.180,0.064,0.255,-5.337
0.182,0.062,0.256,-5.337
0.205,0.061,0.257,-5.337
0.191,0.062,0.262,-5.337
0.215,0.060,0.263,-5.337
0.256,0.059,0.258,-5.337
0.237,0.060,0.254,-5.337
0.210,0.059,0.253,-5.337
0.230,0.056,0.253,-5.337
0.235,0.057,0.254,-5.337
0.167,0.061,0.253,-5.337
0.144,0.060,0.252,-5.337
0.181,0.062,0.255,-5.337
0.144,0.063,0.257,-5.337
0.133,0.063,0.257,-5.337
0.180,0.062,0.258,-5.337
0.145,0.060,0.259,-5.337
0.117,0.060,0.261,-5.337
0.149,0.061,0.260,-5.337
0.137,0.060,0.256,-5.337
0.199,0.064,0.254,-5.337
0.220,0.068,0.253,-5.337
0.091,0.069,0.253,-5.337
0.097,0.063,0.251,-5.337
0.164,0.060,0.251,-5.337
0.174,0.058,0.250,-5.337
0.188,0.059,0.253,-5.337
0.194,0.057,0.254,-5.337
0.198,0.059,0.254,-5.337
0.233,0.058,0.259,-5.337
0.193,0.060,0.262,-5.337
0.162,0.060,0.263,-5.337
0.195,0.064,0.259,-5.337
0.171,0.061,0.255,-5.337
0.205,0.058,0.253,-5.337
0.232,0.061,0.255,-5.337
0.161,0.066,0.255,-5.337
0.159,0.065,0.255,-5.337
0.226,0.060,0.253,-5.337
0.257,0.057,0.253,-5.337
0.223,0.061,0.251,-5.337
0.207,0.065,0.252,-5.337
0.211,0.063,0.258,-5.337
0.187,0.062,0.261,-5.337
0.176,0.061,0.261,-5.337
0.215,0.061,0.261,-5.337
0.182,0.061,0.259,-5.337
0.225,0.056,0.256,-5.337
0.279,0.055,0.255,-5.337
0.173,0.060,0.255,-5.337
0.152,0.063,0.253,-5.337
0.169,0.060,0.254,-5.337
0.145,0.062,0.256,-5.337
0.129,0.066,0.257,-5.337
0.168,0.066,0.258,-5.337
0.231,0.060,0.258,-5.337
0.233,0.057,0.260,-5.337
0.207,0.059,0.260,-5.337
0.211,0.062,0.262,-5.337
0.155,0.066,0.257,-5.337
0.134,0.065,0.255,-5.337
0.143,0.061,0.256,-5.337
0.206,0.061,0.257,-5.337
0.226,0.062,0.255,-5.337
0.196,0.066,0.256,-5.337
0.127,0.066,0.258,-5.337
0.139,0.064,0.255,-5.337
0.243,0.064,0.254,-5.337
0.270,0.067,0.255,-5.337
0.193,0.068,0.257,-5.337
0.137,0.065,0.257,-5.337
0.162,0.067,0.253,-5.337
0.210,0.067,0.253,-5.337
0.216,0.066,0.257,-5.337
0.224,0.066,0.258,-5.337
0.205,0.067,0.260,-5.337
0.237,0.063,0.258,-5.337
0.229,0.065,0.256,-5.337
0.205,0.066,0.253,-5.337
0.193,0.065,0.252,-5.337
0.171,0.066,0.251,-5.337
0.120,0.066,0.252,-5.337
0.170,0.064,0.255,-5.337
0.148,0.067,0.258,-5.337
0.131,0.062,0.260,-5.337
0.184,0.061,0.260,-5.337
0.174,0.062,0.258,-5.337
0.208,0.063,0.252,-5.337
0.225,0.064,0.251,-5.337
0.153,0.066,0.254,-5.337
0.167,0.066,0.251,-5.337
0.143,0.067,0.250,-5.337
0.113,0.067,0.257,-5.337
0.133,0.063,0.260,-5.337
0.120,0.063,0.256,-5.337
0.109,0.069,0.250,-5.337
0.154,0.066,0.254,-5.337
0.148,0.064,0.257,-5.337
0.175,0.062,0.256,-5.337
0.188,0.061,0.254,-5.337
0.176,0.061,0.256,-5.337
0.186,0.057,0.257,-5.337
0.190,0.058,0.258,-5.337
0.177,0.064,0.259,-5.337
0.239,0.064,0.262,-5.337
0.233,0.059,0.261,-5.337
0.196,0.059,0.257,-5.337
0.158,0.058,0.251,-5.337
0.178,0.061,0.248,-5.337
0.165,0.060,0.249,-5.337
0.181,0.058,0.253,-5.337
0.188,0.061,0.254,-5.337
0.171,0.060,0.257,-5.337
0.140,0.060,0.261,-5.337
0.127,0.062,0.262,-5.337
0.130,0.060,0.260,-5.337
0.221,0.059,0.259,-5.337
0.223,0.059,0.256,-5.337
0.200,0.055,0.253,-5.337
0.197,0.055,0.253,-5.337
0.197,0.055,0.255,-5.337
0.215,0.059,0.254,-5.337
0.183,0.061,0.253,-5.337
0.150,0.059,0.253,-5.337
0.171,0.058,0.257,-5.337
0.203,0.060,0.257,-5.337
0.221,0.058,0.254,-5.337
0.205,0.057,0.255,-5.337
0.158,0.061,0.260,-5.337
0.141,0.060,0.261,-5.337
0.128,0.058,0.255,-5.337
0.133,0.056,0.255,-5.337
0.149,0.055,0.258,-5.337
0.165,0.060,0.259,-5.337
0.238,0.057,0.255,-5.337
0.235,0.058,0.255,-5.337
0.187,0.056,0.257,-5.337
0.183,0.057,0.258,-5.337
0.197,0.055,0.256,-5.337
0.151,0.057,0.256,-5.337
0.149,0.054,0.257,-5.337
0.172,0.054,0.256,-5.337
0.150,0.054,0.255,-5.337
0.120,0.057,0.252,-5.337
0.149,0.056,0.256,-5.337
0.201,0.053,0.260,-5.337
0.224,0.052,0.261,-5.337
0.182,0.049,0.256,-5.337
0.158,0.050,0.255,-5.337
0.185,0.051,0.256,-5.337
0.199,0.052,0.256,-5.337
0.176,0.048,0.253,-5.337
0.192,0.048,0.254,-5.337
0.214,0.044,0.255,-5.337
0.206,0.047,0.259,-5.337
0.194,0.049,0.261,-5.337
0.159,0.050,0.261,-5.337
0.142,0.050,0.259,-5.337
0.185,0.051,0.260,-5.337
0.198,0.056,0.256,-5.337
0.171,0.055,0.255,-5.337
0.126,0.054,0.255,-5.337
0.137,0.054,0.256,-5.337
0.157,0.054,0.259,-5.337
0.151,0.049,0.257,-5.337
0.189,0.045,0.257,-5.337
0.201,0.045,0.255,-5.337
0.213,0.045,0.257,-5.337
0.143,0.047,0.256,-5.337
0.112,0.045,0.257,-5.337
0.162,0.041,0.258,-5.337
0.153,0.046,0.258,-5.337
0.170,0.046,0.256,-5.337
0.176,0.045,0.256,-5.337
0.161,0.045,0.260,-5.337
0.166,0.045,0.260,-5.337
0.151,0.047,0.260,-5.337
0.195,0.046,0.260,-5.337
0.162,0.048,0.260,-5.337
0.146,0.047,0.261,-5.337
0.186,0.046,0.261,-5.337
0.223,0.047,0.258,-5.337
0.227,0.048,0.255,-5.337
0.201,0.048,0.256,-5.337
0.154,0.052,0.260,-5.337
0.156,0.055,0.257,-5.337
0.151,0.055,0.256,-5.337
0.192,0.051,0.257,-5.337
0.162,0.050,0.259,-5.337
0.127,0.048,0.262,-5.337
0.180,0.047,0.260,-5.337
0.229,0.046,0.259,-5.337
0.271,0.045,0.258,-5.337
0.252,0.048,0.258,-5.337
0.202,0.051,0.258,-5.337
0.180,0.051,0.261,-5.337
0.203,0.050,0.265,-5.337
0.166,0.046,0.263,-5.337
0.145,0.042,0.260,-5.337
0.191,0.041,0.260,-5.337
0.160,0.045,0.260,-5.337
0.128,0.047,0.256,-5.337
0.102,0.047,0.254,-5.337
0.081,0.046,0.253,-5.337
0.175,0.041,0.256,-5.337
0.183,0.043,0.258,-5.337
0.131,0.044,0.259,-5.337
0.143,0.042,0.260,-5.337
0.155,0.044,0.259,-5.337
0.126,0.046,0.258,-5.337
0.154,0.043,0.255,-5.337
0.147,0.045,0.255,-5.337
0.165,0.047,0.256,-5.337
0.207,0.046,0.257,-5.337
0.205,0.044,0.257,-5.337
0.218,0.044,0.255,-5.337
0.241,0.039,0.250,-5.337
0.264,0.040,0.250,-5.337
0.212,0.044,0.255,-5.337
0.196,0.042,0.259,-5.337
0.183,0.041,0.260,-5.337
0.097,0.044,0.260,-5.337
0.026,0.045,0.257,-5.337
0.085,0.041,0.255,-5.337
0.127,0.041,0.254,-5.337
0.131,0.040,0.255,-5.337
0.147,0.039,0.257,-5.337
0.187,0.041,0.257,-5.337
0.233,0.043,0.258,-5.337
0.234,0.039,0.257,-5.337
0.200,0.039,0.255,-5.337
0.162,0.038,0.254,-5.337
0.156,0.036,0.254,-5.337
0.191,0.034,0.252,-5.337
0.135,0.038,0.255,-5.337
0.169,0.039,0.258,-5.337
0.161,0.041,0.257,-5.337
0.159,0.039,0.255,-5.337
0.173,0.039,0.256,-5.337
0.151,0.040,0.257,-5.337
0.145,0.043,0.255,-5.337
0.218,0.041,0.250,-5.337
0.149,0.039,0.252,-5.337
0.082,0.038,0.259,-5.337
0.111,0.039,0.263,-5.337
0.158,0.039,0.263,-5.337
0.174,0.039,0.261,-5.337
0.218,0.039,0.259,-5.337
0.239,0.038,0.259,-5.337
0.192,0.037,0.259,-5.337
0.182,0.040,0.258,-5.337
0.162,0.040,0.260,-5.337
0.200,0.039,0.260,-5.337
0.228,0.040,0.256,-5.337
0.251,0.041,0.250,-5.337
0.202,0.043,0.251,-5.337
0.172,0.040,0.257,-5.337
0.158,0.039,0.260,-5.337
0.179,0.035,0.258,-5.337
0.213,0.037,0.257,-5.337
0.225,0.032,0.256,-5.337
0.267,0.032,0.259,-5.337
0.237,0.035,0.259,-5.337
0.212,0.033,0.257,-5.337
0.214,0.032,0.251,-5.337
0.202,0.039,0.251,-5.337
0.192,0.037,0.256,-5.337
0.161,0.039,0.262,-5.337
0.118,0.044,0.263,-5.337
0.115,0.038,0.260,-5.337
0.175,0.038,0.257,-5.337
0.175,0.037,0.256,-5.337
0.106,0.038,0.253,-5.337
0.075,0.042,0.251,-5.337
0.166,0.037,0.255,-5.337
0.196,0.034,0.257,-5.337
0.176,0.036,0.256,-5.337
0.218,0.035,0.253,-5.337
0.215,0.039,0.255,-5.337
0.162,0.041,0.261,-5.337
0.150,0.041,0.264,-5.337
0.188,0.040,0.262,-5.337
0.202,0.038,0.257,-5.337
0.170,0.038,0.255,-5.337
0.202,0.039,0.258,-5.337
0.253,0.036,0.257,-5.337
0.215,0.036,0.258,-5.337
0.211,0.040,0.259,-5.337
0.156,0.043,0.259,-5.337
0.198,0.044,0.257,-5.337
0.233,0.043,0.257,-5.337
0.198,0.040,0.256,-5.337
0.175,0.042,0.256,-5.337
0.178,0.040,0.259,-5.337
0.195,0.037,0.260,-5.337
0.216,0.038,0.256,-5.337
0.175,0.042,0.253,-5.337
0.112,0.044,0.255,-5.337
0.158,0.039,0.257,-5.337
0.193,0.039,0.259,-5.337
0.127,0.043,0.259,-5.337
0.167,0.041,0.258,-5.337
0.217,0.041,0.258,-5.337
0.236,0.038,0.256,-5.337
0.264,0.038,0.255,-5.337
0.207,0.042,0.255,-5.337
0.185,0.042,0.257,-5.337
0.178,0.038,0.258,-5.337
0.205,0.034,0.258,-5.337
0.221,0.036,0.259,-5.337
0.184,0.042,0.260,-5.337
0.107,0.045,0.259,-5.337
0.117,0.040,0.260,-5.337
0.188,0.041,0.260,-5.337
0.201,0.044,0.257,-5.337
0.202,0.041,0.257,-5.337
0.201,0.038,0.263,-5.337
0.155,0.038,0.261,-5.337
0.150,0.040,0.259,-5.337
0.209,0.039,0.255,-5.337
0.246,0.038,0.256,-5.337
0.202,0.039,0.256,-5.337
0.201,0.042,0.258,-5.337
0.166,0.044,0.255,-5.337
0.144,0.047,0.251,-5.337
0.163,0.043,0.250,-5.337
0.220,0.040,0.253,-5.337
0.256,0.037,0.255,-5.337
0.202,0.039,0.256,-5.337
0.183,0.041,0.255,-5.337
0.186,0.042,0.257,-5.337
0.197,0.039,0.260,-5.337
0.209,0.039,0.260,-5.337
0.250,0.036,0.259,-5.337
0.283,0.034,0.257,-5.337
0.201,0.038,0.258,-5.337
0.098,0.041,0.258,-5.337
0.164,0.041,0.258,-5.337
0.213,0.039,0.261,-5.337
0.218,0.038,0.261,-5.337
0.198,0.038,0.258,-5.337
0.216,0.039,0.254,-5.337
0.173,0.044,0.253,-5.337
0.125,0.048,0.255,-5.337
0.160,0.046,0.256,-5.337
0.273,0.043,0.261,-5.337
0.244,0.045,0.264,-5.337
0.139,0.048,0.262,-5.337
0.160,0.046,0.258,-5.337
0.156,0.047,0.257,-5.337
0.171,0.045,0.257,-5.337
0.180,0.042,0.258,-5.337
0.148,0.045,0.255,-5.337
0.160,0.043,0.257,-5.337
0.189,0.044,0.256,-5.337
0.143,0.046,0.256,-5.337
0.148,0.046,0.257,-5.337
0.181,0.046,0.255,-5.337
0.196,0.042,0.254,-5.337
0.182,0.041,0.252,-5.337
0.185,0.041,0.253,-5.337
0.138,0.043,0.255,-5.337
0.086,0.047,0.259,-5.337
0.098,0.044,0.260,-5.337
0.118,0.044,0.259,-5.337
0.205,0.043,0.257,-5.337
0.182,0.044,0.255,-5.337
0.073,0.048,0.255,-5.337
0.057,0.047,0.254,-5.337
0.176,0.042,0.255,-5.337
0.247,0.043,0.257,-5.337
0.245,0.042,0.253,-5.337
0.218,0.040,0.251,-5.337
0.193,0.042,0.259,-5.337
0.174,0.045,0.267,-5.337
0.170,0.043,0.265,-5.337
0.137,0.043,0.263,-5.337
0.167,0.042,0.263,-5.337
0.250,0.040,0.261,-5.337
0.221,0.041,0.257,-5.337
0.175,0.045,0.252,-5.337
0.180,0.043,0.252,-5.337
0.188,0.043,0.256,-5.337
0.192,0.041,0.259,-5.337
0.202,0.042,0.259,-5.337
0.223,0.044,0.257,-5.337
0.239,0.044,0.256,-5.337
0.206,0.045,0.257,-5.337
0.169,0.045,0.255,-5.337
0.159,0.046,0.254,-5.337
0.156,0.049,0.253,-5.337
0.164,0.045,0.254,-5.337
0.194,0.043,0.253,-5.337
0.193,0.048,0.254,-5.337
0.186,0.047,0.256,-5.337
0.210,0.045,0.256,-5.337
0.160,0.048,0.257,-5.337
0.156,0.049,0.260,-5.337
0.179,0.045,0.260,-5.337
0.212,0.043,0.259,-5.337
0.195,0.048,0.257,-5.337
0.192,0.051,0.256,-5.337
0.178,0.048,0.256,-5.337
0.168,0.047,0.258,-5.337
0.235,0.044,0.260,-5.337
0.256,0.045,0.260,-5.337
0.180,0.051,0.261,-5.337
0.199,0.048,0.258,-5.337
0.246,0.046,0.252,-5.337
0.199,0.051,0.255,-5.337
0.124,0.051,0.260,-5.337
0.152,0.047,0.260,-5.337
0.137,0.046,0.256,-5.337
0.138,0.043,0.254,-5.337
0.156,0.042,0.257,-5.337
0.174,0.044,0.260,-5.337
0.170,0.045,0.262,-5.337
0.148,0.043,0.260,-5.337
0.145,0.045,0.260,-5.337
0.198,0.046,0.259,-5.337
0.219,0.048,0.258,-5.337
0.158,0.048,0.257,-5.337
0.149,0.050,0.257,-5.337
0.171,0.050,0.261,-5.337
0.224,0.048,0.261,-5.337
0.271,0.046,0.262,-5.337
0.256,0.049,0.263,-5.337
0.239,0.050,0.264,-5.337
0.266,0.049,0.261,-5.337
0.271,0.050,0.257,-5.337
0.225,0.049,0.253,-5.337
0.255,0.048,0.254,-5.337
0.250,0.049,0.257,-5.337
0.225,0.049,0.257,-5.337
0.146,0.047,0.256,-5.337
0.145,0.049,0.259,-5.337
0.177,0.051,0.264,-5.337
0.140,0.050,0.265,-5.337
0.164,0.045,0.267,-5.337
0.179,0.046,0.270,-5.337
0.140,0.050,0.267,-5.337
0.150,0.051,0.263,-5.337
0.156,0.051,0.258,-5.337
0.183,0.050,0.253,-5.337
0.221,0.047,0.251,-5.337
0.255,0.045,0.256,-5.337
0.213,0.050,0.261,-5.337
0.131,0.052,0.259,-5.337
0.146,0.050,0.257,-5.337
0.167,0.049,0.255,-5.337
0.170,0.050,0.254,-5.337
0.156,0.052,0.253,-5.337
0.186,0.048,0.255,-5.337
0.197,0.046,0.258,-5.337
0.177,0.051,0.265,-5.337
0.141,0.051,0.266,-5.337
0.159,0.048,0.263,-5.337
0.218,0.046,0.259,-5.337
0.194,0.051,0.261,-5.337
0.159,0.052,0.260,-5.337
0.194,0.053,0.260,-5.337
0.204,0.053,0.261,-5.337
0.238,0.052,0.262,-5.337
0.246,0.052,0.261,-5.337
0.241,0.055,0.261,-5.337
0.206,0.054,0.260,-5.337
0.195,0.054,0.262,-5.337
0.171,0.056,0.262,-5.337
0.173,0.054,0.255,-5.337
0.210,0.055,0.253,-5.337
0.203,0.053,0.254,-5.337
0.156,0.054,0.258,-5.337
0.149,0.057,0.262,-5.337
0.174,0.057,0.261,-5.337
0.199,0.054,0.259,-5.337
0.233,0.050,0.260,-5.337
0.214,0.052,0.258,-5.337
0.179,0.053,0.255,-5.337
0.202,0.053,0.255,-5.337
0.219,0.053,0.257,-5.337
0.242,0.053,0.258,-5.337
0.257,0.052,0.263,-5.337
0.225,0.055,0.264,-5.337
0.165,0.057,0.260,-5.337
0.170,0.056,0.254,-5.337
0.172,0.059,0.254,-5.337
0.160,0.060,0.255,-5.337
0.177,0.060,0.255,-5.337
0.167,0.059,0.257,-5.337
0.156,0.059,0.260,-5.337
0.205,0.056,0.258,-5.337
0.207,0.057,0.257,-5.337
0.213,0.058,0.262,-5.337
0.220,0.058,0.265,-5.337
0.195,0.057,0.262,-5.337
0.148,0.058,0.259,-5.337
0.123,0.058,0.260,-5.337
0.184,0.057,0.259,-5.337
0.224,0.057,0.256,-5.337
0.166,0.059,0.252,-5.337
0.140,0.061,0.253,-5.337
0.166,0.061,0.255,-5.337
0.112,0.064,0.258,-5.337
0.119,0.062,0.256,-5.337
0.154,0.062,0.256,-5.337
0.185,0.061,0.259,-5.337
0.245,0.059,0.259,-5.337
0.281,0.056,0.257,-5.337
0.258,0.055,0.256,-5.337
0.190,0.053,0.257,-5.337
0.179,0.056,0.258,-5.337
0.211,0.058,0.258,-5.337
0.197,0.058,0.253,-5.337
0.179,0.057,0.253,-5.337
0.178,0.056,0.255,-5.337
0.205,0.055,0.259,-5.337
0.131,0.058,0.259,-5.337
0.168,0.056,0.259,-5.337
0.203,0.056,0.257,-5.337
0.207,0.059,0.257,-5.337
0.214,0.058,0.255,-5.337
0.152,0.062,0.258,-5.337
0.144,0.060,0.261,-5.337
0.180,0.056,0.262,-5.337
0.183,0.055,0.260,-5.337
0.157,0.056,0.259,-5.337
0.161,0.057,0.257,-5.337
0.189,0.056,0.254,-5.337
0.180,0.055,0.251,-5.337
0.211,0.054,0.253,-5.337
0.221,0.057,0.255,-5.337
0.199,0.062,0.257,-5.337
0.185,0.057,0.257,-5.337
0.163,0.058,0.255,-5.337
0.168,0.056,0.255,-5.337
0.238,0.055,0.256,-5.337
0.224,0.056,0.257,-5.337
0.242,0.056,0.257,-5.337
0.230,0.058,0.260,-5.337
0.199,0.057,0.260,-5.337
0.172,0.056,0.260,-5.337
0.174,0.057,0.258,-5.337
0.189,0.057,0.254,-5.337
0.192,0.057,0.251,-5.337
0.222,0.057,0.255,-5.337
0.249,0.060,0.258,-5.337
0.214,0.060,0.260,-5.337
0.219,0.057,0.261,-5.337
0.171,0.056,0.259,-5.337
0.136,0.057,0.255,-5.337
0.171,0.056,0.254,-5.337
0.201,0.056,0.253,-5.337
0.180,0.060,0.254,-5.337
0.136,0.058,0.257,-5.337
0.149,0.060,0.260,-5.337
0.162,0.059,0.262,-5.337
0.198,0.059,0.261,-5.337
0.225,0.056,0.260,-5.337
0.191,0.054,0.259,-5.337
0.195,0.059,0.259,-5.337
0.157,0.062,0.255,-5.337
0.154,0.062,0.253,-5.337
0.163,0.061,0.254,-5.337
0.179,0.063,0.255,-5.337
0.230,0.060,0.255,-5.337
0.233,0.059,0.259,-5.337
0.191,0.059,0.260,-5.337
0.145,0.061,0.260,-5.337
0.142,0.063,0.256,-5.337
0.125,0.064,0.252,-5.337
0.153,0.062,0.255,-5.337
0.176,0.064,0.260,-5.337
0.189,0.063,0.262,-5.337
0.154,0.065,0.257,-5.337
0.111,0.067,0.256,-5.337
0.149,0.064,0.256,-5.337
0.232,0.062,0.256,-5.337
0.255,0.061,0.258,-5.337
0.232,0.062,0.259,-5.337
0.175,0.065,0.256,-5.337
0.184,0.065,0.257,-5.337
0.177,0.065,0.256,-5.337
0.179,0.062,0.257,-5.337
0.134,0.065,0.255,-5.337
0.135,0.064,0.257,-5.337
0.202,0.061,0.259,-5.337
0.239,0.059,0.258,-5.337
0.195,0.065,0.251,-5.337
0.152,0.065,0.251,-5.337
0.089,0.064,0.256,-5.337
0.113,0.063,0.258,-5.337
0.140,0.062,0.255,-5.337
0.225,0.061,0.253,-5.337
0.223,0.062,0.252,-5.337
0.177,0.064,0.250,-5.337
0.155,0.065,0.252,-5.337
0.209,0.065,0.256,-5.337
0.196,0.065,0.261,-5.337
0.245,0.059,0.262,-5.337
0.220,0.058,0.261,-5.337
0.221,0.058,0.264,-5.337
0.287,0.061,0.261,-5.337
0.229,0.064,0.257,-5.337
0.140,0.064,0.259,-5.337
0.074,0.064,0.261,-5.337
0.147,0.057,0.261,-5.337
0.221,0.057,0.256,-5.337
0.173,0.062,0.258,-5.337
0.145,0.059,0.256,-5.337
0.121,0.062,0.259,-5.337
0.111,0.059,0.258,-5.337
0.169,0.058,0.258,-5.337
0.229,0.057,0.258,-5.337
0.241,0.057,0.259,-5.337
0.139,0.057,0.261,-5.337
0.129,0.060,0.261,-5.337
0.136,0.061,0.258,-5.337
0.124,0.059,0.256,-5.337
0.131,0.055,0.255,-5.337
0.094,0.057,0.250,-5.337
0.065,0.059,0.247,-5.337
0.120,0.057,0.254,-5.337
0.223,0.056,0.261,-5.337
0.179,0.058,0.260,-5.337
0.157,0.059,0.258,-5.337
0.135,0.059,0.258,-5.337
0.139,0.057,0.256,-5.337
0.121,0.052,0.254,-5.337
0.171,0.053,0.255,-5.337
0.167,0.058,0.258,-5.337
0.102,0.059,0.259,-5.337
0.135,0.052,0.256,-5.337
0.206,0.051,0.255,-5.337
0.206,0.054,0.257,-5.337
0.199,0.056,0.258,-5.337
0.193,0.053,0.259,-5.337
0.168,0.051,0.262,-5.337
0.132,0.048,0.260,-5.337
0.117,0.050,0.257,-5.337
0.112,0.052,0.257,-5.337
0.120,0.053,0.259,-5.337
0.168,0.051,0.259,-5.337
0.182,0.052,0.260,-5.337
0.169,0.052,0.259,-5.337
0.169,0.053,0.255,-5.337
0.214,0.051,0.255,-5.337
0.163,0.054,0.257,-5.337
0.123,0.054,0.259,-5.337
0.138,0.053,0.259,-5.337
0.186,0.051,0.262,-5.337
0.227,0.050,0.259,-5.337
0.276,0.049,0.257,-5.337
0.236,0.047,0.254,-5.337
0.214,0.050,0.256,-5.337
0.200,0.050,0.254,-5.337
0.157,0.049,0.253,-5.337
0.130,0.049,0.256,-5.337
0.128,0.050,0.262,-5.337
0.140,0.051,0.260,-5.337
0.125,0.055,0.258,-5.337
0.182,0.051,0.257,-5.337
0.197,0.052,0.257,-5.337
0.141,0.054,0.257,-5.337
0.148,0.056,0.253,-5.337
0.154,0.054,0.255,-5.337
0.152,0.050,0.256,-5.337
0.155,0.051,0.255,-5.337
0.177,0.054,0.253,-5.337
0.163,0.051,0.259,-5.337
0.137,0.052,0.264,-5.337
0.117,0.051,0.264,-5.337
0.109,0.049,0.258,-5.337
0.128,0.049,0.253,-5.337
0.132,0.048,0.249,-5.337
0.148,0.047,0.254,-5.337
0.211,0.044,0.257,-5.337
0.216,0.045,0.257,-5.337
0.156,0.048,0.258,-5.337
0.136,0.050,0.258,-5.337
0.157,0.049,0.255,-5.337
0.177,0.050,0.256,-5.337
0.212,0.047,0.259,-5.337
0.237,0.047,0.258,-5.337
0.271,0.047,0.255,-5.337
0.210,0.048,0.257,-5.337
0.141,0.048,0.255,-5.337
0.170,0.045,0.254,-5.337
0.150,0.045,0.255,-5.337
0.118,0.049,0.259,-5.337
0.116,0.051,0.263,-5.337
0.090,0.051,0.262,-5.337
0.119,0.045,0.258,-5.337
0.099,0.045,0.256,-5.337
0.086,0.043,0.259,-5.337
0.160,0.042,0.262,-5.337
0.193,0.042,0.261,-5.337
0.187,0.043,0.256,-5.337
0.194,0.042,0.256,-5.337
0.211,0.042,0.258,-5.337
0.180,0.043,0.258,-5.337
0.185,0.043,0.256,-5.337
0.188,0.047,0.255,-5.337
0.133,0.047,0.259,-5.337
0.163,0.042,0.260,-5.337
0.210,0.039,0.259,-5.337
0.181,0.041,0.256,-5.337
0.170,0.044,0.255,-5.337
0.131,0.046,0.253,-5.337
0.136,0.043,0.254,-5.337
0.188,0.042,0.257,-5.337
0.210,0.043,0.264,-5.337
0.215,0.040,0.261,-5.337
0.233,0.038,0.259,-5.337
0.239,0.038,0.259,-5.337
0.174,0.043,0.260,-5.337
0.172,0.046,0.259,-5.337
0.190,0.047,0.256,-5.337
0.188,0.046,0.255,-5.337
0.175,0.046,0.259,-5.337
0.155,0.048,0.261,-5.337
0.189,0.048,0.262,-5.337
0.183,0.046,0.261,-5.337
0.156,0.045,0.264,-5.337
0.204,0.044,0.264,-5.337
0.235,0.045,0.262,-5.337
0.180,0.047,0.258,-5.337
0.150,0.045,0.257,-5.337
0.156,0.040,0.257,-5.337
0.184,0.040,0.259,-5.337
0.183,0.039,0.261,-5.337
0.213,0.041,0.258,-5.337
0.179,0.040,0.256,-5.337
0.214,0.036,0.256,-5.337
0.231,0.038,0.255,-5.337
0.225,0.041,0.257,-5.337
0.234,0.039,0.260,-5.337
0.230,0.039,0.260,-5.337
0.164,0.040,0.261,-5.337
0.135,0.036,0.256,-5.337
0.144,0.038,0.256,-5.337
0.137,0.039,0.256,-5.337
0.107,0.038,0.254,-5.337
0.107,0.034,0.254,-5.337
0.138,0.031,0.259,-5.337
0.125,0.035,0.263,-5.337
0.154,0.033,0.263,-5.337
0.182,0.032,0.261,-5.337
0.156,0.034,0.263,-5.337
0.159,0.033,0.260,-5.337
0.206,0.034,0.255,-5.337
0.174,0.033,0.256,-5.337
0.105,0.038,0.258,-5.337
0.101,0.039,0.260,-5.337
0.122,0.038,0.259,-5.337
0.123,0.038,0.256,-5.337
0.133,0.037,0.252,-5.337
0.120,0.036,0.254,-5.337
0.144,0.034,0.256,-5.337
0.200,0.034,0.260,-5.337
0.247,0.035,0.258,-5.337
0.196,0.038,0.261,-5.337
0.117,0.039,0.260,-5.337
0.082,0.041,0.258,-5.337
0.173,0.038,0.254,-5.337
0.211,0.040,0.254,-5.337
0.156,0.041,0.256,-5.337
0.181,0.040,0.258,-5.337
0.193,0.039,0.257,-5.337
0.168,0.041,0.255,-5.337
0.190,0.042,0.254,-5.337
0.205,0.041,0.253,-5.337
0.186,0.038,0.253,-5.337
0.216,0.039,0.256,-5.337
0.219,0.040,0.257,-5.337
0.202,0.040,0.258,-5.337
0.213,0.037,0.260,-5.337
0.204,0.037,0.260,-5.337
0.167,0.041,0.258,-5.337
0.177,0.040,0.255,-5.337
0.164,0.042,0.259,-5.337
0.179,0.040,0.262,-5.337
0.153,0.037,0.263,-5.337
0.148,0.036,0.258,-5.337
0.114,0.041,0.255,-5.337
0.139,0.045,0.256,-5.337
0.167,0.046,0.258,-5.337
0.169,0.043,0.255,-5.337
0.192,0.043,0.252,-5.337
0.182,0.041,0.254,-5.337
0.175,0.040,0.256,-5.337
0.189,0.040,0.259,-5.337
0.210,0.043,0.258,-5.337
0.224,0.042,0.256,-5.337
0.167,0.039,0.255,-5.337
0.174,0.037,0.254,-5.337
0.211,0.040,0.256,-5.337
0.238,0.042,0.258,-5.337
0.248,0.044,0.258,-5.337
0.228,0.043,0.258,-5.337
0.198,0.043,0.260,-5.337
0.159,0.044,0.259,-5.337
0.136,0.044,0.256,-5.337
0.161,0.038,0.256,-5.337
0.188,0.036,0.254,-5.337
0.220,0.040,0.255,-5.337
0.210,0.041,0.255,-5.337
0.191,0.039,0.255,-5.337
0.186,0.035,0.255,-5.337
0.221,0.034,0.256,-5.337
0.191,0.034,0.258,-5.337
0.221,0.033,0.260,-5.337
0.247,0.034,0.260,-5.337
0.196,0.038,0.262,-5.337
0.209,0.039,0.259,-5.337
0.220,0.039,0.256,-5.337
0.205,0.041,0.258,-5.337
0.170,0.041,0.260,-5.337
0.158,0.038,0.259,-5.337
0.152,0.039,0.256,-5.337
0.125,0.041,0.253,-5.337
0.164,0.040,0.251,-5.337
0.202,0.039,0.251,-5.337
0.184,0.043,0.253,-5.337
0.177,0.043,0.262,-5.337
0.207,0.041,0.263,-5.337
0.177,0.042,0.259,-5.337
0.221,0.042,0.254,-5.337
0.222,0.039,0.255,-5.337
0.221,0.038,0.258,-5.337
0.174,0.038,0.258,-5.337
0.178,0.036,0.252,-5.337
0.194,0.038,0.250,-5.337
0.226,0.038,0.253,-5.337
0.258,0.040,0.256,-5.337
0.213,0.039,0.256,-5.337
0.191,0.038,0.257,-5.337
0.235,0.037,0.255,-5.337
0.239,0.036,0.259,-5.337
0.239,0.035,0.260,-5.337
0.244,0.039,0.261,-5.337
0.247,0.039,0.259,-5.337
0.200,0.042,0.255,-5.337
0.182,0.042,0.255,-5.337
0.143,0.043,0.255,-5.337
0.128,0.040,0.256,-5.337
0.149,0.040,0.255,-5.337
0.130,0.042,0.259,-5.337
0.125,0.041,0.262,-5.337
0.192,0.044,0.260,-5.337
0.185,0.042,0.257,-5.337
0.104,0.042,0.252,-5.337
0.083,0.041,0.252,-5.337
0.123,0.042,0.257,-5.337
0.210,0.039,0.260,-5.337
0.229,0.042,0.259,-5.337
0.161,0.043,0.256,-5.337
0.187,0.042,0.256,-5.337
0.243,0.033,0.257,-5.337
0.275,0.033,0.258,-5.337
0.263,0.037,0.256,-5.337
0.204,0.045,0.253,-5.337
0.182,0.045,0.253,-5.337
0.156,0.042,0.250,-5.337
0.160,0.040,0.251,-5.337
0.188,0.042,0.254,-5.337
0.174,0.043,0.259,-5.337
0.166,0.042,0.262,-5.337
0.248,0.041,0.262,-5.337
0.208,0.042,0.260,-5.337
0.195,0.040,0.262,-5.337
0.213,0.041,0.258,-5.337
0.250,0.039,0.258,-5.337
0.231,0.041,0.257,-5.337
0.233,0.042,0.254,-5.337
0.190,0.043,0.252,-5.337
0.184,0.043,0.254,-5.337
0.212,0.041,0.258,-5.337
0.207,0.040,0.260,-5.337
0.227,0.040,0.255,-5.337
0.169,0.044,0.255,-5.337
0.167,0.043,0.258,-5.337
0.193,0.042,0.258,-5.337
0.226,0.039,0.256,-5.337
0.184,0.042,0.257,-5.337
0.127,0.046,0.257,-5.337
0.122,0.044,0.256,-5.337
0.134,0.043,0.258,-5.337
0.145,0.044,0.260,-5.337
0.157,0.046,0.261,-5.337
0.176,0.045,0.255,-5.337
0.197,0.043,0.251,-5.337
0.220,0.044,0.253,-5.337
0.203,0.045,0.260,-5.337
0.156,0.045,0.259,-5.337
0.207,0.044,0.257,-5.337
0.278,0.043,0.257,-5.337
0.251,0.042,0.261,-5.337
0.217,0.040,0.263,-5.337
0.160,0.047,0.259,-5.337
0.171,0.047,0.255,-5.337
0.205,0.047,0.254,-5.337
0.185,0.047,0.254,-5.337
0.186,0.049,0.255,-5.337
0.190,0.048,0.259,-5.337
0.209,0.046,0.261,-5.337
0.247,0.046,0.259,-5.337
0.292,0.044,0.255,-5.337
0.215,0.047,0.257,-5.337
0.124,0.054,0.260,-5.337
0.126,0.053,0.260,-5.337
0.197,0.047,0.256,-5.337
0.226,0.044,0.255,-5.337
0.192,0.049,0.254,-5.337
0.149,0.050,0.254,-5.337
0.214,0.045,0.250,-5.337
0.192,0.048,0.253,-5.337
0.120,0.049,0.257,-5.337
0.205,0.046,0.259,-5.337
0.246,0.045,0.258,-5.337
0.210,0.050,0.259,-5.337
0.166,0.048,0.261,-5.337
0.166,0.045,0.260,-5.337
0.174,0.050,0.260,-5.337
0.140,0.053,0.260,-5.337
0.147,0.047,0.257,-5.337
0.184,0.044,0.258,-5.337
0.233,0.043,0.261,-5.337
0.237,0.042,0.261,-5.337
0.210,0.045,0.258,-5.337
0.160,0.048,0.254,-5.337
0.155,0.049,0.254,-5.337
0.192,0.048,0.258,-5.337
0.203,0.047,0.258,-5.337
0.243,0.046,0.259,-5.337
0.175,0.049,0.260,-5.337
0.149,0.050,0.260,-5.337
0.203,0.049,0.261,-5.337
0.263,0.049,0.258,-5.337
0.216,0.052,0.258,-5.337
0.075,0.051,0.258,-5.337
0.043,0.056,0.258,-5.337
0.112,0.057,0.255,-5.337
0.254,0.052,0.256,-5.337
0.299,0.047,0.258,-5.337
0.176,0.053,0.260,-5.337
0.070,0.053,0.257,-5.337
0.114,0.053,0.255,-5.337
0.181,0.049,0.257,-5.337
0.218,0.049,0.262,-5.337
0.187,0.048,0.264,-5.337
0.193,0.049,0.262,-5.337
0.215,0.050,0.258,-5.337
0.228,0.050,0.257,-5.337
0.223,0.051,0.258,-5.337
0.186,0.051,0.256,-5.337
0.210,0.047,0.253,-5.337
0.268,0.045,0.255,-5.337
0.293,0.045,0.263,-5.337
0.284,0.048,0.263,-5.337
0.220,0.054,0.260,-5.337
0.140,0.054,0.260,-5.337
0.116,0.054,0.257,-5.337
0.122,0.054,0.254,-5.337
0.141,0.056,0.256,-5.337
0.166,0.053,0.261,-5.337
0.185,0.053,0.263,-5.337
0.190,0.052,0.258,-5.337
0.178,0.052,0.256,-5.337
0.175,0.052,0.258,-5.337
0.177,0.054,0.257,-5.337
0.164,0.054,0.257,-5.337
0.180,0.053,0.256,-5.337
0.195,0.054,0.257,-5.337
0.173,0.055,0.259,-5.337
0.135,0.056,0.258,-5.337
0.163,0.055,0.253,-5.337
0.187,0.052,0.252,-5.337
0.194,0.053,0.252,-5.337
0.189,0.055,0.255,-5.337
0.117,0.059,0.260,-5.337
0.137,0.059,0.263,-5.337
0.158,0.055,0.263,-5.337
0.182,0.060,0.261,-5.337
0.226,0.057,0.257,-5.337
0.268,0.056,0.259,-5.337
0.248,0.058,0.261,-5.337
0.279,0.057,0.259,-5.337
0.188,0.060,0.260,-5.337
0.184,0.055,0.263,-5.337
0.228,0.053,0.265,-5.337
0.230,0.057,0.266,-5.337
0.227,0.061,0.266,-5.337
0.212,0.062,0.259,-5.337
0.161,0.056,0.252,-5.337
0.166,0.057,0.248,-5.337
0.232,0.056,0.253,-5.337
0.235,0.056,0.258,-5.337
0.225,0.055,0.261,-5.337
0.227,0.059,0.259,-5.337
0.217,0.063,0.261,-5.337
0.166,0.063,0.258,-5.337
0.123,0.063,0.256,-5.337
0.210,0.057,0.256,-5.337
0.244,0.059,0.259,-5.337
0.206,0.060,0.259,-5.337
0.143,0.063,0.260,-5.337
0.143,0.060,0.261,-5.337
0.201,0.060,0.262,-5.337
0.242,0.057,0.259,-5.337
0.217,0.059,0.256,-5.337
0.173,0.059,0.259,-5.337
0.223,0.058,0.262,-5.337
0.202,0.056,0.261,-5.337
0.169,0.058,0.258,-5.337
0.185,0.058,0.256,-5.337
0.179,0.062,0.255,-5.337
0.187,0.058,0.258,-5.337
0.208,0.055,0.260,-5.337
0.221,0.055,0.260,-5.337
0.218,0.054,0.257,-5.337
0.180,0.056,0.258,-5.337
0.158,0.056,0.261,-5.337
0.176,0.055,0.262,-5.337
0.203,0.056,0.261,-5.337
0.236,0.060,0.262,-5.337
0.203,0.060,0.261,-5.337
0.179,0.058,0.260,-5.337
0.146,0.058,0.255,-5.337
0.122,0.060,0.256,-5.337
0.132,0.064,0.259,-5.337
0.126,0.064,0.261,-5.337
0.178,0.059,0.258,-5.337
0.181,0.061,0.254,-5.337
0.207,0.060,0.252,-5.337
0.241,0.059,0.254,-5.337
0.215,0.060,0.253,-5.337
0.149,0.058,0.253,-5.337
0.193,0.059,0.254,-5.337
0.226,0.056,0.254,-5.337
0.195,0.056,0.256,-5.337
0.152,0.059,0.258,-5.337
0.157,0.060,0.260,-5.337
0.164,0.057,0.258,-5.337
0.137,0.058,0.257,-5.337
0.147,0.059,0.257,-5.337
0.142,0.061,0.260,-5.337
0.168,0.058,0.259,-5.337
0.192,0.059,0.256,-5.337
0.149,0.061,0.253,-5.337
0.152,0.059,0.257,-5.337
0.219,0.056,0.264,-5.337
0.308,0.056,0.262,-5.337
0.311,0.053,0.259,-5.337
0.214,0.058,0.258,-5.337
0.156,0.057,0.257,-5.337
0.183,0.056,0.255,-5.337
0.192,0.057,0.255,-5.337
0.211,0.053,0.255,-5.337
0.218,0.052,0.256,-5.337
0.182,0.054,0.258,-5.337
0.185,0.054,0.255,-5.337
0.203,0.054,0.255,-5.337
0.201,0.056,0.256,-5.337
0.127,0.059,0.257,-5.337
0.057,0.059,0.259,-5.337
0.102,0.052,0.258,-5.337
0.197,0.048,0.256,-5.337
0.191,0.049,0.250,-5.337
0.159,0.055,0.251,-5.337
0.157,0.054,0.255,-5.337
0.234,0.051,0.261,-5.337
0.245,0.052,0.259,-5.337
0.180,0.057,0.252,-5.337
0.139,0.056,0.250,-5.337
0.171,0.055,0.253,-5.337
0.224,0.053,0.258,-5.337
0.280,0.048,0.258,-5.337
0.225,0.050,0.257,-5.337
0.189,0.052,0.255,-5.337
0.231,0.050,0.254,-5.337
0.250,0.053,0.254,-5.337
0.257,0.056,0.254,-5.337
0.176,0.057,0.258,-5.337
0.190,0.053,0.258,-5.337
0.269,0.052,0.255,-5.337
0.262,0.055,0.256,-5.337
0.167,0.062,0.258,-5.337
0.087,0.066,0.257,-5.337
0.120,0.058,0.258,-5.337
0.236,0.056,0.260,-5.337
0.186,0.058,0.256,-5.337
0.120,0.063,0.256,-5.337
0.145,0.058,0.256,-5.337
0.220,0.060,0.256,-5.337
0.252,0.058,0.254,-5.337
0.203,0.058,0.254,-5.337
0.215,0.057,0.255,-5.337
0.212,0.059,0.257,-5.337
0.203,0.060,0.258,-5.337
0.201,0.060,0.257,-5.337
0.174,0.061,0.254,-5.337
0.162,0.058,0.256,-5.337
0.109,0.059,0.260,-5.337
0.115,0.060,0.258,-5.337
0.127,0.057,0.255,-5.337
0.171,0.053,0.255,-5.337
0.179,0.054,0.256,-5.337
0.138,0.056,0.257,-5.337
0.100,0.056,0.264,-5.337
0.148,0.053,0.263,-5.337
0.167,0.054,0.261,-5.337
0.188,0.056,0.254,-5.337
0.218,0.054,0.252,-5.337
0.181,0.056,0.252,-5.337
0.155,0.056,0.256,-5.337
0.132,0.053,0.260,-5.337
0.127,0.053,0.263,-5.337
0.180,0.054,0.263,-5.337
0.196,0.055,0.256,-5.337
0.149,0.058,0.250,-5.337
0.162,0.054,0.249,-5.337
0.202,0.053,0.252,-5.337
0.246,0.054,0.255,-5.337
0.269,0.053,0.255,-5.337
0.239,0.055,0.253,-5.337
0.143,0.058,0.255,-5.337
0.105,0.059,0.256,-5.337
0.154,0.054,0.257,-5.337
0.320,0.047,0.254,-5.337
0.271,0.051,0.253,-5.337
0.156,0.054,0.252,-5.337
0.197,0.051,0.252,-5.337
0.255,0.051,0.255,-5.337
0.234,0.052,0.263,-5.337
0.163,0.051,0.265,-5.337
0.113,0.046,0.261,-5.337
0.112,0.045,0.257,-5.337
0.151,0.044,0.257,-5.337
0.197,0.046,0.258,-5.337
0.224,0.049,0.259,-5.337
0.198,0.049,0.262,-5.337
0.177,0.049,0.264,-5.337
0.189,0.049,0.262,-5.337
0.169,0.050,0.258,-5.337
0.191,0.046,0.256,-5.337
0.237,0.045,0.257,-5.337
0.230,0.047,0.256,-5.337
0.198,0.047,0.253,-5.337
0.151,0.051,0.254,-5.337
0.134,0.051,0.256,-5.337
0.150,0.048,0.255,-5.337
0.184,0.047,0.255,-5.337
0.218,0.048,0.255,-5.337
0.225,0.045,0.252,-5.337
0.139,0.044,0.255,-5.337
0.177,0.045,0.261,-5.337
0.182,0.048,0.262,-5.337
0.142,0.048,0.259,-5.337
0.180,0.048,0.256,-5.337
0.173,0.046,0.252,-5.337
0.152,0.049,0.251,-5.337
0.111,0.048,0.254,-5.337
0.174,0.045,0.256,-5.337
0.201,0.042,0.258,-5.337
0.182,0.042,0.258,-5.337
0.190,0.046,0.256,-5.337
0.222,0.047,0.257,-5.337
0.189,0.047,0.262,-5.337
0.204,0.048,0.265,-5.337
0.143,0.050,0.263,-5.337
0.118,0.048,0.260,-5.337
0.167,0.046,0.256,-5.337
0.234,0.048,0.255,-5.337
0.194,0.051,0.254,-5.337
0.132,0.051,0.254,-5.337
0.166,0.049,0.256,-5.337
0.259,0.045,0.256,-5.337
0.194,0.049,0.257,-5.337
0.092,0.048,0.256,-5.337
0.126,0.044,0.257,-5.337
0.224,0.039,0.256,-5.337
0.172,0.044,0.256,-5.337
0.085,0.045,0.256,-5.337
0.108,0.045,0.256,-5.337
0.137,0.046,0.256,-5.337
0.216,0.045,0.253,-5.337
0.214,0.045,0.251,-5.337
0.185,0.040,0.251,-5.337
0.207,0.039,0.252,-5.337
0.186,0.041,0.254,-5.337
0.150,0.043,0.257,-5.337
0.182,0.043,0.261,-5.337
0.228,0.042,0.261,-5.337
0.205,0.043,0.257,-5.337
0.174,0.042,0.253,-5.337
0.229,0.037,0.255,-5.337
0.272,0.037,0.261,-5.337
0.186,0.042,0.263,-5.337
0.151,0.043,0.262,-5.337
0.159,0.043,0.257,-5.337
0.215,0.040,0.254,-5.337
0.281,0.037,0.254,-5.337
0.269,0.039,0.259,-5.337
0.208,0.043,0.257,-5.337
0.104,0.048,0.255,-5.337
0.056,0.048,0.256,-5.337
0.117,0.047,0.257,-5.337
0.115,0.046,0.256,-5.337
0.117,0.048,0.255,-5.337
0.135,0.050,0.255,-5.337
0.157,0.045,0.255,-5.337
0.165,0.045,0.257,-5.337
0.143,0.048,0.259,-5.337
0.185,0.048,0.260,-5.337
0.230,0.046,0.262,-5.337
0.241,0.041,0.260,-5.337
0.208,0.042,0.255,-5.337
0.206,0.041,0.257,-5.337
0.215,0.040,0.256,-5.337
0.208,0.040,0.253,-5.337
0.202,0.044,0.251,-5.337
0.244,0.046,0.255,-5.337
0.258,0.042,0.258,-5.337
0.189,0.046,0.257,-5.337
0.130,0.047,0.257,-5.337
0.106,0.048,0.257,-5.337
0.149,0.045,0.257,-5.337
0.190,0.045,0.257,-5.337
0.222,0.042,0.259,-5.337
0.159,0.045,0.259,-5.337
0.132,0.043,0.258,-5.337
0.197,0.042,0.257,-5.337
0.192,0.044,0.256,-5.337
0.197,0.042,0.257,-5.337
0.160,0.042,0.258,-5.337
0.151,0.043,0.260,-5.337
0.215,0.039,0.260,-5.337
0.211,0.040,0.256,-5.337
0.169,0.040,0.256,-5.337
0.164,0.035,0.257,-5.337
0.198,0.034,0.258,-5.337
0.202,0.035,0.256,-5.337
0.229,0.036,0.258,-5.337
0.257,0.038,0.255,-5.337
0.213,0.037,0.256,-5.337
0.142,0.034,0.260,-5.337
0.108,0.039,0.262,-5.337
0.207,0.036,0.260,-5.337
0.191,0.041,0.259,-5.337
0.163,0.040,0.260,-5.337
0.187,0.040,0.259,-5.337
0.179,0.038,0.258,-5.337
0.119,0.040,0.258,-5.337
0.159,0.040,0.260,-5.337
0.221,0.042,0.261,-5.337
0.243,0.042,0.260,-5.337
0.254,0.043,0.261,-5.337
0.235,0.042,0.261,-5.337
0.173,0.043,0.256,-5.337
0.166,0.044,0.257,-5.337
0.198,0.046,0.254,-5.337
0.210,0.048,0.255,-5.337
0.196,0.046,0.256,-5.337
0.132,0.044,0.258,-5.337
0.142,0.042,0.261,-5.337
0.236,0.040,0.263,-5.337
0.254,0.040,0.259,-5.337
0.242,0.040,0.258,-5.337
0.224,0.037,0.258,-5.337
0.175,0.040,0.262,-5.337
0.162,0.041,0.266,-5.337
0.221,0.041,0.264,-5.337
0.203,0.040,0.262,-5.337
0.139,0.042,0.260,-5.337
0.162,0.046,0.257,-5.337
0.167,0.044,0.255,-5.337
0.150,0.042,0.251,-5.337
0.166,0.041,0.254,-5.337
0.140,0.042,0.259,-5.337
0.087,0.044,0.258,-5.337
0.107,0.043,0.261,-5.337
0.183,0.045,0.262,-5.337
0.208,0.048,0.261,-5.337
0.185,0.044,0.256,-5.337
0.213,0.041,0.254,-5.337
0.212,0.044,0.253,-5.337
0.128,0.050,0.258,-5.337
0.141,0.045,0.258,-5.337
0.188,0.044,0.258,-5.337
0.211,0.045,0.259,-5.337
0.138,0.050,0.256,-5.337
0.170,0.048,0.254,-5.337
0.252,0.046,0.253,-5.337
0.260,0.045,0.254,-5.337
0.204,0.047,0.255,-5.337
0.251,0.045,0.260,-5.337
0.260,0.045,0.263,-5.337
0.228,0.045,0.264,-5.337
0.166,0.046,0.263,-5.337
0.146,0.047,0.258,-5.337
0.185,0.046,0.257,-5.337
0.222,0.045,0.261,-5.337
0.164,0.045,0.260,-5.337
0.122,0.045,0.259,-5.337
0.124,0.044,0.259,-5.337
0.198,0.046,0.259,-5.337
0.201,0.046,0.258,-5.337
0.161,0.046,0.259,-5.337
0.165,0.047,0.258,-5.337
0.156,0.046,0.258,-5.337
0.153,0.044,0.259,-5.337
0.154,0.041,0.258,-5.337
0.167,0.039,0.253,-5.337
0.206,0.044,0.256,-5.337
0.251,0.043,0.258,-5.337
0.265,0.042,0.257,-5.337
0.199,0.041,0.255,-5.337
0.115,0.042,0.256,-5.337
0.179,0.041,0.258,-5.337
0.233,0.043,0.257,-5.337
0.252,0.041,0.258,-5.337
0.241,0.036,0.263,-5.337
0.227,0.037,0.263,-5.337
0.226,0.038,0.260,-5.337
0.215,0.040,0.257,-5.337
0.216,0.043,0.255,-5.337
0.169,0.047,0.254,-5.337
0.157,0.050,0.255,-5.337
0.205,0.048,0.258,-5.337
0.176,0.047,0.259,-5.337
0.184,0.045,0.258,-5.337
0.172,0.043,0.254,-5.337
0.167,0.041,0.252,-5.337
0.203,0.043,0.250,-5.337
0.226,0.044,0.254,-5.337
0.207,0.044,0.256,-5.337
0.234,0.042,0.258,-5.337
0.241,0.042,0.256,-5.337
0.144,0.045,0.259,-5.337
0.121,0.045,0.258,-5.337
0.160,0.044,0.253,-5.337
0.180,0.050,0.252,-5.337
0.166,0.050,0.257,-5.337
0.188,0.047,0.260,-5.337
0.179,0.048,0.260,-5.337
0.189,0.047,0.261,-5.337
0.294,0.045,0.261,-5.337
0.304,0.044,0.260,-5.337
0.182,0.048,0.255,-5.337
0.136,0.047,0.254,-5.337
0.170,0.047,0.256,-5.337
0.216,0.047,0.261,-5.337
0.145,0.052,0.262,-5.337
0.141,0.050,0.259,-5.337
0.218,0.049,0.256,-5.337
0.266,0.050,0.253,-5.337
0.244,0.047,0.250,-5.337
0.164,0.054,0.252,-5.337
0.183,0.049,0.254,-5.337
0.218,0.044,0.257,-5.337
0.256,0.043,0.258,-5.337
0.315,0.047,0.259,-5.337
0.302,0.045,0.260,-5.337
0.281,0.043,0.258,-5.337
0.253,0.040,0.256,-5.337
0.266,0.041,0.259,-5.337
0.243,0.045,0.257,-5.337
0.236,0.046,0.254,-5.337
0.195,0.050,0.254,-5.337
0.206,0.051,0.255,-5.337
0.210,0.051,0.254,-5.337
0.172,0.052,0.254,-5.337
0.150,0.050,0.256,-5.337
0.164,0.048,0.256,-5.337
0.187,0.051,0.255,-5.337
0.181,0.050,0.255,-5.337
0.173,0.051,0.256,-5.337
0.199,0.052,0.259,-5.337
0.154,0.051,0.261,-5.337
0.174,0.047,0.260,-5.337
0.228,0.048,0.258,-5.337
0.236,0.047,0.260,-5.337
0.169,0.045,0.258,-5.337
0.129,0.049,0.255,-5.337
0.130,0.048,0.257,-5.337
0.174,0.046,0.257,-5.337
0.203,0.045,0.253,-5.337
0.200,0.046,0.252,-5.337
0.173,0.046,0.254,-5.337
0.152,0.049,0.258,-5.337
0.176,0.047,0.258,-5.337
0.180,0.045,0.260,-5.337
0.185,0.045,0.257,-5.337
0.182,0.049,0.253,-5.337
0.191,0.047,0.252,-5.337
0.234,0.047,0.255,-5.337
0.212,0.047,0.257,-5.337
0.211,0.047,0.263,-5.337
0.241,0.046,0.262,-5.337
0.259,0.045,0.258,-5.337
0.255,0.044,0.254,-5.337
0.235,0.046,0.257,-5.337
0.180,0.047,0.260,-5.337
0.202,0.046,0.263,-5.337
0.247,0.042,0.259,-5.337
0.193,0.049,0.254,-5.337
0.162,0.052,0.250,-5.337
0.214,0.050,0.252,-5.337
0.208,0.051,0.254,-5.337
0.168,0.052,0.253,-5.337
0.163,0.048,0.255,-5.337
0.215,0.044,0.258,-5.337
0.190,0.045,0.260,-5.337
0.128,0.050,0.258,-5.337
0.115,0.052,0.264,-5.337
0.148,0.053,0.265,-5.337
0.186,0.047,0.260,-5.337
0.192,0.049,0.256,-5.337
0.159,0.052,0.256,-5.337
0.177,0.050,0.256,-5.337
0.202,0.049,0.258,-5.337
0.210,0.050,0.258,-5.337
0.170,0.050,0.257,-5.337
0.181,0.052,0.257,-5.337
0.215,0.049,0.256,-5.337
0.237,0.050,0.257,-5.337
0.228,0.053,0.256,-5.337
0.200,0.055,0.255,-5.337
0.150,0.054,0.257,-5.337
0.167,0.050,0.261,-5.337
0.209,0.051,0.263,-5.337
0.180,0.051,0.260,-5.337
0.135,0.053,0.257,-5.337
0.110,0.053,0.256,-5.337
0.141,0.056,0.259,-5.337
0.149,0.054,0.260,-5.337
0.166,0.055,0.255,-5.337
0.241,0.052,0.253,-5.337
0.253,0.050,0.254,-5.337
0.255,0.051,0.258,-5.337
0.191,0.050,0.259,-5.337
0.167,0.049,0.259,-5.337
0.220,0.049,0.258,-5.337
0.308,0.050,0.258,-5.337
0.231,0.051,0.261,-5.337
0.149,0.056,0.261,-5.337
0.132,0.055,0.257,-5.337
0.221,0.054,0.255,-5.337
0.217,0.056,0.261,-5.337
0.087,0.058,0.262,-5.337
0.081,0.057,0.255,-5.337
0.191,0.051,0.251,-5.337
0.273,0.048,0.252,-5.337
0.228,0.050,0.254,-5.337
0.189,0.054,0.254,-5.337
0.137,0.059,0.253,-5.337
0.140,0.054,0.255,-5.337
0.219,0.047,0.258,-5.337
0.254,0.047,0.259,-5.337
0.233,0.053,0.260,-5.337
0.205,0.055,0.261,-5.337
0.178,0.053,0.260,-5.337
0.149,0.054,0.257,-5.337
0.217,0.054,0.257,-5.337
0.188,0.057,0.256,-5.337
0.147,0.055,0.255,-5.337
0.157,0.055,0.252,-5.337
0.258,0.051,0.252,-5.337
0.281,0.052,0.254,-5.337
0.246,0.053,0.256,-5.337
0.217,0.053,0.256,-5.337
0.225,0.053,0.258,-5.337
0.190,0.057,0.256,-5.337
0.165,0.056,0.253,-5.337
0.175,0.054,0.255,-5.337
0.189,0.057,0.260,-5.337
0.214,0.057,0.264,-5.337
0.189,0.056,0.264,-5.337
0.149,0.060,0.262,-5.337
0.132,0.058,0.260,-5.337
0.164,0.057,0.258,-5.337
0.197,0.056,0.258,-5.337
0.210,0.059,0.252,-5.337
0.209,0.060,0.250,-5.337
0.206,0.057,0.254,-5.337
0.195,0.058,0.262,-5.337
0.140,0.061,0.266,-5.337
0.126,0.061,0.264,-5.337
0.121,0.059,0.257,-5.337
0.097,0.060,0.252,-5.337
0.125,0.057,0.254,-5.337
0.151,0.062,0.259,-5.337
0.214,0.061,0.257,-5.337
0.284,0.058,0.258,-5.337
0.229,0.060,0.258,-5.337
0.182,0.061,0.257,-5.337
0.207,0.060,0.254,-5.337
0.225,0.061,0.255,-5.337
0.162,0.065,0.258,-5.337
0.145,0.065,0.256,-5.337
0.172,0.062,0.260,-5.337
0.210,0.062,0.262,-5.337
0.245,0.062,0.257,-5.337
0.248,0.059,0.254,-5.337
0.212,0.060,0.261,-5.337
0.212,0.061,0.265,-5.337
0.216,0.062,0.259,-5.337
0.161,0.064,0.255,-5.337
0.141,0.063,0.258,-5.337
0.155,0.063,0.258,-5.337
0.092,0.065,0.259,-5.337
0.140,0.060,0.258,-5.337
0.201,0.059,0.259,-5.337
0.185,0.059,0.259,-5.337
0.188,0.057,0.260,-5.337
0.249,0.057,0.259,-5.337
0.190,0.057,0.255,-5.337
0.150,0.055,0.256,-5.337
0.143,0.054,0.261,-5.337
0.187,0.053,0.261,-5.337
0.201,0.053,0.261,-5.337
0.128,0.056,0.264,-5.337
0.113,0.060,0.263,-5.337
0.138,0.061,0.259,-5.337
0.173,0.060,0.257,-5.337
0.205,0.058,0.259,-5.337
0.188,0.055,0.254,-5.337
0.184,0.059,0.253,-5.337
0.182,0.058,0.255,-5.337
0.227,0.056,0.260,-5.337
0.290,0.054,0.261,-5.337
0.281,0.056,0.259,-5.337
0.205,0.061,0.259,-5.337
0.265,0.063,0.260,-5.337
0.220,0.067,0.261,-5.337
0.133,0.068,0.261,-5.337
0.133,0.066,0.260,-5.337
0.173,0.063,0.257,-5.337
0.117,0.067,0.258,-5.337
0.119,0.066,0.259,-5.337
0.173,0.064,0.256,-5.337
0.147,0.066,0.254,-5.337
0.190,0.061,0.255,-5.337
0.214,0.062,0.257,-5.337
0.185,0.062,0.263,-5.337
0.167,0.065,0.266,-5.337
0.177,0.064,0.268,-5.337
0.194,0.060,0.263,-5.337
0.211,0.061,0.262,-5.337
0.246,0.063,0.257,-5.337
0.254,0.061,0.252,-5.337
0.243,0.061,0.251,-5.337
0.203,0.065,0.257,-5.337
0.170,0.065,0.261,-5.337
0.172,0.065,0.259,-5.337
0.168,0.065,0.254,-5.337
0.158,0.065,0.257,-5.337
0.204,0.063,0.261,-5.337
0.214,0.063,0.258,-5.337
0.175,0.063,0.255,-5.337
0.158,0.062,0.258,-5.337
0.186,0.062,0.259,-5.337
0.165,0.060,0.258,-5.337
0.143,0.062,0.260,-5.337
0.200,0.059,0.261,-5.337
0.193,0.060,0.259,-5.337
0.203,0.061,0.254,-5.337
0.247,0.061,0.252,-5.337
0.175,0.063,0.255,-5.337
0.079,0.066,0.259,-5.337
0.128,0.063,0.260,-5.337
0.164,0.063,0.261,-5.337
0.155,0.064,0.260,-5.337
0.174,0.062,0.258,-5.337
0.193,0.059,0.255,-5.337
0.207,0.061,0.256,-5.337
0.178,0.065,0.256,-5.337
0.143,0.065,0.256,-5.337
0.185,0.058,0.255,-5.337
0.222,0.060,0.255,-5.337
0.205,0.059,0.257,-5.337
0.165,0.063,0.259,-5.337
0.157,0.063,0.255,-5.337
0.177,0.062,0.254,-5.337
0.180,0.061,0.254,-5.337
0.134,0.062,0.252,-5.337
0.149,0.060,0.253,-5.337
0.195,0.064,0.257,-5.337
0.192,0.067,0.259,-5.337
0.207,0.064,0.260,-5.337
0.210,0.063,0.259,-5.337
0.182,0.063,0.259,-5.337
0.118,0.064,0.260,-5.337
0.091,0.064,0.255,-5.337
0.160,0.061,0.253,-5.337
0.187,0.062,0.252,-5.337
0.155,0.065,0.251,-5.337
0.151,0.058,0.254,-5.337
0.177,0.055,0.261,-5.337
0.163,0.056,0.263,-5.337
0.147,0.058,0.262,-5.337
0.195,0.058,0.257,-5.337
0.244,0.054,0.254,-5.337
0.210,0.055,0.257,-5.337
0.192,0.058,0.261,-5.337
0.167,0.059,0.259,-5.337
0.182,0.056,0.256,-5.337
0.207,0.056,0.256,-5.337
0.233,0.056,0.257,-5.337
0.207,0.059,0.256,-5.337
0.162,0.059,0.259,-5.337
0.114,0.059,0.262,-5.337
0.117,0.057,0.253,-5.337
0.165,0.060,0.252,-5.337
0.159,0.062,0.255,-5.337
0.204,0.058,0.257,-5.337
0.252,0.054,0.257,-5.337
0.183,0.059,0.257,-5.337
0.101,0.058,0.254,-5.337
0.103,0.058,0.254,-5.337
0.154,0.057,0.253,-5.337
0.139,0.057,0.252,-5.337
0.130,0.055,0.252,-5.337
0.185,0.056,0.254,-5.337
0.252,0.052,0.257,-5.337
0.207,0.053,0.259,-5.337
0.201,0.054,0.260,-5.337
0.219,0.055,0.261,-5.337
0.159,0.059,0.258,-5.337
0.126,0.061,0.254,-5.337
0.147,0.057,0.255,-5.337
0.185,0.054,0.257,-5.337
0.187,0.054,0.261,-5.337
0.176,0.059,0.259,-5.337
0.174,0.060,0.257,-5.337
0.238,0.057,0.255,-5.337
0.217,0.057,0.253,-5.337
0.202,0.060,0.251,-5.337
0.230,0.059,0.255,-5.337
0.149,0.061,0.254,-5.337
0.126,0.059,0.253,-5.337
0.139,0.057,0.257,-5.337
0.146,0.058,0.260,-5.337
0.140,0.059,0.260,-5.337
0.165,0.055,0.259,-5.337
0.202,0.053,0.258,-5.337
0.213,0.052,0.256,-5.337
0.256,0.054,0.254,-5.337
0.196,0.054,0.253,-5.337
0.152,0.054,0.254,-5.337
0.157,0.051,0.254,-5.337
0.142,0.050,0.251,-5.337
0.132,0.055,0.251,-5.337
0.065,0.059,0.256,-5.337
0.097,0.057,0.260,-5.337
0.131,0.054,0.259,-5.337
0.153,0.053,0.258,-5.337
0.170,0.053,0.258,-5.337
0.155,0.055,0.253,-5.337
0.100,0.057,0.250,-5.337
0.116,0.056,0.255,-5.337
0.169,0.054,0.259,-5.337
0.197,0.051,0.257,-5.337
0.197,0.051,0.259,-5.337
0.181,0.049,0.261,-5.337
0.187,0.047,0.260,-5.337
0.188,0.045,0.257,-5.337
0.212,0.047,0.258,-5.337
0.191,0.046,0.258,-5.337
0.210,0.047,0.258,-5.337
0.182,0.051,0.256,-5.337
0.151,0.051,0.254,-5.337
0.162,0.046,0.251,-5.337
0.134,0.051,0.250,-5.337
0.129,0.052,0.254,-5.337
0.181,0.046,0.256,-5.337
0.185,0.044,0.258,-5.337
0.178,0.045,0.258,-5.337
0.174,0.046,0.255,-5.337
0.196,0.047,0.255,-5.337
0.243,0.046,0.257,-5.337
0.236,0.043,0.258,-5.337
0.208,0.048,0.258,-5.337
0.165,0.051,0.256,-5.337
0.136,0.051,0.254,-5.337
0.110,0.054,0.253,-5.337
0.115,0.055,0.254,-5.337
0.104,0.054,0.255,-5.337
0.069,0.054,0.257,-5.337
0.050,0.052,0.259,-5.337
0.097,0.050,0.256,-5.337
0.201,0.049,0.254,-5.337
0.230,0.049,0.254,-5.337
0.208,0.050,0.255,-5.337
0.152,0.054,0.256,-5.337
0.132,0.054,0.259,-5.337
0.142,0.052,0.263,-5.337
0.142,0.049,0.263,-5.337
0.157,0.046,0.257,-5.337
0.155,0.046,0.251,-5.337
0.128,0.050,0.249,-5.337
0.129,0.051,0.255,-5.337
0.168,0.050,0.258,-5.337
0.180,0.049,0.256,-5.337
0.158,0.049,0.252,-5.337
0.180,0.048,0.253,-5.337
0.174,0.052,0.252,-5.337
0.158,0.049,0.251,-5.337
0.182,0.048,0.251,-5.337
0.217,0.051,0.257,-5.337
0.240,0.050,0.261,-5.337
0.223,0.049,0.257,-5.337
0.180,0.048,0.254,-5.337
0.187,0.047,0.253,-5.337
0.188,0.048,0.254,-5.337
0.154,0.050,0.256,-5.337
0.218,0.047,0.255,-5.337
0.205,0.045,0.253,-5.337
0.145,0.045,0.259,-5.337
0.154,0.047,0.262,-5.337
0.137,0.048,0.261,-5.337
0.197,0.044,0.257,-5.337
0.226,0.043,0.256,-5.337
0.176,0.047,0.257,-5.337
0.136,0.050,0.257,-5.337
0.138,0.050,0.254,-5.337
0.147,0.046,0.254,-5.337
0.183,0.044,0.255,-5.337
0.164,0.044,0.259,-5.337
0.185,0.042,0.257,-5.337
0.196,0.043,0.257,-5.337
0.201,0.042,0.258,-5.337
0.208,0.044,0.258,-5.337
0.206,0.046,0.258,-5.337
0.177,0.045,0.255,-5.337
0.210,0.041,0.254,-5.337
0.245,0.041,0.254,-5.337
0.199,0.042,0.253,-5.337
0.197,0.045,0.254,-5.337
0.193,0.045,0.259,-5.337
0.187,0.043,0.260,-5.337
0.193,0.045,0.258,-5.337
0.149,0.047,0.256,-5.337
0.117,0.050,0.257,-5.337
0.168,0.047,0.257,-5.337
0.184,0.046,0.256,-5.337
0.182,0.049,0.254,-5.337
0.146,0.049,0.256,-5.337
0.122,0.048,0.259,-5.337
0.143,0.047,0.260,-5.337
0.170,0.044,0.257,-5.337
0.207,0.046,0.256,-5.337
0.171,0.052,0.257,-5.337
0.119,0.049,0.258,-5.337
0.142,0.043,0.256,-5.337
0.187,0.042,0.253,-5.337
0.196,0.043,0.253,-5.337
0.188,0.042,0.254,-5.337
0.193,0.041,0.258,-5.337
0.209,0.044,0.257,-5.337
0.181,0.045,0.256,-5.337
0.189,0.040,0.257,-5.337
0.205,0.042,0.258,-5.337
0.179,0.045,0.257,-5.337
0.195,0.044,0.257,-5.337
0.181,0.045,0.256,-5.337
0.162,0.048,0.257,-5.337
0.173,0.046,0.258,-5.337
0.200,0.044,0.262,-5.337
0.188,0.044,0.260,-5.337
0.176,0.046,0.257,-5.337
0.218,0.040,0.255,-5.337
0.223,0.039,0.254,-5.337
0.188,0.041,0.254,-5.337
0.206,0.041,0.254,-5.337
0.186,0.040,0.255,-5.337
0.166,0.040,0.259,-5.337
0.251,0.039,0.263,-5.337
0.269,0.038,0.262,-5.337
0.236,0.037,0.260,-5.337
0.211,0.036,0.258,-5.337
0.185,0.040,0.259,-5.337
0.179,0.043,0.258,-5.337
0.133,0.044,0.260,-5.337
0.167,0.042,0.260,-5.337
0.218,0.043,0.257,-5.337
0.142,0.045,0.254,-5.337
0.113,0.043,0.257,-5.337
0.177,0.039,0.259,-5.337
0.175,0.038,0.263,-5.337
0.184,0.042,0.265,-5.337
0.186,0.043,0.262,-5.337
0.118,0.039,0.254,-5.337
0.110,0.039,0.252,-5.337
0.153,0.038,0.254,-5.337
0.183,0.039,0.255,-5.337
0.200,0.040,0.259,-5.337
0.197,0.041,0.261,-5.337
0.164,0.045,0.262,-5.337
0.122,0.045,0.259,-5.337
0.161,0.040,0.258,-5.337
0.210,0.036,0.258,-5.337
0.195,0.038,0.255,-5.337
0.215,0.037,0.255,-5.337
0.248,0.038,0.260,-5.337
0.235,0.041,0.261,-5.337
0.226,0.040,0.261,-5.337
0.207,0.039,0.254,-5.337
0.215,0.037,0.250,-5.337
0.209,0.043,0.254,-5.337
0.186,0.047,0.263,-5.337
0.208,0.047,0.265,-5.337
0.207,0.050,0.263,-5.337
0.201,0.046,0.260,-5.337
0.208,0.045,0.258,-5.337
0.223,0.045,0.257,-5.337
0.200,0.046,0.258,-5.337
0.161,0.045,0.257,-5.337
0.145,0.047,0.257,-5.337
0.159,0.043,0.258,-5.337
0.145,0.044,0.259,-5.337
0.180,0.042,0.258,-5.337
0.230,0.039,0.260,-5.337
0.187,0.040,0.258,-5.337
0.133,0.041,0.256,-5.337
0.092,0.041,0.254,-5.337
0.124,0.041,0.253,-5.337
0.231,0.040,0.253,-5.337
0.250,0.042,0.249,-5.337
0.170,0.044,0.252,-5.337
0.178,0.044,0.254,-5.337
0.197,0.042,0.254,-5.337
0.142,0.043,0.255,-5.337
0.165,0.042,0.262,-5.337
0.247,0.040,0.261,-5.337
0.280,0.037,0.261,-5.337
0.229,0.037,0.261,-5.337
0.177,0.042,0.264,-5.337
0.214,0.043,0.267,-5.337
0.241,0.041,0.266,-5.337
0.231,0.042,0.261,-5.337
0.196,0.042,0.254,-5.337
0.189,0.039,0.251,-5.337
0.172,0.040,0.256,-5.337
0.141,0.044,0.262,-5.337
0.127,0.048,0.261,-5.337
0.126,0.048,0.259,-5.337
0.160,0.048,0.260,-5.337
0.142,0.050,0.257,-5.337
0.127,0.051,0.252,-5.337
0.215,0.047,0.252,-5.337
0.307,0.043,0.257,-5.337
0.261,0.045,0.259,-5.337
0.165,0.045,0.257,-5.337
0.180,0.043,0.263,-5.337
0.220,0.043,0.260,-5.337
0.211,0.046,0.256,-5.337
0.190,0.044,0.253,-5.337
0.239,0.045,0.256,-5.337
0.249,0.047,0.257,-5.337
0.174,0.046,0.256,-5.337
0.188,0.044,0.253,-5.337
0.167,0.044,0.254,-5.337
0.128,0.049,0.259,-5.337
0.134,0.049,0.260,-5.337
0.205,0.045,0.255,-5.337
0.199,0.046,0.253,-5.337
0.220,0.045,0.253,-5.337
0.201,0.048,0.253,-5.337
0.133,0.046,0.255,-5.337
0.190,0.045,0.257,-5.337
0.171,0.046,0.256,-5.337
0.158,0.045,0.259,-5.337
0.158,0.045,0.261,-5.337
0.145,0.046,0.256,-5.337
0.159,0.045,0.252,-5.337
0.146,0.046,0.252,-5.337
0.159,0.046,0.260,-5.337
0.194,0.047,0.260,-5.337
0.203,0.047,0.260,-5.337
0.188,0.047,0.260,-5.337
0.188,0.050,0.260,-5.337
0.214,0.049,0.258,-5.337
0.287,0.048,0.257,-5.337
0.263,0.047,0.256,-5.337
0.258,0.046,0.257,-5.337
0.234,0.047,0.256,-5.337
0.271,0.048,0.255,-5.337
0.279,0.044,0.254,-5.337
0.260,0.045,0.255,-5.337
0.289,0.045,0.252,-5.337
0.297,0.045,0.253,-5.337
0.215,0.047,0.255,-5.337
0.164,0.042,0.257,-5.337
0.212,0.038,0.256,-5.337
0.192,0.041,0.256,-5.337
0.210,0.041,0.261,-5.337
0.211,0.044,0.262,-5.337
0.185,0.045,0.260,-5.337
0.188,0.046,0.255,-5.337
0.197,0.044,0.254,-5.337
0.192,0.047,0.253,-5.337
0.205,0.049,0.256,-5.337
0.207,0.048,0.256,-5.337
0.148,0.050,0.259,-5.337
0.150,0.045,0.261,-5.337
0.154,0.048,0.261,-5.337
0.203,0.049,0.262,-5.337
0.235,0.052,0.260,-5.337
0.168,0.055,0.259,-5.337
0.152,0.053,0.259,-5.337
0.202,0.053,0.255,-5.337
0.223,0.049,0.252,-5.337
0.210,0.047,0.249,-5.337
0.182,0.050,0.254,-5.337
0.194,0.051,0.255,-5.337
0.213,0.052,0.254,-5.337
0.213,0.050,0.255,-5.337
0.223,0.048,0.255,-5.337
0.239,0.045,0.259,-5.337
0.256,0.046,0.264,-5.337
0.219,0.050,0.262,-5.337
0.130,0.052,0.255,-5.337
0.107,0.049,0.253,-5.337
0.176,0.047,0.252,-5.337
0.207,0.050,0.253,-5.337
0.214,0.051,0.257,-5.337
0.223,0.049,0.261,-5.337
0.198,0.049,0.261,-5.337
0.193,0.050,0.259,-5.337
0.175,0.053,0.258,-5.337
0.185,0.050,0.258,-5.337
0.207,0.047,0.257,-5.337
0.219,0.048,0.253,-5.337
0.235,0.050,0.251,-5.337
0.181,0.052,0.253,-5.337
0.181,0.050,0.255,-5.337
0.194,0.046,0.254,-5.337
0.227,0.045,0.254,-5.337
0.237,0.048,0.257,-5.337
0.257,0.047,0.262,-5.337
0.233,0.050,0.264,-5.337
0.172,0.054,0.261,-5.337
0.172,0.054,0.260,-5.337
0.194,0.054,0.257,-5.337
0.197,0.056,0.251,-5.337
0.172,0.059,0.252,-5.337
0.132,0.060,0.251,-5.337
0.176,0.062,0.254,-5.337
0.158,0.060,0.253,-5.337
0.185,0.055,0.254,-5.337
0.240,0.052,0.256,-5.337
0.231,0.053,0.258,-5.337
0.253,0.055,0.257,-5.337
0.198,0.055,0.256,-5.337
0.137,0.053,0.255,-5.337
0.165,0.053,0.255,-5.337
0.196,0.054,0.255,-5.337
0.204,0.054,0.258,-5.337
0.232,0.052,0.263,-5.337
0.204,0.050,0.259,-5.337
0.190,0.052,0.256,-5.337
0.225,0.052,0.255,-5.337
0.250,0.052,0.256,-5.337
0.174,0.054,0.256,-5.337
0.143,0.052,0.257,-5.337
0.230,0.048,0.258,-5.337
0.222,0.049,0.261,-5.337
0.197,0.050,0.261,-5.337
0.188,0.053,0.256,-5.337
0.205,0.053,0.251,-5.337
0.207,0.056,0.252,-5.337
0.156,0.054,0.255,-5.337
0.138,0.053,0.256,-5.337
0.177,0.050,0.254,-5.337
0.181,0.049,0.253,-5.337
0.221,0.049,0.254,-5.337
0.234,0.049,0.257,-5.337
0.178,0.054,0.258,-5.337
0.149,0.057,0.256,-5.337
0.225,0.057,0.255,-5.337
0.190,0.063,0.253,-5.337
0.090,0.060,0.255,-5.337
0.089,0.055,0.255,-5.337
0.172,0.052,0.258,-5.337
0.188,0.054,0.258,-5.337
0.130,0.055,0.259,-5.337
0.171,0.056,0.258,-5.337
0.199,0.056,0.258,-5.337
0.197,0.059,0.256,-5.337
0.222,0.057,0.258,-5.337
0.198,0.055,0.261,-5.337
0.191,0.052,0.260,-5.337
0.198,0.055,0.257,-5.337
0.195,0.060,0.254,-5.337
0.169,0.060,0.255,-5.337
0.164,0.058,0.254,-5.337
0.176,0.057,0.255,-5.337
0.217,0.057,0.254,-5.337
0.209,0.059,0.251,-5.337
0.214,0.060,0.253,-5.337
0.245,0.057,0.258,-5.337
0.198,0.061,0.259,-5.337
0.146,0.062,0.259,-5.337
0.199,0.061,0.254,-5.337
0.239,0.061,0.252,-5.337
0.234,0.061,0.254,-5.337
0.180,0.060,0.258,-5.337
0.166,0.056,0.257,-5.337
0.207,0.054,0.259,-5.337
0.235,0.054,0.261,-5.337
0.242,0.057,0.262,-5.337
0.197,0.060,0.258,-5.337
0.189,0.060,0.257,-5.337
0.227,0.057,0.255,-5.337
0.212,0.060,0.255,-5.337
0.158,0.064,0.254,-5.337
0.125,0.067,0.255,-5.337
0.191,0.064,0.257,-5.337
0.236,0.062,0.258,-5.337
0.216,0.062,0.256,-5.337
0.187,0.060,0.256,-5.337
0.203,0.057,0.254,-5.337
0.150,0.060,0.257,-5.337
0.134,0.061,0.258,-5.337
0.203,0.059,0.258,-5.337
0.196,0.060,0.260,-5.337
0.188,0.060,0.260,-5.337
0.201,0.063,0.255,-5.337
0.220,0.061,0.251,-5.337
0.211,0.065,0.255,-5.337
0.140,0.063,0.258,-5.337
0.169,0.063,0.259,-5.337
0.197,0.063,0.259,-5.337
0.199,0.062,0.260,-5.337
0.178,0.061,0.259,-5.337
0.158,0.060,0.258,-5.337
0.165,0.062,0.258,-5.337
0.177,0.060,0.257,-5.337
0.167,0.059,0.256,-5.337
0.188,0.060,0.256,-5.337
0.201,0.062,0.256,-5.337
0.199,0.065,0.258,-5.337
0.185,0.062,0.258,-5.337
0.213,0.061,0.256,-5.337
0.217,0.063,0.252,-5.337
0.140,0.065,0.256,-5.337
0.145,0.063,0.260,-5.337
0.148,0.063,0.263,-5.337
0.158,0.061,0.262,-5.337
0.140,0.064,0.260,-5.337
0.116,0.066,0.258,-5.337
0.129,0.065,0.255,-5.337
0.180,0.062,0.259,-5.337
0.234,0.059,0.262,-5.337
0.224,0.060,0.259,-5.337
0.202,0.065,0.256,-5.337
0.163,0.063,0.258,-5.337
0.182,0.060,0.259,-5.337
0.261,0.062,0.261,-5.337
0.244,0.064,0.260,-5.337
0.176,0.065,0.256,-5.337
0.204,0.061,0.250,-5.337
0.257,0.060,0.247,-5.337
0.188,0.061,0.248,-5.337
0.211,0.065,0.255,-5.337
0.216,0.063,0.258,-5.337
0.177,0.064,0.260,-5.337
0.130,0.067,0.262,-5.337
0.157,0.068,0.264,-5.337
0.174,0.067,0.265,-5.337
0.177,0.064,0.260,-5.337
0.236,0.060,0.256,-5.337
0.259,0.063,0.253,-5.337
0.277,0.060,0.253,-5.337
0.256,0.061,0.254,-5.337
0.184,0.064,0.258,-5.337
0.160,0.065,0.258,-5.337
0.155,0.065,0.259,-5.337
0.195,0.063,0.257,-5.337
0.152,0.064,0.257,-5.337
0.142,0.062,0.256,-5.337
0.191,0.062,0.255,-5.337
0.194,0.064,0.256,-5.337
0.162,0.068,0.258,-5.337
0.136,0.067,0.258,-5.337
0.137,0.067,0.258,-5.337
0.199,0.065,0.257,-5.337
0.225,0.063,0.254,-5.337
0.147,0.064,0.256,-5.337
0.107,0.064,0.256,-5.337
0.167,0.061,0.253,-5.337
0.211,0.061,0.256,-5.337
0.210,0.064,0.256,-5.337
0.196,0.067,0.253,-5.337
0.214,0.062,0.254,-5.337
0.222,0.060,0.254,-5.337
0.210,0.060,0.255,-5.337
0.159,0.064,0.255,-5.337
0.133,0.063,0.258,-5.337
0.179,0.060,0.261,-5.337
0.199,0.061,0.263,-5.337
0.166,0.060,0.259,-5.337
0.183,0.061,0.251,-5.337
0.223,0.057,0.250,-5.337
0.208,0.059,0.253,-5.337
0.188,0.060,0.257,-5.337
0.201,0.063,0.262,-5.337
0.171,0.067,0.263,-5.337
0.163,0.069,0.258,-5.337
0.157,0.067,0.257,-5.337
0.110,0.065,0.259,-5.337
0.089,0.064,0.257,-5.337
0.119,0.065,0.255,-5.337
0.150,0.066,0.254,-5.337
0.105,0.067,0.255,-5.337
0.151,0.063,0.261,-5.337
0.239,0.060,0.264,-5.337
0.207,0.063,0.263,-5.337
0.079,0.067,0.261,-5.337
0.044,0.064,0.260,-5.337
0.078,0.058,0.259,-5.337
0.137,0.059,0.257,-5.337
0.179,0.060,0.256,-5.337
0.148,0.060,0.253,-5.337
0.128,0.056,0.252,-5.337
0.163,0.056,0.256,-5.337
0.196,0.054,0.259,-5.337
0.250,0.053,0.258,-5.337
0.249,0.049,0.255,-5.337
0.212,0.052,0.253,-5.337
0.216,0.052,0.252,-5.337
0.204,0.056,0.255,-5.337
0.193,0.056,0.256,-5.337
0.209,0.057,0.259,-5.337
0.215,0.057,0.262,-5.337
0.200,0.057,0.260,-5.337
0.167,0.057,0.261,-5.337
0.126,0.061,0.262,-5.337
0.149,0.059,0.257,-5.337
0.190,0.052,0.250,-5.337
0.190,0.054,0.249,-5.337
0.181,0.055,0.252,-5.337
0.155,0.057,0.256,-5.337
0.176,0.058,0.254,-5.337
0.188,0.055,0.253,-5.337
0.158,0.054,0.255,-5.337
0.142,0.054,0.257,-5.337
0.120,0.056,0.257,-5.337
0.080,0.057,0.257,-5.337
0.143,0.053,0.256,-5.337
0.191,0.051,0.256,-5.337
0.163,0.050,0.252,-5.337
0.227,0.046,0.253,-5.337
0.258,0.048,0.257,-5.337
0.189,0.053,0.261,-5.337
0.112,0.054,0.260,-5.337
0.093,0.050,0.257,-5.337
0.119,0.053,0.253,-5.337
0.064,0.056,0.252,-5.337
0.066,0.054,0.256,-5.337
0.092,0.053,0.258,-5.337
0.161,0.053,0.262,-5.337
0.204,0.056,0.260,-5.337
0.200,0.057,0.258,-5.337
0.176,0.052,0.256,-5.337
0.173,0.053,0.256,-5.337
0.160,0.056,0.253,-5.337
0.175,0.054,0.253,-5.337
0.186,0.050,0.256,-5.337
0.187,0.051,0.262,-5.337
0.150,0.050,0.260,-5.337
0.210,0.049,0.254,-5.337
0.215,0.054,0.251,-5.337
0.164,0.055,0.252,-5.337
0.112,0.053,0.252,-5.337
0.188,0.051,0.253,-5.337
0.220,0.049,0.253,-5.337
0.197,0.047,0.256,-5.337
0.158,0.051,0.258,-5.337
0.174,0.052,0.256,-5.337
0.195,0.055,0.256,-5.337
0.189,0.055,0.254,-5.337
0.198,0.053,0.255,-5.337
0.224,0.050,0.260,-5.337
0.233,0.056,0.262,-5.337
0.235,0.053,0.258,-5.337
0.177,0.052,0.254,-5.337
0.147,0.054,0.255,-5.337
0.124,0.056,0.252,-5.337
0.124,0.055,0.253,-5.337
0.129,0.053,0.257,-5.337
0.167,0.051,0.259,-5.337
0.186,0.054,0.258,-5.337
0.170,0.052,0.256,-5.337
0.181,0.050,0.256,-5.337
0.155,0.049,0.259,-5.337
0.174,0.050,0.262,-5.337
0.136,0.050,0.261,-5.337
0.206,0.050,0.255,-5.337
0.243,0.047,0.252,-5.337
0.215,0.047,0.251,-5.337
0.184,0.047,0.251,-5.337
0.187,0.049,0.250,-5.337
0.168,0.048,0.253,-5.337
0.122,0.048,0.254,-5.337
0.134,0.046,0.255,-5.337
0.198,0.047,0.252,-5.337
0.198,0.050,0.251,-5.337
0.197,0.054,0.248,-5.337
0.131,0.053,0.251,-5.337
0.119,0.050,0.253,-5.337
0.148,0.049,0.257,-5.337
0.183,0.050,0.259,-5.337
0.202,0.051,0.261,-5.337
0.151,0.051,0.259,-5.337
0.122,0.047,0.257,-5.337
0.087,0.044,0.256,-5.337
0.143,0.045,0.255,-5.337
0.185,0.049,0.256,-5.337
0.191,0.050,0.256,-5.337
0.180,0.048,0.258,-5.337
0.251,0.044,0.259,-5.337
0.268,0.043,0.261,-5.337
0.181,0.048,0.256,-5.337
0.145,0.049,0.253,-5.337
0.198,0.045,0.249,-5.337
0.155,0.048,0.254,-5.337
0.109,0.047,0.255,-5.337
0.199,0.046,0.258,-5.337
0.306,0.048,0.256,-5.337
0.260,0.050,0.249,-5.337
0.199,0.049,0.247,-5.337
0.207,0.048,0.253,-5.337
0.212,0.049,0.260,-5.337
0.133,0.054,0.260,-5.337
0.083,0.051,0.256,-5.337
0.106,0.050,0.258,-5.337
0.129,0.050,0.258,-5.337
0.185,0.048,0.255,-5.337
0.240,0.049,0.250,-5.337
0.262,0.049,0.251,-5.337
0.213,0.049,0.252,-5.337
0.181,0.048,0.253,-5.337
0.190,0.050,0.256,-5.337
0.193,0.053,0.255,-5.337
0.188,0.051,0.253,-5.337
0.123,0.051,0.252,-5.337
0.099,0.049,0.251,-5.337
0.169,0.045,0.254,-5.337
0.162,0.047,0.257,-5.337
0.140,0.049,0.257,-5.337
0.144,0.048,0.259,-5.337
0.161,0.045,0.258,-5.337
0.210,0.044,0.257,-5.337
0.224,0.045,0.257,-5.337
0.158,0.051,0.259,-5.337
0.083,0.051,0.260,-5.337
0.149,0.049,0.256,-5.337
0.235,0.048,0.253,-5.337
0.260,0.050,0.254,-5.337
0.246,0.045,0.256,-5.337
0.229,0.046,0.258,-5.337
0.148,0.051,0.259,-5.337
0.130,0.053,0.259,-5.337
0.187,0.052,0.256,-5.337
0.216,0.052,0.255,-5.337
0.224,0.048,0.251,-5.337
0.244,0.048,0.251,-5.337
0.205,0.050,0.254,-5.337
0.158,0.053,0.257,-5.337
0.156,0.051,0.261,-5.337
0.171,0.051,0.257,-5.337
0.202,0.049,0.255,-5.337
0.215,0.044,0.253,-5.337
0.186,0.047,0.254,-5.337
0.177,0.049,0.252,-5.337
0.176,0.047,0.254,-5.337
0.153,0.049,0.256,-5.337
0.167,0.049,0.260,-5.337
0.189,0.049,0.260,-5.337
0.188,0.048,0.259,-5.337
0.220,0.045,0.255,-5.337
0.181,0.047,0.252,-5.337
0.182,0.046,0.254,-5.337
0.213,0.045,0.258,-5.337
0.229,0.045,0.259,-5.337
0.173,0.049,0.258,-5.337
0.096,0.049,0.255,-5.337
0.114,0.049,0.257,-5.337
0.136,0.049,0.258,-5.337
0.205,0.050,0.255,-5.337
0.215,0.050,0.251,-5.337
0.107,0.052,0.251,-5.337
0.128,0.048,0.256,-5.337
0.191,0.048,0.258,-5.337
0.151,0.055,0.259,-5.337
0.153,0.053,0.259,-5.337
0.203,0.049,0.260,-5.337
0.202,0.051,0.257,-5.337
0.164,0.055,0.254,-5.337
0.173,0.050,0.257,-5.337
0.217,0.047,0.260,-5.337
0.255,0.045,0.260,-5.337
0.271,0.045,0.257,-5.337
0.192,0.048,0.258,-5.337
0.134,0.049,0.262,-5.337
0.125,0.049,0.260,-5.337
0.152,0.050,0.257,-5.337
0.203,0.049,0.255,-5.337
0.205,0.050,0.256,-5.337
0.182,0.051,0.261,-5.337
0.194,0.049,0.261,-5.337
0.223,0.046,0.256,-5.337
0.155,0.048,0.251,-5.337
0.090,0.050,0.253,-5.337
0.154,0.047,0.257,-5.337
0.228,0.050,0.260,-5.337
0.214,0.051,0.261,-5.337
0.158,0.047,0.261,-5.337
0.169,0.044,0.258,-5.337
0.228,0.044,0.253,-5.337
0.208,0.047,0.252,-5.337
0.191,0.053,0.255,-5.337
0.170,0.050,0.254,-5.337
0.148,0.050,0.253,-5.337
0.158,0.050,0.252,-5.337
0.177,0.049,0.254,-5.337
0.216,0.045,0.258,-5.337
0.208,0.048,0.259,-5.337
0.133,0.054,0.259,-5.337
0.166,0.054,0.254,-5.337
0.232,0.050,0.253,-5.337
0.247,0.047,0.255,-5.337
0.166,0.048,0.258,-5.337
0.189,0.048,0.257,-5.337
0.228,0.048,0.258,-5.337
0.237,0.045,0.255,-5.337
0.206,0.047,0.254,-5.337
0.176,0.049,0.256,-5.337
0.155,0.051,0.258,-5.337
0.192,0.048,0.255,-5.337
0.270,0.049,0.254,-5.337
0.267,0.048,0.255,-5.337
0.215,0.051,0.258,-5.337
0.154,0.049,0.260,-5.337
0.142,0.051,0.260,-5.337
0.179,0.052,0.256,-5.337
0.185,0.049,0.253,-5.337
0.183,0.046,0.253,-5.337
0.212,0.048,0.254,-5.337
0.224,0.047,0.256,-5.337
0.207,0.045,0.260,-5.337
0.193,0.047,0.258,-5.337
0.186,0.047,0.254,-5.337
0.150,0.044,0.254,-5.337
0.199,0.042,0.256,-5.337
0.239,0.045,0.259,-5.337
0.184,0.047,0.260,-5.337
0.141,0.051,0.260,-5.337
0.166,0.047,0.255,-5.337
0.217,0.046,0.251,-5.337
0.219,0.044,0.249,-5.337
0.236,0.047,0.253,-5.337
0.232,0.046,0.257,-5.337
0.187,0.048,0.259,-5.337
0.147,0.049,0.261,-5.337
0.170,0.049,0.259,-5.337
0.234,0.045,0.257,-5.337
0.242,0.046,0.259,-5.337
0.224,0.047,0.258,-5.337
0.246,0.044,0.258,-5.337
0.233,0.045,0.257,-5.337
0.160,0.048,0.256,-5.337
0.130,0.048,0.255,-5.337
0.129,0.049,0.257,-5.337
0.150,0.047,0.258,-5.337
0.177,0.050,0.260,-5.337
0.186,0.053,0.261,-5.337
0.112,0.053,0.259,-5.337
0.146,0.049,0.259,-5.337
0.205,0.050,0.257,-5.337
0.197,0.050,0.258,-5.337
0.177,0.051,0.258,-5.337
0.149,0.051,0.258,-5.337
0.111,0.052,0.253,-5.337
0.186,0.048,0.249,-5.337
0.228,0.045,0.250,-5.337
0.256,0.048,0.255,-5.337
0.218,0.050,0.261,-5.337
0.181,0.052,0.264,-5.337
0.210,0.049,0.264,-5.337
0.214,0.048,0.262,-5.337
0.191,0.048,0.261,-5.337
0.148,0.051,0.258,-5.337
0.170,0.052,0.254,-5.337
0.276,0.047,0.254,-5.337
0.372,0.042,0.256,-5.337
0.313,0.044,0.254,-5.337
0.196,0.045,0.250,-5.337
0.163,0.049,0.253,-5.337
0.174,0.048,0.262,-5.337
0.220,0.048,0.264,-5.337
0.206,0.051,0.259,-5.337
0.188,0.052,0.253,-5.337
0.201,0.051,0.253,-5.337
0.167,0.053,0.257,-5.337
0.151,0.053,0.260,-5.337
0.214,0.053,0.257,-5.337
0.220,0.052,0.257,-5.337
0.220,0.049,0.255,-5.337
0.131,0.048,0.252,-5.337
0.142,0.044,0.252,-5.337
0.224,0.042,0.254,-5.337
0.242,0.041,0.255,-5.337
0.176,0.043,0.256,-5.337
0.149,0.046,0.257,-5.337
0.175,0.045,0.259,-5.337
0.209,0.049,0.257,-5.337
0.181,0.051,0.255,-5.337
0.121,0.050,0.254,-5.337
0.142,0.052,0.255,-5.337
0.207,0.053,0.256,-5.337
0.246,0.052,0.254,-5.337
0.228,0.052,0.252,-5.337
0.226,0.055,0.253,-5.337
0.242,0.054,0.259,-5.337
0.230,0.051,0.261,-5.337
0.214,0.056,0.261,-5.337
0.185,0.057,0.260,-5.337
0.190,0.055,0.257,-5.337
0.166,0.055,0.256,-5.337
0.106,0.058,0.255,-5.337
0.089,0.058,0.255,-5.337
0.112,0.055,0.256,-5.337
0.208,0.053,0.257,-5.337
0.204,0.053,0.255,-5.337
0.195,0.048,0.253,-5.337
0.201,0.049,0.251,-5.337
0.196,0.053,0.251,-5.337
0.207,0.052,0.255,-5.337
0.229,0.052,0.254,-5.337
0.202,0.053,0.251,-5.337
0.135,0.058,0.251,-5.337
0.134,0.058,0.255,-5.337
0.170,0.054,0.254,-5.337
0.221,0.053,0.256,-5.337
0.263,0.056,0.258,-5.337
0.217,0.058,0.257,-5.337
0.182,0.058,0.257,-5.337
0.171,0.059,0.258,-5.337
0.182,0.060,0.258,-5.337
0.160,0.062,0.255,-5.337
0.159,0.059,0.253,-5.337
0.165,0.056,0.252,-5.337
0.150,0.060,0.254,-5.337
0.118,0.065,0.256,-5.337
0.124,0.064,0.259,-5.337
0.138,0.060,0.259,-5.337
0.160,0.062,0.257,-5.337
0.201,0.061,0.255,-5.337
0.249,0.058,0.253,-5.337
0.197,0.059,0.252,-5.337
0.180,0.060,0.253,-5.337
0.257,0.060,0.256,-5.337
0.244,0.065,0.255,-5.337
0.163,0.069,0.255,-5.337
0.134,0.065,0.254,-5.337
0.145,0.064,0.252,-5.337
0.161,0.065,0.250,-5.337
0.133,0.067,0.253,-5.337
0.139,0.065,0.254,-5.337
0.149,0.066,0.255,-5.337
0.199,0.064,0.255,-5.337
0.208,0.067,0.255,-5.337
0.180,0.068,0.255,-5.337
0.109,0.066,0.256,-5.337
0.138,0.063,0.257,-5.337
0.206,0.063,0.254,-5.337
0.279,0.060,0.252,-5.337
0.245,0.062,0.253,-5.337
0.162,0.062,0.256,-5.337
0.090,0.065,0.257,-5.337
0.090,0.064,0.255,-5.337
0.115,0.064,0.253,-5.337
0.140,0.064,0.249,-5.337
0.110,0.065,0.250,-5.337
0.101,0.063,0.258,-5.337
0.186,0.060,0.262,-5.337
0.216,0.057,0.264,-5.337
0.178,0.058,0.259,-5.337
0.204,0.061,0.255,-5.337
0.240,0.061,0.251,-5.337
0.264,0.062,0.250,-5.337
0.249,0.062,0.249,-5.337
0.179,0.063,0.252,-5.337
0.162,0.062,0.254,-5.337
0.147,0.064,0.255,-5.337
0.189,0.060,0.256,-5.337
0.200,0.062,0.256,-5.337
0.152,0.061,0.258,-5.337
0.131,0.064,0.259,-5.337
0.198,0.063,0.257,-5.337
0.241,0.065,0.256,-5.337
0.209,0.067,0.256,-5.337
0.223,0.066,0.255,-5.337
0.230,0.067,0.253,-5.337
0.205,0.071,0.255,-5.337
0.190,0.068,0.256,-5.337
0.244,0.065,0.256,-5.337
0.247,0.066,0.255,-5.337
0.141,0.067,0.253,-5.337
0.098,0.070,0.255,-5.337
0.181,0.067,0.257,-5.337
0.223,0.067,0.259,-5.337
0.231,0.065,0.258,-5.337
0.238,0.061,0.259,-5.337
0.236,0.063,0.256,-5.337
0.223,0.065,0.253,-5.337
0.166,0.062,0.251,-5.337
0.091,0.067,0.254,-5.337
0.079,0.067,0.254,-5.337
0.136,0.065,0.255,-5.337
0.189,0.063,0.258,-5.337
0.152,0.064,0.259,-5.337
0.094,0.067,0.254,-5.337
0.103,0.066,0.251,-5.337
0.212,0.065,0.253,-5.337
0.249,0.067,0.255,-5.337
0.235,0.069,0.255,-5.337
0.186,0.072,0.253,-5.337
0.159,0.074,0.252,-5.337
0.207,0.072,0.253,-5.337
0.196,0.069,0.255,-5.337
0.145,0.069,0.255,-5.337
0.159,0.071,0.256,-5.337
0.176,0.070,0.258,-5.337
0.177,0.070,0.259,-5.337
0.193,0.068,0.257,-5.337
0.195,0.068,0.257,-5.337
0.185,0.068,0.254,-5.337
0.201,0.069,0.251,-5.337
0.206,0.070,0.253,-5.337
0.207,0.066,0.256,-5.337
0.193,0.064,0.261,-5.337
0.151,0.064,0.261,-5.337
0.193,0.062,0.256,-5.337
0.243,0.062,0.254,-5.337
0.204,0.062,0.254,-5.337
0.125,0.067,0.254,-5.337
0.076,0.072,0.253,-5.337
0.121,0.067,0.253,-5.337
0.258,0.059,0.255,-5.337
0.283,0.062,0.259,-5.337
0.226,0.063,0.262,-5.337
0.240,0.063,0.254,-5.337
0.191,0.062,0.251,-5.337
0.192,0.056,0.253,-5.337
0.218,0.058,0.258,-5.337
0.216,0.063,0.257,-5.337
0.200,0.064,0.257,-5.337
0.153,0.063,0.255,-5.337
0.160,0.065,0.254,-5.337
0.134,0.068,0.252,-5.337
0.087,0.067,0.255,-5.337
0.149,0.063,0.255,-5.337
0.181,0.067,0.254,-5.337
0.151,0.070,0.255,-5.337
0.120,0.067,0.256,-5.337
0.171,0.063,0.257,-5.337
0.190,0.063,0.258,-5.337
0.189,0.066,0.257,-5.337
0.135,0.072,0.260,-5.337
0.135,0.070,0.259,-5.337
0.168,0.068,0.258,-5.337
0.230,0.064,0.260,-5.337
0.213,0.064,0.260,-5.337
0.235,0.065,0.257,-5.337
0.206,0.065,0.253,-5.337
0.169,0.065,0.254,-5.337
0.180,0.066,0.256,-5.337
0.166,0.068,0.258,-5.337
0.114,0.067,0.255,-5.337
0.146,0.063,0.254,-5.337
0.183,0.060,0.251,-5.337
0.188,0.061,0.249,-5.337
0.150,0.062,0.252,-5.337
0.157,0.061,0.257,-5.337
0.244,0.058,0.259,-5.337
0.184,0.063,0.257,-5.337
0.133,0.065,0.257,-5.337
0.150,0.067,0.257,-5.337
0.203,0.063,0.254,-5.337
0.237,0.062,0.257,-5.337
0.153,0.064,0.261,-5.337
0.186,0.064,0.262,-5.337
0.235,0.060,0.258,-5.337
0.218,0.060,0.254,-5.337
0.206,0.058,0.255,-5.337
0.195,0.058,0.256,-5.337
0.170,0.058,0.256,-5.337
0.166,0.058,0.253,-5.337
0.180,0.063,0.253,-5.337
0.191,0.065,0.254,-5.337
0.191,0.066,0.255,-5.337
0.189,0.063,0.256,-5.337
0.196,0.060,0.255,-5.337
0.200,0.058,0.253,-5.337
0.173,0.062,0.253,-5.337
0.119,0.063,0.256,-5.337
0.111,0.059,0.258,-5.337
0.165,0.056,0.255,-5.337
0.194,0.062,0.254,-5.337
0.185,0.059,0.254,-5.337
0.202,0.056,0.256,-5.337
0.206,0.055,0.257,-5.337
0.183,0.054,0.254,-5.337
0.180,0.051,0.254,-5.337
0.180,0.049,0.257,-5.337
0.141,0.053,0.255,-5.337
0.116,0.058,0.255,-5.337
0.132,0.061,0.259,-5.337
0.148,0.057,0.260,-5.337
0.178,0.054,0.262,-5.337
0.181,0.054,0.258,-5.337
0.169,0.059,0.253,-5.337
0.111,0.060,0.251,-5.337
0.166,0.056,0.253,-5.337
0.213,0.054,0.253,-5.337
0.190,0.055,0.252,-5.337
0.134,0.058,0.253,-5.337
0.168,0.057,0.255,-5.337
0.201,0.055,0.256,-5.337
0.149,0.055,0.255,-5.337
0.131,0.055,0.255,-5.337
0.142,0.054,0.256,-5.337
0.117,0.055,0.257,-5.337
0.138,0.053,0.257,-5.337
0.184,0.053,0.257,-5.337
0.178,0.056,0.257,-5.337
0.193,0.056,0.256,-5.337
0.206,0.055,0.253,-5.337
0.216,0.056,0.256,-5.337
0.226,0.056,0.256,-5.337
0.182,0.054,0.251,-5.337
0.159,0.057,0.252,-5.337
0.108,0.060,0.256,-5.337
0.115,0.059,0.252,-5.337
0.109,0.056,0.253,-5.337
0.132,0.056,0.258,-5.337
0.153,0.054,0.259,-5.337
0.166,0.052,0.258,-5.337
0.152,0.053,0.256,-5.337
0.123,0.053,0.254,-5.337
0.132,0.051,0.253,-5.337
0.220,0.050,0.253,-5.337
0.221,0.048,0.255,-5.337
0.224,0.050,0.257,-5.337
0.194,0.051,0.258,-5.337
0.154,0.051,0.263,-5.337
0.200,0.048,0.263,-5.337
0.191,0.052,0.259,-5.337
0.156,0.055,0.256,-5.337
0.124,0.056,0.257,-5.337
0.108,0.057,0.256,-5.337
0.171,0.054,0.259,-5.337
0.244,0.052,0.259,-5.337
0.203,0.054,0.256,-5.337
0.157,0.056,0.254,-5.337
0.167,0.055,0.253,-5.337
0.196,0.054,0.253,-5.337
0.164,0.052,0.256,-5.337
0.099,0.057,0.253,-5.337
0.087,0.055,0.252,-5.337
0.179,0.049,0.253,-5.337
0.228,0.050,0.258,-5.337
0.183,0.050,0.260,-5.337
0.162,0.054,0.259,-5.337
0.217,0.053,0.260,-5.337
0.213,0.049,0.257,-5.337
0.163,0.050,0.252,-5.337
0.170,0.055,0.249,-5.337
0.190,0.055,0.251,-5.337
0.219,0.048,0.254,-5.337
0.172,0.048,0.257,-5.337
0.093,0.052,0.260,-5.337
0.111,0.052,0.255,-5.337
0.163,0.049,0.256,-5.337
0.151,0.052,0.260,-5.337
0.140,0.056,0.259,-5.337
0.132,0.054,0.256,-5.337
0.074,0.053,0.253,-5.337
0.107,0.053,0.255,-5.337
0.128,0.053,0.256,-5.337
0.095,0.049,0.258,-5.337
0.115,0.045,0.258,-5.337
0.189,0.045,0.255,-5.337
0.229,0.045,0.251,-5.337
0.191,0.047,0.249,-5.337
0.184,0.047,0.248,-5.337
0.207,0.046,0.248,-5.337
0.240,0.045,0.250,-5.337
0.237,0.044,0.254,-5.337
0.139,0.044,0.259,-5.337
0.096,0.046,0.262,-5.337
0.133,0.047,0.258,-5.337
0.237,0.045,0.253,-5.337
0.272,0.045,0.251,-5.337
0.234,0.047,0.252,-5.337
0.165,0.048,0.255,-5.337
0.181,0.046,0.257,-5.337
0.200,0.048,0.261,-5.337
0.173,0.051,0.257,-5.337
0.175,0.048,0.252,-5.337
0.176,0.045,0.248,-5.337
0.155,0.045,0.248,-5.337
0.189,0.042,0.251,-5.337
0.180,0.047,0.255,-5.337
0.112,0.047,0.256,-5.337
0.119,0.048,0.257,-5.337
0.121,0.045,0.261,-5.337
0.157,0.042,0.260,-5.337
0.173,0.042,0.254,-5.337
0.178,0.048,0.251,-5.337
0.147,0.050,0.250,-5.337
0.071,0.054,0.255,-5.337
0.089,0.050,0.257,-5.337
0.174,0.045,0.256,-5.337
0.172,0.046,0.255,-5.337
0.134,0.049,0.254,-5.337
0.170,0.048,0.253,-5.337
0.169,0.047,0.252,-5.337
0.175,0.046,0.251,-5.337
0.220,0.048,0.251,-5.337
0.191,0.048,0.255,-5.337
0.097,0.050,0.258,-5.337
0.099,0.049,0.256,-5.337
0.209,0.047,0.253,-5.337
0.236,0.049,0.253,-5.337
0.218,0.049,0.255,-5.337
0.195,0.049,0.255,-5.337
0.172,0.045,0.256,-5.337
0.247,0.043,0.256,-5.337
0.279,0.044,0.250,-5.337
0.241,0.047,0.250,-5.337
0.152,0.047,0.256,-5.337
0.129,0.043,0.258,-5.337
0.153,0.040,0.258,-5.337
0.216,0.041,0.257,-5.337
0.237,0.038,0.255,-5.337
0.180,0.042,0.253,-5.337
0.137,0.044,0.258,-5.337
0.139,0.049,0.260,-5.337
0.183,0.049,0.256,-5.337
0.182,0.045,0.252,-5.337
0.196,0.047,0.251,-5.337
0.220,0.046,0.249,-5.337
0.204,0.047,0.251,-5.337
0.192,0.047,0.256,-5.337
0.205,0.049,0.258,-5.337
0.240,0.046,0.255,-5.337
0.217,0.047,0.253,-5.337
0.231,0.044,0.254,-5.337
0.214,0.044,0.256,-5.337
0.195,0.044,0.255,-5.337
0.211,0.047,0.254,-5.337
0.260,0.045,0.256,-5.337
0.206,0.046,0.257,-5.337
0.136,0.045,0.254,-5.337
0.167,0.047,0.254,-5.337
0.206,0.042,0.254,-5.337
0.170,0.042,0.254,-5.337
0.148,0.041,0.256,-5.337
0.142,0.044,0.259,-5.337
0.185,0.047,0.256,-5.337
0.213,0.049,0.252,-5.337
0.242,0.047,0.255,-5.337
0.244,0.042,0.257,-5.337
0.244,0.041,0.258,-5.337
0.202,0.044,0.255,-5.337
0.173,0.043,0.252,-5.337
0.155,0.044,0.253,-5.337
0.087,0.046,0.256,-5.337
0.120,0.045,0.256,-5.337
0.169,0.044,0.251,-5.337
0.186,0.041,0.251,-5.337
0.198,0.041,0.256,-5.337
0.185,0.040,0.258,-5.337
0.168,0.038,0.253,-5.337
0.228,0.035,0.246,-5.337
0.207,0.039,0.249,-5.337
0.164,0.041,0.257,-5.337
0.190,0.040,0.258,-5.337
0.201,0.038,0.255,-5.337
0.193,0.035,0.255,-5.337
0.136,0.039,0.255,-5.337
0.139,0.043,0.257,-5.337
0.207,0.039,0.258,-5.337
0.231,0.039,0.254,-5.337
0.147,0.042,0.254,-5.337
0.128,0.041,0.254,-5.337
0.173,0.040,0.256,-5.337
0.237,0.040,0.257,-5.337
0.252,0.041,0.257,-5.337
0.188,0.047,0.255,-5.337
0.162,0.048,0.254,-5.337
0.169,0.045,0.253,-5.337
0.164,0.048,0.253,-5.337
0.163,0.049,0.252,-5.337
0.143,0.047,0.252,-5.337
0.176,0.042,0.253,-5.337
0.216,0.041,0.257,-5.337
0.245,0.042,0.258,-5.337
0.240,0.044,0.257,-5.337
0.231,0.045,0.254,-5.337
0.221,0.044,0.255,-5.337
0.198,0.047,0.256,-5.337
0.157,0.046,0.251,-5.337
0.159,0.045,0.252,-5.337
0.131,0.047,0.252,-5.337
0.180,0.045,0.254,-5.337
0.209,0.047,0.256,-5.337
0.157,0.050,0.259,-5.337
0.152,0.051,0.253,-5.337
0.154,0.052,0.254,-5.337
0.162,0.045,0.257,-5.337
0.144,0.045,0.258,-5.337
0.189,0.044,0.254,-5.337
0.200,0.044,0.254,-5.337
0.199,0.040,0.254,-5.337
0.204,0.043,0.255,-5.337
0.192,0.044,0.257,-5.337
0.207,0.044,0.259,-5.337
0.137,0.048,0.259,-5.337
0.093,0.050,0.261,-5.337
0.126,0.049,0.260,-5.337
0.187,0.042,0.257,-5.337
0.245,0.040,0.255,-5.337
0.236,0.043,0.253,-5.337
0.193,0.042,0.253,-5.337
0.200,0.043,0.257,-5.337
0.197,0.042,0.260,-5.337
0.213,0.041,0.256,-5.337
0.172,0.043,0.253,-5.337
0.213,0.042,0.253,-5.337
0.220,0.041,0.256,-5.337
0.204,0.041,0.256,-5.337
0.207,0.043,0.257,-5.337
0.201,0.045,0.256,-5.337
0.175,0.046,0.256,-5.337
0.186,0.045,0.259,-5.337
0.211,0.042,0.263,-5.337
0.186,0.042,0.265,-5.337
0.182,0.045,0.258,-5.337
0.227,0.047,0.252,-5.337
0.178,0.047,0.250,-5.337
0.175,0.044,0.254,-5.337
0.247,0.040,0.257,-5.337
0.228,0.039,0.258,-5.337
0.179,0.040,0.257,-5.337
0.183,0.042,0.260,-5.337
0.191,0.043,0.262,-5.337
0.184,0.046,0.262,-5.337
0.182,0.046,0.258,-5.337
0.188,0.046,0.256,-5.337
0.180,0.044,0.254,-5.337
0.190,0.044,0.255,-5.337
0.208,0.045,0.256,-5.337
0.254,0.048,0.259,-5.337
0.269,0.047,0.257,-5.337
0.206,0.048,0.255,-5.337
0.142,0.048,0.258,-5.337
0.158,0.049,0.260,-5.337
0.153,0.050,0.262,-5.337
0.159,0.049,0.258,-5.337
0.186,0.044,0.254,-5.337
0.235,0.042,0.256,-5.337
0.235,0.043,0.255,-5.337
0.216,0.045,0.252,-5.337
0.223,0.045,0.249,-5.337
0.232,0.046,0.251,-5.337
0.154,0.048,0.256,-5.337
0.136,0.050,0.256,-5.337
0.137,0.050,0.252,-5.337
0.181,0.047,0.254,-5.337
0.166,0.046,0.259,-5.337
0.201,0.044,0.260,-5.337
0.201,0.043,0.262,-5.337
0.183,0.049,0.259,-5.337
0.180,0.050,0.257,-5.337
0.135,0.049,0.257,-5.337
0.154,0.047,0.260,-5.337
0.203,0.049,0.258,-5.337
0.183,0.047,0.254,-5.337
0.151,0.046,0.252,-5.337
0.244,0.045,0.251,-5.337
0.275,0.046,0.253,-5.337
0.208,0.050,0.255,-5.337
0.177,0.048,0.259,-5.337
0.159,0.049,0.261,-5.337
0.165,0.051,0.262,-5.337
0.193,0.049,0.259,-5.337
0.170,0.051,0.254,-5.337
0.157,0.052,0.256,-5.337
0.169,0.049,0.258,-5.337
0.191,0.047,0.257,-5.337
0.188,0.047,0.252,-5.337
0.184,0.045,0.249,-5.337
0.231,0.044,0.254,-5.337
0.226,0.043,0.256,-5.337
0.170,0.045,0.259,-5.337
0.150,0.045,0.259,-5.337
0.144,0.045,0.257,-5.337
0.219,0.040,0.254,-5.337
0.285,0.038,0.255,-5.337
0.258,0.041,0.256,-5.337
0.218,0.047,0.258,-5.337
0.233,0.045,0.257,-5.337
0.275,0.046,0.253,-5.337
0.234,0.046,0.250,-5.337
0.200,0.049,0.251,-5.337
0.179,0.049,0.252,-5.337
0.164,0.049,0.253,-5.337
0.185,0.048,0.256,-5.337
0.176,0.048,0.261,-5.337
0.177,0.048,0.260,-5.337
0.215,0.046,0.257,-5.337
0.143,0.047,0.257,-5.337
0.149,0.040,0.256,-5.337
0.187,0.040,0.259,-5.337
0.204,0.043,0.259,-5.337
0.194,0.048,0.258,-5.337
0.113,0.051,0.256,-5.337
0.170,0.049,0.255,-5.337
0.200,0.048,0.253,-5.337
0.195,0.051,0.256,-5.337
0.161,0.053,0.260,-5.337
0.186,0.051,0.260,-5.337
0.237,0.049,0.255,-5.337
0.204,0.053,0.254,-5.337
0.132,0.055,0.255,-5.337
0.146,0.054,0.256,-5.337
0.224,0.051,0.255,-5.337
0.243,0.050,0.256,-5.337
0.179,0.052,0.256,-5.337
0.165,0.054,0.257,-5.337
0.173,0.053,0.255,-5.337
0.171,0.054,0.255,-5.337
0.217,0.050,0.258,-5.337
0.246,0.049,0.260,-5.337
0.250,0.048,0.259,-5.337
0.227,0.051,0.258,-5.337
0.262,0.048,0.256,-5.337
0.276,0.049,0.252,-5.337
0.204,0.050,0.254,-5.337
0.205,0.051,0.259,-5.337
0.196,0.053,0.263,-5.337
0.147,0.049,0.262,-5.337
0.146,0.049,0.260,-5.337
0.192,0.049,0.257,-5.337
0.244,0.048,0.253,-5.337
0.201,0.052,0.252,-5.337
0.180,0.053,0.252,-5.337
0.176,0.055,0.255,-5.337
0.184,0.054,0.256,-5.337
0.177,0.055,0.253,-5.337
0.170,0.054,0.252,-5.337
0.191,0.052,0.252,-5.337
0.152,0.054,0.256,-5.337
0.105,0.056,0.259,-5.337
0.130,0.055,0.261,-5.337
0.124,0.054,0.258,-5.337
0.131,0.056,0.254,-5.337
0.195,0.055,0.251,-5.337
0.230,0.054,0.250,-5.337
0.255,0.052,0.252,-5.337
0.258,0.052,0.253,-5.337
0.237,0.052,0.254,-5.337
0.210,0.056,0.250,-5.337
0.162,0.061,0.251,-5.337
0.170,0.057,0.250,-5.337
0.212,0.056,0.252,-5.337
0.221,0.055,0.257,-5.337
0.199,0.057,0.258,-5.337
0.145,0.061,0.256,-5.337
0.103,0.061,0.255,-5.337
0.145,0.060,0.253,-5.337
0.154,0.059,0.256,-5.337
0.221,0.057,0.256,-5.337
0.236,0.057,0.258,-5.337
0.216,0.057,0.260,-5.337
0.189,0.061,0.257,-5.337
0.154,0.064,0.254,-5.337
0.152,0.059,0.253,-5.337
0.192,0.055,0.254,-5.337
0.201,0.059,0.254,-5.337
0.129,0.059,0.255,-5.337
0.156,0.056,0.256,-5.337
0.211,0.051,0.255,-5.337
0.221,0.053,0.255,-5.337
0.224,0.053,0.259,-5.337
0.192,0.054,0.260,-5.337
0.231,0.056,0.258,-5.337
0.268,0.058,0.254,-5.337
0.231,0.062,0.252,-5.337
0.144,0.062,0.255,-5.337
0.155,0.062,0.257,-5.337
0.186,0.060,0.254,-5.337
0.229,0.056,0.251,-5.337
0.255,0.054,0.251,-5.337
0.206,0.055,0.251,-5.337
0.185,0.057,0.250,-5.337
0.196,0.056,0.252,-5.337
0.220,0.056,0.254,-5.337
0.204,0.054,0.255,-5.337
0.162,0.053,0.255,-5.337
0.097,0.054,0.255,-5.337
0.159,0.050,0.254,-5.337
0.247,0.049,0.255,-5.337
0.217,0.055,0.258,-5.337
0.217,0.054,0.255,-5.337
0.229,0.054,0.253,-5.337
0.225,0.055,0.253,-5.337
0.204,0.056,0.255,-5.337
0.213,0.054,0.255,-5.337
0.201,0.055,0.255,-5.337
0.175,0.054,0.252,-5.337
0.163,0.055,0.251,-5.337
0.233,0.050,0.251,-5.337
0.262,0.053,0.252,-5.337
0.208,0.056,0.254,-5.337
0.181,0.057,0.257,-5.337
0.158,0.056,0.260,-5.337
0.217,0.054,0.258,-5.337
0.237,0.058,0.253,-5.337
0.156,0.063,0.251,-5.337
0.108,0.063,0.250,-5.337
0.128,0.062,0.254,-5.337
0.146,0.060,0.259,-5.337
0.162,0.058,0.257,-5.337
0.184,0.058,0.256,-5.337
0.129,0.062,0.258,-5.337
0.135,0.060,0.259,-5.337
0.194,0.060,0.257,-5.337
0.173,0.063,0.255,-5.337
0.138,0.065,0.253,-5.337
0.162,0.063,0.253,-5.337
0.198,0.057,0.255,-5.337
0.184,0.061,0.254,-5.337
0.169,0.059,0.252,-5.337
0.239,0.056,0.250,-5.337
0.257,0.057,0.252,-5.337
0.200,0.064,0.252,-5.337
0.163,0.063,0.252,-5.337
0.162,0.063,0.253,-5.337
0.136,0.059,0.253,-5.337
0.157,0.059,0.252,-5.337
0.222,0.057,0.254,-5.337
0.271,0.053,0.254,-5.337
0.247,0.054,0.256,-5.337
0.203,0.057,0.258,-5.337
0.226,0.056,0.257,-5.337
0.199,0.058,0.257,-5.337
0.139,0.057,0.255,-5.337
0.094,0.057,0.252,-5.337
0.165,0.055,0.253,-5.337
0.272,0.053,0.254,-5.337
0.298,0.056,0.257,-5.337
0.225,0.059,0.255,-5.337
0.180,0.059,0.252,-5.337
0.214,0.057,0.249,-5.337
0.220,0.062,0.249,-5.337
0.154,0.060,0.252,-5.337
0.181,0.059,0.256,-5.337
0.243,0.060,0.257,-5.337
0.249,0.064,0.258,-5.337
0.199,0.066,0.258,-5.337
0.150,0.064,0.256,-5.337
0.111,0.064,0.254,-5.337
0.096,0.067,0.250,-5.337
0.143,0.064,0.247,-5.337
0.230,0.062,0.250,-5.337
0.290,0.059,0.257,-5.337
0.252,0.061,0.258,-5.337
0.198,0.060,0.257,-5.337
0.202,0.057,0.256,-5.337
0.252,0.057,0.258,-5.337
0.209,0.061,0.255,-5.337
0.188,0.061,0.254,-5.337
0.164,0.062,0.256,-5.337
0.113,0.066,0.258,-5.337
0.136,0.063,0.255,-5.337
0.194,0.062,0.252,-5.337
0.195,0.055,0.251,-5.337
0.205,0.053,0.255,-5.337
0.169,0.055,0.257,-5.337
0.115,0.057,0.255,-5.337
0.122,0.057,0.255,-5.337
0.183,0.054,0.258,-5.337
0.208,0.054,0.257,-5.337
0.185,0.056,0.254,-5.337
0.225,0.060,0.256,-5.337
0.232,0.060,0.260,-5.337
0.252,0.056,0.257,-5.337
0.256,0.052,0.254,-5.337
0.219,0.055,0.253,-5.337
0.187,0.059,0.253,-5.337
0.203,0.055,0.252,-5.337
0.168,0.054,0.255,-5.337
0.156,0.056,0.257,-5.337
0.166,0.056,0.258,-5.337
0.151,0.059,0.260,-5.337
0.161,0.058,0.259,-5.337
0.206,0.055,0.262,-5.337
0.274,0.053,0.263,-5.337
0.263,0.053,0.259,-5.337
0.199,0.056,0.253,-5.337
0.155,0.058,0.253,-5.337
0.132,0.060,0.255,-5.337
0.151,0.058,0.257,-5.337
0.175,0.061,0.253,-5.337
0.177,0.062,0.251,-5.337
0.161,0.063,0.250,-5.337
0.114,0.060,0.252,-5.337
0.081,0.061,0.254,-5.337
0.135,0.063,0.254,-5.337
0.168,0.060,0.257,-5.337
0.152,0.059,0.256,-5.337
0.132,0.057,0.258,-5.337
0.195,0.056,0.257,-5.337
0.205,0.059,0.258,-5.337
0.200,0.059,0.256,-5.337
0.192,0.056,0.256,-5.337
0.227,0.058,0.257,-5.337
0.189,0.061,0.259,-5.337
0.125,0.056,0.257,-5.337
0.118,0.053,0.254,-5.337
0.132,0.054,0.250,-5.337
0.168,0.055,0.251,-5.337
0.185,0.052,0.254,-5.337
0.175,0.052,0.256,-5.337
0.167,0.053,0.256,-5.337
0.195,0.053,0.255,-5.337
0.157,0.051,0.253,-5.337
0.180,0.051,0.251,-5.337
0.231,0.051,0.253,-5.337
0.214,0.050,0.255,-5.337
0.177,0.052,0.255,-5.337
0.187,0.053,0.255,-5.337
0.170,0.050,0.257,-5.337
0.158,0.051,0.257,-5.337
0.147,0.050,0.252,-5.337
0.129,0.052,0.248,-5.337
0.156,0.049,0.253,-5.337
0.237,0.042,0.256,-5.337
0.276,0.042,0.258,-5.337
0.186,0.047,0.255,-5.337
0.154,0.050,0.255,-5.337
0.162,0.053,0.257,-5.337
0.090,0.052,0.257,-5.337
0.104,0.047,0.257,-5.337
0.137,0.050,0.256,-5.337
0.172,0.049,0.255,-5.337
0.177,0.048,0.254,-5.337
0.134,0.051,0.253,-5.337
0.175,0.050,0.249,-5.337
0.242,0.049,0.250,-5.337
0.290,0.048,0.255,-5.337
0.248,0.049,0.261,-5.337
0.211,0.044,0.259,-5.337
0.239,0.044,0.256,-5.337
0.250,0.044,0.253,-5.337
0.230,0.046,0.253,-5.337
0.182,0.048,0.254,-5.337
0.164,0.049,0.254,-5.337
0.114,0.049,0.252,-5.337
0.120,0.050,0.253,-5.337
0.153,0.049,0.252,-5.337
0.194,0.048,0.255,-5.337
0.172,0.046,0.255,-5.337
0.178,0.046,0.255,-5.337
0.265,0.045,0.257,-5.337
0.250,0.047,0.257,-5.337
0.183,0.049,0.251,-5.337
0.200,0.052,0.248,-5.337
0.207,0.054,0.252,-5.337
0.182,0.054,0.255,-5.337
0.186,0.053,0.259,-5.337
0.144,0.049,0.261,-5.337
0.151,0.046,0.256,-5.337
0.182,0.047,0.254,-5.337
0.138,0.050,0.256,-5.337
0.151,0.049,0.255,-5.337
0.200,0.044,0.256,-5.337
0.220,0.042,0.255,-5.337
0.238,0.041,0.255,-5.337
0.261,0.045,0.257,-5.337
0.249,0.047,0.261,-5.337
0.184,0.043,0.257,-5.337
0.221,0.041,0.252,-5.337
0.241,0.044,0.250,-5.337
0.175,0.049,0.252,-5.337
0.135,0.046,0.252,-5.337
0.217,0.045,0.253,-5.337
0.263,0.043,0.254,-5.337
0.160,0.045,0.255,-5.337
0.104,0.047,0.258,-5.337
0.104,0.051,0.259,-5.337
0.133,0.051,0.258,-5.337
0.149,0.050,0.257,-5.337
0.147,0.047,0.251,-5.337
0.147,0.050,0.253,-5.337
0.200,0.050,0.255,-5.337
0.206,0.048,0.254,-5.337
0.203,0.047,0.254,-5.337
0.213,0.050,0.259,-5.337
0.212,0.048,0.261,-5.337
0.220,0.044,0.259,-5.337
0.194,0.046,0.262,-5.337
0.216,0.046,0.260,-5.337
0.190,0.047,0.257,-5.337
0.172,0.050,0.253,-5.337
0.203,0.050,0.255,-5.337
0.219,0.047,0.254,-5.337
0.203,0.049,0.252,-5.337
0.164,0.049,0.254,-5.337
0.156,0.045,0.258,-5.337
0.185,0.043,0.253,-5.337
0.199,0.044,0.251,-5.337
0.165,0.046,0.254,-5.337
0.122,0.050,0.252,-5.337
0.113,0.048,0.249,-5.337
0.139,0.044,0.251,-5.337
0.132,0.045,0.254,-5.337
0.162,0.043,0.253,-5.337
0.217,0.044,0.253,-5.337
0.188,0.046,0.256,-5.337
0.113,0.044,0.256,-5.337
0.141,0.044,0.252,-5.337
0.200,0.039,0.252,-5.337
0.245,0.037,0.254,-5.337
0.205,0.039,0.258,-5.337
0.135,0.038,0.255,-5.337
0.117,0.040,0.253,-5.337
0.154,0.038,0.253,-5.337
0.149,0.038,0.255,-5.337
0.144,0.038,0.255,-5.337
0.140,0.041,0.253,-5.337
0.190,0.040,0.253,-5.337
0.202,0.042,0.254,-5.337
0.216,0.042,0.256,-5.337
0.216,0.043,0.256,-5.337
0.196,0.043,0.252,-5.337
0.254,0.039,0.253,-5.337
0.310,0.038,0.255,-5.337
0.262,0.038,0.256,-5.337
0.185,0.039,0.253,-5.337
0.148,0.040,0.251,-5.337
0.174,0.038,0.254,-5.337
0.226,0.039,0.255,-5.337
0.273,0.042,0.256,-5.337
0.249,0.042,0.252,-5.337
0.251,0.042,0.255,-5.337
0.188,0.043,0.254,-5.337
0.168,0.040,0.256,-5.337
0.203,0.037,0.257,-5.337
0.231,0.037,0.256,-5.337
0.189,0.043,0.249,-5.337
0.128,0.046,0.248,-5.337
0.107,0.044,0.255,-5.337
0.132,0.040,0.256,-5.337
0.196,0.041,0.253,-5.337
0.203,0.044,0.252,-5.337
0.232,0.044,0.251,-5.337
0.206,0.044,0.253,-5.337
0.197,0.047,0.255,-5.337
0.224,0.046,0.256,-5.337
0.201,0.046,0.254,-5.337
0.146,0.045,0.252,-5.337
0.153,0.043,0.251,-5.337
0.178,0.041,0.251,-5.337
0.155,0.039,0.251,-5.337
0.157,0.040,0.251,-5.337
0.182,0.040,0.252,-5.337
0.173,0.042,0.252,-5.337
0.152,0.044,0.251,-5.337
0.186,0.041,0.250,-5.337
0.174,0.042,0.255,-5.337
0.132,0.042,0.256,-5.337
0.180,0.041,0.257,-5.337
0.227,0.037,0.256,-5.337
0.261,0.034,0.254,-5.337
0.209,0.040,0.252,-5.337
0.173,0.041,0.253,-5.337
0.204,0.040,0.256,-5.337
0.222,0.045,0.259,-5.337
0.175,0.048,0.258,-5.337
0.174,0.045,0.256,-5.337
0.192,0.044,0.253,-5.337
0.144,0.046,0.250,-5.337
0.160,0.044,0.250,-5.337
0.204,0.046,0.248,-5.337
0.231,0.047,0.250,-5.337
0.159,0.049,0.254,-5.337
0.112,0.049,0.256,-5.337
0.158,0.041,0.257,-5.337
0.184,0.040,0.257,-5.337
0.167,0.044,0.253,-5.337
0.164,0.045,0.250,-5.337
0.152,0.047,0.252,-5.337
0.174,0.045,0.255,-5.337
0.187,0.044,0.253,-5.337
0.214,0.042,0.254,-5.337
0.198,0.041,0.253,-5.337
0.181,0.043,0.252,-5.337
0.173,0.044,0.250,-5.337
0.172,0.040,0.251,-5.337
0.178,0.039,0.256,-5.337
0.173,0.040,0.259,-5.337
0.217,0.040,0.255,-5.337
0.235,0.045,0.253,-5.337
0.226,0.045,0.250,-5.337
0.239,0.049,0.252,-5.337
0.167,0.050,0.254,-5.337
0.180,0.045,0.252,-5.337
0.243,0.045,0.257,-5.337
0.199,0.048,0.259,-5.337
0.153,0.047,0.259,-5.337
0.195,0.046,0.257,-5.337
0.219,0.045,0.257,-5.337
0.218,0.041,0.251,-5.337
0.191,0.042,0.251,-5.337
0.171,0.043,0.248,-5.337
0.253,0.044,0.249,-5.337
0.272,0.044,0.252,-5.337
0.230,0.047,0.254,-5.337
0.202,0.047,0.255,-5.337
0.174,0.046,0.255,-5.337
0.163,0.046,0.255,-5.337
0.178,0.045,0.252,-5.337
0.224,0.046,0.252,-5.337
0.267,0.042,0.254,-5.337
0.269,0.043,0.255,-5.337
0.208,0.046,0.254,-5.337
0.214,0.047,0.250,-5.337
0.236,0.046,0.252,-5.337
0.190,0.047,0.254,-5.337
0.220,0.047,0.251,-5.337
0.244,0.046,0.250,-5.337
0.177,0.048,0.251,-5.337
0.113,0.047,0.256,-5.337
0.113,0.047,0.257,-5.337
0.100,0.052,0.259,-5.337
0.121,0.048,0.257,-5.337
0.182,0.048,0.255,-5.337
0.179,0.046,0.252,-5.337
0.154,0.049,0.250,-5.337
0.135,0.049,0.251,-5.337
0.192,0.049,0.257,-5.337
0.210,0.047,0.261,-5.337
0.162,0.050,0.262,-5.337
0.196,0.051,0.258,-5.337
0.274,0.050,0.256,-5.337
0.257,0.052,0.255,-5.337
0.223,0.053,0.253,-5.337
0.237,0.052,0.251,-5.337
0.234,0.050,0.251,-5.337
0.174,0.049,0.254,-5.337
0.168,0.052,0.256,-5.337
0.195,0.053,0.258,-5.337
0.222,0.050,0.256,-5.337
0.216,0.052,0.258,-5.337
0.188,0.050,0.257,-5.337
0.212,0.049,0.257,-5.337
0.241,0.049,0.255,-5.337
0.191,0.050,0.258,-5.337
0.186,0.049,0.256,-5.337
0.198,0.048,0.256,-5.337
0.220,0.047,0.256,-5.337
0.222,0.048,0.257,-5.337
0.199,0.049,0.253,-5.337
0.133,0.052,0.253,-5.337
0.161,0.051,0.253,-5.337
0.203,0.050,0.253,-5.337
0.211,0.049,0.258,-5.337
0.131,0.054,0.259,-5.337
0.092,0.054,0.258,-5.337
0.147,0.050,0.259,-5.337
0.208,0.054,0.260,-5.337
0.204,0.055,0.255,-5.337
0.168,0.052,0.252,-5.337
0.179,0.047,0.252,-5.337
0.211,0.047,0.255,-5.337
0.179,0.050,0.255,-5.337
0.160,0.050,0.256,-5.337
0.189,0.045,0.260,-5.337
0.224,0.048,0.265,-5.337
0.205,0.050,0.260,-5.337
0.203,0.050,0.255,-5.337
0.209,0.046,0.256,-5.337
0.205,0.045,0.259,-5.337
0.265,0.043,0.256,-5.337
0.272,0.048,0.256,-5.337
0.286,0.050,0.252,-5.337
0.233,0.056,0.252,-5.337
0.207,0.056,0.254,-5.337
0.205,0.055,0.255,-5.337
0.220,0.053,0.253,-5.337
0.176,0.054,0.254,-5.337
0.141,0.057,0.257,-5.337
0.103,0.056,0.258,-5.337
0.150,0.051,0.257,-5.337
0.152,0.055,0.255,-5.337
0.107,0.056,0.254,-5.337
0.043,0.055,0.255,-5.337
0.143,0.047,0.257,-5.337
0.248,0.044,0.255,-5.337
0.260,0.046,0.256,-5.337
0.175,0.049,0.253,-5.337
0.150,0.050,0.250,-5.337
0.184,0.049,0.252,-5.337
0.241,0.047,0.255,-5.337
0.201,0.047,0.258,-5.337
0.182,0.045,0.256,-5.337
0.246,0.045,0.254,-5.337
0.248,0.049,0.255,-5.337
0.219,0.051,0.254,-5.337
0.205,0.049,0.255,-5.337
0.217,0.047,0.256,-5.337
0.225,0.046,0.259,-5.337
0.258,0.046,0.260,-5.337
0.249,0.050,0.255,-5.337
0.228,0.052,0.256,-5.337
0.191,0.049,0.257,-5.337
0.144,0.048,0.256,-5.337
0.188,0.049,0.249,-5.337
0.226,0.051,0.252,-5.337
0.208,0.054,0.255,-5.337
0.148,0.054,0.257,-5.337
0.161,0.052,0.256,-5.337
0.226,0.050,0.254,-5.337
0.262,0.047,0.254,-5.337
0.220,0.050,0.256,-5.337
0.146,0.054,0.254,-5.337
0.138,0.051,0.253,-5.337
0.194,0.049,0.254,-5.337
0.211,0.053,0.253,-5.337
0.197,0.054,0.255,-5.337
0.196,0.049,0.259,-5.337
0.218,0.046,0.258,-5.337
0.188,0.048,0.257,-5.337
0.145,0.049,0.256,-5.337
0.145,0.051,0.253,-5.337
0.130,0.054,0.253,-5.337
0.172,0.054,0.252,-5.337
0.198,0.056,0.251,-5.337
0.177,0.056,0.253,-5.337
0.187,0.056,0.256,-5.337
0.261,0.052,0.255,-5.337
0.230,0.053,0.255,-5.337
0.178,0.054,0.255,-5.337
0.240,0.053,0.259,-5.337
0.264,0.050,0.254,-5.337
0.231,0.051,0.251,-5.337
0.197,0.052,0.253,-5.337
0.120,0.056,0.258,-5.337
0.141,0.054,0.261,-5.337
0.155,0.058,0.258,-5.337
0.205,0.054,0.255,-5.337
0.247,0.056,0.253,-5.337
0.231,0.059,0.254,-5.337
0.187,0.059,0.257,-5.337
0.148,0.058,0.259,-5.337
0.144,0.057,0.257,-5.337
0.174,0.058,0.252,-5.337
0.192,0.054,0.252,-5.337
0.260,0.055,0.253,-5.337
0.222,0.062,0.252,-5.337
0.107,0.065,0.253,-5.337
0.113,0.061,0.255,-5.337
0.174,0.058,0.257,-5.337
0.171,0.058,0.257,-5.337
0.212,0.055,0.258,-5.337
0.217,0.058,0.259,-5.337
0.177,0.062,0.260,-5.337
0.139,0.058,0.256,-5.337
0.176,0.058,0.254,-5.337
0.163,0.060,0.255,-5.337
0.157,0.060,0.254,-5.337
0.149,0.057,0.254,-5.337
0.155,0.059,0.255,-5.337
0.167,0.058,0.255,-5.337
0.226,0.057,0.256,-5.337
0.291,0.055,0.259,-5.337
0.286,0.056,0.260,-5.337
0.267,0.057,0.260,-5.337
0.220,0.057,0.260,-5.337
0.185,0.060,0.253,-5.337
0.189,0.060,0.248,-5.337
0.227,0.058,0.252,-5.337
0.238,0.061,0.260,-5.337
0.228,0.060,0.264,-5.337
0.220,0.061,0.263,-5.337
0.198,0.061,0.257,-5.337
0.159,0.065,0.252,-5.337
0.132,0.064,0.252,-5.337
0.107,0.063,0.254,-5.337
0.186,0.059,0.256,-5.337
0.191,0.060,0.256,-5.337
0.146,0.063,0.257,-5.337
0.179,0.062,0.256,-5.337
0.159,0.066,0.257,-5.337
0.136,0.061,0.254,-5.337
0.188,0.060,0.248,-5.337
0.186,0.062,0.252,-5.337
0.175,0.064,0.255,-5.337
0.172,0.067,0.255,-5.337
0.146,0.067,0.256,-5.337
0.183,0.064,0.256,-5.337
0.217,0.066,0.254,-5.337
0.222,0.066,0.253,-5.337
0.194,0.065,0.251,-5.337
0.209,0.061,0.254,-5.337
0.206,0.060,0.255,-5.337
0.212,0.059,0.257,-5.337
0.166,0.061,0.254,-5.337
0.075,0.063,0.251,-5.337
0.102,0.059,0.250,-5.337
0.156,0.058,0.252,-5.337
0.124,0.059,0.256,-5.337
0.100,0.061,0.258,-5.337
0.119,0.062,0.257,-5.337
0.132,0.062,0.255,-5.337
0.163,0.062,0.255,-5.337
0.159,0.063,0.255,-5.337
0.241,0.060,0.255,-5.337
0.245,0.059,0.255,-5.337
0.205,0.064,0.256,-5.337
0.166,0.062,0.259,-5.337
0.198,0.059,0.258,-5.337
0.279,0.059,0.254,-5.337
0.293,0.059,0.250,-5.337
0.292,0.057,0.248,-5.337
0.232,0.063,0.250,-5.337
0.192,0.066,0.249,-5.337
0.189,0.062,0.250,-5.337
0.230,0.061,0.251,-5.337
0.255,0.063,0.254,-5.337
0.228,0.062,0.258,-5.337
0.194,0.066,0.258,-5.337
0.162,0.065,0.256,-5.337
0.208,0.063,0.255,-5.337
0.192,0.063,0.255,-5.337
0.186,0.064,0.253,-5.337
0.197,0.065,0.248,-5.337
0.200,0.065,0.249,-5.337
0.225,0.061,0.252,-5.337
0.194,0.062,0.254,-5.337
0.176,0.061,0.255,-5.337
0.182,0.061,0.255,-5.337
0.183,0.061,0.255,-5.337
0.167,0.067,0.255,-5.337
0.113,0.067,0.256,-5.337
0.097,0.066,0.256,-5.337
0.162,0.065,0.255,-5.337
0.240,0.062,0.255,-5.337
0.246,0.063,0.256,-5.337
0.225,0.061,0.257,-5.337
0.178,0.064,0.256,-5.337
0.166,0.063,0.254,-5.337
0.199,0.059,0.254,-5.337
0.231,0.061,0.255,-5.337
0.191,0.065,0.255,-5.337
0.113,0.066,0.250,-5.337
0.069,0.066,0.247,-5.337
0.178,0.063,0.251,-5.337
0.252,0.064,0.255,-5.337
0.218,0.065,0.254,-5.337
0.171,0.068,0.254,-5.337
0.121,0.067,0.255,-5.337
0.162,0.065,0.254,-5.337
0.190,0.065,0.255,-5.337
0.187,0.064,0.254,-5.337
0.156,0.062,0.255,-5.337
0.155,0.062,0.254,-5.337
0.115,0.064,0.253,-5.337
0.147,0.061,0.252,-5.337
0.199,0.061,0.254,-5.337
0.179,0.064,0.254,-5.337
0.144,0.062,0.254,-5.337
0.160,0.057,0.254,-5.337
0.222,0.056,0.257,-5.337
0.249,0.057,0.255,-5.337
0.167,0.059,0.255,-5.337
0.147,0.056,0.253,-5.337
0.154,0.056,0.255,-5.337
0.149,0.054,0.252,-5.337
0.180,0.054,0.251,-5.337
0.236,0.053,0.251,-5.337
0.200,0.057,0.253,-5.337
0.120,0.059,0.253,-5.337
0.151,0.059,0.250,-5.337
0.168,0.058,0.249,-5.337
0.160,0.058,0.251,-5.337
0.179,0.056,0.253,-5.337
0.157,0.059,0.252,-5.337
0.154,0.061,0.252,-5.337
0.201,0.057,0.256,-5.337
0.216,0.058,0.256,-5.337
0.204,0.061,0.255,-5.337
0.176,0.056,0.255,-5.337
0.186,0.058,0.255,-5.337
0.227,0.057,0.254,-5.337
0.196,0.055,0.254,-5.337
0.185,0.059,0.253,-5.337
0.210,0.058,0.252,-5.337
0.142,0.059,0.252,-5.337
0.135,0.061,0.252,-5.337
0.197,0.063,0.253,-5.337
0.212,0.056,0.255,-5.337
0.203,0.057,0.256,-5.337
0.203,0.056,0.253,-5.337
0.189,0.054,0.251,-5.337
0.177,0.055,0.252,-5.337
0.231,0.052,0.257,-5.337
0.258,0.056,0.260,-5.337
0.215,0.054,0.258,-5.337
0.160,0.053,0.255,-5.337
0.201,0.055,0.255,-5.337
0.199,0.057,0.254,-5.337
0.161,0.059,0.250,-5.337
0.173,0.057,0.250,-5.337
0.142,0.056,0.252,-5.337
0.155,0.053,0.257,-5.337
0.190,0.055,0.261,-5.337
0.128,0.059,0.264,-5.337
0.134,0.057,0.261,-5.337
0.142,0.055,0.258,-5.337
0.136,0.052,0.256,-5.337
0.201,0.048,0.255,-5.337
0.242,0.047,0.253,-5.337
0.201,0.049,0.254,-5.337
0.199,0.050,0.254,-5.337
0.188,0.053,0.253,-5.337
0.183,0.052,0.254,-5.337
0.214,0.051,0.254,-5.337
0.254,0.048,0.254,-5.337
0.217,0.051,0.256,-5.337
0.156,0.054,0.256,-5.337
0.119,0.057,0.255,-5.337
0.087,0.057,0.254,-5.337
0.085,0.059,0.250,-5.337
0.154,0.059,0.253,-5.337
0.141,0.059,0.255,-5.337
0.153,0.054,0.259,-5.337
0.178,0.050,0.259,-5.337
0.201,0.048,0.260,-5.337
0.220,0.049,0.261,-5.337
0.221,0.053,0.261,-5.337
0.252,0.051,0.258,-5.337
0.243,0.050,0.252,-5.337
0.212,0.050,0.251,-5.337
0.210,0.050,0.256,-5.337
0.201,0.051,0.258,-5.337
0.113,0.051,0.258,-5.337
0.092,0.049,0.258,-5.337
0.147,0.048,0.259,-5.337
0.194,0.046,0.255,-5.337
0.232,0.046,0.250,-5.337
0.181,0.044,0.253,-5.337
0.143,0.047,0.259,-5.337
0.189,0.048,0.261,-5.337
0.179,0.051,0.258,-5.337
0.109,0.054,0.253,-5.337
0.115,0.052,0.252,-5.337
0.158,0.053,0.254,-5.337
0.182,0.054,0.253,-5.337
0.198,0.052,0.252,-5.337
0.197,0.049,0.255,-5.337
0.173,0.051,0.258,-5.337
0.161,0.054,0.255,-5.337
0.181,0.055,0.252,-5.337
0.202,0.052,0.251,-5.337
0.140,0.054,0.252,-5.337
0.125,0.052,0.253,-5.337
0.156,0.055,0.251,-5.337
0.143,0.055,0.254,-5.337
0.153,0.051,0.257,-5.337
0.220,0.047,0.258,-5.337
0.224,0.047,0.256,-5.337
0.218,0.047,0.257,-5.337
0.218,0.046,0.255,-5.337
0.202,0.048,0.254,-5.337
0.174,0.051,0.253,-5.337
0.193,0.047,0.249,-5.337
0.260,0.044,0.248,-5.337
0.276,0.043,0.257,-5.337
0.218,0.044,0.264,-5.337
0.221,0.042,0.260,-5.337
0.205,0.045,0.253,-5.337
0.172,0.045,0.253,-5.337
0.125,0.045,0.253,-5.337
0.130,0.045,0.252,-5.337
0.190,0.047,0.249,-5.337
0.181,0.047,0.248,-5.337
0.177,0.047,0.251,-5.337
0.163,0.049,0.257,-5.337
0.123,0.046,0.257,-5.337
0.147,0.047,0.254,-5.337
0.166,0.046,0.249,-5.337
0.180,0.045,0.248,-5.337
0.180,0.045,0.251,-5.337
0.190,0.045,0.255,-5.337
0.207,0.040,0.259,-5.337
0.288,0.035,0.261,-5.337
0.300,0.041,0.258,-5.337
0.242,0.041,0.256,-5.337
0.235,0.039,0.256,-5.337
0.259,0.038,0.253,-5.337
0.249,0.039,0.252,-5.337
0.194,0.042,0.255,-5.337
0.167,0.047,0.256,-5.337
0.167,0.053,0.252,-5.337
0.140,0.053,0.253,-5.337
0.091,0.051,0.256,-5.337
0.108,0.049,0.256,-5.337
0.145,0.047,0.257,-5.337
0.197,0.045,0.260,-5.337
0.198,0.041,0.259,-5.337
0.232,0.042,0.259,-5.337
0.205,0.044,0.253,-5.337
0.175,0.046,0.252,-5.337
0.211,0.043,0.254,-5.337
0.260,0.040,0.254,-5.337
0.211,0.043,0.257,-5.337
0.154,0.044,0.257,-5.337
0.146,0.044,0.256,-5.337
0.182,0.044,0.254,-5.337
0.148,0.049,0.254,-5.337
0.156,0.050,0.256,-5.337
0.243,0.045,0.258,-5.337
0.300,0.040,0.259,-5.337
0.201,0.044,0.256,-5.337
0.144,0.044,0.252,-5.337
0.179,0.041,0.251,-5.337
0.153,0.042,0.253,-5.337
0.093,0.047,0.256,-5.337
0.102,0.042,0.256,-5.337
