[Parameters]
Operating Mode, Feedback
Subject  AA..ZZ, WT
Session  0..99, 44
No. Trials (1..9999), 500
Mouse Number, 1
Pressure Probe Serial Port, \00\00\00\04COM4
Save additional csv file, TRUE
Save using mouse number, FALSE
A/D Monitor Rate (Hz), 30000.000000
A/D Stimulate Rate (Hz), 30000.000000
A/D input range (+/- V), 5
No. Channels to acquire (N), 2
Pre-Stim Acq. time (ms), 100.000000
Post-Stim Acq. time (ms), 900.000000
Analysis window parameters.M-response Start (ms), 1.100000
Analysis window parameters.M-response Duration (ms), 5.500000
Analysis window parameters.H-response Duration (ms), 6.000000
Analysis window parameters.H-response Start (ms), 6.500000
Feedback window, H response
Proportional gain, 0.100000
Target value, 6.700000
Feedback Ch., 1
Stim Channel to Control (1-4), 4
Trial, 23
Wait for EMG Conditions, FALSE
Channel to monitor (0 - N-1), 1
EMG Hi Limit, 2.000000
EMG Lo Limit, 0.001000
Inter-Stim delay (sec), 10.000000
EMG Monitor Mode, Mean
Time to run Long Stim.(sec), 30
Save Long Stim Data?, OFF
BURST Save time (ms), 1000
BURST Save Interval (x above), 10
Long-Stim. Rep. Rate (Hz), 10.000000
Stim type cluster array.<size(s)>, 4
Stim type cluster array 0.Stimulus Output, Electrical
Stim type cluster array 1.Stimulus Output, OFF
Stim type cluster array 2.Stimulus Output, OFF
Stim type cluster array 3.Stimulus Output, Motor Length
Stim specs cluster array.<size(s)>, 4
Stim specs cluster array 0.Initial Stimulus ampl., 0.300000
Stim specs cluster array 0.Maximum Stimulus, 1.120000
Stim specs cluster array 0.#Pulses in train, 4
Stim specs cluster array 0.Peak Level time (ms), 1.000000
Stim specs cluster array 0.Total pulse period (ms), 150.000000
Stim specs cluster array 0.Start Delay (ms), -50.000000
Stim specs cluster array 0.Pulse Shape, Square
Stim specs cluster array 0.Ramp/Rel. time (ms), 0.100000
Stim specs cluster array 0.Peak Amplitude (V), 0.120000
Stim specs cluster array 1.Initial Stimulus ampl., 0.000000
Stim specs cluster array 1.Maximum Stimulus, 0.000000
Stim specs cluster array 1.#Pulses in train, 3
Stim specs cluster array 1.Peak Level time (ms), 29.000000
Stim specs cluster array 1.Total pulse period (ms), 200.000000
Stim specs cluster array 1.Start Delay (ms), 0.000000
Stim specs cluster array 1.Pulse Shape, Square
Stim specs cluster array 1.Ramp/Rel. time (ms), 0.000000
Stim specs cluster array 1.Peak Amplitude (V), 2.000000
Stim specs cluster array 2.Initial Stimulus ampl., 0.000000
Stim specs cluster array 2.Maximum Stimulus, 0.000000
Stim specs cluster array 2.#Pulses in train, 1
Stim specs cluster array 2.Peak Level time (ms), 25.000000
Stim specs cluster array 2.Total pulse period (ms), 200.000000
Stim specs cluster array 2.Start Delay (ms), 0.000000
Stim specs cluster array 2.Pulse Shape, Square
Stim specs cluster array 2.Ramp/Rel. time (ms), 20.000000
Stim specs cluster array 2.Peak Amplitude (V), 10.000000
Stim specs cluster array 3.Initial Stimulus ampl., 0.000000
Stim specs cluster array 3.Maximum Stimulus, 15.000000
Stim specs cluster array 3.#Pulses in train, 25
Stim specs cluster array 3.Peak Level time (ms), 0.100000
Stim specs cluster array 3.Total pulse period (ms), 4.000000
Stim specs cluster array 3.Start Delay (ms), 205.000000
Stim specs cluster array 3.Pulse Shape, Triangle
Stim specs cluster array 3.Ramp/Rel. time (ms), 3.000000
Stim specs cluster array 3.Peak Amplitude (V), 0.500000
Force cal. (mN/Volt), 100.000000
Force Range (mN), 100.000000
Length cal. (mm/Volt), 10.000000
Length Range (mm), 10.000000
Stim. 1, 0.300000
Stim. 2, 0.000000
Stim. 3, 0.000000
Stim. 4, 0.000000
Monitor acquire time (ms), 100.000000
EMG graph Ymax, 0.100000
Travel limit (mm), 20.000000
Use Pressure Probe, FALSE
Pressure goal (g), 100
Speed (mm/sec), 5.000000
Dwell time (ms), 100.000000
Pressure limit (g), 500.000000
Channel amplitude offset, 0.000000

[DATA]

0.228,0.055,0.266,-5.337
0.256,0.057,0.271,-5.337
0.182,0.060,0.271,-5.337
0.220,0.054,0.267,-5.337
0.349,0.050,0.267,-5.337
0.256,0.055,0.267,-5.337
0.156,0.053,0.265,-5.337
0.194,0.054,0.267,-5.337
0.217,0.054,0.267,-5.337
0.261,0.054,0.265,-5.337
0.184,0.055,0.267,-5.337
0.129,0.052,0.269,-5.337
0.154,0.053,0.272,-5.337
0.250,0.051,0.275,-5.337
0.245,0.053,0.273,-5.337
0.253,0.053,0.266,-5.337
0.181,0.057,0.264,-5.337
0.153,0.059,0.264,-5.337
0.184,0.058,0.268,-5.337
0.271,0.051,0.269,-5.337
0.294,0.050,0.271,-5.337
0.217,0.052,0.267,-5.337
0.181,0.054,0.263,-5.337
0.201,0.054,0.264,-5.337
0.225,0.057,0.269,-5.337
0.227,0.055,0.268,-5.337
0.211,0.054,0.272,-5.337
0.132,0.055,0.272,-5.337
0.134,0.055,0.268,-5.337
0.203,0.052,0.266,-5.337
0.263,0.052,0.270,-5.337
0.228,0.056,0.271,-5.337
0.201,0.058,0.269,-5.337
0.224,0.056,0.268,-5.337
0.237,0.055,0.269,-5.337
0.225,0.055,0.266,-5.337
0.230,0.055,0.264,-5.337
0.238,0.058,0.268,-5.337
0.256,0.056,0.272,-5.337
0.166,0.055,0.270,-5.337
0.041,0.057,0.266,-5.337
0.088,0.054,0.265,-5.337
0.232,0.053,0.266,-5.337
0.332,0.053,0.265,-5.337
0.296,0.052,0.264,-5.337
0.271,0.049,0.265,-5.337
0.289,0.050,0.264,-5.337
0.265,0.051,0.266,-5.337
0.238,0.051,0.266,-5.337
0.211,0.054,0.264,-5.337
0.242,0.056,0.265,-5.337
0.241,0.054,0.266,-5.337
0.271,0.049,0.266,-5.337
0.261,0.047,0.268,-5.337
0.226,0.050,0.268,-5.337
0.220,0.055,0.267,-5.337
0.232,0.055,0.266,-5.337
0.168,0.054,0.266,-5.337
0.156,0.052,0.266,-5.337
0.154,0.050,0.266,-5.337
0.098,0.054,0.267,-5.337
0.135,0.055,0.268,-5.337
0.243,0.049,0.271,-5.337
0.213,0.050,0.272,-5.337
0.181,0.051,0.271,-5.337
0.199,0.052,0.265,-5.337
0.194,0.056,0.263,-5.337
0.217,0.053,0.265,-5.337
0.214,0.053,0.269,-5.337
0.168,0.052,0.270,-5.337
0.194,0.050,0.268,-5.337
0.220,0.050,0.269,-5.337
0.173,0.054,0.272,-5.337
0.211,0.050,0.271,-5.337
0.250,0.049,0.265,-5.337
0.218,0.048,0.261,-5.337
0.188,0.046,0.261,-5.337
0.184,0.047,0.266,-5.337
0.203,0.053,0.267,-5.337
0.191,0.054,0.264,-5.337
0.120,0.055,0.263,-5.337
0.169,0.049,0.267,-5.337
0.265,0.046,0.270,-5.337
0.249,0.048,0.267,-5.337
0.228,0.048,0.262,-5.337
0.199,0.049,0.263,-5.337
0.205,0.048,0.266,-5.337
0.214,0.047,0.269,-5.337
0.222,0.047,0.269,-5.337
0.196,0.048,0.264,-5.337
0.175,0.049,0.264,-5.337
0.165,0.048,0.268,-5.337
0.191,0.047,0.271,-5.337
0.185,0.049,0.272,-5.337
0.208,0.045,0.270,-5.337
0.197,0.044,0.264,-5.337
0.227,0.043,0.264,-5.337
0.262,0.043,0.267,-5.337
0.311,0.041,0.268,-5.337
0.294,0.044,0.265,-5.337
0.241,0.044,0.266,-5.337
0.233,0.042,0.266,-5.337
0.226,0.043,0.266,-5.337
0.239,0.039,0.265,-5.337
0.189,0.044,0.267,-5.337
0.152,0.044,0.267,-5.337
0.153,0.042,0.270,-5.337
0.140,0.043,0.270,-5.337
0.072,0.044,0.269,-5.337
0.033,0.044,0.265,-5.337
0.127,0.043,0.262,-5.337
0.232,0.038,0.261,-5.337
0.305,0.038,0.262,-5.337
0.274,0.041,0.267,-5.337
0.189,0.041,0.272,-5.337
0.173,0.040,0.275,-5.337
0.125,0.042,0.275,-5.337
0.186,0.040,0.271,-5.337
0.254,0.037,0.267,-5.337
0.261,0.036,0.268,-5.337
0.260,0.037,0.269,-5.337
0.276,0.043,0.271,-5.337
0.242,0.044,0.270,-5.337
0.199,0.041,0.269,-5.337
0.233,0.039,0.267,-5.337
0.227,0.038,0.266,-5.337
0.224,0.039,0.267,-5.337
0.240,0.039,0.270,-5.337
0.258,0.038,0.269,-5.337
0.202,0.038,0.271,-5.337
0.187,0.040,0.268,-5.337
0.193,0.042,0.263,-5.337
0.160,0.042,0.260,-5.337
0.200,0.038,0.264,-5.337
0.168,0.038,0.271,-5.337
0.115,0.039,0.268,-5.337
0.182,0.035,0.266,-5.337
0.266,0.033,0.267,-5.337
0.211,0.036,0.267,-5.337
0.127,0.038,0.269,-5.337
0.157,0.040,0.270,-5.337
0.233,0.038,0.266,-5.337
0.230,0.038,0.268,-5.337
0.165,0.039,0.267,-5.337
0.159,0.037,0.268,-5.337
0.147,0.036,0.272,-5.337
0.173,0.036,0.275,-5.337
0.192,0.037,0.274,-5.337
0.198,0.035,0.270,-5.337
0.190,0.035,0.264,-5.337
0.195,0.035,0.266,-5.337
0.187,0.041,0.267,-5.337
0.195,0.040,0.269,-5.337
0.178,0.037,0.269,-5.337
0.131,0.036,0.270,-5.337
0.147,0.033,0.269,-5.337
0.167,0.031,0.268,-5.337
0.181,0.032,0.267,-5.337
0.215,0.031,0.267,-5.337
0.258,0.035,0.266,-5.337
0.220,0.040,0.268,-5.337
0.200,0.041,0.267,-5.337
0.225,0.039,0.268,-5.337
0.256,0.037,0.267,-5.337
0.267,0.035,0.265,-5.337
0.288,0.038,0.264,-5.337
0.224,0.041,0.263,-5.337
0.170,0.038,0.263,-5.337
0.217,0.036,0.266,-5.337
0.162,0.038,0.270,-5.337
0.140,0.037,0.269,-5.337
0.097,0.037,0.269,-5.337
0.093,0.034,0.269,-5.337
0.118,0.034,0.269,-5.337
0.194,0.034,0.268,-5.337
0.241,0.035,0.268,-5.337
0.204,0.034,0.266,-5.337
0.200,0.031,0.267,-5.337
0.221,0.033,0.267,-5.337
0.153,0.039,0.268,-5.337
0.100,0.035,0.264,-5.337
0.214,0.032,0.265,-5.337
0.261,0.028,0.268,-5.337
0.265,0.029,0.267,-5.337
0.285,0.030,0.265,-5.337
0.238,0.034,0.265,-5.337
0.232,0.031,0.265,-5.337
0.285,0.029,0.266,-5.337
0.291,0.028,0.268,-5.337
0.259,0.032,0.268,-5.337
0.175,0.035,0.271,-5.337
0.189,0.035,0.270,-5.337
0.230,0.030,0.268,-5.337
0.253,0.029,0.267,-5.337
0.258,0.037,0.267,-5.337
0.148,0.041,0.261,-5.337
0.122,0.039,0.263,-5.337
0.085,0.038,0.264,-5.337
0.128,0.036,0.265,-5.337
0.152,0.038,0.267,-5.337
0.221,0.039,0.268,-5.337
0.257,0.036,0.267,-5.337
0.205,0.034,0.264,-5.337
0.145,0.032,0.262,-5.337
0.094,0.032,0.264,-5.337
0.138,0.034,0.267,-5.337
0.202,0.034,0.268,-5.337
0.182,0.035,0.267,-5.337
0.134,0.036,0.266,-5.337
0.119,0.038,0.265,-5.337
0.230,0.038,0.262,-5.337
0.260,0.036,0.266,-5.337
0.180,0.036,0.269,-5.337
0.108,0.035,0.271,-5.337
0.185,0.033,0.268,-5.337
0.263,0.029,0.266,-5.337
0.224,0.033,0.262,-5.337
0.158,0.037,0.263,-5.337
0.165,0.038,0.265,-5.337
0.178,0.040,0.267,-5.337
0.166,0.038,0.267,-5.337
0.154,0.037,0.266,-5.337
0.125,0.038,0.268,-5.337
0.091,0.044,0.271,-5.337
0.118,0.045,0.271,-5.337
0.130,0.042,0.274,-5.337
0.131,0.039,0.272,-5.337
0.226,0.038,0.263,-5.337
0.237,0.037,0.259,-5.337
0.198,0.036,0.263,-5.337
0.209,0.031,0.264,-5.337
0.204,0.036,0.263,-5.337
0.166,0.036,0.263,-5.337
0.166,0.033,0.265,-5.337
0.153,0.038,0.265,-5.337
0.106,0.041,0.265,-5.337
0.146,0.038,0.268,-5.337
0.169,0.037,0.269,-5.337
0.169,0.038,0.271,-5.337
0.135,0.040,0.273,-5.337
0.180,0.038,0.272,-5.337
0.219,0.033,0.265,-5.337
0.229,0.034,0.265,-5.337
0.240,0.031,0.267,-5.337
0.181,0.034,0.268,-5.337
0.119,0.036,0.266,-5.337
0.161,0.034,0.262,-5.337
0.192,0.030,0.260,-5.337
0.207,0.029,0.261,-5.337
0.261,0.030,0.264,-5.337
0.288,0.032,0.267,-5.337
0.272,0.032,0.268,-5.337
0.199,0.029,0.266,-5.337
0.150,0.028,0.266,-5.337
0.169,0.028,0.265,-5.337
0.176,0.029,0.266,-5.337
0.193,0.031,0.267,-5.337
0.231,0.033,0.270,-5.337
0.211,0.030,0.270,-5.337
0.161,0.032,0.271,-5.337
0.213,0.032,0.267,-5.337
0.256,0.033,0.263,-5.337
0.177,0.036,0.261,-5.337
0.105,0.040,0.267,-5.337
0.190,0.035,0.273,-5.337
0.167,0.035,0.271,-5.337
0.110,0.037,0.262,-5.337
0.089,0.039,0.259,-5.337
0.091,0.038,0.260,-5.337
0.038,0.037,0.265,-5.337
0.066,0.037,0.266,-5.337
0.122,0.038,0.265,-5.337
0.124,0.039,0.264,-5.337
0.153,0.037,0.264,-5.337
0.162,0.038,0.264,-5.337
0.193,0.038,0.266,-5.337
0.289,0.032,0.270,-5.337
0.322,0.028,0.269,-5.337
0.269,0.032,0.268,-5.337
0.282,0.029,0.265,-5.337
0.288,0.031,0.262,-5.337
0.217,0.031,0.261,-5.337
0.164,0.031,0.263,-5.337
0.222,0.034,0.265,-5.337
0.181,0.039,0.266,-5.337
0.163,0.039,0.265,-5.337
0.208,0.036,0.265,-5.337
0.181,0.039,0.263,-5.337
0.141,0.041,0.265,-5.337
0.092,0.039,0.266,-5.337
0.104,0.040,0.266,-5.337
0.137,0.042,0.266,-5.337
0.103,0.041,0.269,-5.337
0.121,0.036,0.268,-5.337
0.153,0.040,0.268,-5.337
0.140,0.043,0.268,-5.337
0.121,0.044,0.267,-5.337
0.129,0.044,0.267,-5.337
0.163,0.041,0.264,-5.337
0.160,0.042,0.263,-5.337
0.132,0.041,0.261,-5.337
0.161,0.041,0.260,-5.337
0.219,0.038,0.262,-5.337
0.221,0.038,0.267,-5.337
0.209,0.041,0.267,-5.337
0.190,0.042,0.266,-5.337
0.210,0.041,0.264,-5.337
0.117,0.044,0.265,-5.337
0.130,0.044,0.266,-5.337
0.204,0.042,0.266,-5.337
0.261,0.041,0.267,-5.337
0.199,0.042,0.266,-5.337
0.122,0.042,0.263,-5.337
0.116,0.042,0.263,-5.337
0.088,0.040,0.266,-5.337
0.080,0.038,0.266,-5.337
0.116,0.039,0.268,-5.337
0.123,0.040,0.267,-5.337
0.135,0.037,0.266,-5.337
0.182,0.038,0.266,-5.337
0.193,0.037,0.264,-5.337
0.138,0.039,0.258,-5.337
0.119,0.038,0.260,-5.337
0.117,0.038,0.264,-5.337
0.134,0.039,0.271,-5.337
0.161,0.038,0.271,-5.337
0.143,0.039,0.267,-5.337
0.133,0.043,0.265,-5.337
0.150,0.042,0.267,-5.337
0.188,0.039,0.268,-5.337
0.224,0.038,0.267,-5.337
0.235,0.041,0.269,-5.337
0.195,0.045,0.268,-5.337
0.206,0.045,0.265,-5.337
0.274,0.041,0.264,-5.337
0.228,0.038,0.265,-5.337
0.152,0.038,0.266,-5.337
0.170,0.037,0.265,-5.337
0.194,0.039,0.261,-5.337
0.222,0.040,0.263,-5.337
0.167,0.044,0.264,-5.337
0.136,0.047,0.263,-5.337
0.148,0.046,0.261,-5.337
0.131,0.045,0.263,-5.337
0.118,0.043,0.265,-5.337
0.166,0.043,0.267,-5.337
0.168,0.048,0.262,-5.337
0.115,0.048,0.262,-5.337
0.022,0.045,0.267,-5.337
0.078,0.045,0.273,-5.337
0.171,0.042,0.275,-5.337
0.165,0.047,0.273,-5.337
0.160,0.047,0.268,-5.337
0.150,0.043,0.270,-5.337
0.195,0.043,0.268,-5.337
0.225,0.047,0.264,-5.337
0.230,0.044,0.264,-5.337
0.205,0.042,0.267,-5.337
0.152,0.042,0.266,-5.337
0.160,0.044,0.264,-5.337
0.124,0.047,0.263,-5.337
0.165,0.045,0.265,-5.337
0.157,0.045,0.264,-5.337
0.091,0.049,0.266,-5.337
0.101,0.050,0.269,-5.337
0.144,0.050,0.270,-5.337
0.198,0.049,0.268,-5.337
0.222,0.046,0.266,-5.337
0.218,0.047,0.264,-5.337
0.209,0.043,0.260,-5.337
0.207,0.046,0.260,-5.337
0.169,0.051,0.261,-5.337
0.154,0.051,0.261,-5.337
0.222,0.047,0.266,-5.337
0.258,0.050,0.269,-5.337
0.215,0.050,0.268,-5.337
0.212,0.049,0.267,-5.337
0.173,0.050,0.265,-5.337
0.139,0.053,0.264,-5.337
0.198,0.052,0.267,-5.337
0.182,0.047,0.267,-5.337
0.212,0.046,0.266,-5.337
0.182,0.049,0.263,-5.337
0.159,0.048,0.262,-5.337
0.122,0.051,0.264,-5.337
0.076,0.052,0.268,-5.337
0.076,0.049,0.268,-5.337
0.129,0.051,0.268,-5.337
0.170,0.049,0.264,-5.337
0.126,0.051,0.266,-5.337
0.169,0.049,0.269,-5.337
0.247,0.047,0.270,-5.337
0.237,0.048,0.267,-5.337
0.182,0.047,0.267,-5.337
0.189,0.045,0.267,-5.337
0.252,0.043,0.264,-5.337
0.259,0.043,0.260,-5.337
0.177,0.050,0.262,-5.337
0.176,0.052,0.263,-5.337
0.236,0.050,0.261,-5.337
0.188,0.052,0.264,-5.337
0.140,0.053,0.264,-5.337
0.214,0.050,0.264,-5.337
0.311,0.050,0.265,-5.337
0.316,0.051,0.268,-5.337
0.275,0.054,0.269,-5.337
0.206,0.057,0.266,-5.337
0.199,0.057,0.262,-5.337
0.195,0.053,0.262,-5.337
0.143,0.056,0.263,-5.337
0.163,0.060,0.264,-5.337
0.191,0.062,0.267,-5.337
0.188,0.060,0.267,-5.337
0.163,0.057,0.267,-5.337
0.124,0.059,0.264,-5.337
0.108,0.058,0.262,-5.337
0.112,0.058,0.263,-5.337
0.174,0.054,0.265,-5.337
0.222,0.055,0.267,-5.337
0.232,0.055,0.267,-5.337
0.207,0.055,0.265,-5.337
0.177,0.052,0.266,-5.337
0.196,0.054,0.269,-5.337
0.169,0.056,0.267,-5.337
0.181,0.057,0.264,-5.337
0.199,0.056,0.262,-5.337
0.153,0.056,0.261,-5.337
0.161,0.054,0.261,-5.337
0.271,0.055,0.262,-5.337
0.317,0.058,0.263,-5.337
0.341,0.057,0.262,-5.337
0.290,0.054,0.260,-5.337
0.247,0.055,0.260,-5.337
0.182,0.059,0.257,-5.337
0.192,0.060,0.258,-5.337
0.216,0.061,0.262,-5.337
0.225,0.061,0.265,-5.337
0.210,0.056,0.266,-5.337
0.139,0.059,0.265,-5.337
0.033,0.065,0.268,-5.337
0.089,0.060,0.268,-5.337
0.228,0.060,0.266,-5.337
0.251,0.062,0.261,-5.337
0.207,0.060,0.260,-5.337
0.184,0.059,0.261,-5.337
0.174,0.061,0.257,-5.337
0.213,0.058,0.255,-5.337
0.255,0.058,0.259,-5.337
0.283,0.061,0.265,-5.337
0.191,0.063,0.268,-5.337
0.137,0.064,0.270,-5.337
0.221,0.059,0.266,-5.337
0.307,0.056,0.264,-5.337
0.335,0.057,0.260,-5.337
0.280,0.060,0.260,-5.337
0.240,0.062,0.262,-5.337
0.193,0.064,0.261,-5.337
0.191,0.059,0.256,-5.337
0.202,0.057,0.259,-5.337
0.186,0.057,0.264,-5.337
0.166,0.059,0.264,-5.337
0.168,0.059,0.258,-5.337
0.156,0.058,0.253,-5.337
0.177,0.059,0.253,-5.337
0.222,0.061,0.256,-5.337
0.174,0.065,0.261,-5.337
0.095,0.061,0.263,-5.337
0.117,0.061,0.262,-5.337
0.198,0.064,0.260,-5.337
0.238,0.065,0.263,-5.337
0.180,0.062,0.263,-5.337
0.123,0.063,0.263,-5.337
0.195,0.062,0.263,-5.337
0.226,0.065,0.263,-5.337
0.164,0.065,0.264,-5.337
0.169,0.067,0.265,-5.337
0.211,0.068,0.261,-5.337
0.157,0.067,0.256,-5.337
0.182,0.065,0.261,-5.337
0.242,0.063,0.267,-5.337
0.278,0.063,0.268,-5.337
0.242,0.065,0.267,-5.337
0.174,0.064,0.263,-5.337
0.214,0.062,0.260,-5.337
0.288,0.063,0.259,-5.337
0.321,0.064,0.258,-5.337
0.252,0.064,0.256,-5.337
0.199,0.066,0.255,-5.337
0.206,0.063,0.259,-5.337
0.264,0.061,0.263,-5.337
0.265,0.063,0.262,-5.337
0.267,0.066,0.259,-5.337
0.230,0.067,0.262,-5.337
0.191,0.065,0.261,-5.337
0.157,0.064,0.262,-5.337
0.153,0.063,0.262,-5.337
0.163,0.067,0.264,-5.337
0.178,0.068,0.266,-5.337
0.203,0.064,0.268,-5.337
0.187,0.063,0.268,-5.337
0.114,0.064,0.269,-5.337
0.160,0.062,0.266,-5.337
0.249,0.060,0.261,-5.337
0.214,0.063,0.257,-5.337
0.202,0.064,0.259,-5.337
0.146,0.065,0.260,-5.337
0.114,0.068,0.260,-5.337
0.170,0.068,0.260,-5.337
0.189,0.067,0.261,-5.337
0.178,0.066,0.261,-5.337
0.235,0.070,0.257,-5.337
0.206,0.071,0.260,-5.337
0.287,0.063,0.260,-5.337
0.314,0.062,0.257,-5.337
0.218,0.066,0.257,-5.337
0.165,0.067,0.259,-5.337
0.212,0.065,0.259,-5.337
0.211,0.068,0.260,-5.337
0.141,0.068,0.262,-5.337
0.109,0.067,0.264,-5.337
0.138,0.068,0.263,-5.337
0.208,0.066,0.259,-5.337
0.260,0.066,0.262,-5.337
0.201,0.067,0.269,-5.337
0.134,0.065,0.266,-5.337
0.128,0.064,0.263,-5.337
0.145,0.062,0.264,-5.337
0.187,0.061,0.265,-5.337
0.200,0.066,0.262,-5.337
0.254,0.065,0.259,-5.337
0.267,0.068,0.260,-5.337
0.196,0.067,0.259,-5.337
0.174,0.064,0.258,-5.337
0.201,0.064,0.256,-5.337
0.182,0.063,0.263,-5.337
0.150,0.063,0.265,-5.337
0.183,0.066,0.265,-5.337
0.197,0.066,0.262,-5.337
0.260,0.063,0.262,-5.337
0.280,0.062,0.262,-5.337
0.291,0.064,0.261,-5.337
0.282,0.066,0.259,-5.337
0.302,0.065,0.262,-5.337
0.281,0.062,0.263,-5.337
0.279,0.061,0.263,-5.337
0.271,0.064,0.263,-5.337
0.185,0.067,0.263,-5.337
0.191,0.066,0.259,-5.337
0.247,0.065,0.258,-5.337
0.180,0.066,0.259,-5.337
0.097,0.066,0.259,-5.337
0.114,0.067,0.263,-5.337
0.160,0.066,0.263,-5.337
0.121,0.066,0.262,-5.337
0.101,0.064,0.256,-5.337
0.134,0.064,0.257,-5.337
0.132,0.064,0.258,-5.337
0.224,0.064,0.265,-5.337
0.337,0.065,0.268,-5.337
0.264,0.067,0.265,-5.337
0.238,0.064,0.262,-5.337
0.239,0.064,0.258,-5.337
0.218,0.066,0.257,-5.337
0.261,0.067,0.261,-5.337
0.255,0.066,0.265,-5.337
0.210,0.066,0.268,-5.337
0.199,0.064,0.267,-5.337
0.167,0.063,0.263,-5.337
0.172,0.060,0.264,-5.337
0.254,0.064,0.261,-5.337
0.317,0.064,0.261,-5.337
0.299,0.060,0.261,-5.337
0.230,0.059,0.262,-5.337
0.178,0.059,0.262,-5.337
0.225,0.064,0.264,-5.337
0.224,0.062,0.262,-5.337
0.237,0.056,0.257,-5.337
0.274,0.054,0.253,-5.337
0.296,0.053,0.256,-5.337
0.271,0.056,0.254,-5.337
0.169,0.058,0.253,-5.337
0.178,0.059,0.255,-5.337
0.269,0.060,0.260,-5.337
0.298,0.059,0.263,-5.337
0.189,0.061,0.263,-5.337
0.138,0.059,0.263,-5.337
0.124,0.064,0.264,-5.337
0.116,0.065,0.265,-5.337
0.099,0.066,0.266,-5.337
0.125,0.061,0.263,-5.337
0.199,0.064,0.256,-5.337
0.181,0.065,0.255,-5.337
0.213,0.065,0.261,-5.337
0.247,0.062,0.264,-5.337
0.273,0.059,0.262,-5.337
0.242,0.061,0.261,-5.337
0.231,0.063,0.262,-5.337
0.199,0.064,0.265,-5.337
0.196,0.063,0.259,-5.337
0.145,0.062,0.258,-5.337
0.186,0.061,0.255,-5.337
0.240,0.059,0.260,-5.337
0.226,0.057,0.258,-5.337
0.212,0.054,0.261,-5.337
0.185,0.053,0.265,-5.337
0.169,0.056,0.265,-5.337
0.182,0.060,0.265,-5.337
0.190,0.059,0.264,-5.337
0.198,0.058,0.262,-5.337
0.198,0.057,0.258,-5.337
0.204,0.054,0.258,-5.337
0.198,0.053,0.259,-5.337
0.165,0.053,0.261,-5.337
0.188,0.051,0.263,-5.337
0.170,0.053,0.264,-5.337
0.136,0.053,0.259,-5.337
0.121,0.054,0.258,-5.337
0.158,0.054,0.258,-5.337
0.252,0.054,0.261,-5.337
0.317,0.054,0.263,-5.337
0.287,0.053,0.267,-5.337
0.200,0.054,0.266,-5.337
0.223,0.055,0.265,-5.337
0.259,0.047,0.263,-5.337
0.236,0.045,0.262,-5.337
0.189,0.046,0.260,-5.337
0.152,0.051,0.261,-5.337
0.155,0.051,0.265,-5.337
0.187,0.050,0.265,-5.337
0.176,0.051,0.262,-5.337
0.174,0.047,0.261,-5.337
0.170,0.048,0.259,-5.337
0.182,0.048,0.260,-5.337
0.206,0.044,0.261,-5.337
0.237,0.045,0.264,-5.337
0.217,0.046,0.263,-5.337
0.186,0.048,0.264,-5.337
0.219,0.047,0.266,-5.337
0.216,0.046,0.262,-5.337
0.163,0.047,0.260,-5.337
0.195,0.052,0.262,-5.337
0.188,0.052,0.266,-5.337
0.179,0.048,0.268,-5.337
0.200,0.049,0.264,-5.337
0.198,0.050,0.261,-5.337
0.200,0.051,0.261,-5.337
0.226,0.049,0.261,-5.337
0.203,0.050,0.261,-5.337
0.156,0.051,0.260,-5.337
0.196,0.052,0.262,-5.337
0.226,0.053,0.265,-5.337
0.225,0.053,0.267,-5.337
0.265,0.051,0.263,-5.337
0.232,0.051,0.261,-5.337
0.183,0.051,0.259,-5.337
0.157,0.050,0.258,-5.337
0.191,0.048,0.259,-5.337
0.194,0.049,0.263,-5.337
0.139,0.052,0.267,-5.337
0.129,0.053,0.268,-5.337
0.161,0.050,0.266,-5.337
0.214,0.047,0.264,-5.337
0.184,0.051,0.265,-5.337
0.126,0.055,0.265,-5.337
0.149,0.053,0.263,-5.337
0.229,0.047,0.260,-5.337
0.205,0.051,0.262,-5.337
0.165,0.051,0.264,-5.337
0.186,0.051,0.265,-5.337
0.241,0.050,0.264,-5.337
0.222,0.051,0.262,-5.337
0.167,0.050,0.262,-5.337
0.111,0.053,0.261,-5.337
0.174,0.053,0.261,-5.337
0.244,0.053,0.262,-5.337
0.216,0.055,0.264,-5.337
0.153,0.054,0.267,-5.337
0.191,0.045,0.269,-5.337
0.256,0.042,0.266,-5.337
0.233,0.044,0.269,-5.337
0.223,0.042,0.271,-5.337
0.221,0.042,0.268,-5.337
0.192,0.044,0.261,-5.337
0.193,0.041,0.259,-5.337
0.211,0.040,0.256,-5.337
0.216,0.043,0.260,-5.337
0.255,0.041,0.262,-5.337
0.243,0.039,0.266,-5.337
0.220,0.041,0.265,-5.337
0.265,0.042,0.265,-5.337
0.288,0.040,0.265,-5.337
0.269,0.040,0.264,-5.337
0.183,0.040,0.261,-5.337
0.179,0.041,0.258,-5.337
0.225,0.043,0.259,-5.337
0.283,0.041,0.266,-5.337
0.298,0.039,0.267,-5.337
0.205,0.044,0.264,-5.337
0.101,0.041,0.263,-5.337
0.126,0.041,0.260,-5.337
0.205,0.041,0.256,-5.337
0.288,0.041,0.257,-5.337
0.271,0.041,0.264,-5.337
0.174,0.041,0.263,-5.337
0.158,0.040,0.261,-5.337
0.192,0.042,0.260,-5.337
0.207,0.044,0.263,-5.337
0.161,0.046,0.263,-5.337
0.160,0.046,0.262,-5.337
0.176,0.045,0.259,-5.337
0.129,0.047,0.255,-5.337
0.131,0.046,0.256,-5.337
0.139,0.046,0.259,-5.337
0.125,0.044,0.261,-5.337
0.104,0.039,0.262,-5.337
0.107,0.041,0.262,-5.337
0.144,0.041,0.263,-5.337
0.180,0.040,0.261,-5.337
0.206,0.038,0.261,-5.337
0.256,0.041,0.265,-5.337
0.218,0.045,0.265,-5.337
0.166,0.045,0.262,-5.337
0.208,0.039,0.261,-5.337
0.252,0.039,0.258,-5.337
0.277,0.041,0.257,-5.337
0.230,0.046,0.262,-5.337
0.187,0.043,0.265,-5.337
0.213,0.040,0.265,-5.337
0.233,0.040,0.267,-5.337
0.215,0.042,0.265,-5.337
0.197,0.039,0.258,-5.337
0.169,0.042,0.259,-5.337
0.251,0.040,0.260,-5.337
0.307,0.041,0.261,-5.337
0.240,0.045,0.261,-5.337
0.149,0.045,0.260,-5.337
0.133,0.042,0.259,-5.337
0.148,0.042,0.262,-5.337
0.089,0.042,0.264,-5.337
0.165,0.042,0.264,-5.337
0.160,0.044,0.263,-5.337
0.118,0.045,0.263,-5.337
0.106,0.041,0.263,-5.337
0.154,0.035,0.257,-5.337
0.181,0.036,0.255,-5.337
0.184,0.040,0.254,-5.337
0.169,0.038,0.257,-5.337
0.209,0.037,0.263,-5.337
0.226,0.037,0.265,-5.337
0.236,0.039,0.263,-5.337
0.225,0.043,0.265,-5.337
0.170,0.042,0.263,-5.337
0.215,0.041,0.264,-5.337
0.216,0.040,0.263,-5.337
0.193,0.038,0.261,-5.337
0.211,0.037,0.260,-5.337
0.226,0.041,0.259,-5.337
0.219,0.041,0.253,-5.337
0.186,0.042,0.254,-5.337
0.118,0.043,0.262,-5.337
0.133,0.040,0.264,-5.337
0.214,0.038,0.261,-5.337
0.193,0.038,0.259,-5.337
0.193,0.040,0.260,-5.337
0.178,0.044,0.263,-5.337
0.143,0.043,0.265,-5.337
0.130,0.035,0.263,-5.337
0.182,0.034,0.262,-5.337
0.200,0.037,0.264,-5.337
0.153,0.040,0.265,-5.337
0.072,0.039,0.261,-5.337
0.105,0.035,0.260,-5.337
0.198,0.035,0.262,-5.337
0.252,0.039,0.261,-5.337
0.266,0.037,0.259,-5.337
0.181,0.035,0.263,-5.337
0.151,0.036,0.260,-5.337
0.199,0.039,0.259,-5.337
0.217,0.041,0.263,-5.337
0.192,0.043,0.265,-5.337
0.114,0.043,0.266,-5.337
0.074,0.044,0.265,-5.337
0.124,0.042,0.259,-5.337
0.199,0.043,0.258,-5.337
0.242,0.042,0.258,-5.337
0.217,0.040,0.260,-5.337
0.232,0.037,0.263,-5.337
0.255,0.034,0.265,-5.337
0.242,0.036,0.266,-5.337
0.201,0.039,0.264,-5.337
0.149,0.038,0.261,-5.337
0.162,0.042,0.260,-5.337
0.209,0.043,0.260,-5.337
0.183,0.043,0.255,-5.337
0.150,0.042,0.255,-5.337
0.214,0.038,0.257,-5.337
0.237,0.042,0.262,-5.337
0.157,0.044,0.264,-5.337
0.187,0.044,0.267,-5.337
0.202,0.042,0.267,-5.337
0.192,0.042,0.264,-5.337
0.218,0.040,0.257,-5.337
0.217,0.041,0.253,-5.337
0.166,0.041,0.251,-5.337
0.144,0.040,0.256,-5.337
0.175,0.040,0.265,-5.337
0.192,0.036,0.267,-5.337
0.245,0.035,0.263,-5.337
0.226,0.039,0.262,-5.337
0.170,0.037,0.266,-5.337
0.164,0.038,0.264,-5.337
0.159,0.040,0.259,-5.337
0.177,0.040,0.257,-5.337
0.148,0.038,0.256,-5.337
0.108,0.041,0.255,-5.337
0.133,0.038,0.260,-5.337
0.158,0.037,0.262,-5.337
0.178,0.040,0.263,-5.337
0.136,0.040,0.264,-5.337
0.134,0.040,0.265,-5.337
0.176,0.039,0.264,-5.337
0.126,0.042,0.265,-5.337
0.113,0.041,0.263,-5.337
0.222,0.041,0.260,-5.337
0.256,0.042,0.258,-5.337
0.153,0.045,0.258,-5.337
0.104,0.043,0.261,-5.337
0.148,0.040,0.266,-5.337
0.185,0.041,0.264,-5.337
0.242,0.039,0.257,-5.337
0.321,0.040,0.255,-5.337
0.271,0.045,0.257,-5.337
0.159,0.047,0.262,-5.337
0.131,0.045,0.261,-5.337
0.156,0.046,0.263,-5.337
0.176,0.047,0.263,-5.337
0.176,0.047,0.265,-5.337
0.191,0.045,0.262,-5.337
0.239,0.047,0.260,-5.337
0.230,0.049,0.259,-5.337
0.191,0.050,0.257,-5.337
0.200,0.048,0.254,-5.337
0.253,0.046,0.257,-5.337
0.203,0.046,0.259,-5.337
0.125,0.051,0.259,-5.337
0.148,0.051,0.259,-5.337
0.181,0.050,0.263,-5.337
0.139,0.049,0.266,-5.337
0.179,0.047,0.266,-5.337
0.193,0.048,0.263,-5.337
0.175,0.049,0.259,-5.337
0.150,0.051,0.257,-5.337
0.057,0.052,0.258,-5.337
0.057,0.048,0.259,-5.337
0.174,0.047,0.258,-5.337
0.156,0.048,0.259,-5.337
0.173,0.048,0.259,-5.337
0.277,0.046,0.266,-5.337
0.232,0.047,0.265,-5.337
0.131,0.051,0.262,-5.337
0.087,0.049,0.261,-5.337
0.170,0.048,0.261,-5.337
0.205,0.050,0.259,-5.337
0.128,0.052,0.259,-5.337
0.115,0.048,0.262,-5.337
0.158,0.048,0.262,-5.337
0.163,0.047,0.262,-5.337
0.147,0.049,0.262,-5.337
0.169,0.053,0.262,-5.337
0.247,0.051,0.260,-5.337
0.266,0.047,0.260,-5.337
0.233,0.049,0.263,-5.337
0.188,0.049,0.262,-5.337
0.139,0.047,0.259,-5.337
0.226,0.046,0.260,-5.337
0.294,0.046,0.260,-5.337
0.293,0.050,0.262,-5.337
0.238,0.053,0.261,-5.337
0.159,0.054,0.264,-5.337
0.180,0.052,0.264,-5.337
0.213,0.051,0.265,-5.337
0.184,0.049,0.260,-5.337
0.174,0.050,0.260,-5.337
0.194,0.052,0.261,-5.337
0.184,0.054,0.262,-5.337
0.195,0.053,0.264,-5.337
0.091,0.056,0.263,-5.337
0.018,0.056,0.262,-5.337
0.089,0.051,0.263,-5.337
0.196,0.049,0.265,-5.337
0.255,0.051,0.265,-5.337
0.232,0.056,0.259,-5.337
0.251,0.060,0.256,-5.337
0.267,0.055,0.257,-5.337
0.249,0.051,0.258,-5.337
0.222,0.052,0.258,-5.337
0.169,0.053,0.260,-5.337
0.119,0.049,0.260,-5.337
0.151,0.048,0.262,-5.337
0.177,0.051,0.266,-5.337
0.163,0.053,0.262,-5.337
0.151,0.049,0.262,-5.337
0.216,0.047,0.267,-5.337
0.228,0.050,0.269,-5.337
0.167,0.048,0.265,-5.337
0.141,0.050,0.263,-5.337
0.167,0.051,0.263,-5.337
0.148,0.050,0.261,-5.337
0.125,0.049,0.259,-5.337
0.132,0.049,0.260,-5.337
0.147,0.051,0.261,-5.337
0.156,0.051,0.264,-5.337
0.216,0.047,0.266,-5.337
0.242,0.048,0.266,-5.337
0.189,0.053,0.267,-5.337
0.200,0.053,0.266,-5.337
0.190,0.052,0.266,-5.337
0.184,0.050,0.263,-5.337
0.106,0.054,0.262,-5.337
0.107,0.056,0.257,-5.337
0.184,0.054,0.257,-5.337
0.196,0.051,0.262,-5.337
0.192,0.054,0.265,-5.337
0.168,0.055,0.268,-5.337
0.261,0.049,0.270,-5.337
0.246,0.050,0.265,-5.337
0.178,0.052,0.261,-5.337
0.204,0.052,0.260,-5.337
0.216,0.053,0.261,-5.337
0.175,0.051,0.264,-5.337
0.222,0.054,0.266,-5.337
0.275,0.052,0.264,-5.337
0.265,0.053,0.262,-5.337
0.220,0.054,0.263,-5.337
0.226,0.053,0.263,-5.337
0.233,0.058,0.264,-5.337
0.174,0.061,0.263,-5.337
0.149,0.061,0.261,-5.337
0.212,0.055,0.262,-5.337
0.171,0.054,0.266,-5.337
0.112,0.056,0.270,-5.337
0.169,0.059,0.271,-5.337
0.173,0.054,0.264,-5.337
0.173,0.055,0.259,-5.337
0.182,0.054,0.261,-5.337
0.196,0.058,0.265,-5.337
0.173,0.055,0.266,-5.337
0.221,0.055,0.265,-5.337
0.215,0.055,0.266,-5.337
0.237,0.052,0.266,-5.337
0.331,0.051,0.261,-5.337
0.340,0.052,0.258,-5.337
0.234,0.055,0.257,-5.337
0.147,0.059,0.262,-5.337
0.167,0.057,0.265,-5.337
0.201,0.059,0.264,-5.337
0.178,0.057,0.263,-5.337
0.206,0.058,0.261,-5.337
0.234,0.055,0.263,-5.337
0.196,0.054,0.262,-5.337
0.164,0.060,0.262,-5.337
0.214,0.059,0.262,-5.337
0.222,0.058,0.267,-5.337
0.166,0.057,0.267,-5.337
0.178,0.056,0.266,-5.337
0.268,0.056,0.263,-5.337
0.215,0.057,0.260,-5.337
0.162,0.057,0.260,-5.337
0.193,0.058,0.261,-5.337
0.205,0.057,0.263,-5.337
0.228,0.056,0.267,-5.337
0.169,0.060,0.265,-5.337
0.134,0.061,0.264,-5.337
0.184,0.064,0.264,-5.337
0.180,0.065,0.265,-5.337
0.218,0.064,0.266,-5.337
0.243,0.064,0.265,-5.337
0.219,0.063,0.262,-5.337
0.175,0.063,0.259,-5.337
0.166,0.063,0.258,-5.337
0.145,0.063,0.256,-5.337
0.189,0.066,0.257,-5.337
0.216,0.064,0.259,-5.337
0.209,0.061,0.263,-5.337
0.227,0.060,0.262,-5.337
0.271,0.059,0.263,-5.337
0.246,0.062,0.266,-5.337
0.181,0.066,0.266,-5.337
0.151,0.063,0.265,-5.337
0.110,0.063,0.262,-5.337
0.170,0.058,0.262,-5.337
0.281,0.055,0.262,-5.337
0.227,0.057,0.262,-5.337
0.111,0.060,0.262,-5.337
0.110,0.055,0.260,-5.337
0.174,0.057,0.260,-5.337
0.230,0.055,0.257,-5.337
0.261,0.055,0.260,-5.337
0.212,0.060,0.266,-5.337
0.088,0.067,0.267,-5.337
0.111,0.063,0.267,-5.337
0.219,0.059,0.264,-5.337
0.267,0.057,0.264,-5.337
0.291,0.058,0.259,-5.337
0.227,0.062,0.259,-5.337
0.203,0.062,0.260,-5.337
0.228,0.063,0.263,-5.337
0.243,0.061,0.262,-5.337
0.208,0.062,0.262,-5.337
0.214,0.063,0.263,-5.337
0.234,0.059,0.264,-5.337
0.238,0.059,0.260,-5.337
0.224,0.059,0.260,-5.337
0.215,0.059,0.263,-5.337
0.242,0.060,0.265,-5.337
0.231,0.057,0.263,-5.337
0.244,0.058,0.263,-5.337
0.235,0.058,0.264,-5.337
0.232,0.058,0.265,-5.337
0.231,0.063,0.265,-5.337
0.219,0.065,0.264,-5.337
0.255,0.062,0.264,-5.337
0.143,0.067,0.264,-5.337
0.109,0.067,0.260,-5.337
0.196,0.065,0.258,-5.337
0.219,0.063,0.259,-5.337
0.243,0.060,0.260,-5.337
0.301,0.059,0.260,-5.337
0.288,0.061,0.261,-5.337
0.229,0.060,0.262,-5.337
0.205,0.062,0.263,-5.337
0.205,0.065,0.266,-5.337
0.188,0.064,0.266,-5.337
0.206,0.065,0.264,-5.337
0.261,0.061,0.263,-5.337
0.227,0.064,0.262,-5.337
0.170,0.062,0.263,-5.337
0.237,0.060,0.264,-5.337
0.254,0.061,0.264,-5.337
0.251,0.060,0.265,-5.337
0.276,0.061,0.264,-5.337
0.238,0.062,0.262,-5.337
0.269,0.060,0.258,-5.337
0.277,0.061,0.258,-5.337
0.190,0.065,0.261,-5.337
0.216,0.061,0.264,-5.337
0.207,0.060,0.265,-5.337
0.182,0.061,0.265,-5.337
0.211,0.062,0.264,-5.337
0.190,0.064,0.262,-5.337
0.195,0.065,0.262,-5.337
0.298,0.059,0.263,-5.337
0.229,0.067,0.262,-5.337
0.197,0.063,0.258,-5.337
0.253,0.058,0.263,-5.337
0.282,0.055,0.264,-5.337
0.287,0.057,0.263,-5.337
0.285,0.060,0.265,-5.337
0.262,0.064,0.267,-5.337
0.232,0.063,0.267,-5.337
0.226,0.065,0.263,-5.337
0.256,0.061,0.261,-5.337
0.204,0.055,0.263,-5.337
0.198,0.059,0.265,-5.337
0.206,0.064,0.265,-5.337
0.175,0.067,0.265,-5.337
0.144,0.064,0.262,-5.337
0.203,0.059,0.263,-5.337
0.286,0.060,0.261,-5.337
0.294,0.057,0.259,-5.337
0.281,0.058,0.259,-5.337
0.247,0.060,0.264,-5.337
0.255,0.055,0.264,-5.337
0.211,0.056,0.262,-5.337
0.262,0.058,0.262,-5.337
0.359,0.060,0.261,-5.337
0.331,0.062,0.260,-5.337
0.227,0.063,0.262,-5.337
0.150,0.059,0.262,-5.337
0.181,0.059,0.262,-5.337
0.197,0.060,0.264,-5.337
0.265,0.058,0.264,-5.337
0.280,0.060,0.268,-5.337
0.238,0.058,0.268,-5.337
0.278,0.056,0.267,-5.337
0.259,0.056,0.262,-5.337
0.197,0.060,0.261,-5.337
0.201,0.059,0.259,-5.337
0.184,0.061,0.263,-5.337
0.127,0.063,0.264,-5.337
0.057,0.061,0.263,-5.337
0.139,0.056,0.260,-5.337
0.263,0.059,0.261,-5.337
0.248,0.060,0.263,-5.337
0.214,0.058,0.264,-5.337
0.176,0.056,0.263,-5.337
0.182,0.060,0.266,-5.337
0.183,0.061,0.267,-5.337
0.143,0.058,0.266,-5.337
0.168,0.058,0.260,-5.337
0.208,0.060,0.258,-5.337
0.195,0.061,0.258,-5.337
0.255,0.059,0.259,-5.337
0.260,0.057,0.259,-5.337
0.193,0.059,0.263,-5.337
0.138,0.057,0.266,-5.337
0.165,0.056,0.264,-5.337
0.272,0.054,0.259,-5.337
0.357,0.053,0.256,-5.337
0.328,0.052,0.258,-5.337
0.290,0.053,0.262,-5.337
0.229,0.051,0.268,-5.337
0.261,0.048,0.268,-5.337
0.236,0.055,0.263,-5.337
0.159,0.056,0.259,-5.337
0.126,0.055,0.257,-5.337
0.182,0.050,0.260,-5.337
0.211,0.049,0.261,-5.337
0.211,0.050,0.263,-5.337
0.166,0.053,0.266,-5.337
0.185,0.053,0.270,-5.337
0.207,0.051,0.271,-5.337
0.201,0.051,0.268,-5.337
0.174,0.049,0.265,-5.337
0.193,0.045,0.262,-5.337
0.280,0.041,0.257,-5.337
0.330,0.039,0.255,-5.337
0.236,0.044,0.256,-5.337
0.115,0.049,0.263,-5.337
0.102,0.050,0.266,-5.337
0.169,0.047,0.266,-5.337
0.220,0.046,0.268,-5.337
0.214,0.047,0.269,-5.337
0.155,0.052,0.267,-5.337
0.192,0.050,0.263,-5.337
0.254,0.047,0.259,-5.337
0.211,0.046,0.254,-5.337
0.189,0.044,0.252,-5.337
0.209,0.045,0.257,-5.337
0.187,0.047,0.264,-5.337
0.167,0.046,0.266,-5.337
0.143,0.043,0.265,-5.337
0.164,0.044,0.267,-5.337
0.196,0.044,0.270,-5.337
0.226,0.046,0.269,-5.337
0.207,0.047,0.263,-5.337
0.179,0.046,0.260,-5.337
0.135,0.046,0.261,-5.337
0.123,0.046,0.260,-5.337
0.148,0.045,0.259,-5.337
0.166,0.044,0.263,-5.337
0.172,0.045,0.265,-5.337
0.269,0.041,0.267,-5.337
0.281,0.039,0.263,-5.337
0.183,0.042,0.261,-5.337
0.152,0.044,0.264,-5.337
0.196,0.048,0.266,-5.337
0.297,0.046,0.266,-5.337
0.279,0.045,0.266,-5.337
0.189,0.047,0.265,-5.337
0.178,0.048,0.264,-5.337
0.236,0.042,0.263,-5.337
0.274,0.039,0.262,-5.337
0.274,0.041,0.260,-5.337
0.222,0.041,0.260,-5.337
0.224,0.038,0.262,-5.337
0.235,0.037,0.263,-5.337
0.172,0.038,0.265,-5.337
0.107,0.041,0.267,-5.337
0.144,0.041,0.266,-5.337
0.245,0.036,0.266,-5.337
0.216,0.042,0.265,-5.337
0.128,0.043,0.263,-5.337
0.146,0.041,0.260,-5.337
0.196,0.040,0.263,-5.337
0.194,0.039,0.264,-5.337
0.222,0.037,0.264,-5.337
0.188,0.038,0.268,-5.337
0.174,0.042,0.273,-5.337
0.173,0.041,0.269,-5.337
0.201,0.037,0.264,-5.337
0.248,0.032,0.261,-5.337
0.257,0.032,0.263,-5.337
0.213,0.036,0.268,-5.337
0.157,0.040,0.269,-5.337
0.184,0.036,0.266,-5.337
0.193,0.036,0.263,-5.337
0.132,0.039,0.263,-5.337
0.085,0.042,0.265,-5.337
0.112,0.040,0.265,-5.337
0.203,0.037,0.262,-5.337
0.242,0.037,0.262,-5.337
0.238,0.036,0.264,-5.337
0.155,0.038,0.266,-5.337
0.094,0.039,0.267,-5.337
0.188,0.039,0.269,-5.337
0.282,0.038,0.267,-5.337
0.302,0.037,0.264,-5.337
0.228,0.039,0.264,-5.337
0.230,0.037,0.268,-5.337
0.204,0.038,0.267,-5.337
0.182,0.039,0.265,-5.337
0.236,0.040,0.262,-5.337
0.284,0.040,0.262,-5.337
0.230,0.041,0.264,-5.337
0.221,0.036,0.268,-5.337
0.221,0.037,0.267,-5.337
0.184,0.040,0.264,-5.337
0.115,0.039,0.264,-5.337
0.140,0.037,0.266,-5.337
0.195,0.037,0.266,-5.337
0.239,0.038,0.265,-5.337
0.253,0.041,0.267,-5.337
0.168,0.043,0.269,-5.337
0.136,0.041,0.268,-5.337
0.132,0.039,0.267,-5.337
0.142,0.041,0.267,-5.337
0.110,0.044,0.264,-5.337
0.141,0.042,0.262,-5.337
0.129,0.043,0.261,-5.337
0.074,0.044,0.261,-5.337
0.116,0.042,0.259,-5.337
0.188,0.037,0.266,-5.337
0.196,0.034,0.271,-5.337
0.163,0.038,0.270,-5.337
0.165,0.036,0.264,-5.337
0.205,0.034,0.258,-5.337
0.263,0.031,0.260,-5.337
0.268,0.035,0.267,-5.337
0.216,0.034,0.270,-5.337
0.210,0.038,0.265,-5.337
0.197,0.037,0.263,-5.337
0.172,0.035,0.267,-5.337
0.206,0.033,0.272,-5.337
0.280,0.033,0.268,-5.337
0.307,0.034,0.262,-5.337
0.259,0.034,0.258,-5.337
0.256,0.034,0.259,-5.337
0.213,0.038,0.260,-5.337
0.181,0.038,0.264,-5.337
0.134,0.036,0.265,-5.337
0.148,0.033,0.265,-5.337
0.205,0.031,0.262,-5.337
0.149,0.033,0.262,-5.337
0.086,0.038,0.260,-5.337
0.085,0.038,0.259,-5.337
0.181,0.037,0.261,-5.337
0.245,0.034,0.267,-5.337
0.220,0.031,0.268,-5.337
0.194,0.033,0.267,-5.337
0.128,0.035,0.265,-5.337
0.090,0.041,0.261,-5.337
0.100,0.042,0.261,-5.337
0.167,0.038,0.261,-5.337
0.176,0.033,0.258,-5.337
0.165,0.036,0.259,-5.337
0.131,0.038,0.263,-5.337
0.157,0.037,0.266,-5.337
0.146,0.037,0.268,-5.337
0.105,0.036,0.268,-5.337
0.121,0.033,0.272,-5.337
0.130,0.035,0.268,-5.337
0.147,0.033,0.261,-5.337
0.190,0.035,0.256,-5.337
0.148,0.037,0.259,-5.337
0.135,0.037,0.260,-5.337
0.202,0.036,0.264,-5.337
0.212,0.034,0.266,-5.337
0.162,0.037,0.268,-5.337
0.115,0.039,0.269,-5.337
0.147,0.037,0.265,-5.337
0.175,0.034,0.259,-5.337
0.151,0.037,0.255,-5.337
0.125,0.041,0.257,-5.337
0.116,0.038,0.264,-5.337
0.155,0.033,0.265,-5.337
0.159,0.031,0.262,-5.337
0.158,0.035,0.260,-5.337
0.140,0.037,0.261,-5.337
0.165,0.037,0.264,-5.337
0.180,0.036,0.264,-5.337
0.200,0.036,0.263,-5.337
0.208,0.036,0.261,-5.337
0.252,0.035,0.265,-5.337
0.244,0.035,0.264,-5.337
0.167,0.037,0.264,-5.337
0.118,0.034,0.266,-5.337
0.176,0.032,0.271,-5.337
0.244,0.033,0.271,-5.337
0.234,0.034,0.269,-5.337
0.252,0.031,0.265,-5.337
0.212,0.034,0.263,-5.337
0.192,0.034,0.262,-5.337
0.181,0.036,0.260,-5.337
0.161,0.033,0.256,-5.337
0.192,0.035,0.255,-5.337
0.155,0.035,0.260,-5.337
0.089,0.035,0.266,-5.337
0.133,0.032,0.269,-5.337
0.240,0.036,0.266,-5.337
0.190,0.040,0.265,-5.337
0.165,0.037,0.260,-5.337
0.236,0.034,0.260,-5.337
0.297,0.035,0.263,-5.337
0.319,0.034,0.267,-5.337
0.246,0.037,0.266,-5.337
0.172,0.039,0.262,-5.337
0.137,0.042,0.259,-5.337
0.161,0.041,0.260,-5.337
0.184,0.035,0.265,-5.337
0.231,0.034,0.267,-5.337
0.246,0.039,0.264,-5.337
0.119,0.042,0.260,-5.337
0.023,0.042,0.260,-5.337
0.076,0.044,0.259,-5.337
0.171,0.040,0.260,-5.337
0.184,0.037,0.263,-5.337
0.136,0.036,0.263,-5.337
0.185,0.036,0.266,-5.337
0.222,0.036,0.270,-5.337
0.223,0.038,0.271,-5.337
0.180,0.040,0.268,-5.337
0.173,0.039,0.264,-5.337
0.151,0.039,0.260,-5.337
0.125,0.039,0.259,-5.337
0.069,0.038,0.261,-5.337
0.110,0.034,0.260,-5.337
0.199,0.031,0.264,-5.337
0.234,0.031,0.266,-5.337
0.225,0.034,0.265,-5.337
0.187,0.032,0.264,-5.337
0.178,0.033,0.265,-5.337
0.215,0.034,0.264,-5.337
0.193,0.037,0.257,-5.337
0.191,0.036,0.255,-5.337
0.142,0.037,0.256,-5.337
0.142,0.038,0.258,-5.337
0.149,0.038,0.263,-5.337
0.150,0.037,0.267,-5.337
0.204,0.035,0.269,-5.337
0.201,0.032,0.268,-5.337
0.230,0.033,0.261,-5.337
0.229,0.037,0.260,-5.337
0.168,0.039,0.261,-5.337
0.163,0.032,0.263,-5.337
0.188,0.034,0.261,-5.337
0.152,0.041,0.260,-5.337
0.055,0.042,0.260,-5.337
0.110,0.046,0.264,-5.337
0.146,0.046,0.267,-5.337
0.155,0.042,0.268,-5.337
0.153,0.042,0.267,-5.337
0.117,0.046,0.264,-5.337
0.139,0.047,0.262,-5.337
0.193,0.043,0.262,-5.337
0.187,0.042,0.257,-5.337
0.173,0.042,0.256,-5.337
0.222,0.041,0.259,-5.337
0.165,0.045,0.262,-5.337
0.191,0.043,0.261,-5.337
0.205,0.041,0.266,-5.337
0.181,0.040,0.271,-5.337
0.162,0.042,0.271,-5.337
0.219,0.038,0.268,-5.337
0.246,0.041,0.265,-5.337
0.207,0.044,0.259,-5.337
0.191,0.043,0.254,-5.337
0.240,0.043,0.257,-5.337
0.313,0.044,0.262,-5.337
0.306,0.044,0.264,-5.337
0.224,0.045,0.263,-5.337
0.215,0.044,0.261,-5.337
0.203,0.043,0.258,-5.337
0.190,0.046,0.256,-5.337
0.220,0.045,0.258,-5.337
0.215,0.050,0.262,-5.337
0.156,0.053,0.265,-5.337
0.073,0.050,0.267,-5.337
0.056,0.046,0.264,-5.337
0.139,0.047,0.259,-5.337
0.169,0.048,0.259,-5.337
0.171,0.046,0.265,-5.337
0.175,0.047,0.266,-5.337
0.174,0.046,0.260,-5.337
0.178,0.047,0.259,-5.337
0.206,0.046,0.260,-5.337
0.221,0.047,0.261,-5.337
0.252,0.047,0.266,-5.337
0.225,0.050,0.268,-5.337
0.206,0.047,0.263,-5.337
0.227,0.050,0.262,-5.337
0.181,0.056,0.263,-5.337
0.129,0.056,0.264,-5.337
0.132,0.051,0.262,-5.337
0.194,0.047,0.262,-5.337
0.255,0.048,0.259,-5.337
0.217,0.050,0.259,-5.337
0.208,0.050,0.265,-5.337
0.145,0.051,0.267,-5.337
0.109,0.050,0.265,-5.337
0.114,0.051,0.263,-5.337
0.171,0.050,0.261,-5.337
0.220,0.053,0.258,-5.337
0.121,0.057,0.260,-5.337
0.076,0.054,0.263,-5.337
0.108,0.050,0.261,-5.337
0.203,0.049,0.262,-5.337
0.153,0.050,0.264,-5.337
0.125,0.047,0.263,-5.337
0.090,0.047,0.260,-5.337
0.101,0.048,0.261,-5.337
0.158,0.045,0.263,-5.337
0.182,0.047,0.264,-5.337
0.183,0.047,0.266,-5.337
0.225,0.044,0.263,-5.337
0.249,0.041,0.261,-5.337
0.229,0.042,0.258,-5.337
0.187,0.047,0.257,-5.337
0.178,0.048,0.255,-5.337
0.181,0.048,0.260,-5.337
0.185,0.049,0.266,-5.337
0.144,0.050,0.269,-5.337
0.177,0.051,0.267,-5.337
0.221,0.050,0.264,-5.337
0.200,0.051,0.259,-5.337
0.192,0.053,0.261,-5.337
0.202,0.054,0.261,-5.337
0.214,0.053,0.260,-5.337
0.146,0.053,0.264,-5.337
0.147,0.055,0.266,-5.337
0.193,0.053,0.265,-5.337
0.240,0.052,0.265,-5.337
0.249,0.053,0.264,-5.337
0.167,0.055,0.259,-5.337
0.152,0.054,0.259,-5.337
0.150,0.051,0.258,-5.337
0.154,0.054,0.260,-5.337
0.172,0.054,0.263,-5.337
0.172,0.054,0.265,-5.337
0.154,0.052,0.265,-5.337
0.194,0.055,0.262,-5.337
0.219,0.058,0.262,-5.337
0.182,0.059,0.267,-5.337
0.182,0.056,0.265,-5.337
0.230,0.057,0.261,-5.337
0.221,0.058,0.263,-5.337
0.273,0.052,0.264,-5.337
0.221,0.057,0.263,-5.337
0.201,0.056,0.260,-5.337
0.194,0.056,0.261,-5.337
0.180,0.055,0.264,-5.337
0.192,0.057,0.263,-5.337
0.258,0.060,0.257,-5.337
0.226,0.060,0.258,-5.337
0.224,0.055,0.259,-5.337
0.222,0.055,0.261,-5.337
0.186,0.055,0.265,-5.337
0.256,0.054,0.271,-5.337
0.282,0.055,0.272,-5.337
0.200,0.059,0.270,-5.337
0.143,0.058,0.266,-5.337
0.173,0.056,0.265,-5.337
0.200,0.058,0.263,-5.337
0.198,0.061,0.262,-5.337
0.214,0.057,0.262,-5.337
0.244,0.055,0.262,-5.337
0.215,0.054,0.263,-5.337
0.196,0.054,0.264,-5.337
0.194,0.054,0.264,-5.337
0.260,0.052,0.260,-5.337
0.307,0.049,0.261,-5.337
0.176,0.054,0.266,-5.337
0.149,0.058,0.270,-5.337
0.226,0.059,0.271,-5.337
0.227,0.058,0.271,-5.337
0.180,0.056,0.269,-5.337
0.174,0.058,0.267,-5.337
0.184,0.057,0.261,-5.337
0.154,0.057,0.261,-5.337
0.141,0.057,0.262,-5.337
0.178,0.057,0.262,-5.337
0.230,0.055,0.263,-5.337
0.302,0.054,0.263,-5.337
0.271,0.054,0.262,-5.337
0.214,0.058,0.262,-5.337
0.172,0.058,0.264,-5.337
0.152,0.060,0.267,-5.337
0.140,0.057,0.267,-5.337
0.253,0.052,0.266,-5.337
0.357,0.051,0.263,-5.337
0.354,0.054,0.263,-5.337
0.296,0.057,0.268,-5.337
0.292,0.058,0.268,-5.337
0.256,0.057,0.267,-5.337
0.213,0.056,0.268,-5.337
0.204,0.056,0.270,-5.337
0.194,0.055,0.267,-5.337
0.203,0.056,0.266,-5.337
0.147,0.060,0.265,-5.337
0.118,0.062,0.262,-5.337
0.109,0.061,0.262,-5.337
0.180,0.058,0.262,-5.337
0.254,0.056,0.259,-5.337
0.255,0.059,0.258,-5.337
0.264,0.057,0.261,-5.337
0.290,0.057,0.265,-5.337
0.267,0.059,0.264,-5.337
0.218,0.059,0.263,-5.337
0.149,0.063,0.262,-5.337
0.112,0.061,0.261,-5.337
0.138,0.059,0.258,-5.337
0.142,0.060,0.258,-5.337
0.155,0.059,0.260,-5.337
0.205,0.057,0.263,-5.337
0.217,0.059,0.265,-5.337
0.143,0.059,0.264,-5.337
0.093,0.061,0.265,-5.337
0.071,0.060,0.266,-5.337
0.018,0.058,0.267,-5.337
0.090,0.061,0.262,-5.337
0.176,0.061,0.260,-5.337
0.174,0.061,0.258,-5.337
0.165,0.063,0.260,-5.337
0.177,0.060,0.264,-5.337
0.252,0.063,0.266,-5.337
0.242,0.063,0.265,-5.337
0.212,0.064,0.264,-5.337
0.184,0.064,0.263,-5.337
0.180,0.064,0.261,-5.337
0.170,0.063,0.260,-5.337
0.196,0.066,0.263,-5.337
0.233,0.064,0.263,-5.337
0.257,0.062,0.265,-5.337
0.249,0.062,0.266,-5.337
0.219,0.062,0.266,-5.337
0.249,0.062,0.265,-5.337
0.264,0.060,0.260,-5.337
0.209,0.063,0.260,-5.337
0.144,0.066,0.262,-5.337
0.157,0.062,0.264,-5.337
0.225,0.060,0.261,-5.337
0.278,0.063,0.259,-5.337
0.235,0.061,0.260,-5.337
0.147,0.065,0.261,-5.337
0.106,0.065,0.259,-5.337
0.118,0.061,0.260,-5.337
0.171,0.057,0.266,-5.337
0.194,0.057,0.270,-5.337
0.157,0.059,0.269,-5.337
0.155,0.058,0.264,-5.337
0.234,0.052,0.259,-5.337
0.296,0.052,0.259,-5.337
0.242,0.056,0.259,-5.337
0.230,0.059,0.260,-5.337
0.212,0.060,0.264,-5.337
0.182,0.061,0.265,-5.337
0.249,0.057,0.268,-5.337
0.254,0.058,0.269,-5.337
0.203,0.065,0.267,-5.337
0.172,0.065,0.264,-5.337
0.196,0.063,0.263,-5.337
0.258,0.059,0.262,-5.337
0.261,0.059,0.264,-5.337
0.222,0.058,0.261,-5.337
0.206,0.058,0.255,-5.337
0.205,0.063,0.254,-5.337
0.179,0.061,0.260,-5.337
0.186,0.057,0.264,-5.337
0.230,0.056,0.264,-5.337
0.234,0.059,0.264,-5.337
0.192,0.058,0.265,-5.337
0.169,0.054,0.266,-5.337
0.174,0.058,0.266,-5.337
0.165,0.059,0.263,-5.337
0.218,0.056,0.258,-5.337
0.276,0.056,0.258,-5.337
0.293,0.060,0.261,-5.337
0.267,0.063,0.264,-5.337
0.216,0.061,0.266,-5.337
0.222,0.059,0.267,-5.337
0.313,0.057,0.265,-5.337
0.305,0.056,0.261,-5.337
0.253,0.058,0.259,-5.337
0.217,0.062,0.259,-5.337
0.244,0.058,0.261,-5.337
0.246,0.059,0.264,-5.337
0.163,0.056,0.266,-5.337
0.160,0.055,0.266,-5.337
0.236,0.054,0.266,-5.337
0.213,0.054,0.266,-5.337
0.205,0.054,0.266,-5.337
0.203,0.054,0.263,-5.337
0.228,0.050,0.259,-5.337
0.264,0.051,0.259,-5.337
0.204,0.055,0.261,-5.337
0.268,0.055,0.263,-5.337
0.351,0.056,0.264,-5.337
0.315,0.057,0.263,-5.337
0.261,0.056,0.265,-5.337
0.178,0.055,0.265,-5.337
0.173,0.052,0.267,-5.337
0.228,0.053,0.265,-5.337
0.219,0.053,0.263,-5.337
0.193,0.054,0.260,-5.337
0.201,0.054,0.259,-5.337
0.228,0.051,0.260,-5.337
0.163,0.051,0.260,-5.337
0.081,0.052,0.262,-5.337
0.041,0.057,0.264,-5.337
0.112,0.056,0.263,-5.337
0.214,0.055,0.259,-5.337
0.258,0.051,0.256,-5.337
0.233,0.053,0.261,-5.337
0.199,0.053,0.264,-5.337
0.129,0.054,0.264,-5.337
0.107,0.053,0.265,-5.337
0.139,0.053,0.268,-5.337
0.159,0.056,0.268,-5.337
0.155,0.056,0.265,-5.337
0.183,0.056,0.263,-5.337
0.155,0.055,0.264,-5.337
0.160,0.054,0.265,-5.337
0.208,0.049,0.264,-5.337
0.272,0.052,0.264,-5.337
0.234,0.055,0.262,-5.337
0.189,0.058,0.263,-5.337
0.232,0.058,0.264,-5.337
0.288,0.054,0.263,-5.337
0.265,0.053,0.260,-5.337
0.214,0.058,0.262,-5.337
0.179,0.058,0.263,-5.337
0.213,0.055,0.264,-5.337
0.304,0.051,0.262,-5.337
0.257,0.052,0.261,-5.337
0.158,0.057,0.261,-5.337
0.132,0.057,0.265,-5.337
0.158,0.051,0.269,-5.337
0.199,0.049,0.267,-5.337
0.211,0.051,0.263,-5.337
0.169,0.051,0.261,-5.337
0.184,0.048,0.262,-5.337
0.181,0.048,0.261,-5.337
0.146,0.054,0.262,-5.337
0.117,0.054,0.261,-5.337
0.181,0.050,0.266,-5.337
0.226,0.049,0.266,-5.337
0.216,0.049,0.265,-5.337
0.169,0.045,0.266,-5.337
0.206,0.045,0.265,-5.337
0.217,0.044,0.261,-5.337
0.236,0.046,0.258,-5.337
0.301,0.044,0.260,-5.337
0.302,0.044,0.263,-5.337
0.176,0.049,0.263,-5.337
0.071,0.058,0.261,-5.337
0.116,0.053,0.262,-5.337
0.149,0.054,0.262,-5.337
0.118,0.055,0.260,-5.337
0.076,0.054,0.255,-5.337
0.120,0.052,0.256,-5.337
0.168,0.050,0.260,-5.337
0.231,0.046,0.263,-5.337
0.205,0.047,0.265,-5.337
0.175,0.050,0.268,-5.337
0.194,0.049,0.270,-5.337
0.245,0.045,0.271,-5.337
0.243,0.045,0.269,-5.337
0.148,0.048,0.265,-5.337
0.148,0.048,0.257,-5.337
0.169,0.049,0.252,-5.337
0.148,0.048,0.255,-5.337
0.136,0.047,0.262,-5.337
0.089,0.049,0.264,-5.337
0.076,0.049,0.264,-5.337
0.139,0.045,0.263,-5.337
0.188,0.042,0.265,-5.337
0.127,0.044,0.265,-5.337
0.195,0.042,0.264,-5.337
0.302,0.044,0.264,-5.337
0.257,0.046,0.266,-5.337
0.224,0.046,0.266,-5.337
0.169,0.048,0.262,-5.337
0.112,0.045,0.261,-5.337
0.119,0.042,0.262,-5.337
0.170,0.042,0.264,-5.337
0.148,0.047,0.262,-5.337
0.097,0.049,0.263,-5.337
0.087,0.048,0.262,-5.337
0.153,0.046,0.263,-5.337
0.207,0.043,0.261,-5.337
0.185,0.044,0.264,-5.337
0.153,0.042,0.267,-5.337
0.177,0.042,0.265,-5.337
0.171,0.041,0.262,-5.337
0.142,0.041,0.263,-5.337
0.200,0.036,0.261,-5.337
0.256,0.039,0.260,-5.337
0.209,0.043,0.259,-5.337
0.211,0.044,0.263,-5.337
0.209,0.046,0.266,-5.337
0.137,0.047,0.265,-5.337
0.204,0.044,0.263,-5.337
0.245,0.044,0.261,-5.337
0.157,0.042,0.260,-5.337
0.138,0.040,0.261,-5.337
0.134,0.042,0.261,-5.337
0.174,0.040,0.262,-5.337
0.173,0.040,0.267,-5.337
0.177,0.042,0.267,-5.337
0.094,0.042,0.265,-5.337
0.085,0.037,0.260,-5.337
0.127,0.038,0.257,-5.337
0.109,0.040,0.256,-5.337
0.140,0.040,0.260,-5.337
0.190,0.038,0.265,-5.337
0.180,0.040,0.265,-5.337
0.123,0.037,0.263,-5.337
0.213,0.031,0.261,-5.337
0.218,0.031,0.264,-5.337
0.152,0.036,0.267,-5.337
0.136,0.035,0.268,-5.337
0.167,0.037,0.266,-5.337
0.120,0.042,0.264,-5.337
0.125,0.045,0.261,-5.337
0.144,0.043,0.260,-5.337
0.151,0.038,0.259,-5.337
0.210,0.037,0.263,-5.337
0.200,0.042,0.266,-5.337
0.224,0.043,0.270,-5.337
0.207,0.042,0.272,-5.337
0.169,0.043,0.275,-5.337
0.138,0.045,0.274,-5.337
0.162,0.044,0.269,-5.337
0.178,0.040,0.262,-5.337
0.205,0.037,0.263,-5.337
0.292,0.034,0.265,-5.337
0.339,0.037,0.266,-5.337
0.220,0.041,0.265,-5.337
0.095,0.042,0.266,-5.337
0.078,0.040,0.266,-5.337
0.067,0.041,0.265,-5.337
0.146,0.038,0.263,-5.337
0.194,0.039,0.262,-5.337
0.171,0.036,0.265,-5.337
0.218,0.035,0.266,-5.337
0.237,0.040,0.266,-5.337
0.149,0.040,0.265,-5.337
0.122,0.041,0.261,-5.337
0.163,0.042,0.262,-5.337
0.165,0.039,0.268,-5.337
0.130,0.040,0.269,-5.337
0.196,0.038,0.267,-5.337
0.237,0.037,0.265,-5.337
0.245,0.038,0.265,-5.337
0.242,0.039,0.264,-5.337
0.193,0.044,0.267,-5.337
0.116,0.048,0.269,-5.337
0.121,0.044,0.269,-5.337
0.198,0.033,0.266,-5.337
0.237,0.038,0.266,-5.337
0.119,0.045,0.267,-5.337
0.047,0.047,0.266,-5.337
0.107,0.042,0.260,-5.337
0.175,0.038,0.260,-5.337
0.196,0.043,0.260,-5.337
0.139,0.047,0.263,-5.337
0.050,0.048,0.265,-5.337
0.089,0.044,0.263,-5.337
0.248,0.038,0.263,-5.337
0.288,0.038,0.264,-5.337
0.251,0.037,0.265,-5.337
0.231,0.034,0.263,-5.337
0.214,0.035,0.263,-5.337
0.184,0.033,0.264,-5.337
0.169,0.034,0.266,-5.337
0.166,0.036,0.262,-5.337
0.203,0.037,0.261,-5.337
0.164,0.036,0.262,-5.337
0.119,0.036,0.262,-5.337
0.091,0.034,0.266,-5.337
0.132,0.037,0.268,-5.337
0.175,0.036,0.268,-5.337
0.093,0.040,0.268,-5.337
0.061,0.042,0.267,-5.337
0.107,0.041,0.265,-5.337
0.201,0.039,0.261,-5.337
0.222,0.040,0.261,-5.337
0.214,0.035,0.264,-5.337
0.153,0.038,0.265,-5.337
0.157,0.036,0.259,-5.337
0.203,0.035,0.255,-5.337
0.226,0.034,0.258,-5.337
0.221,0.033,0.263,-5.337
0.187,0.035,0.265,-5.337
0.139,0.039,0.265,-5.337
0.092,0.043,0.265,-5.337
0.064,0.041,0.261,-5.337
0.113,0.041,0.260,-5.337
0.157,0.037,0.262,-5.337
0.243,0.039,0.262,-5.337
0.215,0.040,0.258,-5.337
0.150,0.043,0.260,-5.337
0.163,0.040,0.266,-5.337
0.160,0.040,0.264,-5.337
0.107,0.037,0.262,-5.337
0.110,0.037,0.263,-5.337
0.161,0.037,0.264,-5.337
0.198,0.039,0.262,-5.337
0.182,0.042,0.262,-5.337
0.131,0.048,0.264,-5.337
0.152,0.046,0.263,-5.337
0.249,0.041,0.259,-5.337
0.237,0.039,0.262,-5.337
0.088,0.044,0.266,-5.337
0.030,0.045,0.263,-5.337
0.114,0.039,0.260,-5.337
0.155,0.040,0.263,-5.337
0.142,0.043,0.262,-5.337
0.080,0.041,0.262,-5.337
0.053,0.039,0.262,-5.337
0.114,0.043,0.266,-5.337
0.136,0.046,0.267,-5.337
0.218,0.043,0.267,-5.337
0.221,0.043,0.262,-5.337
0.219,0.044,0.261,-5.337
0.220,0.043,0.262,-5.337
0.179,0.044,0.265,-5.337
0.216,0.042,0.266,-5.337
0.276,0.041,0.266,-5.337
0.306,0.041,0.265,-5.337
0.199,0.046,0.265,-5.337
0.081,0.047,0.266,-5.337
0.075,0.047,0.267,-5.337
0.139,0.042,0.262,-5.337
0.184,0.041,0.262,-5.337
0.191,0.045,0.264,-5.337
0.190,0.046,0.266,-5.337
0.147,0.045,0.264,-5.337
0.136,0.045,0.257,-5.337
0.128,0.046,0.254,-5.337
0.153,0.045,0.256,-5.337
0.214,0.044,0.263,-5.337
0.231,0.045,0.266,-5.337
0.235,0.044,0.268,-5.337
0.233,0.042,0.266,-5.337
0.217,0.047,0.262,-5.337
0.174,0.047,0.257,-5.337
0.216,0.047,0.258,-5.337
0.238,0.045,0.261,-5.337
0.147,0.050,0.264,-5.337
0.159,0.049,0.263,-5.337
0.246,0.048,0.260,-5.337
0.179,0.045,0.264,-5.337
0.158,0.046,0.269,-5.337
0.211,0.045,0.267,-5.337
0.134,0.049,0.261,-5.337
0.112,0.046,0.262,-5.337
0.182,0.046,0.262,-5.337
0.234,0.051,0.259,-5.337
0.176,0.046,0.257,-5.337
0.141,0.047,0.262,-5.337
0.179,0.045,0.262,-5.337
0.230,0.044,0.261,-5.337
0.139,0.045,0.262,-5.337
0.054,0.050,0.263,-5.337
0.152,0.045,0.263,-5.337
0.298,0.042,0.264,-5.337
0.274,0.043,0.265,-5.337
0.243,0.049,0.268,-5.337
0.254,0.049,0.265,-5.337
0.289,0.045,0.263,-5.337
0.271,0.045,0.263,-5.337
0.200,0.049,0.264,-5.337
0.147,0.049,0.265,-5.337
0.130,0.049,0.267,-5.337
0.177,0.049,0.267,-5.337
0.271,0.045,0.264,-5.337
0.262,0.044,0.265,-5.337
0.174,0.047,0.266,-5.337
0.119,0.054,0.267,-5.337
0.111,0.054,0.265,-5.337
0.105,0.058,0.263,-5.337
0.149,0.056,0.261,-5.337
0.230,0.052,0.257,-5.337
0.269,0.051,0.260,-5.337
0.197,0.051,0.262,-5.337
0.195,0.051,0.262,-5.337
0.235,0.053,0.262,-5.337
0.219,0.049,0.261,-5.337
0.180,0.048,0.265,-5.337
0.176,0.050,0.268,-5.337
0.150,0.054,0.264,-5.337
0.137,0.054,0.259,-5.337
0.176,0.053,0.260,-5.337
0.185,0.054,0.265,-5.337
0.212,0.053,0.265,-5.337
0.244,0.053,0.263,-5.337
0.270,0.049,0.258,-5.337
0.228,0.050,0.262,-5.337
0.191,0.047,0.268,-5.337
0.207,0.049,0.271,-5.337
0.174,0.052,0.267,-5.337
0.163,0.054,0.264,-5.337
0.167,0.053,0.264,-5.337
0.223,0.048,0.264,-5.337
0.264,0.047,0.262,-5.337
0.220,0.050,0.263,-5.337
0.219,0.045,0.265,-5.337
0.281,0.042,0.268,-5.337
0.258,0.045,0.266,-5.337
0.230,0.048,0.264,-5.337
0.179,0.049,0.263,-5.337
0.130,0.050,0.263,-5.337
0.163,0.049,0.264,-5.337
0.189,0.052,0.266,-5.337
0.191,0.050,0.264,-5.337
0.251,0.047,0.259,-5.337
0.220,0.048,0.260,-5.337
0.176,0.052,0.262,-5.337
0.170,0.052,0.262,-5.337
0.189,0.054,0.262,-5.337
0.173,0.055,0.266,-5.337
0.245,0.055,0.266,-5.337
0.224,0.056,0.265,-5.337
0.163,0.052,0.265,-5.337
0.106,0.052,0.262,-5.337
0.074,0.053,0.257,-5.337
0.097,0.052,0.257,-5.337
0.184,0.049,0.260,-5.337
0.179,0.055,0.265,-5.337
0.160,0.054,0.265,-5.337
0.177,0.054,0.262,-5.337
0.186,0.053,0.261,-5.337
0.256,0.052,0.259,-5.337
0.238,0.051,0.259,-5.337
0.175,0.056,0.262,-5.337
0.138,0.060,0.265,-5.337
0.164,0.058,0.269,-5.337
0.195,0.058,0.270,-5.337
0.242,0.059,0.265,-5.337
0.262,0.059,0.260,-5.337
0.270,0.058,0.261,-5.337
0.293,0.054,0.261,-5.337
0.279,0.054,0.261,-5.337
0.249,0.057,0.262,-5.337
0.226,0.056,0.260,-5.337
0.229,0.051,0.262,-5.337
0.180,0.056,0.262,-5.337
0.131,0.057,0.260,-5.337
0.161,0.055,0.256,-5.337
0.164,0.055,0.258,-5.337
0.235,0.053,0.262,-5.337
0.271,0.054,0.269,-5.337
0.195,0.055,0.269,-5.337
0.129,0.057,0.265,-5.337
0.128,0.056,0.263,-5.337
0.133,0.057,0.263,-5.337
0.180,0.058,0.261,-5.337
0.193,0.059,0.262,-5.337
0.254,0.057,0.261,-5.337
0.244,0.059,0.259,-5.337
0.181,0.060,0.261,-5.337
0.202,0.057,0.263,-5.337
0.216,0.055,0.264,-5.337
0.184,0.053,0.264,-5.337
0.239,0.052,0.268,-5.337
0.238,0.055,0.270,-5.337
0.183,0.059,0.266,-5.337
0.104,0.061,0.260,-5.337
0.094,0.058,0.260,-5.337
0.205,0.053,0.261,-5.337
0.215,0.057,0.262,-5.337
0.231,0.056,0.260,-5.337
0.239,0.059,0.261,-5.337
0.186,0.060,0.260,-5.337
0.192,0.058,0.262,-5.337
0.245,0.055,0.264,-5.337
0.284,0.056,0.264,-5.337
0.236,0.058,0.264,-5.337
0.178,0.060,0.266,-5.337
0.166,0.059,0.266,-5.337
0.229,0.059,0.264,-5.337
0.330,0.062,0.261,-5.337
0.319,0.062,0.258,-5.337
0.205,0.062,0.260,-5.337
0.191,0.060,0.262,-5.337
0.254,0.059,0.265,-5.337
0.262,0.057,0.265,-5.337
0.291,0.053,0.265,-5.337
0.252,0.057,0.264,-5.337
0.190,0.058,0.262,-5.337
0.199,0.056,0.260,-5.337
0.271,0.057,0.263,-5.337
0.240,0.060,0.267,-5.337
0.242,0.062,0.266,-5.337
0.284,0.059,0.267,-5.337
0.253,0.062,0.268,-5.337
0.221,0.062,0.268,-5.337
0.249,0.061,0.268,-5.337
0.232,0.057,0.268,-5.337
0.223,0.059,0.268,-5.337
0.250,0.059,0.268,-5.337
0.225,0.060,0.268,-5.337
0.204,0.060,0.266,-5.337
0.129,0.060,0.265,-5.337
0.113,0.061,0.266,-5.337
0.127,0.066,0.266,-5.337
0.216,0.062,0.268,-5.337
0.230,0.064,0.269,-5.337
0.204,0.063,0.268,-5.337
0.179,0.066,0.260,-5.337
0.197,0.063,0.259,-5.337
0.260,0.066,0.261,-5.337
0.256,0.063,0.264,-5.337
0.237,0.062,0.270,-5.337
0.213,0.066,0.273,-5.337
0.208,0.065,0.268,-5.337
0.281,0.062,0.264,-5.337
0.340,0.062,0.265,-5.337
0.222,0.065,0.269,-5.337
0.146,0.067,0.269,-5.337
0.171,0.063,0.268,-5.337
0.234,0.061,0.268,-5.337
0.264,0.061,0.267,-5.337
0.212,0.064,0.267,-5.337
0.179,0.065,0.269,-5.337
0.216,0.065,0.269,-5.337
0.263,0.061,0.266,-5.337
0.235,0.059,0.267,-5.337
0.231,0.059,0.268,-5.337
0.217,0.063,0.269,-5.337
0.177,0.065,0.265,-5.337
0.247,0.063,0.262,-5.337
0.221,0.061,0.261,-5.337
0.205,0.063,0.262,-5.337
0.159,0.066,0.262,-5.337
0.203,0.065,0.266,-5.337
0.239,0.065,0.270,-5.337
0.257,0.062,0.269,-5.337
0.278,0.058,0.266,-5.337
0.303,0.059,0.263,-5.337
0.267,0.063,0.260,-5.337
0.181,0.066,0.262,-5.337
0.179,0.064,0.264,-5.337
0.212,0.064,0.266,-5.337
0.218,0.063,0.267,-5.337
0.195,0.062,0.266,-5.337
0.217,0.061,0.267,-5.337
0.254,0.063,0.265,-5.337
0.221,0.060,0.260,-5.337
0.267,0.057,0.254,-5.337
0.291,0.059,0.259,-5.337
0.267,0.061,0.265,-5.337
0.217,0.062,0.269,-5.337
0.230,0.061,0.266,-5.337
0.302,0.063,0.264,-5.337
0.287,0.061,0.264,-5.337
0.277,0.061,0.264,-5.337
0.258,0.060,0.267,-5.337
0.294,0.058,0.268,-5.337
0.272,0.057,0.263,-5.337
0.247,0.057,0.260,-5.337
0.290,0.057,0.262,-5.337
0.325,0.056,0.261,-5.337
0.255,0.057,0.263,-5.337
0.223,0.056,0.267,-5.337
0.212,0.053,0.266,-5.337
0.245,0.052,0.265,-5.337
0.242,0.052,0.267,-5.337
0.284,0.054,0.266,-5.337
0.270,0.057,0.265,-5.337
0.182,0.058,0.261,-5.337
0.107,0.061,0.261,-5.337
0.077,0.059,0.261,-5.337
0.153,0.054,0.262,-5.337
0.201,0.053,0.260,-5.337
0.180,0.058,0.258,-5.337
0.168,0.057,0.262,-5.337
0.177,0.056,0.267,-5.337
0.136,0.054,0.271,-5.337
0.057,0.055,0.271,-5.337
0.082,0.051,0.266,-5.337
0.158,0.052,0.263,-5.337
0.202,0.056,0.262,-5.337
0.196,0.057,0.266,-5.337
0.182,0.055,0.264,-5.337
0.198,0.049,0.262,-5.337
0.281,0.045,0.263,-5.337
0.220,0.052,0.265,-5.337
0.126,0.053,0.264,-5.337
0.227,0.048,0.263,-5.337
0.234,0.047,0.265,-5.337
0.245,0.048,0.266,-5.337
0.196,0.051,0.265,-5.337
0.157,0.054,0.260,-5.337
0.154,0.053,0.260,-5.337
0.205,0.050,0.263,-5.337
0.234,0.050,0.267,-5.337
0.182,0.054,0.265,-5.337
0.171,0.053,0.263,-5.337
0.201,0.050,0.264,-5.337
0.207,0.051,0.266,-5.337
0.257,0.048,0.263,-5.337
0.269,0.048,0.260,-5.337
0.231,0.047,0.261,-5.337
0.192,0.050,0.264,-5.337
0.196,0.049,0.269,-5.337
0.200,0.049,0.270,-5.337
0.174,0.050,0.265,-5.337
0.189,0.048,0.264,-5.337
0.195,0.050,0.264,-5.337
0.218,0.047,0.265,-5.337
0.288,0.045,0.266,-5.337
0.243,0.049,0.264,-5.337
0.242,0.050,0.263,-5.337
0.265,0.048,0.262,-5.337
0.219,0.049,0.264,-5.337
0.199,0.047,0.263,-5.337
0.155,0.047,0.263,-5.337
0.130,0.045,0.257,-5.337
0.188,0.042,0.260,-5.337
0.213,0.047,0.266,-5.337
0.130,0.052,0.268,-5.337
0.088,0.049,0.266,-5.337
0.104,0.050,0.267,-5.337
0.140,0.047,0.264,-5.337
0.150,0.046,0.262,-5.337
0.169,0.044,0.262,-5.337
0.156,0.048,0.261,-5.337
0.179,0.044,0.264,-5.337
0.207,0.041,0.268,-5.337
0.266,0.042,0.269,-5.337
0.247,0.042,0.266,-5.337
0.328,0.039,0.264,-5.337
0.293,0.041,0.265,-5.337
0.248,0.045,0.270,-5.337
0.212,0.044,0.270,-5.337
0.276,0.043,0.265,-5.337
0.286,0.043,0.264,-5.337
0.196,0.046,0.265,-5.337
0.227,0.042,0.264,-5.337
0.233,0.043,0.266,-5.337
0.214,0.045,0.267,-5.337
0.170,0.045,0.266,-5.337
0.125,0.041,0.263,-5.337
0.152,0.042,0.263,-5.337
0.174,0.042,0.265,-5.337
0.157,0.041,0.265,-5.337
0.196,0.039,0.264,-5.337
0.181,0.043,0.261,-5.337
0.099,0.046,0.262,-5.337
0.144,0.044,0.265,-5.337
0.168,0.045,0.267,-5.337
0.146,0.047,0.265,-5.337
0.205,0.045,0.261,-5.337
0.254,0.047,0.258,-5.337
0.167,0.049,0.260,-5.337
0.053,0.052,0.263,-5.337
0.054,0.051,0.267,-5.337
0.170,0.048,0.264,-5.337
0.224,0.048,0.263,-5.337
0.146,0.051,0.263,-5.337
0.120,0.048,0.262,-5.337
0.195,0.047,0.260,-5.337
0.184,0.046,0.262,-5.337
0.184,0.046,0.261,-5.337
0.228,0.045,0.263,-5.337
0.194,0.046,0.268,-5.337
0.170,0.045,0.270,-5.337
0.188,0.042,0.267,-5.337
0.259,0.042,0.263,-5.337
0.245,0.043,0.261,-5.337
0.241,0.042,0.262,-5.337
0.247,0.043,0.260,-5.337
0.196,0.041,0.259,-5.337
0.218,0.037,0.260,-5.337
0.228,0.038,0.262,-5.337
0.204,0.042,0.267,-5.337
0.160,0.044,0.267,-5.337
0.197,0.041,0.265,-5.337
0.239,0.038,0.263,-5.337
0.224,0.041,0.265,-5.337
0.229,0.040,0.265,-5.337
0.270,0.040,0.265,-5.337
0.179,0.041,0.265,-5.337
0.097,0.043,0.266,-5.337
0.108,0.039,0.263,-5.337
0.159,0.037,0.262,-5.337
0.198,0.040,0.266,-5.337
0.184,0.041,0.266,-5.337
0.229,0.035,0.263,-5.337
0.224,0.038,0.261,-5.337
0.213,0.036,0.262,-5.337
0.168,0.036,0.265,-5.337
0.188,0.035,0.267,-5.337
0.249,0.035,0.264,-5.337
0.199,0.036,0.260,-5.337
0.152,0.039,0.258,-5.337
0.141,0.037,0.261,-5.337
0.152,0.038,0.265,-5.337
0.159,0.038,0.267,-5.337
0.121,0.037,0.265,-5.337
0.098,0.036,0.265,-5.337
0.136,0.038,0.264,-5.337
0.130,0.038,0.266,-5.337
0.161,0.036,0.266,-5.337
0.207,0.035,0.266,-5.337
0.206,0.036,0.266,-5.337
0.209,0.038,0.265,-5.337
0.219,0.040,0.265,-5.337
0.209,0.039,0.264,-5.337
0.168,0.039,0.262,-5.337
0.138,0.041,0.261,-5.337
0.057,0.040,0.263,-5.337
0.102,0.037,0.265,-5.337
0.199,0.039,0.264,-5.337
0.280,0.037,0.265,-5.337
0.311,0.035,0.264,-5.337
0.247,0.038,0.262,-5.337
0.123,0.042,0.260,-5.337
0.083,0.042,0.261,-5.337
0.140,0.036,0.265,-5.337
0.189,0.034,0.265,-5.337
0.191,0.037,0.265,-5.337
0.163,0.037,0.265,-5.337
0.211,0.035,0.265,-5.337
0.168,0.037,0.262,-5.337
0.134,0.039,0.261,-5.337
0.190,0.039,0.265,-5.337
0.178,0.040,0.269,-5.337
0.153,0.037,0.267,-5.337
0.162,0.038,0.257,-5.337
0.133,0.043,0.252,-5.337
0.133,0.042,0.257,-5.337
0.205,0.039,0.264,-5.337
0.175,0.041,0.272,-5.337
0.156,0.042,0.273,-5.337
0.160,0.042,0.269,-5.337
0.185,0.040,0.264,-5.337
0.183,0.038,0.258,-5.337
0.216,0.038,0.258,-5.337
0.202,0.042,0.258,-5.337
0.143,0.046,0.263,-5.337
0.128,0.039,0.264,-5.337
0.204,0.035,0.266,-5.337
0.224,0.037,0.264,-5.337
0.140,0.041,0.264,-5.337
0.148,0.040,0.267,-5.337
0.144,0.038,0.269,-5.337
0.145,0.038,0.265,-5.337
0.146,0.041,0.264,-5.337
0.230,0.037,0.265,-5.337
0.245,0.036,0.266,-5.337
0.162,0.039,0.265,-5.337
0.168,0.035,0.265,-5.337
0.210,0.033,0.265,-5.337
0.209,0.032,0.267,-5.337
0.182,0.033,0.268,-5.337
0.142,0.036,0.269,-5.337
0.108,0.042,0.269,-5.337
0.085,0.043,0.266,-5.337
0.105,0.043,0.263,-5.337
0.117,0.042,0.258,-5.337
0.108,0.043,0.260,-5.337
0.147,0.040,0.266,-5.337
0.214,0.039,0.267,-5.337
0.169,0.038,0.264,-5.337
0.143,0.036,0.263,-5.337
0.237,0.038,0.262,-5.337
0.237,0.043,0.265,-5.337
0.161,0.043,0.268,-5.337
0.147,0.042,0.266,-5.337
0.162,0.037,0.266,-5.337
0.188,0.035,0.265,-5.337
0.180,0.036,0.265,-5.337
0.146,0.039,0.267,-5.337
0.124,0.036,0.267,-5.337
0.106,0.034,0.266,-5.337
0.149,0.034,0.263,-5.337
0.209,0.032,0.265,-5.337
0.254,0.033,0.270,-5.337
0.241,0.037,0.270,-5.337
0.197,0.036,0.269,-5.337
0.194,0.035,0.266,-5.337
0.161,0.037,0.265,-5.337
0.144,0.039,0.264,-5.337
0.159,0.039,0.268,-5.337
0.175,0.041,0.268,-5.337
0.235,0.038,0.268,-5.337
0.229,0.034,0.266,-5.337
0.262,0.030,0.264,-5.337
0.203,0.030,0.264,-5.337
0.184,0.031,0.265,-5.337
0.181,0.031,0.264,-5.337
0.169,0.031,0.265,-5.337
0.172,0.031,0.270,-5.337
0.163,0.030,0.270,-5.337
0.167,0.030,0.265,-5.337
0.192,0.035,0.264,-5.337
0.178,0.038,0.264,-5.337
0.159,0.036,0.268,-5.337
0.181,0.032,0.271,-5.337
0.148,0.037,0.270,-5.337
0.084,0.038,0.267,-5.337
0.103,0.038,0.262,-5.337
0.177,0.037,0.263,-5.337
0.223,0.034,0.265,-5.337
0.220,0.032,0.266,-5.337
0.177,0.033,0.267,-5.337
0.132,0.036,0.267,-5.337
0.188,0.038,0.262,-5.337
0.244,0.034,0.263,-5.337
0.187,0.034,0.266,-5.337
0.193,0.032,0.268,-5.337
0.186,0.030,0.267,-5.337
0.142,0.033,0.262,-5.337
0.186,0.032,0.260,-5.337
0.291,0.029,0.265,-5.337
0.256,0.029,0.264,-5.337
0.215,0.030,0.262,-5.337
0.166,0.033,0.262,-5.337
0.132,0.033,0.265,-5.337
0.175,0.029,0.267,-5.337
0.199,0.031,0.266,-5.337
0.210,0.033,0.264,-5.337
0.165,0.035,0.260,-5.337
0.168,0.032,0.258,-5.337
0.104,0.034,0.261,-5.337
0.032,0.034,0.266,-5.337
0.062,0.030,0.265,-5.337
0.170,0.031,0.261,-5.337
0.188,0.035,0.259,-5.337
0.122,0.037,0.264,-5.337
0.075,0.036,0.267,-5.337
0.143,0.035,0.266,-5.337
0.230,0.032,0.262,-5.337
0.221,0.035,0.261,-5.337
0.149,0.036,0.260,-5.337
0.080,0.040,0.262,-5.337
0.110,0.039,0.264,-5.337
0.119,0.040,0.265,-5.337
0.169,0.039,0.264,-5.337
0.186,0.042,0.262,-5.337
0.190,0.040,0.261,-5.337
0.151,0.043,0.262,-5.337
0.119,0.045,0.262,-5.337
0.204,0.043,0.261,-5.337
0.276,0.042,0.261,-5.337
0.219,0.043,0.263,-5.337
0.154,0.043,0.268,-5.337
0.187,0.041,0.270,-5.337
0.236,0.040,0.270,-5.337
0.221,0.038,0.264,-5.337
0.259,0.036,0.256,-5.337
0.237,0.037,0.255,-5.337
0.207,0.038,0.262,-5.337
0.255,0.035,0.265,-5.337
0.246,0.036,0.263,-5.337
0.188,0.039,0.261,-5.337
0.138,0.045,0.265,-5.337
0.050,0.047,0.265,-5.337
0.075,0.044,0.265,-5.337
0.156,0.042,0.260,-5.337
0.185,0.041,0.256,-5.337
0.144,0.043,0.259,-5.337
0.136,0.042,0.264,-5.337
0.178,0.040,0.265,-5.337
0.209,0.041,0.264,-5.337
0.133,0.043,0.265,-5.337
0.116,0.040,0.267,-5.337
0.178,0.039,0.268,-5.337
0.164,0.043,0.264,-5.337
0.168,0.044,0.264,-5.337
0.237,0.037,0.263,-5.337
0.241,0.036,0.264,-5.337
0.274,0.040,0.262,-5.337
0.251,0.042,0.261,-5.337
0.169,0.040,0.263,-5.337
0.151,0.038,0.263,-5.337
0.182,0.040,0.263,-5.337
0.220,0.042,0.266,-5.337
0.215,0.036,0.265,-5.337
0.210,0.037,0.266,-5.337
0.231,0.044,0.267,-5.337
0.234,0.047,0.262,-5.337
0.240,0.043,0.256,-5.337
0.138,0.046,0.254,-5.337
0.063,0.047,0.257,-5.337
0.076,0.048,0.263,-5.337
0.078,0.047,0.265,-5.337
0.108,0.042,0.267,-5.337
0.170,0.042,0.268,-5.337
0.151,0.045,0.264,-5.337
0.136,0.046,0.260,-5.337
0.151,0.044,0.261,-5.337
0.138,0.041,0.264,-5.337
0.162,0.041,0.267,-5.337
0.182,0.041,0.270,-5.337
0.185,0.043,0.267,-5.337
0.216,0.042,0.261,-5.337
0.230,0.044,0.261,-5.337
0.169,0.044,0.264,-5.337
0.118,0.045,0.265,-5.337
0.141,0.046,0.265,-5.337
0.191,0.044,0.266,-5.337
0.174,0.043,0.265,-5.337
0.185,0.043,0.266,-5.337
0.215,0.040,0.265,-5.337
0.182,0.042,0.263,-5.337
0.134,0.047,0.263,-5.337
0.181,0.046,0.265,-5.337
0.228,0.046,0.264,-5.337
0.222,0.045,0.266,-5.337
0.168,0.046,0.263,-5.337
0.209,0.045,0.262,-5.337
0.217,0.047,0.262,-5.337
0.181,0.048,0.263,-5.337
0.118,0.052,0.263,-5.337
0.122,0.050,0.261,-5.337
0.210,0.046,0.260,-5.337
0.234,0.047,0.262,-5.337
0.169,0.050,0.264,-5.337
0.153,0.050,0.265,-5.337
0.206,0.048,0.265,-5.337
0.180,0.046,0.263,-5.337
0.119,0.042,0.260,-5.337
0.103,0.041,0.262,-5.337
0.130,0.044,0.266,-5.337
0.187,0.047,0.266,-5.337
0.218,0.045,0.265,-5.337
0.262,0.045,0.262,-5.337
0.242,0.049,0.263,-5.337
0.176,0.056,0.263,-5.337
0.162,0.054,0.264,-5.337
0.206,0.051,0.261,-5.337
0.188,0.053,0.264,-5.337
0.140,0.059,0.264,-5.337
0.095,0.061,0.264,-5.337
0.157,0.055,0.263,-5.337
0.213,0.055,0.266,-5.337
0.244,0.053,0.266,-5.337
0.231,0.051,0.263,-5.337
0.236,0.049,0.258,-5.337
0.222,0.051,0.259,-5.337
0.201,0.050,0.262,-5.337
0.227,0.054,0.265,-5.337
0.259,0.052,0.267,-5.337
0.296,0.049,0.267,-5.337
0.282,0.051,0.267,-5.337
0.209,0.054,0.265,-5.337
0.132,0.052,0.263,-5.337
0.074,0.050,0.263,-5.337
0.139,0.049,0.264,-5.337
0.187,0.048,0.265,-5.337
0.196,0.049,0.263,-5.337
0.177,0.048,0.261,-5.337
0.239,0.049,0.260,-5.337
0.257,0.052,0.263,-5.337
0.200,0.052,0.266,-5.337
0.174,0.051,0.264,-5.337
0.153,0.054,0.261,-5.337
0.118,0.053,0.259,-5.337
0.180,0.049,0.261,-5.337
0.225,0.044,0.265,-5.337
0.245,0.048,0.267,-5.337
0.250,0.049,0.267,-5.337
0.264,0.050,0.262,-5.337
0.205,0.049,0.257,-5.337
0.139,0.052,0.260,-5.337
0.205,0.054,0.262,-5.337
0.196,0.057,0.261,-5.337
0.080,0.059,0.260,-5.337
0.067,0.057,0.262,-5.337
0.168,0.059,0.263,-5.337
0.181,0.058,0.260,-5.337
0.206,0.052,0.261,-5.337
0.178,0.054,0.262,-5.337
0.104,0.058,0.263,-5.337
0.123,0.056,0.266,-5.337
0.147,0.054,0.266,-5.337
0.305,0.052,0.263,-5.337
0.341,0.051,0.266,-5.337
0.268,0.055,0.264,-5.337
0.234,0.054,0.264,-5.337
0.217,0.054,0.261,-5.337
0.222,0.055,0.258,-5.337
0.257,0.054,0.257,-5.337
0.266,0.054,0.265,-5.337
0.298,0.052,0.270,-5.337
0.298,0.054,0.269,-5.337
0.197,0.057,0.268,-5.337
0.209,0.055,0.269,-5.337
0.284,0.051,0.268,-5.337
0.327,0.047,0.264,-5.337
0.255,0.048,0.259,-5.337
0.172,0.051,0.260,-5.337
0.140,0.056,0.265,-5.337
0.148,0.053,0.263,-5.337
0.180,0.052,0.262,-5.337
0.175,0.056,0.262,-5.337
0.217,0.054,0.261,-5.337
0.253,0.053,0.259,-5.337
0.268,0.052,0.259,-5.337
0.302,0.051,0.259,-5.337
0.246,0.057,0.262,-5.337
0.191,0.061,0.263,-5.337
0.222,0.061,0.261,-5.337
0.240,0.060,0.262,-5.337
0.228,0.063,0.266,-5.337
0.177,0.060,0.269,-5.337
0.125,0.064,0.266,-5.337
0.092,0.061,0.263,-5.337
0.119,0.061,0.266,-5.337
0.242,0.059,0.267,-5.337
0.290,0.059,0.266,-5.337
0.237,0.061,0.262,-5.337
0.161,0.061,0.258,-5.337
0.176,0.057,0.263,-5.337
0.208,0.060,0.269,-5.337
0.256,0.059,0.265,-5.337
0.248,0.059,0.258,-5.337
0.190,0.058,0.261,-5.337
0.179,0.060,0.264,-5.337
0.242,0.060,0.267,-5.337
0.264,0.064,0.267,-5.337
0.210,0.066,0.265,-5.337
0.187,0.064,0.263,-5.337
0.189,0.066,0.264,-5.337
0.221,0.068,0.266,-5.337
0.193,0.068,0.267,-5.337
0.197,0.065,0.268,-5.337
0.233,0.066,0.265,-5.337
0.203,0.066,0.261,-5.337
0.201,0.062,0.260,-5.337
0.224,0.061,0.264,-5.337
0.302,0.063,0.267,-5.337
0.284,0.063,0.267,-5.337
0.197,0.062,0.264,-5.337
0.213,0.058,0.263,-5.337
0.271,0.059,0.266,-5.337
0.275,0.063,0.270,-5.337
0.215,0.060,0.269,-5.337
0.190,0.058,0.270,-5.337
0.211,0.057,0.265,-5.337
0.224,0.056,0.263,-5.337
0.242,0.058,0.263,-5.337
0.232,0.062,0.263,-5.337
0.196,0.058,0.262,-5.337
0.247,0.060,0.267,-5.337
0.255,0.059,0.272,-5.337
0.187,0.062,0.272,-5.337
0.221,0.060,0.266,-5.337
0.223,0.060,0.264,-5.337
0.184,0.058,0.263,-5.337
0.198,0.060,0.263,-5.337
0.236,0.059,0.261,-5.337
0.254,0.059,0.266,-5.337
0.293,0.059,0.272,-5.337
0.260,0.062,0.271,-5.337
0.181,0.059,0.268,-5.337
0.221,0.055,0.268,-5.337
0.284,0.053,0.268,-5.337
0.276,0.054,0.265,-5.337
0.191,0.056,0.267,-5.337
0.103,0.058,0.267,-5.337
0.093,0.061,0.265,-5.337
0.144,0.059,0.263,-5.337
0.198,0.056,0.263,-5.337
0.271,0.054,0.263,-5.337
0.273,0.052,0.265,-5.337
0.267,0.050,0.258,-5.337
0.278,0.053,0.259,-5.337
0.266,0.057,0.263,-5.337
0.224,0.056,0.267,-5.337
0.281,0.053,0.272,-5.337
0.251,0.053,0.273,-5.337
0.190,0.051,0.271,-5.337
0.207,0.050,0.267,-5.337
0.261,0.052,0.264,-5.337
0.230,0.054,0.262,-5.337
0.182,0.055,0.262,-5.337
0.196,0.054,0.264,-5.337
0.250,0.053,0.269,-5.337
0.298,0.049,0.271,-5.337
0.268,0.051,0.271,-5.337
0.210,0.051,0.266,-5.337
0.193,0.056,0.265,-5.337
0.192,0.055,0.267,-5.337
0.214,0.055,0.268,-5.337
0.254,0.052,0.263,-5.337
0.256,0.053,0.264,-5.337
0.216,0.051,0.262,-5.337
0.275,0.051,0.261,-5.337
0.250,0.050,0.259,-5.337
0.210,0.050,0.260,-5.337
0.219,0.049,0.263,-5.337
0.270,0.046,0.262,-5.337
0.334,0.045,0.261,-5.337
0.269,0.049,0.265,-5.337
0.167,0.048,0.271,-5.337
0.168,0.044,0.268,-5.337
0.233,0.043,0.264,-5.337
0.265,0.048,0.261,-5.337
0.242,0.048,0.261,-5.337
0.248,0.045,0.264,-5.337
0.242,0.046,0.264,-5.337
0.216,0.048,0.262,-5.337
0.175,0.051,0.265,-5.337
0.177,0.049,0.268,-5.337
0.177,0.048,0.270,-5.337
0.207,0.047,0.265,-5.337
0.222,0.050,0.265,-5.337
0.231,0.047,0.264,-5.337
0.260,0.047,0.265,-5.337
0.294,0.043,0.262,-5.337
0.242,0.047,0.262,-5.337
0.110,0.047,0.262,-5.337
0.046,0.048,0.258,-5.337
0.073,0.049,0.257,-5.337
0.032,0.052,0.260,-5.337
0.058,0.050,0.264,-5.337
0.143,0.049,0.268,-5.337
0.300,0.046,0.267,-5.337
0.284,0.045,0.264,-5.337
0.210,0.045,0.265,-5.337
0.205,0.048,0.264,-5.337
0.245,0.046,0.266,-5.337
0.217,0.048,0.266,-5.337
0.184,0.045,0.265,-5.337
0.229,0.044,0.262,-5.337
0.225,0.046,0.264,-5.337
0.213,0.047,0.262,-5.337
0.144,0.048,0.261,-5.337
0.140,0.046,0.263,-5.337
0.154,0.044,0.263,-5.337
0.151,0.042,0.263,-5.337
0.193,0.042,0.267,-5.337
0.261,0.039,0.271,-5.337
0.236,0.044,0.271,-5.337
0.129,0.046,0.266,-5.337
0.092,0.044,0.265,-5.337
0.175,0.042,0.268,-5.337
0.258,0.041,0.266,-5.337
0.231,0.042,0.264,-5.337
0.202,0.042,0.267,-5.337
0.224,0.044,0.268,-5.337
0.199,0.044,0.264,-5.337
0.199,0.046,0.262,-5.337
0.209,0.044,0.258,-5.337
0.195,0.043,0.260,-5.337
0.164,0.042,0.263,-5.337
0.235,0.038,0.263,-5.337
0.196,0.042,0.259,-5.337
0.120,0.041,0.260,-5.337
0.129,0.038,0.261,-5.337
0.189,0.043,0.261,-5.337
0.264,0.040,0.263,-5.337
0.260,0.041,0.263,-5.337
0.223,0.041,0.265,-5.337
0.217,0.043,0.268,-5.337
0.196,0.040,0.268,-5.337
0.132,0.043,0.268,-5.337
0.141,0.039,0.264,-5.337
0.233,0.038,0.260,-5.337
0.183,0.041,0.265,-5.337
0.170,0.042,0.268,-5.337
0.156,0.039,0.265,-5.337
0.159,0.038,0.261,-5.337
0.125,0.038,0.262,-5.337
0.204,0.033,0.267,-5.337
0.262,0.034,0.267,-5.337
0.269,0.034,0.261,-5.337
0.249,0.036,0.257,-5.337
0.212,0.037,0.256,-5.337
0.171,0.041,0.260,-5.337
0.195,0.040,0.261,-5.337
0.152,0.041,0.262,-5.337
0.145,0.040,0.265,-5.337
0.183,0.039,0.268,-5.337
0.164,0.040,0.268,-5.337
0.114,0.039,0.262,-5.337
0.159,0.037,0.257,-5.337
0.200,0.039,0.258,-5.337
0.235,0.038,0.264,-5.337
0.191,0.037,0.268,-5.337
0.104,0.038,0.268,-5.337
0.128,0.035,0.265,-5.337
0.131,0.033,0.264,-5.337
0.159,0.034,0.263,-5.337
0.163,0.034,0.263,-5.337
0.129,0.034,0.260,-5.337
0.141,0.037,0.262,-5.337
0.184,0.039,0.263,-5.337
0.195,0.037,0.262,-5.337
0.174,0.036,0.262,-5.337
0.126,0.038,0.264,-5.337
0.119,0.034,0.264,-5.337
0.170,0.033,0.265,-5.337
0.184,0.033,0.265,-5.337
0.169,0.035,0.263,-5.337
0.222,0.030,0.261,-5.337
0.260,0.034,0.264,-5.337
0.267,0.033,0.264,-5.337
0.255,0.035,0.266,-5.337
0.252,0.034,0.269,-5.337
0.219,0.035,0.268,-5.337
0.154,0.038,0.263,-5.337
0.137,0.040,0.257,-5.337
0.200,0.039,0.254,-5.337
0.205,0.042,0.257,-5.337
0.178,0.042,0.264,-5.337
0.217,0.038,0.266,-5.337
0.171,0.035,0.267,-5.337
0.185,0.037,0.267,-5.337
0.201,0.032,0.266,-5.337
0.221,0.033,0.262,-5.337
0.191,0.036,0.259,-5.337
0.150,0.037,0.259,-5.337
0.128,0.039,0.263,-5.337
0.104,0.039,0.264,-5.337
0.099,0.035,0.266,-5.337
0.168,0.031,0.266,-5.337
0.214,0.032,0.262,-5.337
0.197,0.036,0.262,-5.337
0.124,0.041,0.262,-5.337
0.119,0.041,0.265,-5.337
0.125,0.037,0.268,-5.337
0.154,0.034,0.269,-5.337
0.203,0.033,0.266,-5.337
0.240,0.034,0.263,-5.337
0.225,0.032,0.264,-5.337
0.170,0.031,0.267,-5.337
0.155,0.036,0.264,-5.337
0.208,0.034,0.262,-5.337
0.197,0.034,0.257,-5.337
0.212,0.031,0.257,-5.337
0.226,0.029,0.260,-5.337
0.190,0.032,0.262,-5.337
0.170,0.032,0.262,-5.337
0.193,0.032,0.266,-5.337
0.173,0.032,0.265,-5.337
0.153,0.033,0.264,-5.337
0.174,0.028,0.264,-5.337
0.155,0.033,0.266,-5.337
0.111,0.034,0.265,-5.337
0.129,0.031,0.261,-5.337
0.166,0.033,0.257,-5.337
0.176,0.032,0.259,-5.337
0.050,0.033,0.262,-5.337
0.023,0.033,0.266,-5.337
0.106,0.029,0.265,-5.337
0.201,0.033,0.266,-5.337
0.214,0.034,0.268,-5.337
0.204,0.032,0.267,-5.337
0.135,0.036,0.264,-5.337
0.106,0.039,0.260,-5.337
0.141,0.036,0.261,-5.337
0.130,0.036,0.265,-5.337
0.134,0.037,0.268,-5.337
0.174,0.037,0.267,-5.337
0.255,0.033,0.265,-5.337
0.286,0.030,0.264,-5.337
0.221,0.031,0.264,-5.337
0.151,0.031,0.264,-5.337
0.154,0.032,0.263,-5.337
0.151,0.033,0.265,-5.337
0.167,0.032,0.268,-5.337
0.150,0.033,0.269,-5.337
0.166,0.034,0.270,-5.337
0.156,0.032,0.266,-5.337
0.136,0.034,0.261,-5.337
0.112,0.034,0.257,-5.337
0.114,0.034,0.255,-5.337
0.132,0.035,0.257,-5.337
0.149,0.034,0.262,-5.337
0.164,0.033,0.264,-5.337
0.161,0.032,0.262,-5.337
0.237,0.029,0.261,-5.337
0.221,0.033,0.263,-5.337
0.126,0.039,0.266,-5.337
0.121,0.035,0.267,-5.337
0.180,0.036,0.270,-5.337
0.188,0.036,0.269,-5.337
0.198,0.036,0.264,-5.337
0.191,0.033,0.265,-5.337
0.165,0.034,0.271,-5.337
0.157,0.032,0.273,-5.337
0.181,0.032,0.266,-5.337
0.205,0.034,0.258,-5.337
0.197,0.035,0.257,-5.337
0.206,0.035,0.258,-5.337
0.116,0.034,0.263,-5.337
0.106,0.032,0.267,-5.337
0.158,0.035,0.267,-5.337
0.205,0.032,0.264,-5.337
0.193,0.031,0.260,-5.337
0.118,0.034,0.259,-5.337
0.178,0.031,0.262,-5.337
0.193,0.031,0.265,-5.337
0.130,0.029,0.266,-5.337
0.133,0.031,0.267,-5.337
0.234,0.028,0.263,-5.337
0.253,0.029,0.261,-5.337
0.216,0.030,0.264,-5.337
0.231,0.031,0.268,-5.337
0.194,0.031,0.268,-5.337
0.082,0.034,0.265,-5.337
0.083,0.031,0.262,-5.337
0.177,0.034,0.264,-5.337
0.185,0.037,0.267,-5.337
0.157,0.038,0.269,-5.337
0.144,0.038,0.270,-5.337
0.134,0.036,0.270,-5.337
0.137,0.034,0.265,-5.337
0.150,0.034,0.259,-5.337
0.133,0.033,0.263,-5.337
0.117,0.032,0.266,-5.337
0.159,0.032,0.268,-5.337
0.209,0.033,0.266,-5.337
0.216,0.035,0.267,-5.337
0.233,0.030,0.266,-5.337
0.318,0.028,0.266,-5.337
0.271,0.033,0.270,-5.337
0.257,0.036,0.272,-5.337
0.225,0.037,0.266,-5.337
0.188,0.037,0.265,-5.337
0.168,0.038,0.266,-5.337
0.205,0.038,0.268,-5.337
0.241,0.036,0.269,-5.337
0.172,0.038,0.267,-5.337
0.096,0.036,0.263,-5.337
0.148,0.031,0.263,-5.337
0.185,0.031,0.264,-5.337
0.177,0.032,0.266,-5.337
0.163,0.032,0.267,-5.337
0.103,0.034,0.268,-5.337
0.133,0.036,0.269,-5.337
0.183,0.034,0.271,-5.337
0.193,0.035,0.272,-5.337
0.159,0.039,0.267,-5.337
0.144,0.036,0.263,-5.337
0.151,0.033,0.262,-5.337
0.164,0.035,0.265,-5.337
0.207,0.036,0.264,-5.337
0.218,0.035,0.266,-5.337
0.259,0.033,0.266,-5.337
0.268,0.034,0.265,-5.337
0.218,0.036,0.265,-5.337
0.212,0.036,0.265,-5.337
0.197,0.037,0.264,-5.337
0.169,0.043,0.267,-5.337
0.190,0.044,0.265,-5.337
0.191,0.046,0.265,-5.337
0.127,0.045,0.266,-5.337
0.047,0.043,0.265,-5.337
0.050,0.047,0.261,-5.337
0.121,0.047,0.262,-5.337
0.135,0.047,0.266,-5.337
0.197,0.046,0.265,-5.337
0.205,0.046,0.263,-5.337
0.183,0.048,0.265,-5.337
0.174,0.048,0.266,-5.337
0.179,0.046,0.263,-5.337
0.125,0.046,0.264,-5.337
0.177,0.043,0.265,-5.337
0.153,0.044,0.266,-5.337
0.111,0.048,0.265,-5.337
0.117,0.048,0.266,-5.337
0.167,0.045,0.266,-5.337
0.215,0.050,0.267,-5.337
0.190,0.050,0.268,-5.337
0.185,0.047,0.263,-5.337
0.247,0.041,0.260,-5.337
0.272,0.042,0.262,-5.337
0.284,0.043,0.264,-5.337
0.234,0.045,0.265,-5.337
0.213,0.044,0.264,-5.337
0.160,0.049,0.269,-5.337
0.181,0.049,0.268,-5.337
0.205,0.048,0.264,-5.337
0.123,0.050,0.262,-5.337
0.053,0.055,0.262,-5.337
0.100,0.053,0.263,-5.337
0.178,0.048,0.262,-5.337
0.212,0.042,0.264,-5.337
0.267,0.045,0.264,-5.337
0.221,0.048,0.262,-5.337
0.203,0.049,0.257,-5.337
0.230,0.050,0.260,-5.337
0.299,0.050,0.262,-5.337
0.286,0.052,0.267,-5.337
0.223,0.056,0.268,-5.337
0.175,0.053,0.262,-5.337
0.214,0.051,0.261,-5.337
0.182,0.053,0.264,-5.337
0.151,0.051,0.267,-5.337
0.201,0.050,0.266,-5.337
0.197,0.049,0.266,-5.337
0.164,0.050,0.267,-5.337
0.151,0.048,0.269,-5.337
0.167,0.051,0.269,-5.337
0.139,0.051,0.266,-5.337
0.191,0.052,0.265,-5.337
0.252,0.049,0.264,-5.337
0.258,0.048,0.265,-5.337
0.236,0.045,0.266,-5.337
0.173,0.050,0.263,-5.337
0.194,0.050,0.264,-5.337
0.225,0.052,0.264,-5.337
0.188,0.049,0.266,-5.337
0.158,0.050,0.267,-5.337
0.144,0.053,0.265,-5.337
0.182,0.049,0.262,-5.337
0.234,0.049,0.263,-5.337
0.211,0.052,0.264,-5.337
0.167,0.053,0.264,-5.337
0.202,0.048,0.266,-5.337
0.190,0.050,0.267,-5.337
0.220,0.046,0.266,-5.337
0.265,0.045,0.264,-5.337
0.239,0.047,0.266,-5.337
0.172,0.049,0.271,-5.337
0.159,0.047,0.269,-5.337
0.188,0.047,0.266,-5.337
0.200,0.050,0.264,-5.337
0.199,0.046,0.260,-5.337
0.177,0.044,0.260,-5.337
0.192,0.045,0.264,-5.337
0.197,0.049,0.267,-5.337
0.190,0.047,0.266,-5.337
0.168,0.047,0.262,-5.337
0.236,0.047,0.261,-5.337
0.253,0.049,0.263,-5.337
0.242,0.046,0.267,-5.337
0.234,0.045,0.270,-5.337
0.209,0.044,0.265,-5.337
0.235,0.043,0.260,-5.337
0.238,0.046,0.259,-5.337
0.241,0.047,0.264,-5.337
0.264,0.045,0.268,-5.337
0.280,0.046,0.270,-5.337
0.200,0.048,0.272,-5.337
0.146,0.049,0.269,-5.337
0.137,0.047,0.265,-5.337
0.134,0.051,0.262,-5.337
0.134,0.056,0.263,-5.337
0.092,0.052,0.261,-5.337
0.125,0.053,0.262,-5.337
0.136,0.052,0.264,-5.337
0.173,0.051,0.266,-5.337
0.175,0.052,0.262,-5.337
0.222,0.048,0.259,-5.337
0.308,0.042,0.258,-5.337
0.324,0.043,0.260,-5.337
0.259,0.047,0.263,-5.337
0.207,0.046,0.263,-5.337
0.192,0.044,0.263,-5.337
0.180,0.048,0.265,-5.337
0.195,0.049,0.266,-5.337
0.158,0.051,0.267,-5.337
0.162,0.050,0.265,-5.337
0.178,0.048,0.264,-5.337
0.170,0.051,0.264,-5.337
0.151,0.053,0.263,-5.337
0.165,0.051,0.266,-5.337
0.208,0.050,0.269,-5.337
0.235,0.051,0.268,-5.337
0.197,0.054,0.267,-5.337
0.157,0.053,0.267,-5.337
0.162,0.054,0.267,-5.337
0.168,0.055,0.268,-5.337
0.233,0.054,0.268,-5.337
0.234,0.053,0.269,-5.337
0.240,0.051,0.267,-5.337
0.203,0.054,0.265,-5.337
0.194,0.054,0.262,-5.337
0.215,0.053,0.263,-5.337
0.263,0.054,0.266,-5.337
0.253,0.054,0.263,-5.337
0.177,0.056,0.261,-5.337
0.114,0.057,0.261,-5.337
0.169,0.054,0.261,-5.337
0.247,0.050,0.262,-5.337
0.261,0.050,0.265,-5.337
0.238,0.054,0.265,-5.337
0.243,0.053,0.266,-5.337
0.228,0.051,0.267,-5.337
0.216,0.054,0.269,-5.337
0.218,0.054,0.270,-5.337
0.163,0.057,0.268,-5.337
0.137,0.060,0.265,-5.337
0.184,0.057,0.266,-5.337
0.222,0.053,0.264,-5.337
0.266,0.059,0.263,-5.337
0.231,0.060,0.264,-5.337
0.173,0.062,0.268,-5.337
0.180,0.059,0.269,-5.337
0.179,0.062,0.268,-5.337
0.169,0.061,0.265,-5.337
0.225,0.059,0.261,-5.337
0.290,0.055,0.258,-5.337
0.334,0.053,0.258,-5.337
0.241,0.056,0.265,-5.337
0.169,0.059,0.268,-5.337
0.144,0.059,0.267,-5.337
0.203,0.059,0.267,-5.337
0.243,0.059,0.268,-5.337
0.195,0.064,0.265,-5.337
0.155,0.062,0.262,-5.337
0.144,0.061,0.262,-5.337
0.224,0.058,0.265,-5.337
0.235,0.058,0.266,-5.337
0.267,0.056,0.268,-5.337
0.314,0.058,0.270,-5.337
0.324,0.059,0.269,-5.337
0.239,0.063,0.263,-5.337
0.203,0.060,0.260,-5.337
0.278,0.056,0.260,-5.337
0.288,0.058,0.262,-5.337
0.283,0.059,0.262,-5.337
0.221,0.060,0.266,-5.337
0.187,0.059,0.269,-5.337
0.178,0.056,0.267,-5.337
0.226,0.056,0.266,-5.337
0.230,0.061,0.268,-5.337
0.172,0.063,0.267,-5.337
0.185,0.060,0.265,-5.337
0.170,0.058,0.259,-5.337
0.186,0.056,0.258,-5.337
0.177,0.056,0.262,-5.337
0.188,0.055,0.262,-5.337
0.236,0.056,0.261,-5.337
0.234,0.057,0.263,-5.337
0.222,0.055,0.268,-5.337
0.226,0.052,0.269,-5.337
0.196,0.057,0.266,-5.337
0.195,0.056,0.262,-5.337
0.211,0.055,0.263,-5.337
0.211,0.056,0.265,-5.337
0.217,0.059,0.268,-5.337
0.240,0.056,0.271,-5.337
0.251,0.054,0.267,-5.337
0.264,0.054,0.262,-5.337
0.283,0.056,0.264,-5.337
0.248,0.053,0.267,-5.337
0.224,0.050,0.269,-5.337
0.289,0.049,0.267,-5.337
0.290,0.053,0.267,-5.337
0.210,0.057,0.267,-5.337
0.128,0.056,0.266,-5.337
0.144,0.056,0.263,-5.337
0.220,0.054,0.263,-5.337
0.275,0.051,0.268,-5.337
0.230,0.052,0.268,-5.337
0.256,0.050,0.268,-5.337
0.265,0.052,0.267,-5.337
0.226,0.053,0.269,-5.337
0.133,0.056,0.268,-5.337
0.127,0.059,0.269,-5.337
0.174,0.060,0.268,-5.337
0.189,0.057,0.266,-5.337
0.147,0.057,0.264,-5.337
0.156,0.058,0.266,-5.337
0.177,0.060,0.267,-5.337
0.229,0.058,0.266,-5.337
0.251,0.053,0.265,-5.337
0.293,0.054,0.265,-5.337
0.262,0.056,0.266,-5.337
0.205,0.058,0.266,-5.337
0.178,0.061,0.265,-5.337
0.178,0.063,0.264,-5.337
0.176,0.064,0.265,-5.337
0.271,0.055,0.265,-5.337
0.311,0.054,0.264,-5.337
0.265,0.054,0.267,-5.337
0.209,0.056,0.269,-5.337
0.228,0.053,0.269,-5.337
0.256,0.052,0.271,-5.337
0.211,0.051,0.269,-5.337
0.283,0.049,0.266,-5.337
0.246,0.048,0.265,-5.337
0.219,0.052,0.265,-5.337
0.193,0.054,0.264,-5.337
0.202,0.055,0.265,-5.337
0.250,0.053,0.270,-5.337
0.222,0.051,0.272,-5.337
0.169,0.051,0.269,-5.337
0.178,0.053,0.266,-5.337
0.194,0.053,0.266,-5.337
0.187,0.055,0.268,-5.337
0.244,0.053,0.270,-5.337
0.233,0.053,0.267,-5.337
0.195,0.053,0.265,-5.337
0.188,0.053,0.266,-5.337
0.284,0.050,0.268,-5.337
0.334,0.053,0.268,-5.337
0.280,0.058,0.269,-5.337
0.206,0.061,0.268,-5.337
0.171,0.059,0.269,-5.337
0.198,0.056,0.270,-5.337
0.261,0.056,0.270,-5.337
0.149,0.060,0.269,-5.337
0.079,0.054,0.269,-5.337
0.155,0.054,0.270,-5.337
0.118,0.059,0.272,-5.337
0.075,0.056,0.272,-5.337
0.098,0.054,0.269,-5.337
0.125,0.054,0.267,-5.337
0.166,0.056,0.267,-5.337
0.210,0.053,0.267,-5.337
0.162,0.051,0.270,-5.337
0.153,0.051,0.272,-5.337
0.184,0.048,0.270,-5.337
0.221,0.049,0.268,-5.337
0.255,0.048,0.267,-5.337
0.221,0.047,0.268,-5.337
0.170,0.046,0.270,-5.337
0.232,0.045,0.273,-5.337
0.300,0.045,0.267,-5.337
0.214,0.047,0.264,-5.337
0.169,0.048,0.265,-5.337
0.168,0.050,0.268,-5.337
0.157,0.050,0.266,-5.337
0.177,0.050,0.264,-5.337
0.193,0.047,0.266,-5.337
0.141,0.049,0.269,-5.337
0.106,0.046,0.268,-5.337
0.107,0.049,0.265,-5.337
0.178,0.046,0.263,-5.337
0.238,0.038,0.266,-5.337
0.285,0.039,0.267,-5.337
0.237,0.043,0.267,-5.337
0.214,0.040,0.268,-5.337
0.250,0.039,0.271,-5.337
0.303,0.042,0.271,-5.337
0.273,0.046,0.268,-5.337
0.197,0.047,0.265,-5.337
0.148,0.050,0.263,-5.337
0.173,0.047,0.266,-5.337
0.207,0.048,0.266,-5.337
0.215,0.047,0.268,-5.337
0.213,0.048,0.270,-5.337
0.212,0.049,0.272,-5.337
0.212,0.048,0.271,-5.337
0.187,0.046,0.268,-5.337
0.197,0.043,0.267,-5.337
0.132,0.049,0.268,-5.337
0.028,0.051,0.269,-5.337
0.081,0.048,0.267,-5.337
0.215,0.046,0.268,-5.337
0.254,0.046,0.266,-5.337
0.186,0.048,0.263,-5.337
0.123,0.049,0.263,-5.337
0.110,0.047,0.263,-5.337
0.162,0.046,0.261,-5.337
0.154,0.048,0.259,-5.337
0.145,0.047,0.261,-5.337
0.175,0.043,0.268,-5.337
0.198,0.044,0.273,-5.337
0.153,0.045,0.270,-5.337
0.136,0.044,0.265,-5.337
0.190,0.044,0.267,-5.337
0.168,0.046,0.270,-5.337
0.089,0.046,0.271,-5.337
0.087,0.048,0.265,-5.337
0.185,0.046,0.267,-5.337
0.230,0.045,0.268,-5.337
0.193,0.046,0.267,-5.337
0.141,0.045,0.267,-5.337
0.202,0.044,0.268,-5.337
0.244,0.043,0.268,-5.337
0.184,0.044,0.267,-5.337
0.171,0.045,0.267,-5.337
0.196,0.044,0.268,-5.337
0.219,0.042,0.269,-5.337
0.159,0.041,0.266,-5.337
0.181,0.042,0.263,-5.337
0.179,0.046,0.262,-5.337
0.147,0.042,0.263,-5.337
0.162,0.039,0.264,-5.337
0.210,0.041,0.267,-5.337
0.193,0.042,0.268,-5.337
0.132,0.044,0.264,-5.337
0.155,0.041,0.261,-5.337
0.203,0.039,0.266,-5.337
0.216,0.039,0.272,-5.337
0.193,0.039,0.273,-5.337
0.197,0.034,0.272,-5.337
0.177,0.034,0.269,-5.337
0.215,0.031,0.267,-5.337
0.230,0.031,0.267,-5.337
0.194,0.033,0.265,-5.337
0.215,0.034,0.264,-5.337
0.208,0.037,0.263,-5.337
0.255,0.039,0.265,-5.337
0.233,0.041,0.268,-5.337
0.201,0.037,0.271,-5.337
0.194,0.036,0.269,-5.337
0.179,0.040,0.266,-5.337
0.183,0.036,0.265,-5.337
0.206,0.036,0.260,-5.337
0.128,0.039,0.259,-5.337
0.138,0.035,0.258,-5.337
0.206,0.036,0.262,-5.337
0.243,0.037,0.264,-5.337
0.247,0.036,0.264,-5.337
0.152,0.036,0.264,-5.337
0.076,0.038,0.263,-5.337
0.109,0.038,0.262,-5.337
0.191,0.039,0.262,-5.337
0.213,0.035,0.262,-5.337
0.226,0.034,0.263,-5.337
0.223,0.035,0.266,-5.337
0.221,0.038,0.267,-5.337
0.166,0.036,0.269,-5.337
0.121,0.034,0.269,-5.337
0.115,0.034,0.266,-5.337
0.134,0.034,0.266,-5.337
0.124,0.038,0.269,-5.337
0.171,0.036,0.270,-5.337
0.168,0.035,0.264,-5.337
0.197,0.034,0.265,-5.337
0.157,0.034,0.269,-5.337
0.150,0.037,0.267,-5.337
0.169,0.035,0.263,-5.337
0.229,0.033,0.262,-5.337
0.203,0.036,0.266,-5.337
0.165,0.037,0.267,-5.337
0.116,0.036,0.267,-5.337
0.122,0.036,0.264,-5.337
0.166,0.037,0.262,-5.337
0.219,0.033,0.264,-5.337
0.304,0.033,0.265,-5.337
0.230,0.034,0.267,-5.337
0.181,0.034,0.265,-5.337
0.202,0.033,0.262,-5.337
0.225,0.033,0.264,-5.337
0.191,0.036,0.266,-5.337
0.116,0.037,0.267,-5.337
0.120,0.036,0.271,-5.337
0.079,0.038,0.271,-5.337
0.107,0.035,0.264,-5.337
0.143,0.033,0.261,-5.337
0.215,0.029,0.265,-5.337
0.237,0.034,0.267,-5.337
0.155,0.037,0.267,-5.337
0.152,0.035,0.268,-5.337
0.196,0.034,0.266,-5.337
0.102,0.034,0.263,-5.337
0.111,0.035,0.263,-5.337
0.187,0.031,0.262,-5.337
0.219,0.032,0.264,-5.337
0.200,0.031,0.268,-5.337
0.230,0.033,0.270,-5.337
0.183,0.037,0.272,-5.337
0.143,0.036,0.268,-5.337
0.143,0.036,0.262,-5.337
0.127,0.037,0.263,-5.337
0.094,0.035,0.264,-5.337
0.140,0.034,0.267,-5.337
0.178,0.036,0.271,-5.337
0.252,0.036,0.270,-5.337
0.276,0.036,0.270,-5.337
0.228,0.036,0.268,-5.337
0.242,0.031,0.264,-5.337
0.238,0.034,0.262,-5.337
0.172,0.041,0.268,-5.337
0.069,0.042,0.268,-5.337
0.091,0.036,0.266,-5.337
0.157,0.032,0.263,-5.337
0.177,0.037,0.265,-5.337
0.147,0.038,0.263,-5.337
0.142,0.037,0.263,-5.337
0.138,0.036,0.267,-5.337
0.180,0.036,0.273,-5.337
0.149,0.035,0.270,-5.337
0.151,0.034,0.266,-5.337
0.225,0.032,0.267,-5.337
0.273,0.033,0.266,-5.337
0.237,0.033,0.265,-5.337
0.228,0.033,0.265,-5.337
0.234,0.037,0.265,-5.337
0.199,0.038,0.264,-5.337
0.250,0.033,0.264,-5.337
0.233,0.037,0.265,-5.337
0.249,0.034,0.262,-5.337
0.206,0.035,0.258,-5.337
0.165,0.040,0.259,-5.337
0.159,0.039,0.266,-5.337
0.143,0.040,0.272,-5.337
0.102,0.042,0.269,-5.337
0.083,0.043,0.265,-5.337
0.110,0.041,0.265,-5.337
0.209,0.034,0.266,-5.337
0.253,0.032,0.264,-5.337
0.202,0.032,0.263,-5.337
0.187,0.034,0.260,-5.337
0.177,0.034,0.262,-5.337
0.177,0.035,0.268,-5.337
0.197,0.037,0.272,-5.337
0.207,0.035,0.270,-5.337
0.154,0.035,0.266,-5.337
0.128,0.033,0.263,-5.337
0.159,0.035,0.262,-5.337
0.121,0.041,0.260,-5.337
0.162,0.038,0.262,-5.337
0.192,0.037,0.267,-5.337
0.191,0.037,0.267,-5.337
0.200,0.039,0.264,-5.337
0.210,0.036,0.261,-5.337
0.176,0.035,0.263,-5.337
0.148,0.038,0.264,-5.337
0.167,0.038,0.268,-5.337
0.193,0.035,0.267,-5.337
0.191,0.037,0.267,-5.337
0.179,0.037,0.265,-5.337
0.180,0.039,0.268,-5.337
0.160,0.040,0.270,-5.337
0.183,0.039,0.268,-5.337
0.187,0.035,0.264,-5.337
0.162,0.038,0.261,-5.337
0.171,0.034,0.264,-5.337
0.167,0.038,0.265,-5.337
0.153,0.039,0.265,-5.337
0.092,0.042,0.266,-5.337
0.136,0.041,0.268,-5.337
0.155,0.036,0.271,-5.337
0.163,0.030,0.269,-5.337
0.183,0.034,0.267,-5.337
0.180,0.035,0.263,-5.337
0.210,0.037,0.258,-5.337
0.211,0.036,0.260,-5.337
0.274,0.032,0.264,-5.337
0.290,0.033,0.271,-5.337
0.232,0.038,0.269,-5.337
0.136,0.038,0.266,-5.337
0.155,0.037,0.264,-5.337
0.209,0.036,0.262,-5.337
0.247,0.038,0.263,-5.337
0.237,0.041,0.268,-5.337
0.164,0.039,0.270,-5.337
0.161,0.043,0.268,-5.337
0.212,0.043,0.270,-5.337
0.195,0.040,0.270,-5.337
0.205,0.040,0.269,-5.337
0.247,0.042,0.269,-5.337
0.180,0.042,0.267,-5.337
0.151,0.041,0.263,-5.337
0.200,0.041,0.263,-5.337
0.219,0.042,0.268,-5.337
0.183,0.042,0.270,-5.337
0.150,0.042,0.269,-5.337
0.153,0.039,0.269,-5.337
0.140,0.039,0.265,-5.337
0.150,0.041,0.266,-5.337
0.137,0.043,0.263,-5.337
0.098,0.043,0.262,-5.337
0.100,0.041,0.264,-5.337
0.168,0.040,0.270,-5.337
0.227,0.034,0.274,-5.337
0.242,0.039,0.271,-5.337
0.170,0.044,0.266,-5.337
0.213,0.038,0.263,-5.337
0.244,0.037,0.266,-5.337
0.241,0.040,0.270,-5.337
0.254,0.043,0.274,-5.337
0.174,0.040,0.274,-5.337
0.160,0.038,0.269,-5.337
0.258,0.037,0.266,-5.337
0.392,0.039,0.265,-5.337
0.332,0.043,0.267,-5.337
0.231,0.041,0.268,-5.337
0.167,0.040,0.267,-5.337
0.127,0.042,0.269,-5.337
0.156,0.043,0.269,-5.337
0.160,0.044,0.270,-5.337
0.135,0.044,0.269,-5.337
0.074,0.050,0.271,-5.337
0.077,0.047,0.268,-5.337
0.111,0.047,0.264,-5.337
0.152,0.049,0.259,-5.337
0.191,0.050,0.262,-5.337
0.241,0.044,0.264,-5.337
0.214,0.047,0.265,-5.337
0.130,0.052,0.267,-5.337
0.082,0.053,0.269,-5.337
0.160,0.048,0.270,-5.337
0.292,0.042,0.272,-5.337
0.312,0.043,0.269,-5.337
0.241,0.044,0.268,-5.337
0.155,0.046,0.268,-5.337
0.236,0.044,0.270,-5.337
0.325,0.042,0.269,-5.337
0.292,0.042,0.266,-5.337
0.277,0.041,0.264,-5.337
0.245,0.044,0.265,-5.337
0.220,0.043,0.266,-5.337
0.180,0.044,0.265,-5.337
0.081,0.045,0.270,-5.337
0.105,0.045,0.269,-5.337
0.102,0.045,0.263,-5.337
0.108,0.045,0.261,-5.337
0.122,0.045,0.267,-5.337
0.170,0.045,0.269,-5.337
0.178,0.046,0.268,-5.337
0.150,0.050,0.269,-5.337
0.117,0.051,0.269,-5.337
0.156,0.048,0.266,-5.337
0.229,0.046,0.263,-5.337
0.256,0.048,0.265,-5.337
0.203,0.047,0.268,-5.337
0.190,0.049,0.265,-5.337
0.146,0.048,0.264,-5.337
0.156,0.049,0.266,-5.337
0.242,0.051,0.268,-5.337
0.279,0.050,0.263,-5.337
0.235,0.050,0.261,-5.337
0.186,0.053,0.269,-5.337
0.157,0.053,0.272,-5.337
0.149,0.050,0.268,-5.337
0.174,0.047,0.266,-5.337
0.248,0.046,0.267,-5.337
0.273,0.045,0.267,-5.337
0.279,0.045,0.265,-5.337
0.245,0.050,0.264,-5.337
0.179,0.052,0.264,-5.337
0.175,0.050,0.267,-5.337
0.207,0.046,0.265,-5.337
0.291,0.043,0.262,-5.337
0.220,0.049,0.261,-5.337
0.151,0.047,0.264,-5.337
0.197,0.040,0.266,-5.337
0.266,0.041,0.264,-5.337
0.242,0.045,0.264,-5.337
0.169,0.050,0.265,-5.337
0.194,0.051,0.264,-5.337
0.203,0.048,0.264,-5.337
0.198,0.044,0.265,-5.337
0.257,0.048,0.266,-5.337
0.205,0.055,0.262,-5.337
0.209,0.052,0.263,-5.337
0.253,0.050,0.269,-5.337
0.247,0.053,0.269,-5.337
0.238,0.053,0.265,-5.337
0.179,0.054,0.265,-5.337
0.158,0.055,0.265,-5.337
0.152,0.058,0.263,-5.337
0.193,0.057,0.265,-5.337
0.180,0.054,0.271,-5.337
0.142,0.050,0.270,-5.337
0.092,0.051,0.266,-5.337
0.077,0.055,0.265,-5.337
0.045,0.056,0.265,-5.337
0.075,0.054,0.267,-5.337
0.176,0.049,0.267,-5.337
0.264,0.049,0.265,-5.337
0.206,0.051,0.263,-5.337
0.188,0.052,0.263,-5.337
0.217,0.053,0.263,-5.337
0.252,0.051,0.265,-5.337
0.288,0.049,0.262,-5.337
0.285,0.048,0.263,-5.337
0.247,0.052,0.263,-5.337
0.208,0.055,0.266,-5.337
0.182,0.055,0.269,-5.337
0.172,0.059,0.271,-5.337
0.170,0.058,0.271,-5.337
0.209,0.054,0.270,-5.337
0.269,0.053,0.268,-5.337
0.309,0.055,0.266,-5.337
0.314,0.055,0.261,-5.337
0.219,0.059,0.257,-5.337
0.164,0.059,0.255,-5.337
0.210,0.058,0.257,-5.337
0.192,0.059,0.260,-5.337
0.202,0.057,0.264,-5.337
0.237,0.053,0.269,-5.337
0.261,0.053,0.272,-5.337
0.248,0.055,0.271,-5.337
0.273,0.057,0.268,-5.337
0.278,0.058,0.270,-5.337
0.202,0.056,0.268,-5.337
0.144,0.058,0.264,-5.337
0.190,0.055,0.259,-5.337
0.234,0.053,0.261,-5.337
0.191,0.056,0.265,-5.337
0.156,0.058,0.270,-5.337
0.173,0.055,0.270,-5.337
0.215,0.054,0.267,-5.337
0.236,0.051,0.265,-5.337
0.182,0.053,0.264,-5.337
0.126,0.054,0.265,-5.337
0.190,0.054,0.265,-5.337
0.233,0.054,0.265,-5.337
0.264,0.053,0.264,-5.337
0.242,0.054,0.264,-5.337
0.182,0.057,0.266,-5.337
0.170,0.058,0.265,-5.337
0.189,0.058,0.261,-5.337
0.242,0.053,0.260,-5.337
0.293,0.054,0.262,-5.337
0.235,0.056,0.269,-5.337
0.208,0.054,0.268,-5.337
0.262,0.053,0.264,-5.337
0.308,0.052,0.261,-5.337
0.331,0.053,0.265,-5.337
0.273,0.055,0.266,-5.337
0.199,0.060,0.265,-5.337
0.129,0.057,0.266,-5.337
0.157,0.054,0.269,-5.337
0.189,0.052,0.270,-5.337
0.239,0.055,0.267,-5.337
0.226,0.057,0.263,-5.337
0.217,0.058,0.263,-5.337
0.227,0.054,0.263,-5.337
0.235,0.060,0.263,-5.337
0.221,0.059,0.264,-5.337
0.271,0.056,0.265,-5.337
0.248,0.057,0.264,-5.337
0.209,0.062,0.260,-5.337
0.166,0.063,0.262,-5.337
0.155,0.063,0.263,-5.337
0.205,0.060,0.265,-5.337
0.240,0.058,0.269,-5.337
0.231,0.059,0.271,-5.337
0.186,0.064,0.273,-5.337
0.195,0.067,0.275,-5.337
0.206,0.063,0.268,-5.337
0.202,0.062,0.261,-5.337
0.193,0.063,0.258,-5.337
0.234,0.065,0.262,-5.337
0.310,0.061,0.264,-5.337
0.280,0.058,0.262,-5.337
0.260,0.059,0.258,-5.337
0.246,0.063,0.259,-5.337
0.213,0.060,0.265,-5.337
0.268,0.056,0.271,-5.337
0.269,0.056,0.269,-5.337
0.212,0.055,0.268,-5.337
0.172,0.056,0.267,-5.337
0.160,0.057,0.265,-5.337
0.108,0.057,0.264,-5.337
0.095,0.061,0.264,-5.337
0.189,0.059,0.261,-5.337
0.222,0.061,0.261,-5.337
0.166,0.062,0.266,-5.337
0.209,0.058,0.269,-5.337
0.202,0.057,0.268,-5.337
0.224,0.057,0.265,-5.337
0.250,0.060,0.267,-5.337
0.244,0.058,0.266,-5.337
0.250,0.055,0.267,-5.337
0.293,0.053,0.266,-5.337
0.244,0.056,0.266,-5.337
0.170,0.054,0.267,-5.337
0.170,0.056,0.270,-5.337
0.176,0.054,0.268,-5.337
0.136,0.056,0.264,-5.337
0.102,0.058,0.260,-5.337
0.149,0.058,0.263,-5.337
0.145,0.057,0.268,-5.337
0.118,0.057,0.268,-5.337
0.173,0.058,0.262,-5.337
0.211,0.059,0.259,-5.337
0.265,0.057,0.263,-5.337
0.185,0.060,0.267,-5.337
0.189,0.057,0.269,-5.337
0.307,0.053,0.266,-5.337
0.331,0.050,0.267,-5.337
0.243,0.054,0.266,-5.337
0.157,0.054,0.267,-5.337
0.255,0.053,0.268,-5.337
0.305,0.052,0.269,-5.337
0.315,0.047,0.263,-5.337
0.305,0.049,0.262,-5.337
0.305,0.050,0.262,-5.337
0.326,0.049,0.265,-5.337
0.357,0.046,0.268,-5.337
0.342,0.046,0.268,-5.337
0.248,0.048,0.264,-5.337
0.190,0.049,0.265,-5.337
0.177,0.048,0.267,-5.337
0.212,0.048,0.269,-5.337
0.183,0.048,0.264,-5.337
0.117,0.053,0.261,-5.337
0.066,0.054,0.260,-5.337
0.116,0.053,0.264,-5.337
0.157,0.051,0.272,-5.337
0.198,0.051,0.274,-5.337
0.183,0.055,0.272,-5.337
0.199,0.052,0.266,-5.337
0.202,0.050,0.263,-5.337
0.210,0.045,0.263,-5.337
0.172,0.051,0.263,-5.337
0.149,0.050,0.266,-5.337
0.203,0.046,0.272,-5.337
0.194,0.044,0.274,-5.337
0.139,0.047,0.270,-5.337
0.140,0.049,0.266,-5.337
0.181,0.049,0.264,-5.337
0.258,0.045,0.262,-5.337
0.260,0.044,0.262,-5.337
0.205,0.045,0.265,-5.337
0.240,0.046,0.268,-5.337
0.234,0.048,0.268,-5.337
0.234,0.051,0.267,-5.337
0.265,0.048,0.267,-5.337
0.226,0.047,0.268,-5.337
0.190,0.048,0.268,-5.337
0.198,0.048,0.267,-5.337
0.151,0.048,0.269,-5.337
0.166,0.045,0.268,-5.337
0.207,0.047,0.267,-5.337
0.276,0.046,0.266,-5.337
0.287,0.048,0.266,-5.337
0.256,0.045,0.268,-5.337
0.264,0.041,0.271,-5.337
0.297,0.039,0.272,-5.337
0.261,0.040,0.271,-5.337
0.290,0.037,0.268,-5.337
0.286,0.039,0.269,-5.337
0.185,0.040,0.269,-5.337
0.131,0.041,0.268,-5.337
0.148,0.042,0.269,-5.337
0.137,0.043,0.264,-5.337
0.153,0.044,0.262,-5.337
0.252,0.047,0.267,-5.337
0.230,0.047,0.269,-5.337
0.174,0.041,0.269,-5.337
0.147,0.040,0.271,-5.337
0.127,0.041,0.267,-5.337
0.178,0.040,0.268,-5.337
0.167,0.043,0.269,-5.337
0.166,0.044,0.269,-5.337
0.208,0.044,0.271,-5.337
0.268,0.040,0.273,-5.337
0.245,0.041,0.272,-5.337
0.218,0.041,0.271,-5.337
0.277,0.041,0.268,-5.337
0.292,0.042,0.266,-5.337
0.275,0.042,0.265,-5.337
0.224,0.042,0.265,-5.337
0.152,0.039,0.265,-5.337
0.148,0.041,0.265,-5.337
0.066,0.041,0.266,-5.337
0.116,0.038,0.269,-5.337
0.195,0.036,0.270,-5.337
0.122,0.038,0.270,-5.337
0.156,0.037,0.272,-5.337
0.249,0.036,0.271,-5.337
0.226,0.036,0.270,-5.337
0.197,0.032,0.267,-5.337
0.223,0.034,0.268,-5.337
0.275,0.035,0.267,-5.337
0.202,0.040,0.266,-5.337
0.133,0.041,0.265,-5.337
0.167,0.039,0.265,-5.337
0.139,0.041,0.263,-5.337
0.022,0.047,0.264,-5.337
0.003,0.047,0.267,-5.337
0.103,0.044,0.269,-5.337
0.151,0.042,0.269,-5.337
0.125,0.043,0.271,-5.337
0.126,0.043,0.268,-5.337
0.147,0.041,0.267,-5.337
0.149,0.038,0.272,-5.337
0.134,0.037,0.273,-5.337
0.190,0.033,0.269,-5.337
0.234,0.035,0.266,-5.337
0.245,0.034,0.265,-5.337
0.188,0.037,0.266,-5.337
0.171,0.040,0.267,-5.337
0.242,0.039,0.269,-5.337
0.267,0.039,0.271,-5.337
0.256,0.042,0.271,-5.337
0.206,0.041,0.268,-5.337
0.162,0.038,0.263,-5.337
0.204,0.037,0.263,-5.337
0.254,0.038,0.265,-5.337
0.223,0.042,0.266,-5.337
0.180,0.040,0.265,-5.337
0.190,0.038,0.267,-5.337
0.155,0.037,0.266,-5.337
0.187,0.039,0.267,-5.337
0.172,0.033,0.269,-5.337
0.163,0.031,0.267,-5.337
0.139,0.031,0.263,-5.337
0.115,0.031,0.263,-5.337
0.117,0.032,0.263,-5.337
0.111,0.034,0.265,-5.337
0.136,0.034,0.268,-5.337
0.162,0.036,0.266,-5.337
0.167,0.037,0.261,-5.337
0.167,0.035,0.264,-5.337
0.233,0.033,0.267,-5.337
0.253,0.034,0.265,-5.337
0.282,0.034,0.266,-5.337
0.239,0.036,0.265,-5.337
0.169,0.035,0.266,-5.337
0.216,0.033,0.266,-5.337
0.242,0.034,0.267,-5.337
0.208,0.036,0.265,-5.337
0.251,0.037,0.268,-5.337
0.242,0.037,0.271,-5.337
0.210,0.037,0.271,-5.337
0.198,0.034,0.268,-5.337
0.134,0.036,0.267,-5.337
0.127,0.036,0.267,-5.337
0.155,0.038,0.267,-5.337
0.206,0.035,0.265,-5.337
0.198,0.033,0.265,-5.337
0.196,0.035,0.265,-5.337
0.186,0.037,0.263,-5.337
0.194,0.038,0.262,-5.337
0.171,0.040,0.262,-5.337
0.125,0.038,0.262,-5.337
0.131,0.039,0.265,-5.337
0.112,0.040,0.267,-5.337
0.117,0.035,0.265,-5.337
0.128,0.036,0.264,-5.337
0.112,0.036,0.265,-5.337
0.099,0.037,0.271,-5.337
0.199,0.037,0.271,-5.337
0.268,0.037,0.266,-5.337
0.160,0.034,0.264,-5.337
0.113,0.030,0.265,-5.337
0.177,0.028,0.263,-5.337
0.268,0.031,0.265,-5.337
0.211,0.035,0.268,-5.337
0.123,0.038,0.268,-5.337
0.099,0.038,0.269,-5.337
0.178,0.035,0.268,-5.337
0.242,0.034,0.267,-5.337
0.242,0.038,0.265,-5.337
0.180,0.040,0.265,-5.337
0.132,0.040,0.264,-5.337
0.100,0.042,0.266,-5.337
0.182,0.041,0.267,-5.337
0.218,0.038,0.267,-5.337
0.161,0.036,0.264,-5.337
0.106,0.039,0.265,-5.337
0.095,0.041,0.267,-5.337
0.125,0.039,0.268,-5.337
0.155,0.034,0.266,-5.337
0.194,0.035,0.267,-5.337
0.173,0.037,0.267,-5.337
0.190,0.040,0.268,-5.337
0.195,0.039,0.264,-5.337
0.148,0.043,0.265,-5.337
0.231,0.039,0.269,-5.337
0.254,0.036,0.268,-5.337
0.212,0.040,0.262,-5.337
0.257,0.040,0.259,-5.337
0.278,0.037,0.260,-5.337
0.193,0.035,0.258,-5.337
0.124,0.034,0.264,-5.337
0.108,0.035,0.268,-5.337
0.128,0.034,0.271,-5.337
0.181,0.034,0.270,-5.337
0.203,0.029,0.271,-5.337
0.209,0.034,0.269,-5.337
0.159,0.039,0.266,-5.337
0.106,0.039,0.264,-5.337
0.102,0.036,0.267,-5.337
0.144,0.037,0.267,-5.337
0.131,0.038,0.264,-5.337
0.133,0.036,0.263,-5.337
0.121,0.036,0.262,-5.337
0.120,0.034,0.263,-5.337
0.124,0.036,0.266,-5.337
0.147,0.035,0.267,-5.337
0.205,0.031,0.264,-5.337
0.217,0.031,0.265,-5.337
0.176,0.029,0.267,-5.337
0.197,0.031,0.268,-5.337
0.171,0.035,0.266,-5.337
0.189,0.033,0.264,-5.337
0.219,0.033,0.264,-5.337
0.179,0.034,0.265,-5.337
0.195,0.033,0.264,-5.337
0.211,0.036,0.266,-5.337
0.177,0.039,0.266,-5.337
0.144,0.039,0.266,-5.337
0.194,0.038,0.264,-5.337
0.169,0.035,0.264,-5.337
0.088,0.033,0.265,-5.337
0.131,0.032,0.266,-5.337
0.211,0.031,0.266,-5.337
0.210,0.032,0.264,-5.337
0.210,0.031,0.262,-5.337
0.178,0.031,0.265,-5.337
0.165,0.033,0.267,-5.337
0.136,0.032,0.270,-5.337
0.220,0.029,0.271,-5.337
0.215,0.032,0.271,-5.337
0.154,0.033,0.267,-5.337
0.175,0.031,0.265,-5.337
0.155,0.027,0.262,-5.337
0.076,0.029,0.261,-5.337
0.116,0.026,0.262,-5.337
0.197,0.026,0.262,-5.337
0.180,0.027,0.264,-5.337
0.138,0.030,0.261,-5.337
0.146,0.031,0.259,-5.337
0.149,0.029,0.262,-5.337
0.176,0.029,0.266,-5.337
0.194,0.031,0.266,-5.337
0.152,0.035,0.268,-5.337
0.142,0.033,0.267,-5.337
0.213,0.026,0.267,-5.337
0.249,0.024,0.267,-5.337
0.211,0.026,0.262,-5.337
0.113,0.028,0.261,-5.337
0.072,0.030,0.264,-5.337
0.138,0.028,0.266,-5.337
0.168,0.030,0.266,-5.337
0.192,0.031,0.266,-5.337
0.158,0.030,0.265,-5.337
0.131,0.029,0.266,-5.337
0.136,0.030,0.267,-5.337
0.161,0.030,0.268,-5.337
0.187,0.033,0.267,-5.337
0.142,0.034,0.263,-5.337
0.088,0.037,0.259,-5.337
0.052,0.035,0.260,-5.337
0.135,0.033,0.261,-5.337
0.194,0.036,0.259,-5.337
0.205,0.037,0.259,-5.337
0.268,0.034,0.261,-5.337
0.227,0.035,0.264,-5.337
0.141,0.037,0.270,-5.337
0.150,0.038,0.269,-5.337
0.192,0.037,0.264,-5.337
0.183,0.034,0.262,-5.337
0.162,0.036,0.268,-5.337
0.182,0.035,0.270,-5.337
0.189,0.036,0.269,-5.337
0.190,0.038,0.267,-5.337
0.188,0.038,0.266,-5.337
0.203,0.038,0.264,-5.337
0.148,0.037,0.264,-5.337
0.151,0.036,0.268,-5.337
0.191,0.037,0.266,-5.337
0.211,0.037,0.263,-5.337
0.181,0.039,0.263,-5.337
0.171,0.043,0.265,-5.337
0.196,0.042,0.261,-5.337
0.171,0.038,0.261,-5.337
0.117,0.038,0.265,-5.337
0.122,0.039,0.270,-5.337
0.131,0.039,0.268,-5.337
0.175,0.040,0.265,-5.337
0.226,0.039,0.264,-5.337
0.173,0.040,0.267,-5.337
0.183,0.039,0.266,-5.337
0.201,0.037,0.260,-5.337
0.182,0.039,0.259,-5.337
0.119,0.040,0.261,-5.337
0.098,0.043,0.257,-5.337
0.174,0.043,0.260,-5.337
0.194,0.042,0.265,-5.337
0.173,0.042,0.266,-5.337
0.176,0.041,0.268,-5.337
0.256,0.038,0.266,-5.337
0.277,0.040,0.265,-5.337
0.209,0.040,0.268,-5.337
0.205,0.037,0.268,-5.337
0.240,0.039,0.267,-5.337
0.195,0.046,0.265,-5.337
0.141,0.046,0.264,-5.337
0.140,0.046,0.267,-5.337
0.139,0.042,0.264,-5.337
0.202,0.042,0.262,-5.337
0.264,0.045,0.266,-5.337
0.220,0.046,0.268,-5.337
0.215,0.044,0.268,-5.337
0.180,0.047,0.269,-5.337
0.143,0.048,0.269,-5.337
0.077,0.050,0.268,-5.337
0.097,0.044,0.268,-5.337
0.205,0.041,0.268,-5.337
0.276,0.040,0.270,-5.337
0.238,0.043,0.270,-5.337
0.172,0.044,0.267,-5.337
0.138,0.047,0.261,-5.337
0.126,0.047,0.261,-5.337
0.135,0.046,0.265,-5.337
0.166,0.045,0.269,-5.337
0.146,0.044,0.269,-5.337
0.170,0.042,0.269,-5.337
0.172,0.042,0.266,-5.337
0.212,0.042,0.265,-5.337
0.217,0.044,0.265,-5.337
0.197,0.047,0.267,-5.337
0.150,0.046,0.268,-5.337
0.150,0.043,0.270,-5.337
0.180,0.044,0.271,-5.337
0.211,0.045,0.271,-5.337
0.226,0.047,0.267,-5.337
0.229,0.049,0.265,-5.337
0.190,0.048,0.266,-5.337
0.187,0.048,0.267,-5.337
0.218,0.048,0.267,-5.337
0.221,0.048,0.268,-5.337
0.187,0.046,0.268,-5.337
0.177,0.044,0.267,-5.337
0.119,0.050,0.264,-5.337
0.111,0.049,0.265,-5.337
0.130,0.047,0.265,-5.337
0.107,0.047,0.260,-5.337
0.132,0.045,0.262,-5.337
0.221,0.041,0.268,-5.337
0.262,0.041,0.274,-5.337
0.243,0.043,0.269,-5.337
0.201,0.046,0.265,-5.337
0.193,0.046,0.266,-5.337
0.205,0.045,0.265,-5.337
0.161,0.044,0.266,-5.337
0.148,0.046,0.266,-5.337
0.161,0.048,0.266,-5.337
0.158,0.045,0.266,-5.337
0.149,0.044,0.272,-5.337
0.120,0.047,0.271,-5.337
0.138,0.047,0.264,-5.337
0.166,0.048,0.264,-5.337
0.188,0.049,0.269,-5.337
0.232,0.046,0.269,-5.337
0.209,0.048,0.267,-5.337
0.204,0.046,0.267,-5.337
0.209,0.048,0.269,-5.337
0.232,0.044,0.267,-5.337
0.270,0.047,0.269,-5.337
0.211,0.047,0.268,-5.337
0.223,0.046,0.268,-5.337
0.281,0.044,0.266,-5.337
0.271,0.048,0.264,-5.337
0.168,0.051,0.264,-5.337
0.097,0.051,0.265,-5.337
0.136,0.052,0.268,-5.337
0.180,0.054,0.272,-5.337
0.185,0.052,0.270,-5.337
0.211,0.052,0.269,-5.337
0.186,0.051,0.266,-5.337
0.179,0.052,0.267,-5.337
0.194,0.052,0.269,-5.337
0.259,0.051,0.271,-5.337
0.267,0.049,0.270,-5.337
0.188,0.050,0.263,-5.337
0.188,0.052,0.258,-5.337
0.228,0.054,0.258,-5.337
0.253,0.049,0.260,-5.337
0.208,0.051,0.265,-5.337
0.168,0.051,0.270,-5.337
0.187,0.053,0.269,-5.337
0.142,0.053,0.271,-5.337
0.130,0.053,0.271,-5.337
0.139,0.054,0.270,-5.337
0.120,0.055,0.266,-5.337
0.192,0.053,0.265,-5.337
0.203,0.051,0.264,-5.337
0.230,0.052,0.265,-5.337
0.255,0.052,0.265,-5.337
0.252,0.051,0.264,-5.337
0.204,0.051,0.266,-5.337
0.158,0.054,0.268,-5.337
0.148,0.052,0.266,-5.337
0.158,0.052,0.266,-5.337
0.245,0.051,0.268,-5.337
0.270,0.052,0.268,-5.337
0.280,0.053,0.268,-5.337
0.275,0.057,0.263,-5.337
0.278,0.055,0.263,-5.337
0.288,0.057,0.267,-5.337
0.223,0.058,0.274,-5.337
0.228,0.058,0.273,-5.337
0.231,0.059,0.269,-5.337
0.197,0.058,0.266,-5.337
0.197,0.058,0.268,-5.337
0.175,0.057,0.265,-5.337
0.202,0.057,0.261,-5.337
0.291,0.052,0.261,-5.337
0.292,0.053,0.263,-5.337
0.129,0.058,0.266,-5.337
0.019,0.059,0.272,-5.337
0.145,0.052,0.273,-5.337
0.250,0.050,0.270,-5.337
0.251,0.051,0.264,-5.337
0.204,0.054,0.257,-5.337
0.261,0.052,0.258,-5.337
0.238,0.053,0.265,-5.337
0.207,0.052,0.268,-5.337
0.276,0.052,0.266,-5.337
0.248,0.054,0.265,-5.337
0.163,0.060,0.264,-5.337
0.078,0.059,0.267,-5.337
0.111,0.059,0.270,-5.337
0.197,0.059,0.274,-5.337
0.229,0.058,0.272,-5.337
0.188,0.060,0.268,-5.337
0.161,0.059,0.264,-5.337
0.201,0.055,0.264,-5.337
0.258,0.053,0.263,-5.337
0.230,0.057,0.264,-5.337
0.155,0.061,0.267,-5.337
0.129,0.062,0.264,-5.337
0.205,0.058,0.261,-5.337
0.226,0.057,0.265,-5.337
0.167,0.058,0.266,-5.337
0.224,0.056,0.265,-5.337
0.257,0.056,0.263,-5.337
0.217,0.057,0.264,-5.337
0.152,0.059,0.264,-5.337
0.171,0.057,0.264,-5.337
0.248,0.056,0.264,-5.337
0.274,0.056,0.261,-5.337
0.273,0.058,0.266,-5.337
0.275,0.057,0.271,-5.337
0.295,0.053,0.272,-5.337
0.299,0.050,0.274,-5.337
0.267,0.055,0.274,-5.337
0.231,0.057,0.270,-5.337
0.240,0.060,0.266,-5.337
0.241,0.056,0.261,-5.337
0.272,0.056,0.259,-5.337
0.267,0.055,0.266,-5.337
0.263,0.052,0.271,-5.337
0.235,0.054,0.270,-5.337
0.192,0.061,0.265,-5.337
0.213,0.059,0.260,-5.337
0.263,0.061,0.263,-5.337
0.234,0.060,0.267,-5.337
0.201,0.060,0.266,-5.337
0.206,0.059,0.266,-5.337
0.191,0.061,0.263,-5.337
0.181,0.064,0.263,-5.337
0.226,0.066,0.264,-5.337
0.238,0.062,0.267,-5.337
0.217,0.061,0.269,-5.337
0.167,0.063,0.269,-5.337
0.239,0.060,0.267,-5.337
0.328,0.060,0.267,-5.337
0.308,0.060,0.265,-5.337
0.222,0.061,0.264,-5.337
0.269,0.058,0.267,-5.337
0.249,0.058,0.267,-5.337
0.231,0.062,0.267,-5.337
0.253,0.063,0.266,-5.337
0.208,0.062,0.268,-5.337
0.194,0.061,0.270,-5.337
0.204,0.058,0.268,-5.337
0.199,0.055,0.266,-5.337
0.176,0.059,0.265,-5.337
0.180,0.060,0.261,-5.337
0.230,0.058,0.260,-5.337
0.270,0.057,0.261,-5.337
0.228,0.057,0.266,-5.337
0.223,0.059,0.269,-5.337
0.191,0.061,0.271,-5.337
0.245,0.057,0.268,-5.337
0.286,0.058,0.267,-5.337
0.276,0.058,0.268,-5.337
0.253,0.060,0.268,-5.337
0.332,0.055,0.264,-5.337
0.339,0.054,0.261,-5.337
0.206,0.058,0.257,-5.337
0.103,0.062,0.257,-5.337
0.089,0.062,0.260,-5.337
0.247,0.058,0.266,-5.337
0.388,0.052,0.269,-5.337
0.294,0.055,0.268,-5.337
0.242,0.058,0.267,-5.337
0.217,0.058,0.266,-5.337
0.286,0.056,0.265,-5.337
0.272,0.057,0.266,-5.337
0.187,0.060,0.264,-5.337
0.136,0.060,0.262,-5.337
0.145,0.057,0.263,-5.337
0.135,0.055,0.266,-5.337
0.192,0.053,0.270,-5.337
0.311,0.053,0.270,-5.337
0.306,0.053,0.269,-5.337
0.214,0.056,0.271,-5.337
0.139,0.055,0.274,-5.337
0.180,0.050,0.272,-5.337
0.236,0.049,0.267,-5.337
0.237,0.051,0.263,-5.337
0.185,0.054,0.267,-5.337
0.161,0.050,0.271,-5.337
0.150,0.046,0.268,-5.337
0.160,0.047,0.261,-5.337
0.134,0.056,0.258,-5.337
0.105,0.055,0.259,-5.337
0.124,0.056,0.263,-5.337
0.184,0.053,0.267,-5.337
0.234,0.052,0.267,-5.337
0.201,0.054,0.264,-5.337
0.246,0.053,0.262,-5.337
0.268,0.050,0.260,-5.337
0.196,0.050,0.262,-5.337
0.154,0.050,0.265,-5.337
0.169,0.051,0.266,-5.337
0.163,0.050,0.267,-5.337
0.121,0.055,0.269,-5.337
0.083,0.053,0.273,-5.337
0.135,0.048,0.274,-5.337
0.238,0.045,0.271,-5.337
0.229,0.045,0.268,-5.337
0.159,0.047,0.268,-5.337
0.185,0.044,0.265,-5.337
0.217,0.047,0.263,-5.337
0.233,0.050,0.265,-5.337
0.235,0.052,0.266,-5.337
0.218,0.049,0.267,-5.337
0.204,0.047,0.269,-5.337
0.195,0.046,0.267,-5.337
0.179,0.047,0.265,-5.337
0.233,0.046,0.262,-5.337
0.253,0.048,0.266,-5.337
0.187,0.046,0.270,-5.337
0.208,0.044,0.270,-5.337
0.264,0.043,0.267,-5.337
0.308,0.046,0.266,-5.337
0.300,0.044,0.265,-5.337
0.222,0.044,0.263,-5.337
0.130,0.046,0.268,-5.337
0.129,0.049,0.266,-5.337
0.193,0.050,0.264,-5.337
0.209,0.045,0.264,-5.337
0.215,0.046,0.265,-5.337
0.213,0.046,0.267,-5.337
0.229,0.046,0.272,-5.337
0.199,0.045,0.270,-5.337
0.208,0.045,0.266,-5.337
0.227,0.043,0.267,-5.337
0.239,0.043,0.270,-5.337
0.226,0.046,0.271,-5.337
0.225,0.044,0.270,-5.337
0.210,0.043,0.267,-5.337
0.166,0.043,0.266,-5.337
0.214,0.040,0.266,-5.337
0.239,0.042,0.268,-5.337
0.235,0.044,0.269,-5.337
0.172,0.044,0.270,-5.337
0.186,0.039,0.271,-5.337
0.209,0.040,0.271,-5.337
0.166,0.041,0.270,-5.337
0.141,0.039,0.268,-5.337
0.149,0.038,0.267,-5.337
0.209,0.038,0.267,-5.337
0.225,0.039,0.265,-5.337
0.220,0.040,0.263,-5.337
0.231,0.043,0.263,-5.337
0.245,0.042,0.269,-5.337
0.265,0.043,0.273,-5.337
0.175,0.047,0.273,-5.337
0.099,0.046,0.270,-5.337
0.137,0.041,0.269,-5.337
0.204,0.042,0.265,-5.337
0.233,0.044,0.263,-5.337
0.228,0.043,0.264,-5.337
0.179,0.043,0.268,-5.337
0.172,0.043,0.271,-5.337
0.216,0.039,0.272,-5.337
0.245,0.040,0.269,-5.337
0.245,0.037,0.269,-5.337
0.255,0.039,0.269,-5.337
0.230,0.040,0.266,-5.337
0.192,0.039,0.263,-5.337
0.205,0.039,0.266,-5.337
0.144,0.040,0.268,-5.337
0.171,0.037,0.271,-5.337
0.266,0.035,0.271,-5.337
0.316,0.036,0.268,-5.337
0.246,0.040,0.267,-5.337
0.120,0.043,0.263,-5.337
0.089,0.040,0.265,-5.337
0.188,0.037,0.270,-5.337
0.264,0.033,0.274,-5.337
0.187,0.036,0.274,-5.337
0.156,0.041,0.273,-5.337
0.216,0.039,0.269,-5.337
0.224,0.037,0.265,-5.337
0.221,0.038,0.261,-5.337
0.215,0.038,0.263,-5.337
0.270,0.034,0.267,-5.337
0.280,0.035,0.270,-5.337
0.175,0.037,0.268,-5.337
0.158,0.038,0.268,-5.337
0.142,0.038,0.268,-5.337
0.195,0.038,0.269,-5.337
0.142,0.039,0.270,-5.337
0.187,0.035,0.273,-5.337
0.213,0.034,0.269,-5.337
0.207,0.034,0.264,-5.337
0.171,0.034,0.261,-5.337
0.151,0.033,0.267,-5.337
0.155,0.034,0.275,-5.337
0.198,0.035,0.277,-5.337
0.244,0.033,0.270,-5.337
0.195,0.033,0.266,-5.337
0.185,0.034,0.266,-5.337
0.145,0.034,0.266,-5.337
0.139,0.033,0.268,-5.337
0.181,0.032,0.269,-5.337
0.217,0.030,0.266,-5.337
0.235,0.031,0.263,-5.337
0.233,0.031,0.266,-5.337
0.180,0.034,0.267,-5.337
0.178,0.034,0.268,-5.337
0.211,0.032,0.268,-5.337
0.295,0.030,0.268,-5.337
0.263,0.033,0.268,-5.337
0.150,0.038,0.269,-5.337
0.106,0.040,0.267,-5.337
0.177,0.038,0.265,-5.337
0.209,0.040,0.265,-5.337
0.214,0.035,0.265,-5.337
0.226,0.033,0.267,-5.337
0.206,0.036,0.269,-5.337
0.189,0.037,0.271,-5.337
0.173,0.039,0.272,-5.337
0.257,0.035,0.270,-5.337
0.258,0.032,0.267,-5.337
0.145,0.035,0.267,-5.337
0.066,0.041,0.267,-5.337
0.092,0.038,0.271,-5.337
0.129,0.036,0.274,-5.337
0.167,0.034,0.271,-5.337
0.155,0.037,0.268,-5.337
0.112,0.039,0.269,-5.337
0.134,0.032,0.268,-5.337
0.201,0.029,0.269,-5.337
0.282,0.030,0.270,-5.337
0.273,0.030,0.271,-5.337
0.314,0.028,0.268,-5.337
0.251,0.030,0.267,-5.337
0.136,0.030,0.268,-5.337
0.125,0.032,0.270,-5.337
0.183,0.031,0.271,-5.337
0.213,0.028,0.271,-5.337
0.203,0.030,0.267,-5.337
0.144,0.033,0.265,-5.337
0.124,0.032,0.262,-5.337
0.170,0.033,0.263,-5.337
0.242,0.031,0.268,-5.337
0.190,0.035,0.271,-5.337
0.083,0.036,0.271,-5.337
0.034,0.034,0.269,-5.337
0.077,0.034,0.269,-5.337
0.079,0.036,0.266,-5.337
0.083,0.035,0.264,-5.337
0.158,0.032,0.264,-5.337
0.165,0.031,0.269,-5.337
0.212,0.033,0.271,-5.337
0.200,0.035,0.271,-5.337
0.215,0.029,0.269,-5.337
0.222,0.027,0.267,-5.337
0.166,0.029,0.266,-5.337
0.159,0.032,0.267,-5.337
0.153,0.037,0.267,-5.337
0.115,0.037,0.268,-5.337
0.213,0.031,0.271,-5.337
0.239,0.028,0.270,-5.337
0.248,0.029,0.261,-5.337
0.186,0.032,0.257,-5.337
0.199,0.032,0.261,-5.337
0.222,0.031,0.266,-5.337
0.175,0.032,0.267,-5.337
0.127,0.034,0.267,-5.337
0.182,0.034,0.269,-5.337
0.177,0.034,0.269,-5.337
0.142,0.035,0.268,-5.337
0.125,0.038,0.270,-5.337
0.165,0.037,0.273,-5.337
0.294,0.032,0.268,-5.337
0.263,0.035,0.264,-5.337
0.176,0.034,0.260,-5.337
0.196,0.031,0.262,-5.337
0.206,0.032,0.263,-5.337
0.122,0.030,0.266,-5.337
0.117,0.027,0.267,-5.337
0.166,0.031,0.270,-5.337
0.188,0.034,0.269,-5.337
0.143,0.035,0.267,-5.337
0.140,0.031,0.269,-5.337
0.184,0.038,0.272,-5.337
0.248,0.043,0.267,-5.337
0.251,0.044,0.264,-5.337
0.166,0.042,0.265,-5.337
0.118,0.040,0.269,-5.337
0.097,0.039,0.271,-5.337
0.113,0.035,0.268,-5.337
0.109,0.036,0.267,-5.337
0.129,0.036,0.265,-5.337
0.239,0.033,0.264,-5.337
0.299,0.032,0.265,-5.337
0.236,0.035,0.268,-5.337
0.174,0.035,0.267,-5.337
0.197,0.033,0.268,-5.337
0.152,0.034,0.267,-5.337
0.149,0.035,0.269,-5.337
0.146,0.036,0.267,-5.337
0.109,0.035,0.262,-5.337
0.089,0.034,0.262,-5.337
0.176,0.030,0.267,-5.337
0.255,0.026,0.267,-5.337
0.220,0.029,0.269,-5.337
0.147,0.035,0.269,-5.337
0.138,0.031,0.267,-5.337
0.151,0.031,0.266,-5.337
0.152,0.029,0.266,-5.337
0.195,0.027,0.266,-5.337
0.260,0.029,0.266,-5.337
0.281,0.030,0.265,-5.337
0.231,0.034,0.265,-5.337
0.160,0.035,0.268,-5.337
0.167,0.033,0.270,-5.337
0.201,0.032,0.271,-5.337
0.205,0.033,0.266,-5.337
0.186,0.032,0.263,-5.337
0.200,0.032,0.264,-5.337
0.215,0.035,0.268,-5.337
0.225,0.032,0.266,-5.337
0.217,0.028,0.265,-5.337
0.249,0.027,0.265,-5.337
0.214,0.037,0.269,-5.337
0.183,0.036,0.269,-5.337
0.174,0.033,0.266,-5.337
0.181,0.034,0.262,-5.337
0.156,0.036,0.262,-5.337
0.113,0.036,0.264,-5.337
0.170,0.035,0.270,-5.337
0.166,0.037,0.271,-5.337
0.095,0.037,0.270,-5.337
0.135,0.037,0.267,-5.337
0.195,0.036,0.267,-5.337
0.167,0.032,0.268,-5.337
0.141,0.033,0.265,-5.337
0.147,0.035,0.265,-5.337
0.173,0.036,0.266,-5.337
0.224,0.038,0.267,-5.337
0.218,0.038,0.264,-5.337
0.247,0.037,0.263,-5.337
0.279,0.039,0.264,-5.337
0.216,0.044,0.264,-5.337
0.186,0.044,0.264,-5.337
0.108,0.041,0.267,-5.337
0.113,0.040,0.270,-5.337
0.169,0.042,0.271,-5.337
0.171,0.045,0.273,-5.337
0.182,0.043,0.271,-5.337
0.178,0.041,0.265,-5.337
0.188,0.036,0.262,-5.337
0.214,0.038,0.266,-5.337
0.167,0.043,0.268,-5.337
0.103,0.042,0.269,-5.337
0.091,0.043,0.267,-5.337
0.120,0.044,0.267,-5.337
0.130,0.042,0.264,-5.337
0.160,0.043,0.263,-5.337
0.157,0.042,0.261,-5.337
0.125,0.041,0.261,-5.337
0.158,0.037,0.264,-5.337
0.182,0.036,0.267,-5.337
0.135,0.039,0.266,-5.337
0.115,0.039,0.268,-5.337
0.170,0.041,0.269,-5.337
0.132,0.043,0.269,-5.337
0.105,0.039,0.265,-5.337
0.111,0.038,0.265,-5.337
0.147,0.039,0.267,-5.337
0.117,0.042,0.271,-5.337
0.129,0.042,0.272,-5.337
0.191,0.040,0.274,-5.337
0.187,0.039,0.272,-5.337
0.126,0.042,0.267,-5.337
0.146,0.045,0.264,-5.337
0.191,0.043,0.265,-5.337
0.278,0.041,0.268,-5.337
0.300,0.042,0.269,-5.337
0.216,0.045,0.269,-5.337
0.205,0.045,0.268,-5.337
0.199,0.046,0.266,-5.337
0.180,0.044,0.262,-5.337
0.182,0.045,0.261,-5.337
0.201,0.042,0.262,-5.337
0.193,0.042,0.268,-5.337
0.192,0.043,0.269,-5.337
0.184,0.044,0.266,-5.337
0.211,0.043,0.265,-5.337
0.168,0.045,0.265,-5.337
0.157,0.048,0.268,-5.337
0.170,0.053,0.269,-5.337
0.234,0.047,0.268,-5.337
0.309,0.044,0.267,-5.337
0.277,0.043,0.268,-5.337
0.265,0.048,0.271,-5.337
0.201,0.052,0.270,-5.337
0.170,0.053,0.266,-5.337
0.229,0.049,0.268,-5.337
0.216,0.048,0.270,-5.337
0.181,0.048,0.271,-5.337
0.167,0.049,0.270,-5.337
0.155,0.048,0.268,-5.337
0.186,0.047,0.266,-5.337
0.241,0.046,0.268,-5.337
0.233,0.044,0.268,-5.337
0.161,0.049,0.265,-5.337
0.216,0.047,0.266,-5.337
0.256,0.045,0.267,-5.337
0.249,0.045,0.267,-5.337
0.189,0.044,0.268,-5.337
0.169,0.042,0.268,-5.337
0.131,0.043,0.269,-5.337
0.167,0.043,0.268,-5.337
0.198,0.044,0.268,-5.337
0.197,0.046,0.268,-5.337
0.190,0.044,0.267,-5.337
0.170,0.046,0.267,-5.337
0.171,0.044,0.268,-5.337
0.211,0.041,0.272,-5.337
0.197,0.041,0.273,-5.337
0.221,0.042,0.272,-5.337
0.223,0.045,0.267,-5.337
0.203,0.048,0.267,-5.337
0.225,0.049,0.267,-5.337
0.190,0.053,0.269,-5.337
0.156,0.051,0.271,-5.337
0.189,0.049,0.270,-5.337
0.226,0.048,0.267,-5.337
0.189,0.053,0.267,-5.337
0.189,0.051,0.270,-5.337
0.229,0.048,0.271,-5.337
0.145,0.051,0.269,-5.337
0.174,0.049,0.269,-5.337
0.244,0.048,0.268,-5.337
0.258,0.051,0.265,-5.337
0.231,0.050,0.264,-5.337
0.225,0.053,0.265,-5.337
0.226,0.052,0.271,-5.337
0.228,0.049,0.273,-5.337
0.209,0.049,0.271,-5.337
0.192,0.050,0.267,-5.337
0.210,0.050,0.264,-5.337
0.201,0.053,0.267,-5.337
0.227,0.055,0.272,-5.337
0.225,0.052,0.271,-5.337
0.252,0.051,0.270,-5.337
0.216,0.052,0.270,-5.337
0.176,0.051,0.271,-5.337
0.177,0.053,0.271,-5.337
0.245,0.051,0.268,-5.337
0.335,0.047,0.265,-5.337
0.299,0.049,0.267,-5.337
0.225,0.052,0.267,-5.337
0.165,0.052,0.266,-5.337
0.188,0.056,0.266,-5.337
0.207,0.057,0.270,-5.337
0.245,0.052,0.273,-5.337
0.261,0.055,0.272,-5.337
0.193,0.056,0.272,-5.337
0.168,0.056,0.271,-5.337
0.210,0.054,0.269,-5.337
0.172,0.055,0.267,-5.337
0.100,0.057,0.269,-5.337
0.209,0.055,0.269,-5.337
0.261,0.056,0.265,-5.337
0.170,0.058,0.263,-5.337
0.135,0.055,0.263,-5.337
0.216,0.053,0.263,-5.337
0.240,0.053,0.267,-5.337
0.156,0.054,0.269,-5.337
0.202,0.051,0.268,-5.337
0.217,0.053,0.270,-5.337
0.244,0.049,0.270,-5.337
0.244,0.049,0.268,-5.337
0.215,0.054,0.267,-5.337
0.171,0.054,0.266,-5.337
0.135,0.053,0.265,-5.337
0.118,0.054,0.265,-5.337
0.162,0.052,0.266,-5.337
0.235,0.052,0.270,-5.337
0.242,0.052,0.273,-5.337
0.279,0.051,0.273,-5.337
0.269,0.052,0.270,-5.337
0.221,0.051,0.269,-5.337
0.177,0.052,0.271,-5.337
0.211,0.056,0.271,-5.337
0.234,0.057,0.268,-5.337
0.198,0.056,0.269,-5.337
0.228,0.050,0.272,-5.337
0.276,0.050,0.271,-5.337
0.250,0.054,0.268,-5.337
0.228,0.056,0.268,-5.337
0.252,0.054,0.269,-5.337
0.217,0.053,0.269,-5.337
0.181,0.051,0.270,-5.337
0.214,0.051,0.267,-5.337
0.219,0.051,0.266,-5.337
0.191,0.050,0.269,-5.337
0.176,0.054,0.271,-5.337
0.185,0.055,0.271,-5.337
0.237,0.051,0.267,-5.337
0.281,0.050,0.263,-5.337
0.236,0.054,0.267,-5.337
0.206,0.052,0.269,-5.337
0.203,0.052,0.271,-5.337
0.209,0.054,0.271,-5.337
0.254,0.055,0.269,-5.337
0.231,0.056,0.268,-5.337
0.218,0.054,0.268,-5.337
0.190,0.056,0.267,-5.337
0.205,0.054,0.266,-5.337
0.258,0.052,0.263,-5.337
0.272,0.053,0.263,-5.337
0.271,0.056,0.268,-5.337
0.236,0.061,0.269,-5.337
0.281,0.061,0.267,-5.337
0.318,0.055,0.267,-5.337
0.229,0.053,0.269,-5.337
0.117,0.057,0.268,-5.337
0.146,0.058,0.265,-5.337
0.130,0.057,0.264,-5.337
0.134,0.057,0.265,-5.337
0.138,0.055,0.270,-5.337
0.124,0.057,0.272,-5.337
0.163,0.059,0.270,-5.337
0.199,0.058,0.270,-5.337
0.173,0.057,0.271,-5.337
0.204,0.054,0.271,-5.337
0.223,0.056,0.267,-5.337
0.280,0.054,0.265,-5.337
0.282,0.056,0.264,-5.337
0.165,0.059,0.267,-5.337
0.178,0.058,0.269,-5.337
0.269,0.060,0.266,-5.337
0.238,0.060,0.265,-5.337
0.243,0.058,0.266,-5.337
0.263,0.054,0.268,-5.337
0.311,0.056,0.269,-5.337
0.300,0.057,0.267,-5.337
0.213,0.057,0.268,-5.337
0.234,0.054,0.268,-5.337
0.252,0.055,0.268,-5.337
0.205,0.059,0.267,-5.337
0.211,0.056,0.265,-5.337
0.265,0.052,0.270,-5.337
0.313,0.053,0.271,-5.337
0.237,0.055,0.269,-5.337
0.194,0.058,0.266,-5.337
0.237,0.058,0.269,-5.337
0.223,0.058,0.268,-5.337
0.264,0.055,0.269,-5.337
0.324,0.052,0.267,-5.337
0.276,0.055,0.268,-5.337
0.248,0.054,0.270,-5.337
0.222,0.054,0.269,-5.337
0.207,0.054,0.267,-5.337
0.294,0.051,0.267,-5.337
0.287,0.053,0.265,-5.337
0.215,0.056,0.265,-5.337
0.182,0.061,0.264,-5.337
0.156,0.062,0.264,-5.337
0.176,0.060,0.266,-5.337
0.174,0.059,0.268,-5.337
0.241,0.054,0.266,-5.337
0.191,0.057,0.266,-5.337
0.110,0.059,0.268,-5.337
0.189,0.051,0.269,-5.337
0.221,0.047,0.267,-5.337
0.218,0.047,0.265,-5.337
0.212,0.052,0.264,-5.337
0.173,0.054,0.264,-5.337
0.238,0.051,0.267,-5.337
0.302,0.048,0.270,-5.337
0.278,0.050,0.271,-5.337
0.204,0.048,0.268,-5.337
0.164,0.051,0.266,-5.337
0.206,0.051,0.269,-5.337
0.241,0.049,0.276,-5.337
0.242,0.050,0.279,-5.337
0.163,0.049,0.274,-5.337
0.135,0.049,0.268,-5.337
0.205,0.051,0.265,-5.337
0.215,0.052,0.264,-5.337
0.167,0.055,0.265,-5.337
0.177,0.056,0.264,-5.337
0.210,0.056,0.261,-5.337
0.212,0.055,0.260,-5.337
0.225,0.048,0.259,-5.337
0.220,0.045,0.261,-5.337
0.192,0.050,0.266,-5.337
0.220,0.051,0.271,-5.337
0.284,0.046,0.272,-5.337
0.264,0.045,0.272,-5.337
0.237,0.045,0.267,-5.337
0.266,0.044,0.263,-5.337
0.305,0.046,0.263,-5.337
0.280,0.047,0.265,-5.337
0.206,0.049,0.268,-5.337
0.154,0.050,0.269,-5.337
0.131,0.050,0.271,-5.337
0.140,0.050,0.268,-5.337
0.124,0.053,0.266,-5.337
0.089,0.054,0.269,-5.337
0.121,0.052,0.270,-5.337
0.162,0.052,0.269,-5.337
0.149,0.053,0.267,-5.337
0.123,0.048,0.265,-5.337
0.152,0.047,0.264,-5.337
0.155,0.051,0.265,-5.337
0.212,0.051,0.267,-5.337
0.274,0.044,0.268,-5.337
0.267,0.043,0.268,-5.337
0.219,0.046,0.268,-5.337
0.192,0.050,0.267,-5.337
0.179,0.049,0.268,-5.337
0.214,0.048,0.269,-5.337
0.252,0.048,0.270,-5.337
0.208,0.050,0.273,-5.337
0.194,0.046,0.270,-5.337
0.210,0.044,0.267,-5.337
0.205,0.046,0.265,-5.337
0.229,0.049,0.266,-5.337
0.291,0.044,0.263,-5.337
0.276,0.046,0.262,-5.337
0.238,0.043,0.265,-5.337
0.245,0.041,0.270,-5.337
0.244,0.041,0.267,-5.337
0.224,0.047,0.264,-5.337
0.184,0.046,0.264,-5.337
0.144,0.044,0.268,-5.337
0.127,0.043,0.270,-5.337
0.152,0.040,0.266,-5.337
0.179,0.041,0.264,-5.337
0.175,0.040,0.263,-5.337
0.174,0.041,0.266,-5.337
0.222,0.038,0.270,-5.337
0.215,0.039,0.273,-5.337
0.183,0.040,0.271,-5.337
0.135,0.043,0.271,-5.337
0.060,0.042,0.272,-5.337
0.183,0.035,0.269,-5.337
0.277,0.033,0.265,-5.337
0.218,0.035,0.264,-5.337
