[Parameters]
Operating Mode, Feedback
Subject  AA..ZZ, WT
Session  0..99, 44
No. Trials (1..9999), 500
Mouse Number, 1
Pressure Probe Serial Port, \00\00\00\04COM4
Save additional csv file, TRUE
Save using mouse number, FALSE
A/D Monitor Rate (Hz), 30000.000000
A/D Stimulate Rate (Hz), 30000.000000
A/D input range (+/- V), 5
No. Channels to acquire (N), 2
Pre-Stim Acq. time (ms), 100.000000
Post-Stim Acq. time (ms), 900.000000
Analysis window parameters.M-response Start (ms), 1.100000
Analysis window parameters.M-response Duration (ms), 5.500000
Analysis window parameters.H-response Duration (ms), 6.000000
Analysis window parameters.H-response Start (ms), 6.500000
Feedback window, H response
Proportional gain, 0.100000
Target value, 6.700000
Feedback Ch., 1
Stim Channel to Control (1-4), 4
Trial, 23
Wait for EMG Conditions, FALSE
Channel to monitor (0 - N-1), 1
EMG Hi Limit, 2.000000
EMG Lo Limit, 0.001000
Inter-Stim delay (sec), 10.000000
EMG Monitor Mode, Mean
Time to run Long Stim.(sec), 30
Save Long Stim Data?, OFF
BURST Save time (ms), 1000
BURST Save Interval (x above), 10
Long-Stim. Rep. Rate (Hz), 10.000000
Stim type cluster array.<size(s)>, 4
Stim type cluster array 0.Stimulus Output, Electrical
Stim type cluster array 1.Stimulus Output, OFF
Stim type cluster array 2.Stimulus Output, OFF
Stim type cluster array 3.Stimulus Output, Motor Length
Stim specs cluster array.<size(s)>, 4
Stim specs cluster array 0.Initial Stimulus ampl., 0.300000
Stim specs cluster array 0.Maximum Stimulus, 1.120000
Stim specs cluster array 0.#Pulses in train, 4
Stim specs cluster array 0.Peak Level time (ms), 1.000000
Stim specs cluster array 0.Total pulse period (ms), 150.000000
Stim specs cluster array 0.Start Delay (ms), -50.000000
Stim specs cluster array 0.Pulse Shape, Square
Stim specs cluster array 0.Ramp/Rel. time (ms), 0.100000
Stim specs cluster array 0.Peak Amplitude (V), 0.120000
Stim specs cluster array 1.Initial Stimulus ampl., 0.000000
Stim specs cluster array 1.Maximum Stimulus, 0.000000
Stim specs cluster array 1.#Pulses in train, 3
Stim specs cluster array 1.Peak Level time (ms), 29.000000
Stim specs cluster array 1.Total pulse period (ms), 200.000000
Stim specs cluster array 1.Start Delay (ms), 0.000000
Stim specs cluster array 1.Pulse Shape, Square
Stim specs cluster array 1.Ramp/Rel. time (ms), 0.000000
Stim specs cluster array 1.Peak Amplitude (V), 2.000000
Stim specs cluster array 2.Initial Stimulus ampl., 0.000000
Stim specs cluster array 2.Maximum Stimulus, 0.000000
Stim specs cluster array 2.#Pulses in train, 1
Stim specs cluster array 2.Peak Level time (ms), 25.000000
Stim specs cluster array 2.Total pulse period (ms), 200.000000
Stim specs cluster array 2.Start Delay (ms), 0.000000
Stim specs cluster array 2.Pulse Shape, Square
Stim specs cluster array 2.Ramp/Rel. time (ms), 20.000000
Stim specs cluster array 2.Peak Amplitude (V), 10.000000
Stim specs cluster array 3.Initial Stimulus ampl., 0.000000
Stim specs cluster array 3.Maximum Stimulus, 15.000000
Stim specs cluster array 3.#Pulses in train, 25
Stim specs cluster array 3.Peak Level time (ms), 0.100000
Stim specs cluster array 3.Total pulse period (ms), 4.000000
Stim specs cluster array 3.Start Delay (ms), 205.000000
Stim specs cluster array 3.Pulse Shape, Triangle
Stim specs cluster array 3.Ramp/Rel. time (ms), 3.000000
Stim specs cluster array 3.Peak Amplitude (V), 0.500000
Force cal. (mN/Volt), 100.000000
Force Range (mN), 100.000000
Length cal. (mm/Volt), 10.000000
Length Range (mm), 10.000000
Stim. 1, 0.300000
Stim. 2, 0.000000
Stim. 3, 0.000000
Stim. 4, 0.000000
Monitor acquire time (ms), 100.000000
EMG graph Ymax, 0.100000
Travel limit (mm), 20.000000
Use Pressure Probe, FALSE
Pressure goal (g), 100
Speed (mm/sec), 5.000000
Dwell time (ms), 100.000000
Pressure limit (g), 500.000000
Channel amplitude offset, 0.000000

[DATA]

0.216,0.054,0.253,-5.337
0.150,0.058,0.253,-5.337
0.102,0.059,0.258,-5.337
0.111,0.060,0.263,-5.337
0.103,0.061,0.262,-5.337
0.121,0.063,0.260,-5.337
0.057,0.067,0.262,-5.337
0.074,0.065,0.264,-5.337
0.180,0.058,0.262,-5.337
0.195,0.058,0.260,-5.337
0.243,0.061,0.258,-5.337
0.245,0.061,0.258,-5.337
0.241,0.060,0.261,-5.337
0.232,0.061,0.266,-5.337
0.157,0.063,0.267,-5.337
0.101,0.063,0.266,-5.337
0.061,0.061,0.264,-5.337
0.071,0.063,0.259,-5.337
0.095,0.061,0.263,-5.337
0.140,0.061,0.267,-5.337
0.147,0.061,0.269,-5.337
0.171,0.062,0.264,-5.337
0.217,0.059,0.259,-5.337
0.271,0.055,0.254,-5.337
0.258,0.054,0.253,-5.337
0.203,0.056,0.253,-5.337
0.129,0.061,0.255,-5.337
0.104,0.060,0.260,-5.337
0.130,0.059,0.265,-5.337
0.195,0.060,0.266,-5.337
0.202,0.063,0.263,-5.337
0.177,0.064,0.259,-5.337
0.159,0.057,0.260,-5.337
0.227,0.055,0.262,-5.337
0.206,0.058,0.262,-5.337
0.194,0.057,0.261,-5.337
0.228,0.057,0.259,-5.337
0.263,0.058,0.262,-5.337
0.211,0.055,0.261,-5.337
0.207,0.055,0.257,-5.337
0.259,0.057,0.252,-5.337
0.238,0.062,0.256,-5.337
0.210,0.061,0.259,-5.337
0.236,0.062,0.259,-5.337
0.247,0.063,0.258,-5.337
0.231,0.062,0.262,-5.337
0.217,0.063,0.265,-5.337
0.174,0.064,0.267,-5.337
0.165,0.066,0.264,-5.337
0.155,0.066,0.262,-5.337
0.193,0.063,0.261,-5.337
0.187,0.062,0.262,-5.337
0.178,0.061,0.260,-5.337
0.209,0.062,0.260,-5.337
0.170,0.064,0.260,-5.337
0.118,0.065,0.259,-5.337
0.150,0.062,0.260,-5.337
0.222,0.061,0.257,-5.337
0.143,0.065,0.260,-5.337
0.102,0.062,0.262,-5.337
0.152,0.062,0.260,-5.337
0.154,0.061,0.258,-5.337
0.160,0.063,0.262,-5.337
0.110,0.063,0.261,-5.337
0.116,0.063,0.257,-5.337
0.131,0.060,0.255,-5.337
0.154,0.062,0.259,-5.337
0.140,0.063,0.265,-5.337
0.164,0.063,0.268,-5.337
0.204,0.061,0.264,-5.337
0.310,0.060,0.256,-5.337
0.316,0.062,0.253,-5.337
0.213,0.067,0.255,-5.337
0.145,0.068,0.261,-5.337
0.160,0.066,0.262,-5.337
0.208,0.066,0.261,-5.337
0.192,0.066,0.255,-5.337
0.233,0.064,0.258,-5.337
0.258,0.060,0.263,-5.337
0.263,0.065,0.266,-5.337
0.210,0.069,0.261,-5.337
0.154,0.070,0.255,-5.337
0.124,0.069,0.254,-5.337
0.104,0.067,0.256,-5.337
0.074,0.067,0.260,-5.337
0.096,0.067,0.262,-5.337
0.108,0.065,0.261,-5.337
0.172,0.063,0.260,-5.337
0.204,0.064,0.259,-5.337
0.191,0.063,0.260,-5.337
0.213,0.067,0.257,-5.337
0.213,0.067,0.255,-5.337
0.229,0.065,0.255,-5.337
0.170,0.068,0.257,-5.337
0.187,0.068,0.259,-5.337
0.171,0.071,0.259,-5.337
0.181,0.070,0.258,-5.337
0.198,0.070,0.256,-5.337
0.230,0.070,0.256,-5.337
0.233,0.071,0.258,-5.337
0.219,0.070,0.259,-5.337
0.190,0.067,0.259,-5.337
0.204,0.070,0.260,-5.337
0.223,0.066,0.262,-5.337
0.242,0.069,0.264,-5.337
0.189,0.069,0.264,-5.337
0.213,0.065,0.260,-5.337
0.253,0.064,0.257,-5.337
0.241,0.063,0.256,-5.337
0.229,0.064,0.257,-5.337
0.222,0.067,0.259,-5.337
0.212,0.065,0.260,-5.337
0.252,0.062,0.261,-5.337
0.298,0.062,0.257,-5.337
0.237,0.065,0.255,-5.337
0.189,0.065,0.254,-5.337
0.205,0.066,0.256,-5.337
0.197,0.063,0.256,-5.337
0.192,0.063,0.253,-5.337
0.143,0.065,0.254,-5.337
0.110,0.066,0.259,-5.337
0.163,0.069,0.266,-5.337
0.140,0.070,0.267,-5.337
0.152,0.067,0.265,-5.337
0.278,0.064,0.261,-5.337
0.318,0.066,0.261,-5.337
0.264,0.069,0.260,-5.337
0.208,0.069,0.259,-5.337
0.263,0.064,0.256,-5.337
0.304,0.066,0.255,-5.337
0.177,0.069,0.259,-5.337
0.125,0.071,0.266,-5.337
0.210,0.067,0.265,-5.337
0.243,0.065,0.261,-5.337
0.216,0.064,0.258,-5.337
0.238,0.067,0.258,-5.337
0.209,0.068,0.262,-5.337
0.174,0.068,0.263,-5.337
0.126,0.068,0.257,-5.337
0.101,0.068,0.254,-5.337
0.208,0.062,0.256,-5.337
0.285,0.060,0.256,-5.337
0.277,0.062,0.258,-5.337
0.225,0.066,0.259,-5.337
0.189,0.063,0.261,-5.337
0.228,0.059,0.258,-5.337
0.255,0.060,0.257,-5.337
0.236,0.063,0.257,-5.337
0.224,0.063,0.262,-5.337
0.180,0.063,0.263,-5.337
0.132,0.062,0.260,-5.337
0.152,0.062,0.253,-5.337
0.186,0.064,0.250,-5.337
0.124,0.064,0.255,-5.337
0.146,0.064,0.257,-5.337
0.175,0.066,0.260,-5.337
0.156,0.066,0.263,-5.337
0.113,0.068,0.264,-5.337
0.122,0.066,0.261,-5.337
0.176,0.067,0.257,-5.337
0.163,0.068,0.261,-5.337
0.174,0.071,0.266,-5.337
0.202,0.072,0.267,-5.337
0.179,0.072,0.263,-5.337
0.203,0.070,0.257,-5.337
0.262,0.067,0.255,-5.337
0.297,0.066,0.259,-5.337
0.273,0.066,0.265,-5.337
0.220,0.067,0.264,-5.337
0.220,0.068,0.264,-5.337
0.235,0.070,0.260,-5.337
0.161,0.075,0.256,-5.337
0.127,0.073,0.252,-5.337
0.108,0.073,0.252,-5.337
0.086,0.069,0.257,-5.337
0.150,0.066,0.263,-5.337
0.169,0.066,0.261,-5.337
0.235,0.065,0.258,-5.337
0.252,0.065,0.259,-5.337
0.176,0.070,0.262,-5.337
0.227,0.067,0.265,-5.337
0.240,0.068,0.261,-5.337
0.211,0.070,0.260,-5.337
0.171,0.072,0.262,-5.337
0.217,0.065,0.263,-5.337
0.231,0.062,0.260,-5.337
0.159,0.063,0.258,-5.337
0.111,0.067,0.259,-5.337
0.118,0.066,0.264,-5.337
0.174,0.061,0.263,-5.337
0.148,0.061,0.263,-5.337
0.211,0.062,0.260,-5.337
0.241,0.063,0.257,-5.337
0.225,0.060,0.259,-5.337
0.176,0.062,0.262,-5.337
0.090,0.062,0.260,-5.337
0.085,0.061,0.260,-5.337
0.187,0.059,0.261,-5.337
0.253,0.058,0.262,-5.337
0.242,0.057,0.260,-5.337
0.225,0.056,0.260,-5.337
0.211,0.056,0.260,-5.337
0.151,0.061,0.259,-5.337
0.136,0.060,0.263,-5.337
0.207,0.058,0.263,-5.337
0.249,0.060,0.263,-5.337
0.276,0.059,0.259,-5.337
0.272,0.059,0.260,-5.337
0.225,0.060,0.262,-5.337
0.188,0.062,0.262,-5.337
0.195,0.060,0.259,-5.337
0.206,0.061,0.258,-5.337
0.216,0.060,0.260,-5.337
0.155,0.062,0.262,-5.337
0.101,0.061,0.261,-5.337
0.137,0.059,0.260,-5.337
0.157,0.057,0.258,-5.337
0.195,0.054,0.262,-5.337
0.186,0.054,0.266,-5.337
0.212,0.051,0.266,-5.337
0.255,0.051,0.261,-5.337
0.196,0.052,0.261,-5.337
0.182,0.054,0.264,-5.337
0.212,0.057,0.264,-5.337
0.187,0.058,0.260,-5.337
0.180,0.053,0.259,-5.337
0.232,0.051,0.262,-5.337
0.245,0.055,0.259,-5.337
0.224,0.058,0.258,-5.337
0.204,0.057,0.255,-5.337
0.204,0.053,0.257,-5.337
0.205,0.054,0.258,-5.337
0.214,0.052,0.260,-5.337
0.158,0.054,0.259,-5.337
0.165,0.054,0.260,-5.337
0.226,0.050,0.265,-5.337
0.245,0.050,0.266,-5.337
0.273,0.051,0.262,-5.337
0.219,0.054,0.260,-5.337
0.165,0.055,0.255,-5.337
0.226,0.055,0.253,-5.337
0.190,0.054,0.254,-5.337
0.170,0.056,0.258,-5.337
0.188,0.055,0.264,-5.337
0.251,0.054,0.263,-5.337
0.293,0.054,0.259,-5.337
0.162,0.056,0.256,-5.337
0.084,0.056,0.258,-5.337
0.104,0.056,0.259,-5.337
0.121,0.053,0.260,-5.337
0.183,0.053,0.262,-5.337
0.228,0.051,0.262,-5.337
0.206,0.054,0.262,-5.337
0.140,0.057,0.263,-5.337
0.105,0.056,0.257,-5.337
0.149,0.053,0.251,-5.337
0.130,0.051,0.252,-5.337
0.165,0.053,0.257,-5.337
0.182,0.051,0.260,-5.337
0.219,0.049,0.259,-5.337
0.211,0.049,0.258,-5.337
0.142,0.052,0.260,-5.337
0.117,0.055,0.259,-5.337
0.140,0.055,0.258,-5.337
0.181,0.052,0.261,-5.337
0.237,0.052,0.262,-5.337
0.248,0.051,0.263,-5.337
0.230,0.048,0.263,-5.337
0.223,0.049,0.262,-5.337
0.120,0.055,0.257,-5.337
0.065,0.060,0.257,-5.337
0.159,0.056,0.255,-5.337
0.228,0.053,0.254,-5.337
0.250,0.053,0.256,-5.337
0.224,0.055,0.260,-5.337
0.162,0.053,0.257,-5.337
0.144,0.051,0.259,-5.337
0.184,0.050,0.261,-5.337
0.132,0.049,0.264,-5.337
0.162,0.047,0.267,-5.337
0.177,0.048,0.264,-5.337
0.186,0.048,0.259,-5.337
0.164,0.051,0.259,-5.337
0.207,0.046,0.257,-5.337
0.238,0.046,0.258,-5.337
0.231,0.043,0.258,-5.337
0.162,0.050,0.258,-5.337
0.119,0.047,0.260,-5.337
0.224,0.044,0.261,-5.337
0.344,0.041,0.258,-5.337
0.298,0.048,0.254,-5.337
0.202,0.048,0.257,-5.337
0.274,0.046,0.257,-5.337
0.249,0.047,0.254,-5.337
0.189,0.045,0.253,-5.337
0.182,0.044,0.259,-5.337
0.199,0.043,0.265,-5.337
0.194,0.045,0.269,-5.337
0.130,0.048,0.270,-5.337
0.140,0.047,0.266,-5.337
0.203,0.046,0.260,-5.337
0.253,0.048,0.255,-5.337
0.220,0.050,0.251,-5.337
0.143,0.048,0.253,-5.337
0.165,0.046,0.258,-5.337
0.152,0.046,0.266,-5.337
0.186,0.042,0.267,-5.337
0.286,0.039,0.266,-5.337
0.252,0.042,0.260,-5.337
0.125,0.044,0.256,-5.337
0.150,0.041,0.257,-5.337
0.211,0.042,0.258,-5.337
0.224,0.042,0.261,-5.337
0.148,0.045,0.265,-5.337
0.141,0.044,0.267,-5.337
0.180,0.043,0.263,-5.337
0.145,0.044,0.258,-5.337
0.082,0.047,0.255,-5.337
0.103,0.045,0.255,-5.337
0.156,0.046,0.255,-5.337
0.239,0.042,0.256,-5.337
0.252,0.045,0.259,-5.337
0.182,0.046,0.262,-5.337
0.121,0.044,0.258,-5.337
0.137,0.043,0.257,-5.337
0.191,0.044,0.261,-5.337
0.180,0.045,0.265,-5.337
0.151,0.047,0.265,-5.337
0.175,0.045,0.263,-5.337
0.293,0.038,0.261,-5.337
0.300,0.039,0.256,-5.337
0.174,0.046,0.252,-5.337
0.137,0.047,0.255,-5.337
0.173,0.043,0.262,-5.337
0.154,0.043,0.266,-5.337
0.104,0.046,0.266,-5.337
0.146,0.047,0.261,-5.337
0.204,0.045,0.260,-5.337
0.253,0.045,0.259,-5.337
0.304,0.044,0.258,-5.337
0.280,0.045,0.255,-5.337
0.189,0.047,0.258,-5.337
0.142,0.044,0.260,-5.337
0.186,0.048,0.258,-5.337
0.190,0.050,0.259,-5.337
0.167,0.047,0.262,-5.337
0.251,0.045,0.266,-5.337
0.262,0.045,0.266,-5.337
0.191,0.047,0.262,-5.337
0.178,0.046,0.261,-5.337
0.213,0.047,0.261,-5.337
0.173,0.047,0.261,-5.337
0.115,0.047,0.258,-5.337
0.075,0.049,0.255,-5.337
0.065,0.049,0.258,-5.337
0.149,0.045,0.256,-5.337
0.146,0.045,0.260,-5.337
0.083,0.045,0.263,-5.337
0.136,0.045,0.262,-5.337
0.215,0.042,0.256,-5.337
0.245,0.040,0.253,-5.337
0.213,0.042,0.256,-5.337
0.157,0.048,0.261,-5.337
0.175,0.044,0.258,-5.337
0.154,0.044,0.253,-5.337
0.110,0.043,0.253,-5.337
0.180,0.038,0.255,-5.337
0.196,0.038,0.259,-5.337
0.204,0.037,0.261,-5.337
0.239,0.038,0.260,-5.337
0.236,0.042,0.261,-5.337
0.199,0.043,0.264,-5.337
0.215,0.042,0.263,-5.337
0.199,0.041,0.261,-5.337
0.202,0.042,0.256,-5.337
0.245,0.042,0.256,-5.337
0.214,0.042,0.256,-5.337
0.177,0.041,0.259,-5.337
0.123,0.041,0.258,-5.337
0.134,0.044,0.260,-5.337
0.167,0.041,0.256,-5.337
0.204,0.038,0.253,-5.337
0.195,0.043,0.253,-5.337
0.095,0.052,0.258,-5.337
0.046,0.048,0.261,-5.337
0.143,0.040,0.260,-5.337
0.200,0.041,0.258,-5.337
0.206,0.041,0.261,-5.337
0.175,0.044,0.260,-5.337
0.180,0.047,0.261,-5.337
0.176,0.048,0.258,-5.337
0.185,0.046,0.255,-5.337
0.199,0.042,0.255,-5.337
0.215,0.043,0.257,-5.337
0.202,0.046,0.257,-5.337
0.173,0.048,0.255,-5.337
0.185,0.047,0.257,-5.337
0.202,0.042,0.258,-5.337
0.156,0.042,0.259,-5.337
0.136,0.044,0.258,-5.337
0.116,0.048,0.262,-5.337
0.115,0.051,0.263,-5.337
0.182,0.046,0.262,-5.337
0.155,0.042,0.256,-5.337
0.114,0.044,0.255,-5.337
0.144,0.046,0.259,-5.337
0.170,0.045,0.262,-5.337
0.110,0.045,0.258,-5.337
0.188,0.043,0.254,-5.337
0.264,0.040,0.255,-5.337
0.238,0.041,0.255,-5.337
0.105,0.046,0.257,-5.337
0.130,0.042,0.260,-5.337
0.173,0.040,0.259,-5.337
0.136,0.043,0.255,-5.337
0.159,0.041,0.256,-5.337
0.186,0.042,0.259,-5.337
0.174,0.043,0.257,-5.337
0.176,0.042,0.257,-5.337
0.185,0.040,0.262,-5.337
0.196,0.040,0.260,-5.337
0.182,0.041,0.258,-5.337
0.156,0.042,0.255,-5.337
0.202,0.037,0.260,-5.337
0.291,0.036,0.264,-5.337
0.310,0.038,0.264,-5.337
0.268,0.038,0.260,-5.337
0.190,0.038,0.257,-5.337
0.248,0.034,0.254,-5.337
0.279,0.037,0.254,-5.337
0.241,0.037,0.255,-5.337
0.146,0.042,0.255,-5.337
0.132,0.043,0.253,-5.337
0.168,0.043,0.256,-5.337
0.110,0.045,0.258,-5.337
0.118,0.044,0.261,-5.337
0.192,0.042,0.258,-5.337
0.204,0.043,0.255,-5.337
0.155,0.046,0.255,-5.337
0.189,0.047,0.258,-5.337
0.217,0.047,0.261,-5.337
0.199,0.044,0.261,-5.337
0.216,0.041,0.261,-5.337
0.218,0.046,0.259,-5.337
0.181,0.047,0.256,-5.337
0.194,0.043,0.253,-5.337
0.199,0.044,0.256,-5.337
0.166,0.042,0.260,-5.337
0.186,0.044,0.263,-5.337
0.185,0.043,0.260,-5.337
0.274,0.039,0.254,-5.337
0.243,0.044,0.251,-5.337
0.169,0.048,0.255,-5.337
0.182,0.046,0.260,-5.337
0.161,0.047,0.260,-5.337
0.109,0.051,0.257,-5.337
0.136,0.050,0.258,-5.337
0.155,0.049,0.260,-5.337
0.164,0.050,0.260,-5.337
0.105,0.049,0.256,-5.337
0.068,0.052,0.253,-5.337
0.092,0.049,0.251,-5.337
0.147,0.049,0.252,-5.337
0.208,0.046,0.260,-5.337
0.203,0.048,0.264,-5.337
0.155,0.050,0.266,-5.337
0.138,0.049,0.259,-5.337
0.189,0.045,0.253,-5.337
0.200,0.048,0.257,-5.337
0.267,0.046,0.258,-5.337
0.310,0.043,0.257,-5.337
0.288,0.046,0.254,-5.337
0.197,0.046,0.254,-5.337
0.157,0.048,0.259,-5.337
0.124,0.051,0.263,-5.337
0.144,0.047,0.260,-5.337
0.206,0.047,0.255,-5.337
0.199,0.050,0.257,-5.337
0.124,0.052,0.264,-5.337
0.086,0.052,0.265,-5.337
0.123,0.049,0.263,-5.337
0.131,0.053,0.260,-5.337
0.178,0.054,0.263,-5.337
0.238,0.050,0.261,-5.337
0.197,0.051,0.258,-5.337
0.112,0.053,0.252,-5.337
0.107,0.049,0.255,-5.337
0.169,0.048,0.259,-5.337
0.204,0.051,0.261,-5.337
0.172,0.047,0.260,-5.337
0.183,0.047,0.259,-5.337
0.183,0.046,0.256,-5.337
0.198,0.048,0.252,-5.337
0.187,0.048,0.256,-5.337
0.255,0.051,0.258,-5.337
0.225,0.054,0.262,-5.337
0.160,0.053,0.257,-5.337
0.124,0.052,0.253,-5.337
0.222,0.051,0.252,-5.337
0.304,0.052,0.255,-5.337
0.211,0.053,0.255,-5.337
0.121,0.053,0.252,-5.337
0.124,0.054,0.249,-5.337
0.132,0.054,0.256,-5.337
0.168,0.052,0.257,-5.337
0.172,0.055,0.255,-5.337
0.178,0.053,0.255,-5.337
0.232,0.055,0.257,-5.337
0.254,0.055,0.256,-5.337
0.289,0.055,0.255,-5.337
0.281,0.055,0.253,-5.337
0.249,0.057,0.252,-5.337
0.198,0.057,0.258,-5.337
0.215,0.057,0.261,-5.337
0.165,0.054,0.260,-5.337
0.151,0.054,0.256,-5.337
0.175,0.055,0.253,-5.337
0.164,0.054,0.255,-5.337
0.107,0.055,0.259,-5.337
0.138,0.051,0.259,-5.337
0.181,0.053,0.254,-5.337
0.156,0.054,0.250,-5.337
0.124,0.057,0.252,-5.337
0.137,0.054,0.259,-5.337
0.178,0.052,0.261,-5.337
0.155,0.051,0.258,-5.337
0.152,0.052,0.257,-5.337
0.173,0.051,0.256,-5.337
0.233,0.053,0.255,-5.337
0.261,0.051,0.253,-5.337
0.207,0.053,0.256,-5.337
0.195,0.056,0.259,-5.337
0.178,0.059,0.259,-5.337
0.162,0.058,0.256,-5.337
0.187,0.061,0.254,-5.337
0.145,0.059,0.253,-5.337
0.093,0.062,0.254,-5.337
0.143,0.059,0.257,-5.337
0.249,0.056,0.253,-5.337
0.228,0.057,0.250,-5.337
0.208,0.065,0.254,-5.337
0.216,0.065,0.257,-5.337
0.174,0.063,0.258,-5.337
0.206,0.058,0.257,-5.337
0.198,0.058,0.259,-5.337
0.105,0.063,0.260,-5.337
0.096,0.062,0.260,-5.337
0.149,0.062,0.258,-5.337
0.209,0.064,0.254,-5.337
0.168,0.067,0.253,-5.337
0.192,0.062,0.256,-5.337
0.225,0.059,0.260,-5.337
0.231,0.060,0.259,-5.337
0.206,0.065,0.255,-5.337
0.214,0.066,0.255,-5.337
0.196,0.066,0.255,-5.337
0.159,0.064,0.253,-5.337
0.153,0.063,0.255,-5.337
0.192,0.064,0.257,-5.337
0.253,0.064,0.255,-5.337
0.251,0.064,0.253,-5.337
0.245,0.064,0.255,-5.337
0.153,0.066,0.258,-5.337
0.074,0.065,0.259,-5.337
0.108,0.064,0.259,-5.337
0.134,0.067,0.258,-5.337
0.183,0.067,0.256,-5.337
0.204,0.067,0.254,-5.337
0.208,0.067,0.254,-5.337
0.180,0.065,0.257,-5.337
0.126,0.064,0.261,-5.337
0.135,0.063,0.259,-5.337
0.173,0.061,0.255,-5.337
0.244,0.061,0.255,-5.337
0.231,0.066,0.257,-5.337
0.147,0.067,0.258,-5.337
0.096,0.068,0.259,-5.337
0.112,0.068,0.259,-5.337
0.171,0.065,0.258,-5.337
0.204,0.065,0.257,-5.337
0.124,0.069,0.256,-5.337
0.105,0.071,0.254,-5.337
0.154,0.070,0.253,-5.337
0.201,0.065,0.255,-5.337
0.282,0.062,0.258,-5.337
0.303,0.063,0.256,-5.337
0.215,0.068,0.252,-5.337
0.214,0.067,0.254,-5.337
0.209,0.065,0.261,-5.337
0.272,0.064,0.262,-5.337
0.252,0.067,0.257,-5.337
0.168,0.070,0.255,-5.337
0.204,0.065,0.255,-5.337
0.207,0.067,0.257,-5.337
0.187,0.068,0.257,-5.337
0.187,0.067,0.257,-5.337
0.190,0.065,0.260,-5.337
0.185,0.067,0.263,-5.337
0.144,0.067,0.262,-5.337
0.179,0.067,0.261,-5.337
0.190,0.071,0.262,-5.337
0.225,0.068,0.264,-5.337
0.232,0.065,0.259,-5.337
0.163,0.065,0.254,-5.337
0.181,0.066,0.253,-5.337
0.166,0.067,0.257,-5.337
0.094,0.070,0.262,-5.337
0.105,0.068,0.266,-5.337
0.125,0.070,0.261,-5.337
0.096,0.072,0.255,-5.337
0.099,0.071,0.255,-5.337
0.175,0.066,0.254,-5.337
0.248,0.063,0.251,-5.337
0.267,0.064,0.254,-5.337
0.211,0.067,0.255,-5.337
0.161,0.067,0.254,-5.337
0.205,0.067,0.257,-5.337
0.225,0.069,0.260,-5.337
0.230,0.072,0.257,-5.337
0.254,0.067,0.253,-5.337
0.230,0.069,0.250,-5.337
0.239,0.071,0.254,-5.337
0.184,0.071,0.261,-5.337
0.157,0.070,0.262,-5.337
0.122,0.071,0.259,-5.337
0.111,0.072,0.257,-5.337
0.101,0.068,0.255,-5.337
0.098,0.066,0.253,-5.337
0.130,0.066,0.254,-5.337
0.162,0.067,0.252,-5.337
0.236,0.067,0.249,-5.337
0.238,0.065,0.253,-5.337
0.241,0.066,0.256,-5.337
0.234,0.069,0.262,-5.337
0.249,0.069,0.259,-5.337
0.206,0.069,0.255,-5.337
0.186,0.069,0.254,-5.337
0.181,0.072,0.259,-5.337
0.225,0.071,0.259,-5.337
0.143,0.074,0.254,-5.337
0.053,0.072,0.249,-5.337
0.144,0.068,0.251,-5.337
0.233,0.069,0.253,-5.337
0.150,0.076,0.256,-5.337
0.073,0.073,0.257,-5.337
0.221,0.067,0.258,-5.337
0.288,0.067,0.256,-5.337
0.247,0.069,0.253,-5.337
0.185,0.068,0.253,-5.337
0.193,0.067,0.253,-5.337
0.241,0.064,0.256,-5.337
0.251,0.064,0.256,-5.337
0.192,0.068,0.258,-5.337
0.198,0.068,0.258,-5.337
0.192,0.072,0.261,-5.337
0.158,0.074,0.256,-5.337
0.189,0.068,0.255,-5.337
0.210,0.067,0.255,-5.337
0.185,0.070,0.258,-5.337
0.227,0.071,0.259,-5.337
0.147,0.074,0.260,-5.337
0.072,0.073,0.263,-5.337
0.145,0.070,0.263,-5.337
0.170,0.067,0.259,-5.337
0.191,0.063,0.258,-5.337
0.264,0.064,0.255,-5.337
0.296,0.066,0.254,-5.337
0.305,0.065,0.255,-5.337
0.265,0.066,0.254,-5.337
0.193,0.069,0.256,-5.337
0.187,0.067,0.256,-5.337
0.203,0.066,0.255,-5.337
0.155,0.070,0.253,-5.337
0.152,0.069,0.256,-5.337
0.194,0.068,0.258,-5.337
0.174,0.068,0.259,-5.337
0.134,0.067,0.257,-5.337
0.149,0.065,0.257,-5.337
0.192,0.065,0.254,-5.337
0.193,0.064,0.249,-5.337
0.234,0.065,0.249,-5.337
0.233,0.067,0.252,-5.337
0.216,0.063,0.257,-5.337
0.285,0.055,0.258,-5.337
0.302,0.054,0.260,-5.337
0.255,0.057,0.262,-5.337
0.226,0.061,0.261,-5.337
0.192,0.061,0.258,-5.337
0.209,0.061,0.255,-5.337
0.156,0.065,0.255,-5.337
0.102,0.063,0.257,-5.337
0.046,0.062,0.262,-5.337
0.111,0.060,0.262,-5.337
0.209,0.059,0.258,-5.337
0.208,0.057,0.257,-5.337
0.252,0.055,0.251,-5.337
0.228,0.058,0.249,-5.337
0.184,0.056,0.254,-5.337
0.197,0.054,0.258,-5.337
0.224,0.056,0.259,-5.337
0.166,0.059,0.257,-5.337
0.207,0.060,0.256,-5.337
0.244,0.059,0.258,-5.337
0.184,0.061,0.257,-5.337
0.123,0.063,0.260,-5.337
0.164,0.061,0.260,-5.337
0.210,0.060,0.256,-5.337
0.157,0.057,0.252,-5.337
0.180,0.053,0.254,-5.337
0.227,0.052,0.256,-5.337
0.227,0.054,0.261,-5.337
0.216,0.058,0.264,-5.337
0.160,0.062,0.262,-5.337
0.167,0.059,0.258,-5.337
0.209,0.055,0.258,-5.337
0.223,0.056,0.260,-5.337
0.193,0.057,0.261,-5.337
0.185,0.056,0.258,-5.337
0.276,0.053,0.255,-5.337
0.288,0.058,0.256,-5.337
0.136,0.062,0.255,-5.337
0.112,0.061,0.258,-5.337
0.154,0.057,0.262,-5.337
0.221,0.056,0.263,-5.337
0.260,0.057,0.259,-5.337
0.177,0.060,0.255,-5.337
0.158,0.061,0.253,-5.337
0.197,0.056,0.255,-5.337
0.235,0.054,0.259,-5.337
0.176,0.055,0.261,-5.337
0.151,0.055,0.259,-5.337
0.233,0.049,0.258,-5.337
0.273,0.052,0.258,-5.337
0.214,0.054,0.260,-5.337
0.155,0.057,0.262,-5.337
0.115,0.057,0.258,-5.337
0.221,0.053,0.256,-5.337
0.254,0.050,0.255,-5.337
0.220,0.051,0.258,-5.337
0.170,0.053,0.255,-5.337
0.254,0.050,0.257,-5.337
0.314,0.046,0.256,-5.337
0.207,0.050,0.257,-5.337
0.166,0.050,0.256,-5.337
0.164,0.053,0.255,-5.337
0.152,0.048,0.258,-5.337
0.192,0.048,0.258,-5.337
0.259,0.047,0.257,-5.337
0.257,0.051,0.258,-5.337
0.245,0.051,0.260,-5.337
0.185,0.054,0.260,-5.337
0.157,0.053,0.261,-5.337
0.188,0.052,0.262,-5.337
0.245,0.053,0.264,-5.337
0.225,0.053,0.263,-5.337
0.251,0.053,0.260,-5.337
0.211,0.055,0.255,-5.337
0.164,0.052,0.256,-5.337
0.145,0.054,0.258,-5.337
0.112,0.055,0.258,-5.337
0.137,0.054,0.254,-5.337
0.168,0.055,0.256,-5.337
0.225,0.055,0.258,-5.337
0.270,0.052,0.258,-5.337
0.236,0.048,0.259,-5.337
0.220,0.049,0.258,-5.337
0.189,0.050,0.255,-5.337
0.163,0.054,0.251,-5.337
0.210,0.053,0.253,-5.337
0.219,0.052,0.257,-5.337
0.171,0.049,0.261,-5.337
0.146,0.051,0.259,-5.337
0.121,0.050,0.257,-5.337
0.213,0.047,0.257,-5.337
0.270,0.047,0.258,-5.337
0.296,0.046,0.258,-5.337
0.244,0.048,0.260,-5.337
0.237,0.049,0.260,-5.337
0.226,0.051,0.257,-5.337
0.225,0.052,0.253,-5.337
0.238,0.052,0.258,-5.337
0.212,0.051,0.262,-5.337
0.169,0.053,0.260,-5.337
0.146,0.055,0.255,-5.337
0.134,0.053,0.252,-5.337
0.207,0.051,0.255,-5.337
0.135,0.052,0.260,-5.337
0.100,0.049,0.259,-5.337
0.182,0.045,0.254,-5.337
0.264,0.043,0.254,-5.337
0.198,0.049,0.256,-5.337
0.139,0.052,0.256,-5.337
0.158,0.052,0.256,-5.337
0.176,0.051,0.255,-5.337
0.204,0.047,0.256,-5.337
0.223,0.045,0.256,-5.337
0.181,0.049,0.259,-5.337
0.178,0.047,0.261,-5.337
0.240,0.050,0.262,-5.337
0.305,0.048,0.261,-5.337
0.215,0.049,0.260,-5.337
0.164,0.046,0.260,-5.337
0.192,0.045,0.254,-5.337
0.253,0.044,0.253,-5.337
0.212,0.044,0.254,-5.337
0.162,0.045,0.256,-5.337
0.231,0.043,0.253,-5.337
0.252,0.046,0.254,-5.337
0.223,0.046,0.257,-5.337
0.163,0.047,0.260,-5.337
0.153,0.045,0.260,-5.337
0.215,0.044,0.257,-5.337
0.202,0.042,0.255,-5.337
0.191,0.043,0.258,-5.337
0.160,0.044,0.257,-5.337
0.109,0.045,0.257,-5.337
0.135,0.046,0.255,-5.337
0.198,0.044,0.257,-5.337
0.229,0.044,0.256,-5.337
0.241,0.044,0.257,-5.337
0.248,0.045,0.256,-5.337
0.244,0.044,0.253,-5.337
0.191,0.045,0.252,-5.337
0.237,0.042,0.256,-5.337
0.271,0.041,0.264,-5.337
0.180,0.044,0.262,-5.337
0.105,0.045,0.254,-5.337
0.163,0.043,0.249,-5.337
0.177,0.043,0.255,-5.337
0.187,0.043,0.260,-5.337
0.165,0.046,0.261,-5.337
0.125,0.044,0.258,-5.337
0.188,0.042,0.255,-5.337
0.293,0.042,0.253,-5.337
0.278,0.043,0.252,-5.337
0.289,0.041,0.251,-5.337
0.312,0.041,0.253,-5.337
0.269,0.040,0.253,-5.337
0.176,0.043,0.259,-5.337
0.102,0.046,0.264,-5.337
0.136,0.041,0.264,-5.337
0.170,0.044,0.264,-5.337
0.166,0.044,0.260,-5.337
0.173,0.042,0.257,-5.337
0.244,0.042,0.255,-5.337
0.207,0.046,0.256,-5.337
0.151,0.047,0.257,-5.337
0.128,0.047,0.256,-5.337
0.192,0.044,0.257,-5.337
0.213,0.047,0.259,-5.337
0.172,0.046,0.259,-5.337
0.161,0.045,0.256,-5.337
0.189,0.042,0.256,-5.337
0.183,0.039,0.255,-5.337
0.176,0.037,0.251,-5.337
0.272,0.039,0.254,-5.337
0.243,0.039,0.262,-5.337
0.164,0.040,0.262,-5.337
0.134,0.043,0.260,-5.337
0.183,0.046,0.259,-5.337
0.196,0.047,0.257,-5.337
0.160,0.046,0.256,-5.337
0.124,0.050,0.255,-5.337
0.108,0.055,0.259,-5.337
0.122,0.050,0.263,-5.337
0.193,0.047,0.265,-5.337
0.186,0.047,0.261,-5.337
0.123,0.047,0.259,-5.337
0.119,0.049,0.259,-5.337
0.150,0.047,0.256,-5.337
0.190,0.044,0.254,-5.337
0.232,0.041,0.254,-5.337
0.225,0.039,0.256,-5.337
0.160,0.041,0.259,-5.337
0.130,0.044,0.259,-5.337
0.216,0.041,0.255,-5.337
0.245,0.042,0.256,-5.337
0.258,0.041,0.257,-5.337
0.260,0.040,0.255,-5.337
0.222,0.043,0.253,-5.337
0.184,0.043,0.252,-5.337
0.224,0.043,0.253,-5.337
0.243,0.044,0.254,-5.337
0.190,0.048,0.258,-5.337
0.143,0.046,0.261,-5.337
0.094,0.047,0.263,-5.337
0.117,0.045,0.259,-5.337
0.151,0.046,0.256,-5.337
0.092,0.046,0.252,-5.337
0.108,0.044,0.251,-5.337
0.221,0.042,0.252,-5.337
0.245,0.045,0.257,-5.337
0.155,0.045,0.257,-5.337
0.141,0.045,0.255,-5.337
0.208,0.044,0.256,-5.337
0.226,0.045,0.257,-5.337
0.199,0.049,0.257,-5.337
0.199,0.047,0.256,-5.337
0.226,0.042,0.254,-5.337
0.185,0.045,0.255,-5.337
0.179,0.043,0.258,-5.337
0.145,0.041,0.256,-5.337
0.185,0.044,0.257,-5.337
0.248,0.046,0.260,-5.337
0.250,0.039,0.262,-5.337
0.209,0.038,0.261,-5.337
0.192,0.042,0.257,-5.337
0.204,0.044,0.254,-5.337
0.156,0.043,0.255,-5.337
0.154,0.042,0.254,-5.337
0.153,0.045,0.253,-5.337
0.191,0.046,0.250,-5.337
0.245,0.044,0.252,-5.337
0.248,0.038,0.257,-5.337
0.153,0.043,0.261,-5.337
0.059,0.048,0.258,-5.337
0.062,0.045,0.253,-5.337
0.167,0.041,0.251,-5.337
0.226,0.040,0.253,-5.337
0.264,0.039,0.253,-5.337
0.259,0.042,0.255,-5.337
0.218,0.044,0.256,-5.337
0.206,0.041,0.257,-5.337
0.244,0.039,0.256,-5.337
0.291,0.037,0.254,-5.337
0.283,0.038,0.252,-5.337
0.252,0.039,0.253,-5.337
0.217,0.040,0.256,-5.337
0.207,0.045,0.259,-5.337
0.262,0.043,0.263,-5.337
0.213,0.041,0.261,-5.337
0.213,0.040,0.259,-5.337
0.248,0.037,0.255,-5.337
0.162,0.041,0.254,-5.337
0.083,0.043,0.252,-5.337
0.084,0.050,0.253,-5.337
0.099,0.044,0.255,-5.337
0.168,0.042,0.254,-5.337
0.183,0.040,0.254,-5.337
0.197,0.046,0.254,-5.337
0.122,0.046,0.255,-5.337
0.110,0.046,0.258,-5.337
0.138,0.047,0.258,-5.337
0.169,0.052,0.256,-5.337
0.192,0.053,0.253,-5.337
0.117,0.054,0.254,-5.337
0.086,0.054,0.256,-5.337
0.147,0.050,0.257,-5.337
0.181,0.048,0.257,-5.337
0.119,0.051,0.252,-5.337
0.143,0.051,0.252,-5.337
0.177,0.048,0.255,-5.337
0.181,0.047,0.258,-5.337
0.182,0.046,0.257,-5.337
0.110,0.052,0.258,-5.337
0.056,0.054,0.257,-5.337
0.095,0.053,0.255,-5.337
0.162,0.049,0.252,-5.337
0.187,0.051,0.255,-5.337
0.158,0.050,0.259,-5.337
0.130,0.052,0.260,-5.337
0.173,0.048,0.259,-5.337
0.252,0.046,0.258,-5.337
0.263,0.048,0.257,-5.337
0.217,0.049,0.254,-5.337
0.172,0.046,0.252,-5.337
0.207,0.045,0.256,-5.337
0.300,0.045,0.259,-5.337
0.265,0.046,0.258,-5.337
0.205,0.047,0.254,-5.337
0.216,0.048,0.251,-5.337
0.232,0.050,0.253,-5.337
0.149,0.051,0.257,-5.337
0.106,0.051,0.261,-5.337
0.101,0.049,0.258,-5.337
0.247,0.043,0.255,-5.337
0.365,0.044,0.253,-5.337
0.361,0.049,0.257,-5.337
0.302,0.050,0.256,-5.337
0.227,0.051,0.257,-5.337
0.180,0.051,0.257,-5.337
0.155,0.051,0.257,-5.337
0.215,0.050,0.256,-5.337
0.247,0.049,0.254,-5.337
0.219,0.051,0.254,-5.337
0.172,0.049,0.258,-5.337
0.129,0.053,0.259,-5.337
0.155,0.053,0.257,-5.337
0.191,0.054,0.253,-5.337
0.191,0.051,0.256,-5.337
0.231,0.051,0.256,-5.337
0.157,0.055,0.256,-5.337
0.107,0.054,0.256,-5.337
0.141,0.053,0.256,-5.337
0.156,0.055,0.256,-5.337
0.155,0.058,0.259,-5.337
0.121,0.058,0.261,-5.337
0.161,0.052,0.257,-5.337
0.216,0.052,0.257,-5.337
0.237,0.054,0.256,-5.337
0.233,0.056,0.255,-5.337
0.170,0.058,0.253,-5.337
0.185,0.055,0.253,-5.337
0.229,0.052,0.254,-5.337
0.199,0.056,0.255,-5.337
0.203,0.055,0.255,-5.337
0.213,0.054,0.258,-5.337
0.230,0.053,0.264,-5.337
0.243,0.056,0.264,-5.337
0.229,0.054,0.257,-5.337
0.175,0.056,0.254,-5.337
0.161,0.055,0.255,-5.337
0.202,0.055,0.257,-5.337
0.246,0.056,0.260,-5.337
0.237,0.058,0.261,-5.337
0.249,0.060,0.262,-5.337
0.281,0.059,0.259,-5.337
0.267,0.058,0.257,-5.337
0.255,0.057,0.257,-5.337
0.267,0.060,0.259,-5.337
0.224,0.060,0.257,-5.337
0.172,0.057,0.257,-5.337
0.197,0.053,0.259,-5.337
0.220,0.054,0.259,-5.337
0.201,0.055,0.257,-5.337
0.222,0.054,0.252,-5.337
0.197,0.053,0.251,-5.337
0.176,0.054,0.254,-5.337
0.226,0.059,0.256,-5.337
0.348,0.057,0.255,-5.337
0.317,0.057,0.256,-5.337
0.189,0.059,0.255,-5.337
0.110,0.057,0.256,-5.337
0.188,0.056,0.255,-5.337
0.197,0.059,0.257,-5.337
0.148,0.062,0.255,-5.337
0.111,0.065,0.256,-5.337
0.078,0.065,0.257,-5.337
0.094,0.064,0.260,-5.337
0.176,0.062,0.257,-5.337
0.256,0.063,0.257,-5.337
0.267,0.061,0.255,-5.337
0.194,0.059,0.256,-5.337
0.136,0.059,0.257,-5.337
0.117,0.063,0.255,-5.337
0.157,0.062,0.256,-5.337
0.167,0.063,0.261,-5.337
0.138,0.064,0.259,-5.337
0.182,0.061,0.255,-5.337
0.233,0.057,0.254,-5.337
0.216,0.057,0.256,-5.337
0.161,0.060,0.253,-5.337
0.155,0.060,0.251,-5.337
0.162,0.059,0.252,-5.337
0.168,0.058,0.254,-5.337
0.175,0.063,0.255,-5.337
0.206,0.062,0.255,-5.337
0.231,0.062,0.255,-5.337
0.185,0.061,0.259,-5.337
0.176,0.060,0.259,-5.337
0.207,0.061,0.254,-5.337
0.221,0.062,0.253,-5.337
0.194,0.058,0.250,-5.337
0.220,0.060,0.251,-5.337
0.272,0.060,0.257,-5.337
0.302,0.060,0.259,-5.337
0.264,0.059,0.256,-5.337
0.226,0.060,0.257,-5.337
0.207,0.057,0.257,-5.337
0.177,0.056,0.256,-5.337
0.187,0.056,0.255,-5.337
0.207,0.058,0.255,-5.337
0.205,0.059,0.258,-5.337
0.187,0.060,0.255,-5.337
0.191,0.061,0.254,-5.337
0.169,0.059,0.260,-5.337
0.191,0.055,0.261,-5.337
0.192,0.056,0.258,-5.337
0.170,0.060,0.258,-5.337
0.254,0.058,0.257,-5.337
0.294,0.060,0.254,-5.337
0.218,0.062,0.252,-5.337
0.148,0.061,0.254,-5.337
0.099,0.062,0.258,-5.337
0.094,0.061,0.260,-5.337
0.100,0.062,0.258,-5.337
0.144,0.064,0.254,-5.337
0.120,0.064,0.252,-5.337
0.180,0.063,0.252,-5.337
0.201,0.063,0.255,-5.337
0.210,0.059,0.252,-5.337
0.192,0.060,0.255,-5.337
0.188,0.060,0.260,-5.337
0.269,0.060,0.259,-5.337
0.249,0.063,0.256,-5.337
0.191,0.065,0.253,-5.337
0.212,0.063,0.254,-5.337
0.316,0.059,0.257,-5.337
0.336,0.059,0.254,-5.337
0.178,0.063,0.251,-5.337
0.101,0.063,0.251,-5.337
0.132,0.062,0.253,-5.337
0.134,0.064,0.254,-5.337
0.181,0.061,0.255,-5.337
0.245,0.057,0.256,-5.337
0.246,0.062,0.257,-5.337
0.223,0.064,0.259,-5.337
0.193,0.065,0.260,-5.337
0.195,0.063,0.259,-5.337
0.251,0.059,0.257,-5.337
0.237,0.060,0.258,-5.337
0.167,0.062,0.258,-5.337
0.131,0.065,0.256,-5.337
0.087,0.067,0.255,-5.337
0.136,0.065,0.253,-5.337
0.177,0.065,0.251,-5.337
0.135,0.065,0.252,-5.337
0.164,0.063,0.254,-5.337
0.196,0.061,0.258,-5.337
0.223,0.060,0.259,-5.337
0.217,0.060,0.257,-5.337
0.156,0.065,0.253,-5.337
0.101,0.065,0.257,-5.337
0.111,0.067,0.259,-5.337
0.108,0.071,0.259,-5.337
0.151,0.070,0.259,-5.337
0.222,0.069,0.262,-5.337
0.220,0.064,0.261,-5.337
0.173,0.067,0.257,-5.337
0.202,0.066,0.255,-5.337
0.218,0.067,0.256,-5.337
0.207,0.068,0.259,-5.337
0.188,0.067,0.261,-5.337
0.124,0.069,0.259,-5.337
0.086,0.068,0.256,-5.337
0.117,0.068,0.252,-5.337
0.121,0.068,0.252,-5.337
0.185,0.068,0.258,-5.337
0.224,0.069,0.259,-5.337
0.185,0.066,0.260,-5.337
0.244,0.065,0.258,-5.337
0.312,0.067,0.257,-5.337
0.283,0.066,0.255,-5.337
0.204,0.066,0.255,-5.337
0.219,0.064,0.254,-5.337
0.201,0.067,0.254,-5.337
0.185,0.066,0.254,-5.337
0.235,0.064,0.257,-5.337
0.252,0.061,0.258,-5.337
0.241,0.064,0.254,-5.337
0.244,0.063,0.251,-5.337
0.280,0.064,0.252,-5.337
0.299,0.061,0.255,-5.337
0.223,0.065,0.257,-5.337
0.136,0.067,0.257,-5.337
0.187,0.067,0.257,-5.337
0.233,0.069,0.255,-5.337
0.217,0.070,0.255,-5.337
0.226,0.066,0.256,-5.337
0.297,0.066,0.256,-5.337
0.299,0.067,0.260,-5.337
0.182,0.069,0.264,-5.337
0.160,0.065,0.263,-5.337
0.158,0.065,0.258,-5.337
0.140,0.064,0.256,-5.337
0.204,0.063,0.254,-5.337
0.215,0.063,0.255,-5.337
0.188,0.065,0.256,-5.337
0.229,0.063,0.254,-5.337
0.301,0.059,0.254,-5.337
0.296,0.062,0.255,-5.337
0.221,0.063,0.254,-5.337
0.177,0.064,0.254,-5.337
0.084,0.069,0.256,-5.337
0.046,0.066,0.255,-5.337
0.161,0.062,0.250,-5.337
0.183,0.062,0.251,-5.337
0.095,0.063,0.255,-5.337
0.138,0.060,0.256,-5.337
0.171,0.062,0.252,-5.337
0.141,0.065,0.250,-5.337
0.173,0.059,0.254,-5.337
0.288,0.055,0.256,-5.337
0.256,0.059,0.259,-5.337
0.143,0.061,0.259,-5.337
0.179,0.063,0.258,-5.337
0.241,0.062,0.258,-5.337
0.187,0.062,0.258,-5.337
0.155,0.061,0.258,-5.337
0.176,0.060,0.258,-5.337
0.170,0.057,0.257,-5.337
0.237,0.054,0.257,-5.337
0.249,0.058,0.255,-5.337
0.242,0.058,0.252,-5.337
0.258,0.054,0.251,-5.337
0.262,0.056,0.257,-5.337
0.165,0.061,0.260,-5.337
0.092,0.062,0.259,-5.337
0.142,0.063,0.255,-5.337
0.192,0.061,0.256,-5.337
0.241,0.061,0.260,-5.337
0.232,0.059,0.258,-5.337
0.270,0.062,0.255,-5.337
0.279,0.062,0.257,-5.337
0.197,0.064,0.261,-5.337
0.117,0.067,0.257,-5.337
0.114,0.064,0.252,-5.337
0.213,0.058,0.250,-5.337
0.241,0.057,0.254,-5.337
0.210,0.056,0.252,-5.337
0.230,0.054,0.252,-5.337
0.260,0.052,0.252,-5.337
0.278,0.053,0.252,-5.337
0.271,0.055,0.256,-5.337
0.230,0.057,0.258,-5.337
0.256,0.051,0.259,-5.337
0.312,0.052,0.260,-5.337
0.278,0.053,0.255,-5.337
0.232,0.050,0.253,-5.337
0.246,0.051,0.254,-5.337
0.247,0.051,0.256,-5.337
0.151,0.054,0.257,-5.337
0.171,0.053,0.256,-5.337
0.196,0.055,0.256,-5.337
0.219,0.055,0.257,-5.337
0.172,0.054,0.259,-5.337
0.107,0.055,0.259,-5.337
0.067,0.058,0.260,-5.337
0.087,0.058,0.257,-5.337
0.150,0.057,0.256,-5.337
0.248,0.057,0.255,-5.337
0.231,0.056,0.256,-5.337
0.210,0.051,0.258,-5.337
0.217,0.052,0.257,-5.337
0.173,0.054,0.256,-5.337
0.174,0.058,0.255,-5.337
0.174,0.055,0.255,-5.337
0.184,0.053,0.256,-5.337
0.135,0.054,0.259,-5.337
0.152,0.056,0.257,-5.337
0.205,0.059,0.255,-5.337
0.167,0.056,0.253,-5.337
0.180,0.053,0.253,-5.337
0.191,0.053,0.257,-5.337
0.163,0.054,0.258,-5.337
0.142,0.052,0.258,-5.337
0.172,0.050,0.256,-5.337
0.169,0.050,0.253,-5.337
0.153,0.049,0.255,-5.337
0.160,0.052,0.257,-5.337
0.173,0.052,0.260,-5.337
0.186,0.053,0.261,-5.337
0.146,0.053,0.263,-5.337
0.120,0.053,0.261,-5.337
0.209,0.051,0.258,-5.337
0.279,0.048,0.254,-5.337
0.271,0.047,0.252,-5.337
0.209,0.049,0.255,-5.337
0.154,0.050,0.257,-5.337
0.122,0.050,0.257,-5.337
0.214,0.046,0.257,-5.337
0.274,0.046,0.254,-5.337
0.289,0.043,0.253,-5.337
0.247,0.044,0.255,-5.337
0.224,0.046,0.257,-5.337
0.208,0.048,0.260,-5.337
0.196,0.046,0.259,-5.337
0.188,0.046,0.256,-5.337
0.235,0.045,0.252,-5.337
0.289,0.043,0.257,-5.337
0.271,0.045,0.257,-5.337
0.232,0.047,0.255,-5.337
0.208,0.047,0.257,-5.337
0.177,0.049,0.264,-5.337
0.179,0.047,0.265,-5.337
0.242,0.049,0.260,-5.337
0.215,0.048,0.255,-5.337
0.191,0.048,0.255,-5.337
0.203,0.048,0.255,-5.337
0.205,0.048,0.257,-5.337
0.212,0.048,0.260,-5.337
0.145,0.047,0.259,-5.337
0.083,0.043,0.257,-5.337
0.153,0.041,0.258,-5.337
0.224,0.044,0.259,-5.337
0.195,0.046,0.259,-5.337
0.149,0.046,0.254,-5.337
0.152,0.044,0.254,-5.337
0.117,0.046,0.257,-5.337
0.100,0.046,0.258,-5.337
0.166,0.045,0.258,-5.337
0.204,0.044,0.259,-5.337
0.276,0.043,0.260,-5.337
0.242,0.042,0.256,-5.337
0.153,0.048,0.256,-5.337
0.122,0.047,0.257,-5.337
0.185,0.047,0.258,-5.337
0.215,0.044,0.257,-5.337
0.209,0.044,0.255,-5.337
0.209,0.043,0.255,-5.337
0.200,0.045,0.257,-5.337
0.198,0.049,0.257,-5.337
0.189,0.045,0.255,-5.337
0.242,0.042,0.253,-5.337
0.262,0.045,0.254,-5.337
0.153,0.048,0.255,-5.337
0.118,0.046,0.256,-5.337
0.240,0.039,0.257,-5.337
0.285,0.042,0.259,-5.337
0.157,0.043,0.260,-5.337
0.042,0.044,0.260,-5.337
0.048,0.048,0.259,-5.337
0.126,0.049,0.256,-5.337
0.241,0.044,0.252,-5.337
0.296,0.040,0.251,-5.337
0.249,0.043,0.253,-5.337
0.140,0.045,0.252,-5.337
0.144,0.045,0.257,-5.337
0.210,0.046,0.260,-5.337
0.273,0.045,0.259,-5.337
0.267,0.046,0.258,-5.337
0.193,0.049,0.259,-5.337
0.132,0.047,0.257,-5.337
0.138,0.045,0.259,-5.337
0.143,0.044,0.261,-5.337
0.188,0.043,0.262,-5.337
0.217,0.042,0.255,-5.337
0.220,0.044,0.251,-5.337
0.206,0.046,0.252,-5.337
0.240,0.046,0.255,-5.337
0.274,0.041,0.258,-5.337
0.214,0.044,0.259,-5.337
0.173,0.045,0.259,-5.337
0.167,0.049,0.255,-5.337
0.211,0.051,0.257,-5.337
0.215,0.049,0.260,-5.337
0.154,0.048,0.260,-5.337
0.187,0.045,0.259,-5.337
0.203,0.049,0.257,-5.337
0.174,0.051,0.255,-5.337
0.091,0.052,0.258,-5.337
0.054,0.046,0.258,-5.337
0.182,0.043,0.261,-5.337
0.225,0.041,0.262,-5.337
0.171,0.038,0.256,-5.337
0.219,0.039,0.252,-5.337
0.242,0.040,0.254,-5.337
0.242,0.038,0.256,-5.337
0.211,0.042,0.258,-5.337
0.137,0.041,0.256,-5.337
0.183,0.040,0.253,-5.337
0.259,0.039,0.254,-5.337
0.257,0.042,0.255,-5.337
0.199,0.042,0.257,-5.337
0.216,0.042,0.257,-5.337
0.256,0.043,0.258,-5.337
0.207,0.043,0.254,-5.337
0.154,0.043,0.253,-5.337
0.054,0.043,0.254,-5.337
0.022,0.044,0.257,-5.337
0.069,0.043,0.258,-5.337
0.163,0.042,0.260,-5.337
0.216,0.040,0.258,-5.337
0.213,0.040,0.256,-5.337
0.207,0.038,0.257,-5.337
0.200,0.038,0.257,-5.337
0.185,0.041,0.255,-5.337
0.139,0.045,0.259,-5.337
0.193,0.042,0.263,-5.337
0.264,0.039,0.261,-5.337
0.231,0.041,0.256,-5.337
0.179,0.040,0.254,-5.337
0.196,0.038,0.254,-5.337
0.292,0.038,0.257,-5.337
0.299,0.038,0.261,-5.337
0.235,0.036,0.258,-5.337
0.207,0.037,0.254,-5.337
0.195,0.038,0.254,-5.337
0.210,0.041,0.261,-5.337
0.099,0.045,0.264,-5.337
0.020,0.045,0.260,-5.337
0.087,0.044,0.255,-5.337
0.165,0.041,0.257,-5.337
0.229,0.039,0.257,-5.337
0.257,0.041,0.256,-5.337
0.242,0.041,0.255,-5.337
0.177,0.044,0.257,-5.337
0.134,0.042,0.259,-5.337
0.170,0.040,0.259,-5.337
0.204,0.038,0.257,-5.337
0.174,0.041,0.255,-5.337
0.171,0.040,0.258,-5.337
0.267,0.039,0.258,-5.337
0.244,0.041,0.257,-5.337
0.148,0.044,0.260,-5.337
0.104,0.044,0.260,-5.337
0.152,0.043,0.257,-5.337
0.171,0.042,0.258,-5.337
0.189,0.041,0.256,-5.337
0.225,0.041,0.255,-5.337
0.250,0.042,0.255,-5.337
0.210,0.045,0.260,-5.337
0.178,0.042,0.258,-5.337
0.202,0.041,0.257,-5.337
0.194,0.042,0.258,-5.337
0.182,0.043,0.260,-5.337
0.216,0.040,0.261,-5.337
0.245,0.040,0.257,-5.337
0.223,0.041,0.253,-5.337
0.141,0.044,0.252,-5.337
0.168,0.044,0.254,-5.337
0.169,0.046,0.259,-5.337
0.099,0.049,0.260,-5.337
0.122,0.044,0.259,-5.337
0.183,0.042,0.258,-5.337
0.176,0.044,0.258,-5.337
0.151,0.044,0.260,-5.337
0.175,0.043,0.261,-5.337
0.178,0.044,0.264,-5.337
0.146,0.040,0.263,-5.337
0.151,0.039,0.262,-5.337
0.131,0.037,0.257,-5.337
0.225,0.039,0.254,-5.337
0.275,0.038,0.254,-5.337
0.229,0.041,0.256,-5.337
0.225,0.039,0.256,-5.337
0.273,0.039,0.254,-5.337
0.272,0.037,0.255,-5.337
0.193,0.039,0.256,-5.337
0.166,0.040,0.256,-5.337
0.247,0.038,0.257,-5.337
0.289,0.040,0.257,-5.337
0.351,0.036,0.257,-5.337
0.363,0.038,0.255,-5.337
0.263,0.042,0.255,-5.337
0.239,0.043,0.256,-5.337
0.271,0.042,0.255,-5.337
0.292,0.040,0.257,-5.337
0.253,0.040,0.258,-5.337
0.117,0.046,0.259,-5.337
0.080,0.048,0.255,-5.337
0.140,0.048,0.255,-5.337
0.127,0.047,0.257,-5.337
0.125,0.049,0.259,-5.337
0.148,0.046,0.257,-5.337
0.170,0.047,0.254,-5.337
0.163,0.048,0.256,-5.337
0.203,0.045,0.255,-5.337
0.238,0.046,0.254,-5.337
0.187,0.051,0.255,-5.337
0.149,0.052,0.256,-5.337
0.189,0.046,0.255,-5.337
0.213,0.044,0.252,-5.337
0.162,0.050,0.256,-5.337
0.129,0.051,0.264,-5.337
0.159,0.048,0.266,-5.337
0.150,0.051,0.259,-5.337
0.109,0.050,0.253,-5.337
0.082,0.048,0.254,-5.337
0.092,0.046,0.257,-5.337
0.143,0.043,0.257,-5.337
0.208,0.040,0.252,-5.337
0.256,0.041,0.257,-5.337
0.175,0.043,0.258,-5.337
0.155,0.042,0.257,-5.337
0.207,0.044,0.257,-5.337
0.248,0.048,0.258,-5.337
0.228,0.050,0.259,-5.337
0.186,0.051,0.258,-5.337
0.201,0.046,0.257,-5.337
0.196,0.048,0.256,-5.337
0.153,0.048,0.251,-5.337
0.138,0.046,0.248,-5.337
0.150,0.045,0.249,-5.337
0.188,0.050,0.254,-5.337
0.183,0.051,0.259,-5.337
0.200,0.049,0.264,-5.337
0.245,0.044,0.264,-5.337
0.236,0.045,0.259,-5.337
0.208,0.047,0.257,-5.337
0.153,0.051,0.254,-5.337
0.162,0.049,0.254,-5.337
0.225,0.044,0.255,-5.337
0.256,0.045,0.254,-5.337
0.234,0.052,0.256,-5.337
0.119,0.057,0.258,-5.337
-0.004,0.059,0.258,-5.337
0.117,0.052,0.258,-5.337
0.241,0.047,0.257,-5.337
0.228,0.050,0.258,-5.337
0.221,0.050,0.260,-5.337
0.164,0.054,0.258,-5.337
0.141,0.055,0.258,-5.337
0.121,0.058,0.255,-5.337
0.102,0.061,0.252,-5.337
0.082,0.060,0.254,-5.337
0.088,0.056,0.260,-5.337
0.139,0.055,0.262,-5.337
0.210,0.052,0.261,-5.337
0.189,0.055,0.256,-5.337
0.199,0.056,0.254,-5.337
0.197,0.055,0.252,-5.337
0.137,0.057,0.256,-5.337
0.159,0.054,0.259,-5.337
0.244,0.054,0.260,-5.337
0.222,0.054,0.259,-5.337
0.090,0.060,0.259,-5.337
0.053,0.060,0.255,-5.337
0.148,0.061,0.254,-5.337
0.160,0.063,0.254,-5.337
0.086,0.060,0.254,-5.337
0.113,0.058,0.255,-5.337
0.214,0.057,0.258,-5.337
0.209,0.056,0.258,-5.337
0.166,0.053,0.257,-5.337
0.165,0.055,0.257,-5.337
0.252,0.054,0.259,-5.337
0.280,0.052,0.262,-5.337
0.257,0.052,0.264,-5.337
0.191,0.053,0.262,-5.337
0.159,0.056,0.260,-5.337
0.196,0.056,0.262,-5.337
0.261,0.053,0.259,-5.337
0.227,0.052,0.251,-5.337
0.172,0.057,0.248,-5.337
0.108,0.062,0.251,-5.337
0.138,0.059,0.252,-5.337
0.252,0.058,0.258,-5.337
0.189,0.059,0.262,-5.337
0.152,0.061,0.260,-5.337
0.182,0.058,0.254,-5.337
0.226,0.057,0.254,-5.337
0.280,0.052,0.255,-5.337
0.270,0.057,0.254,-5.337
0.241,0.058,0.256,-5.337
0.148,0.061,0.254,-5.337
0.045,0.062,0.255,-5.337
0.057,0.060,0.262,-5.337
0.117,0.057,0.264,-5.337
0.155,0.054,0.267,-5.337
0.191,0.056,0.264,-5.337
0.234,0.059,0.260,-5.337
0.245,0.060,0.259,-5.337
0.268,0.062,0.258,-5.337
0.194,0.061,0.255,-5.337
0.078,0.065,0.255,-5.337
0.064,0.065,0.258,-5.337
0.179,0.061,0.259,-5.337
0.253,0.061,0.259,-5.337
0.262,0.063,0.256,-5.337
0.246,0.063,0.255,-5.337
0.219,0.063,0.253,-5.337
0.231,0.065,0.254,-5.337
0.244,0.061,0.257,-5.337
0.235,0.062,0.262,-5.337
0.183,0.060,0.266,-5.337
0.232,0.058,0.265,-5.337
0.309,0.059,0.263,-5.337
0.319,0.057,0.262,-5.337
0.242,0.057,0.260,-5.337
0.120,0.058,0.256,-5.337
0.151,0.058,0.254,-5.337
0.196,0.059,0.254,-5.337
0.167,0.059,0.254,-5.337
0.150,0.060,0.256,-5.337
0.151,0.061,0.258,-5.337
0.122,0.060,0.257,-5.337
0.111,0.058,0.257,-5.337
0.200,0.059,0.256,-5.337
0.242,0.064,0.259,-5.337
0.209,0.066,0.257,-5.337
0.187,0.062,0.256,-5.337
0.237,0.061,0.256,-5.337
0.213,0.064,0.256,-5.337
0.173,0.061,0.256,-5.337
0.076,0.065,0.256,-5.337
-0.008,0.066,0.257,-5.337
0.102,0.066,0.261,-5.337
0.253,0.060,0.262,-5.337
0.242,0.059,0.262,-5.337
0.155,0.061,0.260,-5.337
0.208,0.056,0.254,-5.337
0.197,0.061,0.250,-5.337
0.125,0.069,0.251,-5.337
0.075,0.070,0.254,-5.337
0.106,0.068,0.255,-5.337
0.195,0.067,0.256,-5.337
0.221,0.066,0.258,-5.337
0.154,0.066,0.258,-5.337
0.168,0.064,0.257,-5.337
0.240,0.062,0.256,-5.337
0.197,0.061,0.256,-5.337
0.152,0.062,0.259,-5.337
0.193,0.061,0.260,-5.337
0.208,0.061,0.257,-5.337
0.199,0.062,0.255,-5.337
0.180,0.060,0.258,-5.337
0.237,0.062,0.262,-5.337
0.249,0.064,0.262,-5.337
0.275,0.062,0.257,-5.337
0.312,0.065,0.253,-5.337
0.230,0.066,0.251,-5.337
0.147,0.068,0.257,-5.337
0.153,0.067,0.262,-5.337
0.235,0.065,0.263,-5.337
0.247,0.065,0.260,-5.337
0.221,0.061,0.257,-5.337
0.136,0.065,0.257,-5.337
0.132,0.065,0.255,-5.337
0.244,0.064,0.255,-5.337
0.218,0.062,0.255,-5.337
0.185,0.063,0.254,-5.337
0.206,0.063,0.255,-5.337
0.239,0.063,0.258,-5.337
0.176,0.066,0.254,-5.337
0.212,0.066,0.251,-5.337
0.259,0.065,0.252,-5.337
0.185,0.068,0.251,-5.337
0.155,0.068,0.254,-5.337
0.202,0.065,0.258,-5.337
0.175,0.065,0.259,-5.337
0.147,0.070,0.259,-5.337
0.202,0.070,0.260,-5.337
0.135,0.067,0.261,-5.337
0.072,0.066,0.262,-5.337
0.095,0.067,0.260,-5.337
0.128,0.069,0.257,-5.337
0.136,0.070,0.253,-5.337
0.141,0.067,0.256,-5.337
0.226,0.064,0.259,-5.337
0.229,0.068,0.259,-5.337
0.212,0.068,0.256,-5.337
0.227,0.068,0.255,-5.337
0.261,0.067,0.258,-5.337
0.201,0.067,0.262,-5.337
0.151,0.069,0.264,-5.337
0.099,0.070,0.263,-5.337
0.120,0.067,0.259,-5.337
0.145,0.065,0.252,-5.337
0.132,0.065,0.253,-5.337
0.167,0.065,0.253,-5.337
0.168,0.063,0.254,-5.337
0.223,0.062,0.256,-5.337
0.234,0.062,0.256,-5.337
0.221,0.063,0.261,-5.337
0.127,0.067,0.264,-5.337
0.097,0.068,0.261,-5.337
0.151,0.061,0.258,-5.337
0.149,0.057,0.255,-5.337
0.115,0.059,0.254,-5.337
0.185,0.061,0.257,-5.337
0.222,0.063,0.260,-5.337
0.179,0.063,0.258,-5.337
0.151,0.066,0.257,-5.337
0.166,0.070,0.259,-5.337
0.157,0.069,0.260,-5.337
0.158,0.069,0.255,-5.337
0.175,0.067,0.254,-5.337
0.185,0.068,0.260,-5.337
0.207,0.066,0.262,-5.337
0.250,0.064,0.257,-5.337
0.241,0.064,0.256,-5.337
0.209,0.068,0.259,-5.337
0.213,0.069,0.258,-5.337
0.215,0.067,0.257,-5.337
0.233,0.062,0.256,-5.337
0.255,0.062,0.257,-5.337
0.235,0.064,0.257,-5.337
0.200,0.064,0.256,-5.337
0.181,0.063,0.258,-5.337
0.152,0.066,0.262,-5.337
0.097,0.066,0.265,-5.337
0.122,0.065,0.264,-5.337
0.168,0.065,0.259,-5.337
0.134,0.070,0.254,-5.337
0.161,0.065,0.253,-5.337
0.217,0.059,0.256,-5.337
0.259,0.060,0.259,-5.337
0.259,0.065,0.259,-5.337
0.262,0.066,0.257,-5.337
0.231,0.064,0.255,-5.337
0.165,0.063,0.252,-5.337
0.161,0.069,0.254,-5.337
0.166,0.067,0.256,-5.337
0.179,0.063,0.256,-5.337
0.111,0.065,0.257,-5.337
0.092,0.065,0.258,-5.337
0.165,0.067,0.260,-5.337
0.184,0.068,0.262,-5.337
0.134,0.066,0.263,-5.337
0.099,0.065,0.262,-5.337
0.125,0.062,0.257,-5.337
0.208,0.059,0.257,-5.337
0.225,0.059,0.261,-5.337
0.222,0.060,0.264,-5.337
0.220,0.060,0.262,-5.337
0.153,0.061,0.261,-5.337
0.136,0.059,0.260,-5.337
0.186,0.057,0.258,-5.337
0.258,0.059,0.258,-5.337
0.281,0.058,0.257,-5.337
0.249,0.059,0.256,-5.337
0.250,0.059,0.254,-5.337
0.279,0.061,0.255,-5.337
0.224,0.062,0.258,-5.337
0.119,0.062,0.259,-5.337
0.195,0.059,0.258,-5.337
0.205,0.060,0.258,-5.337
0.180,0.060,0.259,-5.337
0.203,0.058,0.257,-5.337
0.244,0.059,0.257,-5.337
0.234,0.060,0.255,-5.337
0.169,0.060,0.256,-5.337
0.213,0.059,0.258,-5.337
0.213,0.056,0.259,-5.337
0.162,0.055,0.260,-5.337
0.146,0.055,0.263,-5.337
0.177,0.059,0.259,-5.337
0.203,0.059,0.259,-5.337
0.280,0.053,0.263,-5.337
0.261,0.057,0.262,-5.337
0.182,0.060,0.256,-5.337
0.150,0.060,0.254,-5.337
0.188,0.059,0.256,-5.337
0.209,0.057,0.257,-5.337
0.157,0.058,0.256,-5.337
0.139,0.057,0.254,-5.337
0.176,0.056,0.252,-5.337
0.174,0.059,0.255,-5.337
0.150,0.060,0.258,-5.337
0.118,0.060,0.257,-5.337
0.178,0.056,0.254,-5.337
0.273,0.053,0.254,-5.337
0.258,0.053,0.258,-5.337
0.234,0.053,0.258,-5.337
0.252,0.052,0.258,-5.337
0.182,0.056,0.258,-5.337
0.109,0.058,0.260,-5.337
0.205,0.051,0.257,-5.337
0.262,0.051,0.258,-5.337
0.222,0.053,0.259,-5.337
0.184,0.055,0.260,-5.337
0.179,0.051,0.259,-5.337
0.235,0.047,0.258,-5.337
0.238,0.046,0.255,-5.337
0.203,0.048,0.252,-5.337
0.184,0.049,0.255,-5.337
0.167,0.050,0.260,-5.337
0.153,0.048,0.259,-5.337
0.192,0.046,0.260,-5.337
0.227,0.046,0.258,-5.337
0.205,0.045,0.259,-5.337
0.175,0.046,0.264,-5.337
0.211,0.046,0.262,-5.337
0.262,0.046,0.258,-5.337
0.223,0.050,0.254,-5.337
0.155,0.052,0.256,-5.337
0.232,0.049,0.260,-5.337
0.286,0.047,0.262,-5.337
0.175,0.051,0.259,-5.337
0.110,0.053,0.261,-5.337
0.107,0.054,0.261,-5.337
0.169,0.050,0.261,-5.337
0.205,0.050,0.259,-5.337
0.226,0.051,0.258,-5.337
0.225,0.051,0.256,-5.337
0.109,0.053,0.253,-5.337
0.070,0.050,0.256,-5.337
0.111,0.052,0.260,-5.337
0.142,0.049,0.258,-5.337
0.182,0.049,0.256,-5.337
0.174,0.054,0.258,-5.337
0.161,0.053,0.260,-5.337
0.174,0.049,0.261,-5.337
0.186,0.049,0.260,-5.337
0.185,0.045,0.258,-5.337
0.234,0.051,0.257,-5.337
0.271,0.050,0.254,-5.337
0.278,0.047,0.255,-5.337
0.199,0.049,0.260,-5.337
0.095,0.055,0.261,-5.337
0.038,0.053,0.260,-5.337
0.106,0.053,0.258,-5.337
0.213,0.049,0.260,-5.337
0.208,0.048,0.259,-5.337
0.206,0.044,0.257,-5.337
0.218,0.041,0.254,-5.337
0.159,0.046,0.254,-5.337
0.128,0.045,0.258,-5.337
0.200,0.042,0.260,-5.337
0.282,0.039,0.261,-5.337
0.221,0.045,0.262,-5.337
0.148,0.045,0.260,-5.337
0.198,0.046,0.259,-5.337
0.192,0.046,0.261,-5.337
0.198,0.047,0.260,-5.337
0.229,0.045,0.258,-5.337
0.215,0.045,0.256,-5.337
0.218,0.045,0.259,-5.337
0.198,0.046,0.257,-5.337
0.184,0.044,0.261,-5.337
0.209,0.041,0.262,-5.337
0.252,0.043,0.261,-5.337
0.309,0.042,0.257,-5.337
0.289,0.043,0.259,-5.337
0.195,0.044,0.262,-5.337
0.142,0.047,0.264,-5.337
0.136,0.048,0.260,-5.337
0.137,0.048,0.259,-5.337
0.122,0.045,0.256,-5.337
0.150,0.047,0.253,-5.337
0.146,0.046,0.255,-5.337
0.175,0.046,0.260,-5.337
0.266,0.043,0.264,-5.337
0.227,0.045,0.264,-5.337
0.190,0.042,0.260,-5.337
0.212,0.042,0.257,-5.337
0.154,0.046,0.261,-5.337
0.147,0.047,0.261,-5.337
0.138,0.046,0.259,-5.337
0.181,0.041,0.255,-5.337
0.270,0.037,0.257,-5.337
0.242,0.039,0.259,-5.337
0.229,0.040,0.261,-5.337
0.235,0.043,0.259,-5.337
0.170,0.047,0.258,-5.337
0.167,0.047,0.257,-5.337
0.219,0.047,0.258,-5.337
0.227,0.043,0.257,-5.337
0.198,0.044,0.252,-5.337
0.112,0.041,0.253,-5.337
0.139,0.041,0.256,-5.337
0.213,0.042,0.260,-5.337
0.196,0.042,0.264,-5.337
0.177,0.041,0.263,-5.337
0.210,0.044,0.257,-5.337
0.225,0.044,0.257,-5.337
0.218,0.042,0.260,-5.337
0.254,0.034,0.261,-5.337
0.295,0.036,0.258,-5.337
0.224,0.041,0.256,-5.337
0.240,0.037,0.255,-5.337
0.202,0.040,0.258,-5.337
0.216,0.039,0.257,-5.337
0.209,0.043,0.254,-5.337
0.159,0.043,0.253,-5.337
0.179,0.043,0.254,-5.337
0.221,0.042,0.257,-5.337
0.232,0.042,0.262,-5.337
0.191,0.041,0.262,-5.337
0.149,0.042,0.260,-5.337
0.144,0.045,0.260,-5.337
0.134,0.044,0.259,-5.337
0.188,0.039,0.261,-5.337
0.214,0.042,0.265,-5.337
0.236,0.042,0.264,-5.337
0.209,0.042,0.258,-5.337
0.148,0.042,0.251,-5.337
0.149,0.041,0.250,-5.337
0.175,0.040,0.256,-5.337
0.189,0.040,0.261,-5.337
0.173,0.040,0.259,-5.337
0.189,0.040,0.255,-5.337
0.161,0.042,0.253,-5.337
0.135,0.041,0.252,-5.337
0.185,0.041,0.254,-5.337
0.190,0.038,0.258,-5.337
0.156,0.038,0.261,-5.337
0.109,0.039,0.258,-5.337
0.096,0.040,0.258,-5.337
0.094,0.041,0.261,-5.337
0.214,0.040,0.264,-5.337
0.235,0.037,0.260,-5.337
0.186,0.039,0.253,-5.337
0.148,0.042,0.252,-5.337
0.175,0.042,0.256,-5.337
0.192,0.042,0.261,-5.337
0.171,0.041,0.260,-5.337
0.156,0.042,0.258,-5.337
0.168,0.043,0.258,-5.337
0.140,0.041,0.256,-5.337
0.079,0.040,0.254,-5.337
0.154,0.040,0.256,-5.337
0.243,0.039,0.259,-5.337
0.244,0.038,0.262,-5.337
0.283,0.036,0.259,-5.337
0.247,0.037,0.259,-5.337
0.212,0.037,0.257,-5.337
0.207,0.036,0.256,-5.337
0.194,0.035,0.254,-5.337
0.179,0.039,0.252,-5.337
0.187,0.042,0.255,-5.337
0.211,0.041,0.259,-5.337
0.221,0.039,0.258,-5.337
0.253,0.044,0.260,-5.337
0.149,0.043,0.262,-5.337
0.106,0.043,0.259,-5.337
0.169,0.040,0.256,-5.337
0.184,0.037,0.256,-5.337
0.133,0.036,0.260,-5.337
0.167,0.035,0.265,-5.337
0.223,0.034,0.261,-5.337
0.260,0.034,0.254,-5.337
0.201,0.041,0.255,-5.337
0.189,0.039,0.256,-5.337
0.188,0.038,0.256,-5.337
0.151,0.042,0.255,-5.337
0.175,0.040,0.253,-5.337
0.195,0.040,0.250,-5.337
0.156,0.043,0.254,-5.337
0.120,0.042,0.254,-5.337
0.119,0.043,0.258,-5.337
0.195,0.041,0.258,-5.337
0.202,0.039,0.258,-5.337
0.184,0.036,0.258,-5.337
0.186,0.037,0.259,-5.337
0.184,0.040,0.257,-5.337
0.209,0.044,0.258,-5.337
0.195,0.042,0.257,-5.337
0.111,0.043,0.257,-5.337
0.102,0.043,0.256,-5.337
0.156,0.041,0.255,-5.337
0.169,0.042,0.255,-5.337
0.191,0.042,0.258,-5.337
0.182,0.043,0.258,-5.337
0.163,0.043,0.258,-5.337
0.214,0.038,0.261,-5.337
0.276,0.038,0.260,-5.337
0.324,0.039,0.261,-5.337
0.316,0.041,0.261,-5.337
0.172,0.042,0.263,-5.337
0.192,0.040,0.261,-5.337
0.235,0.039,0.255,-5.337
0.217,0.041,0.253,-5.337
0.230,0.037,0.253,-5.337
0.236,0.033,0.257,-5.337
0.170,0.035,0.261,-5.337
0.131,0.037,0.263,-5.337
0.187,0.037,0.259,-5.337
0.199,0.037,0.256,-5.337
0.192,0.039,0.256,-5.337
0.194,0.041,0.256,-5.337
0.148,0.042,0.257,-5.337
0.172,0.038,0.257,-5.337
0.172,0.039,0.259,-5.337
0.200,0.040,0.258,-5.337
0.161,0.041,0.256,-5.337
0.135,0.038,0.255,-5.337
0.182,0.035,0.256,-5.337
0.201,0.037,0.259,-5.337
0.157,0.039,0.258,-5.337
0.174,0.041,0.258,-5.337
0.264,0.037,0.256,-5.337
0.259,0.037,0.256,-5.337
0.233,0.040,0.260,-5.337
0.268,0.038,0.262,-5.337
0.229,0.036,0.259,-5.337
0.137,0.035,0.256,-5.337
0.137,0.039,0.256,-5.337
0.132,0.045,0.260,-5.337
0.100,0.047,0.261,-5.337
0.151,0.040,0.262,-5.337
0.224,0.038,0.260,-5.337
0.198,0.043,0.258,-5.337
0.172,0.046,0.258,-5.337
0.200,0.045,0.257,-5.337
0.212,0.045,0.256,-5.337
0.181,0.045,0.258,-5.337
0.221,0.043,0.260,-5.337
0.294,0.040,0.258,-5.337
0.266,0.042,0.259,-5.337
0.226,0.042,0.259,-5.337
0.212,0.040,0.256,-5.337
0.267,0.039,0.252,-5.337
0.243,0.041,0.256,-5.337
0.221,0.037,0.261,-5.337
0.244,0.040,0.261,-5.337
0.207,0.043,0.261,-5.337
0.123,0.043,0.260,-5.337
0.124,0.045,0.258,-5.337
0.207,0.046,0.256,-5.337
0.226,0.047,0.259,-5.337
0.144,0.046,0.261,-5.337
0.127,0.047,0.262,-5.337
0.205,0.047,0.262,-5.337
0.208,0.048,0.260,-5.337
0.141,0.048,0.257,-5.337
0.119,0.049,0.252,-5.337
0.137,0.048,0.255,-5.337
0.215,0.048,0.259,-5.337
0.219,0.049,0.260,-5.337
0.156,0.049,0.259,-5.337
0.130,0.052,0.260,-5.337
0.131,0.054,0.262,-5.337
0.261,0.050,0.260,-5.337
0.268,0.052,0.261,-5.337
0.223,0.054,0.258,-5.337
0.185,0.053,0.256,-5.337
0.213,0.049,0.255,-5.337
0.215,0.050,0.254,-5.337
0.185,0.052,0.252,-5.337
0.243,0.048,0.254,-5.337
0.334,0.041,0.255,-5.337
0.250,0.048,0.256,-5.337
0.134,0.051,0.259,-5.337
0.114,0.051,0.260,-5.337
0.120,0.053,0.261,-5.337
0.057,0.054,0.262,-5.337
0.121,0.050,0.261,-5.337
0.186,0.049,0.261,-5.337
0.201,0.046,0.261,-5.337
0.260,0.046,0.255,-5.337
0.217,0.048,0.255,-5.337
0.199,0.047,0.256,-5.337
0.178,0.049,0.256,-5.337
0.121,0.049,0.258,-5.337
0.168,0.048,0.260,-5.337
0.115,0.050,0.260,-5.337
0.099,0.048,0.263,-5.337
0.146,0.048,0.261,-5.337
0.128,0.053,0.255,-5.337
0.115,0.054,0.250,-5.337
0.205,0.052,0.254,-5.337
0.213,0.051,0.259,-5.337
0.186,0.052,0.259,-5.337
0.204,0.056,0.258,-5.337
0.252,0.055,0.261,-5.337
0.253,0.054,0.263,-5.337
0.188,0.054,0.261,-5.337
0.206,0.053,0.257,-5.337
0.243,0.053,0.258,-5.337
0.260,0.053,0.261,-5.337
0.192,0.056,0.260,-5.337
0.142,0.056,0.257,-5.337
0.120,0.059,0.255,-5.337
0.110,0.057,0.255,-5.337
0.117,0.060,0.252,-5.337
0.161,0.060,0.252,-5.337
0.252,0.051,0.253,-5.337
0.268,0.053,0.261,-5.337
0.207,0.055,0.266,-5.337
0.212,0.055,0.264,-5.337
0.155,0.056,0.259,-5.337
0.101,0.056,0.256,-5.337
0.178,0.056,0.257,-5.337
0.201,0.059,0.260,-5.337
0.173,0.060,0.259,-5.337
0.110,0.059,0.259,-5.337
0.127,0.056,0.256,-5.337
0.184,0.053,0.254,-5.337
0.244,0.053,0.252,-5.337
0.258,0.055,0.255,-5.337
0.234,0.056,0.259,-5.337
0.181,0.057,0.260,-5.337
0.166,0.058,0.261,-5.337
0.129,0.056,0.260,-5.337
0.128,0.055,0.258,-5.337
0.134,0.059,0.259,-5.337
0.138,0.062,0.260,-5.337
0.149,0.064,0.257,-5.337
0.149,0.063,0.261,-5.337
0.180,0.062,0.264,-5.337
0.181,0.064,0.263,-5.337
0.172,0.064,0.259,-5.337
0.168,0.065,0.257,-5.337
0.190,0.064,0.259,-5.337
0.171,0.064,0.261,-5.337
0.222,0.059,0.263,-5.337
0.269,0.059,0.259,-5.337
0.256,0.059,0.259,-5.337
0.255,0.057,0.258,-5.337
0.251,0.056,0.256,-5.337
0.174,0.062,0.255,-5.337
0.099,0.062,0.257,-5.337
0.121,0.058,0.257,-5.337
0.170,0.063,0.259,-5.337
0.204,0.065,0.261,-5.337
0.206,0.062,0.263,-5.337
0.159,0.058,0.260,-5.337
0.131,0.058,0.259,-5.337
0.135,0.059,0.256,-5.337
0.219,0.059,0.256,-5.337
0.205,0.060,0.257,-5.337
0.200,0.063,0.259,-5.337
0.168,0.064,0.255,-5.337
0.171,0.061,0.251,-5.337
0.257,0.060,0.255,-5.337
0.280,0.061,0.264,-5.337
0.190,0.062,0.265,-5.337
0.148,0.064,0.259,-5.337
0.176,0.063,0.258,-5.337
0.208,0.065,0.257,-5.337
0.218,0.064,0.258,-5.337
0.185,0.062,0.259,-5.337
0.149,0.062,0.259,-5.337
0.168,0.064,0.258,-5.337
0.252,0.065,0.261,-5.337
0.274,0.067,0.259,-5.337
0.275,0.066,0.258,-5.337
0.219,0.068,0.257,-5.337
0.186,0.066,0.257,-5.337
0.219,0.061,0.256,-5.337
0.182,0.063,0.257,-5.337
0.207,0.060,0.257,-5.337
0.189,0.061,0.256,-5.337
0.195,0.061,0.251,-5.337
0.231,0.063,0.249,-5.337
0.235,0.064,0.255,-5.337
0.211,0.066,0.260,-5.337
0.228,0.066,0.261,-5.337
0.234,0.069,0.260,-5.337
0.204,0.068,0.259,-5.337
0.246,0.065,0.258,-5.337
0.312,0.063,0.260,-5.337
0.305,0.061,0.257,-5.337
0.172,0.061,0.255,-5.337
0.105,0.066,0.255,-5.337
0.106,0.067,0.260,-5.337
0.158,0.065,0.261,-5.337
0.193,0.063,0.260,-5.337
0.209,0.063,0.256,-5.337
0.231,0.063,0.259,-5.337
0.229,0.062,0.263,-5.337
0.256,0.059,0.264,-5.337
0.242,0.061,0.257,-5.337
0.178,0.064,0.252,-5.337
0.187,0.065,0.253,-5.337
0.224,0.065,0.256,-5.337
0.199,0.062,0.260,-5.337
0.199,0.064,0.263,-5.337
0.161,0.064,0.261,-5.337
0.183,0.062,0.259,-5.337
0.239,0.063,0.255,-5.337
0.172,0.064,0.256,-5.337
0.165,0.063,0.260,-5.337
0.159,0.064,0.261,-5.337
0.179,0.062,0.259,-5.337
0.232,0.062,0.254,-5.337
0.218,0.062,0.254,-5.337
0.163,0.067,0.257,-5.337
0.191,0.069,0.263,-5.337
0.184,0.067,0.262,-5.337
0.166,0.066,0.260,-5.337
0.220,0.067,0.254,-5.337
0.250,0.065,0.251,-5.337
0.227,0.067,0.252,-5.337
0.236,0.068,0.256,-5.337
0.232,0.066,0.259,-5.337
0.245,0.064,0.262,-5.337
0.212,0.067,0.261,-5.337
0.146,0.068,0.258,-5.337
0.126,0.068,0.255,-5.337
0.200,0.067,0.257,-5.337
0.284,0.065,0.262,-5.337
0.258,0.066,0.262,-5.337
0.188,0.067,0.258,-5.337
0.238,0.066,0.256,-5.337
0.233,0.063,0.257,-5.337
0.248,0.062,0.261,-5.337
0.231,0.067,0.265,-5.337
0.179,0.067,0.262,-5.337
0.165,0.065,0.258,-5.337
0.245,0.060,0.256,-5.337
0.330,0.065,0.254,-5.337
0.260,0.068,0.255,-5.337
0.157,0.067,0.258,-5.337
0.063,0.066,0.260,-5.337
0.054,0.062,0.263,-5.337
0.150,0.065,0.262,-5.337
0.166,0.067,0.259,-5.337
0.197,0.065,0.257,-5.337
0.225,0.064,0.261,-5.337
0.145,0.061,0.262,-5.337
0.094,0.063,0.259,-5.337
0.147,0.061,0.254,-5.337
0.192,0.062,0.250,-5.337
0.190,0.060,0.249,-5.337
0.226,0.060,0.248,-5.337
0.299,0.059,0.252,-5.337
0.252,0.060,0.258,-5.337
0.215,0.062,0.261,-5.337
0.160,0.066,0.257,-5.337
0.176,0.067,0.254,-5.337
0.180,0.068,0.255,-5.337
0.220,0.064,0.261,-5.337
0.276,0.064,0.262,-5.337
0.234,0.064,0.260,-5.337
0.182,0.066,0.256,-5.337
0.186,0.063,0.256,-5.337
0.236,0.057,0.257,-5.337
0.257,0.056,0.258,-5.337
0.213,0.058,0.257,-5.337
0.195,0.060,0.257,-5.337
0.117,0.057,0.256,-5.337
0.115,0.057,0.254,-5.337
0.158,0.058,0.253,-5.337
0.196,0.060,0.255,-5.337
0.204,0.059,0.258,-5.337
0.171,0.060,0.257,-5.337
0.163,0.061,0.256,-5.337
0.179,0.062,0.256,-5.337
0.195,0.060,0.261,-5.337
0.249,0.057,0.263,-5.337
0.187,0.059,0.262,-5.337
0.214,0.056,0.259,-5.337
0.252,0.055,0.259,-5.337
0.226,0.054,0.259,-5.337
0.191,0.058,0.264,-5.337
0.151,0.059,0.264,-5.337
0.105,0.061,0.261,-5.337
0.097,0.057,0.256,-5.337
0.189,0.055,0.255,-5.337
0.299,0.050,0.255,-5.337
0.309,0.052,0.256,-5.337
0.270,0.048,0.257,-5.337
0.181,0.053,0.259,-5.337
0.149,0.057,0.258,-5.337
0.233,0.055,0.257,-5.337
0.238,0.058,0.257,-5.337
0.227,0.059,0.257,-5.337
0.244,0.059,0.256,-5.337
0.211,0.060,0.259,-5.337
0.249,0.058,0.261,-5.337
0.294,0.056,0.262,-5.337
0.270,0.054,0.261,-5.337
0.163,0.060,0.259,-5.337
0.115,0.063,0.260,-5.337
0.089,0.064,0.260,-5.337
0.128,0.059,0.263,-5.337
0.185,0.058,0.263,-5.337
0.190,0.060,0.260,-5.337
0.146,0.059,0.260,-5.337
0.112,0.059,0.262,-5.337
0.154,0.056,0.260,-5.337
0.187,0.054,0.257,-5.337
0.213,0.054,0.255,-5.337
0.184,0.055,0.255,-5.337
0.183,0.055,0.256,-5.337
0.216,0.054,0.257,-5.337
0.214,0.056,0.259,-5.337
0.192,0.057,0.259,-5.337
0.181,0.055,0.255,-5.337
0.217,0.056,0.253,-5.337
0.185,0.058,0.259,-5.337
0.172,0.056,0.261,-5.337
0.198,0.055,0.260,-5.337
0.272,0.053,0.257,-5.337
0.305,0.050,0.261,-5.337
0.263,0.053,0.260,-5.337
0.197,0.056,0.256,-5.337
0.178,0.056,0.253,-5.337
0.175,0.057,0.257,-5.337
0.183,0.054,0.260,-5.337
0.215,0.053,0.264,-5.337
0.153,0.055,0.264,-5.337
0.121,0.055,0.263,-5.337
0.208,0.053,0.260,-5.337
0.345,0.049,0.259,-5.337
0.367,0.053,0.256,-5.337
0.249,0.057,0.256,-5.337
0.203,0.056,0.257,-5.337
0.176,0.054,0.259,-5.337
0.151,0.053,0.261,-5.337
0.156,0.056,0.260,-5.337
0.186,0.054,0.257,-5.337
0.150,0.055,0.257,-5.337
0.056,0.055,0.257,-5.337
0.071,0.053,0.254,-5.337
0.188,0.051,0.256,-5.337
0.240,0.053,0.262,-5.337
0.220,0.055,0.264,-5.337
0.216,0.054,0.260,-5.337
0.201,0.052,0.260,-5.337
0.198,0.051,0.260,-5.337
0.136,0.056,0.262,-5.337
0.159,0.051,0.262,-5.337
0.161,0.051,0.261,-5.337
0.143,0.050,0.259,-5.337
0.168,0.049,0.255,-5.337
0.163,0.044,0.255,-5.337
0.210,0.043,0.257,-5.337
0.265,0.045,0.257,-5.337
0.301,0.044,0.258,-5.337
0.237,0.047,0.258,-5.337
0.126,0.050,0.257,-5.337
0.131,0.048,0.257,-5.337
0.190,0.048,0.257,-5.337
0.211,0.046,0.261,-5.337
0.188,0.048,0.259,-5.337
0.174,0.048,0.260,-5.337
0.205,0.046,0.260,-5.337
0.187,0.046,0.260,-5.337
0.156,0.045,0.256,-5.337
0.193,0.048,0.250,-5.337
0.141,0.050,0.250,-5.337
0.153,0.048,0.256,-5.337
0.221,0.044,0.259,-5.337
0.249,0.041,0.258,-5.337
0.188,0.041,0.258,-5.337
0.195,0.044,0.263,-5.337
0.217,0.041,0.260,-5.337
0.212,0.042,0.258,-5.337
0.206,0.040,0.255,-5.337
0.209,0.038,0.253,-5.337
0.196,0.041,0.254,-5.337
0.168,0.049,0.259,-5.337
0.125,0.048,0.260,-5.337
0.147,0.047,0.260,-5.337
0.186,0.048,0.261,-5.337
0.221,0.046,0.259,-5.337
0.271,0.044,0.259,-5.337
0.212,0.045,0.255,-5.337
0.148,0.051,0.253,-5.337
0.148,0.052,0.257,-5.337
0.178,0.050,0.262,-5.337
0.148,0.049,0.264,-5.337
0.141,0.051,0.266,-5.337
0.132,0.053,0.263,-5.337
0.073,0.054,0.258,-5.337
0.071,0.052,0.257,-5.337
0.120,0.050,0.261,-5.337
0.141,0.049,0.265,-5.337
0.213,0.049,0.266,-5.337
0.242,0.050,0.264,-5.337
0.159,0.050,0.257,-5.337
0.136,0.049,0.250,-5.337
0.199,0.048,0.250,-5.337
0.278,0.046,0.255,-5.337
0.247,0.048,0.257,-5.337
0.188,0.047,0.258,-5.337
0.188,0.048,0.257,-5.337
0.176,0.047,0.260,-5.337
0.113,0.045,0.258,-5.337
0.104,0.045,0.259,-5.337
0.113,0.044,0.258,-5.337
0.192,0.041,0.259,-5.337
0.224,0.042,0.260,-5.337
0.225,0.043,0.258,-5.337
0.190,0.042,0.257,-5.337
0.218,0.042,0.260,-5.337
0.186,0.042,0.262,-5.337
0.159,0.044,0.261,-5.337
0.169,0.046,0.259,-5.337
0.206,0.043,0.261,-5.337
0.217,0.042,0.261,-5.337
0.236,0.046,0.260,-5.337
0.196,0.043,0.258,-5.337
0.213,0.036,0.257,-5.337
0.275,0.039,0.260,-5.337
0.268,0.041,0.262,-5.337
0.213,0.043,0.259,-5.337
0.195,0.040,0.257,-5.337
0.210,0.039,0.259,-5.337
0.151,0.041,0.260,-5.337
0.137,0.045,0.260,-5.337
0.139,0.045,0.257,-5.337
0.156,0.042,0.261,-5.337
0.138,0.044,0.260,-5.337
0.131,0.047,0.259,-5.337
0.163,0.042,0.255,-5.337
0.201,0.039,0.252,-5.337
0.206,0.039,0.253,-5.337
0.196,0.042,0.258,-5.337
0.179,0.041,0.263,-5.337
0.160,0.039,0.264,-5.337
0.156,0.041,0.256,-5.337
0.184,0.043,0.252,-5.337
0.172,0.043,0.256,-5.337
0.212,0.038,0.262,-5.337
0.264,0.041,0.264,-5.337
0.237,0.040,0.257,-5.337
0.274,0.038,0.251,-5.337
0.279,0.038,0.253,-5.337
0.181,0.044,0.258,-5.337
0.144,0.047,0.257,-5.337
0.146,0.049,0.252,-5.337
0.159,0.043,0.252,-5.337
0.137,0.043,0.256,-5.337
0.109,0.047,0.258,-5.337
0.117,0.051,0.264,-5.337
0.148,0.052,0.265,-5.337
0.155,0.050,0.261,-5.337
0.137,0.046,0.260,-5.337
0.169,0.047,0.261,-5.337
0.214,0.043,0.262,-5.337
0.236,0.043,0.260,-5.337
0.215,0.044,0.258,-5.337
0.195,0.043,0.260,-5.337
0.171,0.045,0.258,-5.337
0.162,0.043,0.257,-5.337
0.177,0.042,0.255,-5.337
0.169,0.043,0.253,-5.337
0.236,0.041,0.254,-5.337
0.256,0.043,0.258,-5.337
0.190,0.046,0.257,-5.337
0.159,0.045,0.257,-5.337
0.186,0.040,0.260,-5.337
0.255,0.039,0.258,-5.337
0.324,0.040,0.258,-5.337
0.247,0.042,0.256,-5.337
0.207,0.042,0.255,-5.337
0.259,0.040,0.260,-5.337
0.223,0.041,0.262,-5.337
0.201,0.039,0.260,-5.337
0.201,0.040,0.258,-5.337
0.282,0.042,0.254,-5.337
0.261,0.044,0.253,-5.337
0.146,0.045,0.255,-5.337
0.136,0.047,0.257,-5.337
0.151,0.044,0.258,-5.337
0.157,0.043,0.258,-5.337
0.107,0.042,0.259,-5.337
0.132,0.042,0.258,-5.337
0.165,0.044,0.254,-5.337
0.145,0.043,0.252,-5.337
0.222,0.042,0.258,-5.337
0.287,0.042,0.259,-5.337
0.272,0.041,0.259,-5.337
0.257,0.040,0.260,-5.337
0.298,0.036,0.259,-5.337
0.258,0.034,0.255,-5.337
0.176,0.041,0.256,-5.337
0.120,0.041,0.257,-5.337
0.158,0.042,0.257,-5.337
0.167,0.043,0.257,-5.337
0.210,0.041,0.256,-5.337
0.218,0.042,0.254,-5.337
0.215,0.044,0.253,-5.337
0.231,0.042,0.255,-5.337
0.183,0.040,0.261,-5.337
0.131,0.040,0.265,-5.337
0.195,0.041,0.265,-5.337
0.188,0.042,0.265,-5.337
0.120,0.043,0.261,-5.337
0.122,0.043,0.254,-5.337
0.134,0.041,0.251,-5.337
0.138,0.042,0.255,-5.337
0.145,0.044,0.259,-5.337
0.134,0.047,0.262,-5.337
0.146,0.047,0.260,-5.337
0.195,0.046,0.257,-5.337
0.235,0.044,0.257,-5.337
0.224,0.046,0.258,-5.337
0.179,0.044,0.258,-5.337
0.166,0.043,0.261,-5.337
0.167,0.044,0.261,-5.337
0.179,0.044,0.257,-5.337
0.252,0.045,0.258,-5.337
0.229,0.046,0.258,-5.337
0.160,0.048,0.255,-5.337
0.143,0.049,0.253,-5.337
0.193,0.041,0.257,-5.337
0.214,0.044,0.261,-5.337
0.155,0.047,0.260,-5.337
0.175,0.048,0.258,-5.337
0.222,0.047,0.257,-5.337
0.200,0.047,0.255,-5.337
0.159,0.048,0.253,-5.337
0.209,0.046,0.254,-5.337
0.221,0.046,0.259,-5.337
0.176,0.048,0.263,-5.337
0.219,0.049,0.263,-5.337
0.203,0.052,0.259,-5.337
0.166,0.052,0.256,-5.337
0.134,0.051,0.254,-5.337
0.107,0.044,0.257,-5.337
0.154,0.039,0.258,-5.337
0.169,0.044,0.258,-5.337
0.128,0.046,0.257,-5.337
0.072,0.047,0.255,-5.337
0.097,0.049,0.255,-5.337
0.145,0.048,0.256,-5.337
0.200,0.046,0.256,-5.337
0.190,0.046,0.258,-5.337
0.183,0.047,0.260,-5.337
0.232,0.045,0.260,-5.337
0.225,0.043,0.257,-5.337
0.176,0.044,0.258,-5.337
0.142,0.049,0.258,-5.337
0.119,0.051,0.256,-5.337
0.167,0.049,0.258,-5.337
0.178,0.048,0.259,-5.337
0.144,0.048,0.260,-5.337
0.191,0.046,0.259,-5.337
0.249,0.045,0.257,-5.337
0.222,0.049,0.255,-5.337
0.118,0.049,0.258,-5.337
0.116,0.048,0.258,-5.337
0.172,0.050,0.260,-5.337
0.214,0.049,0.260,-5.337
0.202,0.049,0.259,-5.337
0.207,0.046,0.259,-5.337
0.218,0.048,0.258,-5.337
0.159,0.051,0.262,-5.337
0.185,0.053,0.265,-5.337
0.199,0.055,0.261,-5.337
0.182,0.052,0.260,-5.337
0.200,0.052,0.260,-5.337
0.238,0.049,0.262,-5.337
0.206,0.050,0.261,-5.337
0.132,0.051,0.259,-5.337
0.200,0.050,0.258,-5.337
0.302,0.052,0.258,-5.337
0.282,0.053,0.257,-5.337
0.202,0.055,0.256,-5.337
0.184,0.056,0.257,-5.337
0.182,0.057,0.260,-5.337
0.187,0.055,0.263,-5.337
0.176,0.057,0.260,-5.337
0.187,0.054,0.257,-5.337
0.203,0.051,0.256,-5.337
0.168,0.054,0.256,-5.337
0.184,0.051,0.256,-5.337
0.194,0.053,0.258,-5.337
0.190,0.054,0.258,-5.337
0.192,0.054,0.257,-5.337
0.242,0.052,0.261,-5.337
0.292,0.054,0.264,-5.337
0.289,0.056,0.263,-5.337
0.173,0.058,0.265,-5.337
0.135,0.057,0.262,-5.337
0.130,0.055,0.256,-5.337
0.137,0.056,0.255,-5.337
0.144,0.060,0.255,-5.337
0.121,0.061,0.257,-5.337
0.112,0.060,0.257,-5.337
0.115,0.061,0.258,-5.337
0.142,0.061,0.259,-5.337
0.166,0.060,0.258,-5.337
0.170,0.056,0.260,-5.337
0.225,0.054,0.262,-5.337
0.163,0.058,0.262,-5.337
0.146,0.061,0.259,-5.337
0.240,0.056,0.256,-5.337
0.270,0.054,0.255,-5.337
0.249,0.054,0.255,-5.337
0.231,0.055,0.258,-5.337
0.272,0.053,0.261,-5.337
0.271,0.057,0.261,-5.337
0.226,0.057,0.262,-5.337
0.248,0.059,0.260,-5.337
0.221,0.060,0.258,-5.337
0.214,0.056,0.259,-5.337
0.232,0.054,0.261,-5.337
0.239,0.058,0.259,-5.337
0.232,0.061,0.259,-5.337
0.224,0.058,0.257,-5.337
0.203,0.057,0.258,-5.337
0.259,0.058,0.258,-5.337
0.264,0.062,0.259,-5.337
0.205,0.061,0.261,-5.337
0.195,0.057,0.258,-5.337
0.254,0.055,0.252,-5.337
0.134,0.066,0.252,-5.337
0.076,0.067,0.257,-5.337
0.113,0.060,0.262,-5.337
0.200,0.059,0.261,-5.337
0.198,0.061,0.257,-5.337
0.169,0.063,0.255,-5.337
0.176,0.061,0.258,-5.337
0.196,0.058,0.260,-5.337
0.177,0.054,0.258,-5.337
0.156,0.054,0.260,-5.337
0.241,0.053,0.259,-5.337
0.329,0.054,0.257,-5.337
0.292,0.054,0.256,-5.337
0.220,0.053,0.257,-5.337
0.213,0.055,0.256,-5.337
0.241,0.057,0.257,-5.337
0.259,0.054,0.257,-5.337
0.189,0.058,0.261,-5.337
0.120,0.063,0.260,-5.337
0.105,0.062,0.262,-5.337
0.125,0.057,0.259,-5.337
0.186,0.057,0.257,-5.337
0.205,0.055,0.257,-5.337
0.186,0.061,0.256,-5.337
0.188,0.061,0.258,-5.337
0.165,0.062,0.259,-5.337
0.125,0.064,0.257,-5.337
0.175,0.062,0.257,-5.337
0.224,0.061,0.255,-5.337
0.205,0.063,0.260,-5.337
0.163,0.063,0.261,-5.337
0.177,0.061,0.260,-5.337
0.198,0.058,0.259,-5.337
0.228,0.056,0.258,-5.337
0.205,0.058,0.256,-5.337
0.155,0.061,0.256,-5.337
0.159,0.065,0.259,-5.337
0.128,0.068,0.257,-5.337
0.130,0.066,0.258,-5.337
0.196,0.065,0.261,-5.337
0.137,0.066,0.263,-5.337
0.094,0.062,0.260,-5.337
0.053,0.065,0.256,-5.337
0.120,0.060,0.256,-5.337
0.223,0.056,0.259,-5.337
0.288,0.059,0.261,-5.337
0.218,0.061,0.260,-5.337
0.169,0.063,0.259,-5.337
0.250,0.060,0.260,-5.337
0.311,0.058,0.260,-5.337
0.282,0.065,0.263,-5.337
0.185,0.067,0.263,-5.337
0.157,0.065,0.260,-5.337
0.168,0.061,0.257,-5.337
0.205,0.059,0.254,-5.337
0.248,0.061,0.255,-5.337
0.238,0.067,0.256,-5.337
0.216,0.068,0.259,-5.337
0.191,0.068,0.258,-5.337
0.155,0.071,0.256,-5.337
0.176,0.068,0.257,-5.337
0.198,0.066,0.260,-5.337
0.200,0.064,0.259,-5.337
0.141,0.068,0.258,-5.337
0.177,0.067,0.262,-5.337
0.196,0.065,0.267,-5.337
0.200,0.062,0.265,-5.337
0.170,0.064,0.262,-5.337
0.127,0.068,0.259,-5.337
0.134,0.068,0.259,-5.337
0.187,0.067,0.257,-5.337
0.199,0.067,0.255,-5.337
0.192,0.065,0.259,-5.337
0.261,0.061,0.261,-5.337
0.284,0.062,0.259,-5.337
0.243,0.066,0.258,-5.337
0.268,0.064,0.263,-5.337
0.327,0.060,0.264,-5.337
0.337,0.063,0.263,-5.337
0.215,0.064,0.261,-5.337
0.090,0.069,0.261,-5.337
0.114,0.067,0.259,-5.337
0.165,0.069,0.257,-5.337
0.169,0.069,0.262,-5.337
0.174,0.068,0.267,-5.337
0.222,0.067,0.263,-5.337
0.264,0.066,0.256,-5.337
0.240,0.064,0.253,-5.337
0.177,0.063,0.254,-5.337
0.108,0.064,0.254,-5.337
0.110,0.064,0.254,-5.337
0.237,0.064,0.255,-5.337
0.200,0.063,0.256,-5.337
0.113,0.064,0.260,-5.337
0.160,0.065,0.261,-5.337
0.205,0.063,0.264,-5.337
0.176,0.061,0.264,-5.337
0.182,0.059,0.262,-5.337
0.212,0.061,0.256,-5.337
0.208,0.062,0.256,-5.337
0.179,0.061,0.255,-5.337
0.148,0.065,0.257,-5.337
0.143,0.061,0.259,-5.337
0.182,0.062,0.261,-5.337
0.194,0.060,0.262,-5.337
0.178,0.061,0.263,-5.337
0.183,0.060,0.259,-5.337
0.168,0.063,0.255,-5.337
0.203,0.063,0.257,-5.337
0.188,0.064,0.261,-5.337
0.144,0.065,0.263,-5.337
0.166,0.063,0.259,-5.337
0.282,0.061,0.256,-5.337
0.304,0.065,0.255,-5.337
0.218,0.068,0.256,-5.337
0.161,0.066,0.256,-5.337
0.133,0.065,0.257,-5.337
0.160,0.061,0.257,-5.337
0.201,0.065,0.260,-5.337
0.154,0.064,0.262,-5.337
0.193,0.061,0.258,-5.337
0.185,0.061,0.253,-5.337
0.116,0.064,0.254,-5.337
0.124,0.064,0.257,-5.337
0.138,0.064,0.258,-5.337
0.197,0.061,0.257,-5.337
0.299,0.062,0.259,-5.337
0.279,0.062,0.256,-5.337
0.223,0.063,0.254,-5.337
0.185,0.061,0.254,-5.337
0.209,0.062,0.256,-5.337
0.201,0.066,0.262,-5.337
0.179,0.065,0.264,-5.337
0.161,0.065,0.261,-5.337
0.196,0.062,0.263,-5.337
0.177,0.064,0.264,-5.337
0.149,0.066,0.265,-5.337
0.126,0.067,0.265,-5.337
0.109,0.063,0.259,-5.337
0.162,0.060,0.255,-5.337
0.167,0.060,0.256,-5.337
0.156,0.059,0.261,-5.337
0.086,0.060,0.262,-5.337
0.141,0.057,0.259,-5.337
0.214,0.055,0.257,-5.337
0.214,0.058,0.255,-5.337
0.198,0.061,0.255,-5.337
0.210,0.060,0.255,-5.337
0.232,0.057,0.255,-5.337
0.223,0.056,0.257,-5.337
0.188,0.058,0.260,-5.337
0.111,0.060,0.262,-5.337
0.081,0.056,0.260,-5.337
0.175,0.052,0.254,-5.337
0.139,0.054,0.255,-5.337
0.089,0.057,0.259,-5.337
0.147,0.060,0.259,-5.337
0.153,0.060,0.257,-5.337
0.153,0.057,0.258,-5.337
0.217,0.055,0.257,-5.337
0.205,0.054,0.259,-5.337
0.204,0.053,0.260,-5.337
0.212,0.052,0.264,-5.337
0.172,0.054,0.264,-5.337
0.149,0.053,0.263,-5.337
0.201,0.050,0.260,-5.337
0.231,0.051,0.256,-5.337
0.228,0.051,0.255,-5.337
0.205,0.051,0.259,-5.337
0.240,0.053,0.259,-5.337
0.189,0.057,0.257,-5.337
0.212,0.052,0.256,-5.337
0.248,0.051,0.257,-5.337
0.230,0.049,0.257,-5.337
0.247,0.051,0.256,-5.337
0.241,0.052,0.258,-5.337
0.216,0.053,0.260,-5.337
0.285,0.051,0.259,-5.337
0.346,0.052,0.258,-5.337
0.316,0.053,0.257,-5.337
0.323,0.055,0.254,-5.337
0.245,0.058,0.259,-5.337
0.155,0.061,0.263,-5.337
0.060,0.059,0.261,-5.337
0.117,0.053,0.257,-5.337
0.192,0.051,0.257,-5.337
0.188,0.049,0.256,-5.337
0.278,0.048,0.258,-5.337
0.362,0.047,0.256,-5.337
0.354,0.045,0.253,-5.337
0.266,0.047,0.251,-5.337
0.228,0.051,0.257,-5.337
0.215,0.050,0.257,-5.337
0.216,0.054,0.257,-5.337
0.178,0.055,0.261,-5.337
0.108,0.053,0.262,-5.337
0.130,0.049,0.258,-5.337
0.165,0.049,0.257,-5.337
0.176,0.049,0.257,-5.337
0.174,0.052,0.260,-5.337
0.185,0.051,0.264,-5.337
0.164,0.051,0.262,-5.337
0.155,0.048,0.259,-5.337
0.155,0.050,0.258,-5.337
0.138,0.052,0.261,-5.337
0.130,0.050,0.262,-5.337
0.178,0.054,0.263,-5.337
0.184,0.055,0.258,-5.337
0.197,0.056,0.258,-5.337
0.135,0.054,0.259,-5.337
0.106,0.053,0.262,-5.337
0.153,0.048,0.261,-5.337
0.117,0.050,0.262,-5.337
0.118,0.051,0.261,-5.337
0.134,0.051,0.260,-5.337
0.126,0.050,0.258,-5.337
0.153,0.052,0.258,-5.337
0.227,0.050,0.257,-5.337
0.250,0.048,0.256,-5.337
0.168,0.049,0.258,-5.337
0.118,0.052,0.261,-5.337
0.123,0.052,0.263,-5.337
0.124,0.055,0.259,-5.337
0.162,0.051,0.259,-5.337
0.222,0.046,0.259,-5.337
0.179,0.051,0.262,-5.337
0.142,0.050,0.260,-5.337
0.225,0.047,0.258,-5.337
0.279,0.042,0.258,-5.337
0.240,0.047,0.261,-5.337
0.223,0.049,0.259,-5.337
0.234,0.051,0.259,-5.337
0.229,0.049,0.260,-5.337
0.145,0.052,0.259,-5.337
0.147,0.048,0.257,-5.337
0.270,0.049,0.260,-5.337
0.271,0.049,0.261,-5.337
0.249,0.044,0.256,-5.337
0.280,0.047,0.257,-5.337
0.263,0.048,0.259,-5.337
0.211,0.048,0.260,-5.337
0.159,0.050,0.263,-5.337
0.153,0.050,0.262,-5.337
0.120,0.048,0.259,-5.337
0.187,0.044,0.259,-5.337
0.235,0.046,0.258,-5.337
0.189,0.050,0.260,-5.337
0.137,0.051,0.261,-5.337
0.094,0.047,0.263,-5.337
0.129,0.047,0.262,-5.337
0.228,0.045,0.263,-5.337
0.260,0.043,0.261,-5.337
0.244,0.042,0.259,-5.337
0.196,0.044,0.260,-5.337
0.217,0.044,0.264,-5.337
0.259,0.040,0.262,-5.337
0.212,0.041,0.259,-5.337
0.154,0.044,0.259,-5.337
0.117,0.045,0.261,-5.337
0.110,0.046,0.263,-5.337
0.098,0.048,0.260,-5.337
0.128,0.044,0.257,-5.337
0.183,0.043,0.258,-5.337
0.176,0.044,0.262,-5.337
0.211,0.041,0.262,-5.337
0.279,0.038,0.258,-5.337
0.217,0.041,0.256,-5.337
0.148,0.042,0.260,-5.337
0.110,0.038,0.257,-5.337
0.174,0.036,0.258,-5.337
0.205,0.037,0.257,-5.337
0.176,0.038,0.257,-5.337
0.184,0.035,0.255,-5.337
0.221,0.034,0.253,-5.337
0.207,0.036,0.254,-5.337
0.204,0.038,0.260,-5.337
0.149,0.039,0.262,-5.337
0.117,0.040,0.261,-5.337
0.125,0.043,0.258,-5.337
0.132,0.044,0.256,-5.337
0.162,0.042,0.257,-5.337
0.242,0.041,0.259,-5.337
0.318,0.042,0.257,-5.337
0.263,0.041,0.255,-5.337
0.248,0.041,0.256,-5.337
0.315,0.038,0.257,-5.337
0.294,0.041,0.257,-5.337
0.203,0.042,0.258,-5.337
0.166,0.039,0.259,-5.337
0.169,0.039,0.262,-5.337
0.155,0.041,0.266,-5.337
0.103,0.042,0.266,-5.337
0.054,0.042,0.265,-5.337
0.093,0.038,0.262,-5.337
0.108,0.040,0.263,-5.337
0.157,0.040,0.259,-5.337
0.183,0.040,0.258,-5.337
0.188,0.038,0.259,-5.337
0.271,0.037,0.258,-5.337
0.265,0.037,0.256,-5.337
0.181,0.041,0.255,-5.337
0.167,0.042,0.257,-5.337
0.232,0.039,0.261,-5.337
0.227,0.040,0.262,-5.337
0.197,0.041,0.261,-5.337
0.201,0.041,0.260,-5.337
0.179,0.042,0.261,-5.337
0.103,0.044,0.260,-5.337
0.043,0.047,0.261,-5.337
0.181,0.045,0.262,-5.337
0.212,0.047,0.260,-5.337
0.152,0.042,0.261,-5.337
0.198,0.039,0.261,-5.337
0.208,0.042,0.263,-5.337
0.195,0.042,0.261,-5.337
0.240,0.041,0.258,-5.337
0.196,0.042,0.257,-5.337
0.191,0.043,0.260,-5.337
0.167,0.040,0.262,-5.337
0.168,0.042,0.265,-5.337
0.143,0.041,0.264,-5.337
0.158,0.038,0.261,-5.337
0.142,0.040,0.261,-5.337
0.119,0.042,0.261,-5.337
0.168,0.040,0.261,-5.337
0.218,0.037,0.260,-5.337
0.268,0.037,0.262,-5.337
0.227,0.041,0.263,-5.337
0.154,0.040,0.261,-5.337
0.169,0.038,0.257,-5.337
0.194,0.038,0.258,-5.337
0.211,0.037,0.255,-5.337
0.222,0.039,0.259,-5.337
0.209,0.042,0.261,-5.337
0.258,0.040,0.261,-5.337
0.291,0.035,0.258,-5.337
0.286,0.035,0.258,-5.337
0.168,0.038,0.257,-5.337
0.099,0.045,0.254,-5.337
0.101,0.042,0.257,-5.337
0.094,0.039,0.262,-5.337
0.116,0.036,0.260,-5.337
0.142,0.039,0.255,-5.337
0.151,0.039,0.258,-5.337
0.209,0.038,0.264,-5.337
0.173,0.039,0.264,-5.337
0.165,0.041,0.261,-5.337
0.162,0.043,0.259,-5.337
0.160,0.043,0.261,-5.337
0.167,0.041,0.260,-5.337
0.197,0.039,0.256,-5.337
0.167,0.039,0.260,-5.337
0.159,0.041,0.262,-5.337
0.195,0.043,0.264,-5.337
0.205,0.041,0.263,-5.337
0.232,0.040,0.260,-5.337
0.308,0.037,0.258,-5.337
0.323,0.040,0.261,-5.337
0.256,0.039,0.260,-5.337
0.217,0.041,0.258,-5.337
0.171,0.046,0.255,-5.337
0.128,0.043,0.253,-5.337
0.139,0.038,0.250,-5.337
0.152,0.036,0.255,-5.337
0.153,0.035,0.259,-5.337
0.192,0.035,0.263,-5.337
0.139,0.035,0.262,-5.337
0.146,0.034,0.261,-5.337
0.132,0.037,0.260,-5.337
0.130,0.038,0.259,-5.337
0.202,0.033,0.255,-5.337
0.219,0.034,0.255,-5.337
0.155,0.038,0.260,-5.337
0.145,0.039,0.264,-5.337
0.146,0.039,0.266,-5.337
0.124,0.037,0.264,-5.337
0.097,0.038,0.262,-5.337
0.039,0.042,0.255,-5.337
0.029,0.040,0.256,-5.337
0.101,0.038,0.260,-5.337
0.156,0.041,0.262,-5.337
0.144,0.044,0.256,-5.337
0.149,0.044,0.253,-5.337
0.179,0.042,0.251,-5.337
0.221,0.043,0.254,-5.337
0.224,0.045,0.258,-5.337
0.172,0.045,0.259,-5.337
0.193,0.042,0.258,-5.337
0.210,0.042,0.258,-5.337
0.223,0.039,0.260,-5.337
0.186,0.042,0.262,-5.337
0.156,0.045,0.261,-5.337
0.202,0.043,0.261,-5.337
0.209,0.042,0.261,-5.337
0.258,0.037,0.259,-5.337
0.203,0.039,0.256,-5.337
0.200,0.038,0.253,-5.337
0.310,0.036,0.251,-5.337
0.299,0.037,0.251,-5.337
0.269,0.039,0.258,-5.337
0.269,0.039,0.261,-5.337
0.228,0.043,0.262,-5.337
0.131,0.047,0.259,-5.337
0.126,0.048,0.256,-5.337
0.187,0.047,0.255,-5.337
0.151,0.046,0.258,-5.337
0.159,0.046,0.260,-5.337
0.197,0.047,0.259,-5.337
0.147,0.044,0.259,-5.337
0.160,0.040,0.258,-5.337
0.152,0.043,0.257,-5.337
0.065,0.045,0.256,-5.337
0.082,0.043,0.261,-5.337
0.225,0.041,0.261,-5.337
0.204,0.043,0.259,-5.337
0.182,0.042,0.257,-5.337
0.182,0.042,0.258,-5.337
0.184,0.043,0.258,-5.337
0.218,0.047,0.261,-5.337
0.177,0.046,0.260,-5.337
0.213,0.041,0.258,-5.337
0.247,0.040,0.259,-5.337
0.227,0.041,0.260,-5.337
0.198,0.042,0.260,-5.337
0.115,0.043,0.261,-5.337
0.111,0.044,0.261,-5.337
0.155,0.047,0.260,-5.337
0.179,0.047,0.259,-5.337
0.115,0.051,0.260,-5.337
0.086,0.050,0.259,-5.337
0.177,0.046,0.260,-5.337
0.205,0.048,0.262,-5.337
0.145,0.053,0.262,-5.337
0.159,0.053,0.256,-5.337
0.174,0.055,0.251,-5.337
0.130,0.054,0.254,-5.337
0.104,0.053,0.259,-5.337
0.196,0.050,0.261,-5.337
0.229,0.048,0.259,-5.337
0.204,0.047,0.259,-5.337
0.161,0.050,0.257,-5.337
0.147,0.052,0.257,-5.337
0.127,0.053,0.257,-5.337
0.178,0.052,0.256,-5.337
0.193,0.052,0.258,-5.337
0.175,0.054,0.261,-5.337
0.193,0.053,0.261,-5.337
0.204,0.054,0.261,-5.337
0.225,0.052,0.258,-5.337
0.270,0.052,0.257,-5.337
0.240,0.049,0.258,-5.337
0.177,0.050,0.260,-5.337
0.130,0.049,0.258,-5.337
0.151,0.048,0.260,-5.337
0.171,0.049,0.262,-5.337
0.145,0.053,0.263,-5.337
0.210,0.051,0.262,-5.337
0.272,0.050,0.256,-5.337
0.147,0.056,0.255,-5.337
0.074,0.057,0.255,-5.337
0.181,0.050,0.258,-5.337
0.248,0.051,0.258,-5.337
0.245,0.053,0.259,-5.337
0.196,0.053,0.256,-5.337
0.184,0.055,0.256,-5.337
0.142,0.059,0.258,-5.337
0.100,0.057,0.263,-5.337
0.181,0.054,0.264,-5.337
0.158,0.057,0.259,-5.337
0.072,0.059,0.255,-5.337
0.027,0.060,0.256,-5.337
0.087,0.057,0.257,-5.337
0.124,0.055,0.257,-5.337
0.147,0.054,0.259,-5.337
0.246,0.053,0.261,-5.337
0.267,0.051,0.261,-5.337
0.237,0.049,0.256,-5.337
0.263,0.044,0.256,-5.337
0.295,0.046,0.259,-5.337
0.240,0.048,0.261,-5.337
0.223,0.049,0.259,-5.337
0.243,0.051,0.261,-5.337
0.264,0.052,0.260,-5.337
0.219,0.056,0.260,-5.337
0.226,0.056,0.259,-5.337
0.264,0.055,0.256,-5.337
0.230,0.054,0.255,-5.337
0.138,0.056,0.258,-5.337
0.148,0.052,0.261,-5.337
0.231,0.052,0.262,-5.337
0.227,0.053,0.259,-5.337
0.186,0.057,0.259,-5.337
0.168,0.058,0.259,-5.337
0.116,0.060,0.258,-5.337
0.090,0.058,0.258,-5.337
0.113,0.059,0.261,-5.337
0.191,0.055,0.262,-5.337
0.196,0.054,0.263,-5.337
0.172,0.050,0.260,-5.337
0.125,0.050,0.256,-5.337
0.166,0.053,0.257,-5.337
0.199,0.057,0.255,-5.337
0.122,0.056,0.256,-5.337
0.122,0.054,0.261,-5.337
0.122,0.055,0.267,-5.337
0.110,0.055,0.267,-5.337
0.174,0.057,0.262,-5.337
0.202,0.058,0.258,-5.337
0.085,0.061,0.259,-5.337
0.082,0.060,0.257,-5.337
0.147,0.057,0.252,-5.337
0.155,0.055,0.253,-5.337
0.118,0.056,0.257,-5.337
0.206,0.055,0.257,-5.337
0.187,0.055,0.258,-5.337
0.071,0.057,0.262,-5.337
0.129,0.055,0.265,-5.337
0.251,0.055,0.266,-5.337
0.211,0.057,0.266,-5.337
0.187,0.057,0.265,-5.337
0.202,0.058,0.262,-5.337
0.217,0.054,0.260,-5.337
0.211,0.054,0.258,-5.337
0.250,0.052,0.258,-5.337
0.276,0.057,0.257,-5.337
0.250,0.060,0.257,-5.337
0.199,0.059,0.258,-5.337
0.165,0.061,0.262,-5.337
0.184,0.062,0.265,-5.337
0.242,0.062,0.264,-5.337
0.229,0.059,0.260,-5.337
0.130,0.062,0.255,-5.337
0.178,0.063,0.255,-5.337
0.244,0.061,0.258,-5.337
0.285,0.062,0.260,-5.337
0.246,0.068,0.258,-5.337
0.140,0.067,0.254,-5.337
0.191,0.062,0.256,-5.337
0.224,0.063,0.259,-5.337
0.172,0.066,0.260,-5.337
0.185,0.062,0.263,-5.337
0.219,0.063,0.263,-5.337
0.172,0.067,0.262,-5.337
0.113,0.071,0.258,-5.337
0.137,0.067,0.262,-5.337
0.175,0.063,0.264,-5.337
0.210,0.061,0.267,-5.337
0.260,0.060,0.264,-5.337
0.218,0.064,0.263,-5.337
0.169,0.067,0.259,-5.337
0.235,0.066,0.260,-5.337
0.219,0.067,0.264,-5.337
0.162,0.066,0.263,-5.337
0.211,0.062,0.262,-5.337
0.258,0.061,0.260,-5.337
0.140,0.064,0.257,-5.337
0.135,0.062,0.255,-5.337
0.205,0.060,0.251,-5.337
0.235,0.059,0.254,-5.337
0.231,0.057,0.258,-5.337
0.226,0.058,0.261,-5.337
0.193,0.060,0.262,-5.337
0.178,0.063,0.260,-5.337
0.169,0.060,0.258,-5.337
0.264,0.059,0.258,-5.337
0.262,0.060,0.255,-5.337
0.181,0.059,0.258,-5.337
0.118,0.061,0.262,-5.337
0.216,0.058,0.260,-5.337
0.207,0.060,0.258,-5.337
0.145,0.060,0.260,-5.337
0.159,0.060,0.263,-5.337
0.281,0.057,0.265,-5.337
0.323,0.060,0.263,-5.337
0.193,0.063,0.261,-5.337
0.131,0.065,0.263,-5.337
0.159,0.068,0.264,-5.337
0.164,0.067,0.262,-5.337
0.176,0.065,0.256,-5.337
0.183,0.063,0.255,-5.337
0.132,0.066,0.259,-5.337
0.150,0.069,0.266,-5.337
0.218,0.066,0.269,-5.337
0.230,0.061,0.267,-5.337
0.201,0.060,0.261,-5.337
0.258,0.054,0.255,-5.337
0.287,0.056,0.258,-5.337
0.230,0.060,0.261,-5.337
0.124,0.062,0.261,-5.337
0.088,0.061,0.259,-5.337
0.152,0.062,0.262,-5.337
0.146,0.066,0.262,-5.337
0.162,0.067,0.262,-5.337
0.212,0.064,0.259,-5.337
0.253,0.062,0.257,-5.337
0.308,0.059,0.254,-5.337
0.292,0.061,0.258,-5.337
0.235,0.058,0.263,-5.337
0.206,0.058,0.265,-5.337
0.208,0.061,0.265,-5.337
0.255,0.062,0.266,-5.337
0.258,0.061,0.264,-5.337
0.176,0.064,0.261,-5.337
0.138,0.062,0.259,-5.337
0.157,0.063,0.259,-5.337
0.148,0.066,0.261,-5.337
0.111,0.065,0.264,-5.337
0.158,0.063,0.269,-5.337
0.190,0.066,0.267,-5.337
0.230,0.067,0.262,-5.337
0.154,0.068,0.258,-5.337
0.147,0.068,0.258,-5.337
0.147,0.063,0.259,-5.337
0.149,0.061,0.261,-5.337
0.211,0.058,0.261,-5.337
0.266,0.058,0.260,-5.337
0.277,0.059,0.257,-5.337
0.204,0.062,0.256,-5.337
0.131,0.062,0.257,-5.337
0.193,0.062,0.256,-5.337
0.242,0.061,0.261,-5.337
0.211,0.060,0.262,-5.337
0.206,0.059,0.257,-5.337
0.244,0.059,0.253,-5.337
0.218,0.062,0.255,-5.337
0.157,0.064,0.258,-5.337
0.154,0.062,0.261,-5.337
0.145,0.062,0.260,-5.337
0.156,0.063,0.263,-5.337
0.211,0.060,0.262,-5.337
0.226,0.062,0.261,-5.337
0.214,0.060,0.262,-5.337
0.213,0.060,0.266,-5.337
0.228,0.054,0.264,-5.337
0.241,0.054,0.260,-5.337
0.209,0.055,0.255,-5.337
0.188,0.058,0.252,-5.337
0.104,0.061,0.252,-5.337
0.057,0.062,0.260,-5.337
0.112,0.056,0.265,-5.337
0.203,0.053,0.265,-5.337
0.228,0.053,0.262,-5.337
0.183,0.056,0.263,-5.337
0.118,0.057,0.261,-5.337
0.156,0.056,0.259,-5.337
0.193,0.053,0.259,-5.337
0.145,0.055,0.259,-5.337
0.119,0.054,0.257,-5.337
0.144,0.055,0.253,-5.337
0.194,0.056,0.250,-5.337
0.222,0.058,0.254,-5.337
0.190,0.058,0.262,-5.337
0.127,0.055,0.262,-5.337
0.108,0.057,0.260,-5.337
0.189,0.058,0.258,-5.337
0.173,0.060,0.260,-5.337
0.124,0.059,0.260,-5.337
0.153,0.059,0.261,-5.337
0.151,0.057,0.264,-5.337
0.127,0.055,0.264,-5.337
0.188,0.054,0.261,-5.337
0.246,0.052,0.257,-5.337
0.293,0.049,0.255,-5.337
0.311,0.049,0.254,-5.337
0.301,0.048,0.258,-5.337
0.316,0.049,0.262,-5.337
0.280,0.052,0.264,-5.337
0.255,0.053,0.264,-5.337
0.237,0.052,0.263,-5.337
0.164,0.053,0.261,-5.337
0.194,0.051,0.261,-5.337
0.244,0.049,0.261,-5.337
0.278,0.051,0.260,-5.337
0.273,0.051,0.257,-5.337
0.176,0.050,0.257,-5.337
0.152,0.050,0.257,-5.337
0.187,0.051,0.258,-5.337
0.174,0.052,0.261,-5.337
0.092,0.055,0.260,-5.337
0.106,0.056,0.259,-5.337
0.111,0.058,0.262,-5.337
0.138,0.054,0.261,-5.337
0.218,0.051,0.258,-5.337
0.216,0.049,0.255,-5.337
0.216,0.049,0.256,-5.337
0.254,0.048,0.258,-5.337
0.278,0.053,0.257,-5.337
0.296,0.055,0.261,-5.337
0.215,0.056,0.263,-5.337
0.221,0.051,0.264,-5.337
0.212,0.048,0.262,-5.337
0.202,0.049,0.260,-5.337
0.203,0.050,0.259,-5.337
0.198,0.051,0.256,-5.337
0.206,0.048,0.257,-5.337
0.277,0.046,0.262,-5.337
0.245,0.044,0.262,-5.337
0.123,0.050,0.264,-5.337
0.195,0.046,0.261,-5.337
0.268,0.049,0.257,-5.337
0.267,0.049,0.256,-5.337
0.291,0.049,0.262,-5.337
0.298,0.047,0.264,-5.337
0.230,0.052,0.263,-5.337
0.194,0.052,0.261,-5.337
0.232,0.051,0.261,-5.337
0.102,0.052,0.262,-5.337
0.015,0.053,0.260,-5.337
0.112,0.050,0.259,-5.337
0.240,0.046,0.257,-5.337
0.216,0.045,0.255,-5.337
0.145,0.046,0.255,-5.337
0.202,0.045,0.259,-5.337
0.253,0.044,0.260,-5.337
0.216,0.048,0.261,-5.337
0.169,0.050,0.262,-5.337
0.197,0.049,0.263,-5.337
0.176,0.050,0.260,-5.337
0.156,0.049,0.262,-5.337
0.142,0.046,0.261,-5.337
0.145,0.046,0.259,-5.337
0.150,0.046,0.260,-5.337
0.208,0.042,0.259,-5.337
0.193,0.043,0.261,-5.337
0.144,0.047,0.259,-5.337
0.156,0.045,0.255,-5.337
0.230,0.040,0.256,-5.337
0.261,0.047,0.261,-5.337
0.190,0.050,0.260,-5.337
0.119,0.049,0.257,-5.337
0.134,0.045,0.256,-5.337
0.161,0.048,0.259,-5.337
0.186,0.048,0.260,-5.337
0.220,0.044,0.263,-5.337
0.209,0.042,0.259,-5.337
0.188,0.045,0.260,-5.337
0.150,0.045,0.258,-5.337
0.179,0.044,0.256,-5.337
0.200,0.044,0.256,-5.337
0.178,0.049,0.263,-5.337
0.195,0.046,0.263,-5.337
0.268,0.045,0.259,-5.337
0.273,0.044,0.259,-5.337
0.181,0.047,0.262,-5.337
0.223,0.042,0.258,-5.337
0.248,0.043,0.252,-5.337
0.246,0.041,0.253,-5.337
0.282,0.039,0.261,-5.337
0.282,0.040,0.264,-5.337
0.258,0.042,0.263,-5.337
0.227,0.045,0.261,-5.337
0.150,0.044,0.259,-5.337
0.127,0.043,0.259,-5.337
0.102,0.046,0.258,-5.337
0.113,0.044,0.263,-5.337
0.154,0.043,0.266,-5.337
0.133,0.044,0.266,-5.337
0.134,0.042,0.258,-5.337
0.201,0.044,0.258,-5.337
0.173,0.048,0.262,-5.337
0.125,0.046,0.267,-5.337
0.194,0.043,0.266,-5.337
0.183,0.050,0.263,-5.337
0.148,0.050,0.259,-5.337
0.139,0.046,0.258,-5.337
0.216,0.041,0.258,-5.337
0.194,0.045,0.256,-5.337
0.167,0.049,0.256,-5.337
0.212,0.047,0.258,-5.337
0.176,0.046,0.259,-5.337
0.106,0.044,0.261,-5.337
0.201,0.041,0.263,-5.337
0.295,0.039,0.262,-5.337
0.212,0.041,0.261,-5.337
0.135,0.041,0.259,-5.337
0.132,0.044,0.257,-5.337
0.210,0.043,0.257,-5.337
0.245,0.041,0.264,-5.337
0.196,0.042,0.265,-5.337
0.179,0.042,0.263,-5.337
0.225,0.041,0.258,-5.337
0.236,0.042,0.258,-5.337
0.220,0.039,0.261,-5.337
0.182,0.042,0.262,-5.337
0.203,0.044,0.262,-5.337
0.189,0.047,0.261,-5.337
0.161,0.045,0.258,-5.337
0.158,0.048,0.259,-5.337
0.228,0.046,0.262,-5.337
0.244,0.044,0.264,-5.337
0.208,0.043,0.265,-5.337
0.168,0.045,0.265,-5.337
0.149,0.042,0.262,-5.337
0.166,0.040,0.259,-5.337
0.088,0.042,0.256,-5.337
0.104,0.041,0.262,-5.337
0.206,0.036,0.266,-5.337
0.221,0.035,0.263,-5.337
0.136,0.039,0.263,-5.337
0.117,0.040,0.262,-5.337
0.166,0.040,0.260,-5.337
0.187,0.042,0.257,-5.337
0.179,0.041,0.257,-5.337
0.142,0.043,0.258,-5.337
0.205,0.046,0.261,-5.337
0.221,0.046,0.262,-5.337
0.184,0.051,0.262,-5.337
0.149,0.046,0.262,-5.337
0.120,0.045,0.262,-5.337
0.149,0.044,0.264,-5.337
0.175,0.040,0.265,-5.337
0.190,0.034,0.263,-5.337
0.171,0.038,0.259,-5.337
0.138,0.042,0.257,-5.337
0.143,0.045,0.259,-5.337
0.197,0.042,0.264,-5.337
0.246,0.043,0.264,-5.337
0.215,0.041,0.261,-5.337
0.201,0.041,0.255,-5.337
0.238,0.040,0.254,-5.337
0.243,0.042,0.256,-5.337
0.139,0.043,0.258,-5.337
0.147,0.040,0.257,-5.337
0.194,0.040,0.259,-5.337
0.221,0.040,0.260,-5.337
0.135,0.047,0.260,-5.337
0.070,0.045,0.255,-5.337
0.134,0.043,0.257,-5.337
0.232,0.043,0.258,-5.337
0.243,0.045,0.258,-5.337
0.200,0.045,0.262,-5.337
0.123,0.049,0.265,-5.337
0.153,0.045,0.265,-5.337
0.250,0.045,0.264,-5.337
0.262,0.045,0.264,-5.337
0.235,0.045,0.265,-5.337
0.201,0.046,0.261,-5.337
0.173,0.046,0.259,-5.337
0.229,0.045,0.259,-5.337
0.227,0.048,0.257,-5.337
0.200,0.047,0.255,-5.337
0.168,0.047,0.257,-5.337
0.181,0.043,0.263,-5.337
0.270,0.039,0.261,-5.337
0.244,0.040,0.260,-5.337
0.191,0.043,0.261,-5.337
0.182,0.044,0.262,-5.337
0.183,0.044,0.263,-5.337
0.141,0.042,0.264,-5.337
0.136,0.040,0.261,-5.337
0.210,0.038,0.261,-5.337
0.205,0.037,0.259,-5.337
0.169,0.041,0.261,-5.337
0.130,0.041,0.261,-5.337
0.214,0.037,0.258,-5.337
0.265,0.036,0.257,-5.337
0.248,0.035,0.258,-5.337
0.209,0.035,0.258,-5.337
0.188,0.040,0.258,-5.337
0.205,0.041,0.261,-5.337
0.169,0.039,0.264,-5.337
0.190,0.035,0.263,-5.337
0.285,0.029,0.260,-5.337
0.299,0.035,0.261,-5.337
0.158,0.041,0.264,-5.337
0.081,0.041,0.267,-5.337
0.097,0.043,0.263,-5.337
0.133,0.044,0.258,-5.337
0.176,0.040,0.257,-5.337
0.169,0.039,0.259,-5.337
0.088,0.042,0.259,-5.337
0.110,0.043,0.260,-5.337
0.196,0.042,0.261,-5.337
0.211,0.039,0.263,-5.337
0.196,0.037,0.264,-5.337
0.204,0.033,0.262,-5.337
0.243,0.031,0.263,-5.337
0.299,0.034,0.262,-5.337
0.223,0.038,0.262,-5.337
0.209,0.035,0.264,-5.337
0.223,0.037,0.265,-5.337
0.273,0.034,0.261,-5.337
0.297,0.031,0.260,-5.337
0.285,0.032,0.255,-5.337
0.277,0.034,0.253,-5.337
0.239,0.034,0.256,-5.337
0.180,0.036,0.261,-5.337
0.186,0.035,0.259,-5.337
0.233,0.036,0.261,-5.337
0.211,0.039,0.259,-5.337
0.164,0.044,0.256,-5.337
0.086,0.043,0.255,-5.337
0.091,0.043,0.257,-5.337
0.162,0.042,0.260,-5.337
0.208,0.044,0.262,-5.337
0.179,0.044,0.259,-5.337
0.145,0.046,0.260,-5.337
0.153,0.045,0.263,-5.337
0.185,0.043,0.265,-5.337
0.177,0.046,0.262,-5.337
0.161,0.046,0.257,-5.337
0.174,0.046,0.256,-5.337
0.211,0.044,0.258,-5.337
0.196,0.046,0.260,-5.337
0.148,0.049,0.261,-5.337
0.114,0.049,0.262,-5.337
0.184,0.048,0.259,-5.337
0.234,0.048,0.258,-5.337
0.185,0.050,0.257,-5.337
0.146,0.052,0.261,-5.337
0.176,0.049,0.263,-5.337
0.240,0.048,0.260,-5.337
0.268,0.043,0.260,-5.337
0.179,0.045,0.258,-5.337
0.110,0.045,0.258,-5.337
0.112,0.049,0.260,-5.337
0.134,0.048,0.260,-5.337
0.120,0.050,0.260,-5.337
0.137,0.046,0.261,-5.337
0.243,0.042,0.265,-5.337
0.194,0.043,0.261,-5.337
0.153,0.044,0.256,-5.337
0.183,0.045,0.259,-5.337
0.147,0.049,0.263,-5.337
0.079,0.045,0.264,-5.337
0.104,0.040,0.259,-5.337
0.151,0.045,0.258,-5.337
0.184,0.045,0.256,-5.337
0.262,0.042,0.257,-5.337
0.202,0.043,0.257,-5.337
0.107,0.048,0.256,-5.337
0.138,0.045,0.255,-5.337
0.220,0.043,0.260,-5.337
0.232,0.044,0.262,-5.337
0.204,0.050,0.260,-5.337
0.194,0.050,0.259,-5.337
0.164,0.048,0.262,-5.337
0.130,0.043,0.264,-5.337
0.135,0.044,0.262,-5.337
0.206,0.047,0.260,-5.337
0.270,0.049,0.262,-5.337
0.255,0.049,0.259,-5.337
0.217,0.050,0.260,-5.337
0.131,0.049,0.262,-5.337
0.115,0.048,0.261,-5.337
0.133,0.050,0.257,-5.337
0.080,0.054,0.253,-5.337
0.090,0.052,0.255,-5.337
0.101,0.052,0.259,-5.337
0.179,0.051,0.262,-5.337
0.255,0.048,0.260,-5.337
0.207,0.048,0.262,-5.337
0.130,0.048,0.259,-5.337
0.114,0.050,0.261,-5.337
0.155,0.052,0.266,-5.337
0.202,0.051,0.267,-5.337
0.281,0.050,0.264,-5.337
0.235,0.054,0.262,-5.337
0.187,0.056,0.259,-5.337
0.173,0.052,0.262,-5.337
0.207,0.047,0.262,-5.337
0.218,0.044,0.259,-5.337
0.178,0.047,0.256,-5.337
0.115,0.052,0.254,-5.337
0.178,0.052,0.256,-5.337
0.215,0.053,0.261,-5.337
0.192,0.051,0.264,-5.337
0.124,0.052,0.260,-5.337
0.151,0.050,0.255,-5.337
0.228,0.048,0.255,-5.337
0.180,0.047,0.260,-5.337
0.198,0.049,0.260,-5.337
0.251,0.045,0.263,-5.337
0.265,0.043,0.264,-5.337
0.246,0.048,0.262,-5.337
0.303,0.046,0.260,-5.337
0.236,0.050,0.261,-5.337
0.174,0.047,0.260,-5.337
0.202,0.049,0.257,-5.337
0.226,0.048,0.259,-5.337
0.147,0.050,0.261,-5.337
0.154,0.048,0.258,-5.337
0.217,0.051,0.254,-5.337
0.227,0.052,0.256,-5.337
0.149,0.052,0.260,-5.337
0.115,0.051,0.261,-5.337
0.164,0.053,0.264,-5.337
0.233,0.054,0.264,-5.337
0.190,0.052,0.258,-5.337
0.109,0.055,0.259,-5.337
0.216,0.059,0.260,-5.337
0.209,0.059,0.260,-5.337
0.204,0.057,0.257,-5.337
0.177,0.060,0.260,-5.337
0.134,0.058,0.264,-5.337
0.091,0.061,0.267,-5.337
0.127,0.062,0.263,-5.337
0.158,0.063,0.259,-5.337
0.169,0.058,0.255,-5.337
0.136,0.054,0.255,-5.337
0.078,0.056,0.256,-5.337
0.103,0.057,0.258,-5.337
0.169,0.054,0.260,-5.337
0.189,0.054,0.262,-5.337
0.130,0.055,0.262,-5.337
0.127,0.054,0.261,-5.337
0.195,0.053,0.258,-5.337
0.190,0.052,0.254,-5.337
0.175,0.049,0.253,-5.337
0.170,0.050,0.255,-5.337
0.222,0.053,0.258,-5.337
0.300,0.057,0.257,-5.337
0.289,0.054,0.258,-5.337
0.209,0.052,0.256,-5.337
0.233,0.054,0.261,-5.337
0.237,0.055,0.263,-5.337
0.205,0.057,0.262,-5.337
0.277,0.053,0.259,-5.337
0.243,0.054,0.259,-5.337
0.230,0.059,0.262,-5.337
0.234,0.059,0.262,-5.337
0.195,0.059,0.261,-5.337
0.171,0.056,0.261,-5.337
0.214,0.054,0.262,-5.337
0.236,0.050,0.261,-5.337
0.264,0.053,0.259,-5.337
0.259,0.056,0.256,-5.337
0.233,0.054,0.256,-5.337
0.226,0.052,0.258,-5.337
0.197,0.054,0.263,-5.337
0.192,0.056,0.263,-5.337
0.236,0.057,0.262,-5.337
0.224,0.059,0.260,-5.337
0.122,0.060,0.259,-5.337
0.112,0.058,0.259,-5.337
0.192,0.057,0.262,-5.337
0.188,0.059,0.259,-5.337
0.143,0.065,0.256,-5.337
0.145,0.066,0.258,-5.337
0.167,0.062,0.262,-5.337
0.181,0.061,0.263,-5.337
0.187,0.060,0.264,-5.337
0.168,0.058,0.265,-5.337
0.198,0.056,0.266,-5.337
0.254,0.057,0.261,-5.337
0.248,0.058,0.260,-5.337
0.155,0.059,0.260,-5.337
0.148,0.060,0.261,-5.337
0.198,0.062,0.262,-5.337
0.166,0.066,0.262,-5.337
0.119,0.063,0.261,-5.337
0.124,0.061,0.260,-5.337
0.184,0.059,0.263,-5.337
0.175,0.057,0.262,-5.337
0.147,0.057,0.262,-5.337
0.191,0.055,0.258,-5.337
0.155,0.054,0.259,-5.337
0.138,0.052,0.263,-5.337
0.077,0.057,0.268,-5.337
0.142,0.053,0.270,-5.337
0.274,0.053,0.268,-5.337
0.282,0.055,0.265,-5.337
0.241,0.058,0.263,-5.337
0.244,0.057,0.262,-5.337
0.290,0.057,0.261,-5.337
0.305,0.058,0.260,-5.337
0.243,0.060,0.258,-5.337
0.179,0.060,0.255,-5.337
0.200,0.059,0.255,-5.337
0.228,0.058,0.258,-5.337
0.155,0.059,0.259,-5.337
0.119,0.057,0.261,-5.337
0.121,0.056,0.263,-5.337
0.166,0.057,0.261,-5.337
0.172,0.060,0.263,-5.337
0.181,0.060,0.261,-5.337
0.148,0.060,0.262,-5.337
0.140,0.061,0.263,-5.337
0.166,0.061,0.262,-5.337
0.156,0.059,0.262,-5.337
0.113,0.059,0.261,-5.337
0.117,0.062,0.262,-5.337
0.202,0.061,0.265,-5.337
0.242,0.059,0.262,-5.337
0.213,0.055,0.263,-5.337
0.132,0.061,0.263,-5.337
0.173,0.056,0.259,-5.337
0.317,0.055,0.257,-5.337
0.384,0.057,0.258,-5.337
0.279,0.056,0.258,-5.337
0.162,0.058,0.259,-5.337
0.085,0.058,0.260,-5.337
0.085,0.061,0.258,-5.337
0.165,0.059,0.257,-5.337
0.252,0.052,0.261,-5.337
0.270,0.054,0.262,-5.337
0.234,0.056,0.263,-5.337
0.238,0.056,0.263,-5.337
0.221,0.056,0.263,-5.337
0.208,0.057,0.265,-5.337
0.196,0.058,0.267,-5.337
0.243,0.057,0.262,-5.337
0.245,0.054,0.260,-5.337
0.184,0.054,0.259,-5.337
0.165,0.056,0.261,-5.337
0.260,0.052,0.263,-5.337
0.297,0.052,0.265,-5.337
0.289,0.049,0.264,-5.337
0.252,0.051,0.264,-5.337
0.177,0.053,0.262,-5.337
0.195,0.053,0.261,-5.337
0.211,0.055,0.260,-5.337
0.147,0.054,0.260,-5.337
0.177,0.054,0.259,-5.337
0.202,0.059,0.264,-5.337
0.154,0.063,0.263,-5.337
0.170,0.061,0.261,-5.337
0.263,0.056,0.263,-5.337
0.250,0.059,0.263,-5.337
0.133,0.062,0.266,-5.337
0.102,0.060,0.262,-5.337
0.097,0.060,0.262,-5.337
0.147,0.056,0.259,-5.337
0.186,0.056,0.257,-5.337
0.178,0.057,0.257,-5.337
0.143,0.061,0.257,-5.337
0.125,0.057,0.258,-5.337
0.165,0.054,0.262,-5.337
0.230,0.056,0.266,-5.337
0.203,0.058,0.265,-5.337
0.157,0.062,0.266,-5.337
0.166,0.060,0.268,-5.337
0.183,0.054,0.265,-5.337
0.203,0.055,0.261,-5.337
0.185,0.056,0.262,-5.337
0.173,0.059,0.263,-5.337
0.151,0.058,0.261,-5.337
0.128,0.057,0.259,-5.337
0.193,0.056,0.262,-5.337
0.169,0.055,0.264,-5.337
0.131,0.054,0.263,-5.337
0.122,0.054,0.260,-5.337
0.129,0.054,0.261,-5.337
0.072,0.053,0.262,-5.337
0.097,0.055,0.264,-5.337
0.188,0.053,0.264,-5.337
0.247,0.051,0.259,-5.337
0.293,0.045,0.255,-5.337
0.269,0.048,0.256,-5.337
0.252,0.050,0.256,-5.337
0.200,0.050,0.258,-5.337
0.167,0.050,0.259,-5.337
0.181,0.050,0.262,-5.337
0.217,0.050,0.266,-5.337
0.282,0.052,0.266,-5.337
0.234,0.056,0.265,-5.337
0.168,0.054,0.260,-5.337
0.166,0.050,0.257,-5.337
0.142,0.047,0.257,-5.337
0.203,0.046,0.262,-5.337
0.225,0.047,0.266,-5.337
0.227,0.049,0.267,-5.337
0.199,0.052,0.267,-5.337
0.187,0.050,0.266,-5.337
0.241,0.048,0.261,-5.337
0.270,0.049,0.254,-5.337
0.262,0.045,0.250,-5.337
0.268,0.047,0.253,-5.337
0.251,0.052,0.257,-5.337
0.292,0.048,0.260,-5.337
0.272,0.044,0.260,-5.337
0.247,0.047,0.259,-5.337
0.179,0.051,0.261,-5.337
0.219,0.050,0.263,-5.337
0.223,0.049,0.260,-5.337
0.187,0.049,0.260,-5.337
0.174,0.050,0.259,-5.337
0.185,0.050,0.258,-5.337
0.136,0.053,0.256,-5.337
0.111,0.054,0.255,-5.337
0.152,0.053,0.257,-5.337
0.203,0.055,0.259,-5.337
0.199,0.053,0.261,-5.337
0.219,0.052,0.261,-5.337
0.260,0.051,0.262,-5.337
0.244,0.053,0.264,-5.337
0.202,0.056,0.264,-5.337
0.205,0.052,0.260,-5.337
0.177,0.049,0.258,-5.337
0.254,0.042,0.262,-5.337
0.259,0.044,0.260,-5.337
0.175,0.046,0.261,-5.337
0.103,0.048,0.265,-5.337
0.097,0.046,0.267,-5.337
0.197,0.042,0.265,-5.337
0.239,0.041,0.263,-5.337
0.259,0.042,0.261,-5.337
0.233,0.048,0.257,-5.337
0.166,0.051,0.256,-5.337
0.142,0.049,0.260,-5.337
0.187,0.043,0.261,-5.337
0.277,0.044,0.259,-5.337
0.239,0.048,0.257,-5.337
0.101,0.049,0.259,-5.337
0.108,0.047,0.262,-5.337
0.241,0.044,0.264,-5.337
0.259,0.047,0.262,-5.337
0.181,0.048,0.261,-5.337
0.184,0.044,0.259,-5.337
0.250,0.045,0.261,-5.337
0.228,0.045,0.262,-5.337
0.175,0.046,0.262,-5.337
0.178,0.046,0.264,-5.337
0.120,0.050,0.266,-5.337
0.158,0.045,0.265,-5.337
0.282,0.042,0.264,-5.337
0.299,0.043,0.261,-5.337
0.246,0.049,0.260,-5.337
0.171,0.047,0.260,-5.337
0.245,0.043,0.260,-5.337
0.221,0.047,0.262,-5.337
0.137,0.046,0.264,-5.337
0.085,0.045,0.265,-5.337
0.109,0.042,0.264,-5.337
0.135,0.044,0.265,-5.337
0.124,0.043,0.264,-5.337
0.150,0.043,0.262,-5.337
0.147,0.043,0.255,-5.337
0.157,0.044,0.255,-5.337
0.177,0.041,0.257,-5.337
0.173,0.044,0.261,-5.337
0.157,0.046,0.260,-5.337
0.174,0.044,0.258,-5.337
0.214,0.042,0.256,-5.337
0.250,0.045,0.257,-5.337
0.204,0.046,0.263,-5.337
0.207,0.045,0.267,-5.337
0.169,0.045,0.262,-5.337
0.134,0.044,0.258,-5.337
0.156,0.040,0.259,-5.337
0.147,0.042,0.257,-5.337
0.182,0.041,0.258,-5.337
0.224,0.042,0.261,-5.337
0.191,0.038,0.262,-5.337
0.088,0.038,0.261,-5.337
0.101,0.040,0.262,-5.337
0.203,0.035,0.259,-5.337
0.280,0.037,0.260,-5.337
0.274,0.039,0.259,-5.337
0.164,0.044,0.259,-5.337
0.127,0.044,0.258,-5.337
0.209,0.041,0.260,-5.337
0.253,0.039,0.258,-5.337
0.242,0.041,0.259,-5.337
0.226,0.040,0.264,-5.337
0.240,0.039,0.265,-5.337
0.259,0.036,0.262,-5.337
0.202,0.038,0.261,-5.337
0.269,0.034,0.262,-5.337
0.255,0.036,0.263,-5.337
0.227,0.039,0.261,-5.337
0.180,0.041,0.257,-5.337
0.161,0.042,0.256,-5.337
0.130,0.038,0.256,-5.337
0.155,0.036,0.261,-5.337
0.221,0.035,0.263,-5.337
0.239,0.034,0.263,-5.337
0.221,0.034,0.257,-5.337
0.169,0.036,0.257,-5.337
0.147,0.035,0.256,-5.337
0.137,0.037,0.261,-5.337
0.199,0.036,0.261,-5.337
0.205,0.041,0.258,-5.337
0.206,0.042,0.260,-5.337
0.196,0.040,0.264,-5.337
0.120,0.039,0.265,-5.337
0.156,0.038,0.263,-5.337
0.193,0.038,0.257,-5.337
0.197,0.042,0.257,-5.337
0.217,0.044,0.260,-5.337
0.286,0.042,0.264,-5.337
0.234,0.041,0.264,-5.337
0.181,0.040,0.261,-5.337
0.262,0.039,0.258,-5.337
0.283,0.041,0.258,-5.337
0.192,0.039,0.261,-5.337
0.153,0.042,0.266,-5.337
0.170,0.044,0.267,-5.337
0.172,0.045,0.260,-5.337
0.102,0.046,0.258,-5.337
0.144,0.041,0.257,-5.337
0.143,0.040,0.255,-5.337
0.128,0.037,0.256,-5.337
0.198,0.038,0.261,-5.337
0.207,0.039,0.267,-5.337
0.180,0.040,0.265,-5.337
0.159,0.040,0.257,-5.337
0.224,0.038,0.255,-5.337
0.229,0.041,0.258,-5.337
0.161,0.044,0.263,-5.337
0.204,0.040,0.265,-5.337
0.297,0.040,0.262,-5.337
0.212,0.041,0.257,-5.337
0.129,0.041,0.256,-5.337
0.144,0.042,0.260,-5.337
0.222,0.040,0.262,-5.337
0.255,0.038,0.264,-5.337
0.261,0.039,0.262,-5.337
0.250,0.038,0.264,-5.337
0.208,0.040,0.267,-5.337
0.077,0.043,0.264,-5.337
0.036,0.040,0.257,-5.337
0.108,0.041,0.259,-5.337
0.162,0.038,0.262,-5.337
0.181,0.034,0.265,-5.337
0.159,0.032,0.263,-5.337
0.180,0.032,0.261,-5.337
0.185,0.034,0.257,-5.337
0.193,0.039,0.258,-5.337
0.184,0.040,0.260,-5.337
0.236,0.038,0.261,-5.337
0.281,0.033,0.259,-5.337
0.258,0.037,0.257,-5.337
0.230,0.039,0.258,-5.337
0.214,0.035,0.261,-5.337
0.192,0.035,0.263,-5.337
0.161,0.036,0.264,-5.337
0.223,0.034,0.264,-5.337
0.202,0.036,0.263,-5.337
0.147,0.040,0.265,-5.337
0.195,0.036,0.267,-5.337
0.268,0.035,0.268,-5.337
0.234,0.037,0.267,-5.337
0.193,0.039,0.266,-5.337
0.150,0.041,0.257,-5.337
0.167,0.040,0.254,-5.337
0.226,0.041,0.255,-5.337
0.285,0.039,0.259,-5.337
0.319,0.035,0.260,-5.337
0.319,0.034,0.260,-5.337
0.247,0.037,0.262,-5.337
0.232,0.041,0.264,-5.337
0.238,0.043,0.264,-5.337
0.234,0.040,0.264,-5.337
0.167,0.041,0.263,-5.337
0.123,0.040,0.262,-5.337
0.170,0.040,0.260,-5.337
0.151,0.039,0.263,-5.337
0.177,0.037,0.267,-5.337
0.218,0.036,0.269,-5.337
0.144,0.036,0.266,-5.337
0.113,0.037,0.263,-5.337
0.151,0.040,0.258,-5.337
0.166,0.042,0.252,-5.337
0.120,0.042,0.251,-5.337
0.129,0.040,0.253,-5.337
0.136,0.042,0.254,-5.337
0.111,0.042,0.259,-5.337
0.133,0.043,0.267,-5.337
0.176,0.041,0.269,-5.337
0.216,0.038,0.266,-5.337
0.246,0.035,0.261,-5.337
0.122,0.038,0.258,-5.337
0.080,0.039,0.258,-5.337
0.096,0.038,0.260,-5.337
0.129,0.037,0.263,-5.337
0.209,0.035,0.263,-5.337
0.286,0.035,0.261,-5.337
0.229,0.040,0.264,-5.337
0.224,0.037,0.265,-5.337
0.166,0.040,0.261,-5.337
0.131,0.040,0.260,-5.337
0.104,0.040,0.260,-5.337
0.038,0.041,0.264,-5.337
0.029,0.040,0.265,-5.337
0.077,0.039,0.266,-5.337
0.178,0.036,0.265,-5.337
0.180,0.038,0.262,-5.337
0.228,0.038,0.255,-5.337
0.208,0.043,0.252,-5.337
0.104,0.045,0.254,-5.337
0.161,0.039,0.259,-5.337
0.247,0.037,0.264,-5.337
0.220,0.041,0.263,-5.337
0.155,0.037,0.264,-5.337
0.184,0.037,0.263,-5.337
0.170,0.040,0.262,-5.337
0.178,0.043,0.262,-5.337
0.259,0.039,0.264,-5.337
0.278,0.040,0.263,-5.337
0.221,0.039,0.261,-5.337
0.192,0.040,0.259,-5.337
0.219,0.040,0.262,-5.337
0.151,0.044,0.265,-5.337
0.198,0.040,0.265,-5.337
0.268,0.036,0.259,-5.337
0.247,0.038,0.256,-5.337
0.189,0.043,0.254,-5.337
0.192,0.044,0.260,-5.337
0.244,0.042,0.267,-5.337
0.226,0.046,0.267,-5.337
0.130,0.048,0.265,-5.337
0.151,0.048,0.265,-5.337
0.240,0.043,0.263,-5.337
0.179,0.044,0.259,-5.337
0.150,0.043,0.257,-5.337
0.200,0.044,0.261,-5.337
0.258,0.049,0.263,-5.337
0.294,0.045,0.262,-5.337
0.191,0.047,0.261,-5.337
0.160,0.045,0.261,-5.337
0.214,0.042,0.263,-5.337
0.147,0.047,0.263,-5.337
0.130,0.049,0.262,-5.337
0.133,0.045,0.257,-5.337
0.137,0.047,0.256,-5.337
0.138,0.047,0.256,-5.337
0.161,0.046,0.260,-5.337
0.154,0.044,0.262,-5.337
0.130,0.049,0.265,-5.337
0.168,0.047,0.264,-5.337
0.209,0.047,0.262,-5.337
0.177,0.046,0.258,-5.337
0.162,0.048,0.257,-5.337
0.184,0.049,0.258,-5.337
0.172,0.048,0.260,-5.337
0.115,0.048,0.261,-5.337
0.086,0.046,0.264,-5.337
0.177,0.044,0.265,-5.337
0.277,0.047,0.264,-5.337
0.232,0.047,0.264,-5.337
0.120,0.050,0.260,-5.337
0.095,0.049,0.256,-5.337
0.179,0.046,0.259,-5.337
0.205,0.047,0.263,-5.337
0.221,0.042,0.265,-5.337
0.297,0.040,0.264,-5.337
0.318,0.043,0.257,-5.337
0.227,0.050,0.256,-5.337
0.152,0.054,0.260,-5.337
0.129,0.051,0.264,-5.337
0.161,0.049,0.260,-5.337
0.149,0.052,0.259,-5.337
0.158,0.054,0.260,-5.337
0.156,0.054,0.263,-5.337
0.170,0.054,0.263,-5.337
0.277,0.052,0.256,-5.337
0.297,0.052,0.254,-5.337
0.260,0.051,0.258,-5.337
0.150,0.050,0.264,-5.337
0.115,0.053,0.265,-5.337
0.120,0.055,0.265,-5.337
0.146,0.053,0.262,-5.337
0.201,0.052,0.262,-5.337
0.174,0.055,0.259,-5.337
0.201,0.054,0.259,-5.337
0.188,0.053,0.259,-5.337
0.199,0.052,0.262,-5.337
0.193,0.052,0.265,-5.337
0.206,0.056,0.263,-5.337
0.229,0.057,0.257,-5.337
0.203,0.057,0.256,-5.337
0.228,0.057,0.261,-5.337
0.196,0.058,0.262,-5.337
0.164,0.056,0.259,-5.337
0.140,0.057,0.260,-5.337
0.205,0.054,0.259,-5.337
0.280,0.052,0.261,-5.337
0.210,0.053,0.262,-5.337
0.104,0.056,0.263,-5.337
0.098,0.058,0.261,-5.337
0.063,0.060,0.263,-5.337
0.132,0.054,0.261,-5.337
0.147,0.050,0.259,-5.337
0.136,0.051,0.257,-5.337
0.130,0.053,0.256,-5.337
0.122,0.051,0.257,-5.337
0.163,0.051,0.259,-5.337
0.196,0.051,0.259,-5.337
0.190,0.049,0.258,-5.337
0.208,0.051,0.262,-5.337
0.289,0.050,0.263,-5.337
0.316,0.049,0.263,-5.337
0.249,0.050,0.260,-5.337
0.188,0.055,0.260,-5.337
0.135,0.057,0.261,-5.337
0.177,0.055,0.260,-5.337
0.250,0.053,0.255,-5.337
0.213,0.057,0.254,-5.337
0.109,0.060,0.259,-5.337
0.168,0.063,0.263,-5.337
0.236,0.059,0.266,-5.337
0.208,0.056,0.266,-5.337
0.175,0.058,0.262,-5.337
0.184,0.059,0.261,-5.337
0.226,0.059,0.258,-5.337
0.247,0.058,0.257,-5.337
0.221,0.058,0.256,-5.337
0.163,0.058,0.259,-5.337
0.098,0.059,0.260,-5.337
0.091,0.058,0.259,-5.337
0.129,0.055,0.261,-5.337
0.128,0.058,0.262,-5.337
0.155,0.057,0.259,-5.337
0.120,0.056,0.258,-5.337
0.128,0.060,0.262,-5.337
0.142,0.061,0.264,-5.337
0.186,0.057,0.265,-5.337
0.226,0.056,0.266,-5.337
0.217,0.057,0.264,-5.337
0.195,0.058,0.261,-5.337
0.173,0.058,0.257,-5.337
0.172,0.056,0.258,-5.337
0.168,0.057,0.258,-5.337
0.153,0.059,0.257,-5.337
0.168,0.056,0.257,-5.337
0.182,0.056,0.259,-5.337
0.192,0.055,0.259,-5.337
0.242,0.054,0.262,-5.337
0.234,0.053,0.265,-5.337
0.218,0.054,0.263,-5.337
0.224,0.055,0.258,-5.337
0.221,0.059,0.259,-5.337
0.236,0.058,0.261,-5.337
0.191,0.057,0.265,-5.337
0.147,0.061,0.265,-5.337
0.180,0.063,0.262,-5.337
0.218,0.061,0.259,-5.337
0.236,0.063,0.260,-5.337
0.189,0.066,0.259,-5.337
0.134,0.067,0.258,-5.337
0.172,0.061,0.259,-5.337
0.167,0.061,0.258,-5.337
0.138,0.062,0.256,-5.337
0.161,0.062,0.258,-5.337
0.154,0.063,0.259,-5.337
0.108,0.064,0.258,-5.337
0.140,0.058,0.261,-5.337
0.205,0.057,0.264,-5.337
0.208,0.059,0.264,-5.337
0.188,0.062,0.264,-5.337
0.154,0.065,0.264,-5.337
0.185,0.062,0.261,-5.337
0.268,0.060,0.258,-5.337
0.234,0.063,0.255,-5.337
0.210,0.064,0.254,-5.337
0.229,0.063,0.256,-5.337
0.171,0.065,0.259,-5.337
0.106,0.068,0.260,-5.337
0.071,0.071,0.265,-5.337
0.068,0.066,0.266,-5.337
0.089,0.064,0.265,-5.337
0.064,0.063,0.265,-5.337
0.098,0.063,0.265,-5.337
0.205,0.061,0.264,-5.337
0.289,0.059,0.261,-5.337
0.268,0.056,0.255,-5.337
0.259,0.056,0.251,-5.337
0.194,0.058,0.255,-5.337
0.216,0.057,0.259,-5.337
0.253,0.056,0.259,-5.337
0.245,0.055,0.259,-5.337
0.151,0.062,0.261,-5.337
0.145,0.058,0.262,-5.337
0.183,0.054,0.261,-5.337
0.211,0.053,0.258,-5.337
0.220,0.057,0.261,-5.337
0.226,0.059,0.262,-5.337
0.208,0.062,0.261,-5.337
0.228,0.057,0.259,-5.337
0.255,0.056,0.257,-5.337
0.246,0.057,0.259,-5.337
0.228,0.058,0.260,-5.337
0.199,0.059,0.257,-5.337
0.206,0.058,0.259,-5.337
0.209,0.056,0.263,-5.337
0.182,0.058,0.267,-5.337
0.195,0.058,0.270,-5.337
0.133,0.062,0.267,-5.337
0.064,0.065,0.267,-5.337
0.090,0.063,0.264,-5.337
0.096,0.061,0.260,-5.337
0.032,0.063,0.258,-5.337
0.007,0.066,0.262,-5.337
0.115,0.066,0.264,-5.337
0.149,0.064,0.260,-5.337
0.181,0.062,0.255,-5.337
0.199,0.061,0.256,-5.337
0.205,0.060,0.259,-5.337
0.205,0.062,0.262,-5.337
0.263,0.061,0.264,-5.337
0.282,0.061,0.262,-5.337
0.164,0.062,0.260,-5.337
0.134,0.065,0.258,-5.337
0.180,0.062,0.259,-5.337
0.213,0.060,0.265,-5.337
0.184,0.063,0.266,-5.337
0.174,0.065,0.264,-5.337
0.150,0.064,0.263,-5.337
0.138,0.062,0.267,-5.337
0.172,0.062,0.269,-5.337
0.141,0.064,0.267,-5.337
0.139,0.064,0.262,-5.337
0.136,0.067,0.259,-5.337
0.184,0.066,0.260,-5.337
0.216,0.068,0.262,-5.337
0.235,0.070,0.264,-5.337
0.253,0.068,0.261,-5.337
0.167,0.068,0.262,-5.337
0.079,0.067,0.264,-5.337
0.132,0.067,0.263,-5.337
0.197,0.065,0.263,-5.337
0.248,0.065,0.265,-5.337
0.207,0.064,0.263,-5.337
0.176,0.061,0.260,-5.337
0.175,0.061,0.258,-5.337
0.187,0.062,0.261,-5.337
0.145,0.063,0.261,-5.337
0.113,0.063,0.262,-5.337
0.180,0.059,0.265,-5.337
0.189,0.060,0.267,-5.337
0.216,0.061,0.267,-5.337
0.222,0.061,0.267,-5.337
0.251,0.060,0.265,-5.337
0.267,0.060,0.262,-5.337
0.226,0.063,0.261,-5.337
0.226,0.058,0.261,-5.337
0.270,0.058,0.260,-5.337
0.291,0.061,0.256,-5.337
0.270,0.062,0.260,-5.337
0.241,0.061,0.263,-5.337
0.250,0.064,0.265,-5.337
0.205,0.066,0.266,-5.337
0.133,0.066,0.265,-5.337
0.152,0.063,0.261,-5.337
0.135,0.068,0.259,-5.337
0.121,0.063,0.260,-5.337
0.166,0.060,0.262,-5.337
0.201,0.059,0.264,-5.337
0.208,0.062,0.262,-5.337
0.215,0.064,0.259,-5.337
0.172,0.066,0.260,-5.337
0.152,0.060,0.264,-5.337
0.241,0.055,0.264,-5.337
0.248,0.055,0.263,-5.337
0.205,0.057,0.260,-5.337
0.189,0.056,0.258,-5.337
0.193,0.056,0.257,-5.337
0.114,0.057,0.262,-5.337
0.167,0.055,0.266,-5.337
0.268,0.053,0.265,-5.337
0.202,0.057,0.263,-5.337
0.167,0.056,0.265,-5.337
0.191,0.055,0.264,-5.337
0.210,0.057,0.260,-5.337
0.237,0.056,0.256,-5.337
0.234,0.057,0.258,-5.337
0.194,0.055,0.258,-5.337
0.177,0.059,0.258,-5.337
0.188,0.060,0.265,-5.337
0.164,0.063,0.269,-5.337
0.101,0.062,0.270,-5.337
0.209,0.055,0.269,-5.337
0.289,0.055,0.263,-5.337
0.190,0.056,0.261,-5.337
0.195,0.055,0.264,-5.337
0.229,0.056,0.266,-5.337
0.220,0.054,0.268,-5.337
0.232,0.056,0.267,-5.337
0.258,0.052,0.263,-5.337
0.206,0.053,0.260,-5.337
0.140,0.054,0.262,-5.337
0.133,0.053,0.263,-5.337
0.182,0.053,0.264,-5.337
0.194,0.056,0.265,-5.337
0.155,0.055,0.263,-5.337
0.124,0.056,0.256,-5.337
0.157,0.057,0.256,-5.337
0.219,0.054,0.258,-5.337
0.215,0.052,0.261,-5.337
0.188,0.052,0.263,-5.337
0.172,0.054,0.264,-5.337
0.157,0.056,0.263,-5.337
0.147,0.055,0.260,-5.337
0.198,0.054,0.260,-5.337
0.315,0.053,0.262,-5.337
0.275,0.052,0.265,-5.337
0.202,0.050,0.263,-5.337
0.244,0.047,0.263,-5.337
0.307,0.050,0.265,-5.337
0.256,0.053,0.266,-5.337
0.161,0.055,0.263,-5.337
0.180,0.054,0.261,-5.337
0.153,0.053,0.261,-5.337
0.128,0.054,0.264,-5.337
0.194,0.051,0.266,-5.337
0.269,0.049,0.267,-5.337
0.268,0.050,0.267,-5.337
0.228,0.052,0.265,-5.337
0.225,0.049,0.262,-5.337
0.241,0.049,0.263,-5.337
0.273,0.047,0.263,-5.337
0.276,0.047,0.262,-5.337
0.269,0.048,0.255,-5.337
0.263,0.049,0.253,-5.337
0.201,0.050,0.254,-5.337
0.205,0.052,0.257,-5.337
0.172,0.049,0.261,-5.337
0.190,0.050,0.262,-5.337
0.201,0.049,0.260,-5.337
0.180,0.049,0.261,-5.337
0.182,0.047,0.263,-5.337
0.226,0.049,0.261,-5.337
0.265,0.050,0.263,-5.337
0.208,0.050,0.262,-5.337
0.166,0.049,0.258,-5.337
0.238,0.048,0.255,-5.337
0.191,0.051,0.258,-5.337
0.114,0.050,0.265,-5.337
0.172,0.048,0.266,-5.337
0.188,0.049,0.265,-5.337
0.152,0.052,0.265,-5.337
0.198,0.052,0.266,-5.337
0.234,0.054,0.266,-5.337
0.204,0.053,0.262,-5.337
0.155,0.049,0.262,-5.337
0.154,0.048,0.263,-5.337
0.145,0.048,0.262,-5.337
0.190,0.048,0.261,-5.337
0.192,0.047,0.260,-5.337
0.116,0.044,0.258,-5.337
0.164,0.040,0.256,-5.337
0.276,0.042,0.260,-5.337
0.291,0.045,0.264,-5.337
0.181,0.049,0.262,-5.337
0.121,0.044,0.258,-5.337
0.173,0.045,0.265,-5.337
0.191,0.045,0.267,-5.337
0.210,0.043,0.263,-5.337
0.182,0.046,0.258,-5.337
0.167,0.048,0.258,-5.337
0.194,0.047,0.261,-5.337
0.207,0.045,0.263,-5.337
0.187,0.048,0.262,-5.337
0.153,0.051,0.263,-5.337
0.074,0.051,0.260,-5.337
0.063,0.049,0.259,-5.337
0.141,0.044,0.261,-5.337
0.221,0.041,0.266,-5.337
0.271,0.040,0.268,-5.337
0.253,0.043,0.266,-5.337
0.223,0.045,0.261,-5.337
0.198,0.047,0.258,-5.337
0.167,0.046,0.261,-5.337
0.222,0.040,0.264,-5.337
0.280,0.037,0.266,-5.337
0.294,0.035,0.263,-5.337
0.224,0.041,0.261,-5.337
0.200,0.047,0.258,-5.337
0.152,0.048,0.261,-5.337
0.216,0.039,0.263,-5.337
0.300,0.040,0.264,-5.337
0.263,0.043,0.261,-5.337
0.205,0.042,0.259,-5.337
0.190,0.042,0.262,-5.337
0.193,0.042,0.263,-5.337
0.151,0.042,0.260,-5.337
0.188,0.040,0.258,-5.337
0.208,0.042,0.259,-5.337
0.158,0.042,0.257,-5.337
0.172,0.043,0.257,-5.337
0.148,0.041,0.259,-5.337
0.191,0.039,0.263,-5.337
0.239,0.039,0.261,-5.337
0.224,0.035,0.258,-5.337
0.274,0.037,0.258,-5.337
0.319,0.038,0.262,-5.337
0.250,0.040,0.266,-5.337
0.164,0.040,0.268,-5.337
0.185,0.040,0.262,-5.337
0.207,0.041,0.260,-5.337
0.189,0.045,0.262,-5.337
0.121,0.047,0.266,-5.337
0.141,0.048,0.266,-5.337
0.099,0.047,0.265,-5.337
0.098,0.045,0.262,-5.337
0.173,0.040,0.260,-5.337
0.243,0.038,0.257,-5.337
0.279,0.041,0.257,-5.337
0.241,0.043,0.260,-5.337
0.183,0.044,0.262,-5.337
0.194,0.040,0.263,-5.337
0.245,0.038,0.258,-5.337
0.259,0.039,0.257,-5.337
0.220,0.041,0.255,-5.337
0.205,0.040,0.257,-5.337
0.118,0.044,0.262,-5.337
0.094,0.046,0.263,-5.337
0.100,0.045,0.262,-5.337
0.100,0.045,0.264,-5.337
0.140,0.046,0.265,-5.337
0.143,0.046,0.263,-5.337
0.143,0.048,0.258,-5.337
0.182,0.047,0.260,-5.337
0.200,0.046,0.262,-5.337
0.139,0.047,0.259,-5.337
0.134,0.045,0.260,-5.337
0.281,0.043,0.263,-5.337
0.248,0.044,0.257,-5.337
0.083,0.048,0.255,-5.337
0.101,0.046,0.254,-5.337
0.145,0.045,0.257,-5.337
0.139,0.045,0.261,-5.337
0.108,0.045,0.266,-5.337
0.192,0.043,0.267,-5.337
0.267,0.040,0.264,-5.337
0.260,0.044,0.258,-5.337
0.247,0.044,0.253,-5.337
0.219,0.042,0.257,-5.337
0.230,0.038,0.259,-5.337
0.240,0.039,0.264,-5.337
0.226,0.037,0.264,-5.337
0.257,0.037,0.260,-5.337
0.241,0.040,0.258,-5.337
0.227,0.040,0.260,-5.337
0.259,0.039,0.261,-5.337
0.236,0.040,0.262,-5.337
0.190,0.039,0.263,-5.337
0.194,0.039,0.263,-5.337
0.210,0.039,0.261,-5.337
0.213,0.038,0.259,-5.337
0.181,0.040,0.260,-5.337
0.186,0.044,0.259,-5.337
0.197,0.043,0.258,-5.337
0.208,0.039,0.257,-5.337
0.262,0.037,0.261,-5.337
0.248,0.041,0.259,-5.337
0.225,0.043,0.259,-5.337
0.284,0.040,0.260,-5.337
0.244,0.042,0.263,-5.337
0.151,0.046,0.259,-5.337
0.101,0.046,0.258,-5.337
0.085,0.043,0.256,-5.337
0.100,0.047,0.259,-5.337
0.152,0.044,0.261,-5.337
0.206,0.040,0.262,-5.337
0.176,0.039,0.261,-5.337
0.143,0.042,0.261,-5.337
0.149,0.040,0.261,-5.337
0.181,0.038,0.261,-5.337
0.156,0.040,0.261,-5.337
0.134,0.044,0.258,-5.337
0.161,0.041,0.255,-5.337
0.173,0.039,0.259,-5.337
0.183,0.039,0.264,-5.337
0.196,0.037,0.264,-5.337
0.179,0.040,0.261,-5.337
0.179,0.043,0.260,-5.337
0.182,0.043,0.264,-5.337
0.180,0.044,0.267,-5.337
0.192,0.043,0.264,-5.337
0.199,0.042,0.262,-5.337
0.191,0.038,0.264,-5.337
0.205,0.037,0.260,-5.337
0.167,0.041,0.258,-5.337
0.060,0.044,0.260,-5.337
0.017,0.046,0.263,-5.337
0.124,0.045,0.261,-5.337
0.139,0.044,0.260,-5.337
0.182,0.042,0.261,-5.337
0.219,0.043,0.263,-5.337
0.177,0.044,0.261,-5.337
0.208,0.042,0.262,-5.337
0.245,0.040,0.264,-5.337
0.192,0.045,0.264,-5.337
0.129,0.047,0.262,-5.337
0.124,0.043,0.262,-5.337
0.168,0.041,0.261,-5.337
0.239,0.042,0.257,-5.337
0.236,0.040,0.254,-5.337
0.278,0.044,0.258,-5.337
0.273,0.047,0.265,-5.337
0.197,0.050,0.267,-5.337
0.191,0.048,0.264,-5.337
0.242,0.043,0.258,-5.337
0.274,0.043,0.259,-5.337
0.250,0.043,0.260,-5.337
0.271,0.042,0.259,-5.337
0.263,0.040,0.260,-5.337
0.247,0.041,0.262,-5.337
0.194,0.045,0.259,-5.337
0.209,0.047,0.258,-5.337
0.191,0.046,0.259,-5.337
0.124,0.047,0.263,-5.337
0.217,0.042,0.268,-5.337
0.268,0.044,0.270,-5.337
0.211,0.043,0.265,-5.337
0.203,0.046,0.264,-5.337
0.209,0.048,0.264,-5.337
0.230,0.050,0.261,-5.337
0.198,0.050,0.260,-5.337
0.179,0.047,0.258,-5.337
0.168,0.047,0.261,-5.337
0.193,0.052,0.263,-5.337
0.180,0.051,0.264,-5.337
0.111,0.050,0.263,-5.337
0.074,0.049,0.258,-5.337
0.130,0.048,0.256,-5.337
0.202,0.048,0.262,-5.337
0.254,0.047,0.264,-5.337
0.247,0.049,0.264,-5.337
0.151,0.049,0.262,-5.337
0.054,0.051,0.262,-5.337
0.111,0.049,0.261,-5.337
0.202,0.045,0.260,-5.337
0.297,0.046,0.261,-5.337
0.250,0.051,0.263,-5.337
0.144,0.048,0.263,-5.337
0.178,0.046,0.260,-5.337
0.275,0.046,0.259,-5.337
0.209,0.049,0.260,-5.337
0.126,0.049,0.262,-5.337
0.123,0.050,0.265,-5.337
0.128,0.046,0.266,-5.337
0.131,0.049,0.263,-5.337
0.209,0.045,0.262,-5.337
0.258,0.045,0.261,-5.337
0.251,0.051,0.259,-5.337
0.168,0.052,0.259,-5.337
0.183,0.048,0.265,-5.337
0.173,0.050,0.266,-5.337
0.075,0.051,0.261,-5.337
0.131,0.049,0.257,-5.337
0.144,0.050,0.260,-5.337
0.192,0.049,0.266,-5.337
0.154,0.049,0.265,-5.337
0.109,0.047,0.261,-5.337
0.162,0.049,0.261,-5.337
0.210,0.047,0.262,-5.337
0.230,0.046,0.261,-5.337
0.207,0.048,0.260,-5.337
0.129,0.050,0.262,-5.337
0.110,0.050,0.262,-5.337
0.157,0.049,0.262,-5.337
0.194,0.051,0.263,-5.337
0.220,0.049,0.260,-5.337
0.202,0.050,0.262,-5.337
0.180,0.053,0.260,-5.337
0.175,0.053,0.263,-5.337
0.210,0.052,0.263,-5.337
0.200,0.050,0.261,-5.337
0.199,0.050,0.259,-5.337
0.170,0.056,0.259,-5.337
0.180,0.055,0.257,-5.337
0.231,0.054,0.260,-5.337
0.236,0.054,0.264,-5.337
0.203,0.055,0.266,-5.337
0.200,0.052,0.266,-5.337
0.180,0.051,0.264,-5.337
0.241,0.048,0.261,-5.337
0.234,0.047,0.261,-5.337
0.174,0.047,0.260,-5.337
0.126,0.050,0.260,-5.337
0.155,0.053,0.259,-5.337
0.205,0.056,0.257,-5.337
0.244,0.054,0.260,-5.337
0.202,0.051,0.267,-5.337
0.156,0.049,0.266,-5.337
0.228,0.049,0.260,-5.337
0.274,0.051,0.256,-5.337
0.251,0.051,0.256,-5.337
0.208,0.053,0.261,-5.337
0.214,0.054,0.262,-5.337
0.183,0.056,0.263,-5.337
0.155,0.055,0.260,-5.337
0.180,0.054,0.258,-5.337
0.176,0.055,0.258,-5.337
0.262,0.053,0.260,-5.337
0.307,0.049,0.262,-5.337
0.242,0.050,0.264,-5.337
0.244,0.050,0.261,-5.337
0.257,0.047,0.260,-5.337
0.242,0.049,0.260,-5.337
0.238,0.051,0.265,-5.337
0.196,0.053,0.263,-5.337
0.164,0.055,0.257,-5.337
0.230,0.053,0.256,-5.337
0.243,0.055,0.257,-5.337
0.244,0.053,0.259,-5.337
0.301,0.055,0.258,-5.337
0.263,0.058,0.256,-5.337
0.192,0.057,0.256,-5.337
0.132,0.052,0.261,-5.337
0.184,0.049,0.263,-5.337
0.205,0.054,0.262,-5.337
0.169,0.053,0.260,-5.337
0.174,0.051,0.260,-5.337
0.155,0.052,0.257,-5.337
0.117,0.053,0.257,-5.337
0.152,0.051,0.259,-5.337
0.150,0.053,0.263,-5.337
0.163,0.053,0.263,-5.337
0.078,0.059,0.263,-5.337
0.019,0.058,0.263,-5.337
0.144,0.054,0.261,-5.337
0.249,0.055,0.260,-5.337
0.208,0.060,0.259,-5.337
0.123,0.062,0.260,-5.337
0.093,0.061,0.259,-5.337
0.121,0.058,0.260,-5.337
0.166,0.059,0.257,-5.337
0.196,0.059,0.261,-5.337
0.199,0.059,0.265,-5.337
0.209,0.057,0.265,-5.337
0.213,0.057,0.261,-5.337
0.216,0.056,0.264,-5.337
0.181,0.060,0.263,-5.337
0.139,0.064,0.260,-5.337
0.227,0.060,0.255,-5.337
0.327,0.059,0.256,-5.337
0.241,0.059,0.261,-5.337
0.132,0.061,0.262,-5.337
0.154,0.060,0.263,-5.337
0.231,0.060,0.261,-5.337
0.292,0.059,0.259,-5.337
0.288,0.061,0.261,-5.337
0.216,0.067,0.264,-5.337
0.133,0.064,0.261,-5.337
0.082,0.065,0.258,-5.337
0.095,0.065,0.256,-5.337
0.144,0.063,0.258,-5.337
0.249,0.062,0.258,-5.337
0.281,0.062,0.259,-5.337
0.194,0.063,0.257,-5.337
0.139,0.064,0.259,-5.337
0.118,0.062,0.259,-5.337
0.170,0.059,0.263,-5.337
0.222,0.061,0.264,-5.337
0.190,0.063,0.264,-5.337
0.165,0.062,0.265,-5.337
0.257,0.062,0.261,-5.337
0.236,0.063,0.256,-5.337
0.158,0.066,0.256,-5.337
0.165,0.064,0.261,-5.337
0.197,0.058,0.265,-5.337
0.193,0.057,0.268,-5.337
0.162,0.057,0.267,-5.337
0.154,0.059,0.261,-5.337
0.152,0.063,0.254,-5.337
0.139,0.062,0.256,-5.337
0.162,0.064,0.259,-5.337
0.145,0.066,0.262,-5.337
0.151,0.065,0.263,-5.337
0.137,0.064,0.264,-5.337
0.165,0.061,0.262,-5.337
0.231,0.062,0.260,-5.337
0.189,0.067,0.257,-5.337
0.179,0.066,0.260,-5.337
0.233,0.063,0.262,-5.337
0.232,0.064,0.261,-5.337
0.214,0.065,0.260,-5.337
0.197,0.064,0.261,-5.337
0.229,0.060,0.263,-5.337
0.255,0.060,0.264,-5.337
0.231,0.065,0.262,-5.337
0.272,0.068,0.259,-5.337
0.275,0.071,0.259,-5.337
0.214,0.068,0.259,-5.337
0.189,0.066,0.260,-5.337
0.214,0.063,0.260,-5.337
0.222,0.061,0.262,-5.337
0.158,0.061,0.262,-5.337
0.179,0.062,0.263,-5.337
0.258,0.061,0.264,-5.337
0.291,0.061,0.266,-5.337
0.201,0.066,0.261,-5.337
0.206,0.067,0.257,-5.337
0.281,0.063,0.256,-5.337
0.352,0.062,0.256,-5.337
0.281,0.063,0.256,-5.337
0.171,0.071,0.259,-5.337
0.148,0.074,0.265,-5.337
0.129,0.071,0.268,-5.337
0.142,0.066,0.267,-5.337
0.150,0.065,0.265,-5.337
0.135,0.070,0.262,-5.337
0.121,0.071,0.259,-5.337
0.138,0.069,0.258,-5.337
0.196,0.068,0.260,-5.337
0.189,0.068,0.261,-5.337
0.156,0.068,0.259,-5.337
0.151,0.067,0.261,-5.337
