[Parameters]
Operating Mode, Feedback
Subject  AA..ZZ, WT
Session  0..99, 44
No. Trials (1..9999), 500
Mouse Number, 1
Pressure Probe Serial Port, \00\00\00\04COM4
Save additional csv file, TRUE
Save using mouse number, FALSE
A/D Monitor Rate (Hz), 30000.000000
A/D Stimulate Rate (Hz), 30000.000000
A/D input range (+/- V), 5
No. Channels to acquire (N), 2
Pre-Stim Acq. time (ms), 100.000000
Post-Stim Acq. time (ms), 900.000000
Analysis window parameters.M-response Start (ms), 1.100000
Analysis window parameters.M-response Duration (ms), 5.500000
Analysis window parameters.H-response Duration (ms), 6.000000
Analysis window parameters.H-response Start (ms), 6.500000
Feedback window, H response
Proportional gain, 0.100000
Target value, 6.700000
Feedback Ch., 1
Stim Channel to Control (1-4), 4
Trial, 23
Wait for EMG Conditions, FALSE
Channel to monitor (0 - N-1), 1
EMG Hi Limit, 2.000000
EMG Lo Limit, 0.001000
Inter-Stim delay (sec), 10.000000
EMG Monitor Mode, Mean
Time to run Long Stim.(sec), 30
Save Long Stim Data?, OFF
BURST Save time (ms), 1000
BURST Save Interval (x above), 10
Long-Stim. Rep. Rate (Hz), 10.000000
Stim type cluster array.<size(s)>, 4
Stim type cluster array 0.Stimulus Output, Electrical
Stim type cluster array 1.Stimulus Output, OFF
Stim type cluster array 2.Stimulus Output, OFF
Stim type cluster array 3.Stimulus Output, Motor Length
Stim specs cluster array.<size(s)>, 4
Stim specs cluster array 0.Initial Stimulus ampl., 0.300000
Stim specs cluster array 0.Maximum Stimulus, 1.120000
Stim specs cluster array 0.#Pulses in train, 4
Stim specs cluster array 0.Peak Level time (ms), 1.000000
Stim specs cluster array 0.Total pulse period (ms), 150.000000
Stim specs cluster array 0.Start Delay (ms), -50.000000
Stim specs cluster array 0.Pulse Shape, Square
Stim specs cluster array 0.Ramp/Rel. time (ms), 0.100000
Stim specs cluster array 0.Peak Amplitude (V), 0.120000
Stim specs cluster array 1.Initial Stimulus ampl., 0.000000
Stim specs cluster array 1.Maximum Stimulus, 0.000000
Stim specs cluster array 1.#Pulses in train, 3
Stim specs cluster array 1.Peak Level time (ms), 29.000000
Stim specs cluster array 1.Total pulse period (ms), 200.000000
Stim specs cluster array 1.Start Delay (ms), 0.000000
Stim specs cluster array 1.Pulse Shape, Square
Stim specs cluster array 1.Ramp/Rel. time (ms), 0.000000
Stim specs cluster array 1.Peak Amplitude (V), 2.000000
Stim specs cluster array 2.Initial Stimulus ampl., 0.000000
Stim specs cluster array 2.Maximum Stimulus, 0.000000
Stim specs cluster array 2.#Pulses in train, 1
Stim specs cluster array 2.Peak Level time (ms), 25.000000
Stim specs cluster array 2.Total pulse period (ms), 200.000000
Stim specs cluster array 2.Start Delay (ms), 0.000000
Stim specs cluster array 2.Pulse Shape, Square
Stim specs cluster array 2.Ramp/Rel. time (ms), 20.000000
Stim specs cluster array 2.Peak Amplitude (V), 10.000000
Stim specs cluster array 3.Initial Stimulus ampl., 0.000000
Stim specs cluster array 3.Maximum Stimulus, 15.000000
Stim specs cluster array 3.#Pulses in train, 25
Stim specs cluster array 3.Peak Level time (ms), 0.100000
Stim specs cluster array 3.Total pulse period (ms), 4.000000
Stim specs cluster array 3.Start Delay (ms), 205.000000
Stim specs cluster array 3.Pulse Shape, Triangle
Stim specs cluster array 3.Ramp/Rel. time (ms), 3.000000
Stim specs cluster array 3.Peak Amplitude (V), 0.500000
Force cal. (mN/Volt), 100.000000
Force Range (mN), 100.000000
Length cal. (mm/Volt), 10.000000
Length Range (mm), 10.000000
Stim. 1, 0.300000
Stim. 2, 0.000000
Stim. 3, 0.000000
Stim. 4, 0.000000
Monitor acquire time (ms), 100.000000
EMG graph Ymax, 0.100000
Travel limit (mm), 20.000000
Use Pressure Probe, FALSE
Pressure goal (g), 100
Speed (mm/sec), 5.000000
Dwell time (ms), 100.000000
Pressure limit (g), 500.000000
Channel amplitude offset, 0.000000

[DATA]

0.214,0.063,0.270,-5.337
0.230,0.064,0.272,-5.337
0.247,0.065,0.272,-5.337
0.285,0.062,0.269,-5.337
0.327,0.061,0.270,-5.337
0.332,0.064,0.270,-5.337
0.217,0.068,0.270,-5.337
0.171,0.069,0.270,-5.337
0.208,0.063,0.270,-5.337
0.302,0.059,0.271,-5.337
0.309,0.058,0.275,-5.337
0.269,0.056,0.275,-5.337
0.204,0.058,0.272,-5.337
0.150,0.061,0.270,-5.337
0.172,0.063,0.270,-5.337
0.137,0.064,0.273,-5.337
0.187,0.063,0.269,-5.337
0.219,0.063,0.266,-5.337
0.211,0.062,0.266,-5.337
0.141,0.065,0.269,-5.337
0.136,0.065,0.268,-5.337
0.170,0.066,0.267,-5.337
0.199,0.063,0.266,-5.337
0.244,0.058,0.269,-5.337
0.239,0.057,0.273,-5.337
0.244,0.055,0.273,-5.337
0.277,0.054,0.270,-5.337
0.265,0.057,0.267,-5.337
0.206,0.059,0.267,-5.337
0.188,0.057,0.269,-5.337
0.259,0.051,0.268,-5.337
0.275,0.054,0.270,-5.337
0.195,0.054,0.271,-5.337
0.208,0.051,0.271,-5.337
0.198,0.051,0.270,-5.337
0.204,0.054,0.265,-5.337
0.190,0.055,0.265,-5.337
0.188,0.054,0.270,-5.337
0.191,0.055,0.273,-5.337
0.216,0.051,0.272,-5.337
0.255,0.050,0.270,-5.337
0.215,0.053,0.268,-5.337
0.324,0.053,0.272,-5.337
0.365,0.053,0.270,-5.337
0.202,0.054,0.267,-5.337
0.162,0.053,0.267,-5.337
0.293,0.050,0.265,-5.337
0.326,0.048,0.264,-5.337
0.245,0.053,0.266,-5.337
0.170,0.049,0.266,-5.337
0.187,0.042,0.266,-5.337
0.189,0.048,0.267,-5.337
0.125,0.051,0.270,-5.337
0.118,0.051,0.272,-5.337
0.170,0.049,0.271,-5.337
0.175,0.045,0.270,-5.337
0.190,0.047,0.268,-5.337
0.196,0.048,0.267,-5.337
0.195,0.048,0.268,-5.337
0.217,0.047,0.273,-5.337
0.249,0.043,0.271,-5.337
0.308,0.042,0.269,-5.337
0.293,0.044,0.266,-5.337
0.290,0.046,0.266,-5.337
0.282,0.049,0.272,-5.337
0.241,0.049,0.274,-5.337
0.211,0.046,0.273,-5.337
0.257,0.047,0.272,-5.337
0.236,0.049,0.268,-5.337
0.197,0.051,0.267,-5.337
0.226,0.049,0.267,-5.337
0.182,0.048,0.267,-5.337
0.151,0.052,0.265,-5.337
0.138,0.049,0.267,-5.337
0.182,0.048,0.267,-5.337
0.218,0.047,0.266,-5.337
0.211,0.045,0.266,-5.337
0.157,0.045,0.268,-5.337
0.144,0.046,0.269,-5.337
0.186,0.044,0.264,-5.337
0.198,0.043,0.266,-5.337
0.260,0.040,0.272,-5.337
0.220,0.040,0.273,-5.337
0.168,0.042,0.267,-5.337
0.150,0.043,0.265,-5.337
0.117,0.045,0.266,-5.337
0.155,0.046,0.267,-5.337
0.211,0.043,0.268,-5.337
0.218,0.041,0.269,-5.337
0.229,0.042,0.269,-5.337
0.187,0.042,0.268,-5.337
0.161,0.041,0.270,-5.337
0.173,0.040,0.273,-5.337
0.226,0.038,0.269,-5.337
0.297,0.036,0.264,-5.337
0.252,0.039,0.265,-5.337
0.187,0.040,0.265,-5.337
0.201,0.041,0.267,-5.337
0.262,0.040,0.269,-5.337
0.214,0.040,0.272,-5.337
0.171,0.040,0.270,-5.337
0.239,0.037,0.270,-5.337
0.227,0.035,0.268,-5.337
0.167,0.041,0.266,-5.337
0.150,0.040,0.262,-5.337
0.199,0.042,0.267,-5.337
0.203,0.039,0.269,-5.337
0.260,0.038,0.268,-5.337
0.240,0.037,0.268,-5.337
0.216,0.034,0.275,-5.337
0.229,0.038,0.279,-5.337
0.203,0.041,0.275,-5.337
0.174,0.040,0.271,-5.337
0.203,0.042,0.270,-5.337
0.204,0.046,0.269,-5.337
0.179,0.045,0.263,-5.337
0.162,0.047,0.259,-5.337
0.175,0.049,0.261,-5.337
0.219,0.045,0.267,-5.337
0.288,0.042,0.267,-5.337
0.333,0.042,0.268,-5.337
0.343,0.041,0.268,-5.337
0.278,0.037,0.269,-5.337
0.228,0.037,0.271,-5.337
0.220,0.041,0.272,-5.337
0.223,0.041,0.269,-5.337
0.212,0.040,0.270,-5.337
0.207,0.040,0.267,-5.337
0.226,0.039,0.268,-5.337
0.262,0.040,0.268,-5.337
0.249,0.041,0.266,-5.337
0.172,0.038,0.264,-5.337
0.214,0.036,0.263,-5.337
0.213,0.039,0.264,-5.337
0.167,0.042,0.265,-5.337
0.158,0.040,0.272,-5.337
0.201,0.037,0.277,-5.337
0.178,0.041,0.276,-5.337
0.113,0.043,0.273,-5.337
0.154,0.039,0.270,-5.337
0.239,0.037,0.266,-5.337
0.218,0.040,0.267,-5.337
0.128,0.043,0.267,-5.337
0.138,0.042,0.267,-5.337
0.204,0.035,0.266,-5.337
0.248,0.036,0.267,-5.337
0.182,0.036,0.270,-5.337
0.123,0.039,0.275,-5.337
0.105,0.039,0.276,-5.337
0.148,0.039,0.272,-5.337
0.203,0.034,0.268,-5.337
0.251,0.033,0.267,-5.337
0.251,0.034,0.263,-5.337
0.198,0.037,0.259,-5.337
0.133,0.037,0.261,-5.337
0.135,0.035,0.265,-5.337
0.182,0.031,0.270,-5.337
0.227,0.030,0.273,-5.337
0.258,0.032,0.269,-5.337
0.120,0.038,0.271,-5.337
0.138,0.035,0.273,-5.337
0.233,0.032,0.270,-5.337
0.225,0.034,0.265,-5.337
0.186,0.041,0.265,-5.337
0.192,0.041,0.267,-5.337
0.224,0.039,0.271,-5.337
0.246,0.038,0.275,-5.337
0.210,0.041,0.270,-5.337
0.199,0.046,0.264,-5.337
0.233,0.040,0.262,-5.337
0.241,0.037,0.266,-5.337
0.221,0.036,0.267,-5.337
0.242,0.037,0.266,-5.337
0.170,0.038,0.268,-5.337
0.175,0.036,0.270,-5.337
0.260,0.034,0.272,-5.337
0.188,0.039,0.269,-5.337
0.097,0.042,0.270,-5.337
0.127,0.039,0.271,-5.337
0.194,0.038,0.267,-5.337
0.229,0.039,0.266,-5.337
0.233,0.040,0.264,-5.337
0.249,0.037,0.264,-5.337
0.297,0.038,0.265,-5.337
0.268,0.037,0.269,-5.337
0.214,0.034,0.272,-5.337
0.186,0.040,0.272,-5.337
0.165,0.040,0.272,-5.337
0.144,0.039,0.270,-5.337
0.109,0.038,0.274,-5.337
0.091,0.039,0.273,-5.337
0.072,0.042,0.270,-5.337
0.075,0.038,0.265,-5.337
0.148,0.034,0.263,-5.337
0.262,0.032,0.262,-5.337
0.283,0.033,0.264,-5.337
0.208,0.030,0.266,-5.337
0.193,0.029,0.269,-5.337
0.183,0.032,0.270,-5.337
0.216,0.032,0.273,-5.337
0.252,0.031,0.273,-5.337
0.222,0.032,0.272,-5.337
0.210,0.030,0.271,-5.337
0.234,0.033,0.271,-5.337
0.185,0.036,0.268,-5.337
0.176,0.037,0.266,-5.337
0.192,0.036,0.270,-5.337
0.215,0.039,0.273,-5.337
0.116,0.041,0.270,-5.337
0.123,0.039,0.266,-5.337
0.176,0.036,0.267,-5.337
0.162,0.038,0.267,-5.337
0.139,0.046,0.269,-5.337
0.150,0.045,0.269,-5.337
0.169,0.045,0.271,-5.337
0.211,0.042,0.272,-5.337
0.248,0.042,0.271,-5.337
0.277,0.038,0.269,-5.337
0.255,0.035,0.268,-5.337
0.242,0.034,0.267,-5.337
0.193,0.039,0.268,-5.337
0.131,0.041,0.271,-5.337
0.147,0.038,0.272,-5.337
0.207,0.035,0.271,-5.337
0.098,0.036,0.273,-5.337
0.019,0.033,0.273,-5.337
0.158,0.034,0.269,-5.337
0.287,0.032,0.265,-5.337
0.281,0.032,0.265,-5.337
0.224,0.033,0.269,-5.337
0.225,0.032,0.271,-5.337
0.239,0.035,0.274,-5.337
0.183,0.038,0.272,-5.337
0.138,0.040,0.270,-5.337
0.188,0.040,0.269,-5.337
0.227,0.040,0.267,-5.337
0.183,0.041,0.267,-5.337
0.221,0.039,0.268,-5.337
0.259,0.038,0.265,-5.337
0.242,0.039,0.267,-5.337
0.231,0.040,0.273,-5.337
0.221,0.040,0.275,-5.337
0.186,0.041,0.275,-5.337
0.190,0.043,0.275,-5.337
0.260,0.041,0.273,-5.337
0.266,0.041,0.267,-5.337
0.218,0.038,0.262,-5.337
0.172,0.036,0.265,-5.337
0.145,0.036,0.270,-5.337
0.117,0.038,0.276,-5.337
0.138,0.039,0.276,-5.337
0.181,0.037,0.274,-5.337
0.163,0.036,0.271,-5.337
0.113,0.038,0.268,-5.337
0.138,0.038,0.269,-5.337
0.199,0.033,0.269,-5.337
0.260,0.031,0.271,-5.337
0.210,0.032,0.272,-5.337
0.205,0.035,0.277,-5.337
0.193,0.035,0.273,-5.337
0.159,0.032,0.267,-5.337
0.225,0.030,0.264,-5.337
0.164,0.038,0.265,-5.337
0.120,0.035,0.265,-5.337
0.192,0.034,0.268,-5.337
0.251,0.031,0.266,-5.337
0.198,0.030,0.265,-5.337
0.169,0.032,0.270,-5.337
0.129,0.032,0.276,-5.337
0.164,0.035,0.276,-5.337
0.231,0.035,0.272,-5.337
0.187,0.031,0.267,-5.337
0.157,0.032,0.263,-5.337
0.154,0.030,0.267,-5.337
0.179,0.034,0.270,-5.337
0.175,0.035,0.268,-5.337
0.161,0.037,0.267,-5.337
0.107,0.036,0.269,-5.337
0.101,0.035,0.267,-5.337
0.072,0.034,0.267,-5.337
0.095,0.036,0.267,-5.337
0.104,0.037,0.269,-5.337
0.115,0.034,0.272,-5.337
0.180,0.034,0.274,-5.337
0.130,0.036,0.269,-5.337
0.071,0.041,0.265,-5.337
0.102,0.042,0.265,-5.337
0.224,0.039,0.266,-5.337
0.205,0.037,0.267,-5.337
0.165,0.040,0.271,-5.337
0.153,0.042,0.272,-5.337
0.146,0.041,0.268,-5.337
0.142,0.041,0.267,-5.337
0.158,0.041,0.266,-5.337
0.178,0.040,0.268,-5.337
0.139,0.040,0.269,-5.337
0.175,0.035,0.268,-5.337
0.176,0.035,0.266,-5.337
0.165,0.037,0.266,-5.337
0.197,0.037,0.267,-5.337
0.174,0.039,0.269,-5.337
0.117,0.041,0.266,-5.337
0.061,0.044,0.267,-5.337
0.154,0.043,0.267,-5.337
0.231,0.043,0.267,-5.337
0.237,0.043,0.267,-5.337
0.229,0.041,0.269,-5.337
0.170,0.041,0.271,-5.337
0.138,0.044,0.270,-5.337
0.113,0.045,0.267,-5.337
0.138,0.044,0.266,-5.337
0.186,0.046,0.269,-5.337
0.173,0.049,0.271,-5.337
0.156,0.045,0.268,-5.337
0.161,0.042,0.266,-5.337
0.212,0.041,0.264,-5.337
0.279,0.042,0.264,-5.337
0.305,0.044,0.264,-5.337
0.235,0.045,0.265,-5.337
0.218,0.046,0.267,-5.337
0.225,0.046,0.269,-5.337
0.224,0.043,0.273,-5.337
0.148,0.044,0.274,-5.337
0.094,0.049,0.272,-5.337
0.103,0.047,0.267,-5.337
0.181,0.048,0.264,-5.337
0.179,0.047,0.262,-5.337
0.221,0.046,0.264,-5.337
0.175,0.043,0.269,-5.337
0.110,0.044,0.276,-5.337
0.135,0.047,0.275,-5.337
0.189,0.048,0.269,-5.337
0.157,0.048,0.264,-5.337
0.114,0.050,0.265,-5.337
0.133,0.046,0.266,-5.337
0.208,0.044,0.266,-5.337
0.212,0.045,0.268,-5.337
0.204,0.043,0.267,-5.337
0.250,0.042,0.268,-5.337
0.279,0.042,0.266,-5.337
0.257,0.042,0.265,-5.337
0.247,0.041,0.268,-5.337
0.227,0.046,0.274,-5.337
0.184,0.050,0.274,-5.337
0.172,0.054,0.273,-5.337
0.169,0.054,0.268,-5.337
0.164,0.051,0.267,-5.337
0.150,0.050,0.264,-5.337
0.192,0.046,0.263,-5.337
0.285,0.047,0.264,-5.337
0.201,0.049,0.267,-5.337
0.124,0.049,0.269,-5.337
0.135,0.051,0.271,-5.337
0.162,0.045,0.268,-5.337
0.182,0.046,0.265,-5.337
0.224,0.045,0.266,-5.337
0.238,0.048,0.265,-5.337
0.300,0.044,0.265,-5.337
0.324,0.043,0.267,-5.337
0.254,0.047,0.268,-5.337
0.227,0.047,0.266,-5.337
0.213,0.050,0.268,-5.337
0.208,0.052,0.270,-5.337
0.212,0.052,0.270,-5.337
0.230,0.053,0.267,-5.337
0.207,0.054,0.266,-5.337
0.183,0.054,0.265,-5.337
0.230,0.050,0.265,-5.337
0.279,0.048,0.265,-5.337
0.233,0.050,0.269,-5.337
0.157,0.050,0.271,-5.337
0.108,0.051,0.269,-5.337
0.122,0.051,0.265,-5.337
0.165,0.051,0.267,-5.337
0.152,0.050,0.270,-5.337
0.131,0.053,0.271,-5.337
0.204,0.048,0.270,-5.337
0.280,0.047,0.271,-5.337
0.259,0.049,0.270,-5.337
0.165,0.055,0.268,-5.337
0.134,0.054,0.268,-5.337
0.195,0.051,0.268,-5.337
0.248,0.053,0.266,-5.337
0.225,0.049,0.266,-5.337
0.274,0.047,0.271,-5.337
0.249,0.050,0.269,-5.337
0.179,0.056,0.267,-5.337
0.099,0.056,0.264,-5.337
0.084,0.057,0.266,-5.337
0.134,0.057,0.265,-5.337
0.219,0.061,0.265,-5.337
0.180,0.060,0.266,-5.337
0.115,0.061,0.269,-5.337
0.104,0.057,0.269,-5.337
0.138,0.055,0.268,-5.337
0.157,0.057,0.270,-5.337
0.193,0.056,0.267,-5.337
0.181,0.054,0.267,-5.337
0.144,0.054,0.267,-5.337
0.170,0.056,0.268,-5.337
0.272,0.056,0.270,-5.337
0.300,0.054,0.265,-5.337
0.264,0.049,0.262,-5.337
0.262,0.048,0.264,-5.337
0.237,0.052,0.265,-5.337
0.201,0.056,0.265,-5.337
0.221,0.053,0.265,-5.337
0.217,0.056,0.266,-5.337
0.187,0.056,0.266,-5.337
0.162,0.057,0.267,-5.337
0.198,0.057,0.269,-5.337
0.228,0.056,0.272,-5.337
0.236,0.056,0.270,-5.337
0.244,0.054,0.267,-5.337
0.219,0.052,0.263,-5.337
0.244,0.054,0.263,-5.337
0.314,0.052,0.264,-5.337
0.264,0.053,0.267,-5.337
0.221,0.049,0.267,-5.337
0.201,0.051,0.267,-5.337
0.217,0.052,0.265,-5.337
0.238,0.055,0.262,-5.337
0.266,0.054,0.262,-5.337
0.333,0.055,0.268,-5.337
0.267,0.057,0.272,-5.337
0.207,0.059,0.269,-5.337
0.269,0.058,0.265,-5.337
0.274,0.059,0.265,-5.337
0.226,0.060,0.264,-5.337
0.229,0.059,0.264,-5.337
0.255,0.060,0.266,-5.337
0.218,0.059,0.266,-5.337
0.177,0.061,0.264,-5.337
0.133,0.061,0.258,-5.337
0.209,0.060,0.259,-5.337
0.284,0.059,0.262,-5.337
0.224,0.060,0.265,-5.337
0.244,0.060,0.266,-5.337
0.235,0.060,0.266,-5.337
0.212,0.057,0.267,-5.337
0.258,0.059,0.268,-5.337
0.273,0.058,0.269,-5.337
0.227,0.058,0.267,-5.337
0.191,0.060,0.267,-5.337
0.188,0.062,0.265,-5.337
0.149,0.059,0.262,-5.337
0.124,0.056,0.261,-5.337
0.200,0.054,0.262,-5.337
0.210,0.054,0.265,-5.337
0.200,0.054,0.271,-5.337
0.169,0.056,0.271,-5.337
0.133,0.059,0.274,-5.337
0.128,0.055,0.270,-5.337
0.161,0.052,0.267,-5.337
0.199,0.052,0.264,-5.337
0.192,0.054,0.264,-5.337
0.161,0.053,0.264,-5.337
0.171,0.058,0.266,-5.337
0.237,0.055,0.266,-5.337
0.244,0.056,0.265,-5.337
0.202,0.055,0.266,-5.337
0.209,0.057,0.268,-5.337
0.208,0.055,0.266,-5.337
0.256,0.054,0.262,-5.337
0.271,0.055,0.260,-5.337
0.261,0.055,0.261,-5.337
0.234,0.055,0.266,-5.337
0.210,0.058,0.270,-5.337
0.233,0.061,0.267,-5.337
0.279,0.060,0.264,-5.337
0.258,0.058,0.267,-5.337
0.261,0.054,0.267,-5.337
0.306,0.054,0.267,-5.337
0.342,0.056,0.265,-5.337
0.285,0.059,0.263,-5.337
0.161,0.061,0.263,-5.337
0.106,0.062,0.265,-5.337
0.139,0.062,0.265,-5.337
0.117,0.065,0.267,-5.337
0.145,0.063,0.271,-5.337
0.205,0.062,0.271,-5.337
0.169,0.065,0.269,-5.337
0.173,0.064,0.266,-5.337
0.222,0.064,0.263,-5.337
0.243,0.064,0.261,-5.337
0.225,0.063,0.256,-5.337
0.141,0.066,0.257,-5.337
0.154,0.066,0.265,-5.337
0.233,0.061,0.272,-5.337
0.273,0.059,0.275,-5.337
0.328,0.060,0.269,-5.337
0.317,0.060,0.265,-5.337
0.287,0.059,0.264,-5.337
0.260,0.062,0.266,-5.337
0.216,0.064,0.266,-5.337
0.208,0.063,0.267,-5.337
0.289,0.055,0.261,-5.337
0.303,0.057,0.259,-5.337
0.250,0.061,0.263,-5.337
0.176,0.064,0.268,-5.337
0.202,0.063,0.269,-5.337
0.253,0.062,0.267,-5.337
0.254,0.060,0.272,-5.337
0.249,0.060,0.274,-5.337
0.242,0.061,0.270,-5.337
0.233,0.062,0.269,-5.337
0.239,0.060,0.267,-5.337
0.206,0.059,0.266,-5.337
0.223,0.057,0.263,-5.337
0.242,0.060,0.257,-5.337
0.234,0.058,0.257,-5.337
0.237,0.057,0.263,-5.337
0.230,0.059,0.267,-5.337
0.206,0.061,0.266,-5.337
0.201,0.062,0.266,-5.337
0.164,0.061,0.264,-5.337
0.190,0.063,0.266,-5.337
0.176,0.066,0.266,-5.337
0.152,0.066,0.267,-5.337
0.206,0.063,0.269,-5.337
0.179,0.066,0.269,-5.337
0.154,0.061,0.270,-5.337
0.168,0.059,0.266,-5.337
0.209,0.057,0.265,-5.337
0.267,0.060,0.267,-5.337
0.239,0.059,0.270,-5.337
0.232,0.059,0.267,-5.337
0.219,0.061,0.262,-5.337
0.155,0.061,0.263,-5.337
0.207,0.057,0.266,-5.337
0.295,0.054,0.266,-5.337
0.242,0.057,0.265,-5.337
0.230,0.056,0.263,-5.337
0.218,0.057,0.263,-5.337
0.254,0.056,0.262,-5.337
0.310,0.053,0.264,-5.337
0.312,0.055,0.266,-5.337
0.240,0.056,0.268,-5.337
0.155,0.058,0.266,-5.337
0.169,0.058,0.267,-5.337
0.160,0.056,0.266,-5.337
0.180,0.050,0.268,-5.337
0.219,0.046,0.269,-5.337
0.187,0.052,0.269,-5.337
0.228,0.052,0.267,-5.337
0.250,0.052,0.267,-5.337
0.219,0.052,0.264,-5.337
0.256,0.054,0.263,-5.337
0.273,0.056,0.266,-5.337
0.256,0.057,0.265,-5.337
0.307,0.051,0.262,-5.337
0.294,0.053,0.260,-5.337
0.233,0.058,0.265,-5.337
0.204,0.056,0.265,-5.337
0.222,0.053,0.259,-5.337
0.178,0.054,0.258,-5.337
0.185,0.051,0.266,-5.337
0.253,0.050,0.268,-5.337
0.245,0.051,0.266,-5.337
0.169,0.051,0.263,-5.337
0.130,0.055,0.266,-5.337
0.200,0.055,0.262,-5.337
0.181,0.055,0.264,-5.337
0.138,0.053,0.264,-5.337
0.222,0.052,0.264,-5.337
0.262,0.049,0.264,-5.337
0.230,0.049,0.265,-5.337
0.234,0.045,0.265,-5.337
0.259,0.052,0.267,-5.337
0.232,0.055,0.267,-5.337
0.206,0.053,0.267,-5.337
0.212,0.048,0.270,-5.337
0.259,0.049,0.269,-5.337
0.234,0.053,0.264,-5.337
0.191,0.051,0.260,-5.337
0.144,0.052,0.260,-5.337
0.221,0.054,0.262,-5.337
0.256,0.055,0.262,-5.337
0.200,0.054,0.264,-5.337
0.163,0.052,0.268,-5.337
0.239,0.047,0.265,-5.337
0.253,0.047,0.262,-5.337
0.230,0.049,0.257,-5.337
0.196,0.051,0.259,-5.337
0.288,0.046,0.262,-5.337
0.305,0.043,0.267,-5.337
0.271,0.043,0.265,-5.337
0.308,0.047,0.264,-5.337
0.294,0.045,0.262,-5.337
0.266,0.045,0.261,-5.337
0.229,0.047,0.263,-5.337
0.220,0.048,0.262,-5.337
0.235,0.045,0.262,-5.337
0.214,0.042,0.264,-5.337
0.086,0.044,0.266,-5.337
0.113,0.045,0.263,-5.337
0.210,0.046,0.263,-5.337
0.236,0.044,0.265,-5.337
0.214,0.044,0.269,-5.337
0.239,0.044,0.268,-5.337
0.286,0.040,0.264,-5.337
0.232,0.041,0.260,-5.337
0.149,0.045,0.262,-5.337
0.105,0.049,0.263,-5.337
0.089,0.052,0.266,-5.337
0.105,0.048,0.267,-5.337
0.216,0.047,0.268,-5.337
0.272,0.043,0.263,-5.337
0.225,0.044,0.260,-5.337
0.241,0.043,0.260,-5.337
0.292,0.044,0.261,-5.337
0.239,0.043,0.264,-5.337
0.206,0.043,0.268,-5.337
0.191,0.045,0.268,-5.337
0.192,0.042,0.261,-5.337
0.212,0.043,0.258,-5.337
0.187,0.043,0.264,-5.337
0.119,0.046,0.264,-5.337
0.157,0.046,0.262,-5.337
0.254,0.041,0.263,-5.337
0.218,0.043,0.264,-5.337
0.175,0.043,0.267,-5.337
0.129,0.043,0.267,-5.337
0.105,0.041,0.268,-5.337
0.044,0.043,0.266,-5.337
0.087,0.043,0.269,-5.337
0.126,0.042,0.269,-5.337
0.143,0.039,0.267,-5.337
0.171,0.036,0.262,-5.337
0.245,0.033,0.258,-5.337
0.312,0.032,0.260,-5.337
0.308,0.036,0.263,-5.337
0.252,0.038,0.259,-5.337
0.238,0.040,0.260,-5.337
0.268,0.036,0.263,-5.337
0.215,0.040,0.265,-5.337
0.099,0.044,0.266,-5.337
0.130,0.045,0.265,-5.337
0.223,0.039,0.264,-5.337
0.270,0.036,0.261,-5.337
0.153,0.044,0.262,-5.337
0.105,0.045,0.265,-5.337
0.113,0.043,0.267,-5.337
0.122,0.041,0.267,-5.337
0.132,0.043,0.265,-5.337
0.122,0.037,0.264,-5.337
0.229,0.033,0.267,-5.337
0.242,0.035,0.269,-5.337
0.192,0.037,0.269,-5.337
0.160,0.038,0.264,-5.337
0.096,0.039,0.261,-5.337
0.123,0.034,0.263,-5.337
0.170,0.034,0.267,-5.337
0.188,0.034,0.271,-5.337
0.230,0.034,0.272,-5.337
0.297,0.033,0.268,-5.337
0.286,0.033,0.266,-5.337
0.217,0.033,0.262,-5.337
0.196,0.038,0.258,-5.337
0.193,0.040,0.256,-5.337
0.178,0.039,0.258,-5.337
0.181,0.036,0.261,-5.337
0.182,0.037,0.261,-5.337
0.124,0.041,0.259,-5.337
0.086,0.041,0.262,-5.337
0.172,0.037,0.264,-5.337
0.219,0.039,0.264,-5.337
0.162,0.040,0.266,-5.337
0.137,0.037,0.264,-5.337
0.187,0.035,0.265,-5.337
0.225,0.034,0.265,-5.337
0.229,0.035,0.264,-5.337
0.222,0.032,0.263,-5.337
0.260,0.033,0.261,-5.337
0.230,0.036,0.260,-5.337
0.146,0.036,0.263,-5.337
0.134,0.031,0.264,-5.337
0.132,0.030,0.265,-5.337
0.173,0.033,0.265,-5.337
0.201,0.032,0.265,-5.337
0.218,0.031,0.267,-5.337
0.161,0.035,0.265,-5.337
0.088,0.035,0.262,-5.337
0.081,0.035,0.263,-5.337
0.143,0.035,0.264,-5.337
0.099,0.038,0.266,-5.337
0.149,0.037,0.267,-5.337
0.275,0.034,0.266,-5.337
0.155,0.039,0.264,-5.337
0.073,0.038,0.262,-5.337
0.201,0.036,0.260,-5.337
0.183,0.041,0.260,-5.337
0.046,0.042,0.258,-5.337
0.060,0.040,0.259,-5.337
0.190,0.035,0.266,-5.337
0.158,0.033,0.269,-5.337
0.163,0.034,0.267,-5.337
0.242,0.036,0.264,-5.337
0.277,0.033,0.266,-5.337
0.255,0.033,0.267,-5.337
0.231,0.031,0.266,-5.337
0.183,0.031,0.260,-5.337
0.129,0.035,0.259,-5.337
0.130,0.036,0.257,-5.337
0.207,0.034,0.257,-5.337
0.313,0.033,0.259,-5.337
0.221,0.034,0.264,-5.337
0.170,0.034,0.267,-5.337
0.226,0.032,0.266,-5.337
0.280,0.033,0.264,-5.337
0.287,0.036,0.265,-5.337
0.255,0.036,0.271,-5.337
0.189,0.033,0.271,-5.337
0.169,0.034,0.269,-5.337
0.173,0.037,0.265,-5.337
0.195,0.036,0.267,-5.337
0.210,0.038,0.268,-5.337
0.144,0.042,0.267,-5.337
0.190,0.037,0.262,-5.337
0.247,0.040,0.264,-5.337
0.170,0.042,0.264,-5.337
0.186,0.039,0.264,-5.337
0.237,0.036,0.263,-5.337
0.246,0.035,0.261,-5.337
0.237,0.034,0.261,-5.337
0.180,0.038,0.265,-5.337
0.156,0.035,0.266,-5.337
0.179,0.035,0.264,-5.337
0.168,0.035,0.258,-5.337
0.190,0.034,0.258,-5.337
0.243,0.031,0.264,-5.337
0.267,0.031,0.268,-5.337
0.236,0.030,0.266,-5.337
0.204,0.031,0.262,-5.337
0.259,0.032,0.265,-5.337
0.212,0.036,0.264,-5.337
0.173,0.038,0.263,-5.337
0.183,0.038,0.261,-5.337
0.188,0.036,0.263,-5.337
0.197,0.035,0.267,-5.337
0.174,0.034,0.271,-5.337
0.177,0.035,0.270,-5.337
0.172,0.038,0.265,-5.337
0.180,0.038,0.260,-5.337
0.151,0.042,0.260,-5.337
0.133,0.039,0.263,-5.337
0.217,0.033,0.267,-5.337
0.296,0.033,0.267,-5.337
0.311,0.032,0.264,-5.337
0.258,0.033,0.263,-5.337
0.159,0.035,0.264,-5.337
0.167,0.034,0.268,-5.337
0.236,0.033,0.267,-5.337
0.198,0.033,0.266,-5.337
0.125,0.032,0.266,-5.337
0.076,0.035,0.267,-5.337
0.137,0.035,0.266,-5.337
0.271,0.033,0.264,-5.337
0.261,0.033,0.264,-5.337
0.160,0.037,0.264,-5.337
0.145,0.037,0.265,-5.337
0.259,0.034,0.265,-5.337
0.268,0.035,0.264,-5.337
0.167,0.040,0.263,-5.337
0.185,0.037,0.264,-5.337
0.267,0.037,0.265,-5.337
0.255,0.039,0.264,-5.337
0.179,0.040,0.263,-5.337
0.171,0.042,0.267,-5.337
0.172,0.043,0.268,-5.337
0.102,0.042,0.268,-5.337
0.137,0.042,0.267,-5.337
0.167,0.039,0.265,-5.337
0.172,0.039,0.262,-5.337
0.128,0.038,0.264,-5.337
0.082,0.034,0.263,-5.337
0.167,0.032,0.264,-5.337
0.200,0.035,0.267,-5.337
0.154,0.035,0.270,-5.337
0.139,0.034,0.268,-5.337
0.174,0.035,0.265,-5.337
0.212,0.035,0.262,-5.337
0.281,0.037,0.262,-5.337
0.287,0.038,0.264,-5.337
0.190,0.039,0.267,-5.337
0.159,0.040,0.270,-5.337
0.144,0.042,0.269,-5.337
0.102,0.045,0.266,-5.337
0.113,0.044,0.263,-5.337
0.135,0.042,0.262,-5.337
0.137,0.045,0.265,-5.337
0.166,0.043,0.270,-5.337
0.188,0.038,0.270,-5.337
0.174,0.040,0.272,-5.337
0.256,0.040,0.269,-5.337
0.304,0.042,0.266,-5.337
0.261,0.044,0.264,-5.337
0.202,0.044,0.267,-5.337
0.145,0.044,0.269,-5.337
0.208,0.042,0.270,-5.337
0.225,0.041,0.268,-5.337
0.208,0.043,0.271,-5.337
0.160,0.044,0.270,-5.337
0.114,0.045,0.267,-5.337
0.130,0.045,0.265,-5.337
0.169,0.045,0.264,-5.337
0.181,0.044,0.264,-5.337
0.210,0.042,0.266,-5.337
0.152,0.042,0.266,-5.337
0.128,0.045,0.264,-5.337
0.205,0.045,0.263,-5.337
0.247,0.047,0.265,-5.337
0.180,0.047,0.267,-5.337
0.143,0.044,0.261,-5.337
0.168,0.045,0.257,-5.337
0.155,0.045,0.258,-5.337
0.123,0.044,0.263,-5.337
0.164,0.042,0.267,-5.337
0.203,0.044,0.267,-5.337
0.142,0.042,0.266,-5.337
0.116,0.045,0.266,-5.337
0.105,0.045,0.264,-5.337
0.176,0.043,0.262,-5.337
0.215,0.047,0.260,-5.337
0.150,0.043,0.261,-5.337
0.157,0.039,0.258,-5.337
0.116,0.044,0.259,-5.337
0.146,0.044,0.263,-5.337
0.184,0.044,0.267,-5.337
0.189,0.041,0.265,-5.337
0.132,0.043,0.262,-5.337
0.172,0.044,0.263,-5.337
0.147,0.046,0.265,-5.337
0.174,0.041,0.269,-5.337
0.336,0.038,0.272,-5.337
0.427,0.039,0.269,-5.337
0.282,0.044,0.266,-5.337
0.144,0.045,0.265,-5.337
0.173,0.045,0.261,-5.337
0.214,0.048,0.260,-5.337
0.179,0.051,0.260,-5.337
0.169,0.048,0.262,-5.337
0.247,0.046,0.260,-5.337
0.241,0.047,0.262,-5.337
0.193,0.049,0.264,-5.337
0.192,0.050,0.266,-5.337
0.196,0.047,0.263,-5.337
0.240,0.047,0.265,-5.337
0.233,0.050,0.264,-5.337
0.222,0.052,0.264,-5.337
0.197,0.049,0.261,-5.337
0.219,0.051,0.259,-5.337
0.224,0.052,0.261,-5.337
0.154,0.056,0.265,-5.337
0.178,0.058,0.266,-5.337
0.203,0.057,0.267,-5.337
0.156,0.061,0.265,-5.337
0.207,0.060,0.263,-5.337
0.224,0.060,0.263,-5.337
0.232,0.059,0.262,-5.337
0.190,0.058,0.261,-5.337
0.159,0.060,0.263,-5.337
0.173,0.062,0.264,-5.337
0.177,0.060,0.259,-5.337
0.216,0.055,0.258,-5.337
0.285,0.055,0.259,-5.337
0.225,0.059,0.261,-5.337
0.159,0.059,0.265,-5.337
0.126,0.059,0.271,-5.337
0.201,0.057,0.273,-5.337
0.196,0.062,0.271,-5.337
0.158,0.063,0.269,-5.337
0.183,0.061,0.264,-5.337
0.262,0.060,0.262,-5.337
0.205,0.062,0.267,-5.337
0.173,0.059,0.266,-5.337
0.146,0.058,0.264,-5.337
0.154,0.057,0.267,-5.337
0.194,0.059,0.270,-5.337
0.257,0.059,0.264,-5.337
0.236,0.059,0.255,-5.337
0.108,0.062,0.257,-5.337
0.130,0.061,0.264,-5.337
0.243,0.059,0.272,-5.337
0.272,0.062,0.273,-5.337
0.258,0.065,0.269,-5.337
0.215,0.062,0.266,-5.337
0.241,0.058,0.266,-5.337
0.220,0.059,0.264,-5.337
0.209,0.065,0.262,-5.337
0.238,0.065,0.262,-5.337
0.244,0.062,0.263,-5.337
0.247,0.059,0.260,-5.337
0.235,0.062,0.259,-5.337
0.189,0.063,0.260,-5.337
0.185,0.061,0.265,-5.337
0.208,0.060,0.267,-5.337
0.172,0.064,0.265,-5.337
0.134,0.066,0.265,-5.337
0.144,0.062,0.266,-5.337
0.146,0.064,0.268,-5.337
0.209,0.064,0.271,-5.337
0.217,0.064,0.270,-5.337
0.191,0.060,0.264,-5.337
0.211,0.060,0.262,-5.337
0.213,0.059,0.260,-5.337
0.220,0.059,0.264,-5.337
0.205,0.062,0.266,-5.337
0.191,0.061,0.266,-5.337
0.213,0.057,0.263,-5.337
0.210,0.059,0.261,-5.337
0.213,0.059,0.264,-5.337
0.228,0.062,0.267,-5.337
0.213,0.062,0.268,-5.337
0.229,0.062,0.268,-5.337
0.255,0.060,0.266,-5.337
0.303,0.062,0.264,-5.337
0.303,0.062,0.265,-5.337
0.229,0.067,0.266,-5.337
0.169,0.069,0.265,-5.337
0.178,0.068,0.264,-5.337
0.175,0.064,0.264,-5.337
0.275,0.061,0.265,-5.337
0.365,0.061,0.263,-5.337
0.317,0.065,0.261,-5.337
0.256,0.066,0.264,-5.337
0.243,0.066,0.268,-5.337
0.160,0.067,0.270,-5.337
0.153,0.063,0.269,-5.337
0.242,0.057,0.269,-5.337
0.273,0.056,0.265,-5.337
0.285,0.058,0.263,-5.337
0.347,0.056,0.260,-5.337
0.306,0.058,0.258,-5.337
0.224,0.059,0.262,-5.337
0.200,0.063,0.265,-5.337
0.193,0.065,0.265,-5.337
0.177,0.067,0.265,-5.337
0.132,0.069,0.267,-5.337
0.111,0.069,0.265,-5.337
0.091,0.068,0.261,-5.337
0.113,0.067,0.262,-5.337
0.150,0.066,0.265,-5.337
0.226,0.067,0.264,-5.337
0.234,0.068,0.264,-5.337
0.270,0.066,0.265,-5.337
0.302,0.061,0.267,-5.337
0.313,0.061,0.267,-5.337
0.317,0.062,0.267,-5.337
0.337,0.063,0.266,-5.337
0.227,0.062,0.267,-5.337
0.209,0.061,0.268,-5.337
0.255,0.066,0.270,-5.337
0.239,0.064,0.264,-5.337
0.156,0.062,0.262,-5.337
0.156,0.062,0.263,-5.337
0.151,0.065,0.263,-5.337
0.112,0.066,0.262,-5.337
0.163,0.064,0.259,-5.337
0.156,0.062,0.260,-5.337
0.158,0.063,0.265,-5.337
0.241,0.066,0.268,-5.337
0.242,0.067,0.271,-5.337
0.196,0.064,0.270,-5.337
0.229,0.061,0.264,-5.337
0.266,0.062,0.263,-5.337
0.257,0.065,0.267,-5.337
0.267,0.064,0.269,-5.337
0.275,0.062,0.270,-5.337
0.237,0.066,0.268,-5.337
0.216,0.067,0.265,-5.337
0.184,0.067,0.267,-5.337
0.161,0.070,0.265,-5.337
0.131,0.070,0.264,-5.337
0.188,0.066,0.261,-5.337
0.220,0.067,0.260,-5.337
0.175,0.071,0.263,-5.337
0.174,0.071,0.264,-5.337
0.200,0.068,0.262,-5.337
0.158,0.070,0.262,-5.337
0.220,0.066,0.261,-5.337
0.238,0.068,0.261,-5.337
0.267,0.066,0.265,-5.337
0.296,0.062,0.269,-5.337
0.271,0.063,0.271,-5.337
0.252,0.066,0.267,-5.337
0.229,0.064,0.264,-5.337
0.221,0.066,0.266,-5.337
0.204,0.063,0.267,-5.337
0.214,0.061,0.265,-5.337
0.213,0.066,0.262,-5.337
0.189,0.068,0.259,-5.337
0.159,0.071,0.260,-5.337
0.184,0.069,0.263,-5.337
0.243,0.064,0.268,-5.337
0.294,0.065,0.270,-5.337
0.275,0.066,0.268,-5.337
0.149,0.068,0.267,-5.337
0.106,0.065,0.268,-5.337
0.220,0.063,0.265,-5.337
0.325,0.061,0.263,-5.337
0.274,0.062,0.266,-5.337
0.259,0.061,0.267,-5.337
0.319,0.057,0.263,-5.337
0.326,0.060,0.259,-5.337
0.289,0.062,0.260,-5.337
0.234,0.066,0.264,-5.337
0.194,0.066,0.267,-5.337
0.232,0.063,0.266,-5.337
0.244,0.065,0.268,-5.337
0.173,0.065,0.267,-5.337
0.153,0.067,0.266,-5.337
0.204,0.067,0.264,-5.337
0.226,0.067,0.265,-5.337
0.191,0.067,0.266,-5.337
0.170,0.068,0.265,-5.337
0.199,0.063,0.262,-5.337
0.214,0.061,0.267,-5.337
0.236,0.062,0.271,-5.337
0.255,0.064,0.268,-5.337
0.159,0.065,0.264,-5.337
0.186,0.065,0.265,-5.337
0.221,0.063,0.269,-5.337
0.242,0.064,0.271,-5.337
0.229,0.061,0.270,-5.337
0.264,0.061,0.265,-5.337
0.245,0.062,0.259,-5.337
0.240,0.064,0.257,-5.337
0.257,0.063,0.260,-5.337
0.216,0.065,0.265,-5.337
0.252,0.061,0.269,-5.337
0.318,0.060,0.266,-5.337
0.276,0.061,0.263,-5.337
0.271,0.057,0.262,-5.337
0.234,0.058,0.266,-5.337
0.186,0.058,0.266,-5.337
0.202,0.057,0.264,-5.337
0.194,0.057,0.263,-5.337
0.241,0.054,0.267,-5.337
0.281,0.052,0.267,-5.337
0.193,0.057,0.267,-5.337
0.171,0.059,0.268,-5.337
0.242,0.055,0.270,-5.337
0.256,0.054,0.268,-5.337
0.240,0.056,0.263,-5.337
0.248,0.055,0.261,-5.337
0.311,0.055,0.259,-5.337
0.236,0.059,0.261,-5.337
0.191,0.060,0.266,-5.337
0.169,0.060,0.272,-5.337
0.148,0.057,0.271,-5.337
0.205,0.054,0.265,-5.337
0.246,0.054,0.263,-5.337
0.230,0.054,0.269,-5.337
0.229,0.052,0.272,-5.337
0.270,0.050,0.270,-5.337
0.252,0.052,0.267,-5.337
0.231,0.053,0.272,-5.337
0.212,0.057,0.272,-5.337
0.220,0.055,0.265,-5.337
0.240,0.053,0.259,-5.337
0.251,0.053,0.258,-5.337
0.229,0.054,0.263,-5.337
0.228,0.056,0.268,-5.337
0.208,0.054,0.268,-5.337
0.190,0.052,0.269,-5.337
0.198,0.052,0.270,-5.337
0.242,0.053,0.268,-5.337
0.261,0.051,0.262,-5.337
0.227,0.051,0.260,-5.337
0.215,0.049,0.262,-5.337
0.178,0.053,0.267,-5.337
0.208,0.051,0.267,-5.337
0.221,0.048,0.264,-5.337
0.228,0.048,0.264,-5.337
0.219,0.050,0.268,-5.337
0.229,0.047,0.268,-5.337
0.225,0.050,0.264,-5.337
0.231,0.051,0.265,-5.337
0.212,0.051,0.266,-5.337
0.201,0.050,0.270,-5.337
0.110,0.052,0.271,-5.337
0.117,0.053,0.271,-5.337
0.159,0.049,0.268,-5.337
0.158,0.048,0.263,-5.337
0.123,0.050,0.259,-5.337
0.128,0.048,0.259,-5.337
0.162,0.047,0.260,-5.337
0.162,0.045,0.263,-5.337
0.184,0.043,0.264,-5.337
0.183,0.044,0.266,-5.337
0.170,0.045,0.267,-5.337
0.135,0.050,0.269,-5.337
0.134,0.046,0.269,-5.337
0.202,0.045,0.268,-5.337
0.229,0.042,0.266,-5.337
0.295,0.042,0.262,-5.337
0.286,0.043,0.258,-5.337
0.269,0.045,0.259,-5.337
0.232,0.046,0.264,-5.337
0.226,0.048,0.266,-5.337
0.208,0.045,0.269,-5.337
0.233,0.044,0.266,-5.337
0.214,0.047,0.261,-5.337
0.199,0.046,0.263,-5.337
0.204,0.046,0.267,-5.337
0.233,0.050,0.267,-5.337
0.245,0.053,0.265,-5.337
0.152,0.053,0.262,-5.337
0.103,0.051,0.264,-5.337
0.211,0.048,0.262,-5.337
0.262,0.047,0.264,-5.337
0.206,0.048,0.261,-5.337
0.141,0.048,0.258,-5.337
0.156,0.048,0.257,-5.337
0.209,0.050,0.263,-5.337
0.154,0.048,0.264,-5.337
0.095,0.046,0.263,-5.337
0.105,0.045,0.263,-5.337
0.209,0.046,0.266,-5.337
0.323,0.044,0.268,-5.337
0.310,0.047,0.265,-5.337
0.244,0.048,0.263,-5.337
0.180,0.049,0.261,-5.337
0.176,0.045,0.262,-5.337
0.234,0.044,0.265,-5.337
0.242,0.043,0.268,-5.337
0.155,0.044,0.264,-5.337
0.075,0.047,0.263,-5.337
0.114,0.046,0.265,-5.337
0.175,0.045,0.264,-5.337
0.214,0.043,0.263,-5.337
0.268,0.043,0.258,-5.337
0.285,0.042,0.255,-5.337
0.197,0.041,0.260,-5.337
0.151,0.043,0.267,-5.337
0.132,0.043,0.271,-5.337
0.164,0.038,0.270,-5.337
0.210,0.034,0.266,-5.337
0.233,0.035,0.263,-5.337
0.158,0.040,0.262,-5.337
0.161,0.039,0.265,-5.337
0.205,0.036,0.266,-5.337
0.157,0.040,0.266,-5.337
0.147,0.038,0.262,-5.337
0.140,0.039,0.261,-5.337
0.151,0.040,0.263,-5.337
0.169,0.039,0.266,-5.337
0.150,0.039,0.269,-5.337
0.112,0.040,0.271,-5.337
0.132,0.038,0.269,-5.337
0.152,0.037,0.265,-5.337
0.226,0.035,0.261,-5.337
0.231,0.037,0.262,-5.337
0.209,0.043,0.260,-5.337
0.258,0.040,0.261,-5.337
0.299,0.038,0.261,-5.337
0.217,0.038,0.263,-5.337
0.171,0.038,0.260,-5.337
0.161,0.039,0.259,-5.337
0.157,0.038,0.261,-5.337
0.177,0.038,0.262,-5.337
0.121,0.038,0.263,-5.337
0.102,0.038,0.264,-5.337
0.155,0.036,0.266,-5.337
0.183,0.034,0.267,-5.337
0.211,0.036,0.267,-5.337
0.185,0.037,0.264,-5.337
0.147,0.041,0.265,-5.337
0.144,0.039,0.263,-5.337
0.182,0.034,0.262,-5.337
0.223,0.032,0.262,-5.337
0.200,0.034,0.262,-5.337
0.197,0.035,0.260,-5.337
0.212,0.035,0.262,-5.337
0.175,0.035,0.265,-5.337
0.116,0.037,0.269,-5.337
0.123,0.037,0.266,-5.337
0.106,0.036,0.261,-5.337
0.109,0.035,0.261,-5.337
0.086,0.039,0.264,-5.337
0.085,0.038,0.264,-5.337
0.137,0.037,0.262,-5.337
0.128,0.040,0.265,-5.337
0.134,0.037,0.268,-5.337
0.157,0.037,0.269,-5.337
0.142,0.037,0.269,-5.337
0.153,0.037,0.267,-5.337
0.211,0.035,0.261,-5.337
0.223,0.039,0.260,-5.337
0.194,0.041,0.261,-5.337
0.202,0.038,0.265,-5.337
0.230,0.034,0.266,-5.337
0.203,0.038,0.267,-5.337
0.132,0.038,0.263,-5.337
0.207,0.038,0.259,-5.337
0.302,0.038,0.258,-5.337
0.213,0.043,0.260,-5.337
0.109,0.042,0.264,-5.337
0.082,0.042,0.266,-5.337
0.143,0.039,0.264,-5.337
0.167,0.037,0.259,-5.337
0.189,0.036,0.254,-5.337
0.130,0.039,0.256,-5.337
0.127,0.041,0.262,-5.337
0.207,0.042,0.265,-5.337
0.186,0.039,0.265,-5.337
0.175,0.039,0.269,-5.337
0.131,0.041,0.266,-5.337
0.153,0.040,0.262,-5.337
0.135,0.041,0.263,-5.337
0.137,0.040,0.263,-5.337
0.179,0.040,0.264,-5.337
0.219,0.037,0.263,-5.337
0.260,0.037,0.264,-5.337
0.234,0.040,0.264,-5.337
0.181,0.040,0.262,-5.337
0.233,0.036,0.261,-5.337
0.211,0.035,0.262,-5.337
0.190,0.033,0.258,-5.337
0.208,0.034,0.257,-5.337
0.169,0.035,0.261,-5.337
0.115,0.037,0.264,-5.337
0.099,0.038,0.267,-5.337
0.107,0.040,0.266,-5.337
0.111,0.037,0.267,-5.337
0.203,0.036,0.267,-5.337
0.216,0.038,0.265,-5.337
0.116,0.041,0.262,-5.337
0.141,0.039,0.262,-5.337
0.223,0.036,0.264,-5.337
0.183,0.037,0.265,-5.337
0.170,0.033,0.264,-5.337
0.205,0.034,0.265,-5.337
0.172,0.036,0.264,-5.337
0.206,0.034,0.263,-5.337
0.185,0.032,0.261,-5.337
0.217,0.034,0.263,-5.337
0.203,0.036,0.263,-5.337
0.128,0.041,0.264,-5.337
0.171,0.038,0.266,-5.337
0.276,0.034,0.268,-5.337
0.259,0.035,0.268,-5.337
0.139,0.038,0.266,-5.337
0.143,0.038,0.263,-5.337
0.267,0.034,0.265,-5.337
0.325,0.035,0.265,-5.337
0.261,0.036,0.263,-5.337
0.180,0.039,0.262,-5.337
0.187,0.036,0.265,-5.337
0.255,0.033,0.266,-5.337
0.217,0.036,0.264,-5.337
0.150,0.039,0.262,-5.337
0.162,0.040,0.261,-5.337
0.165,0.036,0.262,-5.337
0.156,0.034,0.262,-5.337
0.117,0.033,0.264,-5.337
0.093,0.034,0.261,-5.337
0.127,0.033,0.257,-5.337
0.149,0.029,0.258,-5.337
0.109,0.032,0.262,-5.337
0.098,0.032,0.265,-5.337
0.102,0.037,0.266,-5.337
0.108,0.034,0.267,-5.337
0.130,0.032,0.268,-5.337
0.183,0.031,0.266,-5.337
0.175,0.034,0.262,-5.337
0.172,0.032,0.260,-5.337
0.158,0.034,0.260,-5.337
0.164,0.035,0.261,-5.337
0.181,0.036,0.263,-5.337
0.180,0.038,0.264,-5.337
0.170,0.039,0.263,-5.337
0.222,0.038,0.260,-5.337
0.191,0.036,0.256,-5.337
0.172,0.036,0.261,-5.337
0.228,0.033,0.266,-5.337
0.301,0.031,0.272,-5.337
0.225,0.035,0.269,-5.337
0.114,0.038,0.267,-5.337
0.123,0.036,0.264,-5.337
0.182,0.040,0.262,-5.337
0.232,0.039,0.261,-5.337
0.238,0.034,0.261,-5.337
0.210,0.039,0.264,-5.337
0.154,0.039,0.267,-5.337
0.135,0.039,0.267,-5.337
0.125,0.039,0.265,-5.337
0.151,0.039,0.267,-5.337
0.111,0.040,0.267,-5.337
0.144,0.038,0.260,-5.337
0.180,0.037,0.257,-5.337
0.171,0.035,0.261,-5.337
0.213,0.036,0.265,-5.337
0.172,0.037,0.268,-5.337
0.151,0.039,0.270,-5.337
0.177,0.041,0.268,-5.337
0.155,0.045,0.264,-5.337
0.095,0.045,0.264,-5.337
0.189,0.042,0.263,-5.337
0.229,0.040,0.260,-5.337
0.172,0.042,0.258,-5.337
0.157,0.042,0.263,-5.337
0.269,0.037,0.268,-5.337
0.238,0.040,0.268,-5.337
0.198,0.043,0.262,-5.337
0.121,0.043,0.262,-5.337
0.104,0.043,0.264,-5.337
0.169,0.047,0.267,-5.337
0.202,0.047,0.266,-5.337
0.102,0.049,0.264,-5.337
0.089,0.048,0.261,-5.337
0.084,0.047,0.260,-5.337
0.117,0.043,0.262,-5.337
0.223,0.041,0.265,-5.337
0.247,0.043,0.268,-5.337
0.205,0.041,0.268,-5.337
0.246,0.038,0.270,-5.337
0.217,0.037,0.270,-5.337
0.172,0.041,0.270,-5.337
0.147,0.041,0.266,-5.337
0.124,0.044,0.263,-5.337
0.113,0.048,0.263,-5.337
0.116,0.047,0.267,-5.337
0.177,0.044,0.268,-5.337
0.176,0.043,0.270,-5.337
0.164,0.040,0.269,-5.337
0.126,0.039,0.268,-5.337
0.124,0.036,0.264,-5.337
0.198,0.035,0.263,-5.337
0.257,0.037,0.266,-5.337
0.158,0.045,0.265,-5.337
0.163,0.047,0.263,-5.337
0.150,0.047,0.263,-5.337
0.107,0.045,0.266,-5.337
0.118,0.044,0.270,-5.337
0.176,0.039,0.270,-5.337
0.261,0.037,0.268,-5.337
0.255,0.039,0.263,-5.337
0.283,0.040,0.260,-5.337
0.234,0.044,0.263,-5.337
0.157,0.043,0.266,-5.337
0.150,0.043,0.269,-5.337
0.104,0.045,0.270,-5.337
0.156,0.045,0.268,-5.337
0.247,0.043,0.264,-5.337
0.267,0.042,0.269,-5.337
0.250,0.042,0.269,-5.337
0.210,0.044,0.267,-5.337
0.220,0.042,0.263,-5.337
0.261,0.045,0.259,-5.337
0.234,0.044,0.255,-5.337
0.240,0.047,0.260,-5.337
0.259,0.048,0.264,-5.337
0.227,0.050,0.265,-5.337
0.172,0.052,0.264,-5.337
0.203,0.051,0.261,-5.337
0.162,0.051,0.261,-5.337
0.165,0.050,0.263,-5.337
0.243,0.049,0.263,-5.337
0.285,0.049,0.263,-5.337
0.253,0.048,0.264,-5.337
0.207,0.050,0.266,-5.337
0.198,0.051,0.267,-5.337
0.195,0.047,0.265,-5.337
0.266,0.046,0.265,-5.337
0.268,0.046,0.265,-5.337
0.239,0.048,0.263,-5.337
0.238,0.045,0.263,-5.337
0.206,0.046,0.266,-5.337
0.173,0.049,0.265,-5.337
0.206,0.048,0.263,-5.337
0.246,0.045,0.261,-5.337
0.178,0.048,0.263,-5.337
0.122,0.047,0.266,-5.337
0.148,0.046,0.267,-5.337
0.205,0.044,0.265,-5.337
0.152,0.048,0.262,-5.337
0.103,0.053,0.262,-5.337
0.158,0.052,0.260,-5.337
0.207,0.047,0.260,-5.337
0.218,0.047,0.262,-5.337
0.241,0.050,0.268,-5.337
0.261,0.051,0.269,-5.337
0.227,0.050,0.268,-5.337
0.223,0.053,0.266,-5.337
0.245,0.054,0.266,-5.337
0.210,0.053,0.265,-5.337
0.129,0.057,0.263,-5.337
0.141,0.058,0.258,-5.337
0.162,0.056,0.258,-5.337
0.173,0.051,0.260,-5.337
0.198,0.049,0.265,-5.337
0.279,0.051,0.267,-5.337
0.263,0.053,0.267,-5.337
0.203,0.051,0.263,-5.337
0.180,0.052,0.261,-5.337
0.181,0.056,0.261,-5.337
0.197,0.058,0.265,-5.337
0.196,0.056,0.267,-5.337
0.185,0.054,0.265,-5.337
0.184,0.054,0.260,-5.337
0.209,0.054,0.257,-5.337
0.212,0.053,0.258,-5.337
0.178,0.054,0.260,-5.337
0.199,0.054,0.263,-5.337
0.197,0.057,0.261,-5.337
0.196,0.057,0.262,-5.337
0.252,0.057,0.265,-5.337
0.236,0.060,0.265,-5.337
0.193,0.056,0.264,-5.337
0.215,0.054,0.262,-5.337
0.140,0.055,0.261,-5.337
0.163,0.056,0.263,-5.337
0.225,0.055,0.266,-5.337
0.232,0.056,0.266,-5.337
0.249,0.054,0.262,-5.337
0.215,0.053,0.262,-5.337
0.173,0.054,0.264,-5.337
0.158,0.054,0.267,-5.337
0.159,0.056,0.263,-5.337
0.190,0.056,0.263,-5.337
0.234,0.052,0.268,-5.337
0.238,0.051,0.269,-5.337
0.228,0.050,0.266,-5.337
0.240,0.051,0.261,-5.337
0.209,0.050,0.262,-5.337
0.248,0.050,0.261,-5.337
0.326,0.048,0.261,-5.337
0.365,0.048,0.257,-5.337
0.283,0.051,0.258,-5.337
0.218,0.052,0.261,-5.337
0.158,0.053,0.262,-5.337
0.139,0.051,0.261,-5.337
0.135,0.054,0.262,-5.337
0.182,0.054,0.264,-5.337
0.206,0.056,0.266,-5.337
0.187,0.057,0.263,-5.337
0.185,0.057,0.261,-5.337
0.180,0.052,0.261,-5.337
0.186,0.051,0.266,-5.337
0.182,0.055,0.266,-5.337
0.186,0.056,0.263,-5.337
0.190,0.056,0.264,-5.337
0.190,0.056,0.264,-5.337
0.213,0.054,0.264,-5.337
0.245,0.052,0.262,-5.337
0.174,0.054,0.263,-5.337
0.192,0.055,0.265,-5.337
0.221,0.054,0.268,-5.337
0.211,0.050,0.267,-5.337
0.248,0.053,0.266,-5.337
0.225,0.054,0.264,-5.337
0.237,0.056,0.264,-5.337
0.262,0.056,0.263,-5.337
0.233,0.054,0.261,-5.337
0.243,0.052,0.262,-5.337
0.268,0.049,0.262,-5.337
0.295,0.048,0.260,-5.337
0.272,0.049,0.262,-5.337
0.213,0.049,0.263,-5.337
0.158,0.054,0.264,-5.337
0.159,0.057,0.265,-5.337
0.194,0.057,0.263,-5.337
0.178,0.056,0.262,-5.337
0.188,0.059,0.261,-5.337
0.191,0.059,0.262,-5.337
0.211,0.059,0.264,-5.337
0.157,0.060,0.266,-5.337
0.154,0.060,0.268,-5.337
0.232,0.060,0.269,-5.337
0.300,0.057,0.263,-5.337
0.323,0.056,0.264,-5.337
0.314,0.057,0.265,-5.337
0.260,0.060,0.263,-5.337
0.239,0.061,0.258,-5.337
0.254,0.063,0.256,-5.337
0.276,0.060,0.257,-5.337
0.258,0.057,0.261,-5.337
0.245,0.056,0.266,-5.337
0.288,0.058,0.269,-5.337
0.301,0.059,0.266,-5.337
0.232,0.061,0.266,-5.337
0.201,0.061,0.267,-5.337
0.190,0.062,0.264,-5.337
0.213,0.060,0.262,-5.337
0.230,0.062,0.260,-5.337
0.201,0.060,0.259,-5.337
0.127,0.059,0.261,-5.337
0.141,0.058,0.265,-5.337
0.198,0.056,0.266,-5.337
0.251,0.057,0.265,-5.337
0.265,0.059,0.262,-5.337
0.209,0.060,0.263,-5.337
0.150,0.060,0.260,-5.337
0.180,0.062,0.260,-5.337
0.216,0.062,0.260,-5.337
0.226,0.059,0.263,-5.337
0.218,0.057,0.263,-5.337
0.223,0.059,0.264,-5.337
0.278,0.058,0.264,-5.337
0.291,0.059,0.264,-5.337
0.259,0.058,0.264,-5.337
0.208,0.060,0.263,-5.337
0.212,0.060,0.262,-5.337
0.244,0.060,0.265,-5.337
0.252,0.058,0.266,-5.337
0.277,0.060,0.267,-5.337
0.268,0.062,0.265,-5.337
0.273,0.058,0.264,-5.337
0.251,0.056,0.261,-5.337
0.217,0.056,0.262,-5.337
0.245,0.059,0.264,-5.337
0.305,0.063,0.262,-5.337
0.236,0.062,0.259,-5.337
0.190,0.061,0.262,-5.337
0.167,0.062,0.266,-5.337
0.168,0.062,0.264,-5.337
0.236,0.058,0.263,-5.337
0.220,0.060,0.259,-5.337
0.216,0.062,0.260,-5.337
0.206,0.060,0.263,-5.337
0.174,0.062,0.266,-5.337
0.208,0.060,0.269,-5.337
0.176,0.063,0.272,-5.337
0.133,0.059,0.270,-5.337
0.204,0.056,0.268,-5.337
0.274,0.052,0.265,-5.337
0.316,0.051,0.264,-5.337
0.349,0.053,0.265,-5.337
0.338,0.054,0.263,-5.337
0.282,0.054,0.263,-5.337
0.289,0.053,0.263,-5.337
0.267,0.054,0.263,-5.337
0.195,0.056,0.262,-5.337
0.177,0.056,0.264,-5.337
0.187,0.059,0.263,-5.337
0.187,0.062,0.265,-5.337
0.187,0.055,0.265,-5.337
0.238,0.050,0.267,-5.337
0.259,0.052,0.265,-5.337
0.194,0.052,0.264,-5.337
0.183,0.049,0.263,-5.337
0.162,0.049,0.260,-5.337
0.141,0.049,0.259,-5.337
0.180,0.052,0.263,-5.337
0.251,0.053,0.266,-5.337
0.227,0.052,0.266,-5.337
0.137,0.054,0.266,-5.337
0.112,0.054,0.266,-5.337
0.111,0.054,0.262,-5.337
0.150,0.056,0.261,-5.337
0.157,0.055,0.265,-5.337
0.216,0.055,0.267,-5.337
0.221,0.058,0.268,-5.337
0.192,0.057,0.264,-5.337
0.219,0.053,0.263,-5.337
0.241,0.048,0.260,-5.337
0.193,0.050,0.258,-5.337
0.184,0.051,0.257,-5.337
0.257,0.048,0.259,-5.337
0.287,0.047,0.263,-5.337
0.231,0.052,0.269,-5.337
0.153,0.053,0.271,-5.337
0.136,0.049,0.270,-5.337
0.149,0.046,0.269,-5.337
0.170,0.047,0.269,-5.337
0.192,0.049,0.264,-5.337
0.209,0.048,0.259,-5.337
0.226,0.045,0.260,-5.337
0.204,0.045,0.268,-5.337
0.147,0.047,0.268,-5.337
0.140,0.050,0.261,-5.337
0.204,0.047,0.260,-5.337
0.285,0.043,0.260,-5.337
0.320,0.044,0.261,-5.337
0.311,0.046,0.261,-5.337
0.284,0.046,0.264,-5.337
0.238,0.046,0.267,-5.337
0.175,0.051,0.271,-5.337
0.165,0.049,0.266,-5.337
0.183,0.048,0.263,-5.337
0.151,0.045,0.261,-5.337
0.092,0.049,0.265,-5.337
0.053,0.050,0.265,-5.337
0.155,0.045,0.269,-5.337
0.257,0.045,0.271,-5.337
0.242,0.044,0.267,-5.337
0.230,0.044,0.263,-5.337
0.185,0.045,0.264,-5.337
0.167,0.044,0.267,-5.337
0.242,0.041,0.268,-5.337
0.221,0.045,0.269,-5.337
0.219,0.046,0.268,-5.337
0.219,0.044,0.265,-5.337
0.243,0.044,0.264,-5.337
0.294,0.042,0.264,-5.337
0.286,0.041,0.263,-5.337
0.278,0.040,0.263,-5.337
0.209,0.042,0.264,-5.337
0.131,0.043,0.266,-5.337
0.108,0.040,0.266,-5.337
0.119,0.040,0.269,-5.337
0.116,0.042,0.266,-5.337
0.153,0.041,0.267,-5.337
0.207,0.039,0.267,-5.337
0.208,0.041,0.267,-5.337
0.138,0.044,0.265,-5.337
0.117,0.043,0.266,-5.337
0.185,0.040,0.265,-5.337
0.163,0.041,0.266,-5.337
0.220,0.039,0.267,-5.337
0.242,0.041,0.266,-5.337
0.223,0.038,0.267,-5.337
0.209,0.039,0.269,-5.337
0.218,0.039,0.269,-5.337
0.224,0.034,0.266,-5.337
0.231,0.036,0.266,-5.337
0.224,0.039,0.268,-5.337
0.189,0.038,0.271,-5.337
0.172,0.039,0.269,-5.337
0.147,0.039,0.265,-5.337
0.165,0.036,0.261,-5.337
0.178,0.034,0.262,-5.337
0.115,0.036,0.263,-5.337
0.102,0.038,0.264,-5.337
0.113,0.039,0.262,-5.337
0.162,0.038,0.259,-5.337
0.240,0.035,0.260,-5.337
0.219,0.037,0.262,-5.337
0.169,0.042,0.265,-5.337
0.112,0.042,0.266,-5.337
0.124,0.036,0.263,-5.337
0.210,0.033,0.262,-5.337
0.266,0.034,0.263,-5.337
0.182,0.036,0.263,-5.337
0.171,0.039,0.265,-5.337
0.193,0.038,0.267,-5.337
0.121,0.037,0.265,-5.337
0.164,0.037,0.265,-5.337
0.211,0.038,0.265,-5.337
0.246,0.036,0.265,-5.337
0.262,0.037,0.265,-5.337
0.257,0.036,0.263,-5.337
0.169,0.037,0.263,-5.337
0.097,0.037,0.263,-5.337
0.117,0.035,0.264,-5.337
0.139,0.039,0.258,-5.337
0.124,0.043,0.256,-5.337
0.129,0.042,0.258,-5.337
0.148,0.039,0.262,-5.337
0.152,0.037,0.263,-5.337
0.132,0.041,0.266,-5.337
0.136,0.039,0.267,-5.337
0.148,0.039,0.270,-5.337
0.138,0.038,0.268,-5.337
0.132,0.037,0.266,-5.337
0.232,0.035,0.266,-5.337
0.192,0.041,0.265,-5.337
0.093,0.044,0.261,-5.337
0.137,0.042,0.263,-5.337
0.202,0.040,0.267,-5.337
0.204,0.040,0.268,-5.337
0.205,0.039,0.268,-5.337
0.236,0.037,0.265,-5.337
0.259,0.038,0.261,-5.337
0.248,0.040,0.255,-5.337
0.247,0.038,0.257,-5.337
0.223,0.039,0.258,-5.337
0.216,0.040,0.261,-5.337
0.171,0.040,0.262,-5.337
0.137,0.042,0.265,-5.337
0.174,0.038,0.266,-5.337
0.221,0.035,0.267,-5.337
0.154,0.035,0.264,-5.337
0.111,0.037,0.264,-5.337
0.107,0.038,0.265,-5.337
0.079,0.038,0.265,-5.337
0.015,0.037,0.260,-5.337
0.090,0.033,0.263,-5.337
0.147,0.035,0.266,-5.337
0.151,0.035,0.265,-5.337
0.164,0.035,0.260,-5.337
0.201,0.033,0.257,-5.337
0.197,0.031,0.260,-5.337
0.267,0.030,0.264,-5.337
0.287,0.032,0.269,-5.337
0.197,0.034,0.268,-5.337
0.157,0.032,0.265,-5.337
0.167,0.030,0.259,-5.337
0.168,0.030,0.257,-5.337
0.114,0.035,0.259,-5.337
0.090,0.039,0.262,-5.337
0.141,0.035,0.262,-5.337
0.196,0.036,0.264,-5.337
0.138,0.034,0.263,-5.337
0.129,0.036,0.262,-5.337
0.104,0.041,0.262,-5.337
0.085,0.042,0.262,-5.337
0.134,0.041,0.264,-5.337
0.173,0.038,0.262,-5.337
0.192,0.034,0.262,-5.337
0.178,0.031,0.264,-5.337
0.120,0.033,0.264,-5.337
0.101,0.033,0.264,-5.337
0.201,0.034,0.261,-5.337
0.267,0.034,0.256,-5.337
0.273,0.035,0.261,-5.337
0.247,0.035,0.262,-5.337
0.212,0.035,0.263,-5.337
0.203,0.037,0.265,-5.337
0.158,0.037,0.266,-5.337
0.128,0.036,0.261,-5.337
0.133,0.039,0.260,-5.337
0.118,0.036,0.261,-5.337
0.158,0.038,0.261,-5.337
0.155,0.041,0.264,-5.337
0.146,0.039,0.266,-5.337
0.208,0.031,0.266,-5.337
0.237,0.033,0.264,-5.337
0.282,0.031,0.263,-5.337
0.258,0.032,0.263,-5.337
0.198,0.030,0.263,-5.337
0.174,0.030,0.262,-5.337
0.173,0.031,0.261,-5.337
0.233,0.032,0.261,-5.337
0.178,0.032,0.261,-5.337
0.208,0.029,0.260,-5.337
0.255,0.030,0.262,-5.337
0.207,0.036,0.261,-5.337
0.121,0.034,0.263,-5.337
0.154,0.031,0.264,-5.337
0.171,0.034,0.262,-5.337
0.172,0.036,0.260,-5.337
0.202,0.032,0.260,-5.337
0.253,0.029,0.261,-5.337
0.266,0.027,0.263,-5.337
0.214,0.026,0.261,-5.337
0.197,0.028,0.258,-5.337
0.218,0.031,0.258,-5.337
0.215,0.033,0.261,-5.337
0.181,0.031,0.264,-5.337
0.166,0.031,0.263,-5.337
0.104,0.032,0.264,-5.337
0.065,0.037,0.265,-5.337
0.043,0.040,0.267,-5.337
0.127,0.039,0.267,-5.337
0.128,0.035,0.265,-5.337
0.085,0.035,0.264,-5.337
0.095,0.032,0.265,-5.337
0.148,0.032,0.266,-5.337
0.169,0.033,0.269,-5.337
0.220,0.034,0.265,-5.337
0.154,0.035,0.258,-5.337
0.206,0.031,0.255,-5.337
0.247,0.033,0.260,-5.337
0.184,0.034,0.262,-5.337
0.180,0.035,0.264,-5.337
0.166,0.035,0.264,-5.337
0.105,0.038,0.265,-5.337
0.066,0.040,0.264,-5.337
0.129,0.039,0.261,-5.337
0.243,0.032,0.259,-5.337
0.281,0.034,0.258,-5.337
0.267,0.036,0.260,-5.337
0.201,0.038,0.260,-5.337
0.154,0.037,0.260,-5.337
0.168,0.036,0.264,-5.337
0.212,0.037,0.264,-5.337
0.146,0.037,0.263,-5.337
0.081,0.038,0.262,-5.337
0.074,0.040,0.259,-5.337
0.137,0.040,0.261,-5.337
0.144,0.036,0.265,-5.337
0.148,0.031,0.268,-5.337
0.209,0.029,0.269,-5.337
0.295,0.028,0.265,-5.337
0.286,0.031,0.262,-5.337
0.161,0.036,0.265,-5.337
0.136,0.034,0.264,-5.337
0.179,0.031,0.263,-5.337
0.230,0.030,0.260,-5.337
0.195,0.032,0.258,-5.337
0.180,0.034,0.259,-5.337
0.180,0.038,0.262,-5.337
0.211,0.040,0.266,-5.337
0.172,0.041,0.265,-5.337
0.132,0.036,0.263,-5.337
0.174,0.030,0.264,-5.337
0.185,0.033,0.262,-5.337
0.121,0.042,0.262,-5.337
0.136,0.042,0.263,-5.337
0.149,0.038,0.262,-5.337
0.166,0.036,0.262,-5.337
0.154,0.037,0.263,-5.337
0.140,0.040,0.264,-5.337
0.120,0.041,0.262,-5.337
0.137,0.040,0.262,-5.337
0.162,0.042,0.263,-5.337
0.130,0.044,0.265,-5.337
0.155,0.042,0.261,-5.337
0.210,0.045,0.259,-5.337
0.188,0.045,0.262,-5.337
0.152,0.041,0.260,-5.337
0.217,0.039,0.256,-5.337
0.246,0.044,0.257,-5.337
0.170,0.040,0.260,-5.337
0.134,0.041,0.265,-5.337
0.141,0.043,0.265,-5.337
0.154,0.044,0.264,-5.337
0.165,0.043,0.268,-5.337
0.173,0.042,0.268,-5.337
0.174,0.042,0.267,-5.337
0.145,0.044,0.264,-5.337
0.180,0.041,0.262,-5.337
0.201,0.040,0.260,-5.337
0.191,0.042,0.260,-5.337
0.153,0.044,0.262,-5.337
0.143,0.043,0.265,-5.337
0.186,0.042,0.266,-5.337
0.152,0.044,0.268,-5.337
0.162,0.046,0.264,-5.337
0.191,0.044,0.265,-5.337
0.246,0.042,0.265,-5.337
0.296,0.043,0.267,-5.337
0.256,0.042,0.267,-5.337
0.234,0.042,0.261,-5.337
0.211,0.042,0.258,-5.337
0.192,0.045,0.261,-5.337
0.183,0.043,0.262,-5.337
0.177,0.042,0.264,-5.337
0.184,0.045,0.267,-5.337
0.214,0.047,0.265,-5.337
0.257,0.042,0.261,-5.337
0.296,0.042,0.256,-5.337
0.296,0.041,0.257,-5.337
0.250,0.043,0.262,-5.337
0.209,0.043,0.269,-5.337
0.235,0.040,0.267,-5.337
0.212,0.042,0.266,-5.337
0.176,0.045,0.261,-5.337
0.185,0.043,0.261,-5.337
0.188,0.047,0.263,-5.337
0.151,0.051,0.265,-5.337
0.058,0.055,0.263,-5.337
0.042,0.055,0.266,-5.337
0.100,0.048,0.268,-5.337
0.227,0.046,0.265,-5.337
0.312,0.047,0.263,-5.337
0.215,0.051,0.262,-5.337
0.104,0.051,0.263,-5.337
0.082,0.047,0.265,-5.337
0.198,0.044,0.267,-5.337
0.206,0.045,0.266,-5.337
0.161,0.049,0.267,-5.337
0.159,0.049,0.268,-5.337
0.148,0.050,0.268,-5.337
0.111,0.049,0.264,-5.337
0.075,0.050,0.264,-5.337
0.105,0.047,0.266,-5.337
0.143,0.045,0.268,-5.337
0.155,0.046,0.265,-5.337
0.148,0.046,0.265,-5.337
0.171,0.043,0.266,-5.337
0.195,0.040,0.265,-5.337
0.244,0.040,0.262,-5.337
0.231,0.043,0.264,-5.337
0.175,0.048,0.266,-5.337
0.221,0.053,0.265,-5.337
0.249,0.054,0.264,-5.337
0.196,0.055,0.265,-5.337
0.179,0.052,0.267,-5.337
0.237,0.050,0.265,-5.337
0.273,0.045,0.262,-5.337
0.256,0.043,0.262,-5.337
0.220,0.047,0.265,-5.337
0.246,0.049,0.267,-5.337
0.226,0.053,0.267,-5.337
0.208,0.051,0.266,-5.337
0.251,0.049,0.265,-5.337
0.288,0.045,0.266,-5.337
0.230,0.050,0.265,-5.337
0.178,0.051,0.267,-5.337
0.201,0.050,0.269,-5.337
0.174,0.047,0.269,-5.337
0.206,0.047,0.267,-5.337
0.166,0.051,0.262,-5.337
0.169,0.054,0.258,-5.337
0.214,0.051,0.256,-5.337
0.185,0.050,0.262,-5.337
0.192,0.052,0.265,-5.337
0.240,0.050,0.266,-5.337
0.249,0.047,0.263,-5.337
0.182,0.049,0.260,-5.337
0.158,0.048,0.261,-5.337
0.140,0.047,0.264,-5.337
0.134,0.048,0.264,-5.337
0.183,0.049,0.264,-5.337
0.239,0.048,0.262,-5.337
0.194,0.049,0.263,-5.337
0.199,0.047,0.264,-5.337
0.236,0.047,0.266,-5.337
0.259,0.048,0.270,-5.337
0.233,0.048,0.267,-5.337
0.226,0.046,0.262,-5.337
0.225,0.046,0.256,-5.337
0.221,0.048,0.257,-5.337
0.152,0.054,0.262,-5.337
0.031,0.056,0.267,-5.337
0.047,0.050,0.268,-5.337
0.092,0.049,0.264,-5.337
0.191,0.047,0.258,-5.337
0.250,0.048,0.257,-5.337
0.241,0.049,0.259,-5.337
0.139,0.052,0.261,-5.337
0.201,0.048,0.264,-5.337
0.254,0.048,0.267,-5.337
0.191,0.047,0.265,-5.337
0.190,0.046,0.264,-5.337
0.244,0.049,0.262,-5.337
0.258,0.054,0.261,-5.337
0.209,0.055,0.263,-5.337
0.180,0.051,0.264,-5.337
0.260,0.049,0.264,-5.337
0.264,0.053,0.262,-5.337
0.252,0.049,0.264,-5.337
0.274,0.051,0.265,-5.337
0.237,0.052,0.265,-5.337
0.185,0.053,0.261,-5.337
0.196,0.050,0.262,-5.337
0.292,0.050,0.264,-5.337
0.303,0.054,0.265,-5.337
0.226,0.054,0.261,-5.337
0.235,0.053,0.258,-5.337
0.153,0.054,0.258,-5.337
0.091,0.054,0.262,-5.337
0.167,0.055,0.265,-5.337
0.274,0.052,0.264,-5.337
0.255,0.053,0.261,-5.337
0.198,0.055,0.261,-5.337
0.161,0.057,0.261,-5.337
0.158,0.058,0.265,-5.337
0.164,0.054,0.264,-5.337
0.201,0.050,0.263,-5.337
0.209,0.050,0.264,-5.337
0.197,0.051,0.260,-5.337
0.226,0.049,0.259,-5.337
0.306,0.050,0.261,-5.337
0.269,0.052,0.265,-5.337
0.245,0.051,0.265,-5.337
0.215,0.049,0.263,-5.337
0.216,0.045,0.258,-5.337
0.246,0.048,0.259,-5.337
0.231,0.049,0.261,-5.337
0.125,0.052,0.265,-5.337
0.162,0.055,0.268,-5.337
0.192,0.056,0.267,-5.337
0.139,0.053,0.264,-5.337
0.136,0.054,0.263,-5.337
0.201,0.056,0.261,-5.337
0.227,0.056,0.261,-5.337
0.254,0.054,0.261,-5.337
0.198,0.057,0.262,-5.337
0.175,0.056,0.262,-5.337
0.175,0.055,0.261,-5.337
0.172,0.056,0.263,-5.337
0.184,0.061,0.265,-5.337
0.244,0.060,0.266,-5.337
0.252,0.059,0.266,-5.337
0.145,0.059,0.263,-5.337
0.099,0.057,0.257,-5.337
0.188,0.055,0.260,-5.337
0.252,0.055,0.265,-5.337
0.244,0.055,0.265,-5.337
0.222,0.055,0.261,-5.337
0.220,0.056,0.260,-5.337
0.141,0.055,0.259,-5.337
0.182,0.052,0.264,-5.337
0.244,0.051,0.266,-5.337
0.245,0.052,0.266,-5.337
0.203,0.054,0.263,-5.337
0.243,0.054,0.260,-5.337
0.255,0.052,0.258,-5.337
0.216,0.053,0.258,-5.337
0.208,0.054,0.258,-5.337
0.244,0.053,0.260,-5.337
0.294,0.051,0.260,-5.337
0.290,0.050,0.262,-5.337
0.249,0.052,0.268,-5.337
0.218,0.052,0.267,-5.337
0.244,0.055,0.265,-5.337
0.204,0.057,0.267,-5.337
0.201,0.058,0.270,-5.337
0.193,0.058,0.265,-5.337
0.216,0.056,0.262,-5.337
0.269,0.055,0.260,-5.337
0.235,0.061,0.260,-5.337
0.184,0.062,0.260,-5.337
0.182,0.059,0.264,-5.337
0.286,0.053,0.265,-5.337
0.297,0.054,0.264,-5.337
0.236,0.055,0.265,-5.337
0.239,0.055,0.260,-5.337
0.229,0.056,0.257,-5.337
0.256,0.056,0.258,-5.337
0.281,0.054,0.258,-5.337
0.225,0.057,0.260,-5.337
0.236,0.055,0.262,-5.337
0.311,0.054,0.261,-5.337
0.307,0.058,0.260,-5.337
0.276,0.058,0.261,-5.337
0.247,0.058,0.266,-5.337
0.221,0.059,0.265,-5.337
0.195,0.058,0.262,-5.337
0.155,0.058,0.261,-5.337
0.146,0.062,0.264,-5.337
0.153,0.063,0.267,-5.337
0.139,0.060,0.268,-5.337
0.179,0.058,0.263,-5.337
0.239,0.056,0.258,-5.337
0.278,0.056,0.255,-5.337
0.281,0.057,0.258,-5.337
0.189,0.058,0.264,-5.337
0.149,0.060,0.264,-5.337
0.192,0.057,0.261,-5.337
0.210,0.056,0.264,-5.337
0.270,0.054,0.266,-5.337
0.254,0.054,0.268,-5.337
0.241,0.052,0.265,-5.337
0.186,0.054,0.261,-5.337
0.062,0.055,0.259,-5.337
0.107,0.055,0.262,-5.337
0.182,0.058,0.263,-5.337
0.172,0.059,0.265,-5.337
0.258,0.055,0.267,-5.337
0.273,0.056,0.265,-5.337
0.228,0.052,0.262,-5.337
0.231,0.050,0.259,-5.337
0.229,0.052,0.260,-5.337
0.243,0.053,0.264,-5.337
0.266,0.049,0.266,-5.337
0.303,0.046,0.262,-5.337
0.311,0.046,0.259,-5.337
0.230,0.047,0.258,-5.337
0.243,0.046,0.261,-5.337
0.320,0.047,0.264,-5.337
0.301,0.048,0.263,-5.337
0.263,0.045,0.262,-5.337
0.218,0.046,0.262,-5.337
0.192,0.045,0.261,-5.337
0.231,0.043,0.263,-5.337
0.235,0.048,0.263,-5.337
0.275,0.048,0.265,-5.337
0.270,0.047,0.263,-5.337
0.222,0.046,0.263,-5.337
0.227,0.041,0.265,-5.337
0.305,0.041,0.266,-5.337
0.261,0.042,0.264,-5.337
0.144,0.043,0.264,-5.337
0.092,0.044,0.264,-5.337
0.157,0.040,0.265,-5.337
0.231,0.041,0.267,-5.337
0.138,0.047,0.263,-5.337
0.066,0.048,0.258,-5.337
0.125,0.048,0.259,-5.337
0.152,0.048,0.262,-5.337
0.153,0.047,0.263,-5.337
0.184,0.046,0.263,-5.337
0.280,0.047,0.259,-5.337
0.291,0.048,0.262,-5.337
0.194,0.050,0.265,-5.337
0.161,0.049,0.268,-5.337
0.203,0.049,0.268,-5.337
0.257,0.049,0.269,-5.337
0.277,0.045,0.269,-5.337
0.260,0.047,0.264,-5.337
0.233,0.046,0.258,-5.337
0.242,0.047,0.255,-5.337
0.232,0.048,0.257,-5.337
0.173,0.045,0.260,-5.337
0.156,0.046,0.265,-5.337
0.193,0.047,0.264,-5.337
0.138,0.049,0.264,-5.337
0.059,0.048,0.264,-5.337
0.100,0.044,0.266,-5.337
0.195,0.044,0.267,-5.337
0.220,0.042,0.266,-5.337
0.257,0.040,0.263,-5.337
0.305,0.040,0.260,-5.337
0.189,0.043,0.264,-5.337
0.152,0.042,0.267,-5.337
0.244,0.039,0.266,-5.337
0.258,0.040,0.266,-5.337
0.241,0.037,0.267,-5.337
0.191,0.036,0.267,-5.337
0.215,0.040,0.266,-5.337
0.280,0.042,0.266,-5.337
0.196,0.044,0.268,-5.337
0.189,0.039,0.267,-5.337
0.214,0.039,0.266,-5.337
0.204,0.037,0.262,-5.337
0.224,0.037,0.261,-5.337
0.244,0.036,0.263,-5.337
0.219,0.041,0.264,-5.337
0.190,0.038,0.260,-5.337
0.160,0.038,0.263,-5.337
0.146,0.039,0.262,-5.337
0.137,0.040,0.265,-5.337
0.125,0.040,0.265,-5.337
0.198,0.037,0.263,-5.337
0.275,0.033,0.263,-5.337
0.331,0.033,0.265,-5.337
0.281,0.033,0.265,-5.337
0.211,0.036,0.266,-5.337
0.186,0.041,0.265,-5.337
0.174,0.042,0.266,-5.337
0.172,0.039,0.271,-5.337
0.193,0.037,0.272,-5.337
0.194,0.036,0.268,-5.337
0.207,0.038,0.267,-5.337
0.178,0.039,0.267,-5.337
0.171,0.037,0.264,-5.337
0.141,0.038,0.262,-5.337
0.132,0.036,0.264,-5.337
0.163,0.035,0.264,-5.337
0.220,0.035,0.263,-5.337
0.192,0.040,0.264,-5.337
0.208,0.036,0.266,-5.337
0.251,0.033,0.268,-5.337
0.223,0.035,0.266,-5.337
0.152,0.041,0.266,-5.337
0.117,0.037,0.269,-5.337
0.124,0.033,0.269,-5.337
0.115,0.035,0.265,-5.337
0.130,0.033,0.265,-5.337
0.196,0.033,0.266,-5.337
0.168,0.034,0.264,-5.337
0.159,0.032,0.264,-5.337
0.246,0.034,0.269,-5.337
0.237,0.034,0.269,-5.337
0.240,0.030,0.265,-5.337
0.228,0.028,0.264,-5.337
0.279,0.027,0.267,-5.337
0.268,0.026,0.268,-5.337
0.224,0.031,0.266,-5.337
0.215,0.033,0.267,-5.337
0.244,0.035,0.264,-5.337
0.251,0.035,0.262,-5.337
0.173,0.036,0.263,-5.337
0.068,0.037,0.266,-5.337
0.039,0.036,0.266,-5.337
0.167,0.032,0.266,-5.337
0.210,0.033,0.266,-5.337
0.194,0.033,0.266,-5.337
0.147,0.033,0.264,-5.337
0.121,0.031,0.264,-5.337
0.185,0.028,0.267,-5.337
0.174,0.029,0.268,-5.337
0.180,0.027,0.266,-5.337
0.229,0.027,0.265,-5.337
0.215,0.031,0.265,-5.337
0.170,0.029,0.266,-5.337
0.185,0.028,0.267,-5.337
0.218,0.030,0.267,-5.337
0.202,0.031,0.266,-5.337
0.165,0.035,0.266,-5.337
0.145,0.038,0.267,-5.337
0.161,0.032,0.264,-5.337
0.167,0.033,0.262,-5.337
0.185,0.031,0.260,-5.337
0.289,0.030,0.263,-5.337
0.233,0.033,0.266,-5.337
0.124,0.035,0.269,-5.337
0.133,0.034,0.269,-5.337
0.113,0.035,0.267,-5.337
0.146,0.030,0.261,-5.337
0.150,0.030,0.257,-5.337
0.149,0.032,0.255,-5.337
0.191,0.032,0.257,-5.337
0.178,0.031,0.259,-5.337
0.145,0.037,0.260,-5.337
0.111,0.039,0.264,-5.337
0.124,0.035,0.269,-5.337
0.200,0.030,0.272,-5.337
0.243,0.028,0.270,-5.337
0.206,0.032,0.267,-5.337
0.211,0.032,0.265,-5.337
0.253,0.029,0.266,-5.337
0.242,0.029,0.261,-5.337
0.253,0.028,0.258,-5.337
0.234,0.031,0.255,-5.337
0.175,0.034,0.257,-5.337
0.223,0.032,0.257,-5.337
0.246,0.032,0.261,-5.337
0.181,0.031,0.267,-5.337
0.123,0.034,0.270,-5.337
0.104,0.036,0.270,-5.337
0.160,0.033,0.266,-5.337
0.243,0.031,0.265,-5.337
0.185,0.036,0.266,-5.337
0.098,0.036,0.267,-5.337
0.129,0.032,0.269,-5.337
0.145,0.031,0.267,-5.337
0.132,0.028,0.264,-5.337
0.205,0.028,0.263,-5.337
0.285,0.029,0.261,-5.337
0.229,0.031,0.259,-5.337
0.101,0.034,0.258,-5.337
0.114,0.034,0.261,-5.337
0.221,0.033,0.262,-5.337
0.274,0.033,0.265,-5.337
0.276,0.034,0.264,-5.337
0.233,0.033,0.264,-5.337
0.207,0.032,0.263,-5.337
0.242,0.032,0.263,-5.337
0.266,0.030,0.262,-5.337
0.200,0.034,0.265,-5.337
0.147,0.031,0.265,-5.337
0.172,0.033,0.265,-5.337
0.174,0.034,0.267,-5.337
0.162,0.034,0.269,-5.337
0.139,0.035,0.265,-5.337
0.147,0.032,0.262,-5.337
0.214,0.029,0.262,-5.337
0.275,0.027,0.264,-5.337
0.207,0.028,0.263,-5.337
0.156,0.028,0.261,-5.337
0.165,0.029,0.260,-5.337
0.162,0.029,0.257,-5.337
0.173,0.026,0.258,-5.337
0.180,0.024,0.260,-5.337
0.137,0.028,0.264,-5.337
0.082,0.037,0.263,-5.337
0.023,0.040,0.264,-5.337
0.050,0.035,0.267,-5.337
0.100,0.038,0.265,-5.337
0.133,0.037,0.263,-5.337
0.165,0.036,0.265,-5.337
0.175,0.033,0.266,-5.337
0.159,0.035,0.261,-5.337
0.077,0.040,0.259,-5.337
0.051,0.037,0.263,-5.337
0.186,0.032,0.263,-5.337
0.236,0.031,0.263,-5.337
0.185,0.030,0.263,-5.337
0.119,0.033,0.263,-5.337
0.090,0.033,0.264,-5.337
0.128,0.036,0.263,-5.337
0.195,0.033,0.264,-5.337
0.206,0.032,0.264,-5.337
0.202,0.030,0.263,-5.337
0.269,0.027,0.259,-5.337
0.282,0.028,0.261,-5.337
0.259,0.032,0.261,-5.337
0.257,0.033,0.261,-5.337
0.226,0.030,0.262,-5.337
0.161,0.037,0.264,-5.337
0.132,0.034,0.264,-5.337
0.199,0.029,0.265,-5.337
0.220,0.027,0.266,-5.337
0.186,0.030,0.265,-5.337
0.216,0.030,0.266,-5.337
0.194,0.031,0.263,-5.337
0.159,0.035,0.262,-5.337
0.142,0.036,0.264,-5.337
0.171,0.032,0.266,-5.337
0.227,0.031,0.266,-5.337
0.263,0.032,0.262,-5.337
0.230,0.031,0.259,-5.337
0.134,0.035,0.260,-5.337
0.089,0.036,0.262,-5.337
0.073,0.032,0.263,-5.337
0.083,0.029,0.260,-5.337
0.193,0.028,0.260,-5.337
0.250,0.029,0.261,-5.337
0.274,0.032,0.261,-5.337
0.208,0.036,0.259,-5.337
0.153,0.034,0.262,-5.337
0.144,0.035,0.264,-5.337
0.180,0.038,0.261,-5.337
0.140,0.040,0.259,-5.337
0.087,0.037,0.262,-5.337
0.099,0.033,0.265,-5.337
0.140,0.034,0.267,-5.337
0.083,0.035,0.263,-5.337
0.044,0.035,0.259,-5.337
0.077,0.031,0.260,-5.337
0.150,0.033,0.263,-5.337
0.180,0.036,0.263,-5.337
0.191,0.037,0.264,-5.337
0.192,0.036,0.264,-5.337
0.186,0.035,0.264,-5.337
0.108,0.039,0.262,-5.337
0.169,0.037,0.263,-5.337
0.300,0.034,0.266,-5.337
0.251,0.038,0.263,-5.337
0.138,0.041,0.263,-5.337
0.128,0.043,0.263,-5.337
0.177,0.041,0.265,-5.337
0.201,0.040,0.262,-5.337
0.202,0.037,0.261,-5.337
0.281,0.039,0.260,-5.337
0.265,0.042,0.264,-5.337
0.275,0.042,0.265,-5.337
0.295,0.041,0.262,-5.337
0.248,0.040,0.259,-5.337
0.118,0.044,0.261,-5.337
0.108,0.041,0.264,-5.337
0.230,0.042,0.266,-5.337
0.208,0.045,0.264,-5.337
0.133,0.049,0.265,-5.337
0.153,0.049,0.267,-5.337
0.190,0.044,0.264,-5.337
0.193,0.043,0.260,-5.337
0.203,0.039,0.260,-5.337
0.202,0.037,0.261,-5.337
0.216,0.036,0.262,-5.337
0.220,0.039,0.265,-5.337
0.151,0.040,0.266,-5.337
0.196,0.039,0.269,-5.337
0.186,0.042,0.267,-5.337
0.136,0.042,0.265,-5.337
0.132,0.044,0.258,-5.337
0.122,0.046,0.258,-5.337
0.163,0.042,0.263,-5.337
0.139,0.043,0.269,-5.337
0.132,0.040,0.266,-5.337
0.158,0.043,0.259,-5.337
0.156,0.043,0.260,-5.337
0.157,0.044,0.264,-5.337
0.124,0.046,0.268,-5.337
0.122,0.046,0.267,-5.337
0.187,0.042,0.264,-5.337
0.249,0.039,0.263,-5.337
0.323,0.038,0.263,-5.337
0.281,0.039,0.262,-5.337
0.202,0.042,0.260,-5.337
0.189,0.042,0.259,-5.337
0.242,0.042,0.259,-5.337
0.211,0.042,0.258,-5.337
0.187,0.044,0.262,-5.337
0.187,0.046,0.264,-5.337
0.202,0.048,0.266,-5.337
0.185,0.048,0.265,-5.337
0.169,0.049,0.266,-5.337
0.124,0.047,0.265,-5.337
0.078,0.047,0.265,-5.337
0.145,0.046,0.267,-5.337
0.162,0.050,0.265,-5.337
0.176,0.051,0.261,-5.337
0.220,0.050,0.259,-5.337
0.251,0.045,0.261,-5.337
0.204,0.043,0.262,-5.337
0.267,0.042,0.262,-5.337
0.284,0.050,0.268,-5.337
0.151,0.055,0.268,-5.337
0.103,0.050,0.266,-5.337
0.171,0.043,0.267,-5.337
0.213,0.045,0.268,-5.337
0.209,0.045,0.268,-5.337
0.141,0.048,0.262,-5.337
0.142,0.045,0.260,-5.337
0.142,0.045,0.257,-5.337
0.143,0.042,0.260,-5.337
0.140,0.041,0.260,-5.337
0.127,0.045,0.261,-5.337
0.120,0.046,0.264,-5.337
0.146,0.045,0.265,-5.337
0.162,0.046,0.264,-5.337
0.182,0.048,0.263,-5.337
0.179,0.050,0.261,-5.337
0.198,0.049,0.263,-5.337
0.211,0.048,0.268,-5.337
0.163,0.048,0.271,-5.337
0.179,0.045,0.267,-5.337
0.160,0.050,0.266,-5.337
0.121,0.053,0.263,-5.337
0.117,0.049,0.260,-5.337
0.186,0.046,0.260,-5.337
0.223,0.049,0.259,-5.337
0.240,0.052,0.261,-5.337
0.201,0.054,0.263,-5.337
0.131,0.056,0.263,-5.337
0.194,0.054,0.263,-5.337
0.201,0.052,0.267,-5.337
0.118,0.052,0.267,-5.337
0.162,0.052,0.270,-5.337
0.219,0.052,0.268,-5.337
0.226,0.051,0.267,-5.337
0.242,0.047,0.262,-5.337
0.228,0.047,0.259,-5.337
0.235,0.047,0.258,-5.337
0.216,0.049,0.260,-5.337
0.167,0.050,0.263,-5.337
0.181,0.050,0.271,-5.337
0.171,0.051,0.272,-5.337
0.201,0.049,0.270,-5.337
0.258,0.048,0.269,-5.337
0.292,0.049,0.267,-5.337
0.192,0.051,0.264,-5.337
0.122,0.053,0.262,-5.337
0.150,0.052,0.262,-5.337
0.185,0.049,0.262,-5.337
0.155,0.049,0.260,-5.337
0.104,0.051,0.258,-5.337
0.157,0.053,0.260,-5.337
0.241,0.052,0.260,-5.337
0.264,0.049,0.260,-5.337
0.284,0.049,0.260,-5.337
0.295,0.053,0.263,-5.337
0.208,0.052,0.264,-5.337
0.136,0.056,0.262,-5.337
0.134,0.056,0.263,-5.337
0.176,0.054,0.262,-5.337
0.176,0.055,0.263,-5.337
0.122,0.059,0.268,-5.337
0.126,0.056,0.271,-5.337
0.192,0.057,0.271,-5.337
0.196,0.054,0.269,-5.337
0.158,0.047,0.267,-5.337
0.210,0.044,0.264,-5.337
0.192,0.049,0.262,-5.337
0.199,0.050,0.264,-5.337
0.261,0.046,0.267,-5.337
0.280,0.047,0.270,-5.337
0.264,0.047,0.268,-5.337
0.214,0.051,0.267,-5.337
0.186,0.048,0.263,-5.337
0.219,0.047,0.262,-5.337
0.232,0.048,0.259,-5.337
0.262,0.049,0.262,-5.337
0.342,0.050,0.263,-5.337
0.247,0.054,0.258,-5.337
0.217,0.052,0.256,-5.337
0.213,0.055,0.261,-5.337
0.210,0.055,0.263,-5.337
0.227,0.053,0.266,-5.337
0.154,0.055,0.266,-5.337
0.085,0.054,0.266,-5.337
0.150,0.051,0.266,-5.337
0.204,0.051,0.265,-5.337
0.250,0.048,0.267,-5.337
0.321,0.047,0.270,-5.337
0.293,0.052,0.267,-5.337
0.194,0.052,0.261,-5.337
0.181,0.051,0.261,-5.337
0.313,0.049,0.261,-5.337
0.338,0.052,0.262,-5.337
0.218,0.059,0.263,-5.337
0.136,0.056,0.262,-5.337
0.181,0.052,0.261,-5.337
0.231,0.054,0.262,-5.337
0.179,0.055,0.261,-5.337
0.178,0.056,0.262,-5.337
0.088,0.057,0.261,-5.337
0.097,0.055,0.261,-5.337
0.166,0.055,0.261,-5.337
0.190,0.058,0.260,-5.337
0.267,0.055,0.257,-5.337
0.240,0.059,0.259,-5.337
0.166,0.059,0.260,-5.337
0.206,0.057,0.259,-5.337
0.236,0.054,0.259,-5.337
0.221,0.057,0.266,-5.337
0.183,0.057,0.270,-5.337
0.181,0.055,0.268,-5.337
0.182,0.055,0.269,-5.337
0.247,0.053,0.269,-5.337
0.241,0.052,0.264,-5.337
0.174,0.056,0.259,-5.337
0.136,0.061,0.257,-5.337
0.162,0.058,0.255,-5.337
0.306,0.051,0.258,-5.337
0.299,0.054,0.258,-5.337
0.211,0.061,0.262,-5.337
0.215,0.065,0.264,-5.337
0.192,0.064,0.263,-5.337
0.222,0.058,0.260,-5.337
0.214,0.059,0.259,-5.337
0.241,0.055,0.261,-5.337
0.289,0.053,0.264,-5.337
0.298,0.053,0.265,-5.337
0.310,0.053,0.266,-5.337
0.264,0.056,0.266,-5.337
0.223,0.059,0.263,-5.337
0.177,0.059,0.260,-5.337
0.222,0.057,0.259,-5.337
0.292,0.055,0.259,-5.337
0.255,0.057,0.263,-5.337
0.227,0.059,0.266,-5.337
0.225,0.060,0.263,-5.337
0.198,0.060,0.265,-5.337
0.182,0.061,0.266,-5.337
0.225,0.060,0.268,-5.337
0.276,0.059,0.264,-5.337
0.237,0.059,0.260,-5.337
0.220,0.057,0.257,-5.337
0.178,0.055,0.258,-5.337
0.219,0.052,0.261,-5.337
0.267,0.054,0.266,-5.337
0.209,0.053,0.265,-5.337
0.170,0.054,0.262,-5.337
0.218,0.052,0.262,-5.337
0.234,0.052,0.260,-5.337
0.215,0.052,0.260,-5.337
0.225,0.054,0.262,-5.337
0.252,0.055,0.263,-5.337
0.267,0.052,0.263,-5.337
0.263,0.056,0.259,-5.337
0.231,0.056,0.256,-5.337
0.292,0.053,0.260,-5.337
0.340,0.054,0.264,-5.337
0.340,0.053,0.267,-5.337
0.278,0.055,0.267,-5.337
0.234,0.057,0.264,-5.337
0.221,0.058,0.261,-5.337
0.242,0.060,0.259,-5.337
0.179,0.058,0.255,-5.337
0.164,0.058,0.256,-5.337
0.237,0.056,0.261,-5.337
0.262,0.059,0.264,-5.337
0.172,0.062,0.263,-5.337
0.174,0.063,0.261,-5.337
0.219,0.058,0.260,-5.337
0.252,0.058,0.262,-5.337
0.260,0.059,0.264,-5.337
0.240,0.059,0.265,-5.337
0.233,0.058,0.261,-5.337
0.207,0.057,0.257,-5.337
0.190,0.056,0.260,-5.337
0.233,0.053,0.261,-5.337
0.274,0.050,0.261,-5.337
0.290,0.053,0.260,-5.337
0.221,0.054,0.260,-5.337
0.169,0.056,0.261,-5.337
0.141,0.058,0.264,-5.337
0.160,0.055,0.262,-5.337
0.220,0.056,0.260,-5.337
0.253,0.056,0.260,-5.337
0.242,0.052,0.262,-5.337
0.193,0.053,0.261,-5.337
0.210,0.052,0.257,-5.337
0.253,0.051,0.254,-5.337
0.208,0.054,0.260,-5.337
0.148,0.053,0.267,-5.337
0.138,0.055,0.271,-5.337
0.189,0.058,0.268,-5.337
0.219,0.059,0.262,-5.337
0.208,0.058,0.260,-5.337
0.230,0.054,0.257,-5.337
0.257,0.051,0.254,-5.337
0.286,0.052,0.256,-5.337
0.240,0.053,0.260,-5.337
0.219,0.053,0.260,-5.337
0.253,0.050,0.262,-5.337
0.274,0.049,0.261,-5.337
0.276,0.050,0.261,-5.337
0.299,0.049,0.263,-5.337
0.335,0.046,0.262,-5.337
0.274,0.048,0.261,-5.337
0.222,0.054,0.263,-5.337
0.142,0.054,0.261,-5.337
0.177,0.050,0.259,-5.337
0.179,0.050,0.258,-5.337
0.151,0.050,0.261,-5.337
0.177,0.050,0.262,-5.337
0.209,0.049,0.261,-5.337
0.197,0.047,0.263,-5.337
0.187,0.051,0.263,-5.337
0.169,0.050,0.261,-5.337
0.196,0.046,0.259,-5.337
0.231,0.046,0.259,-5.337
0.216,0.051,0.267,-5.337
0.232,0.051,0.271,-5.337
0.200,0.048,0.268,-5.337
0.179,0.046,0.260,-5.337
0.207,0.050,0.256,-5.337
0.198,0.053,0.258,-5.337
0.237,0.051,0.260,-5.337
0.249,0.053,0.259,-5.337
0.262,0.053,0.260,-5.337
0.236,0.054,0.260,-5.337
0.221,0.051,0.259,-5.337
0.193,0.051,0.262,-5.337
0.183,0.050,0.265,-5.337
0.301,0.049,0.266,-5.337
0.374,0.047,0.266,-5.337
0.306,0.047,0.264,-5.337
0.168,0.049,0.261,-5.337
0.247,0.047,0.258,-5.337
0.295,0.045,0.259,-5.337
0.201,0.044,0.260,-5.337
0.157,0.046,0.261,-5.337
0.146,0.048,0.262,-5.337
0.154,0.050,0.262,-5.337
0.169,0.048,0.266,-5.337
0.182,0.046,0.266,-5.337
0.102,0.051,0.266,-5.337
0.131,0.050,0.264,-5.337
0.207,0.047,0.265,-5.337
0.210,0.045,0.266,-5.337
0.218,0.047,0.263,-5.337
0.221,0.047,0.263,-5.337
0.202,0.047,0.262,-5.337
0.217,0.047,0.263,-5.337
0.154,0.046,0.260,-5.337
0.106,0.044,0.260,-5.337
0.170,0.040,0.261,-5.337
0.236,0.043,0.264,-5.337
0.223,0.043,0.265,-5.337
0.188,0.042,0.262,-5.337
0.236,0.035,0.257,-5.337
0.243,0.037,0.256,-5.337
0.162,0.045,0.258,-5.337
0.104,0.045,0.261,-5.337
0.135,0.043,0.264,-5.337
0.111,0.042,0.267,-5.337
0.139,0.042,0.266,-5.337
0.254,0.044,0.263,-5.337
0.272,0.046,0.262,-5.337
0.220,0.046,0.257,-5.337
0.204,0.047,0.258,-5.337
0.158,0.050,0.261,-5.337
0.109,0.050,0.265,-5.337
0.137,0.048,0.266,-5.337
0.165,0.049,0.263,-5.337
0.133,0.048,0.263,-5.337
0.179,0.047,0.268,-5.337
0.188,0.045,0.266,-5.337
0.199,0.045,0.262,-5.337
0.228,0.044,0.260,-5.337
0.198,0.043,0.262,-5.337
0.179,0.039,0.262,-5.337
0.210,0.041,0.265,-5.337
0.237,0.038,0.266,-5.337
0.205,0.037,0.261,-5.337
0.259,0.039,0.259,-5.337
0.277,0.042,0.260,-5.337
0.253,0.035,0.262,-5.337
0.201,0.035,0.264,-5.337
0.149,0.039,0.262,-5.337
0.106,0.041,0.258,-5.337
0.157,0.045,0.262,-5.337
0.219,0.046,0.266,-5.337
0.218,0.043,0.265,-5.337
0.140,0.044,0.265,-5.337
0.178,0.043,0.264,-5.337
0.305,0.037,0.261,-5.337
0.295,0.036,0.259,-5.337
0.136,0.040,0.261,-5.337
0.122,0.041,0.262,-5.337
0.219,0.042,0.261,-5.337
0.200,0.043,0.264,-5.337
0.141,0.042,0.267,-5.337
0.169,0.042,0.265,-5.337
0.239,0.042,0.263,-5.337
0.214,0.043,0.264,-5.337
0.143,0.048,0.267,-5.337
0.084,0.048,0.266,-5.337
0.157,0.046,0.263,-5.337
0.201,0.044,0.262,-5.337
0.229,0.046,0.259,-5.337
0.127,0.047,0.257,-5.337
0.170,0.044,0.259,-5.337
0.209,0.040,0.263,-5.337
0.190,0.040,0.269,-5.337
0.122,0.046,0.268,-5.337
0.149,0.044,0.266,-5.337
0.193,0.041,0.260,-5.337
0.150,0.046,0.261,-5.337
0.097,0.047,0.264,-5.337
0.103,0.045,0.269,-5.337
0.215,0.041,0.268,-5.337
0.279,0.044,0.266,-5.337
0.269,0.041,0.262,-5.337
0.182,0.041,0.261,-5.337
0.174,0.037,0.263,-5.337
0.257,0.035,0.265,-5.337
0.208,0.039,0.265,-5.337
0.162,0.039,0.261,-5.337
0.165,0.041,0.259,-5.337
0.162,0.042,0.261,-5.337
0.132,0.042,0.261,-5.337
0.178,0.040,0.258,-5.337
0.225,0.041,0.256,-5.337
0.250,0.041,0.260,-5.337
0.257,0.040,0.269,-5.337
0.185,0.040,0.268,-5.337
0.140,0.042,0.267,-5.337
0.126,0.043,0.264,-5.337
0.154,0.043,0.261,-5.337
0.174,0.039,0.262,-5.337
0.238,0.041,0.265,-5.337
0.216,0.042,0.264,-5.337
0.184,0.042,0.263,-5.337
0.266,0.037,0.262,-5.337
0.312,0.039,0.260,-5.337
0.218,0.040,0.259,-5.337
0.202,0.038,0.261,-5.337
0.255,0.038,0.262,-5.337
0.228,0.040,0.263,-5.337
0.202,0.042,0.262,-5.337
0.236,0.043,0.263,-5.337
0.242,0.045,0.264,-5.337
0.229,0.044,0.264,-5.337
0.167,0.043,0.264,-5.337
0.113,0.044,0.264,-5.337
0.123,0.047,0.265,-5.337
0.121,0.048,0.267,-5.337
0.123,0.043,0.267,-5.337
0.141,0.038,0.269,-5.337
0.205,0.039,0.270,-5.337
0.205,0.040,0.264,-5.337
0.211,0.041,0.259,-5.337
0.149,0.043,0.258,-5.337
0.109,0.046,0.260,-5.337
0.136,0.042,0.263,-5.337
0.206,0.039,0.262,-5.337
0.225,0.036,0.258,-5.337
0.228,0.038,0.256,-5.337
0.198,0.042,0.260,-5.337
0.149,0.043,0.262,-5.337
0.145,0.042,0.262,-5.337
0.154,0.040,0.263,-5.337
0.116,0.040,0.261,-5.337
0.105,0.040,0.260,-5.337
0.127,0.038,0.259,-5.337
0.212,0.039,0.260,-5.337
0.204,0.042,0.263,-5.337
0.171,0.043,0.266,-5.337
0.116,0.043,0.267,-5.337
0.104,0.044,0.264,-5.337
0.127,0.045,0.261,-5.337
0.166,0.042,0.261,-5.337
0.146,0.041,0.262,-5.337
0.111,0.039,0.263,-5.337
0.151,0.034,0.263,-5.337
0.232,0.033,0.262,-5.337
0.256,0.035,0.260,-5.337
0.263,0.033,0.255,-5.337
0.260,0.038,0.255,-5.337
0.192,0.042,0.257,-5.337
0.185,0.038,0.258,-5.337
0.194,0.038,0.264,-5.337
0.197,0.039,0.267,-5.337
0.176,0.040,0.262,-5.337
0.171,0.040,0.257,-5.337
0.128,0.043,0.259,-5.337
0.111,0.041,0.262,-5.337
0.138,0.036,0.261,-5.337
0.206,0.038,0.258,-5.337
0.276,0.038,0.259,-5.337
0.250,0.038,0.258,-5.337
0.116,0.043,0.259,-5.337
0.021,0.045,0.260,-5.337
0.039,0.045,0.261,-5.337
0.087,0.045,0.262,-5.337
0.134,0.040,0.263,-5.337
0.195,0.037,0.263,-5.337
0.223,0.039,0.262,-5.337
0.230,0.040,0.262,-5.337
0.231,0.039,0.259,-5.337
0.223,0.038,0.257,-5.337
0.225,0.040,0.257,-5.337
0.187,0.038,0.260,-5.337
0.146,0.041,0.264,-5.337
0.090,0.044,0.263,-5.337
0.116,0.042,0.260,-5.337
0.209,0.039,0.260,-5.337
0.242,0.038,0.257,-5.337
0.181,0.040,0.257,-5.337
0.177,0.040,0.260,-5.337
0.216,0.036,0.263,-5.337
0.227,0.036,0.264,-5.337
0.231,0.042,0.263,-5.337
0.222,0.041,0.261,-5.337
0.222,0.041,0.264,-5.337
0.234,0.042,0.262,-5.337
0.185,0.046,0.260,-5.337
0.192,0.041,0.258,-5.337
0.192,0.038,0.256,-5.337
0.211,0.040,0.257,-5.337
0.211,0.040,0.262,-5.337
0.235,0.040,0.265,-5.337
0.155,0.042,0.266,-5.337
0.132,0.038,0.263,-5.337
0.145,0.037,0.260,-5.337
0.194,0.035,0.258,-5.337
0.232,0.038,0.257,-5.337
0.197,0.041,0.258,-5.337
0.133,0.043,0.260,-5.337
0.144,0.042,0.260,-5.337
0.171,0.042,0.261,-5.337
0.162,0.044,0.262,-5.337
0.171,0.041,0.261,-5.337
0.237,0.040,0.264,-5.337
0.255,0.041,0.260,-5.337
0.151,0.046,0.258,-5.337
0.063,0.049,0.259,-5.337
0.115,0.046,0.262,-5.337
0.255,0.040,0.260,-5.337
0.256,0.043,0.259,-5.337
0.115,0.044,0.256,-5.337
0.104,0.048,0.258,-5.337
0.176,0.047,0.263,-5.337
0.209,0.045,0.263,-5.337
0.227,0.040,0.262,-5.337
0.173,0.045,0.263,-5.337
0.079,0.047,0.265,-5.337
0.123,0.046,0.264,-5.337
0.221,0.045,0.262,-5.337
0.223,0.047,0.262,-5.337
0.178,0.048,0.262,-5.337
0.154,0.045,0.260,-5.337
0.176,0.044,0.260,-5.337
0.176,0.045,0.257,-5.337
0.189,0.045,0.255,-5.337
0.229,0.043,0.258,-5.337
0.268,0.044,0.264,-5.337
0.232,0.044,0.266,-5.337
0.217,0.048,0.266,-5.337
0.209,0.051,0.262,-5.337
0.217,0.050,0.259,-5.337
0.152,0.049,0.257,-5.337
0.138,0.047,0.253,-5.337
0.189,0.045,0.256,-5.337
0.171,0.047,0.260,-5.337
0.101,0.044,0.263,-5.337
0.095,0.046,0.265,-5.337
0.114,0.047,0.263,-5.337
0.153,0.048,0.259,-5.337
0.131,0.048,0.258,-5.337
0.147,0.048,0.261,-5.337
0.224,0.050,0.263,-5.337
0.293,0.051,0.263,-5.337
0.286,0.052,0.261,-5.337
0.249,0.053,0.261,-5.337
0.252,0.052,0.259,-5.337
0.229,0.053,0.257,-5.337
0.185,0.051,0.260,-5.337
0.192,0.054,0.261,-5.337
0.211,0.050,0.260,-5.337
0.226,0.049,0.260,-5.337
0.240,0.049,0.256,-5.337
0.198,0.049,0.255,-5.337
0.175,0.049,0.261,-5.337
0.211,0.049,0.266,-5.337
0.215,0.052,0.267,-5.337
0.097,0.052,0.261,-5.337
0.139,0.050,0.259,-5.337
0.143,0.053,0.261,-5.337
0.116,0.054,0.261,-5.337
0.158,0.053,0.259,-5.337
0.146,0.055,0.262,-5.337
0.194,0.052,0.266,-5.337
0.237,0.049,0.265,-5.337
0.242,0.048,0.263,-5.337
0.236,0.049,0.262,-5.337
0.181,0.057,0.260,-5.337
0.157,0.056,0.258,-5.337
0.224,0.052,0.260,-5.337
0.213,0.054,0.264,-5.337
0.169,0.055,0.266,-5.337
0.162,0.054,0.261,-5.337
0.219,0.050,0.260,-5.337
0.233,0.053,0.258,-5.337
0.202,0.057,0.258,-5.337
0.184,0.056,0.262,-5.337
0.196,0.054,0.264,-5.337
0.179,0.052,0.264,-5.337
0.206,0.051,0.261,-5.337
0.216,0.052,0.260,-5.337
0.174,0.051,0.262,-5.337
0.185,0.050,0.260,-5.337
0.172,0.054,0.259,-5.337
0.173,0.051,0.260,-5.337
0.232,0.048,0.258,-5.337
0.294,0.051,0.258,-5.337
0.271,0.050,0.260,-5.337
0.253,0.051,0.263,-5.337
0.222,0.055,0.264,-5.337
0.207,0.052,0.263,-5.337
0.205,0.052,0.261,-5.337
0.205,0.052,0.262,-5.337
0.259,0.052,0.265,-5.337
0.290,0.053,0.263,-5.337
0.277,0.060,0.260,-5.337
0.254,0.061,0.257,-5.337
0.242,0.056,0.258,-5.337
0.256,0.056,0.264,-5.337
0.245,0.054,0.265,-5.337
0.253,0.055,0.262,-5.337
0.249,0.051,0.262,-5.337
0.249,0.051,0.260,-5.337
0.261,0.053,0.260,-5.337
0.184,0.063,0.262,-5.337
0.174,0.062,0.259,-5.337
0.181,0.061,0.256,-5.337
0.278,0.055,0.259,-5.337
0.319,0.059,0.262,-5.337
0.208,0.063,0.264,-5.337
0.104,0.062,0.261,-5.337
0.138,0.063,0.263,-5.337
0.164,0.064,0.266,-5.337
0.106,0.061,0.266,-5.337
0.116,0.062,0.259,-5.337
0.214,0.057,0.259,-5.337
0.301,0.055,0.266,-5.337
0.249,0.058,0.265,-5.337
0.159,0.059,0.263,-5.337
0.219,0.056,0.261,-5.337
0.295,0.055,0.258,-5.337
0.223,0.055,0.254,-5.337
0.241,0.053,0.256,-5.337
0.281,0.054,0.260,-5.337
0.220,0.058,0.264,-5.337
0.176,0.059,0.268,-5.337
0.256,0.055,0.269,-5.337
0.182,0.063,0.266,-5.337
0.060,0.064,0.265,-5.337
0.109,0.059,0.261,-5.337
0.150,0.057,0.263,-5.337
0.134,0.061,0.264,-5.337
0.129,0.060,0.266,-5.337
0.245,0.055,0.265,-5.337
0.262,0.056,0.264,-5.337
0.186,0.056,0.258,-5.337
0.180,0.056,0.259,-5.337
0.208,0.055,0.261,-5.337
0.211,0.057,0.263,-5.337
0.273,0.058,0.265,-5.337
0.256,0.059,0.265,-5.337
0.251,0.058,0.264,-5.337
0.240,0.058,0.261,-5.337
0.242,0.056,0.259,-5.337
0.222,0.058,0.259,-5.337
0.286,0.055,0.262,-5.337
0.288,0.054,0.265,-5.337
0.236,0.053,0.266,-5.337
0.241,0.052,0.263,-5.337
0.252,0.057,0.263,-5.337
0.226,0.056,0.266,-5.337
0.221,0.055,0.265,-5.337
0.224,0.058,0.262,-5.337
0.170,0.061,0.258,-5.337
0.105,0.063,0.257,-5.337
0.139,0.062,0.258,-5.337
0.148,0.062,0.262,-5.337
0.199,0.063,0.269,-5.337
0.202,0.064,0.268,-5.337
0.205,0.064,0.262,-5.337
0.199,0.063,0.259,-5.337
0.240,0.060,0.262,-5.337
0.308,0.057,0.262,-5.337
0.266,0.062,0.267,-5.337
0.219,0.064,0.270,-5.337
0.202,0.063,0.267,-5.337
0.279,0.057,0.261,-5.337
0.324,0.058,0.258,-5.337
0.253,0.061,0.262,-5.337
0.230,0.062,0.265,-5.337
0.234,0.059,0.266,-5.337
0.242,0.062,0.264,-5.337
0.244,0.058,0.261,-5.337
0.267,0.061,0.262,-5.337
0.204,0.062,0.264,-5.337
0.143,0.063,0.265,-5.337
0.157,0.062,0.263,-5.337
0.173,0.065,0.260,-5.337
0.178,0.060,0.260,-5.337
0.172,0.058,0.260,-5.337
0.194,0.059,0.261,-5.337
0.220,0.059,0.261,-5.337
0.221,0.060,0.267,-5.337
0.167,0.060,0.270,-5.337
0.213,0.059,0.267,-5.337
0.229,0.059,0.262,-5.337
0.226,0.059,0.260,-5.337
0.258,0.056,0.259,-5.337
0.277,0.057,0.262,-5.337
0.253,0.060,0.265,-5.337
0.174,0.063,0.267,-5.337
0.153,0.060,0.266,-5.337
0.179,0.061,0.263,-5.337
0.176,0.063,0.260,-5.337
0.152,0.065,0.257,-5.337
0.088,0.063,0.259,-5.337
0.172,0.062,0.264,-5.337
0.193,0.060,0.262,-5.337
0.236,0.059,0.257,-5.337
0.220,0.058,0.260,-5.337
0.229,0.058,0.264,-5.337
0.280,0.060,0.266,-5.337
0.226,0.066,0.261,-5.337
0.171,0.065,0.261,-5.337
0.189,0.061,0.262,-5.337
0.263,0.062,0.264,-5.337
0.261,0.061,0.263,-5.337
0.255,0.060,0.263,-5.337
0.254,0.064,0.265,-5.337
0.218,0.063,0.266,-5.337
0.257,0.061,0.264,-5.337
0.299,0.060,0.264,-5.337
0.270,0.062,0.263,-5.337
0.199,0.064,0.260,-5.337
0.208,0.059,0.256,-5.337
0.269,0.059,0.258,-5.337
0.256,0.060,0.264,-5.337
0.237,0.063,0.264,-5.337
0.266,0.065,0.261,-5.337
0.310,0.063,0.260,-5.337
0.355,0.059,0.266,-5.337
0.316,0.060,0.270,-5.337
0.217,0.064,0.268,-5.337
0.140,0.063,0.261,-5.337
0.206,0.059,0.261,-5.337
0.300,0.058,0.264,-5.337
0.311,0.064,0.263,-5.337
0.273,0.063,0.263,-5.337
0.219,0.059,0.263,-5.337
0.298,0.058,0.260,-5.337
0.309,0.059,0.259,-5.337
0.288,0.059,0.260,-5.337
0.251,0.066,0.262,-5.337
0.258,0.066,0.258,-5.337
0.240,0.067,0.255,-5.337
0.183,0.066,0.255,-5.337
0.166,0.064,0.259,-5.337
0.126,0.066,0.262,-5.337
0.138,0.067,0.262,-5.337
0.199,0.063,0.262,-5.337
0.164,0.065,0.262,-5.337
0.161,0.062,0.263,-5.337
0.248,0.059,0.262,-5.337
0.296,0.062,0.262,-5.337
0.262,0.061,0.263,-5.337
0.213,0.062,0.265,-5.337
0.233,0.062,0.260,-5.337
0.228,0.061,0.257,-5.337
0.194,0.061,0.260,-5.337
0.124,0.060,0.264,-5.337
0.153,0.059,0.266,-5.337
0.193,0.056,0.266,-5.337
0.269,0.053,0.265,-5.337
0.341,0.054,0.262,-5.337
0.298,0.056,0.261,-5.337
0.165,0.059,0.258,-5.337
0.140,0.056,0.257,-5.337
0.211,0.057,0.259,-5.337
0.198,0.059,0.263,-5.337
0.162,0.059,0.264,-5.337
0.147,0.057,0.262,-5.337
0.185,0.056,0.259,-5.337
0.174,0.058,0.261,-5.337
0.146,0.057,0.262,-5.337
0.166,0.056,0.261,-5.337
0.129,0.056,0.260,-5.337
0.157,0.054,0.263,-5.337
0.198,0.054,0.261,-5.337
0.238,0.055,0.260,-5.337
0.282,0.052,0.261,-5.337
0.306,0.052,0.265,-5.337
0.274,0.052,0.264,-5.337
0.280,0.055,0.262,-5.337
0.257,0.055,0.259,-5.337
0.219,0.058,0.259,-5.337
0.209,0.059,0.263,-5.337
0.193,0.060,0.263,-5.337
0.154,0.062,0.260,-5.337
0.131,0.062,0.262,-5.337
0.160,0.058,0.264,-5.337
0.202,0.054,0.263,-5.337
0.190,0.052,0.261,-5.337
0.255,0.047,0.260,-5.337
0.322,0.050,0.261,-5.337
0.282,0.054,0.259,-5.337
0.199,0.055,0.261,-5.337
0.138,0.057,0.263,-5.337
0.150,0.054,0.265,-5.337
0.173,0.053,0.259,-5.337
0.108,0.055,0.261,-5.337
0.097,0.057,0.260,-5.337
0.158,0.058,0.261,-5.337
0.213,0.056,0.260,-5.337
0.228,0.054,0.261,-5.337
0.245,0.053,0.263,-5.337
0.180,0.054,0.262,-5.337
0.146,0.052,0.260,-5.337
0.175,0.053,0.260,-5.337
0.218,0.052,0.259,-5.337
0.253,0.050,0.259,-5.337
0.248,0.047,0.260,-5.337
0.234,0.048,0.262,-5.337
0.261,0.048,0.265,-5.337
0.224,0.051,0.264,-5.337
0.197,0.051,0.262,-5.337
0.186,0.050,0.265,-5.337
0.207,0.048,0.268,-5.337
0.244,0.047,0.266,-5.337
0.271,0.047,0.261,-5.337
0.202,0.046,0.256,-5.337
0.257,0.043,0.256,-5.337
0.289,0.046,0.260,-5.337
0.238,0.046,0.262,-5.337
0.194,0.046,0.264,-5.337
0.136,0.048,0.262,-5.337
0.053,0.046,0.258,-5.337
0.170,0.040,0.261,-5.337
0.224,0.040,0.260,-5.337
0.267,0.042,0.260,-5.337
0.247,0.044,0.262,-5.337
0.147,0.047,0.264,-5.337
0.182,0.045,0.264,-5.337
0.221,0.045,0.266,-5.337
0.209,0.045,0.264,-5.337
0.228,0.043,0.261,-5.337
0.204,0.040,0.260,-5.337
0.179,0.042,0.263,-5.337
0.140,0.044,0.266,-5.337
0.181,0.042,0.269,-5.337
0.206,0.045,0.266,-5.337
0.196,0.051,0.261,-5.337
0.186,0.052,0.257,-5.337
0.116,0.051,0.255,-5.337
0.104,0.050,0.257,-5.337
0.120,0.050,0.259,-5.337
0.133,0.051,0.262,-5.337
0.186,0.050,0.262,-5.337
0.187,0.050,0.266,-5.337
0.146,0.051,0.265,-5.337
0.135,0.048,0.265,-5.337
0.180,0.046,0.263,-5.337
0.165,0.051,0.265,-5.337
0.226,0.045,0.266,-5.337
0.245,0.045,0.261,-5.337
0.225,0.043,0.263,-5.337
0.238,0.045,0.265,-5.337
0.224,0.047,0.263,-5.337
0.159,0.049,0.261,-5.337
0.147,0.047,0.262,-5.337
0.195,0.042,0.263,-5.337
0.253,0.038,0.264,-5.337
0.219,0.041,0.265,-5.337
0.134,0.044,0.263,-5.337
0.105,0.042,0.260,-5.337
0.082,0.040,0.257,-5.337
0.098,0.039,0.258,-5.337
0.182,0.035,0.262,-5.337
0.285,0.033,0.263,-5.337
0.286,0.032,0.259,-5.337
0.238,0.037,0.258,-5.337
0.226,0.044,0.262,-5.337
0.236,0.041,0.268,-5.337
0.262,0.038,0.269,-5.337
0.278,0.040,0.266,-5.337
0.249,0.040,0.263,-5.337
0.234,0.043,0.258,-5.337
0.225,0.042,0.257,-5.337
0.209,0.038,0.259,-5.337
0.176,0.037,0.263,-5.337
0.199,0.040,0.266,-5.337
0.273,0.038,0.267,-5.337
0.204,0.039,0.266,-5.337
0.167,0.039,0.264,-5.337
0.205,0.040,0.262,-5.337
0.191,0.040,0.260,-5.337
0.135,0.042,0.263,-5.337
0.143,0.037,0.263,-5.337
0.138,0.040,0.260,-5.337
0.176,0.037,0.258,-5.337
0.247,0.039,0.259,-5.337
0.267,0.040,0.262,-5.337
0.227,0.042,0.262,-5.337
0.155,0.042,0.264,-5.337
0.136,0.043,0.264,-5.337
0.124,0.040,0.261,-5.337
0.213,0.036,0.261,-5.337
0.189,0.039,0.260,-5.337
0.161,0.041,0.264,-5.337
0.107,0.043,0.266,-5.337
0.086,0.042,0.266,-5.337
0.143,0.042,0.263,-5.337
0.127,0.042,0.261,-5.337
0.065,0.037,0.261,-5.337
0.135,0.035,0.263,-5.337
0.128,0.039,0.267,-5.337
0.105,0.038,0.267,-5.337
0.140,0.039,0.267,-5.337
0.157,0.040,0.263,-5.337
0.188,0.037,0.261,-5.337
0.224,0.036,0.258,-5.337
0.202,0.039,0.258,-5.337
0.196,0.041,0.262,-5.337
0.175,0.044,0.264,-5.337
0.205,0.040,0.264,-5.337
0.179,0.039,0.267,-5.337
0.114,0.035,0.267,-5.337
0.180,0.036,0.265,-5.337
0.196,0.039,0.267,-5.337
0.212,0.039,0.267,-5.337
0.200,0.038,0.264,-5.337
0.220,0.039,0.263,-5.337
0.239,0.040,0.263,-5.337
0.155,0.044,0.261,-5.337
0.227,0.041,0.258,-5.337
0.247,0.040,0.255,-5.337
0.165,0.041,0.259,-5.337
0.110,0.041,0.260,-5.337
0.088,0.042,0.264,-5.337
0.137,0.042,0.265,-5.337
0.172,0.044,0.266,-5.337
0.156,0.042,0.265,-5.337
0.189,0.040,0.267,-5.337
0.152,0.040,0.267,-5.337
0.111,0.037,0.266,-5.337
0.156,0.036,0.263,-5.337
0.103,0.037,0.264,-5.337
0.096,0.038,0.266,-5.337
0.205,0.036,0.268,-5.337
0.232,0.036,0.266,-5.337
0.148,0.040,0.261,-5.337
0.159,0.037,0.260,-5.337
0.194,0.035,0.263,-5.337
0.223,0.033,0.264,-5.337
0.225,0.034,0.265,-5.337
0.159,0.037,0.265,-5.337
0.154,0.039,0.264,-5.337
0.218,0.034,0.262,-5.337
0.270,0.036,0.259,-5.337
0.160,0.038,0.259,-5.337
0.114,0.034,0.261,-5.337
0.161,0.032,0.264,-5.337
0.185,0.032,0.264,-5.337
0.183,0.033,0.265,-5.337
0.213,0.031,0.262,-5.337
0.270,0.034,0.262,-5.337
0.111,0.042,0.261,-5.337
0.060,0.045,0.262,-5.337
0.115,0.042,0.264,-5.337
0.143,0.038,0.266,-5.337
0.231,0.035,0.264,-5.337
0.246,0.039,0.262,-5.337
0.274,0.040,0.264,-5.337
0.248,0.042,0.266,-5.337
0.189,0.042,0.266,-5.337
0.227,0.039,0.266,-5.337
0.193,0.038,0.263,-5.337
0.097,0.038,0.262,-5.337
0.061,0.037,0.262,-5.337
0.036,0.036,0.261,-5.337
0.079,0.036,0.258,-5.337
0.172,0.035,0.261,-5.337
0.241,0.030,0.262,-5.337
0.234,0.034,0.260,-5.337
0.170,0.036,0.259,-5.337
0.135,0.037,0.261,-5.337
0.163,0.036,0.265,-5.337
0.216,0.037,0.265,-5.337
0.177,0.042,0.264,-5.337
0.145,0.040,0.259,-5.337
0.128,0.039,0.259,-5.337
0.062,0.039,0.259,-5.337
0.079,0.039,0.261,-5.337
0.157,0.036,0.265,-5.337
0.166,0.039,0.265,-5.337
0.118,0.038,0.264,-5.337
0.143,0.038,0.260,-5.337
0.136,0.037,0.259,-5.337
0.136,0.038,0.260,-5.337
0.138,0.036,0.259,-5.337
0.134,0.033,0.260,-5.337
0.116,0.034,0.263,-5.337
0.108,0.037,0.265,-5.337
0.172,0.038,0.264,-5.337
0.187,0.040,0.260,-5.337
0.189,0.040,0.263,-5.337
0.261,0.041,0.266,-5.337
0.286,0.039,0.265,-5.337
0.246,0.043,0.260,-5.337
0.185,0.044,0.260,-5.337
0.126,0.045,0.260,-5.337
0.109,0.045,0.262,-5.337
0.132,0.039,0.260,-5.337
0.143,0.040,0.258,-5.337
0.165,0.040,0.260,-5.337
0.212,0.040,0.263,-5.337
0.190,0.042,0.263,-5.337
0.187,0.041,0.261,-5.337
0.178,0.040,0.257,-5.337
0.155,0.038,0.261,-5.337
0.152,0.039,0.264,-5.337
0.136,0.041,0.264,-5.337
0.129,0.043,0.263,-5.337
0.179,0.044,0.261,-5.337
0.223,0.042,0.261,-5.337
0.232,0.042,0.261,-5.337
0.191,0.042,0.264,-5.337
0.222,0.045,0.261,-5.337
0.225,0.044,0.259,-5.337
0.177,0.042,0.263,-5.337
0.168,0.042,0.266,-5.337
0.148,0.041,0.259,-5.337
0.128,0.044,0.259,-5.337
0.163,0.045,0.262,-5.337
0.244,0.040,0.263,-5.337
0.219,0.044,0.261,-5.337
0.051,0.044,0.260,-5.337
0.070,0.041,0.263,-5.337
0.245,0.037,0.263,-5.337
0.307,0.037,0.262,-5.337
0.248,0.040,0.263,-5.337
0.214,0.038,0.262,-5.337
0.147,0.038,0.261,-5.337
0.105,0.038,0.258,-5.337
0.186,0.038,0.258,-5.337
0.264,0.036,0.262,-5.337
0.218,0.042,0.261,-5.337
0.140,0.047,0.260,-5.337
0.172,0.048,0.256,-5.337
0.144,0.048,0.258,-5.337
0.127,0.049,0.259,-5.337
0.140,0.052,0.261,-5.337
0.144,0.052,0.261,-5.337
0.118,0.052,0.259,-5.337
0.089,0.048,0.257,-5.337
0.085,0.048,0.257,-5.337
0.236,0.045,0.258,-5.337
0.249,0.045,0.260,-5.337
0.103,0.043,0.261,-5.337
0.058,0.045,0.262,-5.337
0.132,0.045,0.261,-5.337
0.207,0.046,0.263,-5.337
0.246,0.043,0.262,-5.337
0.269,0.042,0.263,-5.337
0.251,0.045,0.264,-5.337
0.215,0.048,0.262,-5.337
0.196,0.049,0.260,-5.337
0.147,0.049,0.262,-5.337
0.057,0.054,0.265,-5.337
0.063,0.054,0.259,-5.337
0.131,0.054,0.255,-5.337
0.174,0.052,0.255,-5.337
0.141,0.053,0.256,-5.337
0.165,0.052,0.256,-5.337
0.235,0.050,0.263,-5.337
0.217,0.047,0.271,-5.337
0.211,0.049,0.273,-5.337
0.233,0.048,0.270,-5.337
0.261,0.048,0.265,-5.337
0.302,0.046,0.257,-5.337
0.221,0.050,0.249,-5.337
0.161,0.052,0.253,-5.337
0.182,0.053,0.260,-5.337
0.179,0.052,0.265,-5.337
0.134,0.053,0.265,-5.337
0.117,0.051,0.263,-5.337
0.117,0.053,0.260,-5.337
0.120,0.056,0.260,-5.337
0.110,0.055,0.258,-5.337
0.130,0.057,0.257,-5.337
0.196,0.051,0.256,-5.337
0.236,0.052,0.259,-5.337
0.198,0.054,0.263,-5.337
0.199,0.056,0.265,-5.337
0.237,0.053,0.263,-5.337
0.256,0.052,0.261,-5.337
0.223,0.054,0.259,-5.337
0.224,0.053,0.260,-5.337
0.200,0.050,0.262,-5.337
0.212,0.052,0.263,-5.337
0.204,0.053,0.260,-5.337
0.187,0.053,0.258,-5.337
0.176,0.055,0.261,-5.337
0.167,0.053,0.262,-5.337
0.253,0.050,0.258,-5.337
0.265,0.053,0.258,-5.337
0.191,0.057,0.259,-5.337
0.181,0.056,0.260,-5.337
0.135,0.057,0.264,-5.337
0.123,0.057,0.265,-5.337
0.199,0.054,0.264,-5.337
0.249,0.052,0.259,-5.337
0.288,0.052,0.258,-5.337
0.231,0.056,0.259,-5.337
0.181,0.056,0.261,-5.337
0.150,0.054,0.258,-5.337
0.167,0.058,0.258,-5.337
0.121,0.061,0.259,-5.337
0.085,0.063,0.262,-5.337
0.148,0.059,0.260,-5.337
0.209,0.059,0.258,-5.337
0.257,0.051,0.257,-5.337
0.249,0.054,0.259,-5.337
0.154,0.056,0.263,-5.337
0.096,0.059,0.267,-5.337
0.164,0.056,0.267,-5.337
0.221,0.053,0.264,-5.337
0.240,0.052,0.263,-5.337
0.263,0.053,0.263,-5.337
0.204,0.057,0.257,-5.337
0.149,0.060,0.252,-5.337
0.131,0.059,0.256,-5.337
0.149,0.062,0.259,-5.337
0.155,0.062,0.264,-5.337
0.165,0.060,0.265,-5.337
0.163,0.058,0.263,-5.337
0.152,0.060,0.260,-5.337
0.205,0.057,0.263,-5.337
0.244,0.060,0.262,-5.337
0.203,0.062,0.261,-5.337
0.174,0.061,0.259,-5.337
0.231,0.058,0.260,-5.337
0.249,0.056,0.261,-5.337
0.271,0.056,0.261,-5.337
0.244,0.056,0.262,-5.337
0.286,0.053,0.265,-5.337
0.313,0.052,0.264,-5.337
0.295,0.053,0.261,-5.337
0.266,0.049,0.256,-5.337
0.216,0.050,0.256,-5.337
0.134,0.057,0.262,-5.337
0.150,0.058,0.265,-5.337
0.265,0.053,0.263,-5.337
0.227,0.055,0.263,-5.337
0.145,0.058,0.263,-5.337
0.145,0.061,0.262,-5.337
0.223,0.059,0.264,-5.337
0.232,0.060,0.264,-5.337
0.204,0.061,0.264,-5.337
0.165,0.064,0.264,-5.337
0.167,0.062,0.260,-5.337
0.172,0.060,0.257,-5.337
0.127,0.061,0.258,-5.337
0.193,0.058,0.257,-5.337
0.234,0.059,0.261,-5.337
0.195,0.061,0.263,-5.337
0.163,0.059,0.262,-5.337
0.178,0.058,0.262,-5.337
0.211,0.058,0.263,-5.337
0.251,0.058,0.258,-5.337
0.250,0.061,0.255,-5.337
0.200,0.059,0.257,-5.337
0.225,0.057,0.264,-5.337
0.201,0.063,0.268,-5.337
0.225,0.064,0.266,-5.337
0.217,0.063,0.261,-5.337
0.165,0.065,0.260,-5.337
0.167,0.066,0.261,-5.337
0.213,0.063,0.263,-5.337
0.241,0.061,0.265,-5.337
0.236,0.059,0.261,-5.337
0.269,0.059,0.261,-5.337
0.265,0.059,0.262,-5.337
0.256,0.060,0.260,-5.337
0.260,0.060,0.262,-5.337
0.231,0.064,0.265,-5.337
0.117,0.064,0.264,-5.337
0.177,0.059,0.260,-5.337
0.286,0.056,0.258,-5.337
0.215,0.061,0.262,-5.337
0.140,0.061,0.264,-5.337
0.195,0.057,0.263,-5.337
0.214,0.060,0.262,-5.337
0.184,0.061,0.258,-5.337
0.202,0.058,0.261,-5.337
0.232,0.057,0.264,-5.337
0.217,0.057,0.265,-5.337
0.194,0.060,0.262,-5.337
0.158,0.061,0.263,-5.337
0.201,0.060,0.261,-5.337
0.223,0.059,0.261,-5.337
0.192,0.059,0.259,-5.337
0.191,0.058,0.261,-5.337
0.257,0.059,0.264,-5.337
0.211,0.063,0.267,-5.337
0.174,0.067,0.264,-5.337
0.144,0.065,0.258,-5.337
0.178,0.060,0.259,-5.337
0.240,0.061,0.262,-5.337
0.213,0.062,0.260,-5.337
0.210,0.061,0.260,-5.337
0.197,0.065,0.264,-5.337
0.217,0.062,0.268,-5.337
0.257,0.061,0.267,-5.337
0.300,0.059,0.265,-5.337
0.277,0.065,0.265,-5.337
0.235,0.066,0.264,-5.337
0.223,0.064,0.263,-5.337
0.232,0.063,0.262,-5.337
0.216,0.062,0.262,-5.337
0.208,0.065,0.260,-5.337
0.178,0.063,0.259,-5.337
0.196,0.062,0.261,-5.337
0.190,0.058,0.261,-5.337
0.275,0.054,0.256,-5.337
0.333,0.058,0.254,-5.337
0.297,0.058,0.253,-5.337
0.220,0.061,0.259,-5.337
0.191,0.063,0.264,-5.337
0.235,0.060,0.268,-5.337
0.231,0.064,0.266,-5.337
0.200,0.066,0.259,-5.337
0.261,0.065,0.256,-5.337
0.260,0.064,0.259,-5.337
0.203,0.061,0.263,-5.337
0.222,0.062,0.266,-5.337
0.288,0.062,0.265,-5.337
0.255,0.063,0.259,-5.337
0.180,0.065,0.257,-5.337
0.218,0.063,0.258,-5.337
0.215,0.063,0.262,-5.337
0.224,0.060,0.262,-5.337
0.208,0.060,0.261,-5.337
0.227,0.063,0.266,-5.337
0.192,0.063,0.267,-5.337
0.172,0.065,0.263,-5.337
0.193,0.065,0.263,-5.337
0.159,0.063,0.266,-5.337
0.073,0.067,0.266,-5.337
0.071,0.066,0.262,-5.337
0.187,0.060,0.259,-5.337
0.257,0.058,0.259,-5.337
0.248,0.059,0.260,-5.337
0.237,0.059,0.259,-5.337
0.194,0.062,0.262,-5.337
0.196,0.062,0.264,-5.337
0.209,0.064,0.266,-5.337
0.140,0.065,0.267,-5.337
0.132,0.063,0.265,-5.337
0.256,0.059,0.263,-5.337
0.360,0.060,0.262,-5.337
0.294,0.063,0.262,-5.337
0.201,0.061,0.261,-5.337
0.216,0.057,0.261,-5.337
0.278,0.057,0.262,-5.337
0.298,0.058,0.260,-5.337
0.264,0.058,0.256,-5.337
0.218,0.059,0.259,-5.337
0.178,0.058,0.259,-5.337
0.157,0.057,0.259,-5.337
0.161,0.056,0.263,-5.337
0.187,0.056,0.266,-5.337
0.182,0.053,0.268,-5.337
0.290,0.051,0.272,-5.337
0.312,0.052,0.269,-5.337
0.242,0.057,0.264,-5.337
0.221,0.055,0.258,-5.337
0.250,0.057,0.255,-5.337
0.229,0.057,0.253,-5.337
0.208,0.055,0.256,-5.337
0.300,0.051,0.259,-5.337
0.351,0.051,0.258,-5.337
0.276,0.053,0.257,-5.337
0.256,0.050,0.260,-5.337
0.210,0.053,0.263,-5.337
0.189,0.057,0.263,-5.337
0.212,0.055,0.263,-5.337
0.165,0.055,0.262,-5.337
0.209,0.054,0.260,-5.337
0.218,0.055,0.259,-5.337
0.166,0.057,0.263,-5.337
0.186,0.056,0.262,-5.337
0.189,0.057,0.261,-5.337
0.194,0.054,0.260,-5.337
0.183,0.055,0.261,-5.337
0.113,0.056,0.266,-5.337
0.121,0.050,0.270,-5.337
0.224,0.046,0.267,-5.337
0.207,0.050,0.263,-5.337
0.174,0.049,0.262,-5.337
0.222,0.047,0.260,-5.337
0.291,0.050,0.257,-5.337
0.296,0.048,0.255,-5.337
0.261,0.050,0.256,-5.337
0.255,0.051,0.259,-5.337
0.250,0.051,0.262,-5.337
0.245,0.050,0.263,-5.337
0.239,0.050,0.261,-5.337
0.232,0.049,0.258,-5.337
0.188,0.048,0.262,-5.337
0.175,0.047,0.263,-5.337
0.163,0.053,0.265,-5.337
0.185,0.051,0.261,-5.337
0.168,0.053,0.257,-5.337
0.182,0.051,0.254,-5.337
0.183,0.050,0.256,-5.337
0.140,0.052,0.257,-5.337
0.049,0.057,0.260,-5.337
0.115,0.056,0.262,-5.337
0.224,0.050,0.264,-5.337
0.255,0.046,0.263,-5.337
0.232,0.046,0.263,-5.337
0.259,0.045,0.264,-5.337
0.264,0.045,0.264,-5.337
0.218,0.046,0.265,-5.337
0.184,0.045,0.261,-5.337
0.255,0.044,0.254,-5.337
0.254,0.046,0.255,-5.337
0.214,0.048,0.260,-5.337
0.157,0.048,0.262,-5.337
0.142,0.048,0.265,-5.337
0.185,0.047,0.262,-5.337
0.241,0.045,0.261,-5.337
0.256,0.041,0.261,-5.337
0.240,0.041,0.262,-5.337
0.235,0.040,0.262,-5.337
0.200,0.046,0.264,-5.337
0.181,0.047,0.262,-5.337
0.223,0.044,0.261,-5.337
0.208,0.041,0.259,-5.337
0.224,0.040,0.260,-5.337
0.237,0.041,0.261,-5.337
0.228,0.042,0.262,-5.337
0.155,0.044,0.256,-5.337
0.121,0.042,0.256,-5.337
0.181,0.041,0.258,-5.337
0.155,0.039,0.260,-5.337
0.145,0.038,0.259,-5.337
0.136,0.041,0.259,-5.337
0.150,0.040,0.261,-5.337
0.157,0.039,0.264,-5.337
0.139,0.038,0.267,-5.337
0.168,0.035,0.263,-5.337
0.185,0.034,0.258,-5.337
0.161,0.038,0.256,-5.337
0.172,0.038,0.259,-5.337
0.194,0.038,0.261,-5.337
0.165,0.042,0.263,-5.337
0.160,0.041,0.262,-5.337
0.187,0.041,0.263,-5.337
0.179,0.040,0.267,-5.337
0.199,0.043,0.266,-5.337
0.237,0.042,0.261,-5.337
0.297,0.039,0.255,-5.337
0.291,0.036,0.251,-5.337
0.302,0.035,0.251,-5.337
0.218,0.037,0.260,-5.337
0.173,0.040,0.267,-5.337
0.194,0.036,0.265,-5.337
0.154,0.037,0.261,-5.337
0.069,0.039,0.259,-5.337
0.120,0.034,0.259,-5.337
0.169,0.036,0.260,-5.337
0.163,0.038,0.261,-5.337
0.230,0.036,0.260,-5.337
0.263,0.034,0.257,-5.337
0.217,0.038,0.258,-5.337
0.162,0.042,0.261,-5.337
0.230,0.040,0.263,-5.337
0.312,0.039,0.262,-5.337
0.228,0.042,0.261,-5.337
0.159,0.037,0.263,-5.337
0.188,0.037,0.267,-5.337
0.195,0.037,0.266,-5.337
0.127,0.040,0.262,-5.337
0.102,0.042,0.258,-5.337
0.173,0.037,0.263,-5.337
0.171,0.037,0.267,-5.337
0.141,0.039,0.268,-5.337
0.134,0.036,0.264,-5.337
0.133,0.037,0.257,-5.337
0.054,0.042,0.254,-5.337
0.079,0.042,0.254,-5.337
0.093,0.044,0.257,-5.337
0.156,0.040,0.256,-5.337
0.217,0.035,0.255,-5.337
0.242,0.033,0.259,-5.337
0.261,0.034,0.264,-5.337
0.257,0.031,0.262,-5.337
0.213,0.034,0.258,-5.337
0.135,0.037,0.257,-5.337
0.113,0.039,0.261,-5.337
0.165,0.032,0.265,-5.337
0.211,0.033,0.264,-5.337
0.243,0.032,0.260,-5.337
0.254,0.031,0.260,-5.337
0.136,0.032,0.261,-5.337
0.106,0.035,0.261,-5.337
0.135,0.035,0.259,-5.337
0.145,0.036,0.260,-5.337
0.166,0.033,0.263,-5.337
0.150,0.036,0.262,-5.337
0.136,0.037,0.261,-5.337
0.191,0.037,0.262,-5.337
0.216,0.035,0.260,-5.337
0.213,0.034,0.259,-5.337
0.166,0.036,0.263,-5.337
0.171,0.032,0.262,-5.337
0.200,0.030,0.258,-5.337
0.188,0.027,0.259,-5.337
0.221,0.028,0.261,-5.337
0.166,0.034,0.264,-5.337
0.102,0.036,0.263,-5.337
0.123,0.034,0.261,-5.337
0.115,0.035,0.260,-5.337
0.130,0.036,0.262,-5.337
0.138,0.039,0.261,-5.337
0.109,0.037,0.261,-5.337
0.175,0.035,0.261,-5.337
0.283,0.031,0.260,-5.337
0.317,0.032,0.261,-5.337
0.221,0.031,0.263,-5.337
0.196,0.031,0.261,-5.337
0.182,0.031,0.260,-5.337
0.158,0.033,0.261,-5.337
0.082,0.036,0.262,-5.337
0.147,0.031,0.261,-5.337
0.242,0.028,0.262,-5.337
0.256,0.028,0.262,-5.337
0.209,0.034,0.260,-5.337
0.194,0.033,0.259,-5.337
0.189,0.034,0.260,-5.337
0.116,0.036,0.260,-5.337
0.091,0.036,0.261,-5.337
0.130,0.035,0.260,-5.337
0.172,0.033,0.261,-5.337
0.156,0.035,0.262,-5.337
0.100,0.038,0.260,-5.337
0.144,0.034,0.262,-5.337
0.189,0.032,0.264,-5.337
0.172,0.031,0.263,-5.337
0.178,0.036,0.261,-5.337
0.093,0.038,0.261,-5.337
0.008,0.037,0.262,-5.337
0.075,0.036,0.260,-5.337
0.161,0.037,0.262,-5.337
0.170,0.040,0.265,-5.337
0.151,0.039,0.265,-5.337
0.142,0.039,0.260,-5.337
0.198,0.038,0.260,-5.337
0.262,0.038,0.263,-5.337
0.229,0.039,0.265,-5.337
0.202,0.039,0.268,-5.337
0.228,0.040,0.267,-5.337
0.224,0.036,0.265,-5.337
0.180,0.037,0.264,-5.337
0.207,0.036,0.263,-5.337
0.181,0.037,0.262,-5.337
0.167,0.037,0.265,-5.337
0.159,0.039,0.265,-5.337
0.135,0.038,0.265,-5.337
0.084,0.035,0.263,-5.337
0.054,0.035,0.259,-5.337
0.102,0.036,0.261,-5.337
0.183,0.036,0.265,-5.337
0.182,0.037,0.264,-5.337
0.106,0.036,0.264,-5.337
0.105,0.035,0.263,-5.337
0.185,0.032,0.263,-5.337
0.178,0.033,0.262,-5.337
0.169,0.034,0.262,-5.337
0.146,0.033,0.263,-5.337
0.147,0.033,0.260,-5.337
0.154,0.034,0.261,-5.337
0.210,0.031,0.262,-5.337
0.226,0.031,0.262,-5.337
0.213,0.030,0.260,-5.337
0.241,0.030,0.262,-5.337
0.255,0.032,0.258,-5.337
0.212,0.035,0.255,-5.337
0.229,0.032,0.258,-5.337
0.250,0.032,0.264,-5.337
0.199,0.036,0.265,-5.337
0.193,0.039,0.260,-5.337
0.218,0.039,0.257,-5.337
0.147,0.037,0.260,-5.337
0.164,0.032,0.263,-5.337
0.169,0.030,0.268,-5.337
0.174,0.033,0.267,-5.337
0.238,0.035,0.263,-5.337
0.278,0.034,0.261,-5.337
0.234,0.033,0.262,-5.337
0.152,0.034,0.263,-5.337
0.114,0.037,0.264,-5.337
0.130,0.039,0.263,-5.337
0.072,0.042,0.256,-5.337
0.073,0.041,0.256,-5.337
0.133,0.038,0.258,-5.337
0.150,0.040,0.260,-5.337
0.139,0.038,0.258,-5.337
0.188,0.036,0.261,-5.337
0.177,0.033,0.262,-5.337
0.134,0.037,0.258,-5.337
0.155,0.036,0.256,-5.337
0.158,0.035,0.260,-5.337
0.145,0.035,0.266,-5.337
0.084,0.038,0.268,-5.337
0.064,0.039,0.268,-5.337
0.102,0.039,0.263,-5.337
0.167,0.039,0.259,-5.337
0.150,0.038,0.262,-5.337
0.196,0.037,0.262,-5.337
0.248,0.037,0.262,-5.337
0.227,0.039,0.259,-5.337
0.190,0.042,0.258,-5.337
0.227,0.040,0.261,-5.337
0.195,0.043,0.256,-5.337
0.171,0.043,0.256,-5.337
0.163,0.041,0.260,-5.337
0.119,0.041,0.264,-5.337
0.065,0.041,0.264,-5.337
0.049,0.043,0.265,-5.337
0.160,0.038,0.263,-5.337
0.257,0.036,0.265,-5.337
0.237,0.035,0.268,-5.337
0.170,0.037,0.268,-5.337
0.201,0.038,0.266,-5.337
0.213,0.040,0.262,-5.337
0.205,0.041,0.258,-5.337
0.209,0.044,0.260,-5.337
0.207,0.042,0.264,-5.337
0.135,0.044,0.262,-5.337
0.147,0.044,0.259,-5.337
0.252,0.041,0.258,-5.337
0.311,0.038,0.258,-5.337
0.306,0.041,0.257,-5.337
0.273,0.041,0.257,-5.337
0.236,0.040,0.258,-5.337
0.138,0.045,0.261,-5.337
0.071,0.043,0.261,-5.337
0.158,0.043,0.259,-5.337
0.173,0.044,0.257,-5.337
0.141,0.045,0.262,-5.337
0.189,0.042,0.269,-5.337
0.195,0.044,0.270,-5.337
0.150,0.042,0.263,-5.337
0.194,0.042,0.257,-5.337
0.229,0.042,0.258,-5.337
0.160,0.047,0.265,-5.337
0.149,0.047,0.265,-5.337
0.173,0.046,0.262,-5.337
0.202,0.041,0.260,-5.337
0.186,0.043,0.259,-5.337
0.131,0.043,0.260,-5.337
0.128,0.046,0.260,-5.337
0.120,0.045,0.262,-5.337
0.156,0.045,0.266,-5.337
0.141,0.046,0.267,-5.337
0.102,0.049,0.262,-5.337
0.126,0.049,0.259,-5.337
0.147,0.047,0.255,-5.337
0.200,0.044,0.254,-5.337
0.206,0.049,0.258,-5.337
0.126,0.054,0.258,-5.337
0.129,0.048,0.256,-5.337
0.159,0.046,0.257,-5.337
0.172,0.047,0.260,-5.337
0.217,0.047,0.262,-5.337
0.259,0.048,0.262,-5.337
0.279,0.045,0.262,-5.337
0.215,0.046,0.263,-5.337
0.164,0.049,0.262,-5.337
0.210,0.043,0.259,-5.337
0.187,0.044,0.257,-5.337
0.136,0.049,0.260,-5.337
0.088,0.051,0.260,-5.337
0.017,0.052,0.262,-5.337
0.049,0.054,0.263,-5.337
0.214,0.049,0.261,-5.337
0.267,0.051,0.260,-5.337
0.145,0.052,0.262,-5.337
0.089,0.053,0.261,-5.337
0.177,0.051,0.261,-5.337
0.247,0.050,0.258,-5.337
0.242,0.049,0.257,-5.337
0.215,0.049,0.257,-5.337
0.178,0.051,0.259,-5.337
0.197,0.050,0.259,-5.337
0.193,0.051,0.256,-5.337
0.205,0.047,0.258,-5.337
0.201,0.048,0.263,-5.337
0.180,0.048,0.263,-5.337
0.129,0.050,0.261,-5.337
0.151,0.050,0.260,-5.337
0.125,0.049,0.261,-5.337
0.145,0.050,0.258,-5.337
0.178,0.053,0.257,-5.337
0.125,0.053,0.258,-5.337
0.110,0.049,0.260,-5.337
0.159,0.043,0.260,-5.337
0.166,0.048,0.259,-5.337
0.234,0.048,0.261,-5.337
0.299,0.050,0.260,-5.337
0.275,0.051,0.257,-5.337
0.252,0.054,0.256,-5.337
0.242,0.054,0.259,-5.337
0.167,0.055,0.260,-5.337
0.208,0.059,0.263,-5.337
0.270,0.058,0.258,-5.337
0.221,0.055,0.256,-5.337
0.213,0.050,0.258,-5.337
0.292,0.053,0.262,-5.337
0.317,0.053,0.261,-5.337
0.223,0.057,0.258,-5.337
0.175,0.054,0.261,-5.337
0.174,0.054,0.263,-5.337
0.233,0.055,0.263,-5.337
0.246,0.054,0.260,-5.337
0.181,0.056,0.258,-5.337
0.123,0.054,0.258,-5.337
0.122,0.054,0.259,-5.337
0.145,0.056,0.260,-5.337
0.137,0.058,0.258,-5.337
0.133,0.059,0.256,-5.337
0.130,0.060,0.258,-5.337
0.205,0.054,0.259,-5.337
0.250,0.053,0.261,-5.337
0.176,0.054,0.263,-5.337
0.193,0.052,0.261,-5.337
0.235,0.054,0.258,-5.337
0.255,0.053,0.260,-5.337
0.240,0.058,0.262,-5.337
0.194,0.059,0.261,-5.337
0.247,0.055,0.259,-5.337
0.240,0.051,0.260,-5.337
0.201,0.050,0.260,-5.337
0.159,0.053,0.263,-5.337
0.144,0.055,0.264,-5.337
0.201,0.053,0.263,-5.337
0.209,0.055,0.259,-5.337
0.165,0.056,0.255,-5.337
0.137,0.057,0.256,-5.337
0.141,0.055,0.260,-5.337
0.162,0.054,0.267,-5.337
0.210,0.054,0.270,-5.337
0.217,0.057,0.267,-5.337
0.208,0.056,0.262,-5.337
0.253,0.055,0.259,-5.337
0.230,0.058,0.257,-5.337
0.217,0.061,0.258,-5.337
0.195,0.059,0.259,-5.337
0.223,0.062,0.260,-5.337
0.212,0.061,0.261,-5.337
0.213,0.059,0.261,-5.337
0.274,0.057,0.261,-5.337
0.307,0.059,0.259,-5.337
0.274,0.055,0.259,-5.337
0.282,0.056,0.260,-5.337
0.259,0.060,0.258,-5.337
0.177,0.065,0.258,-5.337
0.132,0.064,0.257,-5.337
0.183,0.062,0.259,-5.337
0.282,0.061,0.263,-5.337
0.250,0.061,0.265,-5.337
0.190,0.060,0.265,-5.337
0.176,0.061,0.257,-5.337
0.214,0.057,0.255,-5.337
0.247,0.058,0.258,-5.337
0.259,0.059,0.261,-5.337
0.228,0.058,0.258,-5.337
0.230,0.057,0.258,-5.337
0.210,0.058,0.257,-5.337
0.181,0.060,0.258,-5.337
0.130,0.062,0.260,-5.337
0.134,0.065,0.264,-5.337
0.144,0.062,0.263,-5.337
0.122,0.063,0.259,-5.337
0.165,0.059,0.257,-5.337
0.229,0.061,0.260,-5.337
0.246,0.062,0.264,-5.337
0.232,0.059,0.265,-5.337
0.262,0.060,0.265,-5.337
0.234,0.059,0.261,-5.337
0.200,0.056,0.258,-5.337
0.247,0.056,0.256,-5.337
0.270,0.060,0.257,-5.337
0.248,0.064,0.257,-5.337
0.275,0.064,0.259,-5.337
0.217,0.065,0.261,-5.337
0.165,0.064,0.263,-5.337
0.217,0.063,0.260,-5.337
0.214,0.063,0.260,-5.337
0.228,0.069,0.257,-5.337
0.315,0.068,0.258,-5.337
0.349,0.063,0.259,-5.337
0.315,0.061,0.262,-5.337
0.267,0.059,0.266,-5.337
0.271,0.057,0.267,-5.337
0.238,0.061,0.263,-5.337
0.183,0.063,0.260,-5.337
0.230,0.066,0.259,-5.337
0.274,0.064,0.261,-5.337
0.163,0.066,0.263,-5.337
0.102,0.067,0.262,-5.337
0.152,0.067,0.259,-5.337
0.227,0.064,0.264,-5.337
0.223,0.067,0.267,-5.337
0.169,0.067,0.264,-5.337
0.141,0.066,0.265,-5.337
0.113,0.067,0.263,-5.337
0.117,0.068,0.261,-5.337
0.095,0.067,0.257,-5.337
0.129,0.065,0.257,-5.337
0.156,0.064,0.257,-5.337
0.205,0.064,0.262,-5.337
0.262,0.062,0.262,-5.337
0.314,0.061,0.263,-5.337
0.291,0.062,0.262,-5.337
0.267,0.068,0.259,-5.337
0.231,0.067,0.260,-5.337
0.234,0.064,0.261,-5.337
0.217,0.064,0.264,-5.337
0.217,0.062,0.265,-5.337
0.222,0.060,0.262,-5.337
0.284,0.058,0.261,-5.337
0.312,0.062,0.260,-5.337
0.305,0.066,0.260,-5.337
0.212,0.066,0.264,-5.337
0.183,0.068,0.266,-5.337
0.221,0.069,0.264,-5.337
0.277,0.064,0.263,-5.337
0.279,0.061,0.265,-5.337
0.276,0.061,0.263,-5.337
0.237,0.064,0.262,-5.337
0.223,0.065,0.261,-5.337
0.200,0.065,0.264,-5.337
0.165,0.066,0.265,-5.337
0.142,0.068,0.265,-5.337
0.217,0.066,0.263,-5.337
0.264,0.068,0.261,-5.337
0.234,0.066,0.261,-5.337
0.241,0.062,0.264,-5.337
0.260,0.060,0.262,-5.337
0.276,0.057,0.260,-5.337
0.310,0.058,0.256,-5.337
0.215,0.063,0.256,-5.337
0.162,0.060,0.259,-5.337
0.167,0.060,0.263,-5.337
0.155,0.061,0.264,-5.337
0.181,0.062,0.261,-5.337
0.259,0.062,0.258,-5.337
0.312,0.058,0.258,-5.337
0.279,0.060,0.262,-5.337
0.227,0.060,0.263,-5.337
0.251,0.059,0.263,-5.337
0.270,0.061,0.265,-5.337
0.157,0.063,0.267,-5.337
0.129,0.062,0.265,-5.337
0.192,0.060,0.260,-5.337
0.234,0.055,0.255,-5.337
0.270,0.056,0.256,-5.337
0.258,0.058,0.261,-5.337
0.160,0.057,0.262,-5.337
0.176,0.054,0.258,-5.337
0.188,0.053,0.259,-5.337
0.181,0.055,0.261,-5.337
0.199,0.058,0.262,-5.337
0.233,0.057,0.261,-5.337
0.236,0.058,0.260,-5.337
0.207,0.054,0.258,-5.337
0.155,0.055,0.258,-5.337
0.109,0.060,0.262,-5.337
0.157,0.059,0.263,-5.337
0.208,0.054,0.265,-5.337
0.281,0.049,0.265,-5.337
0.266,0.051,0.263,-5.337
0.243,0.053,0.258,-5.337
0.274,0.051,0.259,-5.337
0.317,0.047,0.264,-5.337
0.304,0.046,0.267,-5.337
0.218,0.049,0.264,-5.337
0.177,0.051,0.261,-5.337
0.215,0.049,0.260,-5.337
0.237,0.049,0.262,-5.337
0.281,0.048,0.263,-5.337
0.232,0.050,0.263,-5.337
0.174,0.052,0.263,-5.337
0.230,0.050,0.265,-5.337
0.329,0.046,0.266,-5.337
0.304,0.051,0.266,-5.337
0.223,0.055,0.262,-5.337
0.216,0.056,0.256,-5.337
0.214,0.052,0.256,-5.337
0.242,0.050,0.265,-5.337
0.201,0.051,0.267,-5.337
0.179,0.049,0.262,-5.337
0.140,0.050,0.262,-5.337
0.158,0.050,0.264,-5.337
0.198,0.050,0.267,-5.337
0.185,0.051,0.264,-5.337
0.118,0.051,0.260,-5.337
0.139,0.049,0.258,-5.337
0.234,0.049,0.261,-5.337
0.286,0.049,0.260,-5.337
0.260,0.054,0.265,-5.337
0.221,0.051,0.262,-5.337
0.239,0.047,0.261,-5.337
0.246,0.046,0.265,-5.337
0.210,0.050,0.266,-5.337
0.169,0.049,0.264,-5.337
0.165,0.052,0.262,-5.337
0.162,0.053,0.260,-5.337
0.148,0.050,0.261,-5.337
0.148,0.047,0.262,-5.337
0.193,0.047,0.261,-5.337
0.187,0.049,0.261,-5.337
0.182,0.050,0.261,-5.337
0.244,0.046,0.261,-5.337
0.296,0.043,0.261,-5.337
0.257,0.046,0.265,-5.337
0.176,0.049,0.262,-5.337
0.133,0.050,0.258,-5.337
0.175,0.048,0.256,-5.337
0.217,0.049,0.261,-5.337
0.185,0.049,0.265,-5.337
0.132,0.047,0.262,-5.337
0.121,0.043,0.261,-5.337
0.131,0.045,0.259,-5.337
0.150,0.046,0.260,-5.337
0.156,0.048,0.263,-5.337
0.223,0.045,0.260,-5.337
0.234,0.048,0.255,-5.337
0.218,0.044,0.254,-5.337
0.231,0.043,0.259,-5.337
0.240,0.042,0.261,-5.337
0.230,0.042,0.262,-5.337
0.226,0.043,0.263,-5.337
0.222,0.047,0.262,-5.337
0.227,0.047,0.261,-5.337
0.229,0.043,0.261,-5.337
0.268,0.042,0.260,-5.337
0.197,0.046,0.257,-5.337
0.144,0.046,0.254,-5.337
0.159,0.047,0.255,-5.337
0.192,0.046,0.261,-5.337
0.215,0.042,0.262,-5.337
0.189,0.042,0.264,-5.337
0.210,0.042,0.265,-5.337
0.230,0.047,0.265,-5.337
0.192,0.045,0.264,-5.337
0.092,0.047,0.263,-5.337
0.044,0.051,0.259,-5.337
0.117,0.046,0.258,-5.337
0.141,0.045,0.260,-5.337
0.142,0.043,0.265,-5.337
0.162,0.042,0.265,-5.337
0.130,0.047,0.259,-5.337
0.150,0.042,0.255,-5.337
0.167,0.042,0.256,-5.337
0.146,0.045,0.257,-5.337
0.121,0.048,0.257,-5.337
0.139,0.047,0.260,-5.337
0.152,0.046,0.258,-5.337
0.176,0.045,0.259,-5.337
0.162,0.047,0.262,-5.337
0.175,0.043,0.264,-5.337
0.192,0.039,0.265,-5.337
0.246,0.040,0.263,-5.337
0.271,0.039,0.259,-5.337
0.257,0.041,0.260,-5.337
0.251,0.042,0.263,-5.337
0.223,0.047,0.261,-5.337
0.232,0.045,0.257,-5.337
0.243,0.043,0.256,-5.337
0.277,0.037,0.259,-5.337
0.235,0.040,0.257,-5.337
0.217,0.043,0.256,-5.337
0.133,0.044,0.259,-5.337
0.135,0.041,0.261,-5.337
0.181,0.041,0.262,-5.337
0.163,0.038,0.262,-5.337
0.201,0.038,0.264,-5.337
0.199,0.037,0.263,-5.337
0.196,0.039,0.262,-5.337
0.150,0.039,0.263,-5.337
0.231,0.040,0.260,-5.337
0.292,0.039,0.257,-5.337
0.232,0.043,0.257,-5.337
0.143,0.046,0.259,-5.337
0.105,0.043,0.259,-5.337
0.155,0.042,0.256,-5.337
0.169,0.044,0.252,-5.337
0.191,0.043,0.254,-5.337
0.164,0.042,0.258,-5.337
0.161,0.042,0.259,-5.337
0.170,0.041,0.262,-5.337
0.101,0.044,0.264,-5.337
0.139,0.042,0.266,-5.337
0.145,0.042,0.268,-5.337
0.112,0.042,0.265,-5.337
0.100,0.040,0.257,-5.337
0.189,0.037,0.255,-5.337
0.272,0.033,0.256,-5.337
0.257,0.035,0.257,-5.337
0.242,0.039,0.259,-5.337
0.159,0.038,0.268,-5.337
0.149,0.036,0.272,-5.337
0.176,0.036,0.268,-5.337
0.175,0.036,0.257,-5.337
0.156,0.038,0.253,-5.337
0.200,0.039,0.256,-5.337
0.245,0.040,0.262,-5.337
0.224,0.039,0.262,-5.337
0.174,0.039,0.258,-5.337
0.193,0.037,0.257,-5.337
0.239,0.042,0.260,-5.337
0.259,0.040,0.263,-5.337
0.221,0.038,0.263,-5.337
0.219,0.038,0.260,-5.337
0.197,0.038,0.261,-5.337
0.166,0.039,0.258,-5.337
0.177,0.038,0.259,-5.337
0.147,0.038,0.261,-5.337
0.169,0.038,0.262,-5.337
0.137,0.039,0.260,-5.337
0.135,0.037,0.258,-5.337
0.101,0.038,0.256,-5.337
0.069,0.038,0.255,-5.337
0.134,0.034,0.259,-5.337
0.185,0.034,0.260,-5.337
0.181,0.035,0.266,-5.337
0.207,0.037,0.264,-5.337
0.193,0.037,0.263,-5.337
0.193,0.036,0.261,-5.337
0.196,0.038,0.259,-5.337
0.208,0.035,0.258,-5.337
0.162,0.037,0.260,-5.337
0.114,0.039,0.258,-5.337
0.103,0.039,0.258,-5.337
0.146,0.037,0.259,-5.337
0.175,0.037,0.260,-5.337
0.145,0.037,0.259,-5.337
0.166,0.035,0.261,-5.337
0.258,0.030,0.265,-5.337
0.204,0.034,0.264,-5.337
0.132,0.039,0.259,-5.337
0.123,0.040,0.256,-5.337
0.168,0.037,0.259,-5.337
0.273,0.037,0.263,-5.337
0.308,0.036,0.265,-5.337
0.266,0.036,0.263,-5.337
0.163,0.034,0.265,-5.337
0.223,0.030,0.264,-5.337
0.193,0.035,0.265,-5.337
0.201,0.036,0.263,-5.337
0.237,0.039,0.258,-5.337
0.194,0.040,0.258,-5.337
0.157,0.036,0.259,-5.337
0.167,0.035,0.260,-5.337
0.197,0.032,0.261,-5.337
0.204,0.034,0.265,-5.337
0.174,0.037,0.266,-5.337
0.130,0.038,0.262,-5.337
0.161,0.036,0.261,-5.337
0.205,0.034,0.259,-5.337
0.176,0.035,0.262,-5.337
0.122,0.038,0.265,-5.337
0.171,0.040,0.262,-5.337
0.214,0.042,0.258,-5.337
0.174,0.043,0.255,-5.337
0.109,0.044,0.258,-5.337
0.081,0.044,0.260,-5.337
0.098,0.044,0.264,-5.337
0.135,0.042,0.265,-5.337
0.245,0.038,0.266,-5.337
0.244,0.036,0.267,-5.337
0.153,0.039,0.265,-5.337
0.123,0.036,0.261,-5.337
0.164,0.039,0.257,-5.337
0.160,0.041,0.255,-5.337
0.144,0.044,0.255,-5.337
0.184,0.040,0.259,-5.337
0.239,0.038,0.259,-5.337
0.164,0.037,0.259,-5.337
0.153,0.034,0.258,-5.337
0.146,0.037,0.263,-5.337
0.100,0.042,0.268,-5.337
0.115,0.042,0.266,-5.337
0.167,0.039,0.262,-5.337
0.244,0.033,0.262,-5.337
0.232,0.035,0.265,-5.337
0.197,0.038,0.268,-5.337
0.177,0.038,0.265,-5.337
0.163,0.036,0.263,-5.337
0.163,0.035,0.263,-5.337
0.147,0.037,0.262,-5.337
0.150,0.038,0.262,-5.337
0.162,0.039,0.263,-5.337
0.171,0.038,0.261,-5.337
0.217,0.034,0.260,-5.337
0.235,0.034,0.260,-5.337
0.217,0.037,0.260,-5.337
0.171,0.040,0.260,-5.337
0.139,0.040,0.258,-5.337
0.136,0.036,0.256,-5.337
0.144,0.038,0.257,-5.337
0.185,0.038,0.266,-5.337
0.268,0.036,0.270,-5.337
0.250,0.038,0.266,-5.337
0.196,0.041,0.261,-5.337
0.142,0.041,0.262,-5.337
0.175,0.039,0.261,-5.337
0.196,0.041,0.259,-5.337
0.145,0.045,0.262,-5.337
0.082,0.048,0.266,-5.337
0.118,0.045,0.263,-5.337
0.175,0.042,0.260,-5.337
0.246,0.041,0.261,-5.337
0.301,0.043,0.264,-5.337
0.249,0.047,0.263,-5.337
0.209,0.049,0.261,-5.337
0.123,0.049,0.260,-5.337
0.086,0.047,0.263,-5.337
0.112,0.045,0.261,-5.337
0.104,0.047,0.257,-5.337
0.147,0.045,0.256,-5.337
0.159,0.045,0.255,-5.337
0.129,0.044,0.255,-5.337
0.148,0.046,0.261,-5.337
0.169,0.046,0.266,-5.337
0.181,0.047,0.265,-5.337
0.088,0.050,0.260,-5.337
0.084,0.049,0.259,-5.337
0.137,0.050,0.259,-5.337
0.125,0.050,0.257,-5.337
0.070,0.046,0.255,-5.337
0.141,0.042,0.255,-5.337
0.219,0.043,0.260,-5.337
0.141,0.051,0.265,-5.337
0.076,0.049,0.267,-5.337
0.161,0.047,0.264,-5.337
0.146,0.048,0.262,-5.337
0.082,0.047,0.260,-5.337
0.175,0.047,0.264,-5.337
0.194,0.046,0.262,-5.337
0.155,0.047,0.259,-5.337
0.154,0.047,0.262,-5.337
0.186,0.049,0.265,-5.337
0.243,0.045,0.261,-5.337
0.245,0.043,0.260,-5.337
0.223,0.044,0.258,-5.337
0.170,0.045,0.259,-5.337
0.201,0.047,0.260,-5.337
0.221,0.046,0.262,-5.337
0.226,0.042,0.262,-5.337
0.170,0.046,0.262,-5.337
0.072,0.048,0.265,-5.337
0.165,0.045,0.265,-5.337
0.262,0.042,0.264,-5.337
0.207,0.042,0.259,-5.337
0.200,0.041,0.263,-5.337
0.168,0.041,0.263,-5.337
0.142,0.042,0.262,-5.337
0.178,0.041,0.259,-5.337
0.158,0.043,0.260,-5.337
0.141,0.045,0.262,-5.337
0.098,0.049,0.263,-5.337
0.095,0.048,0.261,-5.337
0.113,0.046,0.260,-5.337
0.164,0.042,0.262,-5.337
0.183,0.043,0.262,-5.337
0.221,0.045,0.262,-5.337
0.219,0.048,0.262,-5.337
0.174,0.051,0.261,-5.337
0.171,0.054,0.262,-5.337
0.195,0.050,0.261,-5.337
0.195,0.048,0.260,-5.337
0.177,0.048,0.262,-5.337
0.179,0.048,0.259,-5.337
0.188,0.047,0.260,-5.337
0.175,0.045,0.263,-5.337
0.127,0.047,0.265,-5.337
0.217,0.042,0.264,-5.337
0.312,0.042,0.264,-5.337
0.226,0.046,0.263,-5.337
0.100,0.049,0.261,-5.337
0.069,0.048,0.260,-5.337
0.129,0.048,0.263,-5.337
0.227,0.045,0.262,-5.337
0.242,0.048,0.263,-5.337
0.178,0.050,0.264,-5.337
0.107,0.051,0.263,-5.337
0.021,0.050,0.260,-5.337
0.090,0.049,0.262,-5.337
0.226,0.044,0.263,-5.337
0.293,0.042,0.259,-5.337
0.208,0.046,0.255,-5.337
0.192,0.050,0.258,-5.337
0.267,0.049,0.263,-5.337
0.243,0.048,0.263,-5.337
0.240,0.047,0.262,-5.337
0.222,0.049,0.260,-5.337
0.189,0.048,0.261,-5.337
0.154,0.049,0.261,-5.337
0.150,0.050,0.261,-5.337
0.144,0.051,0.258,-5.337
0.169,0.053,0.256,-5.337
0.176,0.055,0.256,-5.337
0.146,0.057,0.260,-5.337
0.189,0.053,0.263,-5.337
0.237,0.052,0.266,-5.337
0.240,0.053,0.265,-5.337
0.178,0.054,0.266,-5.337
0.199,0.051,0.265,-5.337
0.219,0.052,0.260,-5.337
0.156,0.051,0.257,-5.337
0.135,0.051,0.257,-5.337
0.230,0.048,0.257,-5.337
0.254,0.047,0.254,-5.337
0.281,0.046,0.257,-5.337
0.273,0.048,0.259,-5.337
0.195,0.050,0.259,-5.337
0.086,0.054,0.260,-5.337
0.149,0.053,0.261,-5.337
0.240,0.051,0.260,-5.337
0.246,0.052,0.261,-5.337
0.238,0.053,0.262,-5.337
0.240,0.055,0.266,-5.337
0.186,0.053,0.263,-5.337
0.195,0.052,0.257,-5.337
0.275,0.048,0.254,-5.337
0.280,0.050,0.254,-5.337
0.195,0.052,0.253,-5.337
0.191,0.048,0.258,-5.337
0.208,0.046,0.263,-5.337
0.178,0.048,0.266,-5.337
0.187,0.046,0.263,-5.337
0.247,0.048,0.260,-5.337
0.255,0.050,0.259,-5.337
0.170,0.054,0.256,-5.337
0.148,0.052,0.256,-5.337
0.213,0.052,0.262,-5.337
0.267,0.049,0.262,-5.337
0.212,0.054,0.262,-5.337
0.211,0.054,0.265,-5.337
0.284,0.053,0.265,-5.337
0.220,0.053,0.258,-5.337
0.155,0.051,0.256,-5.337
0.207,0.050,0.258,-5.337
0.261,0.051,0.255,-5.337
0.202,0.054,0.253,-5.337
0.115,0.057,0.257,-5.337
0.084,0.059,0.263,-5.337
0.118,0.054,0.263,-5.337
0.140,0.053,0.263,-5.337
0.174,0.054,0.262,-5.337
0.198,0.056,0.261,-5.337
0.232,0.053,0.261,-5.337
0.171,0.057,0.259,-5.337
0.079,0.058,0.256,-5.337
0.157,0.057,0.257,-5.337
0.277,0.053,0.260,-5.337
0.244,0.057,0.262,-5.337
0.180,0.064,0.262,-5.337
0.154,0.063,0.261,-5.337
0.182,0.061,0.263,-5.337
0.241,0.057,0.262,-5.337
0.247,0.057,0.262,-5.337
0.188,0.058,0.257,-5.337
0.186,0.057,0.257,-5.337
0.221,0.053,0.259,-5.337
0.237,0.051,0.261,-5.337
0.277,0.050,0.258,-5.337
0.211,0.058,0.259,-5.337
0.120,0.056,0.262,-5.337
0.067,0.054,0.265,-5.337
0.176,0.051,0.264,-5.337
0.255,0.056,0.262,-5.337
0.234,0.055,0.264,-5.337
0.203,0.058,0.262,-5.337
0.221,0.055,0.257,-5.337
0.185,0.056,0.258,-5.337
0.232,0.053,0.259,-5.337
0.266,0.052,0.259,-5.337
0.217,0.055,0.258,-5.337
0.203,0.056,0.256,-5.337
0.166,0.058,0.261,-5.337
0.240,0.053,0.262,-5.337
0.237,0.055,0.260,-5.337
0.129,0.056,0.257,-5.337
0.172,0.057,0.260,-5.337
0.233,0.057,0.263,-5.337
0.239,0.057,0.266,-5.337
0.234,0.057,0.265,-5.337
0.207,0.057,0.265,-5.337
0.222,0.059,0.261,-5.337
0.180,0.065,0.261,-5.337
0.167,0.060,0.257,-5.337
0.198,0.060,0.256,-5.337
0.201,0.059,0.256,-5.337
0.234,0.057,0.259,-5.337
0.245,0.051,0.259,-5.337
0.247,0.053,0.258,-5.337
0.231,0.055,0.261,-5.337
0.240,0.054,0.261,-5.337
0.225,0.055,0.261,-5.337
0.209,0.058,0.259,-5.337
0.209,0.058,0.258,-5.337
0.242,0.061,0.261,-5.337
0.218,0.059,0.259,-5.337
0.180,0.057,0.256,-5.337
0.181,0.056,0.260,-5.337
0.163,0.058,0.258,-5.337
0.157,0.056,0.257,-5.337
0.194,0.053,0.261,-5.337
0.204,0.056,0.263,-5.337
0.191,0.055,0.264,-5.337
0.234,0.055,0.264,-5.337
0.238,0.056,0.261,-5.337
0.210,0.056,0.258,-5.337
0.172,0.056,0.261,-5.337
0.202,0.055,0.265,-5.337
0.199,0.054,0.263,-5.337
0.190,0.052,0.263,-5.337
0.243,0.052,0.266,-5.337
0.327,0.054,0.265,-5.337
0.298,0.057,0.262,-5.337
0.181,0.057,0.263,-5.337
0.152,0.055,0.264,-5.337
0.219,0.056,0.261,-5.337
0.303,0.057,0.260,-5.337
0.280,0.057,0.258,-5.337
0.242,0.056,0.261,-5.337
0.218,0.055,0.259,-5.337
0.190,0.056,0.260,-5.337
0.275,0.056,0.260,-5.337
0.292,0.056,0.261,-5.337
0.195,0.058,0.261,-5.337
0.122,0.062,0.261,-5.337
0.172,0.058,0.262,-5.337
0.230,0.058,0.267,-5.337
0.243,0.059,0.269,-5.337
0.253,0.058,0.268,-5.337
0.231,0.056,0.263,-5.337
0.233,0.054,0.261,-5.337
0.228,0.054,0.258,-5.337
0.201,0.059,0.261,-5.337
0.174,0.060,0.265,-5.337
0.126,0.057,0.264,-5.337
0.162,0.052,0.259,-5.337
0.203,0.053,0.257,-5.337
0.188,0.055,0.256,-5.337
0.221,0.055,0.258,-5.337
0.259,0.049,0.263,-5.337
0.260,0.048,0.265,-5.337
0.226,0.050,0.266,-5.337
0.187,0.052,0.266,-5.337
0.211,0.051,0.266,-5.337
0.255,0.048,0.262,-5.337
0.266,0.050,0.262,-5.337
0.298,0.051,0.262,-5.337
0.228,0.051,0.261,-5.337
0.186,0.052,0.258,-5.337
0.214,0.053,0.261,-5.337
0.191,0.055,0.264,-5.337
0.131,0.056,0.265,-5.337
0.114,0.054,0.263,-5.337
0.115,0.053,0.260,-5.337
0.177,0.051,0.258,-5.337
0.264,0.051,0.258,-5.337
0.195,0.055,0.263,-5.337
0.137,0.053,0.267,-5.337
0.184,0.051,0.268,-5.337
0.233,0.048,0.265,-5.337
0.238,0.049,0.263,-5.337
0.205,0.053,0.259,-5.337
0.201,0.055,0.263,-5.337
0.280,0.051,0.265,-5.337
0.239,0.051,0.266,-5.337
0.206,0.052,0.261,-5.337
0.195,0.053,0.256,-5.337
0.147,0.053,0.257,-5.337
0.186,0.052,0.261,-5.337
0.298,0.050,0.261,-5.337
0.300,0.051,0.261,-5.337
0.186,0.050,0.259,-5.337
0.132,0.053,0.258,-5.337
0.135,0.052,0.260,-5.337
0.145,0.049,0.264,-5.337
0.220,0.045,0.266,-5.337
0.278,0.045,0.266,-5.337
0.263,0.047,0.266,-5.337
0.267,0.044,0.264,-5.337
0.237,0.043,0.259,-5.337
0.210,0.043,0.256,-5.337
0.212,0.045,0.257,-5.337
0.202,0.048,0.261,-5.337
0.168,0.044,0.267,-5.337
0.156,0.042,0.265,-5.337
0.172,0.041,0.263,-5.337
0.154,0.043,0.260,-5.337
0.133,0.044,0.257,-5.337
0.109,0.046,0.254,-5.337
0.091,0.050,0.259,-5.337
0.061,0.050,0.263,-5.337
0.109,0.046,0.265,-5.337
0.195,0.045,0.267,-5.337
0.191,0.044,0.267,-5.337
0.167,0.042,0.262,-5.337
0.169,0.045,0.259,-5.337
0.177,0.043,0.260,-5.337
0.154,0.043,0.263,-5.337
0.171,0.040,0.266,-5.337
0.231,0.034,0.267,-5.337
0.238,0.035,0.265,-5.337
0.241,0.039,0.261,-5.337
0.301,0.038,0.260,-5.337
0.242,0.039,0.261,-5.337
0.147,0.040,0.263,-5.337
0.139,0.036,0.265,-5.337
0.107,0.034,0.266,-5.337
0.162,0.035,0.264,-5.337
0.205,0.035,0.262,-5.337
0.172,0.037,0.259,-5.337
0.154,0.036,0.258,-5.337
0.235,0.033,0.259,-5.337
0.289,0.034,0.263,-5.337
0.246,0.036,0.262,-5.337
0.184,0.041,0.261,-5.337
0.201,0.040,0.261,-5.337
0.251,0.039,0.260,-5.337
0.233,0.041,0.262,-5.337
0.228,0.043,0.267,-5.337
0.255,0.040,0.266,-5.337
0.162,0.044,0.265,-5.337
0.165,0.042,0.260,-5.337
0.221,0.042,0.255,-5.337
0.219,0.039,0.256,-5.337
0.284,0.035,0.262,-5.337
0.252,0.037,0.263,-5.337
0.166,0.040,0.263,-5.337
0.143,0.041,0.267,-5.337
0.161,0.040,0.267,-5.337
0.178,0.042,0.261,-5.337
0.201,0.041,0.258,-5.337
0.154,0.041,0.260,-5.337
0.114,0.040,0.263,-5.337
0.161,0.042,0.268,-5.337
0.177,0.042,0.270,-5.337
0.186,0.040,0.270,-5.337
0.165,0.042,0.269,-5.337
0.105,0.044,0.265,-5.337
0.074,0.042,0.258,-5.337
0.077,0.042,0.255,-5.337
0.101,0.042,0.253,-5.337
0.201,0.040,0.254,-5.337
0.179,0.043,0.260,-5.337
0.128,0.044,0.266,-5.337
0.118,0.042,0.266,-5.337
0.190,0.039,0.263,-5.337
0.260,0.036,0.258,-5.337
0.308,0.035,0.257,-5.337
0.285,0.038,0.261,-5.337
0.149,0.041,0.263,-5.337
0.082,0.040,0.263,-5.337
