[Parameters]
Operating Mode, Feedback
Subject  AA..ZZ, WT
Session  0..99, 44
No. Trials (1..9999), 500
Mouse Number, 1
Pressure Probe Serial Port, \00\00\00\04COM4
Save additional csv file, TRUE
Save using mouse number, FALSE
A/D Monitor Rate (Hz), 30000.000000
A/D Stimulate Rate (Hz), 30000.000000
A/D input range (+/- V), 5
No. Channels to acquire (N), 2
Pre-Stim Acq. time (ms), 100.000000
Post-Stim Acq. time (ms), 900.000000
Analysis window parameters.M-response Start (ms), 1.100000
Analysis window parameters.M-response Duration (ms), 5.500000
Analysis window parameters.H-response Duration (ms), 6.000000
Analysis window parameters.H-response Start (ms), 6.500000
Feedback window, H response
Proportional gain, 0.100000
Target value, 6.700000
Feedback Ch., 1
Stim Channel to Control (1-4), 4
Trial, 23
Wait for EMG Conditions, FALSE
Channel to monitor (0 - N-1), 1
EMG Hi Limit, 2.000000
EMG Lo Limit, 0.001000
Inter-Stim delay (sec), 10.000000
EMG Monitor Mode, Mean
Time to run Long Stim.(sec), 30
Save Long Stim Data?, OFF
BURST Save time (ms), 1000
BURST Save Interval (x above), 10
Long-Stim. Rep. Rate (Hz), 10.000000
Stim type cluster array.<size(s)>, 4
Stim type cluster array 0.Stimulus Output, Electrical
Stim type cluster array 1.Stimulus Output, OFF
Stim type cluster array 2.Stimulus Output, OFF
Stim type cluster array 3.Stimulus Output, Motor Length
Stim specs cluster array.<size(s)>, 4
Stim specs cluster array 0.Initial Stimulus ampl., 0.300000
Stim specs cluster array 0.Maximum Stimulus, 1.120000
Stim specs cluster array 0.#Pulses in train, 4
Stim specs cluster array 0.Peak Level time (ms), 1.000000
Stim specs cluster array 0.Total pulse period (ms), 150.000000
Stim specs cluster array 0.Start Delay (ms), -50.000000
Stim specs cluster array 0.Pulse Shape, Square
Stim specs cluster array 0.Ramp/Rel. time (ms), 0.100000
Stim specs cluster array 0.Peak Amplitude (V), 0.120000
Stim specs cluster array 1.Initial Stimulus ampl., 0.000000
Stim specs cluster array 1.Maximum Stimulus, 0.000000
Stim specs cluster array 1.#Pulses in train, 3
Stim specs cluster array 1.Peak Level time (ms), 29.000000
Stim specs cluster array 1.Total pulse period (ms), 200.000000
Stim specs cluster array 1.Start Delay (ms), 0.000000
Stim specs cluster array 1.Pulse Shape, Square
Stim specs cluster array 1.Ramp/Rel. time (ms), 0.000000
Stim specs cluster array 1.Peak Amplitude (V), 2.000000
Stim specs cluster array 2.Initial Stimulus ampl., 0.000000
Stim specs cluster array 2.Maximum Stimulus, 0.000000
Stim specs cluster array 2.#Pulses in train, 1
Stim specs cluster array 2.Peak Level time (ms), 25.000000
Stim specs cluster array 2.Total pulse period (ms), 200.000000
Stim specs cluster array 2.Start Delay (ms), 0.000000
Stim specs cluster array 2.Pulse Shape, Square
Stim specs cluster array 2.Ramp/Rel. time (ms), 20.000000
Stim specs cluster array 2.Peak Amplitude (V), 10.000000
Stim specs cluster array 3.Initial Stimulus ampl., 0.000000
Stim specs cluster array 3.Maximum Stimulus, 15.000000
Stim specs cluster array 3.#Pulses in train, 25
Stim specs cluster array 3.Peak Level time (ms), 0.100000
Stim specs cluster array 3.Total pulse period (ms), 4.000000
Stim specs cluster array 3.Start Delay (ms), 205.000000
Stim specs cluster array 3.Pulse Shape, Triangle
Stim specs cluster array 3.Ramp/Rel. time (ms), 3.000000
Stim specs cluster array 3.Peak Amplitude (V), 0.500000
Force cal. (mN/Volt), 100.000000
Force Range (mN), 100.000000
Length cal. (mm/Volt), 10.000000
Length Range (mm), 10.000000
Stim. 1, 0.300000
Stim. 2, 0.000000
Stim. 3, 0.000000
Stim. 4, 0.000000
Monitor acquire time (ms), 100.000000
EMG graph Ymax, 0.100000
Travel limit (mm), 20.000000
Use Pressure Probe, FALSE
Pressure goal (g), 100
Speed (mm/sec), 5.000000
Dwell time (ms), 100.000000
Pressure limit (g), 500.000000
Channel amplitude offset, 0.000000

[DATA]

0.227,0.030,0.267,-5.337
0.210,0.031,0.262,-5.337
0.213,0.029,0.262,-5.337
0.225,0.028,0.265,-5.337
0.234,0.031,0.261,-5.337
0.234,0.034,0.257,-5.337
0.201,0.039,0.259,-5.337
0.214,0.037,0.265,-5.337
0.254,0.035,0.272,-5.337
0.206,0.036,0.271,-5.337
0.127,0.037,0.266,-5.337
0.130,0.037,0.260,-5.337
0.175,0.037,0.263,-5.337
0.168,0.038,0.264,-5.337
0.163,0.038,0.264,-5.337
0.139,0.042,0.264,-5.337
0.088,0.045,0.263,-5.337
0.098,0.046,0.263,-5.337
0.104,0.047,0.266,-5.337
0.091,0.043,0.269,-5.337
0.127,0.041,0.269,-5.337
0.230,0.041,0.269,-5.337
0.205,0.043,0.266,-5.337
0.178,0.041,0.267,-5.337
0.165,0.040,0.265,-5.337
0.145,0.042,0.261,-5.337
0.151,0.038,0.261,-5.337
0.180,0.039,0.266,-5.337
0.186,0.040,0.269,-5.337
0.231,0.041,0.271,-5.337
0.212,0.042,0.272,-5.337
0.143,0.043,0.273,-5.337
0.130,0.042,0.272,-5.337
0.090,0.045,0.270,-5.337
0.134,0.043,0.267,-5.337
0.135,0.044,0.265,-5.337
0.106,0.045,0.263,-5.337
0.132,0.044,0.264,-5.337
0.202,0.043,0.268,-5.337
0.164,0.048,0.270,-5.337
0.144,0.047,0.266,-5.337
0.192,0.045,0.265,-5.337
0.192,0.046,0.271,-5.337
0.182,0.047,0.271,-5.337
0.221,0.049,0.271,-5.337
0.200,0.054,0.270,-5.337
0.135,0.055,0.270,-5.337
0.138,0.048,0.266,-5.337
0.214,0.046,0.265,-5.337
0.193,0.050,0.261,-5.337
0.162,0.051,0.260,-5.337
0.161,0.045,0.265,-5.337
0.201,0.046,0.268,-5.337
0.211,0.046,0.268,-5.337
0.176,0.050,0.271,-5.337
0.198,0.049,0.268,-5.337
0.227,0.048,0.263,-5.337
0.206,0.045,0.264,-5.337
0.196,0.045,0.266,-5.337
0.190,0.044,0.264,-5.337
0.203,0.047,0.261,-5.337
0.130,0.049,0.262,-5.337
0.113,0.050,0.263,-5.337
0.178,0.050,0.266,-5.337
0.202,0.050,0.265,-5.337
0.245,0.051,0.265,-5.337
0.214,0.052,0.267,-5.337
0.166,0.052,0.272,-5.337
0.226,0.048,0.270,-5.337
0.219,0.050,0.266,-5.337
0.151,0.054,0.264,-5.337
0.078,0.055,0.263,-5.337
0.088,0.054,0.261,-5.337
0.110,0.054,0.264,-5.337
0.137,0.049,0.269,-5.337
0.185,0.048,0.273,-5.337
0.217,0.048,0.270,-5.337
0.247,0.050,0.266,-5.337
0.239,0.051,0.262,-5.337
0.166,0.053,0.261,-5.337
0.172,0.055,0.264,-5.337
0.240,0.051,0.267,-5.337
0.232,0.052,0.271,-5.337
0.180,0.052,0.270,-5.337
0.201,0.054,0.268,-5.337
0.226,0.053,0.264,-5.337
0.219,0.052,0.263,-5.337
0.221,0.053,0.264,-5.337
0.168,0.055,0.266,-5.337
0.076,0.058,0.267,-5.337
0.111,0.060,0.267,-5.337
0.183,0.061,0.267,-5.337
0.150,0.063,0.266,-5.337
0.128,0.059,0.265,-5.337
0.159,0.057,0.265,-5.337
0.190,0.055,0.263,-5.337
0.180,0.053,0.262,-5.337
0.208,0.050,0.264,-5.337
0.232,0.051,0.266,-5.337
0.232,0.054,0.268,-5.337
0.154,0.058,0.267,-5.337
0.120,0.058,0.267,-5.337
0.175,0.056,0.263,-5.337
0.245,0.053,0.259,-5.337
0.274,0.051,0.259,-5.337
0.261,0.052,0.268,-5.337
0.247,0.054,0.270,-5.337
0.262,0.057,0.269,-5.337
0.222,0.062,0.264,-5.337
0.180,0.062,0.264,-5.337
0.180,0.056,0.267,-5.337
0.234,0.054,0.271,-5.337
0.230,0.053,0.267,-5.337
0.173,0.056,0.264,-5.337
0.146,0.057,0.263,-5.337
0.121,0.058,0.268,-5.337
0.151,0.056,0.269,-5.337
0.169,0.060,0.268,-5.337
0.214,0.055,0.267,-5.337
0.241,0.055,0.268,-5.337
0.233,0.060,0.267,-5.337
0.267,0.057,0.265,-5.337
0.264,0.054,0.263,-5.337
0.231,0.056,0.263,-5.337
0.201,0.056,0.264,-5.337
0.205,0.057,0.266,-5.337
0.228,0.057,0.269,-5.337
0.203,0.060,0.269,-5.337
0.105,0.061,0.270,-5.337
0.077,0.058,0.269,-5.337
0.148,0.057,0.267,-5.337
0.228,0.058,0.263,-5.337
0.248,0.058,0.261,-5.337
0.141,0.063,0.261,-5.337
0.129,0.063,0.261,-5.337
0.204,0.060,0.259,-5.337
0.252,0.060,0.258,-5.337
0.196,0.063,0.261,-5.337
0.179,0.063,0.262,-5.337
0.196,0.065,0.265,-5.337
0.194,0.065,0.267,-5.337
0.220,0.061,0.269,-5.337
0.227,0.058,0.270,-5.337
0.216,0.060,0.271,-5.337
0.227,0.062,0.267,-5.337
0.239,0.062,0.268,-5.337
0.266,0.059,0.267,-5.337
0.242,0.057,0.267,-5.337
0.269,0.057,0.266,-5.337
0.307,0.061,0.267,-5.337
0.283,0.063,0.266,-5.337
0.212,0.062,0.266,-5.337
0.153,0.066,0.264,-5.337
0.104,0.067,0.264,-5.337
0.134,0.064,0.261,-5.337
0.199,0.061,0.260,-5.337
0.205,0.060,0.263,-5.337
0.192,0.062,0.270,-5.337
0.198,0.061,0.269,-5.337
0.204,0.065,0.267,-5.337
0.224,0.065,0.267,-5.337
0.195,0.070,0.267,-5.337
0.174,0.070,0.268,-5.337
0.242,0.066,0.267,-5.337
0.307,0.067,0.264,-5.337
0.254,0.066,0.266,-5.337
0.201,0.067,0.266,-5.337
0.190,0.070,0.267,-5.337
0.139,0.069,0.268,-5.337
0.146,0.066,0.264,-5.337
0.156,0.068,0.263,-5.337
0.168,0.067,0.261,-5.337
0.226,0.064,0.263,-5.337
0.228,0.068,0.265,-5.337
0.188,0.069,0.266,-5.337
0.208,0.062,0.269,-5.337
0.229,0.062,0.269,-5.337
0.192,0.061,0.266,-5.337
0.169,0.066,0.264,-5.337
0.171,0.067,0.263,-5.337
0.142,0.068,0.262,-5.337
0.158,0.066,0.263,-5.337
0.200,0.067,0.266,-5.337
0.184,0.067,0.267,-5.337
0.129,0.066,0.264,-5.337
0.059,0.063,0.265,-5.337
0.164,0.059,0.269,-5.337
0.254,0.061,0.269,-5.337
0.279,0.058,0.266,-5.337
0.263,0.059,0.266,-5.337
0.218,0.059,0.264,-5.337
0.212,0.060,0.261,-5.337
0.214,0.063,0.262,-5.337
0.217,0.064,0.265,-5.337
0.215,0.064,0.263,-5.337
0.201,0.067,0.264,-5.337
0.167,0.066,0.267,-5.337
0.172,0.067,0.267,-5.337
0.215,0.063,0.264,-5.337
0.203,0.067,0.267,-5.337
0.190,0.068,0.271,-5.337
0.209,0.067,0.272,-5.337
0.170,0.068,0.270,-5.337
0.185,0.070,0.269,-5.337
0.193,0.067,0.270,-5.337
0.164,0.069,0.271,-5.337
0.162,0.074,0.268,-5.337
0.131,0.073,0.265,-5.337
0.169,0.070,0.267,-5.337
0.221,0.070,0.271,-5.337
0.200,0.071,0.273,-5.337
0.156,0.069,0.270,-5.337
0.174,0.066,0.265,-5.337
0.191,0.066,0.262,-5.337
0.209,0.062,0.261,-5.337
0.234,0.063,0.260,-5.337
0.199,0.066,0.263,-5.337
0.187,0.064,0.265,-5.337
0.204,0.065,0.267,-5.337
0.226,0.064,0.270,-5.337
0.193,0.068,0.269,-5.337
0.182,0.068,0.268,-5.337
0.213,0.064,0.266,-5.337
0.186,0.061,0.262,-5.337
0.162,0.063,0.264,-5.337
0.154,0.068,0.267,-5.337
0.193,0.068,0.269,-5.337
0.246,0.063,0.274,-5.337
0.245,0.061,0.275,-5.337
0.195,0.063,0.272,-5.337
0.154,0.067,0.267,-5.337
0.171,0.063,0.262,-5.337
0.209,0.062,0.259,-5.337
0.222,0.063,0.268,-5.337
0.194,0.063,0.272,-5.337
0.222,0.060,0.274,-5.337
0.191,0.063,0.275,-5.337
0.173,0.066,0.269,-5.337
0.172,0.064,0.262,-5.337
0.232,0.064,0.258,-5.337
0.225,0.063,0.260,-5.337
0.201,0.063,0.266,-5.337
0.234,0.063,0.268,-5.337
0.165,0.065,0.264,-5.337
0.123,0.063,0.262,-5.337
0.245,0.059,0.264,-5.337
0.284,0.060,0.268,-5.337
0.267,0.061,0.267,-5.337
0.313,0.055,0.265,-5.337
0.274,0.059,0.268,-5.337
0.230,0.063,0.265,-5.337
0.246,0.061,0.264,-5.337
0.283,0.057,0.267,-5.337
0.233,0.059,0.267,-5.337
0.232,0.062,0.270,-5.337
0.247,0.062,0.270,-5.337
0.214,0.057,0.270,-5.337
0.183,0.060,0.269,-5.337
0.174,0.065,0.265,-5.337
0.146,0.062,0.266,-5.337
0.138,0.056,0.266,-5.337
0.148,0.057,0.261,-5.337
0.211,0.057,0.263,-5.337
0.292,0.056,0.265,-5.337
0.302,0.054,0.266,-5.337
0.298,0.054,0.264,-5.337
0.321,0.055,0.263,-5.337
0.291,0.058,0.266,-5.337
0.257,0.062,0.270,-5.337
0.198,0.061,0.268,-5.337
0.152,0.057,0.265,-5.337
0.187,0.056,0.264,-5.337
0.187,0.057,0.262,-5.337
0.173,0.058,0.262,-5.337
0.224,0.060,0.265,-5.337
0.225,0.060,0.268,-5.337
0.198,0.064,0.265,-5.337
0.152,0.065,0.265,-5.337
0.145,0.061,0.265,-5.337
0.149,0.062,0.262,-5.337
0.110,0.062,0.259,-5.337
0.188,0.060,0.263,-5.337
0.280,0.056,0.267,-5.337
0.226,0.059,0.270,-5.337
0.234,0.058,0.269,-5.337
0.246,0.058,0.266,-5.337
0.210,0.057,0.267,-5.337
0.223,0.057,0.267,-5.337
0.250,0.057,0.265,-5.337
0.219,0.057,0.265,-5.337
0.223,0.056,0.266,-5.337
0.159,0.059,0.267,-5.337
0.170,0.061,0.266,-5.337
0.249,0.061,0.265,-5.337
0.272,0.057,0.265,-5.337
0.265,0.055,0.269,-5.337
0.263,0.053,0.269,-5.337
0.203,0.054,0.263,-5.337
0.212,0.052,0.263,-5.337
0.175,0.053,0.262,-5.337
0.167,0.052,0.262,-5.337
0.193,0.054,0.262,-5.337
0.254,0.052,0.267,-5.337
0.283,0.050,0.270,-5.337
0.187,0.054,0.269,-5.337
0.185,0.047,0.267,-5.337
0.244,0.047,0.268,-5.337
0.247,0.048,0.269,-5.337
0.229,0.047,0.268,-5.337
0.215,0.049,0.266,-5.337
0.227,0.048,0.265,-5.337
0.254,0.050,0.266,-5.337
0.258,0.051,0.265,-5.337
0.186,0.051,0.262,-5.337
0.185,0.048,0.261,-5.337
0.195,0.048,0.264,-5.337
0.148,0.053,0.267,-5.337
0.180,0.054,0.265,-5.337
0.212,0.052,0.264,-5.337
0.142,0.055,0.267,-5.337
0.149,0.052,0.269,-5.337
0.222,0.050,0.271,-5.337
0.268,0.046,0.269,-5.337
0.287,0.043,0.264,-5.337
0.244,0.044,0.261,-5.337
0.185,0.050,0.263,-5.337
0.235,0.051,0.266,-5.337
0.198,0.051,0.271,-5.337
0.144,0.048,0.270,-5.337
0.154,0.049,0.267,-5.337
0.202,0.049,0.265,-5.337
0.312,0.047,0.267,-5.337
0.313,0.045,0.266,-5.337
0.274,0.044,0.266,-5.337
0.244,0.050,0.266,-5.337
0.210,0.053,0.263,-5.337
0.228,0.049,0.265,-5.337
0.229,0.048,0.264,-5.337
0.189,0.047,0.265,-5.337
0.237,0.042,0.265,-5.337
0.224,0.042,0.267,-5.337
0.160,0.043,0.267,-5.337
0.193,0.042,0.266,-5.337
0.246,0.044,0.265,-5.337
0.221,0.048,0.267,-5.337
0.109,0.050,0.264,-5.337
0.022,0.049,0.261,-5.337
0.141,0.042,0.262,-5.337
0.244,0.045,0.266,-5.337
0.250,0.045,0.268,-5.337
0.179,0.046,0.267,-5.337
0.168,0.047,0.262,-5.337
0.161,0.050,0.260,-5.337
0.149,0.048,0.267,-5.337
0.129,0.047,0.271,-5.337
0.124,0.049,0.267,-5.337
0.159,0.047,0.264,-5.337
0.197,0.046,0.260,-5.337
0.179,0.044,0.260,-5.337
0.163,0.045,0.262,-5.337
0.138,0.046,0.264,-5.337
0.120,0.046,0.269,-5.337
0.134,0.045,0.268,-5.337
0.183,0.040,0.268,-5.337
0.251,0.038,0.264,-5.337
0.253,0.040,0.261,-5.337
0.210,0.039,0.260,-5.337
0.202,0.042,0.262,-5.337
0.204,0.040,0.264,-5.337
0.241,0.039,0.269,-5.337
0.200,0.043,0.270,-5.337
0.151,0.048,0.269,-5.337
0.142,0.047,0.266,-5.337
0.188,0.045,0.266,-5.337
0.239,0.045,0.267,-5.337
0.170,0.050,0.267,-5.337
0.158,0.048,0.269,-5.337
0.204,0.049,0.266,-5.337
0.208,0.049,0.262,-5.337
0.195,0.048,0.263,-5.337
0.214,0.048,0.262,-5.337
0.200,0.047,0.260,-5.337
0.229,0.046,0.265,-5.337
0.225,0.048,0.269,-5.337
0.191,0.049,0.272,-5.337
0.100,0.050,0.268,-5.337
0.116,0.047,0.269,-5.337
0.217,0.040,0.266,-5.337
0.195,0.043,0.265,-5.337
0.184,0.042,0.260,-5.337
0.221,0.046,0.258,-5.337
0.223,0.044,0.260,-5.337
0.221,0.043,0.263,-5.337
0.197,0.042,0.264,-5.337
0.165,0.045,0.267,-5.337
0.179,0.043,0.265,-5.337
0.154,0.042,0.265,-5.337
0.104,0.044,0.266,-5.337
0.113,0.045,0.267,-5.337
0.183,0.040,0.268,-5.337
0.221,0.038,0.268,-5.337
0.169,0.037,0.269,-5.337
0.194,0.040,0.267,-5.337
0.213,0.041,0.265,-5.337
0.222,0.042,0.265,-5.337
0.209,0.042,0.267,-5.337
0.168,0.039,0.265,-5.337
0.197,0.037,0.264,-5.337
0.263,0.039,0.266,-5.337
0.186,0.042,0.267,-5.337
0.140,0.043,0.266,-5.337
0.138,0.043,0.263,-5.337
0.200,0.038,0.263,-5.337
0.277,0.036,0.265,-5.337
0.259,0.034,0.266,-5.337
0.160,0.037,0.264,-5.337
0.148,0.040,0.261,-5.337
0.209,0.037,0.264,-5.337
0.236,0.034,0.267,-5.337
0.211,0.034,0.265,-5.337
0.212,0.037,0.262,-5.337
0.217,0.040,0.264,-5.337
0.185,0.043,0.266,-5.337
0.181,0.042,0.265,-5.337
0.266,0.039,0.265,-5.337
0.339,0.035,0.266,-5.337
0.268,0.039,0.269,-5.337
0.179,0.040,0.269,-5.337
0.219,0.036,0.266,-5.337
0.248,0.034,0.262,-5.337
0.192,0.039,0.265,-5.337
0.153,0.038,0.265,-5.337
0.173,0.037,0.266,-5.337
0.203,0.036,0.268,-5.337
0.174,0.040,0.266,-5.337
0.147,0.039,0.264,-5.337
0.191,0.039,0.267,-5.337
0.175,0.036,0.267,-5.337
0.149,0.039,0.263,-5.337
0.103,0.039,0.259,-5.337
0.129,0.040,0.257,-5.337
0.163,0.043,0.255,-5.337
0.186,0.042,0.260,-5.337
0.197,0.039,0.267,-5.337
0.197,0.038,0.268,-5.337
0.187,0.042,0.266,-5.337
0.181,0.039,0.261,-5.337
0.195,0.037,0.260,-5.337
0.224,0.038,0.260,-5.337
0.256,0.034,0.264,-5.337
0.304,0.028,0.265,-5.337
0.246,0.029,0.265,-5.337
0.191,0.032,0.262,-5.337
0.223,0.033,0.259,-5.337
0.179,0.035,0.258,-5.337
0.154,0.034,0.259,-5.337
0.122,0.035,0.261,-5.337
0.185,0.037,0.263,-5.337
0.188,0.040,0.261,-5.337
0.147,0.041,0.260,-5.337
0.191,0.042,0.266,-5.337
0.224,0.039,0.271,-5.337
0.225,0.039,0.269,-5.337
0.204,0.037,0.263,-5.337
0.169,0.036,0.262,-5.337
0.165,0.037,0.262,-5.337
0.164,0.040,0.261,-5.337
0.187,0.038,0.257,-5.337
0.225,0.037,0.262,-5.337
0.243,0.039,0.262,-5.337
0.184,0.039,0.264,-5.337
0.134,0.039,0.264,-5.337
0.133,0.039,0.262,-5.337
0.085,0.042,0.262,-5.337
0.106,0.042,0.264,-5.337
0.240,0.037,0.263,-5.337
0.278,0.037,0.263,-5.337
0.283,0.039,0.264,-5.337
0.205,0.041,0.260,-5.337
0.192,0.040,0.260,-5.337
0.205,0.041,0.259,-5.337
0.160,0.044,0.260,-5.337
0.146,0.045,0.262,-5.337
0.185,0.045,0.265,-5.337
0.149,0.043,0.263,-5.337
0.126,0.041,0.259,-5.337
0.139,0.040,0.254,-5.337
0.183,0.042,0.254,-5.337
0.188,0.041,0.255,-5.337
0.172,0.038,0.261,-5.337
0.196,0.035,0.262,-5.337
0.168,0.035,0.262,-5.337
0.110,0.039,0.261,-5.337
0.128,0.042,0.262,-5.337
0.244,0.039,0.262,-5.337
0.286,0.038,0.262,-5.337
0.226,0.034,0.261,-5.337
0.205,0.036,0.261,-5.337
0.200,0.039,0.262,-5.337
0.160,0.039,0.264,-5.337
0.148,0.036,0.264,-5.337
0.171,0.041,0.263,-5.337
0.150,0.046,0.260,-5.337
0.177,0.041,0.258,-5.337
0.176,0.038,0.254,-5.337
0.163,0.037,0.254,-5.337
0.142,0.041,0.260,-5.337
0.161,0.042,0.264,-5.337
0.114,0.044,0.264,-5.337
0.087,0.045,0.260,-5.337
0.130,0.044,0.256,-5.337
0.192,0.044,0.254,-5.337
0.161,0.045,0.259,-5.337
0.150,0.044,0.263,-5.337
0.194,0.044,0.267,-5.337
0.235,0.041,0.269,-5.337
0.226,0.043,0.267,-5.337
0.198,0.041,0.258,-5.337
0.222,0.043,0.253,-5.337
0.242,0.041,0.254,-5.337
0.249,0.042,0.262,-5.337
0.211,0.040,0.267,-5.337
0.196,0.040,0.266,-5.337
0.219,0.041,0.262,-5.337
0.254,0.045,0.264,-5.337
0.209,0.046,0.264,-5.337
0.164,0.046,0.262,-5.337
0.139,0.047,0.261,-5.337
0.167,0.046,0.263,-5.337
0.220,0.045,0.263,-5.337
0.255,0.046,0.260,-5.337
0.200,0.045,0.258,-5.337
0.135,0.046,0.255,-5.337
0.177,0.048,0.257,-5.337
0.171,0.050,0.259,-5.337
0.172,0.051,0.260,-5.337
0.172,0.047,0.255,-5.337
0.142,0.049,0.256,-5.337
0.143,0.048,0.258,-5.337
0.158,0.052,0.259,-5.337
0.169,0.051,0.257,-5.337
0.167,0.052,0.261,-5.337
0.211,0.051,0.263,-5.337
0.198,0.051,0.262,-5.337
0.219,0.050,0.259,-5.337
0.247,0.049,0.258,-5.337
0.220,0.049,0.259,-5.337
0.168,0.052,0.262,-5.337
0.168,0.050,0.260,-5.337
0.192,0.054,0.259,-5.337
0.177,0.055,0.262,-5.337
0.155,0.053,0.262,-5.337
0.229,0.052,0.260,-5.337
0.230,0.051,0.260,-5.337
0.176,0.054,0.262,-5.337
0.144,0.053,0.260,-5.337
0.184,0.050,0.259,-5.337
0.249,0.049,0.259,-5.337
0.268,0.047,0.261,-5.337
0.227,0.046,0.261,-5.337
0.168,0.052,0.263,-5.337
0.154,0.049,0.263,-5.337
0.117,0.052,0.262,-5.337
0.136,0.052,0.261,-5.337
0.186,0.051,0.259,-5.337
0.221,0.053,0.260,-5.337
0.157,0.058,0.259,-5.337
0.067,0.057,0.257,-5.337
0.127,0.054,0.257,-5.337
0.143,0.055,0.255,-5.337
0.122,0.057,0.256,-5.337
0.142,0.058,0.258,-5.337
0.119,0.057,0.260,-5.337
0.159,0.054,0.264,-5.337
0.188,0.050,0.264,-5.337
0.206,0.054,0.264,-5.337
0.236,0.052,0.263,-5.337
0.239,0.051,0.265,-5.337
0.244,0.052,0.262,-5.337
0.241,0.053,0.258,-5.337
0.313,0.052,0.258,-5.337
0.271,0.054,0.261,-5.337
0.192,0.058,0.265,-5.337
0.144,0.057,0.265,-5.337
0.159,0.056,0.263,-5.337
0.196,0.056,0.264,-5.337
0.208,0.050,0.265,-5.337
0.145,0.053,0.265,-5.337
0.098,0.058,0.261,-5.337
0.120,0.061,0.259,-5.337
0.163,0.056,0.261,-5.337
0.192,0.059,0.264,-5.337
0.216,0.056,0.264,-5.337
0.201,0.055,0.258,-5.337
0.111,0.059,0.256,-5.337
0.123,0.058,0.257,-5.337
0.184,0.054,0.262,-5.337
0.203,0.056,0.263,-5.337
0.204,0.057,0.261,-5.337
0.206,0.054,0.256,-5.337
0.235,0.058,0.258,-5.337
0.172,0.061,0.258,-5.337
0.176,0.059,0.259,-5.337
0.225,0.058,0.262,-5.337
0.201,0.062,0.263,-5.337
0.215,0.064,0.260,-5.337
0.187,0.063,0.260,-5.337
0.110,0.061,0.262,-5.337
0.162,0.061,0.261,-5.337
0.166,0.066,0.260,-5.337
0.140,0.066,0.262,-5.337
0.203,0.059,0.265,-5.337
0.217,0.058,0.263,-5.337
0.190,0.059,0.261,-5.337
0.164,0.058,0.261,-5.337
0.148,0.058,0.264,-5.337
0.151,0.059,0.266,-5.337
0.144,0.058,0.262,-5.337
0.171,0.059,0.253,-5.337
0.237,0.057,0.251,-5.337
0.319,0.055,0.253,-5.337
0.292,0.058,0.259,-5.337
0.235,0.061,0.264,-5.337
0.211,0.063,0.262,-5.337
0.202,0.062,0.260,-5.337
0.269,0.059,0.258,-5.337
0.233,0.058,0.255,-5.337
0.181,0.059,0.256,-5.337
0.202,0.059,0.257,-5.337
0.200,0.060,0.258,-5.337
0.147,0.065,0.258,-5.337
0.094,0.064,0.262,-5.337
0.156,0.062,0.264,-5.337
0.209,0.058,0.264,-5.337
0.216,0.058,0.264,-5.337
0.217,0.058,0.263,-5.337
0.224,0.061,0.261,-5.337
0.210,0.058,0.257,-5.337
0.144,0.060,0.258,-5.337
0.196,0.061,0.258,-5.337
0.294,0.061,0.259,-5.337
0.206,0.064,0.261,-5.337
0.171,0.060,0.263,-5.337
0.219,0.058,0.262,-5.337
0.190,0.059,0.260,-5.337
0.182,0.058,0.258,-5.337
0.284,0.054,0.259,-5.337
0.311,0.056,0.263,-5.337
0.203,0.058,0.266,-5.337
0.190,0.056,0.263,-5.337
0.243,0.057,0.260,-5.337
0.241,0.061,0.257,-5.337
0.228,0.061,0.251,-5.337
0.268,0.059,0.251,-5.337
0.283,0.062,0.256,-5.337
0.214,0.067,0.260,-5.337
0.098,0.064,0.262,-5.337
0.079,0.063,0.262,-5.337
0.127,0.061,0.262,-5.337
0.123,0.065,0.262,-5.337
0.183,0.061,0.260,-5.337
0.221,0.060,0.262,-5.337
0.216,0.065,0.262,-5.337
0.225,0.065,0.262,-5.337
0.274,0.063,0.260,-5.337
0.291,0.064,0.261,-5.337
0.254,0.062,0.260,-5.337
0.190,0.066,0.259,-5.337
0.135,0.070,0.255,-5.337
0.117,0.069,0.252,-5.337
0.152,0.065,0.256,-5.337
0.242,0.064,0.265,-5.337
0.276,0.064,0.266,-5.337
0.216,0.068,0.263,-5.337
0.208,0.063,0.261,-5.337
0.245,0.061,0.262,-5.337
0.213,0.063,0.263,-5.337
0.189,0.063,0.261,-5.337
0.159,0.064,0.256,-5.337
0.127,0.064,0.256,-5.337
0.148,0.062,0.260,-5.337
0.212,0.062,0.260,-5.337
0.220,0.063,0.259,-5.337
0.206,0.061,0.258,-5.337
0.233,0.058,0.263,-5.337
0.254,0.060,0.262,-5.337
0.285,0.063,0.258,-5.337
0.276,0.067,0.255,-5.337
0.201,0.068,0.255,-5.337
0.200,0.066,0.259,-5.337
0.259,0.065,0.264,-5.337
0.224,0.068,0.266,-5.337
0.202,0.072,0.264,-5.337
0.217,0.071,0.264,-5.337
0.226,0.072,0.261,-5.337
0.189,0.074,0.257,-5.337
0.192,0.071,0.258,-5.337
0.123,0.072,0.263,-5.337
0.124,0.069,0.264,-5.337
0.210,0.069,0.260,-5.337
0.260,0.065,0.256,-5.337
0.252,0.063,0.262,-5.337
0.217,0.067,0.265,-5.337
0.205,0.070,0.265,-5.337
0.165,0.071,0.265,-5.337
0.179,0.071,0.267,-5.337
0.191,0.067,0.267,-5.337
0.238,0.067,0.264,-5.337
0.256,0.064,0.257,-5.337
0.230,0.064,0.253,-5.337
0.187,0.068,0.257,-5.337
0.199,0.068,0.261,-5.337
0.198,0.066,0.259,-5.337
0.166,0.067,0.260,-5.337
0.150,0.067,0.259,-5.337
0.128,0.070,0.260,-5.337
0.103,0.074,0.260,-5.337
0.143,0.069,0.263,-5.337
0.159,0.066,0.266,-5.337
0.185,0.065,0.265,-5.337
0.198,0.062,0.263,-5.337
0.247,0.064,0.264,-5.337
0.257,0.065,0.263,-5.337
0.195,0.069,0.262,-5.337
0.174,0.068,0.262,-5.337
0.279,0.065,0.259,-5.337
0.277,0.068,0.255,-5.337
0.204,0.068,0.252,-5.337
0.215,0.067,0.255,-5.337
0.251,0.069,0.258,-5.337
0.225,0.070,0.259,-5.337
0.236,0.066,0.257,-5.337
0.206,0.065,0.259,-5.337
0.181,0.066,0.264,-5.337
0.200,0.067,0.262,-5.337
0.197,0.070,0.260,-5.337
0.173,0.067,0.263,-5.337
0.131,0.066,0.263,-5.337
0.146,0.067,0.263,-5.337
0.150,0.067,0.264,-5.337
0.237,0.067,0.264,-5.337
0.315,0.064,0.264,-5.337
0.234,0.063,0.262,-5.337
0.172,0.064,0.260,-5.337
0.182,0.061,0.254,-5.337
0.197,0.065,0.254,-5.337
0.164,0.067,0.258,-5.337
0.155,0.068,0.262,-5.337
0.214,0.061,0.264,-5.337
0.226,0.063,0.263,-5.337
0.186,0.061,0.261,-5.337
0.190,0.061,0.261,-5.337
0.231,0.059,0.260,-5.337
0.297,0.059,0.260,-5.337
0.285,0.061,0.259,-5.337
0.232,0.061,0.259,-5.337
0.177,0.060,0.261,-5.337
0.144,0.059,0.263,-5.337
0.150,0.060,0.266,-5.337
0.110,0.067,0.266,-5.337
0.109,0.065,0.264,-5.337
0.164,0.059,0.264,-5.337
0.219,0.057,0.263,-5.337
0.160,0.058,0.260,-5.337
0.173,0.059,0.262,-5.337
0.216,0.056,0.262,-5.337
0.246,0.055,0.263,-5.337
0.215,0.058,0.262,-5.337
0.249,0.058,0.262,-5.337
0.281,0.054,0.263,-5.337
0.256,0.052,0.265,-5.337
0.306,0.054,0.259,-5.337
0.269,0.059,0.254,-5.337
0.160,0.063,0.255,-5.337
0.130,0.058,0.259,-5.337
0.203,0.054,0.264,-5.337
0.241,0.056,0.266,-5.337
0.175,0.060,0.265,-5.337
0.093,0.061,0.264,-5.337
0.112,0.061,0.261,-5.337
0.176,0.056,0.264,-5.337
0.273,0.054,0.265,-5.337
0.257,0.053,0.261,-5.337
0.292,0.049,0.261,-5.337
0.306,0.047,0.262,-5.337
0.234,0.051,0.263,-5.337
0.200,0.052,0.260,-5.337
0.189,0.052,0.259,-5.337
0.204,0.049,0.258,-5.337
0.218,0.050,0.261,-5.337
0.202,0.051,0.260,-5.337
0.182,0.052,0.260,-5.337
0.140,0.056,0.256,-5.337
0.128,0.058,0.258,-5.337
0.103,0.057,0.264,-5.337
0.139,0.055,0.266,-5.337
0.230,0.051,0.263,-5.337
0.244,0.054,0.263,-5.337
0.218,0.056,0.264,-5.337
0.275,0.052,0.263,-5.337
0.273,0.051,0.260,-5.337
0.198,0.050,0.261,-5.337
0.192,0.051,0.263,-5.337
0.160,0.055,0.263,-5.337
0.104,0.054,0.261,-5.337
0.135,0.054,0.263,-5.337
0.177,0.051,0.260,-5.337
0.217,0.048,0.258,-5.337
0.262,0.046,0.263,-5.337
0.162,0.050,0.265,-5.337
0.099,0.054,0.265,-5.337
0.178,0.052,0.262,-5.337
0.201,0.050,0.264,-5.337
0.190,0.050,0.265,-5.337
0.124,0.054,0.265,-5.337
0.067,0.052,0.262,-5.337
0.159,0.049,0.261,-5.337
0.206,0.048,0.260,-5.337
0.180,0.048,0.260,-5.337
0.221,0.047,0.264,-5.337
0.277,0.043,0.263,-5.337
0.292,0.043,0.258,-5.337
0.244,0.045,0.254,-5.337
0.269,0.044,0.254,-5.337
0.296,0.047,0.254,-5.337
0.284,0.049,0.260,-5.337
0.277,0.047,0.264,-5.337
0.236,0.047,0.266,-5.337
0.204,0.049,0.265,-5.337
0.163,0.052,0.267,-5.337
0.126,0.054,0.263,-5.337
0.134,0.054,0.257,-5.337
0.113,0.054,0.253,-5.337
0.191,0.051,0.258,-5.337
0.234,0.047,0.262,-5.337
0.171,0.051,0.262,-5.337
0.194,0.050,0.261,-5.337
0.236,0.049,0.263,-5.337
0.278,0.048,0.264,-5.337
0.237,0.049,0.263,-5.337
0.215,0.050,0.260,-5.337
0.234,0.049,0.263,-5.337
0.252,0.046,0.263,-5.337
0.258,0.046,0.261,-5.337
0.247,0.048,0.259,-5.337
0.209,0.049,0.262,-5.337
0.212,0.045,0.264,-5.337
0.205,0.047,0.263,-5.337
0.213,0.046,0.263,-5.337
0.175,0.046,0.260,-5.337
0.154,0.050,0.260,-5.337
0.142,0.050,0.261,-5.337
0.133,0.046,0.264,-5.337
0.154,0.046,0.265,-5.337
0.212,0.046,0.264,-5.337
0.216,0.046,0.260,-5.337
0.254,0.044,0.262,-5.337
0.225,0.046,0.263,-5.337
0.095,0.051,0.260,-5.337
0.067,0.048,0.261,-5.337
0.146,0.047,0.266,-5.337
0.165,0.045,0.267,-5.337
0.133,0.049,0.266,-5.337
0.126,0.051,0.260,-5.337
0.159,0.048,0.255,-5.337
0.193,0.048,0.256,-5.337
0.127,0.049,0.260,-5.337
0.167,0.048,0.262,-5.337
0.242,0.046,0.263,-5.337
0.172,0.050,0.263,-5.337
0.158,0.049,0.262,-5.337
0.278,0.046,0.262,-5.337
0.292,0.045,0.263,-5.337
0.229,0.047,0.264,-5.337
0.205,0.049,0.259,-5.337
0.227,0.050,0.257,-5.337
0.217,0.047,0.259,-5.337
0.211,0.046,0.264,-5.337
0.224,0.049,0.264,-5.337
0.193,0.050,0.260,-5.337
0.179,0.048,0.260,-5.337
0.178,0.046,0.262,-5.337
0.193,0.046,0.258,-5.337
0.205,0.046,0.253,-5.337
0.199,0.049,0.254,-5.337
0.177,0.049,0.262,-5.337
0.172,0.049,0.267,-5.337
0.153,0.052,0.266,-5.337
0.206,0.046,0.263,-5.337
0.292,0.039,0.259,-5.337
0.225,0.040,0.258,-5.337
0.161,0.045,0.258,-5.337
0.142,0.047,0.259,-5.337
0.163,0.050,0.258,-5.337
0.159,0.047,0.260,-5.337
0.194,0.044,0.261,-5.337
0.172,0.049,0.262,-5.337
0.112,0.047,0.263,-5.337
0.110,0.050,0.261,-5.337
0.127,0.049,0.260,-5.337
0.138,0.046,0.260,-5.337
0.137,0.045,0.261,-5.337
0.111,0.049,0.262,-5.337
0.111,0.049,0.262,-5.337
0.128,0.048,0.261,-5.337
0.133,0.048,0.258,-5.337
0.147,0.049,0.255,-5.337
0.170,0.048,0.256,-5.337
0.225,0.044,0.260,-5.337
0.239,0.042,0.264,-5.337
0.206,0.044,0.265,-5.337
0.175,0.045,0.263,-5.337
0.099,0.048,0.256,-5.337
0.100,0.047,0.258,-5.337
0.202,0.047,0.262,-5.337
0.230,0.048,0.268,-5.337
0.182,0.048,0.266,-5.337
0.217,0.048,0.262,-5.337
0.254,0.044,0.261,-5.337
0.240,0.047,0.261,-5.337
0.230,0.051,0.260,-5.337
0.173,0.049,0.261,-5.337
0.175,0.045,0.259,-5.337
0.209,0.045,0.258,-5.337
0.188,0.048,0.259,-5.337
0.187,0.048,0.261,-5.337
0.199,0.051,0.260,-5.337
0.165,0.052,0.261,-5.337
0.165,0.048,0.262,-5.337
0.140,0.050,0.264,-5.337
0.158,0.049,0.264,-5.337
0.183,0.050,0.264,-5.337
0.162,0.048,0.265,-5.337
0.231,0.043,0.263,-5.337
0.233,0.046,0.261,-5.337
0.196,0.045,0.261,-5.337
0.207,0.045,0.265,-5.337
0.112,0.048,0.262,-5.337
0.070,0.052,0.259,-5.337
0.127,0.051,0.259,-5.337
0.189,0.048,0.259,-5.337
0.135,0.047,0.258,-5.337
0.096,0.048,0.258,-5.337
0.186,0.048,0.261,-5.337
0.274,0.045,0.261,-5.337
0.255,0.049,0.260,-5.337
0.167,0.050,0.261,-5.337
0.155,0.048,0.261,-5.337
0.238,0.042,0.263,-5.337
0.247,0.042,0.264,-5.337
0.226,0.045,0.262,-5.337
0.215,0.045,0.262,-5.337
0.225,0.041,0.260,-5.337
0.167,0.043,0.259,-5.337
0.148,0.042,0.260,-5.337
0.153,0.039,0.265,-5.337
0.160,0.036,0.263,-5.337
0.133,0.037,0.261,-5.337
0.153,0.038,0.260,-5.337
0.213,0.039,0.262,-5.337
0.230,0.042,0.262,-5.337
0.215,0.044,0.265,-5.337
0.215,0.042,0.265,-5.337
0.189,0.047,0.261,-5.337
0.179,0.049,0.255,-5.337
0.128,0.049,0.254,-5.337
0.109,0.042,0.258,-5.337
0.219,0.037,0.262,-5.337
0.262,0.040,0.262,-5.337
0.202,0.047,0.262,-5.337
0.169,0.041,0.258,-5.337
0.198,0.042,0.261,-5.337
0.192,0.044,0.264,-5.337
0.151,0.045,0.263,-5.337
0.134,0.048,0.259,-5.337
0.110,0.051,0.258,-5.337
0.142,0.046,0.261,-5.337
0.198,0.044,0.262,-5.337
0.185,0.044,0.260,-5.337
0.175,0.044,0.257,-5.337
0.205,0.044,0.257,-5.337
0.232,0.042,0.258,-5.337
0.137,0.047,0.260,-5.337
0.121,0.046,0.261,-5.337
0.215,0.044,0.261,-5.337
0.255,0.045,0.260,-5.337
0.267,0.048,0.262,-5.337
0.196,0.048,0.264,-5.337
0.159,0.047,0.264,-5.337
0.209,0.044,0.261,-5.337
0.198,0.045,0.258,-5.337
0.125,0.045,0.259,-5.337
0.167,0.048,0.258,-5.337
0.215,0.044,0.259,-5.337
0.281,0.043,0.262,-5.337
0.252,0.045,0.264,-5.337
0.182,0.046,0.263,-5.337
0.188,0.046,0.261,-5.337
0.252,0.046,0.259,-5.337
0.236,0.046,0.261,-5.337
0.154,0.047,0.261,-5.337
0.224,0.044,0.262,-5.337
0.242,0.045,0.259,-5.337
0.192,0.046,0.261,-5.337
0.215,0.045,0.260,-5.337
0.227,0.045,0.258,-5.337
0.167,0.048,0.258,-5.337
0.151,0.047,0.259,-5.337
0.159,0.046,0.257,-5.337
0.179,0.048,0.253,-5.337
0.186,0.047,0.255,-5.337
0.160,0.048,0.258,-5.337
0.183,0.048,0.260,-5.337
0.248,0.046,0.263,-5.337
0.233,0.049,0.264,-5.337
0.198,0.051,0.261,-5.337
0.204,0.048,0.263,-5.337
0.265,0.047,0.266,-5.337
0.228,0.049,0.264,-5.337
0.179,0.049,0.258,-5.337
0.199,0.050,0.256,-5.337
0.209,0.055,0.253,-5.337
0.191,0.055,0.258,-5.337
0.170,0.053,0.263,-5.337
0.155,0.054,0.266,-5.337
0.154,0.052,0.265,-5.337
0.166,0.053,0.263,-5.337
0.186,0.053,0.260,-5.337
0.116,0.055,0.259,-5.337
0.105,0.051,0.257,-5.337
0.185,0.047,0.255,-5.337
0.250,0.044,0.256,-5.337
0.223,0.047,0.260,-5.337
0.205,0.046,0.264,-5.337
0.191,0.043,0.267,-5.337
0.169,0.044,0.266,-5.337
0.215,0.044,0.266,-5.337
0.278,0.042,0.265,-5.337
0.209,0.046,0.261,-5.337
0.127,0.048,0.255,-5.337
0.060,0.052,0.255,-5.337
0.053,0.049,0.257,-5.337
0.154,0.044,0.256,-5.337
0.174,0.043,0.255,-5.337
0.124,0.043,0.256,-5.337
0.161,0.048,0.260,-5.337
0.205,0.049,0.261,-5.337
0.224,0.048,0.262,-5.337
0.168,0.050,0.262,-5.337
0.131,0.052,0.263,-5.337
0.085,0.052,0.265,-5.337
0.112,0.051,0.264,-5.337
0.162,0.049,0.262,-5.337
0.217,0.050,0.265,-5.337
0.206,0.051,0.267,-5.337
0.167,0.052,0.266,-5.337
0.197,0.052,0.260,-5.337
0.225,0.053,0.259,-5.337
0.180,0.055,0.262,-5.337
0.182,0.054,0.262,-5.337
0.192,0.050,0.263,-5.337
0.209,0.048,0.260,-5.337
0.223,0.050,0.258,-5.337
0.237,0.048,0.258,-5.337
0.215,0.051,0.259,-5.337
0.205,0.052,0.258,-5.337
0.177,0.050,0.259,-5.337
0.142,0.055,0.258,-5.337
0.107,0.055,0.258,-5.337
0.099,0.055,0.259,-5.337
0.053,0.056,0.263,-5.337
0.082,0.053,0.262,-5.337
0.080,0.059,0.265,-5.337
0.061,0.059,0.262,-5.337
0.113,0.055,0.261,-5.337
0.136,0.048,0.265,-5.337
0.203,0.044,0.265,-5.337
0.231,0.045,0.261,-5.337
0.175,0.050,0.260,-5.337
0.216,0.047,0.260,-5.337
0.238,0.049,0.264,-5.337
0.201,0.051,0.263,-5.337
0.123,0.052,0.261,-5.337
0.074,0.053,0.261,-5.337
0.138,0.057,0.256,-5.337
0.178,0.053,0.254,-5.337
0.202,0.049,0.256,-5.337
0.275,0.048,0.263,-5.337
0.236,0.052,0.266,-5.337
0.186,0.055,0.265,-5.337
0.211,0.053,0.263,-5.337
0.248,0.051,0.264,-5.337
0.232,0.053,0.260,-5.337
0.194,0.057,0.256,-5.337
0.209,0.053,0.257,-5.337
0.252,0.051,0.256,-5.337
0.197,0.055,0.259,-5.337
0.139,0.059,0.265,-5.337
0.136,0.058,0.266,-5.337
0.204,0.055,0.264,-5.337
0.161,0.056,0.263,-5.337
0.129,0.061,0.261,-5.337
0.155,0.063,0.260,-5.337
0.192,0.061,0.262,-5.337
0.285,0.060,0.265,-5.337
0.248,0.061,0.263,-5.337
0.234,0.061,0.262,-5.337
0.192,0.061,0.260,-5.337
0.162,0.062,0.262,-5.337
0.166,0.058,0.264,-5.337
0.156,0.060,0.265,-5.337
0.169,0.059,0.265,-5.337
0.231,0.058,0.263,-5.337
0.155,0.061,0.262,-5.337
0.121,0.062,0.259,-5.337
0.159,0.059,0.258,-5.337
0.176,0.057,0.257,-5.337
0.162,0.057,0.258,-5.337
0.131,0.058,0.258,-5.337
0.127,0.059,0.255,-5.337
0.223,0.056,0.256,-5.337
0.234,0.056,0.259,-5.337
0.193,0.062,0.261,-5.337
0.198,0.063,0.263,-5.337
0.189,0.060,0.262,-5.337
0.180,0.057,0.264,-5.337
0.203,0.060,0.264,-5.337
0.190,0.059,0.261,-5.337
0.229,0.058,0.256,-5.337
0.225,0.059,0.255,-5.337
0.089,0.064,0.255,-5.337
0.118,0.064,0.261,-5.337
0.234,0.063,0.264,-5.337
0.188,0.066,0.263,-5.337
0.154,0.063,0.257,-5.337
0.153,0.067,0.256,-5.337
0.176,0.068,0.264,-5.337
0.239,0.070,0.263,-5.337
0.268,0.069,0.255,-5.337
0.273,0.066,0.256,-5.337
0.265,0.067,0.261,-5.337
0.248,0.066,0.263,-5.337
0.193,0.068,0.267,-5.337
0.193,0.063,0.267,-5.337
0.208,0.063,0.263,-5.337
0.219,0.065,0.260,-5.337
0.233,0.063,0.261,-5.337
0.217,0.058,0.261,-5.337
0.202,0.058,0.261,-5.337
0.236,0.057,0.256,-5.337
0.263,0.058,0.256,-5.337
0.246,0.061,0.256,-5.337
0.165,0.064,0.256,-5.337
0.231,0.059,0.257,-5.337
0.238,0.062,0.261,-5.337
0.170,0.062,0.264,-5.337
0.125,0.063,0.267,-5.337
0.260,0.060,0.267,-5.337
0.260,0.062,0.262,-5.337
0.177,0.064,0.258,-5.337
0.165,0.066,0.259,-5.337
0.190,0.066,0.261,-5.337
0.181,0.066,0.261,-5.337
0.152,0.066,0.261,-5.337
0.195,0.063,0.263,-5.337
0.239,0.063,0.263,-5.337
0.263,0.064,0.261,-5.337
0.302,0.063,0.261,-5.337
0.241,0.061,0.255,-5.337
0.227,0.060,0.255,-5.337
0.214,0.064,0.259,-5.337
0.192,0.063,0.264,-5.337
0.175,0.063,0.267,-5.337
0.145,0.063,0.265,-5.337
0.182,0.060,0.260,-5.337
0.195,0.060,0.258,-5.337
0.167,0.060,0.257,-5.337
0.184,0.063,0.255,-5.337
0.186,0.065,0.254,-5.337
0.184,0.061,0.255,-5.337
0.165,0.058,0.258,-5.337
0.173,0.062,0.262,-5.337
0.214,0.066,0.261,-5.337
0.190,0.068,0.261,-5.337
0.201,0.067,0.260,-5.337
0.248,0.066,0.261,-5.337
0.283,0.070,0.263,-5.337
0.283,0.072,0.265,-5.337
0.225,0.071,0.267,-5.337
0.189,0.068,0.265,-5.337
0.200,0.067,0.265,-5.337
0.171,0.069,0.263,-5.337
0.134,0.072,0.262,-5.337
0.194,0.068,0.256,-5.337
0.227,0.067,0.256,-5.337
0.201,0.068,0.258,-5.337
0.161,0.068,0.259,-5.337
0.167,0.070,0.259,-5.337
0.206,0.068,0.260,-5.337
0.266,0.064,0.258,-5.337
0.227,0.068,0.260,-5.337
0.183,0.069,0.261,-5.337
0.185,0.068,0.260,-5.337
0.248,0.064,0.262,-5.337
0.212,0.068,0.265,-5.337
0.086,0.070,0.265,-5.337
0.113,0.069,0.262,-5.337
0.183,0.067,0.257,-5.337
0.179,0.067,0.257,-5.337
0.237,0.066,0.259,-5.337
0.295,0.064,0.257,-5.337
0.272,0.061,0.259,-5.337
0.171,0.061,0.262,-5.337
0.173,0.059,0.266,-5.337
0.222,0.056,0.263,-5.337
0.242,0.060,0.264,-5.337
0.206,0.064,0.263,-5.337
0.217,0.064,0.261,-5.337
0.188,0.063,0.262,-5.337
0.188,0.064,0.264,-5.337
0.226,0.064,0.257,-5.337
0.219,0.066,0.253,-5.337
0.213,0.064,0.255,-5.337
0.199,0.065,0.263,-5.337
0.183,0.068,0.267,-5.337
0.191,0.068,0.267,-5.337
0.228,0.065,0.265,-5.337
0.229,0.064,0.263,-5.337
0.249,0.064,0.262,-5.337
0.234,0.065,0.259,-5.337
0.207,0.063,0.260,-5.337
0.130,0.065,0.264,-5.337
0.151,0.065,0.265,-5.337
0.233,0.063,0.262,-5.337
0.270,0.061,0.260,-5.337
0.306,0.064,0.260,-5.337
0.309,0.067,0.260,-5.337
0.226,0.067,0.258,-5.337
0.211,0.066,0.261,-5.337
0.243,0.064,0.259,-5.337
0.256,0.065,0.257,-5.337
0.211,0.070,0.261,-5.337
0.089,0.070,0.264,-5.337
0.071,0.067,0.263,-5.337
0.170,0.064,0.258,-5.337
0.294,0.062,0.259,-5.337
0.284,0.067,0.260,-5.337
0.248,0.068,0.263,-5.337
0.223,0.067,0.264,-5.337
0.261,0.064,0.263,-5.337
0.193,0.067,0.258,-5.337
0.105,0.071,0.261,-5.337
0.106,0.069,0.260,-5.337
0.196,0.065,0.259,-5.337
0.208,0.062,0.259,-5.337
0.198,0.065,0.260,-5.337
0.199,0.064,0.258,-5.337
0.226,0.062,0.261,-5.337
0.194,0.063,0.263,-5.337
0.148,0.065,0.266,-5.337
0.130,0.067,0.267,-5.337
0.181,0.066,0.265,-5.337
0.151,0.067,0.261,-5.337
0.096,0.069,0.258,-5.337
0.156,0.064,0.259,-5.337
0.199,0.061,0.264,-5.337
0.229,0.058,0.265,-5.337
0.286,0.060,0.262,-5.337
0.285,0.062,0.260,-5.337
0.247,0.064,0.258,-5.337
0.260,0.059,0.257,-5.337
0.212,0.060,0.259,-5.337
0.151,0.058,0.263,-5.337
0.161,0.060,0.263,-5.337
0.178,0.058,0.263,-5.337
0.246,0.055,0.257,-5.337
0.265,0.056,0.257,-5.337
0.197,0.059,0.261,-5.337
0.170,0.056,0.265,-5.337
0.225,0.054,0.261,-5.337
0.244,0.057,0.257,-5.337
0.304,0.055,0.258,-5.337
0.324,0.055,0.261,-5.337
0.233,0.056,0.261,-5.337
0.157,0.061,0.262,-5.337
0.292,0.056,0.261,-5.337
0.395,0.056,0.263,-5.337
0.246,0.059,0.265,-5.337
0.114,0.057,0.265,-5.337
0.137,0.060,0.263,-5.337
0.209,0.061,0.259,-5.337
0.214,0.062,0.259,-5.337
0.198,0.058,0.260,-5.337
0.241,0.054,0.259,-5.337
0.245,0.057,0.257,-5.337
0.227,0.057,0.263,-5.337
0.217,0.054,0.266,-5.337
0.138,0.056,0.265,-5.337
0.144,0.053,0.259,-5.337
0.250,0.049,0.261,-5.337
0.262,0.053,0.263,-5.337
0.162,0.057,0.265,-5.337
0.124,0.055,0.264,-5.337
0.164,0.056,0.264,-5.337
0.193,0.056,0.265,-5.337
0.194,0.057,0.266,-5.337
0.167,0.058,0.261,-5.337
0.189,0.054,0.258,-5.337
0.225,0.057,0.256,-5.337
0.230,0.058,0.255,-5.337
0.262,0.056,0.256,-5.337
0.280,0.054,0.261,-5.337
0.335,0.053,0.265,-5.337
0.311,0.052,0.270,-5.337
0.276,0.048,0.271,-5.337
0.245,0.049,0.265,-5.337
0.203,0.052,0.258,-5.337
0.241,0.052,0.257,-5.337
0.266,0.053,0.260,-5.337
0.253,0.051,0.257,-5.337
0.174,0.052,0.258,-5.337
0.145,0.050,0.260,-5.337
0.217,0.050,0.262,-5.337
0.260,0.052,0.266,-5.337
0.185,0.057,0.269,-5.337
0.133,0.052,0.272,-5.337
0.187,0.049,0.270,-5.337
0.214,0.052,0.263,-5.337
0.210,0.058,0.258,-5.337
0.187,0.056,0.259,-5.337
0.202,0.054,0.260,-5.337
0.208,0.055,0.261,-5.337
0.265,0.053,0.261,-5.337
0.291,0.052,0.263,-5.337
0.235,0.050,0.262,-5.337
0.221,0.050,0.264,-5.337
0.179,0.053,0.263,-5.337
0.168,0.055,0.263,-5.337
0.188,0.056,0.264,-5.337
0.209,0.058,0.268,-5.337
0.095,0.059,0.266,-5.337
0.041,0.055,0.260,-5.337
0.132,0.052,0.257,-5.337
0.267,0.052,0.262,-5.337
0.268,0.051,0.263,-5.337
0.258,0.053,0.262,-5.337
0.194,0.054,0.263,-5.337
0.170,0.053,0.266,-5.337
0.206,0.053,0.264,-5.337
0.227,0.052,0.262,-5.337
0.174,0.051,0.259,-5.337
0.149,0.052,0.261,-5.337
0.256,0.050,0.265,-5.337
0.287,0.048,0.268,-5.337
0.195,0.053,0.263,-5.337
0.160,0.055,0.260,-5.337
0.194,0.054,0.260,-5.337
0.240,0.052,0.260,-5.337
0.261,0.050,0.256,-5.337
0.253,0.050,0.255,-5.337
0.206,0.050,0.262,-5.337
0.227,0.051,0.265,-5.337
0.196,0.051,0.266,-5.337
0.208,0.051,0.265,-5.337
0.200,0.049,0.266,-5.337
0.220,0.043,0.265,-5.337
0.294,0.040,0.264,-5.337
0.266,0.041,0.261,-5.337
0.222,0.043,0.258,-5.337
0.170,0.045,0.257,-5.337
0.139,0.049,0.262,-5.337
0.175,0.050,0.265,-5.337
0.179,0.047,0.265,-5.337
0.215,0.046,0.266,-5.337
0.266,0.046,0.267,-5.337
0.245,0.052,0.264,-5.337
0.179,0.056,0.261,-5.337
0.202,0.051,0.262,-5.337
0.262,0.048,0.263,-5.337
0.209,0.050,0.263,-5.337
0.153,0.048,0.263,-5.337
0.173,0.046,0.260,-5.337
0.281,0.042,0.256,-5.337
0.302,0.044,0.259,-5.337
0.247,0.047,0.265,-5.337
0.198,0.045,0.268,-5.337
0.227,0.044,0.264,-5.337
0.218,0.047,0.265,-5.337
0.241,0.045,0.262,-5.337
0.197,0.048,0.261,-5.337
0.158,0.048,0.260,-5.337
0.215,0.044,0.263,-5.337
0.189,0.042,0.264,-5.337
0.104,0.048,0.265,-5.337
0.088,0.049,0.264,-5.337
0.140,0.048,0.261,-5.337
0.198,0.047,0.259,-5.337
0.229,0.046,0.262,-5.337
0.267,0.046,0.265,-5.337
0.278,0.047,0.264,-5.337
0.306,0.045,0.265,-5.337
0.302,0.043,0.260,-5.337
0.213,0.049,0.258,-5.337
0.207,0.047,0.258,-5.337
0.265,0.044,0.258,-5.337
0.236,0.042,0.259,-5.337
0.177,0.043,0.263,-5.337
0.185,0.045,0.262,-5.337
0.198,0.044,0.264,-5.337
0.196,0.045,0.266,-5.337
0.180,0.046,0.261,-5.337
0.200,0.043,0.262,-5.337
0.228,0.042,0.267,-5.337
0.182,0.040,0.269,-5.337
0.168,0.042,0.263,-5.337
0.180,0.043,0.260,-5.337
0.204,0.045,0.258,-5.337
0.187,0.050,0.258,-5.337
0.225,0.051,0.258,-5.337
0.272,0.050,0.255,-5.337
0.338,0.045,0.258,-5.337
0.294,0.044,0.262,-5.337
0.256,0.044,0.262,-5.337
0.224,0.048,0.263,-5.337
0.231,0.044,0.263,-5.337
0.239,0.044,0.263,-5.337
0.219,0.043,0.259,-5.337
0.198,0.046,0.256,-5.337
0.203,0.048,0.256,-5.337
0.216,0.051,0.258,-5.337
0.217,0.047,0.260,-5.337
0.219,0.047,0.262,-5.337
0.185,0.045,0.262,-5.337
0.202,0.048,0.264,-5.337
0.169,0.049,0.264,-5.337
0.142,0.053,0.264,-5.337
0.177,0.051,0.262,-5.337
0.187,0.049,0.258,-5.337
0.208,0.048,0.258,-5.337
0.185,0.050,0.259,-5.337
0.161,0.047,0.263,-5.337
0.217,0.042,0.263,-5.337
0.227,0.045,0.264,-5.337
0.182,0.048,0.262,-5.337
0.176,0.046,0.262,-5.337
0.207,0.044,0.262,-5.337
0.315,0.044,0.263,-5.337
0.337,0.044,0.262,-5.337
0.210,0.045,0.261,-5.337
0.149,0.044,0.258,-5.337
0.124,0.049,0.261,-5.337
0.080,0.051,0.258,-5.337
0.089,0.051,0.255,-5.337
0.153,0.047,0.260,-5.337
0.174,0.049,0.266,-5.337
0.144,0.051,0.267,-5.337
0.147,0.051,0.264,-5.337
0.162,0.048,0.259,-5.337
0.197,0.043,0.261,-5.337
0.226,0.042,0.260,-5.337
0.230,0.042,0.262,-5.337
0.191,0.044,0.264,-5.337
0.174,0.040,0.262,-5.337
0.206,0.042,0.259,-5.337
0.205,0.043,0.261,-5.337
0.199,0.042,0.265,-5.337
0.246,0.044,0.265,-5.337
0.278,0.049,0.266,-5.337
0.261,0.048,0.265,-5.337
0.223,0.047,0.264,-5.337
0.206,0.047,0.259,-5.337
0.154,0.049,0.258,-5.337
0.107,0.048,0.261,-5.337
0.169,0.045,0.259,-5.337
0.207,0.044,0.258,-5.337
0.230,0.045,0.262,-5.337
0.232,0.042,0.265,-5.337
0.235,0.042,0.264,-5.337
0.217,0.045,0.262,-5.337
0.241,0.042,0.261,-5.337
0.237,0.043,0.260,-5.337
0.234,0.041,0.262,-5.337
0.233,0.040,0.265,-5.337
0.233,0.042,0.263,-5.337
0.239,0.043,0.261,-5.337
0.249,0.045,0.259,-5.337
0.203,0.045,0.262,-5.337
0.194,0.041,0.265,-5.337
0.201,0.041,0.266,-5.337
0.242,0.042,0.264,-5.337
0.261,0.044,0.261,-5.337
0.173,0.047,0.256,-5.337
0.130,0.048,0.258,-5.337
0.104,0.046,0.263,-5.337
0.163,0.042,0.266,-5.337
0.170,0.038,0.264,-5.337
0.111,0.043,0.260,-5.337
0.084,0.046,0.258,-5.337
0.064,0.048,0.259,-5.337
0.090,0.045,0.259,-5.337
0.148,0.043,0.259,-5.337
0.164,0.039,0.263,-5.337
0.252,0.036,0.265,-5.337
0.251,0.042,0.265,-5.337
0.186,0.045,0.264,-5.337
0.214,0.043,0.257,-5.337
0.248,0.045,0.255,-5.337
0.237,0.044,0.261,-5.337
0.255,0.043,0.264,-5.337
0.270,0.044,0.265,-5.337
0.259,0.045,0.262,-5.337
0.197,0.045,0.261,-5.337
0.194,0.044,0.261,-5.337
0.210,0.044,0.263,-5.337
0.227,0.041,0.262,-5.337
0.254,0.041,0.265,-5.337
0.280,0.041,0.268,-5.337
0.212,0.044,0.266,-5.337
0.207,0.045,0.261,-5.337
0.215,0.042,0.259,-5.337
0.262,0.039,0.259,-5.337
0.268,0.041,0.260,-5.337
0.233,0.043,0.262,-5.337
0.188,0.051,0.261,-5.337
0.200,0.052,0.257,-5.337
0.178,0.049,0.258,-5.337
0.139,0.047,0.260,-5.337
0.167,0.048,0.259,-5.337
0.133,0.053,0.259,-5.337
0.128,0.054,0.260,-5.337
0.144,0.051,0.262,-5.337
0.182,0.048,0.263,-5.337
0.165,0.044,0.264,-5.337
0.123,0.042,0.265,-5.337
0.134,0.043,0.262,-5.337
0.234,0.042,0.260,-5.337
0.273,0.045,0.261,-5.337
0.232,0.048,0.264,-5.337
0.112,0.047,0.266,-5.337
0.112,0.044,0.262,-5.337
0.125,0.047,0.257,-5.337
0.109,0.049,0.258,-5.337
0.127,0.047,0.261,-5.337
0.153,0.045,0.263,-5.337
0.219,0.045,0.266,-5.337
0.250,0.047,0.268,-5.337
0.206,0.050,0.266,-5.337
0.175,0.052,0.264,-5.337
0.183,0.049,0.265,-5.337
0.170,0.048,0.265,-5.337
0.163,0.047,0.264,-5.337
0.129,0.049,0.265,-5.337
0.121,0.049,0.263,-5.337
0.135,0.048,0.261,-5.337
0.142,0.049,0.259,-5.337
0.140,0.051,0.259,-5.337
0.101,0.052,0.259,-5.337
0.108,0.048,0.257,-5.337
0.177,0.046,0.256,-5.337
0.241,0.049,0.258,-5.337
0.282,0.048,0.262,-5.337
0.241,0.048,0.262,-5.337
0.217,0.047,0.261,-5.337
0.202,0.049,0.260,-5.337
0.212,0.051,0.262,-5.337
0.221,0.051,0.265,-5.337
0.226,0.050,0.266,-5.337
0.214,0.050,0.262,-5.337
0.132,0.053,0.258,-5.337
0.106,0.054,0.259,-5.337
0.161,0.052,0.264,-5.337
0.182,0.052,0.265,-5.337
0.170,0.056,0.265,-5.337
0.102,0.058,0.262,-5.337
0.130,0.055,0.263,-5.337
0.178,0.055,0.264,-5.337
0.179,0.052,0.264,-5.337
0.166,0.052,0.262,-5.337
0.183,0.055,0.261,-5.337
0.190,0.055,0.263,-5.337
0.137,0.057,0.262,-5.337
0.097,0.055,0.262,-5.337
0.152,0.054,0.262,-5.337
0.168,0.054,0.265,-5.337
0.139,0.054,0.266,-5.337
0.138,0.054,0.264,-5.337
0.198,0.053,0.263,-5.337
0.284,0.052,0.259,-5.337
0.278,0.056,0.260,-5.337
0.202,0.056,0.259,-5.337
0.184,0.055,0.262,-5.337
0.188,0.056,0.264,-5.337
0.211,0.060,0.264,-5.337
0.194,0.060,0.266,-5.337
0.183,0.057,0.263,-5.337
0.200,0.054,0.265,-5.337
0.232,0.050,0.264,-5.337
0.225,0.052,0.262,-5.337
0.176,0.057,0.260,-5.337
0.123,0.058,0.264,-5.337
0.115,0.051,0.263,-5.337
0.188,0.053,0.261,-5.337
0.312,0.052,0.263,-5.337
0.259,0.055,0.268,-5.337
0.133,0.056,0.270,-5.337
0.131,0.052,0.270,-5.337
0.160,0.051,0.268,-5.337
0.153,0.056,0.267,-5.337
0.147,0.056,0.264,-5.337
0.210,0.053,0.264,-5.337
0.240,0.051,0.265,-5.337
0.269,0.049,0.261,-5.337
0.259,0.048,0.262,-5.337
0.265,0.046,0.263,-5.337
0.274,0.053,0.260,-5.337
0.221,0.056,0.260,-5.337
0.235,0.056,0.265,-5.337
0.209,0.058,0.265,-5.337
0.250,0.056,0.263,-5.337
0.266,0.050,0.266,-5.337
0.260,0.048,0.269,-5.337
0.161,0.054,0.268,-5.337
0.154,0.052,0.266,-5.337
0.159,0.049,0.260,-5.337
0.089,0.050,0.255,-5.337
0.079,0.053,0.254,-5.337
0.121,0.055,0.257,-5.337
0.159,0.054,0.260,-5.337
0.211,0.053,0.259,-5.337
0.237,0.053,0.256,-5.337
0.205,0.050,0.258,-5.337
0.248,0.048,0.263,-5.337
0.314,0.053,0.264,-5.337
0.247,0.056,0.267,-5.337
0.215,0.055,0.271,-5.337
0.244,0.055,0.272,-5.337
0.197,0.056,0.268,-5.337
0.092,0.060,0.265,-5.337
0.097,0.061,0.259,-5.337
0.122,0.058,0.257,-5.337
0.192,0.053,0.256,-5.337
0.256,0.052,0.258,-5.337
0.257,0.054,0.262,-5.337
0.213,0.059,0.267,-5.337
0.170,0.059,0.267,-5.337
0.203,0.056,0.264,-5.337
0.182,0.059,0.264,-5.337
0.158,0.061,0.266,-5.337
0.220,0.061,0.264,-5.337
0.237,0.057,0.261,-5.337
0.244,0.055,0.260,-5.337
0.253,0.057,0.261,-5.337
0.223,0.058,0.259,-5.337
0.156,0.062,0.258,-5.337
0.154,0.055,0.262,-5.337
0.166,0.052,0.266,-5.337
0.199,0.058,0.267,-5.337
0.236,0.057,0.267,-5.337
0.185,0.054,0.266,-5.337
0.143,0.053,0.264,-5.337
0.157,0.055,0.268,-5.337
0.180,0.056,0.271,-5.337
0.203,0.059,0.269,-5.337
0.277,0.057,0.262,-5.337
0.263,0.062,0.260,-5.337
0.219,0.058,0.261,-5.337
0.165,0.060,0.261,-5.337
0.149,0.061,0.260,-5.337
0.196,0.061,0.260,-5.337
0.174,0.062,0.260,-5.337
0.125,0.061,0.260,-5.337
0.166,0.055,0.261,-5.337
0.138,0.060,0.263,-5.337
0.063,0.063,0.264,-5.337
0.085,0.063,0.262,-5.337
0.092,0.063,0.264,-5.337
0.124,0.063,0.267,-5.337
0.180,0.060,0.270,-5.337
0.244,0.057,0.264,-5.337
0.222,0.057,0.261,-5.337
0.149,0.059,0.259,-5.337
0.161,0.062,0.262,-5.337
0.160,0.059,0.263,-5.337
0.233,0.056,0.264,-5.337
0.267,0.053,0.265,-5.337
0.259,0.052,0.265,-5.337
0.257,0.053,0.260,-5.337
0.213,0.057,0.257,-5.337
0.192,0.055,0.258,-5.337
0.168,0.060,0.262,-5.337
0.140,0.060,0.262,-5.337
0.179,0.054,0.262,-5.337
0.294,0.049,0.262,-5.337
0.273,0.056,0.261,-5.337
0.184,0.058,0.261,-5.337
0.152,0.062,0.260,-5.337
0.152,0.062,0.261,-5.337
0.167,0.061,0.265,-5.337
0.213,0.060,0.267,-5.337
0.171,0.058,0.265,-5.337
0.198,0.057,0.263,-5.337
0.279,0.057,0.261,-5.337
0.242,0.058,0.263,-5.337
0.198,0.060,0.263,-5.337
0.191,0.061,0.264,-5.337
0.148,0.060,0.260,-5.337
0.197,0.060,0.259,-5.337
0.194,0.060,0.260,-5.337
0.185,0.061,0.257,-5.337
0.203,0.061,0.255,-5.337
0.176,0.064,0.260,-5.337
0.205,0.065,0.265,-5.337
0.248,0.061,0.266,-5.337
0.181,0.064,0.260,-5.337
0.164,0.070,0.257,-5.337
0.239,0.064,0.262,-5.337
0.282,0.063,0.267,-5.337
0.244,0.066,0.267,-5.337
0.252,0.066,0.265,-5.337
0.277,0.066,0.262,-5.337
0.295,0.064,0.261,-5.337
0.270,0.062,0.261,-5.337
0.232,0.062,0.259,-5.337
0.146,0.067,0.259,-5.337
0.179,0.066,0.258,-5.337
0.228,0.067,0.261,-5.337
0.234,0.064,0.264,-5.337
0.240,0.062,0.269,-5.337
0.245,0.061,0.268,-5.337
0.220,0.061,0.263,-5.337
0.238,0.059,0.262,-5.337
0.222,0.060,0.264,-5.337
0.240,0.057,0.265,-5.337
0.216,0.058,0.266,-5.337
0.175,0.058,0.264,-5.337
0.150,0.057,0.262,-5.337
0.176,0.054,0.261,-5.337
0.183,0.056,0.261,-5.337
0.214,0.057,0.261,-5.337
0.203,0.059,0.259,-5.337
0.231,0.059,0.258,-5.337
0.255,0.056,0.258,-5.337
0.263,0.056,0.260,-5.337
0.212,0.061,0.262,-5.337
0.177,0.057,0.265,-5.337
0.207,0.058,0.262,-5.337
0.151,0.061,0.260,-5.337
0.142,0.057,0.257,-5.337
0.218,0.056,0.259,-5.337
0.188,0.057,0.262,-5.337
0.167,0.061,0.265,-5.337
0.204,0.060,0.267,-5.337
0.190,0.061,0.266,-5.337
0.192,0.059,0.262,-5.337
0.187,0.061,0.259,-5.337
0.130,0.061,0.260,-5.337
0.200,0.058,0.265,-5.337
0.185,0.060,0.267,-5.337
0.190,0.058,0.264,-5.337
0.220,0.060,0.260,-5.337
0.169,0.061,0.259,-5.337
0.193,0.056,0.264,-5.337
0.210,0.055,0.266,-5.337
0.241,0.053,0.267,-5.337
0.269,0.051,0.263,-5.337
0.223,0.055,0.259,-5.337
0.181,0.053,0.256,-5.337
0.204,0.052,0.259,-5.337
0.163,0.053,0.260,-5.337
0.146,0.054,0.260,-5.337
0.158,0.052,0.261,-5.337
0.202,0.054,0.261,-5.337
0.210,0.047,0.262,-5.337
0.281,0.044,0.262,-5.337
0.291,0.045,0.261,-5.337
0.229,0.047,0.261,-5.337
0.206,0.048,0.264,-5.337
0.228,0.047,0.264,-5.337
0.300,0.043,0.263,-5.337
0.223,0.049,0.263,-5.337
0.189,0.050,0.262,-5.337
0.234,0.051,0.262,-5.337
0.217,0.052,0.264,-5.337
0.179,0.052,0.267,-5.337
0.230,0.051,0.268,-5.337
0.259,0.048,0.263,-5.337
0.234,0.048,0.259,-5.337
0.194,0.051,0.261,-5.337
0.222,0.051,0.262,-5.337
0.244,0.045,0.259,-5.337
0.222,0.048,0.258,-5.337
0.247,0.049,0.259,-5.337
0.207,0.054,0.262,-5.337
0.142,0.054,0.265,-5.337
0.201,0.052,0.264,-5.337
0.252,0.051,0.262,-5.337
0.227,0.050,0.262,-5.337
0.228,0.049,0.263,-5.337
0.240,0.048,0.264,-5.337
0.258,0.046,0.261,-5.337
0.239,0.048,0.260,-5.337
0.176,0.050,0.260,-5.337
0.183,0.047,0.256,-5.337
0.164,0.052,0.255,-5.337
0.121,0.057,0.257,-5.337
0.157,0.053,0.263,-5.337
0.285,0.047,0.270,-5.337
0.296,0.049,0.271,-5.337
0.315,0.048,0.264,-5.337
0.279,0.047,0.263,-5.337
0.255,0.043,0.264,-5.337
0.259,0.048,0.263,-5.337
0.257,0.050,0.261,-5.337
0.253,0.047,0.263,-5.337
0.217,0.044,0.267,-5.337
0.202,0.041,0.267,-5.337
0.185,0.038,0.262,-5.337
0.221,0.039,0.261,-5.337
0.267,0.039,0.265,-5.337
0.268,0.041,0.269,-5.337
0.240,0.046,0.266,-5.337
0.238,0.047,0.258,-5.337
0.211,0.048,0.258,-5.337
0.167,0.048,0.257,-5.337
0.216,0.044,0.262,-5.337
0.275,0.042,0.266,-5.337
0.301,0.043,0.265,-5.337
0.230,0.046,0.261,-5.337
0.172,0.045,0.256,-5.337
0.198,0.041,0.253,-5.337
0.229,0.042,0.258,-5.337
0.201,0.044,0.262,-5.337
0.176,0.045,0.266,-5.337
0.184,0.048,0.267,-5.337
0.187,0.048,0.266,-5.337
0.167,0.046,0.262,-5.337
0.163,0.047,0.262,-5.337
0.226,0.042,0.262,-5.337
0.221,0.043,0.267,-5.337
0.200,0.047,0.269,-5.337
0.233,0.048,0.266,-5.337
0.233,0.048,0.261,-5.337
0.214,0.047,0.259,-5.337
0.238,0.046,0.263,-5.337
0.234,0.044,0.262,-5.337
0.230,0.041,0.262,-5.337
0.192,0.044,0.262,-5.337
0.121,0.045,0.262,-5.337
0.112,0.042,0.264,-5.337
0.197,0.040,0.266,-5.337
0.219,0.042,0.265,-5.337
0.154,0.043,0.265,-5.337
0.178,0.042,0.265,-5.337
0.289,0.045,0.267,-5.337
0.261,0.048,0.263,-5.337
0.203,0.047,0.261,-5.337
0.191,0.042,0.259,-5.337
0.277,0.039,0.260,-5.337
0.261,0.039,0.263,-5.337
0.232,0.042,0.265,-5.337
0.200,0.044,0.262,-5.337
0.159,0.045,0.261,-5.337
0.135,0.044,0.261,-5.337
0.126,0.043,0.262,-5.337
0.156,0.042,0.265,-5.337
0.224,0.041,0.264,-5.337
0.214,0.040,0.265,-5.337
0.191,0.042,0.265,-5.337
0.183,0.041,0.264,-5.337
0.195,0.040,0.260,-5.337
0.268,0.037,0.262,-5.337
0.262,0.039,0.261,-5.337
0.160,0.044,0.263,-5.337
0.143,0.043,0.262,-5.337
0.203,0.043,0.261,-5.337
0.254,0.042,0.263,-5.337
0.225,0.042,0.265,-5.337
0.203,0.038,0.266,-5.337
0.232,0.039,0.267,-5.337
0.245,0.038,0.266,-5.337
0.187,0.041,0.262,-5.337
0.129,0.042,0.262,-5.337
0.170,0.043,0.267,-5.337
0.201,0.040,0.268,-5.337
0.131,0.040,0.270,-5.337
0.107,0.038,0.269,-5.337
0.157,0.039,0.260,-5.337
0.177,0.043,0.253,-5.337
0.187,0.043,0.255,-5.337
0.223,0.040,0.261,-5.337
0.240,0.038,0.268,-5.337
0.250,0.041,0.272,-5.337
0.229,0.042,0.269,-5.337
0.171,0.040,0.264,-5.337
0.147,0.042,0.259,-5.337
0.200,0.043,0.262,-5.337
0.219,0.043,0.265,-5.337
0.223,0.046,0.266,-5.337
0.230,0.044,0.264,-5.337
0.170,0.044,0.263,-5.337
0.150,0.042,0.264,-5.337
0.132,0.046,0.268,-5.337
0.183,0.044,0.268,-5.337
0.245,0.041,0.267,-5.337
0.249,0.038,0.267,-5.337
0.203,0.042,0.264,-5.337
0.161,0.042,0.262,-5.337
0.184,0.042,0.264,-5.337
0.192,0.041,0.265,-5.337
0.151,0.041,0.261,-5.337
0.145,0.041,0.262,-5.337
0.162,0.044,0.264,-5.337
0.146,0.045,0.267,-5.337
0.163,0.044,0.264,-5.337
0.242,0.041,0.261,-5.337
0.196,0.045,0.260,-5.337
0.131,0.044,0.262,-5.337
0.114,0.042,0.261,-5.337
0.150,0.042,0.265,-5.337
0.186,0.039,0.266,-5.337
0.259,0.036,0.264,-5.337
0.324,0.037,0.260,-5.337
0.318,0.038,0.259,-5.337
0.208,0.041,0.263,-5.337
0.207,0.036,0.268,-5.337
0.250,0.034,0.269,-5.337
0.245,0.039,0.268,-5.337
0.165,0.044,0.263,-5.337
0.174,0.040,0.261,-5.337
0.172,0.039,0.262,-5.337
0.191,0.039,0.265,-5.337
0.197,0.041,0.262,-5.337
0.232,0.041,0.259,-5.337
0.244,0.038,0.261,-5.337
0.210,0.038,0.261,-5.337
0.226,0.037,0.260,-5.337
0.224,0.036,0.262,-5.337
0.229,0.037,0.265,-5.337
0.234,0.038,0.264,-5.337
0.184,0.041,0.261,-5.337
0.151,0.040,0.261,-5.337
0.127,0.039,0.261,-5.337
0.154,0.039,0.262,-5.337
0.238,0.039,0.262,-5.337
0.233,0.038,0.263,-5.337
0.192,0.035,0.265,-5.337
0.232,0.037,0.262,-5.337
0.257,0.037,0.261,-5.337
0.204,0.041,0.262,-5.337
0.157,0.042,0.264,-5.337
0.191,0.035,0.269,-5.337
0.247,0.031,0.267,-5.337
0.255,0.034,0.265,-5.337
0.219,0.043,0.264,-5.337
0.189,0.043,0.265,-5.337
0.250,0.036,0.263,-5.337
0.239,0.037,0.264,-5.337
0.193,0.036,0.261,-5.337
0.223,0.037,0.260,-5.337
0.247,0.040,0.260,-5.337
0.212,0.042,0.262,-5.337
0.206,0.037,0.263,-5.337
0.235,0.033,0.262,-5.337
0.186,0.037,0.260,-5.337
0.190,0.034,0.257,-5.337
0.295,0.032,0.256,-5.337
0.257,0.038,0.259,-5.337
0.175,0.040,0.261,-5.337
0.196,0.042,0.260,-5.337
0.259,0.035,0.261,-5.337
0.223,0.032,0.260,-5.337
0.170,0.037,0.262,-5.337
0.174,0.042,0.263,-5.337
0.138,0.044,0.267,-5.337
0.196,0.038,0.267,-5.337
0.235,0.037,0.262,-5.337
0.206,0.035,0.256,-5.337
0.184,0.038,0.256,-5.337
0.155,0.039,0.257,-5.337
0.164,0.040,0.262,-5.337
0.143,0.041,0.263,-5.337
0.150,0.040,0.265,-5.337
0.212,0.039,0.263,-5.337
0.218,0.041,0.264,-5.337
0.199,0.042,0.262,-5.337
0.174,0.046,0.258,-5.337
0.203,0.045,0.258,-5.337
0.261,0.040,0.260,-5.337
0.246,0.036,0.263,-5.337
0.230,0.039,0.265,-5.337
0.224,0.040,0.266,-5.337
0.211,0.038,0.267,-5.337
0.237,0.035,0.264,-5.337
0.236,0.035,0.262,-5.337
0.197,0.036,0.264,-5.337
0.181,0.033,0.264,-5.337
0.205,0.030,0.261,-5.337
0.167,0.032,0.256,-5.337
0.160,0.034,0.261,-5.337
0.218,0.034,0.265,-5.337
0.233,0.035,0.264,-5.337
0.180,0.036,0.259,-5.337
0.139,0.038,0.256,-5.337
0.185,0.036,0.256,-5.337
0.258,0.032,0.261,-5.337
0.298,0.028,0.262,-5.337
0.248,0.032,0.262,-5.337
0.156,0.038,0.265,-5.337
0.134,0.035,0.266,-5.337
0.185,0.036,0.265,-5.337
0.249,0.039,0.263,-5.337
0.271,0.038,0.261,-5.337
0.223,0.037,0.261,-5.337
0.180,0.035,0.263,-5.337
0.180,0.035,0.263,-5.337
0.178,0.036,0.264,-5.337
0.196,0.035,0.262,-5.337
0.178,0.036,0.261,-5.337
0.177,0.038,0.259,-5.337
0.202,0.037,0.263,-5.337
0.191,0.036,0.265,-5.337
0.131,0.038,0.265,-5.337
0.132,0.039,0.263,-5.337
0.182,0.041,0.263,-5.337
0.216,0.039,0.261,-5.337
0.204,0.041,0.260,-5.337
0.124,0.045,0.260,-5.337
0.159,0.040,0.262,-5.337
0.190,0.043,0.260,-5.337
0.179,0.045,0.256,-5.337
0.238,0.041,0.256,-5.337
0.242,0.037,0.260,-5.337
0.192,0.039,0.263,-5.337
0.190,0.039,0.265,-5.337
0.180,0.041,0.264,-5.337
0.141,0.040,0.260,-5.337
0.171,0.039,0.256,-5.337
0.165,0.044,0.258,-5.337
0.080,0.049,0.261,-5.337
0.117,0.042,0.260,-5.337
0.212,0.037,0.262,-5.337
0.231,0.041,0.261,-5.337
0.139,0.046,0.262,-5.337
0.098,0.044,0.262,-5.337
0.172,0.039,0.261,-5.337
0.168,0.043,0.264,-5.337
0.207,0.044,0.265,-5.337
0.231,0.042,0.261,-5.337
0.225,0.046,0.260,-5.337
0.213,0.045,0.263,-5.337
0.237,0.041,0.263,-5.337
0.239,0.039,0.263,-5.337
0.226,0.040,0.263,-5.337
0.243,0.042,0.262,-5.337
0.236,0.042,0.261,-5.337
0.178,0.043,0.260,-5.337
0.139,0.046,0.262,-5.337
0.136,0.046,0.266,-5.337
0.164,0.043,0.266,-5.337
0.109,0.045,0.264,-5.337
0.068,0.046,0.262,-5.337
0.128,0.042,0.261,-5.337
0.201,0.042,0.260,-5.337
0.157,0.043,0.264,-5.337
0.168,0.044,0.266,-5.337
0.112,0.048,0.263,-5.337
0.098,0.049,0.260,-5.337
0.211,0.048,0.262,-5.337
0.274,0.045,0.258,-5.337
0.277,0.043,0.255,-5.337
0.245,0.043,0.256,-5.337
0.178,0.045,0.259,-5.337
0.187,0.047,0.259,-5.337
0.189,0.047,0.264,-5.337
0.179,0.047,0.267,-5.337
0.187,0.053,0.266,-5.337
0.222,0.050,0.264,-5.337
0.241,0.049,0.263,-5.337
0.217,0.051,0.261,-5.337
0.232,0.049,0.257,-5.337
0.216,0.054,0.258,-5.337
0.213,0.054,0.264,-5.337
0.227,0.049,0.268,-5.337
0.228,0.049,0.269,-5.337
0.226,0.050,0.269,-5.337
0.238,0.046,0.264,-5.337
0.201,0.051,0.259,-5.337
0.122,0.052,0.257,-5.337
0.109,0.052,0.256,-5.337
0.169,0.046,0.257,-5.337
0.245,0.044,0.258,-5.337
0.289,0.043,0.259,-5.337
0.266,0.043,0.259,-5.337
0.205,0.047,0.259,-5.337
0.167,0.049,0.259,-5.337
0.197,0.051,0.260,-5.337
0.250,0.051,0.265,-5.337
0.172,0.052,0.266,-5.337
0.136,0.048,0.267,-5.337
0.157,0.047,0.265,-5.337
0.149,0.048,0.261,-5.337
0.068,0.054,0.260,-5.337
0.029,0.054,0.263,-5.337
0.161,0.049,0.266,-5.337
0.230,0.049,0.266,-5.337
0.161,0.053,0.265,-5.337
0.174,0.048,0.260,-5.337
0.226,0.048,0.262,-5.337
0.210,0.049,0.261,-5.337
0.121,0.055,0.259,-5.337
0.064,0.052,0.258,-5.337
0.154,0.047,0.261,-5.337
0.244,0.048,0.263,-5.337
0.254,0.052,0.262,-5.337
0.220,0.051,0.265,-5.337
0.180,0.052,0.267,-5.337
0.169,0.051,0.265,-5.337
0.163,0.050,0.261,-5.337
0.204,0.049,0.261,-5.337
0.227,0.053,0.263,-5.337
0.166,0.056,0.263,-5.337
0.130,0.054,0.259,-5.337
0.115,0.056,0.260,-5.337
0.131,0.053,0.263,-5.337
0.239,0.048,0.263,-5.337
0.277,0.049,0.260,-5.337
0.208,0.053,0.261,-5.337
0.158,0.055,0.266,-5.337
0.210,0.052,0.269,-5.337
0.229,0.051,0.266,-5.337
0.268,0.050,0.266,-5.337
0.238,0.052,0.264,-5.337
0.215,0.050,0.263,-5.337
0.227,0.051,0.261,-5.337
0.220,0.050,0.262,-5.337
0.183,0.054,0.263,-5.337
0.156,0.057,0.264,-5.337
0.204,0.056,0.265,-5.337
0.281,0.053,0.264,-5.337
0.267,0.054,0.261,-5.337
0.229,0.055,0.258,-5.337
0.160,0.055,0.257,-5.337
0.129,0.056,0.257,-5.337
0.183,0.057,0.263,-5.337
0.209,0.058,0.268,-5.337
0.260,0.057,0.270,-5.337
0.299,0.055,0.269,-5.337
0.296,0.055,0.266,-5.337
0.279,0.053,0.263,-5.337
0.267,0.057,0.264,-5.337
0.193,0.059,0.264,-5.337
0.197,0.061,0.262,-5.337
0.204,0.056,0.262,-5.337
0.244,0.054,0.264,-5.337
0.210,0.053,0.265,-5.337
0.166,0.050,0.267,-5.337
0.189,0.050,0.268,-5.337
0.197,0.056,0.263,-5.337
0.198,0.059,0.259,-5.337
0.145,0.058,0.263,-5.337
0.129,0.057,0.268,-5.337
0.181,0.059,0.268,-5.337
0.233,0.060,0.269,-5.337
0.252,0.060,0.267,-5.337
0.230,0.058,0.264,-5.337
0.172,0.057,0.264,-5.337
0.163,0.055,0.266,-5.337
0.191,0.055,0.264,-5.337
0.199,0.059,0.261,-5.337
0.217,0.060,0.261,-5.337
0.180,0.064,0.264,-5.337
0.149,0.064,0.267,-5.337
0.166,0.060,0.265,-5.337
0.257,0.055,0.261,-5.337
0.273,0.059,0.262,-5.337
0.230,0.063,0.264,-5.337
0.192,0.067,0.263,-5.337
0.134,0.065,0.261,-5.337
0.166,0.065,0.265,-5.337
0.180,0.066,0.267,-5.337
0.120,0.066,0.264,-5.337
0.098,0.065,0.261,-5.337
0.184,0.062,0.264,-5.337
0.228,0.061,0.268,-5.337
0.217,0.061,0.268,-5.337
0.191,0.061,0.262,-5.337
0.147,0.061,0.262,-5.337
0.183,0.063,0.263,-5.337
0.207,0.063,0.261,-5.337
0.231,0.060,0.264,-5.337
0.302,0.060,0.269,-5.337
0.326,0.060,0.270,-5.337
0.278,0.062,0.268,-5.337
0.269,0.065,0.266,-5.337
0.278,0.064,0.266,-5.337
0.253,0.067,0.268,-5.337
0.194,0.066,0.266,-5.337
0.130,0.065,0.261,-5.337
0.151,0.063,0.257,-5.337
0.192,0.063,0.256,-5.337
0.225,0.063,0.259,-5.337
0.220,0.065,0.265,-5.337
0.157,0.067,0.267,-5.337
0.197,0.065,0.266,-5.337
0.243,0.065,0.263,-5.337
0.234,0.066,0.261,-5.337
0.200,0.067,0.258,-5.337
0.164,0.064,0.260,-5.337
0.169,0.061,0.265,-5.337
0.170,0.062,0.263,-5.337
0.174,0.064,0.263,-5.337
0.226,0.066,0.265,-5.337
0.227,0.067,0.266,-5.337
0.207,0.068,0.266,-5.337
0.219,0.067,0.269,-5.337
0.223,0.066,0.266,-5.337
0.261,0.062,0.262,-5.337
0.216,0.063,0.259,-5.337
0.219,0.065,0.259,-5.337
0.201,0.068,0.260,-5.337
0.220,0.070,0.265,-5.337
0.226,0.067,0.266,-5.337
0.186,0.066,0.266,-5.337
0.199,0.066,0.265,-5.337
0.216,0.066,0.264,-5.337
0.225,0.064,0.264,-5.337
0.210,0.068,0.262,-5.337
0.209,0.067,0.258,-5.337
0.239,0.064,0.257,-5.337
0.216,0.063,0.263,-5.337
0.221,0.063,0.262,-5.337
0.239,0.061,0.260,-5.337
0.220,0.063,0.259,-5.337
0.188,0.067,0.264,-5.337
0.165,0.067,0.264,-5.337
0.164,0.066,0.264,-5.337
0.217,0.062,0.263,-5.337
0.187,0.060,0.264,-5.337
0.125,0.064,0.261,-5.337
0.149,0.067,0.259,-5.337
0.180,0.064,0.261,-5.337
0.185,0.062,0.263,-5.337
0.174,0.062,0.262,-5.337
0.189,0.060,0.261,-5.337
0.236,0.060,0.262,-5.337
0.240,0.059,0.264,-5.337
0.246,0.059,0.263,-5.337
0.221,0.060,0.264,-5.337
0.175,0.059,0.265,-5.337
0.193,0.061,0.263,-5.337
0.195,0.062,0.263,-5.337
0.219,0.061,0.262,-5.337
0.212,0.061,0.263,-5.337
0.165,0.067,0.265,-5.337
0.150,0.068,0.264,-5.337
0.231,0.059,0.261,-5.337
0.284,0.057,0.260,-5.337
0.311,0.054,0.258,-5.337
0.292,0.058,0.260,-5.337
0.216,0.062,0.264,-5.337
0.213,0.062,0.267,-5.337
0.244,0.056,0.268,-5.337
0.237,0.056,0.267,-5.337
0.194,0.058,0.264,-5.337
0.204,0.056,0.263,-5.337
0.237,0.054,0.261,-5.337
0.213,0.056,0.262,-5.337
0.201,0.057,0.260,-5.337
0.255,0.058,0.258,-5.337
0.234,0.059,0.259,-5.337
0.228,0.056,0.260,-5.337
0.204,0.056,0.264,-5.337
0.210,0.054,0.264,-5.337
0.201,0.051,0.261,-5.337
0.215,0.052,0.256,-5.337
0.231,0.057,0.256,-5.337
0.181,0.059,0.259,-5.337
0.182,0.058,0.262,-5.337
0.242,0.057,0.261,-5.337
0.233,0.057,0.262,-5.337
0.204,0.055,0.265,-5.337
0.243,0.054,0.268,-5.337
0.251,0.056,0.269,-5.337
0.192,0.057,0.269,-5.337
0.201,0.053,0.267,-5.337
0.235,0.053,0.267,-5.337
0.269,0.053,0.265,-5.337
0.261,0.052,0.261,-5.337
0.245,0.052,0.257,-5.337
0.275,0.057,0.256,-5.337
0.212,0.060,0.261,-5.337
0.181,0.056,0.263,-5.337
0.191,0.053,0.265,-5.337
0.205,0.054,0.264,-5.337
0.209,0.054,0.263,-5.337
0.184,0.053,0.264,-5.337
0.186,0.053,0.264,-5.337
0.238,0.050,0.261,-5.337
0.268,0.050,0.260,-5.337
0.231,0.050,0.262,-5.337
0.212,0.046,0.266,-5.337
0.200,0.045,0.265,-5.337
0.216,0.046,0.266,-5.337
0.257,0.044,0.265,-5.337
0.250,0.048,0.266,-5.337
0.237,0.048,0.263,-5.337
0.214,0.050,0.260,-5.337
0.202,0.049,0.259,-5.337
0.217,0.046,0.259,-5.337
0.267,0.044,0.259,-5.337
0.224,0.045,0.263,-5.337
0.189,0.048,0.264,-5.337
0.179,0.050,0.266,-5.337
0.101,0.054,0.264,-5.337
0.065,0.054,0.261,-5.337
0.100,0.054,0.261,-5.337
0.154,0.051,0.262,-5.337
0.219,0.050,0.268,-5.337
0.215,0.052,0.266,-5.337
0.232,0.048,0.263,-5.337
0.288,0.047,0.262,-5.337
0.310,0.047,0.265,-5.337
0.334,0.045,0.266,-5.337
0.240,0.050,0.265,-5.337
0.208,0.050,0.265,-5.337
0.204,0.051,0.264,-5.337
0.217,0.043,0.262,-5.337
0.241,0.042,0.259,-5.337
0.180,0.046,0.260,-5.337
0.197,0.049,0.264,-5.337
0.195,0.054,0.265,-5.337
0.245,0.052,0.268,-5.337
0.311,0.047,0.271,-5.337
0.281,0.047,0.268,-5.337
0.179,0.052,0.265,-5.337
0.139,0.048,0.262,-5.337
0.174,0.047,0.261,-5.337
0.223,0.048,0.261,-5.337
0.230,0.047,0.261,-5.337
0.182,0.047,0.257,-5.337
0.175,0.048,0.261,-5.337
0.252,0.046,0.261,-5.337
0.258,0.045,0.262,-5.337
0.291,0.044,0.262,-5.337
0.266,0.047,0.262,-5.337
0.168,0.048,0.263,-5.337
0.126,0.048,0.266,-5.337
0.161,0.049,0.264,-5.337
0.192,0.049,0.264,-5.337
0.236,0.046,0.265,-5.337
0.262,0.047,0.264,-5.337
0.295,0.047,0.262,-5.337
0.295,0.045,0.262,-5.337
0.250,0.046,0.259,-5.337
0.247,0.045,0.255,-5.337
0.255,0.044,0.257,-5.337
0.288,0.041,0.261,-5.337
0.295,0.039,0.266,-5.337
0.207,0.040,0.264,-5.337
0.127,0.045,0.266,-5.337
0.125,0.043,0.267,-5.337
0.165,0.043,0.266,-5.337
0.237,0.040,0.265,-5.337
0.227,0.042,0.267,-5.337
0.151,0.046,0.268,-5.337
0.138,0.046,0.264,-5.337
0.187,0.043,0.260,-5.337
0.182,0.041,0.260,-5.337
0.146,0.041,0.261,-5.337
0.132,0.037,0.261,-5.337
0.215,0.036,0.263,-5.337
0.301,0.035,0.266,-5.337
0.261,0.036,0.265,-5.337
0.183,0.040,0.265,-5.337
0.153,0.042,0.268,-5.337
0.173,0.043,0.269,-5.337
0.172,0.043,0.270,-5.337
0.186,0.044,0.270,-5.337
0.231,0.044,0.269,-5.337
0.288,0.044,0.265,-5.337
0.270,0.047,0.263,-5.337
0.178,0.048,0.261,-5.337
0.157,0.048,0.263,-5.337
0.150,0.046,0.262,-5.337
0.188,0.046,0.260,-5.337
0.281,0.041,0.259,-5.337
0.304,0.042,0.258,-5.337
0.236,0.044,0.260,-5.337
0.247,0.047,0.262,-5.337
0.299,0.046,0.263,-5.337
0.331,0.042,0.263,-5.337
0.298,0.043,0.263,-5.337
0.201,0.045,0.263,-5.337
0.160,0.046,0.267,-5.337
0.192,0.044,0.270,-5.337
0.238,0.043,0.267,-5.337
0.237,0.046,0.263,-5.337
0.221,0.047,0.263,-5.337
0.198,0.047,0.264,-5.337
0.167,0.046,0.266,-5.337
0.141,0.048,0.262,-5.337
0.140,0.048,0.263,-5.337
0.184,0.045,0.265,-5.337
0.239,0.044,0.269,-5.337
0.175,0.046,0.269,-5.337
0.100,0.045,0.269,-5.337
0.121,0.044,0.265,-5.337
0.230,0.038,0.261,-5.337
0.250,0.038,0.261,-5.337
0.208,0.041,0.264,-5.337
0.200,0.041,0.265,-5.337
0.241,0.039,0.262,-5.337
0.282,0.037,0.262,-5.337
0.322,0.036,0.263,-5.337
0.262,0.040,0.265,-5.337
0.173,0.038,0.267,-5.337
0.139,0.040,0.262,-5.337
0.178,0.043,0.259,-5.337
0.153,0.044,0.261,-5.337
0.142,0.041,0.267,-5.337
0.143,0.041,0.266,-5.337
0.115,0.042,0.262,-5.337
0.149,0.044,0.260,-5.337
0.150,0.042,0.260,-5.337
0.152,0.044,0.266,-5.337
0.157,0.044,0.269,-5.337
0.187,0.046,0.271,-5.337
0.230,0.043,0.269,-5.337
0.220,0.044,0.265,-5.337
0.260,0.043,0.262,-5.337
0.270,0.044,0.262,-5.337
0.215,0.042,0.265,-5.337
0.209,0.041,0.267,-5.337
0.213,0.040,0.265,-5.337
0.187,0.042,0.266,-5.337
0.158,0.044,0.264,-5.337
0.180,0.041,0.264,-5.337
0.162,0.039,0.264,-5.337
0.134,0.039,0.266,-5.337
0.155,0.036,0.267,-5.337
0.184,0.038,0.266,-5.337
0.148,0.045,0.265,-5.337
0.161,0.043,0.264,-5.337
0.219,0.040,0.265,-5.337
0.140,0.046,0.264,-5.337
0.102,0.045,0.265,-5.337
0.148,0.039,0.267,-5.337
0.160,0.039,0.271,-5.337
0.176,0.042,0.266,-5.337
0.196,0.043,0.262,-5.337
0.230,0.040,0.263,-5.337
0.244,0.042,0.266,-5.337
0.206,0.043,0.264,-5.337
0.165,0.042,0.262,-5.337
0.149,0.043,0.264,-5.337
0.188,0.040,0.268,-5.337
0.252,0.038,0.268,-5.337
0.259,0.044,0.269,-5.337
0.197,0.046,0.268,-5.337
0.144,0.045,0.265,-5.337
0.127,0.047,0.264,-5.337
0.167,0.045,0.265,-5.337
0.203,0.043,0.267,-5.337
0.187,0.045,0.267,-5.337
0.140,0.042,0.266,-5.337
0.181,0.040,0.261,-5.337
0.233,0.042,0.257,-5.337
0.258,0.040,0.259,-5.337
0.207,0.044,0.264,-5.337
0.188,0.044,0.264,-5.337
0.188,0.047,0.263,-5.337
0.189,0.044,0.257,-5.337
0.253,0.041,0.258,-5.337
0.305,0.038,0.262,-5.337
0.270,0.044,0.264,-5.337
0.183,0.046,0.262,-5.337
0.140,0.047,0.262,-5.337
0.174,0.044,0.262,-5.337
0.197,0.043,0.263,-5.337
0.181,0.044,0.264,-5.337
0.234,0.042,0.266,-5.337
0.224,0.044,0.266,-5.337
0.153,0.042,0.267,-5.337
0.161,0.041,0.267,-5.337
0.190,0.042,0.264,-5.337
0.187,0.045,0.264,-5.337
0.150,0.044,0.264,-5.337
0.153,0.040,0.265,-5.337
0.216,0.039,0.264,-5.337
0.166,0.042,0.266,-5.337
0.168,0.040,0.266,-5.337
0.222,0.041,0.264,-5.337
0.190,0.043,0.261,-5.337
0.177,0.037,0.259,-5.337
0.204,0.034,0.257,-5.337
0.169,0.039,0.259,-5.337
0.219,0.040,0.262,-5.337
0.278,0.042,0.264,-5.337
0.256,0.042,0.261,-5.337
0.192,0.040,0.260,-5.337
0.194,0.041,0.263,-5.337
0.142,0.044,0.265,-5.337
0.198,0.041,0.268,-5.337
0.258,0.041,0.270,-5.337
0.276,0.041,0.269,-5.337
0.220,0.041,0.267,-5.337
0.178,0.039,0.263,-5.337
0.163,0.039,0.257,-5.337
0.106,0.040,0.259,-5.337
0.087,0.042,0.261,-5.337
0.197,0.041,0.264,-5.337
0.251,0.042,0.262,-5.337
0.191,0.043,0.260,-5.337
0.142,0.043,0.262,-5.337
0.165,0.043,0.267,-5.337
0.217,0.043,0.268,-5.337
0.193,0.046,0.265,-5.337
0.142,0.045,0.262,-5.337
0.147,0.043,0.259,-5.337
0.185,0.040,0.259,-5.337
0.086,0.047,0.262,-5.337
0.059,0.048,0.265,-5.337
0.124,0.047,0.267,-5.337
0.160,0.046,0.266,-5.337
0.188,0.046,0.264,-5.337
0.238,0.047,0.263,-5.337
0.276,0.044,0.259,-5.337
0.240,0.043,0.260,-5.337
0.166,0.046,0.261,-5.337
0.170,0.047,0.262,-5.337
0.161,0.047,0.261,-5.337
0.173,0.047,0.265,-5.337
0.156,0.047,0.261,-5.337
0.132,0.049,0.260,-5.337
0.161,0.050,0.261,-5.337
0.180,0.051,0.263,-5.337
0.197,0.047,0.263,-5.337
0.148,0.047,0.264,-5.337
0.147,0.049,0.264,-5.337
0.190,0.049,0.263,-5.337
0.224,0.048,0.265,-5.337
0.143,0.051,0.265,-5.337
0.061,0.053,0.260,-5.337
0.118,0.051,0.260,-5.337
0.190,0.049,0.262,-5.337
0.204,0.043,0.264,-5.337
0.191,0.043,0.262,-5.337
0.205,0.044,0.259,-5.337
0.186,0.046,0.259,-5.337
0.132,0.047,0.261,-5.337
0.078,0.048,0.263,-5.337
0.176,0.045,0.264,-5.337
0.239,0.047,0.267,-5.337
0.227,0.044,0.267,-5.337
0.201,0.045,0.266,-5.337
0.196,0.050,0.263,-5.337
0.172,0.051,0.263,-5.337
0.199,0.052,0.263,-5.337
0.203,0.051,0.263,-5.337
0.129,0.053,0.262,-5.337
0.174,0.050,0.261,-5.337
0.178,0.051,0.258,-5.337
0.120,0.054,0.257,-5.337
0.174,0.052,0.258,-5.337
0.157,0.052,0.262,-5.337
0.133,0.048,0.264,-5.337
0.164,0.044,0.263,-5.337
0.221,0.043,0.263,-5.337
0.209,0.048,0.267,-5.337
0.148,0.048,0.267,-5.337
0.194,0.043,0.263,-5.337
0.243,0.044,0.266,-5.337
0.233,0.045,0.267,-5.337
0.242,0.048,0.264,-5.337
0.267,0.049,0.259,-5.337
0.251,0.051,0.256,-5.337
0.266,0.051,0.255,-5.337
0.238,0.051,0.260,-5.337
0.184,0.052,0.263,-5.337
0.150,0.056,0.265,-5.337
0.113,0.056,0.267,-5.337
0.147,0.052,0.266,-5.337
0.226,0.050,0.264,-5.337
0.268,0.047,0.263,-5.337
0.218,0.052,0.263,-5.337
0.161,0.057,0.267,-5.337
0.115,0.058,0.267,-5.337
0.150,0.057,0.262,-5.337
0.208,0.054,0.256,-5.337
0.151,0.052,0.254,-5.337
0.074,0.056,0.257,-5.337
0.117,0.055,0.260,-5.337
0.223,0.050,0.266,-5.337
0.229,0.055,0.269,-5.337
0.165,0.057,0.267,-5.337
0.177,0.051,0.264,-5.337
0.215,0.052,0.262,-5.337
0.244,0.049,0.264,-5.337
0.297,0.048,0.266,-5.337
0.282,0.048,0.267,-5.337
0.271,0.050,0.265,-5.337
0.252,0.053,0.264,-5.337
0.225,0.056,0.261,-5.337
0.211,0.057,0.259,-5.337
0.202,0.054,0.262,-5.337
0.240,0.054,0.260,-5.337
0.178,0.057,0.257,-5.337
0.142,0.059,0.258,-5.337
0.177,0.058,0.262,-5.337
0.230,0.058,0.267,-5.337
0.180,0.059,0.267,-5.337
0.127,0.057,0.266,-5.337
0.199,0.056,0.264,-5.337
0.268,0.056,0.267,-5.337
0.303,0.055,0.265,-5.337
0.266,0.058,0.265,-5.337
0.209,0.058,0.264,-5.337
0.145,0.063,0.264,-5.337
0.127,0.064,0.259,-5.337
0.176,0.062,0.256,-5.337
0.165,0.060,0.256,-5.337
0.199,0.057,0.259,-5.337
0.241,0.055,0.261,-5.337
0.166,0.059,0.263,-5.337
0.125,0.060,0.263,-5.337
0.170,0.057,0.261,-5.337
0.280,0.055,0.261,-5.337
0.257,0.056,0.263,-5.337
0.162,0.058,0.262,-5.337
0.185,0.056,0.263,-5.337
0.221,0.055,0.265,-5.337
0.205,0.053,0.265,-5.337
0.147,0.057,0.265,-5.337
0.102,0.060,0.263,-5.337
0.139,0.058,0.261,-5.337
0.225,0.058,0.259,-5.337
0.210,0.061,0.258,-5.337
0.179,0.064,0.258,-5.337
0.118,0.063,0.258,-5.337
0.141,0.058,0.260,-5.337
0.220,0.058,0.267,-5.337
0.201,0.065,0.268,-5.337
0.162,0.064,0.271,-5.337
0.178,0.062,0.270,-5.337
0.240,0.062,0.266,-5.337
0.329,0.058,0.264,-5.337
0.292,0.058,0.263,-5.337
0.199,0.061,0.259,-5.337
0.188,0.067,0.257,-5.337
0.251,0.067,0.258,-5.337
0.296,0.064,0.261,-5.337
0.253,0.066,0.266,-5.337
0.222,0.067,0.266,-5.337
0.222,0.069,0.262,-5.337
0.166,0.068,0.257,-5.337
0.146,0.070,0.257,-5.337
0.141,0.068,0.256,-5.337
0.097,0.065,0.262,-5.337
0.156,0.061,0.266,-5.337
0.211,0.062,0.269,-5.337
0.241,0.056,0.269,-5.337
0.208,0.063,0.267,-5.337
0.182,0.064,0.264,-5.337
0.194,0.063,0.265,-5.337
0.215,0.063,0.264,-5.337
0.246,0.065,0.265,-5.337
0.225,0.067,0.266,-5.337
0.198,0.066,0.265,-5.337
0.163,0.063,0.264,-5.337
0.106,0.063,0.265,-5.337
0.170,0.062,0.263,-5.337
0.231,0.062,0.262,-5.337
0.190,0.064,0.260,-5.337
0.158,0.063,0.259,-5.337
0.082,0.064,0.259,-5.337
0.102,0.066,0.264,-5.337
0.204,0.062,0.265,-5.337
0.199,0.065,0.268,-5.337
0.215,0.064,0.269,-5.337
0.219,0.061,0.266,-5.337
0.202,0.060,0.266,-5.337
0.206,0.060,0.265,-5.337
0.260,0.057,0.268,-5.337
0.260,0.059,0.266,-5.337
0.261,0.059,0.266,-5.337
0.258,0.057,0.265,-5.337
0.210,0.060,0.262,-5.337
0.189,0.062,0.263,-5.337
0.251,0.062,0.263,-5.337
0.235,0.064,0.266,-5.337
0.161,0.071,0.268,-5.337
0.154,0.071,0.266,-5.337
0.248,0.068,0.264,-5.337
0.257,0.068,0.265,-5.337
0.192,0.068,0.266,-5.337
0.154,0.068,0.267,-5.337
0.158,0.069,0.268,-5.337
0.219,0.068,0.267,-5.337
0.175,0.067,0.261,-5.337
0.165,0.067,0.264,-5.337
0.186,0.067,0.265,-5.337
0.257,0.063,0.265,-5.337
0.337,0.060,0.265,-5.337
0.294,0.062,0.262,-5.337
0.215,0.062,0.259,-5.337
0.212,0.063,0.259,-5.337
0.234,0.062,0.259,-5.337
0.203,0.064,0.259,-5.337
0.163,0.062,0.263,-5.337
0.171,0.063,0.269,-5.337
0.176,0.064,0.273,-5.337
0.192,0.062,0.273,-5.337
0.174,0.065,0.267,-5.337
0.204,0.066,0.267,-5.337
0.242,0.063,0.267,-5.337
0.231,0.062,0.268,-5.337
0.182,0.061,0.267,-5.337
0.169,0.062,0.266,-5.337
0.188,0.061,0.264,-5.337
0.277,0.057,0.261,-5.337
0.302,0.057,0.266,-5.337
0.275,0.060,0.268,-5.337
0.264,0.064,0.268,-5.337
0.198,0.065,0.265,-5.337
0.112,0.064,0.262,-5.337
0.118,0.061,0.263,-5.337
0.143,0.064,0.264,-5.337
0.152,0.065,0.264,-5.337
0.193,0.060,0.270,-5.337
0.207,0.061,0.269,-5.337
0.171,0.061,0.265,-5.337
0.171,0.065,0.264,-5.337
0.189,0.064,0.264,-5.337
0.194,0.064,0.261,-5.337
0.186,0.063,0.262,-5.337
0.240,0.059,0.263,-5.337
0.240,0.058,0.266,-5.337
0.231,0.062,0.266,-5.337
0.252,0.060,0.261,-5.337
0.225,0.062,0.260,-5.337
0.209,0.061,0.262,-5.337
0.202,0.058,0.262,-5.337
0.198,0.059,0.260,-5.337
0.201,0.062,0.262,-5.337
0.164,0.060,0.266,-5.337
0.109,0.059,0.272,-5.337
0.188,0.054,0.270,-5.337
0.220,0.055,0.265,-5.337
0.175,0.058,0.261,-5.337
0.210,0.060,0.260,-5.337
0.237,0.066,0.263,-5.337
0.188,0.068,0.264,-5.337
0.155,0.065,0.266,-5.337
0.242,0.061,0.268,-5.337
0.331,0.056,0.265,-5.337
0.342,0.058,0.261,-5.337
0.287,0.060,0.263,-5.337
0.238,0.060,0.264,-5.337
0.227,0.062,0.265,-5.337
0.235,0.060,0.262,-5.337
0.228,0.059,0.261,-5.337
0.180,0.061,0.262,-5.337
0.159,0.061,0.266,-5.337
0.189,0.061,0.266,-5.337
0.219,0.061,0.263,-5.337
0.253,0.055,0.261,-5.337
0.218,0.053,0.260,-5.337
0.211,0.053,0.258,-5.337
0.217,0.055,0.259,-5.337
0.212,0.054,0.261,-5.337
0.223,0.053,0.261,-5.337
0.258,0.050,0.260,-5.337
0.198,0.053,0.263,-5.337
0.165,0.054,0.268,-5.337
0.230,0.052,0.269,-5.337
0.297,0.052,0.265,-5.337
0.241,0.052,0.263,-5.337
0.192,0.053,0.263,-5.337
0.153,0.055,0.263,-5.337
0.110,0.056,0.264,-5.337
0.161,0.055,0.263,-5.337
0.205,0.051,0.262,-5.337
0.203,0.050,0.261,-5.337
0.274,0.051,0.265,-5.337
0.300,0.054,0.265,-5.337
0.261,0.055,0.267,-5.337
0.200,0.053,0.265,-5.337
0.157,0.051,0.261,-5.337
0.185,0.050,0.258,-5.337
0.204,0.052,0.258,-5.337
0.235,0.047,0.259,-5.337
0.274,0.046,0.264,-5.337
0.283,0.046,0.268,-5.337
0.290,0.048,0.264,-5.337
0.270,0.050,0.259,-5.337
0.210,0.049,0.259,-5.337
0.154,0.049,0.262,-5.337
0.170,0.049,0.266,-5.337
0.183,0.048,0.265,-5.337
0.223,0.044,0.263,-5.337
0.206,0.043,0.261,-5.337
0.223,0.043,0.259,-5.337
0.307,0.047,0.261,-5.337
0.367,0.045,0.267,-5.337
0.367,0.045,0.270,-5.337
0.271,0.047,0.271,-5.337
0.172,0.048,0.271,-5.337
0.179,0.051,0.265,-5.337
0.219,0.050,0.261,-5.337
0.163,0.050,0.259,-5.337
0.124,0.053,0.258,-5.337
0.212,0.051,0.256,-5.337
0.260,0.052,0.261,-5.337
0.238,0.047,0.266,-5.337
0.237,0.048,0.267,-5.337
0.233,0.050,0.266,-5.337
0.208,0.051,0.264,-5.337
0.171,0.051,0.263,-5.337
0.232,0.050,0.263,-5.337
0.179,0.051,0.264,-5.337
0.117,0.053,0.267,-5.337
0.153,0.050,0.261,-5.337
0.192,0.050,0.256,-5.337
0.216,0.050,0.258,-5.337
0.249,0.048,0.260,-5.337
0.245,0.048,0.266,-5.337
0.158,0.054,0.267,-5.337
0.154,0.053,0.263,-5.337
0.184,0.051,0.259,-5.337
0.136,0.050,0.259,-5.337
0.126,0.051,0.262,-5.337
0.200,0.055,0.265,-5.337
0.207,0.055,0.264,-5.337
0.214,0.051,0.262,-5.337
0.221,0.054,0.262,-5.337
0.207,0.055,0.266,-5.337
0.200,0.052,0.270,-5.337
0.226,0.052,0.273,-5.337
0.203,0.052,0.266,-5.337
0.155,0.052,0.261,-5.337
0.191,0.050,0.260,-5.337
0.266,0.050,0.265,-5.337
0.240,0.050,0.266,-5.337
0.237,0.053,0.266,-5.337
0.232,0.053,0.264,-5.337
0.262,0.053,0.264,-5.337
0.224,0.050,0.263,-5.337
0.248,0.048,0.261,-5.337
0.234,0.048,0.260,-5.337
0.205,0.047,0.261,-5.337
0.205,0.046,0.264,-5.337
0.180,0.048,0.263,-5.337
0.141,0.053,0.264,-5.337
0.136,0.052,0.261,-5.337
0.173,0.051,0.261,-5.337
0.173,0.048,0.262,-5.337
0.151,0.050,0.262,-5.337
0.154,0.046,0.261,-5.337
0.224,0.047,0.262,-5.337
0.275,0.045,0.264,-5.337
0.267,0.043,0.266,-5.337
0.220,0.044,0.268,-5.337
0.182,0.046,0.267,-5.337
0.175,0.043,0.261,-5.337
0.186,0.044,0.261,-5.337
0.214,0.046,0.263,-5.337
0.173,0.046,0.265,-5.337
0.220,0.045,0.268,-5.337
0.297,0.044,0.272,-5.337
0.367,0.042,0.269,-5.337
0.339,0.043,0.264,-5.337
0.229,0.046,0.264,-5.337
0.185,0.044,0.264,-5.337
0.216,0.043,0.263,-5.337
0.245,0.043,0.263,-5.337
0.248,0.043,0.262,-5.337
0.120,0.043,0.259,-5.337
0.072,0.046,0.257,-5.337
0.109,0.046,0.257,-5.337
0.077,0.051,0.257,-5.337
0.084,0.049,0.258,-5.337
0.174,0.043,0.260,-5.337
0.228,0.041,0.261,-5.337
0.244,0.041,0.265,-5.337
0.227,0.039,0.268,-5.337
0.213,0.041,0.265,-5.337
0.187,0.044,0.263,-5.337
0.185,0.044,0.263,-5.337
0.214,0.042,0.265,-5.337
0.174,0.044,0.267,-5.337
0.148,0.043,0.265,-5.337
0.229,0.039,0.261,-5.337
0.284,0.041,0.263,-5.337
0.229,0.039,0.264,-5.337
0.228,0.041,0.262,-5.337
0.238,0.043,0.260,-5.337
0.243,0.043,0.265,-5.337
0.218,0.041,0.269,-5.337
0.162,0.041,0.267,-5.337
0.106,0.042,0.264,-5.337
0.141,0.045,0.265,-5.337
0.125,0.049,0.261,-5.337
0.121,0.046,0.258,-5.337
0.132,0.047,0.262,-5.337
0.140,0.046,0.267,-5.337
0.130,0.045,0.270,-5.337
0.132,0.044,0.268,-5.337
0.195,0.041,0.267,-5.337
0.176,0.047,0.264,-5.337
0.145,0.043,0.260,-5.337
0.179,0.040,0.256,-5.337
0.174,0.040,0.258,-5.337
0.146,0.042,0.259,-5.337
0.144,0.046,0.262,-5.337
0.175,0.046,0.262,-5.337
0.226,0.042,0.264,-5.337
0.270,0.039,0.266,-5.337
0.270,0.042,0.269,-5.337
0.247,0.041,0.269,-5.337
0.235,0.038,0.264,-5.337
0.242,0.036,0.260,-5.337
0.219,0.039,0.259,-5.337
0.138,0.046,0.261,-5.337
0.145,0.043,0.265,-5.337
0.222,0.039,0.267,-5.337
0.266,0.040,0.264,-5.337
0.232,0.041,0.259,-5.337
0.154,0.041,0.258,-5.337
0.154,0.043,0.261,-5.337
0.151,0.045,0.264,-5.337
0.125,0.044,0.264,-5.337
0.188,0.041,0.264,-5.337
0.213,0.045,0.269,-5.337
0.193,0.044,0.267,-5.337
0.121,0.043,0.267,-5.337
0.104,0.040,0.266,-5.337
0.184,0.040,0.268,-5.337
0.278,0.037,0.265,-5.337
0.264,0.040,0.264,-5.337
0.191,0.041,0.264,-5.337
0.184,0.038,0.267,-5.337
0.214,0.040,0.265,-5.337
0.181,0.044,0.264,-5.337
0.190,0.039,0.263,-5.337
0.239,0.039,0.262,-5.337
0.207,0.040,0.260,-5.337
0.172,0.042,0.263,-5.337
0.165,0.042,0.263,-5.337
0.130,0.046,0.261,-5.337
0.098,0.046,0.262,-5.337
0.113,0.040,0.264,-5.337
0.169,0.041,0.266,-5.337
0.169,0.042,0.268,-5.337
0.197,0.038,0.268,-5.337
0.203,0.035,0.270,-5.337
0.221,0.032,0.267,-5.337
0.244,0.034,0.263,-5.337
0.270,0.038,0.265,-5.337
0.280,0.037,0.265,-5.337
0.212,0.036,0.261,-5.337
0.292,0.032,0.260,-5.337
0.340,0.032,0.262,-5.337
0.181,0.036,0.268,-5.337
0.072,0.037,0.270,-5.337
0.121,0.035,0.265,-5.337
0.220,0.038,0.261,-5.337
0.248,0.039,0.260,-5.337
0.222,0.041,0.263,-5.337
0.180,0.044,0.266,-5.337
0.175,0.039,0.269,-5.337
0.227,0.038,0.268,-5.337
0.217,0.039,0.264,-5.337
0.210,0.040,0.263,-5.337
0.205,0.041,0.262,-5.337
0.133,0.043,0.263,-5.337
0.144,0.039,0.268,-5.337
0.217,0.038,0.270,-5.337
0.212,0.036,0.264,-5.337
0.223,0.037,0.265,-5.337
0.222,0.042,0.267,-5.337
0.204,0.041,0.269,-5.337
0.167,0.038,0.267,-5.337
0.167,0.042,0.266,-5.337
0.234,0.039,0.268,-5.337
0.219,0.039,0.269,-5.337
0.148,0.037,0.267,-5.337
0.129,0.035,0.265,-5.337
0.144,0.033,0.267,-5.337
0.136,0.033,0.267,-5.337
0.093,0.037,0.267,-5.337
0.100,0.037,0.263,-5.337
0.190,0.031,0.259,-5.337
0.274,0.027,0.261,-5.337
0.244,0.031,0.262,-5.337
0.218,0.035,0.264,-5.337
0.235,0.033,0.266,-5.337
0.266,0.036,0.267,-5.337
0.231,0.036,0.270,-5.337
0.113,0.042,0.268,-5.337
0.068,0.040,0.268,-5.337
0.164,0.036,0.264,-5.337
0.207,0.040,0.263,-5.337
0.166,0.040,0.265,-5.337
0.177,0.040,0.268,-5.337
0.117,0.038,0.267,-5.337
0.130,0.036,0.265,-5.337
0.155,0.037,0.263,-5.337
0.147,0.040,0.264,-5.337
0.191,0.039,0.262,-5.337
0.224,0.033,0.262,-5.337
0.221,0.031,0.261,-5.337
0.165,0.034,0.262,-5.337
0.227,0.033,0.264,-5.337
0.314,0.030,0.266,-5.337
0.353,0.026,0.266,-5.337
0.289,0.027,0.263,-5.337
0.237,0.034,0.267,-5.337
0.213,0.038,0.267,-5.337
0.199,0.039,0.264,-5.337
0.200,0.037,0.264,-5.337
0.227,0.040,0.267,-5.337
0.258,0.036,0.269,-5.337
0.235,0.038,0.269,-5.337
0.136,0.041,0.264,-5.337
0.085,0.042,0.258,-5.337
0.104,0.038,0.257,-5.337
0.170,0.038,0.258,-5.337
0.192,0.035,0.262,-5.337
0.175,0.035,0.263,-5.337
0.154,0.036,0.263,-5.337
0.158,0.038,0.263,-5.337
0.213,0.038,0.263,-5.337
0.211,0.042,0.264,-5.337
0.113,0.046,0.262,-5.337
0.090,0.044,0.263,-5.337
0.088,0.043,0.265,-5.337
0.150,0.043,0.264,-5.337
0.220,0.043,0.266,-5.337
0.151,0.044,0.266,-5.337
0.136,0.041,0.268,-5.337
0.218,0.039,0.268,-5.337
0.223,0.043,0.266,-5.337
0.220,0.041,0.264,-5.337
0.245,0.036,0.266,-5.337
0.234,0.036,0.263,-5.337
0.234,0.041,0.259,-5.337
0.195,0.042,0.259,-5.337
0.188,0.042,0.258,-5.337
0.179,0.041,0.261,-5.337
0.135,0.045,0.263,-5.337
0.132,0.046,0.261,-5.337
0.167,0.045,0.262,-5.337
0.158,0.042,0.263,-5.337
0.148,0.042,0.264,-5.337
0.210,0.040,0.263,-5.337
0.198,0.045,0.265,-5.337
0.122,0.045,0.265,-5.337
0.088,0.045,0.265,-5.337
0.113,0.044,0.265,-5.337
0.175,0.042,0.262,-5.337
0.167,0.043,0.261,-5.337
0.204,0.045,0.262,-5.337
0.237,0.045,0.260,-5.337
0.217,0.047,0.257,-5.337
0.167,0.049,0.260,-5.337
0.124,0.047,0.264,-5.337
0.184,0.044,0.263,-5.337
0.240,0.042,0.262,-5.337
0.262,0.043,0.265,-5.337
0.181,0.045,0.269,-5.337
0.175,0.047,0.268,-5.337
0.241,0.047,0.266,-5.337
0.220,0.047,0.267,-5.337
0.219,0.046,0.267,-5.337
0.200,0.048,0.263,-5.337
0.154,0.050,0.263,-5.337
0.202,0.050,0.266,-5.337
0.193,0.050,0.266,-5.337
0.171,0.048,0.263,-5.337
0.182,0.047,0.259,-5.337
0.189,0.053,0.257,-5.337
0.119,0.055,0.259,-5.337
0.120,0.053,0.262,-5.337
0.133,0.055,0.266,-5.337
0.118,0.055,0.265,-5.337
0.190,0.049,0.264,-5.337
0.259,0.047,0.263,-5.337
0.202,0.050,0.265,-5.337
0.126,0.053,0.261,-5.337
0.180,0.053,0.260,-5.337
0.245,0.052,0.258,-5.337
0.226,0.053,0.262,-5.337
0.174,0.052,0.265,-5.337
0.179,0.051,0.261,-5.337
0.173,0.051,0.261,-5.337
0.144,0.053,0.264,-5.337
0.187,0.051,0.264,-5.337
0.222,0.049,0.263,-5.337
0.225,0.049,0.264,-5.337
0.189,0.050,0.266,-5.337
0.178,0.053,0.267,-5.337
0.131,0.058,0.268,-5.337
0.101,0.058,0.268,-5.337
0.178,0.053,0.264,-5.337
0.170,0.057,0.264,-5.337
0.122,0.055,0.265,-5.337
0.205,0.054,0.269,-5.337
0.266,0.049,0.269,-5.337
0.208,0.054,0.265,-5.337
0.149,0.054,0.260,-5.337
0.178,0.054,0.257,-5.337
0.216,0.052,0.257,-5.337
0.220,0.050,0.261,-5.337
0.130,0.052,0.262,-5.337
0.094,0.055,0.262,-5.337
0.138,0.052,0.262,-5.337
0.178,0.048,0.262,-5.337
0.182,0.046,0.258,-5.337
0.177,0.051,0.258,-5.337
0.183,0.058,0.262,-5.337
0.216,0.060,0.263,-5.337
0.225,0.057,0.267,-5.337
0.209,0.055,0.267,-5.337
0.178,0.052,0.266,-5.337
0.174,0.053,0.260,-5.337
0.190,0.054,0.258,-5.337
0.165,0.058,0.256,-5.337
0.176,0.058,0.261,-5.337
0.157,0.058,0.265,-5.337
0.144,0.056,0.269,-5.337
0.131,0.057,0.268,-5.337
0.184,0.057,0.265,-5.337
0.208,0.052,0.264,-5.337
0.249,0.056,0.267,-5.337
0.275,0.056,0.268,-5.337
0.217,0.056,0.266,-5.337
0.204,0.054,0.262,-5.337
0.184,0.058,0.262,-5.337
0.213,0.055,0.264,-5.337
0.245,0.054,0.266,-5.337
0.207,0.058,0.266,-5.337
0.173,0.057,0.264,-5.337
0.176,0.055,0.262,-5.337
0.173,0.056,0.263,-5.337
0.144,0.055,0.263,-5.337
0.154,0.056,0.263,-5.337
0.134,0.056,0.264,-5.337
0.211,0.056,0.261,-5.337
0.275,0.055,0.259,-5.337
0.228,0.054,0.261,-5.337
0.152,0.058,0.265,-5.337
0.152,0.058,0.265,-5.337
0.184,0.060,0.266,-5.337
0.200,0.061,0.265,-5.337
0.239,0.060,0.262,-5.337
0.190,0.060,0.261,-5.337
0.154,0.062,0.260,-5.337
0.238,0.062,0.261,-5.337
0.265,0.059,0.263,-5.337
0.227,0.058,0.265,-5.337
0.217,0.059,0.268,-5.337
0.211,0.062,0.270,-5.337
0.209,0.060,0.266,-5.337
0.143,0.061,0.262,-5.337
0.170,0.059,0.262,-5.337
0.239,0.064,0.264,-5.337
0.220,0.063,0.265,-5.337
0.165,0.064,0.267,-5.337
0.172,0.059,0.265,-5.337
0.200,0.060,0.266,-5.337
0.203,0.059,0.266,-5.337
0.249,0.058,0.264,-5.337
0.260,0.059,0.260,-5.337
0.235,0.060,0.262,-5.337
0.203,0.061,0.265,-5.337
0.115,0.061,0.268,-5.337
0.120,0.062,0.265,-5.337
0.171,0.058,0.262,-5.337
0.185,0.059,0.262,-5.337
0.244,0.059,0.264,-5.337
0.223,0.060,0.264,-5.337
0.197,0.061,0.261,-5.337
0.235,0.062,0.261,-5.337
0.267,0.059,0.262,-5.337
0.215,0.064,0.267,-5.337
0.156,0.062,0.268,-5.337
0.225,0.060,0.267,-5.337
0.220,0.062,0.264,-5.337
0.218,0.061,0.266,-5.337
0.254,0.060,0.265,-5.337
0.242,0.059,0.266,-5.337
0.183,0.059,0.266,-5.337
0.173,0.061,0.267,-5.337
0.182,0.060,0.267,-5.337
0.190,0.056,0.265,-5.337
0.198,0.056,0.264,-5.337
0.218,0.056,0.262,-5.337
0.189,0.057,0.258,-5.337
0.193,0.058,0.262,-5.337
0.198,0.057,0.266,-5.337
0.217,0.057,0.267,-5.337
0.209,0.060,0.264,-5.337
0.216,0.061,0.265,-5.337
0.167,0.066,0.268,-5.337
0.176,0.061,0.267,-5.337
0.219,0.060,0.265,-5.337
0.202,0.061,0.262,-5.337
0.217,0.057,0.260,-5.337
0.236,0.060,0.259,-5.337
0.182,0.067,0.262,-5.337
0.160,0.067,0.263,-5.337
0.196,0.063,0.269,-5.337
0.263,0.056,0.269,-5.337
0.238,0.057,0.266,-5.337
0.221,0.057,0.263,-5.337
0.235,0.059,0.262,-5.337
0.198,0.065,0.262,-5.337
0.102,0.066,0.262,-5.337
0.111,0.060,0.264,-5.337
0.203,0.054,0.268,-5.337
0.217,0.059,0.268,-5.337
0.213,0.063,0.268,-5.337
0.182,0.065,0.267,-5.337
0.209,0.062,0.270,-5.337
0.244,0.059,0.271,-5.337
0.219,0.065,0.266,-5.337
0.189,0.063,0.264,-5.337
0.209,0.065,0.265,-5.337
0.266,0.063,0.266,-5.337
0.333,0.059,0.263,-5.337
0.298,0.060,0.262,-5.337
0.229,0.063,0.263,-5.337
0.203,0.063,0.266,-5.337
0.218,0.061,0.265,-5.337
0.193,0.061,0.265,-5.337
0.175,0.064,0.264,-5.337
0.187,0.063,0.266,-5.337
0.269,0.055,0.266,-5.337
0.285,0.055,0.268,-5.337
0.272,0.057,0.268,-5.337
0.235,0.058,0.268,-5.337
0.192,0.059,0.269,-5.337
0.202,0.060,0.268,-5.337
0.234,0.062,0.267,-5.337
0.240,0.058,0.263,-5.337
0.232,0.058,0.263,-5.337
0.261,0.057,0.266,-5.337
0.282,0.062,0.269,-5.337
0.262,0.064,0.271,-5.337
0.257,0.061,0.271,-5.337
0.262,0.057,0.265,-5.337
0.240,0.057,0.265,-5.337
0.214,0.059,0.268,-5.337
0.167,0.061,0.267,-5.337
0.130,0.062,0.266,-5.337
0.145,0.064,0.265,-5.337
0.168,0.061,0.266,-5.337
0.228,0.060,0.268,-5.337
0.227,0.058,0.266,-5.337
0.294,0.055,0.264,-5.337
0.248,0.053,0.264,-5.337
0.205,0.054,0.265,-5.337
0.222,0.053,0.268,-5.337
0.289,0.052,0.270,-5.337
0.299,0.052,0.267,-5.337
0.252,0.054,0.265,-5.337
0.260,0.053,0.267,-5.337
0.266,0.050,0.270,-5.337
0.200,0.050,0.269,-5.337
0.195,0.051,0.264,-5.337
0.237,0.052,0.262,-5.337
0.249,0.050,0.264,-5.337
0.236,0.050,0.266,-5.337
0.213,0.052,0.265,-5.337
0.283,0.049,0.266,-5.337
0.298,0.051,0.265,-5.337
0.256,0.052,0.263,-5.337
0.217,0.051,0.261,-5.337
0.210,0.051,0.265,-5.337
0.216,0.047,0.267,-5.337
0.167,0.048,0.267,-5.337
0.226,0.046,0.268,-5.337
0.249,0.047,0.267,-5.337
0.247,0.045,0.265,-5.337
0.192,0.048,0.263,-5.337
0.204,0.048,0.264,-5.337
0.282,0.049,0.267,-5.337
0.281,0.049,0.268,-5.337
0.290,0.047,0.265,-5.337
0.227,0.050,0.264,-5.337
0.155,0.048,0.263,-5.337
0.151,0.043,0.264,-5.337
0.167,0.044,0.264,-5.337
0.167,0.047,0.263,-5.337
0.167,0.049,0.261,-5.337
0.230,0.048,0.265,-5.337
0.286,0.043,0.266,-5.337
0.262,0.046,0.266,-5.337
0.206,0.049,0.262,-5.337
0.150,0.054,0.261,-5.337
0.217,0.049,0.267,-5.337
0.272,0.047,0.269,-5.337
0.191,0.052,0.266,-5.337
0.162,0.053,0.265,-5.337
0.199,0.051,0.264,-5.337
0.270,0.048,0.264,-5.337
0.279,0.045,0.263,-5.337
0.306,0.045,0.264,-5.337
0.281,0.049,0.267,-5.337
0.190,0.052,0.268,-5.337
0.165,0.048,0.270,-5.337
0.181,0.046,0.267,-5.337
0.215,0.047,0.263,-5.337
0.237,0.049,0.259,-5.337
0.212,0.046,0.261,-5.337
0.222,0.046,0.264,-5.337
0.217,0.047,0.267,-5.337
0.182,0.043,0.267,-5.337
0.169,0.044,0.265,-5.337
0.201,0.044,0.260,-5.337
0.239,0.046,0.258,-5.337
0.240,0.045,0.261,-5.337
0.219,0.044,0.264,-5.337
0.216,0.042,0.263,-5.337
0.261,0.042,0.265,-5.337
0.329,0.044,0.264,-5.337
0.290,0.045,0.267,-5.337
0.194,0.046,0.267,-5.337
0.134,0.047,0.265,-5.337
0.169,0.044,0.265,-5.337
0.218,0.043,0.264,-5.337
0.207,0.043,0.263,-5.337
0.244,0.045,0.263,-5.337
0.272,0.046,0.266,-5.337
0.244,0.044,0.264,-5.337
0.181,0.046,0.265,-5.337
0.180,0.044,0.267,-5.337
0.217,0.046,0.270,-5.337
0.184,0.048,0.271,-5.337
0.179,0.047,0.270,-5.337
0.254,0.038,0.266,-5.337
0.284,0.039,0.263,-5.337
0.225,0.042,0.262,-5.337
0.174,0.044,0.264,-5.337
0.185,0.044,0.264,-5.337
0.173,0.047,0.261,-5.337
0.167,0.046,0.260,-5.337
0.230,0.043,0.266,-5.337
0.283,0.038,0.269,-5.337
0.334,0.034,0.266,-5.337
0.257,0.040,0.259,-5.337
0.198,0.044,0.261,-5.337
0.187,0.044,0.263,-5.337
0.209,0.042,0.266,-5.337
0.212,0.044,0.265,-5.337
0.197,0.048,0.265,-5.337
0.134,0.046,0.268,-5.337
0.119,0.047,0.266,-5.337
0.176,0.047,0.265,-5.337
0.197,0.048,0.263,-5.337
0.171,0.047,0.265,-5.337
0.188,0.046,0.265,-5.337
0.230,0.046,0.267,-5.337
0.199,0.046,0.264,-5.337
0.179,0.045,0.263,-5.337
0.265,0.038,0.264,-5.337
0.270,0.037,0.267,-5.337
0.210,0.037,0.270,-5.337
0.193,0.039,0.270,-5.337
0.185,0.041,0.266,-5.337
0.204,0.041,0.260,-5.337
0.236,0.040,0.258,-5.337
0.329,0.039,0.258,-5.337
0.297,0.042,0.261,-5.337
0.183,0.044,0.262,-5.337
0.136,0.043,0.264,-5.337
0.180,0.041,0.265,-5.337
0.208,0.042,0.263,-5.337
0.240,0.040,0.266,-5.337
0.256,0.040,0.271,-5.337
0.202,0.040,0.271,-5.337
0.169,0.041,0.268,-5.337
0.169,0.040,0.264,-5.337
0.181,0.039,0.260,-5.337
0.212,0.038,0.259,-5.337
0.159,0.039,0.258,-5.337
0.103,0.040,0.257,-5.337
0.162,0.042,0.263,-5.337
0.174,0.036,0.266,-5.337
0.178,0.033,0.267,-5.337
0.201,0.034,0.265,-5.337
0.169,0.037,0.264,-5.337
0.110,0.035,0.265,-5.337
0.069,0.036,0.270,-5.337
0.057,0.037,0.268,-5.337
0.125,0.037,0.263,-5.337
0.217,0.038,0.260,-5.337
0.256,0.042,0.262,-5.337
0.206,0.043,0.265,-5.337
0.196,0.038,0.269,-5.337
0.193,0.037,0.270,-5.337
0.186,0.034,0.267,-5.337
0.196,0.034,0.262,-5.337
0.209,0.033,0.259,-5.337
0.175,0.034,0.263,-5.337
0.191,0.029,0.269,-5.337
0.226,0.027,0.271,-5.337
0.240,0.028,0.268,-5.337
0.188,0.027,0.265,-5.337
0.189,0.026,0.263,-5.337
0.249,0.025,0.263,-5.337
0.257,0.025,0.259,-5.337
0.237,0.031,0.258,-5.337
0.315,0.031,0.257,-5.337
0.316,0.032,0.260,-5.337
0.204,0.033,0.262,-5.337
0.180,0.032,0.260,-5.337
0.269,0.032,0.263,-5.337
0.260,0.036,0.265,-5.337
0.237,0.036,0.263,-5.337
0.216,0.037,0.262,-5.337
0.171,0.035,0.266,-5.337
0.186,0.032,0.266,-5.337
0.175,0.036,0.265,-5.337
0.206,0.034,0.263,-5.337
0.283,0.031,0.267,-5.337
0.282,0.032,0.269,-5.337
0.227,0.032,0.266,-5.337
0.237,0.031,0.263,-5.337
0.261,0.036,0.265,-5.337
0.298,0.037,0.269,-5.337
0.317,0.036,0.267,-5.337
0.221,0.037,0.262,-5.337
0.146,0.038,0.260,-5.337
0.124,0.037,0.260,-5.337
0.146,0.038,0.261,-5.337
0.184,0.037,0.266,-5.337
0.140,0.037,0.264,-5.337
0.082,0.038,0.259,-5.337
0.163,0.037,0.258,-5.337
0.207,0.035,0.263,-5.337
0.196,0.034,0.265,-5.337
0.177,0.038,0.264,-5.337
0.181,0.037,0.265,-5.337
0.164,0.038,0.268,-5.337
0.171,0.036,0.266,-5.337
0.247,0.032,0.263,-5.337
0.314,0.032,0.259,-5.337
0.332,0.030,0.259,-5.337
0.304,0.029,0.260,-5.337
0.248,0.035,0.263,-5.337
0.111,0.041,0.265,-5.337
0.062,0.043,0.268,-5.337
0.081,0.040,0.267,-5.337
0.098,0.039,0.267,-5.337
0.125,0.038,0.266,-5.337
0.169,0.035,0.263,-5.337
0.210,0.032,0.262,-5.337
0.215,0.031,0.264,-5.337
0.225,0.030,0.263,-5.337
0.231,0.031,0.263,-5.337
0.220,0.034,0.261,-5.337
0.183,0.036,0.261,-5.337
0.145,0.036,0.264,-5.337
0.142,0.032,0.265,-5.337
0.155,0.031,0.267,-5.337
0.126,0.034,0.266,-5.337
0.142,0.030,0.263,-5.337
0.183,0.029,0.263,-5.337
0.189,0.034,0.264,-5.337
0.190,0.031,0.265,-5.337
0.198,0.032,0.265,-5.337
0.235,0.029,0.264,-5.337
0.242,0.031,0.263,-5.337
0.192,0.033,0.264,-5.337
0.180,0.033,0.262,-5.337
0.234,0.032,0.259,-5.337
0.243,0.037,0.261,-5.337
0.228,0.039,0.264,-5.337
0.097,0.041,0.262,-5.337
0.063,0.037,0.261,-5.337
0.131,0.036,0.263,-5.337
0.166,0.035,0.266,-5.337
0.140,0.036,0.266,-5.337
0.165,0.032,0.268,-5.337
0.222,0.035,0.269,-5.337
0.161,0.039,0.266,-5.337
0.125,0.035,0.266,-5.337
0.194,0.033,0.266,-5.337
0.199,0.033,0.264,-5.337
0.174,0.034,0.266,-5.337
0.175,0.033,0.264,-5.337
0.176,0.036,0.264,-5.337
0.174,0.034,0.264,-5.337
0.159,0.030,0.268,-5.337
0.184,0.026,0.266,-5.337
0.163,0.029,0.261,-5.337
0.182,0.027,0.262,-5.337
0.198,0.031,0.270,-5.337
0.189,0.031,0.274,-5.337
0.212,0.029,0.273,-5.337
0.242,0.029,0.269,-5.337
0.239,0.033,0.261,-5.337
0.255,0.032,0.257,-5.337
0.225,0.034,0.260,-5.337
0.099,0.037,0.263,-5.337
0.078,0.035,0.265,-5.337
0.118,0.034,0.268,-5.337
0.175,0.031,0.269,-5.337
0.181,0.033,0.267,-5.337
0.172,0.034,0.263,-5.337
0.174,0.033,0.264,-5.337
0.236,0.030,0.265,-5.337
0.251,0.028,0.265,-5.337
0.233,0.028,0.260,-5.337
0.246,0.030,0.261,-5.337
0.187,0.030,0.267,-5.337
0.137,0.032,0.271,-5.337
0.158,0.030,0.271,-5.337
0.186,0.031,0.269,-5.337
0.216,0.030,0.265,-5.337
0.264,0.033,0.262,-5.337
0.274,0.034,0.265,-5.337
0.182,0.034,0.269,-5.337
0.166,0.033,0.270,-5.337
0.213,0.039,0.268,-5.337
0.223,0.036,0.268,-5.337
0.127,0.035,0.268,-5.337
0.143,0.036,0.266,-5.337
0.190,0.037,0.264,-5.337
0.182,0.035,0.263,-5.337
0.153,0.034,0.264,-5.337
0.181,0.034,0.266,-5.337
0.127,0.035,0.268,-5.337
0.133,0.036,0.269,-5.337
0.172,0.036,0.266,-5.337
0.159,0.034,0.267,-5.337
0.172,0.032,0.265,-5.337
0.171,0.033,0.265,-5.337
0.142,0.034,0.267,-5.337
0.136,0.040,0.266,-5.337
0.207,0.037,0.261,-5.337
0.246,0.036,0.262,-5.337
0.167,0.038,0.265,-5.337
0.167,0.034,0.265,-5.337
0.150,0.038,0.266,-5.337
0.118,0.042,0.265,-5.337
0.116,0.043,0.266,-5.337
0.212,0.037,0.269,-5.337
0.257,0.034,0.274,-5.337
0.199,0.035,0.271,-5.337
0.139,0.036,0.263,-5.337
0.210,0.034,0.256,-5.337
0.229,0.038,0.259,-5.337
0.200,0.040,0.263,-5.337
0.199,0.040,0.268,-5.337
0.215,0.036,0.267,-5.337
0.200,0.037,0.265,-5.337
0.146,0.040,0.264,-5.337
0.159,0.042,0.261,-5.337
0.197,0.042,0.257,-5.337
0.230,0.043,0.256,-5.337
0.150,0.044,0.258,-5.337
0.133,0.042,0.262,-5.337
0.178,0.043,0.265,-5.337
0.212,0.045,0.267,-5.337
0.219,0.045,0.266,-5.337
0.215,0.043,0.263,-5.337
0.227,0.040,0.263,-5.337
0.206,0.040,0.261,-5.337
0.180,0.045,0.261,-5.337
0.198,0.048,0.259,-5.337
0.164,0.049,0.262,-5.337
0.106,0.050,0.265,-5.337
0.111,0.049,0.267,-5.337
0.166,0.045,0.270,-5.337
0.206,0.042,0.271,-5.337
0.193,0.042,0.266,-5.337
0.176,0.044,0.262,-5.337
0.149,0.045,0.263,-5.337
0.184,0.046,0.265,-5.337
0.242,0.048,0.264,-5.337
0.227,0.047,0.263,-5.337
0.190,0.045,0.261,-5.337
0.170,0.045,0.261,-5.337
0.148,0.045,0.263,-5.337
0.213,0.046,0.265,-5.337
0.188,0.046,0.266,-5.337
0.223,0.043,0.266,-5.337
0.232,0.045,0.265,-5.337
0.132,0.047,0.261,-5.337
0.107,0.046,0.262,-5.337
0.194,0.046,0.262,-5.337
0.299,0.040,0.265,-5.337
0.300,0.040,0.266,-5.337
0.231,0.043,0.269,-5.337
0.175,0.043,0.268,-5.337
0.193,0.044,0.263,-5.337
0.245,0.045,0.256,-5.337
0.260,0.043,0.255,-5.337
0.210,0.041,0.258,-5.337
0.200,0.042,0.264,-5.337
0.331,0.039,0.267,-5.337
0.400,0.041,0.265,-5.337
0.263,0.045,0.263,-5.337
0.212,0.046,0.265,-5.337
0.239,0.045,0.266,-5.337
0.291,0.045,0.264,-5.337
0.231,0.049,0.261,-5.337
0.066,0.054,0.260,-5.337
0.100,0.053,0.258,-5.337
0.191,0.047,0.257,-5.337
0.207,0.048,0.262,-5.337
0.179,0.049,0.264,-5.337
0.205,0.049,0.265,-5.337
0.232,0.050,0.265,-5.337
0.207,0.054,0.265,-5.337
0.161,0.053,0.264,-5.337
0.187,0.052,0.262,-5.337
0.152,0.052,0.259,-5.337
0.146,0.053,0.258,-5.337
0.237,0.049,0.257,-5.337
0.176,0.053,0.262,-5.337
0.113,0.055,0.267,-5.337
0.120,0.051,0.267,-5.337
0.212,0.050,0.265,-5.337
0.233,0.051,0.263,-5.337
0.218,0.052,0.263,-5.337
0.215,0.052,0.264,-5.337
0.212,0.053,0.266,-5.337
0.197,0.055,0.266,-5.337
0.149,0.055,0.263,-5.337
0.179,0.052,0.264,-5.337
0.171,0.048,0.265,-5.337
0.183,0.048,0.264,-5.337
0.244,0.044,0.265,-5.337
0.241,0.045,0.263,-5.337
0.257,0.048,0.262,-5.337
0.243,0.051,0.260,-5.337
0.267,0.045,0.262,-5.337
0.258,0.044,0.264,-5.337
0.209,0.048,0.267,-5.337
0.268,0.044,0.265,-5.337
0.244,0.046,0.261,-5.337
0.180,0.050,0.264,-5.337
0.221,0.050,0.263,-5.337
0.203,0.054,0.262,-5.337
0.166,0.055,0.261,-5.337
0.151,0.056,0.263,-5.337
0.188,0.054,0.266,-5.337
0.244,0.053,0.266,-5.337
0.254,0.053,0.265,-5.337
0.175,0.057,0.267,-5.337
0.137,0.056,0.267,-5.337
0.182,0.056,0.267,-5.337
0.224,0.055,0.263,-5.337
0.234,0.056,0.262,-5.337
0.202,0.061,0.262,-5.337
0.153,0.062,0.261,-5.337
0.167,0.059,0.258,-5.337
0.250,0.057,0.258,-5.337
0.271,0.056,0.258,-5.337
0.233,0.058,0.262,-5.337
0.210,0.056,0.264,-5.337
0.262,0.054,0.267,-5.337
0.225,0.057,0.270,-5.337
0.182,0.061,0.268,-5.337
0.216,0.056,0.259,-5.337
0.211,0.056,0.258,-5.337
0.154,0.057,0.261,-5.337
0.120,0.059,0.261,-5.337
0.164,0.059,0.261,-5.337
0.241,0.053,0.262,-5.337
0.243,0.052,0.262,-5.337
0.238,0.058,0.259,-5.337
0.212,0.062,0.263,-5.337
0.152,0.060,0.267,-5.337
0.162,0.059,0.268,-5.337
0.146,0.061,0.263,-5.337
0.150,0.057,0.262,-5.337
0.156,0.054,0.264,-5.337
0.207,0.057,0.265,-5.337
0.260,0.057,0.264,-5.337
0.241,0.056,0.263,-5.337
0.192,0.057,0.265,-5.337
0.257,0.056,0.267,-5.337
0.302,0.053,0.267,-5.337
0.213,0.057,0.266,-5.337
0.155,0.058,0.263,-5.337
0.157,0.060,0.264,-5.337
0.188,0.060,0.265,-5.337
0.221,0.055,0.263,-5.337
0.242,0.056,0.262,-5.337
0.250,0.060,0.265,-5.337
0.297,0.057,0.266,-5.337
0.315,0.058,0.264,-5.337
0.261,0.061,0.259,-5.337
0.205,0.060,0.259,-5.337
0.187,0.060,0.261,-5.337
0.194,0.060,0.259,-5.337
0.206,0.061,0.259,-5.337
0.272,0.059,0.261,-5.337
0.251,0.060,0.261,-5.337
0.206,0.060,0.260,-5.337
0.260,0.058,0.259,-5.337
0.228,0.061,0.264,-5.337
0.189,0.061,0.265,-5.337
0.180,0.057,0.266,-5.337
0.265,0.055,0.267,-5.337
0.338,0.055,0.267,-5.337
0.280,0.060,0.265,-5.337
0.196,0.061,0.265,-5.337
0.185,0.060,0.263,-5.337
0.176,0.056,0.263,-5.337
0.187,0.058,0.265,-5.337
0.192,0.063,0.271,-5.337
0.217,0.060,0.271,-5.337
0.247,0.058,0.268,-5.337
0.162,0.059,0.260,-5.337
0.123,0.065,0.262,-5.337
0.097,0.067,0.264,-5.337
0.137,0.065,0.262,-5.337
0.151,0.063,0.259,-5.337
0.178,0.060,0.259,-5.337
0.210,0.059,0.261,-5.337
0.189,0.061,0.265,-5.337
0.182,0.059,0.264,-5.337
0.255,0.058,0.263,-5.337
0.256,0.057,0.263,-5.337
0.208,0.052,0.261,-5.337
0.244,0.051,0.264,-5.337
0.251,0.053,0.268,-5.337
0.248,0.056,0.265,-5.337
0.219,0.061,0.259,-5.337
0.198,0.062,0.257,-5.337
0.205,0.054,0.259,-5.337
0.231,0.058,0.265,-5.337
0.183,0.059,0.269,-5.337
0.193,0.063,0.272,-5.337
0.175,0.065,0.268,-5.337
0.141,0.064,0.266,-5.337
0.112,0.062,0.263,-5.337
0.113,0.061,0.260,-5.337
0.161,0.058,0.260,-5.337
0.224,0.059,0.263,-5.337
0.254,0.057,0.262,-5.337
0.270,0.056,0.265,-5.337
0.240,0.059,0.268,-5.337
0.260,0.059,0.268,-5.337
0.297,0.055,0.265,-5.337
0.276,0.053,0.262,-5.337
0.245,0.054,0.262,-5.337
0.197,0.060,0.263,-5.337
0.250,0.056,0.264,-5.337
0.305,0.052,0.263,-5.337
0.253,0.055,0.261,-5.337
0.210,0.056,0.258,-5.337
0.187,0.054,0.262,-5.337
0.233,0.053,0.267,-5.337
0.216,0.054,0.270,-5.337
0.211,0.052,0.268,-5.337
0.193,0.049,0.267,-5.337
0.189,0.051,0.265,-5.337
0.203,0.057,0.265,-5.337
0.268,0.055,0.264,-5.337
0.330,0.053,0.267,-5.337
0.307,0.054,0.265,-5.337
0.278,0.054,0.264,-5.337
0.239,0.053,0.261,-5.337
0.189,0.055,0.262,-5.337
0.191,0.054,0.265,-5.337
0.192,0.054,0.265,-5.337
0.201,0.052,0.262,-5.337
0.227,0.051,0.262,-5.337
0.156,0.057,0.265,-5.337
0.129,0.055,0.268,-5.337
0.203,0.055,0.270,-5.337
0.283,0.050,0.270,-5.337
0.285,0.048,0.270,-5.337
0.250,0.052,0.266,-5.337
0.244,0.054,0.263,-5.337
0.190,0.057,0.262,-5.337
0.147,0.057,0.265,-5.337
0.173,0.056,0.263,-5.337
0.176,0.057,0.264,-5.337
0.177,0.053,0.265,-5.337
0.204,0.050,0.267,-5.337
0.221,0.050,0.268,-5.337
0.217,0.054,0.267,-5.337
0.160,0.054,0.265,-5.337
0.131,0.057,0.269,-5.337
0.157,0.053,0.269,-5.337
0.205,0.051,0.264,-5.337
0.146,0.051,0.261,-5.337
0.129,0.050,0.266,-5.337
0.133,0.048,0.269,-5.337
0.150,0.048,0.266,-5.337
0.165,0.047,0.266,-5.337
0.141,0.048,0.267,-5.337
0.211,0.045,0.266,-5.337
0.255,0.043,0.266,-5.337
0.235,0.044,0.267,-5.337
0.181,0.048,0.267,-5.337
0.185,0.052,0.271,-5.337
0.266,0.049,0.273,-5.337
0.252,0.045,0.271,-5.337
0.158,0.049,0.268,-5.337
0.140,0.052,0.268,-5.337
0.191,0.052,0.269,-5.337
0.233,0.051,0.271,-5.337
0.184,0.050,0.273,-5.337
0.182,0.047,0.269,-5.337
0.264,0.048,0.264,-5.337
0.225,0.049,0.263,-5.337
0.216,0.048,0.266,-5.337
0.214,0.051,0.264,-5.337
0.200,0.055,0.258,-5.337
0.231,0.055,0.256,-5.337
0.178,0.054,0.260,-5.337
0.172,0.053,0.263,-5.337
0.171,0.055,0.266,-5.337
0.166,0.055,0.269,-5.337
0.202,0.056,0.272,-5.337
0.134,0.057,0.265,-5.337
0.116,0.054,0.263,-5.337
0.159,0.050,0.265,-5.337
0.196,0.051,0.268,-5.337
0.174,0.048,0.268,-5.337
0.150,0.050,0.267,-5.337
0.137,0.051,0.264,-5.337
0.179,0.049,0.264,-5.337
0.175,0.048,0.265,-5.337
0.160,0.047,0.265,-5.337
0.249,0.043,0.265,-5.337
0.314,0.043,0.265,-5.337
0.258,0.046,0.266,-5.337
0.219,0.047,0.269,-5.337
0.270,0.045,0.268,-5.337
0.242,0.048,0.264,-5.337
0.227,0.049,0.263,-5.337
0.198,0.049,0.262,-5.337
0.194,0.050,0.262,-5.337
0.238,0.053,0.261,-5.337
0.193,0.052,0.262,-5.337
0.184,0.051,0.259,-5.337
0.219,0.050,0.262,-5.337
0.228,0.049,0.266,-5.337
0.238,0.048,0.265,-5.337
0.219,0.047,0.264,-5.337
0.222,0.048,0.266,-5.337
0.233,0.047,0.263,-5.337
0.223,0.045,0.265,-5.337
0.221,0.044,0.269,-5.337
0.228,0.044,0.265,-5.337
0.200,0.047,0.257,-5.337
0.182,0.048,0.258,-5.337
0.136,0.049,0.262,-5.337
0.126,0.049,0.265,-5.337
0.184,0.046,0.266,-5.337
0.239,0.044,0.269,-5.337
0.271,0.044,0.271,-5.337
0.210,0.044,0.269,-5.337
0.200,0.046,0.265,-5.337
0.180,0.048,0.263,-5.337
0.220,0.049,0.267,-5.337
0.252,0.045,0.269,-5.337
0.262,0.043,0.269,-5.337
0.205,0.043,0.270,-5.337
0.194,0.042,0.268,-5.337
0.219,0.042,0.264,-5.337
0.242,0.044,0.264,-5.337
0.224,0.050,0.263,-5.337
0.155,0.056,0.265,-5.337
0.175,0.051,0.264,-5.337
0.224,0.051,0.261,-5.337
0.227,0.050,0.265,-5.337
0.214,0.053,0.269,-5.337
0.236,0.050,0.268,-5.337
0.225,0.050,0.262,-5.337
0.191,0.048,0.260,-5.337
0.258,0.046,0.262,-5.337
0.312,0.046,0.264,-5.337
0.233,0.047,0.262,-5.337
0.214,0.045,0.263,-5.337
0.327,0.040,0.264,-5.337
0.299,0.042,0.264,-5.337
0.188,0.043,0.265,-5.337
0.230,0.044,0.266,-5.337
0.216,0.045,0.267,-5.337
0.113,0.045,0.271,-5.337
0.156,0.043,0.270,-5.337
0.195,0.044,0.270,-5.337
0.155,0.047,0.264,-5.337
0.178,0.046,0.264,-5.337
0.256,0.045,0.265,-5.337
0.191,0.050,0.266,-5.337
0.166,0.050,0.265,-5.337
0.266,0.044,0.267,-5.337
0.270,0.042,0.264,-5.337
0.255,0.039,0.264,-5.337
0.300,0.039,0.269,-5.337
0.243,0.042,0.269,-5.337
0.171,0.041,0.265,-5.337
0.152,0.041,0.262,-5.337
0.171,0.044,0.265,-5.337
0.214,0.043,0.267,-5.337
0.265,0.042,0.268,-5.337
0.267,0.038,0.267,-5.337
0.208,0.039,0.263,-5.337
0.180,0.038,0.261,-5.337
0.232,0.039,0.262,-5.337
0.224,0.040,0.262,-5.337
0.169,0.038,0.266,-5.337
0.193,0.039,0.269,-5.337
0.224,0.040,0.271,-5.337
0.155,0.044,0.273,-5.337
0.149,0.044,0.270,-5.337
0.169,0.041,0.266,-5.337
0.168,0.043,0.265,-5.337
0.203,0.039,0.264,-5.337
0.219,0.039,0.266,-5.337
0.176,0.044,0.270,-5.337
0.147,0.048,0.269,-5.337
0.155,0.048,0.265,-5.337
0.177,0.043,0.265,-5.337
0.182,0.040,0.266,-5.337
0.141,0.038,0.264,-5.337
0.042,0.044,0.261,-5.337
0.048,0.044,0.262,-5.337
0.209,0.039,0.265,-5.337
0.267,0.038,0.267,-5.337
0.258,0.035,0.267,-5.337
0.243,0.034,0.265,-5.337
0.299,0.034,0.263,-5.337
0.322,0.036,0.258,-5.337
0.269,0.039,0.262,-5.337
0.155,0.040,0.262,-5.337
0.125,0.045,0.262,-5.337
0.214,0.042,0.263,-5.337
0.205,0.044,0.265,-5.337
0.265,0.041,0.270,-5.337
0.278,0.040,0.271,-5.337
0.213,0.046,0.269,-5.337
0.165,0.049,0.265,-5.337
0.190,0.044,0.261,-5.337
0.203,0.043,0.262,-5.337
0.156,0.046,0.264,-5.337
0.186,0.045,0.268,-5.337
0.228,0.042,0.267,-5.337
0.228,0.038,0.268,-5.337
0.227,0.035,0.273,-5.337
0.310,0.036,0.272,-5.337
0.244,0.039,0.267,-5.337
0.210,0.040,0.260,-5.337
0.177,0.038,0.260,-5.337
0.136,0.039,0.263,-5.337
0.208,0.037,0.271,-5.337
0.226,0.035,0.275,-5.337
0.201,0.038,0.274,-5.337
0.233,0.042,0.272,-5.337
0.234,0.046,0.268,-5.337
0.249,0.047,0.268,-5.337
0.182,0.049,0.270,-5.337
0.119,0.048,0.268,-5.337
0.130,0.043,0.266,-5.337
0.162,0.043,0.264,-5.337
0.148,0.046,0.264,-5.337
0.130,0.047,0.262,-5.337
0.147,0.041,0.262,-5.337
0.166,0.040,0.266,-5.337
0.188,0.039,0.268,-5.337
0.215,0.040,0.269,-5.337
0.219,0.040,0.267,-5.337
0.233,0.040,0.264,-5.337
0.253,0.040,0.265,-5.337
0.208,0.041,0.268,-5.337
0.162,0.040,0.268,-5.337
0.193,0.039,0.265,-5.337
0.258,0.037,0.261,-5.337
0.217,0.037,0.262,-5.337
0.184,0.040,0.269,-5.337
0.177,0.044,0.272,-5.337
0.124,0.045,0.268,-5.337
0.144,0.044,0.268,-5.337
0.179,0.041,0.270,-5.337
0.209,0.043,0.272,-5.337
0.173,0.045,0.269,-5.337
0.165,0.043,0.265,-5.337
0.175,0.040,0.260,-5.337
0.237,0.036,0.261,-5.337
0.268,0.038,0.267,-5.337
0.221,0.044,0.269,-5.337
0.257,0.038,0.268,-5.337
0.308,0.036,0.265,-5.337
0.255,0.042,0.267,-5.337
0.221,0.040,0.268,-5.337
0.180,0.042,0.270,-5.337
0.105,0.044,0.265,-5.337
0.092,0.043,0.264,-5.337
0.155,0.037,0.263,-5.337
0.148,0.037,0.263,-5.337
0.134,0.040,0.264,-5.337
0.139,0.042,0.266,-5.337
0.146,0.040,0.266,-5.337
0.215,0.039,0.264,-5.337
0.240,0.039,0.266,-5.337
0.203,0.041,0.270,-5.337
0.175,0.038,0.272,-5.337
0.245,0.040,0.273,-5.337
0.167,0.046,0.272,-5.337
0.113,0.045,0.271,-5.337
0.042,0.044,0.269,-5.337
0.061,0.042,0.268,-5.337
0.212,0.040,0.268,-5.337
0.198,0.044,0.267,-5.337
0.143,0.043,0.268,-5.337
0.229,0.040,0.267,-5.337
0.286,0.038,0.264,-5.337
0.216,0.041,0.267,-5.337
0.115,0.047,0.269,-5.337
0.165,0.049,0.261,-5.337
0.197,0.047,0.260,-5.337
0.185,0.044,0.262,-5.337
0.166,0.042,0.265,-5.337
0.214,0.041,0.265,-5.337
0.198,0.044,0.269,-5.337
0.171,0.041,0.272,-5.337
0.138,0.041,0.273,-5.337
0.118,0.040,0.273,-5.337
0.105,0.043,0.270,-5.337
0.124,0.045,0.267,-5.337
0.141,0.048,0.265,-5.337
0.109,0.049,0.265,-5.337
0.105,0.048,0.264,-5.337
0.146,0.046,0.264,-5.337
0.167,0.045,0.267,-5.337
0.187,0.044,0.268,-5.337
0.252,0.043,0.271,-5.337
0.289,0.044,0.274,-5.337
0.262,0.043,0.269,-5.337
0.193,0.046,0.268,-5.337
0.151,0.046,0.267,-5.337
0.195,0.042,0.269,-5.337
0.177,0.045,0.268,-5.337
0.078,0.048,0.267,-5.337
0.048,0.049,0.268,-5.337
0.114,0.048,0.270,-5.337
0.175,0.043,0.269,-5.337
0.204,0.045,0.264,-5.337
0.192,0.046,0.263,-5.337
0.213,0.045,0.266,-5.337
0.245,0.044,0.267,-5.337
0.171,0.044,0.266,-5.337
0.185,0.041,0.265,-5.337
0.123,0.043,0.267,-5.337
0.108,0.046,0.267,-5.337
0.205,0.048,0.266,-5.337
0.306,0.047,0.267,-5.337
0.262,0.046,0.270,-5.337
0.179,0.047,0.268,-5.337
0.164,0.050,0.267,-5.337
0.232,0.050,0.268,-5.337
0.268,0.048,0.267,-5.337
0.284,0.044,0.269,-5.337
0.207,0.048,0.272,-5.337
0.143,0.055,0.271,-5.337
0.195,0.051,0.268,-5.337
0.239,0.050,0.271,-5.337
0.252,0.050,0.272,-5.337
0.197,0.051,0.270,-5.337
0.096,0.053,0.268,-5.337
0.054,0.052,0.267,-5.337
0.135,0.051,0.266,-5.337
0.246,0.050,0.268,-5.337
0.267,0.051,0.268,-5.337
0.213,0.048,0.270,-5.337
0.225,0.049,0.271,-5.337
0.242,0.051,0.271,-5.337
0.192,0.051,0.270,-5.337
0.157,0.048,0.267,-5.337
0.189,0.046,0.266,-5.337
0.203,0.052,0.265,-5.337
0.150,0.052,0.266,-5.337
0.176,0.048,0.268,-5.337
0.132,0.052,0.269,-5.337
0.070,0.053,0.267,-5.337
0.163,0.051,0.267,-5.337
0.201,0.049,0.268,-5.337
0.177,0.051,0.268,-5.337
0.138,0.050,0.267,-5.337
0.199,0.051,0.267,-5.337
0.210,0.053,0.266,-5.337
0.190,0.058,0.267,-5.337
0.174,0.060,0.267,-5.337
0.160,0.055,0.266,-5.337
0.247,0.050,0.266,-5.337
0.321,0.049,0.269,-5.337
0.213,0.052,0.272,-5.337
0.135,0.051,0.271,-5.337
0.228,0.051,0.269,-5.337
0.307,0.053,0.265,-5.337
0.256,0.055,0.266,-5.337
0.147,0.057,0.268,-5.337
0.164,0.057,0.270,-5.337
0.166,0.056,0.269,-5.337
0.204,0.053,0.265,-5.337
0.202,0.052,0.261,-5.337
0.176,0.052,0.262,-5.337
0.204,0.052,0.264,-5.337
0.222,0.055,0.263,-5.337
0.196,0.056,0.265,-5.337
0.152,0.056,0.267,-5.337
0.129,0.054,0.268,-5.337
0.156,0.054,0.265,-5.337
0.215,0.052,0.263,-5.337
0.205,0.050,0.265,-5.337
0.185,0.050,0.267,-5.337
0.142,0.050,0.269,-5.337
0.149,0.050,0.268,-5.337
0.155,0.050,0.266,-5.337
0.168,0.048,0.266,-5.337
0.246,0.049,0.265,-5.337
0.234,0.052,0.268,-5.337
0.143,0.052,0.269,-5.337
0.116,0.053,0.269,-5.337
0.146,0.053,0.266,-5.337
0.186,0.056,0.266,-5.337
0.194,0.056,0.265,-5.337
0.157,0.055,0.263,-5.337
0.146,0.050,0.264,-5.337
0.128,0.050,0.266,-5.337
0.158,0.047,0.267,-5.337
0.258,0.049,0.265,-5.337
0.239,0.050,0.264,-5.337
0.208,0.053,0.267,-5.337
0.213,0.049,0.267,-5.337
0.238,0.047,0.269,-5.337
0.246,0.049,0.270,-5.337
0.289,0.053,0.267,-5.337
0.301,0.051,0.266,-5.337
0.272,0.053,0.267,-5.337
0.229,0.053,0.264,-5.337
0.217,0.056,0.262,-5.337
0.257,0.055,0.267,-5.337
0.244,0.055,0.269,-5.337
0.182,0.054,0.270,-5.337
0.147,0.050,0.264,-5.337
0.170,0.048,0.261,-5.337
0.229,0.048,0.263,-5.337
0.199,0.054,0.263,-5.337
0.141,0.055,0.265,-5.337
0.209,0.055,0.264,-5.337
0.190,0.056,0.265,-5.337
0.141,0.060,0.266,-5.337
0.099,0.060,0.267,-5.337
0.123,0.058,0.264,-5.337
0.156,0.058,0.263,-5.337
0.156,0.057,0.268,-5.337
0.170,0.058,0.271,-5.337
0.192,0.057,0.271,-5.337
0.188,0.055,0.268,-5.337
0.224,0.056,0.266,-5.337
0.227,0.058,0.267,-5.337
0.250,0.057,0.268,-5.337
0.227,0.056,0.272,-5.337
0.157,0.060,0.271,-5.337
0.152,0.060,0.269,-5.337
0.182,0.058,0.265,-5.337
0.217,0.060,0.264,-5.337
0.240,0.056,0.264,-5.337
0.303,0.052,0.264,-5.337
0.346,0.052,0.263,-5.337
0.246,0.056,0.262,-5.337
0.202,0.059,0.263,-5.337
0.192,0.060,0.263,-5.337
0.212,0.058,0.263,-5.337
0.182,0.061,0.265,-5.337
0.157,0.059,0.266,-5.337
0.155,0.060,0.266,-5.337
0.148,0.059,0.267,-5.337
0.144,0.059,0.267,-5.337
0.196,0.058,0.264,-5.337
0.264,0.059,0.265,-5.337
0.231,0.057,0.262,-5.337
0.235,0.056,0.264,-5.337
0.235,0.054,0.268,-5.337
0.220,0.054,0.271,-5.337
0.179,0.055,0.273,-5.337
0.163,0.057,0.270,-5.337
0.130,0.056,0.267,-5.337
0.163,0.058,0.267,-5.337
0.254,0.059,0.268,-5.337
0.215,0.057,0.264,-5.337
0.145,0.057,0.263,-5.337
0.168,0.060,0.264,-5.337
0.139,0.062,0.266,-5.337
0.175,0.063,0.264,-5.337
0.271,0.061,0.266,-5.337
0.296,0.060,0.268,-5.337
0.191,0.061,0.264,-5.337
0.136,0.057,0.260,-5.337
0.155,0.056,0.263,-5.337
0.198,0.058,0.266,-5.337
0.215,0.060,0.268,-5.337
0.129,0.061,0.268,-5.337
0.075,0.057,0.268,-5.337
0.116,0.055,0.265,-5.337
0.254,0.052,0.263,-5.337
0.267,0.054,0.266,-5.337
0.249,0.060,0.267,-5.337
0.237,0.061,0.264,-5.337
0.217,0.058,0.264,-5.337
0.227,0.061,0.268,-5.337
0.194,0.062,0.266,-5.337
0.249,0.062,0.262,-5.337
0.284,0.061,0.262,-5.337
0.282,0.057,0.266,-5.337
0.268,0.057,0.266,-5.337
0.205,0.059,0.266,-5.337
0.199,0.055,0.266,-5.337
0.252,0.055,0.268,-5.337
0.294,0.054,0.268,-5.337
0.292,0.054,0.267,-5.337
0.232,0.056,0.266,-5.337
0.147,0.058,0.263,-5.337
0.133,0.060,0.262,-5.337
0.158,0.060,0.264,-5.337
0.230,0.060,0.265,-5.337
0.246,0.058,0.266,-5.337
0.248,0.059,0.267,-5.337
0.198,0.059,0.268,-5.337
0.191,0.059,0.269,-5.337
0.248,0.056,0.268,-5.337
0.272,0.054,0.267,-5.337
0.247,0.055,0.264,-5.337
0.197,0.056,0.261,-5.337
0.154,0.058,0.260,-5.337
0.162,0.056,0.262,-5.337
0.215,0.057,0.268,-5.337
0.190,0.062,0.270,-5.337
0.162,0.057,0.266,-5.337
0.185,0.056,0.266,-5.337
0.195,0.058,0.271,-5.337
0.236,0.055,0.270,-5.337
0.239,0.057,0.266,-5.337
0.213,0.060,0.263,-5.337
0.216,0.061,0.262,-5.337
0.245,0.061,0.261,-5.337
0.232,0.064,0.265,-5.337
0.145,0.065,0.265,-5.337
0.144,0.061,0.267,-5.337
0.213,0.061,0.264,-5.337
0.163,0.062,0.264,-5.337
0.194,0.059,0.264,-5.337
0.289,0.057,0.267,-5.337
0.247,0.059,0.264,-5.337
0.142,0.059,0.262,-5.337
0.136,0.055,0.262,-5.337
0.155,0.057,0.265,-5.337
0.168,0.056,0.265,-5.337
0.160,0.055,0.266,-5.337
0.119,0.056,0.269,-5.337
0.124,0.056,0.268,-5.337
0.189,0.056,0.264,-5.337
0.264,0.054,0.261,-5.337
0.273,0.053,0.259,-5.337
0.194,0.055,0.262,-5.337
0.221,0.052,0.267,-5.337
0.258,0.050,0.269,-5.337
0.242,0.048,0.269,-5.337
0.230,0.050,0.267,-5.337
0.210,0.054,0.265,-5.337
0.210,0.054,0.262,-5.337
0.193,0.053,0.264,-5.337
0.162,0.051,0.266,-5.337
0.195,0.049,0.267,-5.337
0.189,0.049,0.266,-5.337
0.168,0.053,0.262,-5.337
0.178,0.052,0.263,-5.337
0.211,0.052,0.267,-5.337
0.222,0.048,0.269,-5.337
0.235,0.045,0.266,-5.337
0.267,0.044,0.262,-5.337
0.263,0.045,0.262,-5.337
0.192,0.046,0.265,-5.337
0.156,0.051,0.267,-5.337
0.112,0.054,0.263,-5.337
0.182,0.049,0.261,-5.337
0.256,0.047,0.258,-5.337
0.242,0.051,0.262,-5.337
0.244,0.050,0.271,-5.337
0.224,0.048,0.273,-5.337
0.165,0.049,0.270,-5.337
0.151,0.051,0.263,-5.337
0.172,0.052,0.258,-5.337
0.189,0.050,0.259,-5.337
0.265,0.048,0.266,-5.337
0.268,0.048,0.269,-5.337
0.187,0.048,0.274,-5.337
0.154,0.047,0.273,-5.337
0.195,0.044,0.268,-5.337
0.234,0.044,0.264,-5.337
0.161,0.047,0.264,-5.337
0.135,0.047,0.263,-5.337
0.164,0.046,0.264,-5.337
0.174,0.046,0.266,-5.337
0.120,0.048,0.269,-5.337
0.048,0.049,0.269,-5.337
0.112,0.045,0.269,-5.337
0.217,0.043,0.268,-5.337
0.206,0.048,0.270,-5.337
0.124,0.053,0.269,-5.337
0.129,0.050,0.262,-5.337
0.234,0.043,0.262,-5.337
0.281,0.039,0.265,-5.337
0.267,0.042,0.271,-5.337
0.256,0.044,0.270,-5.337
0.247,0.045,0.267,-5.337
0.201,0.044,0.264,-5.337
0.188,0.044,0.264,-5.337
0.176,0.047,0.264,-5.337
0.222,0.047,0.266,-5.337
0.285,0.043,0.267,-5.337
0.306,0.045,0.270,-5.337
0.276,0.045,0.265,-5.337
0.233,0.047,0.262,-5.337
0.190,0.045,0.263,-5.337
0.184,0.046,0.268,-5.337
0.199,0.048,0.273,-5.337
0.255,0.046,0.274,-5.337
0.275,0.043,0.273,-5.337
0.195,0.038,0.274,-5.337
0.209,0.037,0.273,-5.337
0.185,0.042,0.267,-5.337
0.119,0.046,0.265,-5.337
0.140,0.042,0.268,-5.337
0.196,0.039,0.268,-5.337
0.223,0.040,0.265,-5.337
0.173,0.046,0.267,-5.337
0.154,0.042,0.267,-5.337
0.258,0.039,0.265,-5.337
0.266,0.041,0.262,-5.337
0.167,0.044,0.265,-5.337
0.148,0.041,0.267,-5.337
0.235,0.039,0.267,-5.337
0.268,0.038,0.270,-5.337
0.243,0.044,0.271,-5.337
0.213,0.044,0.266,-5.337
0.257,0.042,0.265,-5.337
0.279,0.040,0.265,-5.337
0.192,0.043,0.265,-5.337
0.120,0.044,0.267,-5.337
0.162,0.045,0.267,-5.337
0.175,0.043,0.264,-5.337
0.152,0.041,0.262,-5.337
0.105,0.044,0.264,-5.337
0.118,0.045,0.264,-5.337
0.218,0.041,0.267,-5.337
0.238,0.038,0.270,-5.337
0.241,0.037,0.270,-5.337
0.202,0.042,0.266,-5.337
0.177,0.044,0.266,-5.337
0.158,0.045,0.267,-5.337
0.180,0.044,0.268,-5.337
0.239,0.042,0.267,-5.337
0.209,0.045,0.265,-5.337
0.179,0.046,0.266,-5.337
0.126,0.049,0.268,-5.337
0.049,0.050,0.266,-5.337
0.062,0.045,0.263,-5.337
0.170,0.044,0.263,-5.337
0.214,0.044,0.268,-5.337
0.186,0.043,0.270,-5.337
0.163,0.042,0.271,-5.337
0.166,0.043,0.270,-5.337
0.192,0.041,0.267,-5.337
0.209,0.039,0.263,-5.337
0.221,0.040,0.259,-5.337
0.269,0.040,0.259,-5.337
0.246,0.037,0.262,-5.337
0.207,0.034,0.266,-5.337
0.183,0.036,0.267,-5.337
0.206,0.037,0.267,-5.337
0.231,0.038,0.267,-5.337
0.232,0.042,0.268,-5.337
0.200,0.045,0.267,-5.337
0.173,0.044,0.267,-5.337
0.171,0.041,0.264,-5.337
0.214,0.044,0.262,-5.337
0.190,0.045,0.264,-5.337
0.161,0.043,0.266,-5.337
0.133,0.045,0.265,-5.337
0.144,0.046,0.264,-5.337
0.213,0.041,0.265,-5.337
0.283,0.037,0.265,-5.337
0.305,0.040,0.260,-5.337
0.327,0.037,0.260,-5.337
0.258,0.038,0.268,-5.337
0.189,0.037,0.272,-5.337
0.159,0.036,0.271,-5.337
0.118,0.039,0.266,-5.337
0.144,0.041,0.262,-5.337
0.188,0.036,0.258,-5.337
0.193,0.037,0.259,-5.337
0.205,0.037,0.261,-5.337
0.234,0.039,0.265,-5.337
0.159,0.037,0.265,-5.337
0.165,0.036,0.265,-5.337
0.243,0.034,0.266,-5.337
0.227,0.034,0.268,-5.337
0.226,0.033,0.267,-5.337
0.267,0.037,0.263,-5.337
0.190,0.036,0.259,-5.337
0.186,0.035,0.261,-5.337
0.246,0.036,0.264,-5.337
0.261,0.036,0.264,-5.337
0.185,0.039,0.267,-5.337
0.226,0.033,0.265,-5.337
0.229,0.032,0.262,-5.337
0.196,0.039,0.264,-5.337
0.146,0.042,0.266,-5.337
0.159,0.039,0.267,-5.337
0.217,0.035,0.268,-5.337
0.302,0.034,0.268,-5.337
0.306,0.036,0.266,-5.337
0.260,0.039,0.261,-5.337
0.214,0.036,0.258,-5.337
0.167,0.032,0.257,-5.337
0.160,0.035,0.258,-5.337
0.228,0.034,0.261,-5.337
0.251,0.040,0.261,-5.337
0.196,0.038,0.262,-5.337
0.155,0.037,0.267,-5.337
0.227,0.035,0.270,-5.337
0.286,0.036,0.267,-5.337
0.232,0.039,0.263,-5.337
0.199,0.041,0.263,-5.337
0.177,0.038,0.263,-5.337
0.144,0.036,0.262,-5.337
0.137,0.034,0.264,-5.337
0.150,0.034,0.268,-5.337
0.105,0.036,0.270,-5.337
0.112,0.036,0.267,-5.337
0.166,0.035,0.265,-5.337
0.168,0.037,0.262,-5.337
0.142,0.037,0.262,-5.337
0.191,0.033,0.260,-5.337
0.236,0.030,0.259,-5.337
0.202,0.028,0.259,-5.337
0.180,0.035,0.262,-5.337
0.198,0.034,0.264,-5.337
0.192,0.035,0.263,-5.337
0.128,0.033,0.267,-5.337
0.202,0.025,0.270,-5.337
0.319,0.023,0.269,-5.337
0.287,0.030,0.267,-5.337
0.159,0.031,0.266,-5.337
0.170,0.031,0.265,-5.337
0.193,0.031,0.263,-5.337
0.238,0.031,0.262,-5.337
0.274,0.028,0.263,-5.337
0.260,0.030,0.260,-5.337
0.188,0.032,0.259,-5.337
0.105,0.037,0.263,-5.337
0.092,0.037,0.265,-5.337
0.156,0.034,0.263,-5.337
0.224,0.033,0.262,-5.337
0.187,0.031,0.262,-5.337
0.149,0.030,0.263,-5.337
0.157,0.031,0.265,-5.337
0.210,0.030,0.269,-5.337
0.245,0.030,0.266,-5.337
0.298,0.031,0.263,-5.337
0.264,0.033,0.263,-5.337
0.229,0.033,0.264,-5.337
0.179,0.033,0.261,-5.337
0.157,0.040,0.261,-5.337
0.142,0.041,0.263,-5.337
0.171,0.034,0.265,-5.337
0.178,0.031,0.267,-5.337
0.208,0.032,0.267,-5.337
0.254,0.032,0.271,-5.337
0.226,0.033,0.273,-5.337
0.184,0.034,0.271,-5.337
0.123,0.035,0.264,-5.337
0.150,0.031,0.258,-5.337
0.215,0.029,0.255,-5.337
0.275,0.031,0.260,-5.337
0.221,0.032,0.264,-5.337
0.197,0.034,0.268,-5.337
0.149,0.034,0.270,-5.337
0.105,0.035,0.268,-5.337
0.074,0.034,0.263,-5.337
0.081,0.035,0.262,-5.337
0.070,0.037,0.263,-5.337
0.055,0.041,0.264,-5.337
0.123,0.034,0.264,-5.337
0.203,0.029,0.262,-5.337
0.158,0.028,0.264,-5.337
0.149,0.029,0.269,-5.337
0.211,0.029,0.272,-5.337
0.210,0.033,0.268,-5.337
0.171,0.034,0.261,-5.337
0.177,0.032,0.259,-5.337
0.207,0.033,0.260,-5.337
0.196,0.031,0.263,-5.337
0.214,0.030,0.267,-5.337
0.217,0.034,0.263,-5.337
0.210,0.037,0.262,-5.337
0.156,0.037,0.265,-5.337
0.154,0.034,0.266,-5.337
0.158,0.036,0.260,-5.337
0.176,0.038,0.258,-5.337
0.253,0.032,0.258,-5.337
0.276,0.032,0.263,-5.337
0.177,0.036,0.263,-5.337
0.155,0.036,0.264,-5.337
0.193,0.035,0.268,-5.337
0.197,0.035,0.269,-5.337
0.152,0.038,0.268,-5.337
0.114,0.040,0.267,-5.337
0.169,0.037,0.263,-5.337
0.220,0.034,0.263,-5.337
0.184,0.037,0.262,-5.337
0.153,0.036,0.259,-5.337
0.118,0.038,0.259,-5.337
0.109,0.040,0.264,-5.337
0.067,0.040,0.267,-5.337
0.096,0.036,0.267,-5.337
0.204,0.032,0.266,-5.337
0.165,0.038,0.263,-5.337
0.192,0.037,0.263,-5.337
0.281,0.034,0.260,-5.337
0.263,0.035,0.262,-5.337
0.219,0.032,0.264,-5.337
0.165,0.037,0.259,-5.337
0.116,0.038,0.260,-5.337
0.151,0.039,0.264,-5.337
0.147,0.043,0.264,-5.337
0.128,0.043,0.260,-5.337
0.132,0.041,0.259,-5.337
0.120,0.042,0.263,-5.337
0.112,0.042,0.266,-5.337
0.171,0.037,0.264,-5.337
0.215,0.037,0.262,-5.337
0.181,0.041,0.264,-5.337
0.177,0.041,0.268,-5.337
0.234,0.039,0.264,-5.337
0.252,0.040,0.263,-5.337
0.239,0.040,0.265,-5.337
0.159,0.045,0.266,-5.337
0.125,0.043,0.265,-5.337
0.223,0.044,0.266,-5.337
0.257,0.044,0.264,-5.337
0.217,0.046,0.264,-5.337
0.172,0.042,0.269,-5.337
0.206,0.042,0.271,-5.337
0.196,0.045,0.267,-5.337
0.195,0.046,0.263,-5.337
0.222,0.042,0.263,-5.337
0.242,0.044,0.266,-5.337
0.189,0.048,0.265,-5.337
0.147,0.052,0.264,-5.337
0.139,0.049,0.265,-5.337
0.130,0.048,0.268,-5.337
0.100,0.049,0.267,-5.337
0.122,0.051,0.266,-5.337
0.162,0.048,0.266,-5.337
0.143,0.051,0.267,-5.337
0.134,0.053,0.263,-5.337
0.202,0.052,0.260,-5.337
0.224,0.051,0.262,-5.337
0.231,0.046,0.266,-5.337
0.266,0.045,0.272,-5.337
0.220,0.046,0.268,-5.337
0.167,0.048,0.265,-5.337
0.193,0.049,0.264,-5.337
0.189,0.051,0.264,-5.337
0.114,0.050,0.264,-5.337
0.165,0.048,0.264,-5.337
0.217,0.047,0.263,-5.337
0.186,0.045,0.261,-5.337
0.176,0.048,0.260,-5.337
0.175,0.046,0.263,-5.337
0.145,0.045,0.263,-5.337
0.158,0.045,0.267,-5.337
0.231,0.042,0.270,-5.337
0.206,0.042,0.269,-5.337
0.133,0.048,0.267,-5.337
0.141,0.050,0.264,-5.337
0.198,0.049,0.265,-5.337
0.249,0.046,0.262,-5.337
0.260,0.049,0.260,-5.337
0.216,0.049,0.264,-5.337
0.166,0.054,0.273,-5.337
0.149,0.053,0.272,-5.337
0.152,0.052,0.269,-5.337
0.160,0.049,0.270,-5.337
0.194,0.053,0.268,-5.337
0.254,0.054,0.264,-5.337
0.243,0.055,0.264,-5.337
0.157,0.057,0.264,-5.337
0.119,0.057,0.268,-5.337
0.169,0.056,0.273,-5.337
0.191,0.054,0.271,-5.337
0.184,0.054,0.266,-5.337
0.202,0.055,0.263,-5.337
0.262,0.054,0.263,-5.337
0.232,0.053,0.261,-5.337
0.168,0.057,0.265,-5.337
0.194,0.056,0.265,-5.337
0.290,0.051,0.261,-5.337
0.267,0.049,0.262,-5.337
0.212,0.051,0.269,-5.337
0.196,0.052,0.270,-5.337
0.187,0.052,0.270,-5.337
0.249,0.055,0.265,-5.337
0.337,0.052,0.263,-5.337
0.278,0.052,0.263,-5.337
0.224,0.051,0.264,-5.337
0.168,0.052,0.265,-5.337
0.181,0.056,0.265,-5.337
0.192,0.058,0.267,-5.337
0.129,0.059,0.269,-5.337
0.117,0.059,0.270,-5.337
0.132,0.056,0.264,-5.337
0.191,0.053,0.265,-5.337
0.193,0.056,0.269,-5.337
0.175,0.056,0.271,-5.337
0.184,0.052,0.270,-5.337
0.190,0.050,0.272,-5.337
0.127,0.054,0.271,-5.337
0.106,0.055,0.268,-5.337
0.162,0.053,0.265,-5.337
0.194,0.051,0.265,-5.337
0.182,0.053,0.263,-5.337
0.177,0.049,0.265,-5.337
0.217,0.048,0.263,-5.337
0.196,0.053,0.258,-5.337
0.140,0.057,0.259,-5.337
0.126,0.056,0.262,-5.337
0.137,0.057,0.263,-5.337
0.166,0.058,0.263,-5.337
0.189,0.057,0.265,-5.337
0.262,0.054,0.263,-5.337
