[Parameters]
Operating Mode, Feedback
Subject  AA..ZZ, WT
Session  0..99, 44
No. Trials (1..9999), 500
Mouse Number, 1
Pressure Probe Serial Port, \00\00\00\04COM4
Save additional csv file, TRUE
Save using mouse number, FALSE
A/D Monitor Rate (Hz), 30000.000000
A/D Stimulate Rate (Hz), 30000.000000
A/D input range (+/- V), 5
No. Channels to acquire (N), 2
Pre-Stim Acq. time (ms), 100.000000
Post-Stim Acq. time (ms), 900.000000
Analysis window parameters.M-response Start (ms), 1.100000
Analysis window parameters.M-response Duration (ms), 5.500000
Analysis window parameters.H-response Duration (ms), 6.000000
Analysis window parameters.H-response Start (ms), 6.500000
Feedback window, H response
Proportional gain, 0.100000
Target value, 6.700000
Feedback Ch., 1
Stim Channel to Control (1-4), 4
Trial, 23
Wait for EMG Conditions, FALSE
Channel to monitor (0 - N-1), 1
EMG Hi Limit, 2.000000
EMG Lo Limit, 0.001000
Inter-Stim delay (sec), 10.000000
EMG Monitor Mode, Mean
Time to run Long Stim.(sec), 30
Save Long Stim Data?, OFF
BURST Save time (ms), 1000
BURST Save Interval (x above), 10
Long-Stim. Rep. Rate (Hz), 10.000000
Stim type cluster array.<size(s)>, 4
Stim type cluster array 0.Stimulus Output, Electrical
Stim type cluster array 1.Stimulus Output, OFF
Stim type cluster array 2.Stimulus Output, OFF
Stim type cluster array 3.Stimulus Output, Motor Length
Stim specs cluster array.<size(s)>, 4
Stim specs cluster array 0.Initial Stimulus ampl., 0.300000
Stim specs cluster array 0.Maximum Stimulus, 1.120000
Stim specs cluster array 0.#Pulses in train, 4
Stim specs cluster array 0.Peak Level time (ms), 1.000000
Stim specs cluster array 0.Total pulse period (ms), 150.000000
Stim specs cluster array 0.Start Delay (ms), -50.000000
Stim specs cluster array 0.Pulse Shape, Square
Stim specs cluster array 0.Ramp/Rel. time (ms), 0.100000
Stim specs cluster array 0.Peak Amplitude (V), 0.120000
Stim specs cluster array 1.Initial Stimulus ampl., 0.000000
Stim specs cluster array 1.Maximum Stimulus, 0.000000
Stim specs cluster array 1.#Pulses in train, 3
Stim specs cluster array 1.Peak Level time (ms), 29.000000
Stim specs cluster array 1.Total pulse period (ms), 200.000000
Stim specs cluster array 1.Start Delay (ms), 0.000000
Stim specs cluster array 1.Pulse Shape, Square
Stim specs cluster array 1.Ramp/Rel. time (ms), 0.000000
Stim specs cluster array 1.Peak Amplitude (V), 2.000000
Stim specs cluster array 2.Initial Stimulus ampl., 0.000000
Stim specs cluster array 2.Maximum Stimulus, 0.000000
Stim specs cluster array 2.#Pulses in train, 1
Stim specs cluster array 2.Peak Level time (ms), 25.000000
Stim specs cluster array 2.Total pulse period (ms), 200.000000
Stim specs cluster array 2.Start Delay (ms), 0.000000
Stim specs cluster array 2.Pulse Shape, Square
Stim specs cluster array 2.Ramp/Rel. time (ms), 20.000000
Stim specs cluster array 2.Peak Amplitude (V), 10.000000
Stim specs cluster array 3.Initial Stimulus ampl., 0.000000
Stim specs cluster array 3.Maximum Stimulus, 15.000000
Stim specs cluster array 3.#Pulses in train, 25
Stim specs cluster array 3.Peak Level time (ms), 0.100000
Stim specs cluster array 3.Total pulse period (ms), 4.000000
Stim specs cluster array 3.Start Delay (ms), 205.000000
Stim specs cluster array 3.Pulse Shape, Triangle
Stim specs cluster array 3.Ramp/Rel. time (ms), 3.000000
Stim specs cluster array 3.Peak Amplitude (V), 0.500000
Force cal. (mN/Volt), 100.000000
Force Range (mN), 100.000000
Length cal. (mm/Volt), 10.000000
Length Range (mm), 10.000000
Stim. 1, 0.300000
Stim. 2, 0.000000
Stim. 3, 0.000000
Stim. 4, 0.000000
Monitor acquire time (ms), 100.000000
EMG graph Ymax, 0.100000
Travel limit (mm), 20.000000
Use Pressure Probe, FALSE
Pressure goal (g), 100
Speed (mm/sec), 5.000000
Dwell time (ms), 100.000000
Pressure limit (g), 500.000000
Channel amplitude offset, 0.000000

[DATA]

0.164,0.054,0.264,-5.337
0.219,0.057,0.259,-5.337
0.215,0.058,0.255,-5.337
0.256,0.057,0.257,-5.337
0.265,0.056,0.259,-5.337
0.263,0.054,0.257,-5.337
0.267,0.054,0.257,-5.337
0.241,0.060,0.256,-5.337
0.212,0.060,0.257,-5.337
0.136,0.062,0.258,-5.337
0.112,0.063,0.262,-5.337
0.154,0.061,0.262,-5.337
0.245,0.062,0.262,-5.337
0.253,0.059,0.261,-5.337
0.250,0.056,0.257,-5.337
0.215,0.058,0.258,-5.337
0.243,0.060,0.260,-5.337
0.277,0.062,0.263,-5.337
0.268,0.057,0.263,-5.337
0.211,0.057,0.263,-5.337
0.192,0.055,0.261,-5.337
0.274,0.055,0.260,-5.337
0.244,0.054,0.259,-5.337
0.155,0.057,0.255,-5.337
0.117,0.062,0.253,-5.337
0.159,0.063,0.254,-5.337
0.209,0.062,0.260,-5.337
0.253,0.056,0.265,-5.337
0.301,0.053,0.264,-5.337
0.248,0.062,0.261,-5.337
0.199,0.064,0.257,-5.337
0.263,0.060,0.253,-5.337
0.260,0.060,0.253,-5.337
0.205,0.059,0.258,-5.337
0.182,0.056,0.261,-5.337
0.116,0.059,0.260,-5.337
0.047,0.061,0.260,-5.337
0.108,0.059,0.257,-5.337
0.142,0.058,0.261,-5.337
0.141,0.061,0.262,-5.337
0.075,0.063,0.261,-5.337
0.050,0.061,0.261,-5.337
0.099,0.062,0.265,-5.337
0.163,0.060,0.267,-5.337
0.166,0.062,0.261,-5.337
0.195,0.059,0.255,-5.337
0.238,0.057,0.253,-5.337
0.232,0.055,0.255,-5.337
0.234,0.053,0.258,-5.337
0.259,0.053,0.259,-5.337
0.268,0.055,0.260,-5.337
0.275,0.056,0.261,-5.337
0.280,0.056,0.260,-5.337
0.249,0.058,0.258,-5.337
0.218,0.059,0.258,-5.337
0.229,0.059,0.261,-5.337
0.262,0.057,0.260,-5.337
0.278,0.057,0.260,-5.337
0.271,0.059,0.258,-5.337
0.255,0.061,0.258,-5.337
0.176,0.061,0.259,-5.337
0.142,0.065,0.260,-5.337
0.181,0.065,0.258,-5.337
0.212,0.063,0.258,-5.337
0.242,0.063,0.262,-5.337
0.232,0.064,0.266,-5.337
0.230,0.063,0.265,-5.337
0.256,0.062,0.260,-5.337
0.258,0.059,0.253,-5.337
0.218,0.057,0.253,-5.337
0.213,0.055,0.255,-5.337
0.228,0.055,0.258,-5.337
0.181,0.058,0.261,-5.337
0.132,0.058,0.260,-5.337
0.184,0.055,0.261,-5.337
0.196,0.056,0.262,-5.337
0.230,0.058,0.261,-5.337
0.277,0.061,0.257,-5.337
0.243,0.062,0.257,-5.337
0.204,0.060,0.259,-5.337
0.255,0.060,0.263,-5.337
0.258,0.062,0.261,-5.337
0.176,0.064,0.261,-5.337
0.128,0.063,0.260,-5.337
0.144,0.064,0.260,-5.337
0.231,0.064,0.258,-5.337
0.267,0.063,0.257,-5.337
0.227,0.062,0.261,-5.337
0.266,0.063,0.258,-5.337
0.269,0.062,0.251,-5.337
0.182,0.067,0.254,-5.337
0.162,0.067,0.258,-5.337
0.228,0.065,0.257,-5.337
0.225,0.067,0.253,-5.337
0.208,0.069,0.254,-5.337
0.274,0.067,0.259,-5.337
0.258,0.069,0.261,-5.337
0.244,0.065,0.255,-5.337
0.229,0.065,0.254,-5.337
0.250,0.064,0.261,-5.337
0.257,0.061,0.262,-5.337
0.237,0.062,0.261,-5.337
0.274,0.061,0.258,-5.337
0.318,0.058,0.260,-5.337
0.287,0.061,0.260,-5.337
0.179,0.065,0.259,-5.337
0.166,0.063,0.257,-5.337
0.205,0.062,0.260,-5.337
0.249,0.059,0.261,-5.337
0.222,0.061,0.262,-5.337
0.186,0.062,0.258,-5.337
0.211,0.057,0.256,-5.337
0.272,0.053,0.257,-5.337
0.261,0.054,0.260,-5.337
0.257,0.054,0.263,-5.337
0.248,0.059,0.263,-5.337
0.302,0.061,0.260,-5.337
0.287,0.062,0.261,-5.337
0.213,0.061,0.257,-5.337
0.215,0.058,0.255,-5.337
0.188,0.060,0.256,-5.337
0.177,0.060,0.254,-5.337
0.251,0.058,0.254,-5.337
0.264,0.060,0.260,-5.337
0.215,0.057,0.263,-5.337
0.218,0.058,0.260,-5.337
0.180,0.060,0.260,-5.337
0.230,0.062,0.260,-5.337
0.194,0.066,0.262,-5.337
0.185,0.062,0.261,-5.337
0.242,0.057,0.258,-5.337
0.234,0.057,0.255,-5.337
0.161,0.060,0.255,-5.337
0.175,0.057,0.255,-5.337
0.239,0.057,0.257,-5.337
0.279,0.056,0.262,-5.337
0.226,0.060,0.267,-5.337
0.144,0.060,0.264,-5.337
0.173,0.056,0.259,-5.337
0.227,0.057,0.256,-5.337
0.182,0.058,0.256,-5.337
0.134,0.054,0.259,-5.337
0.190,0.054,0.263,-5.337
0.220,0.055,0.266,-5.337
0.284,0.050,0.261,-5.337
0.285,0.049,0.260,-5.337
0.290,0.052,0.258,-5.337
0.265,0.054,0.260,-5.337
0.207,0.056,0.261,-5.337
0.233,0.056,0.266,-5.337
0.267,0.053,0.266,-5.337
0.241,0.052,0.264,-5.337
0.173,0.053,0.259,-5.337
0.163,0.056,0.257,-5.337
0.244,0.052,0.258,-5.337
0.310,0.052,0.258,-5.337
0.245,0.053,0.255,-5.337
0.205,0.053,0.252,-5.337
0.260,0.050,0.248,-5.337
0.195,0.053,0.252,-5.337
0.192,0.051,0.256,-5.337
0.258,0.053,0.259,-5.337
0.274,0.052,0.261,-5.337
0.334,0.051,0.262,-5.337
0.276,0.051,0.263,-5.337
0.276,0.050,0.260,-5.337
0.245,0.051,0.258,-5.337
0.195,0.053,0.258,-5.337
0.189,0.055,0.260,-5.337
0.215,0.050,0.259,-5.337
0.225,0.050,0.259,-5.337
0.159,0.054,0.256,-5.337
0.087,0.054,0.256,-5.337
0.088,0.052,0.256,-5.337
0.120,0.051,0.256,-5.337
0.217,0.048,0.258,-5.337
0.273,0.049,0.262,-5.337
0.202,0.048,0.263,-5.337
0.154,0.048,0.266,-5.337
0.179,0.047,0.266,-5.337
0.246,0.045,0.262,-5.337
0.217,0.045,0.256,-5.337
0.172,0.046,0.255,-5.337
0.217,0.042,0.257,-5.337
0.229,0.043,0.259,-5.337
0.243,0.043,0.260,-5.337
0.244,0.045,0.260,-5.337
0.159,0.048,0.259,-5.337
0.122,0.050,0.254,-5.337
0.100,0.051,0.252,-5.337
0.156,0.048,0.253,-5.337
0.253,0.043,0.256,-5.337
0.242,0.042,0.255,-5.337
0.188,0.041,0.257,-5.337
0.190,0.041,0.263,-5.337
0.204,0.047,0.262,-5.337
0.235,0.046,0.258,-5.337
0.210,0.046,0.259,-5.337
0.181,0.046,0.262,-5.337
0.241,0.041,0.263,-5.337
0.275,0.041,0.261,-5.337
0.288,0.040,0.260,-5.337
0.298,0.041,0.258,-5.337
0.229,0.044,0.256,-5.337
0.231,0.042,0.258,-5.337
0.194,0.044,0.260,-5.337
0.108,0.047,0.264,-5.337
0.127,0.044,0.266,-5.337
0.174,0.043,0.263,-5.337
0.177,0.039,0.256,-5.337
0.244,0.035,0.257,-5.337
0.223,0.035,0.258,-5.337
0.224,0.037,0.256,-5.337
0.237,0.041,0.253,-5.337
0.209,0.043,0.256,-5.337
0.207,0.042,0.258,-5.337
0.219,0.042,0.259,-5.337
0.190,0.045,0.261,-5.337
0.207,0.044,0.264,-5.337
0.257,0.039,0.266,-5.337
0.287,0.042,0.260,-5.337
0.189,0.044,0.255,-5.337
0.090,0.045,0.253,-5.337
0.088,0.041,0.256,-5.337
0.165,0.035,0.258,-5.337
0.223,0.037,0.257,-5.337
0.220,0.043,0.262,-5.337
0.161,0.044,0.264,-5.337
0.130,0.043,0.261,-5.337
0.145,0.041,0.262,-5.337
0.192,0.040,0.263,-5.337
0.205,0.039,0.262,-5.337
0.158,0.037,0.258,-5.337
0.159,0.035,0.255,-5.337
0.187,0.039,0.258,-5.337
0.196,0.040,0.263,-5.337
0.164,0.037,0.261,-5.337
0.135,0.039,0.259,-5.337
0.138,0.041,0.259,-5.337
0.158,0.040,0.259,-5.337
0.175,0.042,0.261,-5.337
0.184,0.043,0.263,-5.337
0.160,0.040,0.262,-5.337
0.216,0.036,0.258,-5.337
0.270,0.040,0.254,-5.337
0.225,0.045,0.255,-5.337
0.148,0.042,0.258,-5.337
0.193,0.036,0.258,-5.337
0.178,0.035,0.258,-5.337
0.242,0.036,0.257,-5.337
0.211,0.036,0.259,-5.337
0.184,0.034,0.257,-5.337
0.229,0.036,0.260,-5.337
0.241,0.037,0.261,-5.337
0.153,0.039,0.261,-5.337
0.148,0.043,0.259,-5.337
0.108,0.044,0.261,-5.337
0.126,0.039,0.262,-5.337
0.227,0.038,0.258,-5.337
0.284,0.041,0.253,-5.337
0.221,0.041,0.250,-5.337
0.208,0.039,0.254,-5.337
0.235,0.037,0.257,-5.337
0.196,0.039,0.256,-5.337
0.150,0.043,0.259,-5.337
0.224,0.037,0.263,-5.337
0.210,0.037,0.264,-5.337
0.110,0.038,0.259,-5.337
0.149,0.038,0.257,-5.337
0.186,0.038,0.259,-5.337
0.190,0.036,0.261,-5.337
0.172,0.037,0.265,-5.337
0.184,0.038,0.264,-5.337
0.193,0.040,0.261,-5.337
0.173,0.040,0.258,-5.337
0.134,0.039,0.257,-5.337
0.154,0.038,0.253,-5.337
0.186,0.040,0.255,-5.337
0.186,0.038,0.257,-5.337
0.218,0.041,0.258,-5.337
0.136,0.045,0.260,-5.337
0.035,0.047,0.259,-5.337
0.040,0.041,0.258,-5.337
0.110,0.039,0.259,-5.337
0.193,0.040,0.261,-5.337
0.315,0.038,0.261,-5.337
0.329,0.038,0.261,-5.337
0.222,0.039,0.264,-5.337
0.167,0.038,0.261,-5.337
0.176,0.037,0.258,-5.337
0.205,0.036,0.259,-5.337
0.244,0.033,0.259,-5.337
0.211,0.036,0.259,-5.337
0.176,0.039,0.257,-5.337
0.136,0.042,0.258,-5.337
0.089,0.038,0.259,-5.337
0.169,0.035,0.259,-5.337
0.254,0.035,0.257,-5.337
0.247,0.038,0.259,-5.337
0.128,0.038,0.256,-5.337
0.128,0.039,0.253,-5.337
0.147,0.038,0.255,-5.337
0.174,0.035,0.262,-5.337
0.177,0.034,0.264,-5.337
0.124,0.037,0.263,-5.337
0.158,0.035,0.260,-5.337
0.214,0.031,0.257,-5.337
0.213,0.030,0.255,-5.337
0.228,0.034,0.254,-5.337
0.178,0.036,0.254,-5.337
0.204,0.032,0.254,-5.337
0.295,0.031,0.259,-5.337
0.322,0.034,0.263,-5.337
0.243,0.035,0.265,-5.337
0.171,0.037,0.264,-5.337
0.202,0.034,0.264,-5.337
0.199,0.033,0.262,-5.337
0.180,0.036,0.258,-5.337
0.117,0.039,0.256,-5.337
0.117,0.037,0.257,-5.337
0.173,0.034,0.261,-5.337
0.174,0.034,0.265,-5.337
0.166,0.033,0.266,-5.337
0.218,0.035,0.264,-5.337
0.231,0.036,0.257,-5.337
0.187,0.037,0.254,-5.337
0.153,0.036,0.256,-5.337
0.180,0.032,0.257,-5.337
0.170,0.033,0.258,-5.337
0.129,0.036,0.260,-5.337
0.120,0.034,0.259,-5.337
0.177,0.032,0.259,-5.337
0.151,0.036,0.259,-5.337
0.131,0.038,0.260,-5.337
0.145,0.034,0.262,-5.337
0.160,0.033,0.258,-5.337
0.114,0.034,0.257,-5.337
0.076,0.035,0.258,-5.337
0.111,0.032,0.259,-5.337
0.169,0.033,0.255,-5.337
0.231,0.035,0.256,-5.337
0.258,0.035,0.258,-5.337
0.144,0.036,0.260,-5.337
0.153,0.036,0.263,-5.337
0.184,0.036,0.262,-5.337
0.210,0.036,0.260,-5.337
0.182,0.035,0.260,-5.337
0.160,0.032,0.258,-5.337
0.158,0.033,0.258,-5.337
0.115,0.035,0.257,-5.337
0.118,0.038,0.258,-5.337
0.190,0.040,0.259,-5.337
0.226,0.032,0.260,-5.337
0.296,0.029,0.261,-5.337
0.290,0.030,0.261,-5.337
0.251,0.032,0.260,-5.337
0.213,0.032,0.258,-5.337
0.162,0.031,0.257,-5.337
0.229,0.027,0.257,-5.337
0.239,0.029,0.261,-5.337
0.225,0.028,0.261,-5.337
0.192,0.029,0.258,-5.337
0.197,0.029,0.254,-5.337
0.170,0.029,0.255,-5.337
0.149,0.032,0.259,-5.337
0.130,0.036,0.261,-5.337
0.178,0.034,0.257,-5.337
0.231,0.036,0.256,-5.337
0.239,0.036,0.259,-5.337
0.165,0.036,0.262,-5.337
0.147,0.033,0.264,-5.337
0.149,0.034,0.265,-5.337
0.127,0.035,0.264,-5.337
0.206,0.033,0.266,-5.337
0.236,0.031,0.262,-5.337
0.137,0.033,0.261,-5.337
0.107,0.034,0.260,-5.337
0.183,0.035,0.261,-5.337
0.223,0.037,0.261,-5.337
0.149,0.041,0.255,-5.337
0.131,0.039,0.254,-5.337
0.140,0.039,0.255,-5.337
0.171,0.038,0.258,-5.337
0.158,0.038,0.258,-5.337
0.136,0.038,0.263,-5.337
0.142,0.037,0.264,-5.337
0.146,0.035,0.265,-5.337
0.180,0.033,0.261,-5.337
0.180,0.037,0.261,-5.337
0.209,0.040,0.260,-5.337
0.196,0.040,0.258,-5.337
0.166,0.042,0.259,-5.337
0.153,0.045,0.261,-5.337
0.108,0.045,0.262,-5.337
0.101,0.039,0.259,-5.337
0.120,0.036,0.256,-5.337
0.101,0.038,0.255,-5.337
0.072,0.042,0.257,-5.337
0.049,0.044,0.260,-5.337
0.098,0.043,0.265,-5.337
0.128,0.040,0.267,-5.337
0.095,0.040,0.265,-5.337
0.086,0.039,0.260,-5.337
0.161,0.040,0.261,-5.337
0.212,0.040,0.260,-5.337
0.179,0.044,0.258,-5.337
0.162,0.044,0.258,-5.337
0.190,0.044,0.260,-5.337
0.154,0.045,0.255,-5.337
0.129,0.043,0.249,-5.337
0.167,0.040,0.251,-5.337
0.162,0.042,0.260,-5.337
0.194,0.043,0.265,-5.337
0.247,0.041,0.263,-5.337
0.273,0.039,0.259,-5.337
0.248,0.041,0.256,-5.337
0.233,0.038,0.257,-5.337
0.232,0.039,0.260,-5.337
0.171,0.040,0.260,-5.337
0.104,0.042,0.258,-5.337
0.130,0.039,0.259,-5.337
0.227,0.036,0.259,-5.337
0.284,0.037,0.259,-5.337
0.217,0.043,0.261,-5.337
0.143,0.041,0.259,-5.337
0.244,0.038,0.254,-5.337
0.252,0.042,0.254,-5.337
0.185,0.043,0.255,-5.337
0.149,0.044,0.257,-5.337
0.157,0.045,0.257,-5.337
0.174,0.044,0.260,-5.337
0.162,0.043,0.260,-5.337
0.167,0.045,0.260,-5.337
0.130,0.047,0.257,-5.337
0.160,0.047,0.255,-5.337
0.166,0.042,0.255,-5.337
0.224,0.040,0.256,-5.337
0.268,0.036,0.260,-5.337
0.210,0.036,0.262,-5.337
0.142,0.039,0.260,-5.337
0.132,0.043,0.256,-5.337
0.222,0.039,0.254,-5.337
0.266,0.037,0.252,-5.337
0.227,0.040,0.251,-5.337
0.273,0.040,0.252,-5.337
0.199,0.046,0.255,-5.337
0.099,0.045,0.255,-5.337
0.114,0.044,0.257,-5.337
0.147,0.043,0.254,-5.337
0.180,0.043,0.257,-5.337
0.205,0.044,0.257,-5.337
0.209,0.043,0.258,-5.337
0.199,0.042,0.258,-5.337
0.126,0.042,0.259,-5.337
0.134,0.046,0.257,-5.337
0.185,0.046,0.255,-5.337
0.263,0.044,0.253,-5.337
0.225,0.045,0.254,-5.337
0.192,0.047,0.258,-5.337
0.224,0.046,0.261,-5.337
0.208,0.045,0.257,-5.337
0.142,0.047,0.254,-5.337
0.187,0.045,0.254,-5.337
0.246,0.043,0.252,-5.337
0.196,0.047,0.254,-5.337
0.152,0.050,0.255,-5.337
0.213,0.047,0.258,-5.337
0.249,0.042,0.258,-5.337
0.227,0.045,0.256,-5.337
0.211,0.049,0.255,-5.337
0.190,0.050,0.254,-5.337
0.203,0.045,0.255,-5.337
0.215,0.047,0.259,-5.337
0.184,0.049,0.258,-5.337
0.147,0.051,0.255,-5.337
0.159,0.050,0.254,-5.337
0.249,0.047,0.255,-5.337
0.283,0.046,0.257,-5.337
0.214,0.048,0.256,-5.337
0.182,0.049,0.255,-5.337
0.142,0.051,0.256,-5.337
0.134,0.052,0.256,-5.337
0.149,0.050,0.255,-5.337
0.222,0.049,0.255,-5.337
0.270,0.049,0.256,-5.337
0.194,0.053,0.253,-5.337
0.145,0.051,0.251,-5.337
0.196,0.047,0.253,-5.337
0.270,0.048,0.254,-5.337
0.271,0.051,0.255,-5.337
0.232,0.050,0.255,-5.337
0.217,0.049,0.256,-5.337
0.181,0.053,0.256,-5.337
0.144,0.055,0.256,-5.337
0.150,0.050,0.254,-5.337
0.212,0.047,0.253,-5.337
0.242,0.049,0.252,-5.337
0.240,0.050,0.253,-5.337
0.241,0.050,0.255,-5.337
0.240,0.053,0.256,-5.337
0.193,0.054,0.256,-5.337
0.153,0.054,0.256,-5.337
0.181,0.052,0.257,-5.337
0.185,0.055,0.256,-5.337
0.141,0.053,0.254,-5.337
0.049,0.051,0.254,-5.337
0.167,0.050,0.255,-5.337
0.256,0.054,0.258,-5.337
0.208,0.054,0.257,-5.337
0.154,0.054,0.252,-5.337
0.198,0.052,0.254,-5.337
0.236,0.048,0.257,-5.337
0.240,0.045,0.257,-5.337
0.279,0.045,0.255,-5.337
0.317,0.044,0.254,-5.337
0.255,0.045,0.251,-5.337
0.225,0.049,0.253,-5.337
0.247,0.053,0.253,-5.337
0.213,0.054,0.254,-5.337
0.112,0.053,0.256,-5.337
0.104,0.056,0.256,-5.337
0.238,0.052,0.257,-5.337
0.253,0.051,0.254,-5.337
0.172,0.052,0.257,-5.337
0.158,0.053,0.258,-5.337
0.151,0.054,0.257,-5.337
0.237,0.053,0.256,-5.337
0.267,0.053,0.252,-5.337
0.248,0.054,0.250,-5.337
0.206,0.056,0.249,-5.337
0.182,0.056,0.250,-5.337
0.224,0.054,0.253,-5.337
0.315,0.051,0.257,-5.337
0.336,0.054,0.259,-5.337
0.214,0.055,0.257,-5.337
0.214,0.057,0.257,-5.337
0.227,0.058,0.258,-5.337
0.243,0.055,0.260,-5.337
0.250,0.056,0.257,-5.337
0.231,0.060,0.257,-5.337
0.247,0.060,0.252,-5.337
0.225,0.067,0.252,-5.337
0.111,0.068,0.253,-5.337
0.109,0.064,0.258,-5.337
0.132,0.062,0.262,-5.337
0.159,0.065,0.260,-5.337
0.215,0.065,0.253,-5.337
0.208,0.063,0.251,-5.337
0.232,0.059,0.251,-5.337
0.302,0.057,0.252,-5.337
0.295,0.057,0.254,-5.337
0.239,0.061,0.256,-5.337
0.197,0.061,0.258,-5.337
0.173,0.058,0.261,-5.337
0.236,0.053,0.261,-5.337
0.277,0.052,0.261,-5.337
0.262,0.053,0.257,-5.337
0.280,0.053,0.251,-5.337
0.246,0.053,0.252,-5.337
0.201,0.056,0.254,-5.337
0.226,0.056,0.258,-5.337
0.261,0.056,0.257,-5.337
0.257,0.057,0.254,-5.337
0.237,0.057,0.255,-5.337
0.228,0.061,0.255,-5.337
0.254,0.060,0.255,-5.337
0.279,0.059,0.255,-5.337
0.186,0.063,0.255,-5.337
0.149,0.064,0.254,-5.337
0.193,0.063,0.256,-5.337
0.177,0.063,0.257,-5.337
0.219,0.060,0.258,-5.337
0.231,0.062,0.256,-5.337
0.112,0.066,0.255,-5.337
0.079,0.061,0.254,-5.337
0.141,0.057,0.256,-5.337
0.201,0.057,0.254,-5.337
0.234,0.058,0.254,-5.337
0.217,0.056,0.253,-5.337
0.244,0.055,0.259,-5.337
0.274,0.058,0.257,-5.337
0.265,0.062,0.254,-5.337
0.221,0.063,0.251,-5.337
0.242,0.062,0.253,-5.337
0.294,0.060,0.255,-5.337
0.274,0.062,0.254,-5.337
0.235,0.064,0.250,-5.337
0.224,0.066,0.253,-5.337
0.244,0.061,0.255,-5.337
0.277,0.058,0.259,-5.337
0.312,0.060,0.261,-5.337
0.270,0.065,0.260,-5.337
0.281,0.064,0.257,-5.337
0.287,0.062,0.257,-5.337
0.272,0.058,0.255,-5.337
0.236,0.062,0.257,-5.337
0.184,0.060,0.255,-5.337
0.184,0.054,0.253,-5.337
0.161,0.056,0.253,-5.337
0.242,0.057,0.255,-5.337
0.291,0.059,0.257,-5.337
0.292,0.060,0.257,-5.337
0.269,0.061,0.255,-5.337
0.232,0.060,0.251,-5.337
0.208,0.061,0.252,-5.337
0.191,0.061,0.256,-5.337
0.215,0.062,0.258,-5.337
0.241,0.062,0.258,-5.337
0.256,0.063,0.257,-5.337
0.262,0.064,0.257,-5.337
0.235,0.063,0.258,-5.337
0.187,0.061,0.257,-5.337
0.198,0.059,0.258,-5.337
0.278,0.062,0.255,-5.337
0.182,0.066,0.252,-5.337
0.142,0.061,0.252,-5.337
0.275,0.056,0.255,-5.337
0.220,0.055,0.254,-5.337
0.092,0.059,0.255,-5.337
0.117,0.058,0.258,-5.337
0.210,0.057,0.257,-5.337
0.231,0.056,0.256,-5.337
0.236,0.053,0.255,-5.337
0.238,0.054,0.255,-5.337
0.260,0.052,0.252,-5.337
0.284,0.053,0.253,-5.337
0.324,0.050,0.252,-5.337
0.325,0.056,0.252,-5.337
0.263,0.057,0.256,-5.337
0.220,0.056,0.261,-5.337
0.168,0.058,0.260,-5.337
0.150,0.057,0.258,-5.337
0.133,0.053,0.256,-5.337
0.147,0.055,0.255,-5.337
0.142,0.057,0.256,-5.337
0.167,0.059,0.256,-5.337
0.273,0.054,0.258,-5.337
0.284,0.057,0.260,-5.337
0.176,0.057,0.261,-5.337
0.144,0.057,0.257,-5.337
0.196,0.054,0.254,-5.337
0.248,0.054,0.250,-5.337
0.231,0.053,0.253,-5.337
0.240,0.052,0.252,-5.337
0.263,0.048,0.252,-5.337
0.263,0.049,0.252,-5.337
0.243,0.050,0.254,-5.337
0.249,0.050,0.254,-5.337
0.180,0.053,0.253,-5.337
0.171,0.052,0.256,-5.337
0.212,0.044,0.258,-5.337
0.225,0.045,0.260,-5.337
0.144,0.049,0.261,-5.337
0.115,0.053,0.257,-5.337
0.172,0.054,0.254,-5.337
0.177,0.054,0.254,-5.337
0.182,0.053,0.253,-5.337
0.188,0.049,0.256,-5.337
0.176,0.052,0.259,-5.337
0.203,0.053,0.261,-5.337
0.211,0.052,0.253,-5.337
0.243,0.050,0.250,-5.337
0.265,0.049,0.254,-5.337
0.242,0.047,0.258,-5.337
0.244,0.043,0.258,-5.337
0.205,0.045,0.262,-5.337
0.229,0.047,0.261,-5.337
0.208,0.050,0.258,-5.337
0.170,0.050,0.256,-5.337
0.167,0.051,0.258,-5.337
0.235,0.048,0.255,-5.337
0.274,0.049,0.253,-5.337
0.208,0.049,0.251,-5.337
0.198,0.048,0.248,-5.337
0.225,0.047,0.254,-5.337
0.188,0.046,0.260,-5.337
0.164,0.046,0.261,-5.337
0.129,0.049,0.259,-5.337
0.160,0.047,0.257,-5.337
0.192,0.047,0.257,-5.337
0.207,0.046,0.261,-5.337
0.238,0.046,0.259,-5.337
0.284,0.044,0.255,-5.337
0.256,0.045,0.256,-5.337
0.254,0.046,0.255,-5.337
0.299,0.049,0.253,-5.337
0.302,0.054,0.257,-5.337
0.280,0.053,0.258,-5.337
0.245,0.050,0.258,-5.337
0.195,0.044,0.255,-5.337
0.174,0.043,0.257,-5.337
0.205,0.043,0.258,-5.337
0.248,0.046,0.258,-5.337
0.246,0.046,0.252,-5.337
0.217,0.045,0.252,-5.337
0.227,0.040,0.253,-5.337
0.233,0.043,0.255,-5.337
0.210,0.045,0.253,-5.337
0.235,0.042,0.253,-5.337
0.183,0.045,0.255,-5.337
0.102,0.048,0.252,-5.337
0.066,0.048,0.249,-5.337
0.123,0.047,0.249,-5.337
0.236,0.047,0.254,-5.337
0.264,0.045,0.258,-5.337
0.203,0.045,0.263,-5.337
0.205,0.042,0.264,-5.337
0.203,0.041,0.261,-5.337
0.176,0.043,0.257,-5.337
0.195,0.046,0.258,-5.337
0.219,0.048,0.256,-5.337
0.137,0.049,0.253,-5.337
0.180,0.046,0.250,-5.337
0.223,0.046,0.253,-5.337
0.182,0.043,0.255,-5.337
0.213,0.042,0.257,-5.337
0.273,0.043,0.256,-5.337
0.273,0.047,0.256,-5.337
0.204,0.046,0.257,-5.337
0.160,0.042,0.260,-5.337
0.233,0.037,0.256,-5.337
0.278,0.036,0.256,-5.337
0.266,0.038,0.255,-5.337
0.238,0.038,0.257,-5.337
0.230,0.039,0.257,-5.337
0.221,0.041,0.255,-5.337
0.192,0.040,0.255,-5.337
0.202,0.037,0.254,-5.337
0.224,0.038,0.252,-5.337
0.192,0.041,0.250,-5.337
0.153,0.042,0.256,-5.337
0.115,0.043,0.259,-5.337
0.044,0.044,0.257,-5.337
0.083,0.039,0.253,-5.337
0.229,0.035,0.254,-5.337
0.260,0.037,0.257,-5.337
0.169,0.039,0.260,-5.337
0.169,0.035,0.261,-5.337
0.211,0.034,0.261,-5.337
0.198,0.033,0.256,-5.337
0.188,0.032,0.250,-5.337
0.227,0.031,0.248,-5.337
0.197,0.035,0.248,-5.337
0.151,0.039,0.248,-5.337
0.163,0.038,0.250,-5.337
0.262,0.035,0.255,-5.337
0.192,0.041,0.257,-5.337
0.126,0.043,0.255,-5.337
0.164,0.041,0.252,-5.337
0.154,0.042,0.254,-5.337
0.146,0.038,0.256,-5.337
0.210,0.037,0.258,-5.337
0.157,0.042,0.255,-5.337
0.131,0.042,0.256,-5.337
0.164,0.039,0.259,-5.337
0.190,0.039,0.261,-5.337
0.201,0.038,0.257,-5.337
0.202,0.039,0.254,-5.337
0.187,0.041,0.253,-5.337
0.172,0.042,0.254,-5.337
0.172,0.040,0.253,-5.337
0.175,0.042,0.253,-5.337
0.194,0.042,0.258,-5.337
0.218,0.042,0.259,-5.337
0.236,0.042,0.258,-5.337
0.236,0.038,0.256,-5.337
0.209,0.035,0.253,-5.337
0.193,0.039,0.255,-5.337
0.200,0.041,0.257,-5.337
0.138,0.041,0.255,-5.337
0.084,0.044,0.253,-5.337
0.125,0.042,0.251,-5.337
0.194,0.040,0.256,-5.337
0.173,0.035,0.261,-5.337
0.225,0.033,0.262,-5.337
0.260,0.032,0.257,-5.337
0.246,0.037,0.257,-5.337
0.158,0.041,0.258,-5.337
0.067,0.045,0.255,-5.337
0.104,0.039,0.254,-5.337
0.270,0.032,0.256,-5.337
0.228,0.036,0.256,-5.337
0.107,0.039,0.255,-5.337
0.175,0.036,0.250,-5.337
0.194,0.037,0.249,-5.337
0.144,0.036,0.252,-5.337
0.193,0.037,0.254,-5.337
0.241,0.038,0.255,-5.337
0.171,0.040,0.257,-5.337
0.162,0.040,0.260,-5.337
0.207,0.039,0.260,-5.337
0.249,0.039,0.260,-5.337
0.263,0.035,0.258,-5.337
0.306,0.034,0.256,-5.337
0.252,0.036,0.256,-5.337
0.240,0.042,0.259,-5.337
0.279,0.038,0.260,-5.337
0.300,0.037,0.258,-5.337
0.232,0.036,0.255,-5.337
0.213,0.035,0.253,-5.337
0.187,0.033,0.251,-5.337
0.139,0.035,0.253,-5.337
0.107,0.037,0.258,-5.337
0.095,0.037,0.259,-5.337
0.152,0.032,0.257,-5.337
0.219,0.031,0.255,-5.337
0.215,0.032,0.252,-5.337
0.193,0.035,0.252,-5.337
0.170,0.036,0.253,-5.337
0.122,0.036,0.252,-5.337
0.098,0.035,0.253,-5.337
0.198,0.032,0.256,-5.337
0.217,0.033,0.259,-5.337
0.155,0.038,0.256,-5.337
0.204,0.039,0.256,-5.337
0.191,0.040,0.256,-5.337
0.115,0.039,0.260,-5.337
0.191,0.039,0.257,-5.337
0.254,0.039,0.255,-5.337
0.179,0.036,0.251,-5.337
0.192,0.035,0.252,-5.337
0.217,0.034,0.254,-5.337
0.137,0.036,0.258,-5.337
0.117,0.035,0.258,-5.337
0.174,0.037,0.256,-5.337
0.173,0.039,0.252,-5.337
0.194,0.036,0.250,-5.337
0.182,0.034,0.251,-5.337
0.178,0.031,0.252,-5.337
0.200,0.030,0.254,-5.337
0.133,0.036,0.255,-5.337
0.148,0.039,0.255,-5.337
0.180,0.036,0.258,-5.337
0.152,0.038,0.263,-5.337
0.142,0.037,0.258,-5.337
0.165,0.038,0.254,-5.337
0.128,0.037,0.255,-5.337
0.108,0.035,0.257,-5.337
0.141,0.031,0.256,-5.337
0.191,0.027,0.258,-5.337
0.262,0.028,0.255,-5.337
0.222,0.031,0.253,-5.337
0.206,0.029,0.251,-5.337
0.209,0.031,0.254,-5.337
0.171,0.029,0.258,-5.337
0.211,0.028,0.258,-5.337
0.219,0.028,0.255,-5.337
0.235,0.032,0.255,-5.337
0.182,0.031,0.256,-5.337
0.123,0.033,0.255,-5.337
0.169,0.036,0.252,-5.337
0.257,0.035,0.251,-5.337
0.242,0.032,0.255,-5.337
0.194,0.030,0.260,-5.337
0.139,0.030,0.257,-5.337
0.153,0.033,0.254,-5.337
0.141,0.035,0.250,-5.337
0.170,0.033,0.246,-5.337
0.177,0.029,0.250,-5.337
0.210,0.030,0.257,-5.337
0.268,0.033,0.262,-5.337
0.256,0.035,0.261,-5.337
0.205,0.035,0.259,-5.337
0.081,0.036,0.256,-5.337
0.138,0.034,0.253,-5.337
0.161,0.032,0.254,-5.337
0.137,0.034,0.259,-5.337
0.216,0.031,0.261,-5.337
0.179,0.034,0.260,-5.337
0.133,0.034,0.259,-5.337
0.164,0.036,0.258,-5.337
0.179,0.036,0.256,-5.337
0.202,0.033,0.252,-5.337
0.190,0.030,0.248,-5.337
0.203,0.029,0.245,-5.337
0.131,0.035,0.247,-5.337
0.104,0.040,0.249,-5.337
0.114,0.040,0.256,-5.337
0.194,0.037,0.263,-5.337
0.137,0.039,0.264,-5.337
0.133,0.036,0.258,-5.337
0.270,0.031,0.255,-5.337
0.310,0.030,0.251,-5.337
0.197,0.035,0.255,-5.337
0.149,0.034,0.259,-5.337
0.188,0.033,0.259,-5.337
0.213,0.032,0.255,-5.337
0.146,0.034,0.254,-5.337
0.120,0.034,0.253,-5.337
0.178,0.041,0.256,-5.337
0.232,0.038,0.257,-5.337
0.246,0.036,0.257,-5.337
0.217,0.038,0.253,-5.337
0.209,0.037,0.249,-5.337
0.273,0.036,0.253,-5.337
0.208,0.042,0.257,-5.337
0.153,0.043,0.259,-5.337
0.171,0.042,0.260,-5.337
0.178,0.040,0.261,-5.337
0.140,0.041,0.257,-5.337
0.159,0.040,0.255,-5.337
0.203,0.039,0.254,-5.337
0.231,0.040,0.253,-5.337
0.281,0.040,0.252,-5.337
0.232,0.042,0.256,-5.337
0.155,0.040,0.259,-5.337
0.144,0.038,0.260,-5.337
0.262,0.036,0.258,-5.337
0.274,0.042,0.256,-5.337
0.226,0.041,0.257,-5.337
0.200,0.040,0.255,-5.337
0.199,0.041,0.254,-5.337
0.206,0.039,0.257,-5.337
0.204,0.040,0.259,-5.337
0.118,0.044,0.256,-5.337
0.042,0.045,0.249,-5.337
0.064,0.043,0.252,-5.337
0.098,0.041,0.256,-5.337
0.109,0.039,0.255,-5.337
0.110,0.038,0.255,-5.337
0.130,0.042,0.257,-5.337
0.114,0.046,0.256,-5.337
0.061,0.044,0.256,-5.337
0.094,0.041,0.257,-5.337
0.187,0.041,0.257,-5.337
0.249,0.041,0.260,-5.337
0.237,0.039,0.261,-5.337
0.221,0.042,0.259,-5.337
0.239,0.042,0.251,-5.337
0.234,0.046,0.249,-5.337
0.103,0.048,0.251,-5.337
0.116,0.046,0.254,-5.337
0.186,0.042,0.256,-5.337
0.206,0.042,0.257,-5.337
0.190,0.042,0.260,-5.337
0.204,0.042,0.260,-5.337
0.260,0.045,0.258,-5.337
0.272,0.046,0.256,-5.337
0.232,0.043,0.255,-5.337
0.214,0.042,0.255,-5.337
0.228,0.041,0.255,-5.337
0.236,0.041,0.256,-5.337
0.236,0.042,0.256,-5.337
0.281,0.038,0.256,-5.337
0.257,0.040,0.258,-5.337
0.196,0.041,0.255,-5.337
0.226,0.039,0.257,-5.337
0.218,0.038,0.259,-5.337
0.217,0.039,0.260,-5.337
0.188,0.042,0.257,-5.337
0.135,0.045,0.254,-5.337
0.173,0.042,0.251,-5.337
0.166,0.043,0.254,-5.337
0.146,0.044,0.257,-5.337
0.182,0.044,0.257,-5.337
0.231,0.042,0.255,-5.337
0.201,0.045,0.256,-5.337
0.183,0.045,0.256,-5.337
0.223,0.044,0.257,-5.337
0.218,0.046,0.255,-5.337
0.253,0.044,0.253,-5.337
0.263,0.043,0.253,-5.337
0.263,0.046,0.253,-5.337
0.187,0.047,0.253,-5.337
0.191,0.046,0.254,-5.337
0.246,0.044,0.256,-5.337
0.280,0.040,0.253,-5.337
0.280,0.042,0.250,-5.337
0.261,0.044,0.249,-5.337
0.218,0.047,0.252,-5.337
0.232,0.046,0.253,-5.337
0.260,0.046,0.257,-5.337
0.248,0.045,0.258,-5.337
0.203,0.042,0.257,-5.337
0.176,0.040,0.259,-5.337
0.202,0.042,0.259,-5.337
0.210,0.040,0.258,-5.337
0.209,0.042,0.258,-5.337
0.219,0.044,0.261,-5.337
0.286,0.046,0.258,-5.337
0.229,0.050,0.254,-5.337
0.108,0.052,0.253,-5.337
0.151,0.047,0.252,-5.337
0.255,0.047,0.250,-5.337
0.258,0.047,0.250,-5.337
0.147,0.052,0.254,-5.337
0.126,0.052,0.257,-5.337
0.174,0.048,0.255,-5.337
0.231,0.045,0.253,-5.337
0.220,0.046,0.252,-5.337
0.186,0.050,0.251,-5.337
0.152,0.049,0.246,-5.337
0.149,0.051,0.247,-5.337
0.152,0.048,0.252,-5.337
0.215,0.044,0.257,-5.337
0.247,0.043,0.258,-5.337
0.230,0.042,0.257,-5.337
0.201,0.040,0.253,-5.337
0.252,0.044,0.251,-5.337
0.310,0.044,0.251,-5.337
0.286,0.047,0.255,-5.337
0.218,0.045,0.258,-5.337
0.256,0.044,0.259,-5.337
0.256,0.045,0.257,-5.337
0.198,0.051,0.256,-5.337
0.208,0.051,0.259,-5.337
0.179,0.051,0.257,-5.337
0.172,0.047,0.253,-5.337
0.168,0.049,0.250,-5.337
0.223,0.050,0.255,-5.337
0.256,0.047,0.257,-5.337
0.290,0.045,0.260,-5.337
0.204,0.045,0.257,-5.337
0.136,0.047,0.255,-5.337
0.163,0.049,0.256,-5.337
0.162,0.052,0.254,-5.337
0.197,0.048,0.249,-5.337
0.205,0.045,0.248,-5.337
0.241,0.045,0.253,-5.337
0.208,0.051,0.257,-5.337
0.186,0.050,0.260,-5.337
0.216,0.045,0.260,-5.337
0.247,0.046,0.256,-5.337
0.259,0.051,0.254,-5.337
0.229,0.050,0.252,-5.337
0.239,0.049,0.253,-5.337
0.256,0.051,0.256,-5.337
0.259,0.053,0.260,-5.337
0.255,0.053,0.259,-5.337
0.266,0.047,0.257,-5.337
0.283,0.046,0.258,-5.337
0.246,0.053,0.257,-5.337
0.260,0.056,0.254,-5.337
0.311,0.053,0.251,-5.337
0.373,0.051,0.252,-5.337
0.317,0.049,0.253,-5.337
0.224,0.054,0.255,-5.337
0.206,0.049,0.257,-5.337
0.247,0.049,0.256,-5.337
0.238,0.051,0.255,-5.337
0.220,0.052,0.257,-5.337
0.215,0.050,0.259,-5.337
0.173,0.055,0.258,-5.337
0.191,0.055,0.257,-5.337
0.209,0.054,0.256,-5.337
0.159,0.056,0.257,-5.337
0.193,0.055,0.260,-5.337
0.192,0.060,0.259,-5.337
0.130,0.058,0.253,-5.337
0.191,0.055,0.251,-5.337
0.248,0.056,0.255,-5.337
0.278,0.054,0.258,-5.337
0.243,0.055,0.259,-5.337
0.154,0.058,0.255,-5.337
0.157,0.057,0.253,-5.337
0.241,0.056,0.253,-5.337
0.264,0.056,0.253,-5.337
0.230,0.056,0.259,-5.337
0.198,0.058,0.263,-5.337
0.160,0.062,0.265,-5.337
0.187,0.055,0.263,-5.337
0.244,0.053,0.257,-5.337
0.241,0.053,0.253,-5.337
0.257,0.055,0.253,-5.337
0.279,0.054,0.257,-5.337
0.274,0.056,0.260,-5.337
0.190,0.057,0.261,-5.337
0.111,0.057,0.257,-5.337
0.156,0.057,0.254,-5.337
0.258,0.057,0.254,-5.337
0.267,0.057,0.255,-5.337
0.213,0.056,0.255,-5.337
0.180,0.056,0.256,-5.337
0.204,0.055,0.253,-5.337
0.239,0.055,0.255,-5.337
0.246,0.055,0.256,-5.337
0.177,0.059,0.257,-5.337
0.139,0.060,0.256,-5.337
0.261,0.056,0.257,-5.337
0.304,0.052,0.257,-5.337
0.283,0.051,0.259,-5.337
0.228,0.053,0.255,-5.337
0.222,0.059,0.258,-5.337
0.290,0.057,0.261,-5.337
0.318,0.056,0.258,-5.337
0.261,0.055,0.253,-5.337
0.214,0.055,0.252,-5.337
0.162,0.055,0.253,-5.337
0.139,0.057,0.254,-5.337
0.156,0.056,0.255,-5.337
0.141,0.055,0.253,-5.337
0.180,0.056,0.250,-5.337
0.220,0.055,0.251,-5.337
0.238,0.054,0.258,-5.337
0.204,0.055,0.259,-5.337
0.166,0.056,0.255,-5.337
0.129,0.059,0.253,-5.337
0.116,0.058,0.256,-5.337
0.170,0.054,0.256,-5.337
0.265,0.052,0.258,-5.337
0.276,0.052,0.256,-5.337
0.247,0.053,0.254,-5.337
0.189,0.055,0.254,-5.337
0.156,0.058,0.254,-5.337
0.217,0.055,0.259,-5.337
0.243,0.053,0.260,-5.337
0.193,0.053,0.257,-5.337
0.199,0.055,0.257,-5.337
0.169,0.060,0.258,-5.337
0.118,0.059,0.260,-5.337
0.180,0.058,0.255,-5.337
0.234,0.057,0.250,-5.337
0.251,0.058,0.249,-5.337
0.221,0.059,0.254,-5.337
0.181,0.058,0.256,-5.337
0.165,0.057,0.257,-5.337
0.203,0.058,0.259,-5.337
0.259,0.056,0.257,-5.337
0.315,0.056,0.256,-5.337
0.270,0.056,0.252,-5.337
0.279,0.057,0.252,-5.337
0.233,0.061,0.250,-5.337
0.233,0.060,0.250,-5.337
0.284,0.055,0.254,-5.337
0.311,0.055,0.259,-5.337
0.281,0.052,0.261,-5.337
0.296,0.049,0.263,-5.337
0.294,0.049,0.260,-5.337
0.241,0.056,0.258,-5.337
0.173,0.054,0.256,-5.337
0.235,0.054,0.255,-5.337
0.244,0.055,0.254,-5.337
0.165,0.054,0.255,-5.337
0.136,0.050,0.254,-5.337
0.226,0.045,0.253,-5.337
0.255,0.048,0.257,-5.337
0.242,0.050,0.260,-5.337
0.261,0.048,0.260,-5.337
0.289,0.048,0.255,-5.337
0.261,0.047,0.254,-5.337
0.253,0.052,0.256,-5.337
0.222,0.054,0.257,-5.337
0.181,0.055,0.254,-5.337
0.163,0.057,0.255,-5.337
0.177,0.058,0.256,-5.337
0.132,0.055,0.254,-5.337
0.194,0.047,0.254,-5.337
0.253,0.042,0.253,-5.337
0.251,0.043,0.254,-5.337
0.172,0.049,0.258,-5.337
0.150,0.050,0.260,-5.337
0.232,0.044,0.262,-5.337
0.247,0.047,0.264,-5.337
0.229,0.048,0.264,-5.337
0.201,0.048,0.261,-5.337
0.214,0.048,0.256,-5.337
0.213,0.046,0.254,-5.337
0.180,0.049,0.252,-5.337
0.197,0.046,0.254,-5.337
0.234,0.043,0.253,-5.337
0.233,0.044,0.256,-5.337
0.218,0.042,0.259,-5.337
0.223,0.041,0.259,-5.337
0.182,0.041,0.254,-5.337
0.196,0.046,0.256,-5.337
0.263,0.044,0.257,-5.337
0.232,0.046,0.254,-5.337
0.124,0.048,0.253,-5.337
0.150,0.049,0.257,-5.337
0.191,0.047,0.258,-5.337
0.233,0.048,0.260,-5.337
0.225,0.049,0.261,-5.337
0.207,0.050,0.261,-5.337
0.205,0.049,0.258,-5.337
0.193,0.047,0.256,-5.337
0.175,0.042,0.257,-5.337
0.104,0.046,0.258,-5.337
0.108,0.046,0.255,-5.337
0.191,0.044,0.255,-5.337
0.237,0.043,0.261,-5.337
0.213,0.044,0.260,-5.337
0.201,0.041,0.258,-5.337
0.239,0.044,0.257,-5.337
0.263,0.044,0.259,-5.337
0.264,0.045,0.259,-5.337
0.191,0.047,0.258,-5.337
0.160,0.048,0.256,-5.337
0.201,0.049,0.259,-5.337
0.246,0.049,0.261,-5.337
0.245,0.051,0.260,-5.337
0.196,0.047,0.259,-5.337
0.137,0.042,0.257,-5.337
0.186,0.042,0.256,-5.337
0.249,0.044,0.256,-5.337
0.232,0.047,0.255,-5.337
0.121,0.049,0.256,-5.337
0.125,0.044,0.258,-5.337
0.200,0.041,0.260,-5.337
0.202,0.042,0.260,-5.337
0.219,0.044,0.259,-5.337
0.224,0.044,0.257,-5.337
0.257,0.042,0.255,-5.337
0.280,0.039,0.254,-5.337
0.264,0.039,0.255,-5.337
0.194,0.043,0.255,-5.337
0.221,0.039,0.255,-5.337
0.232,0.040,0.255,-5.337
0.206,0.042,0.254,-5.337
0.205,0.042,0.255,-5.337
0.262,0.040,0.254,-5.337
0.305,0.041,0.255,-5.337
0.247,0.042,0.259,-5.337
0.189,0.043,0.264,-5.337
0.205,0.040,0.258,-5.337
0.199,0.040,0.254,-5.337
0.142,0.043,0.256,-5.337
0.158,0.044,0.258,-5.337
0.203,0.041,0.258,-5.337
0.172,0.042,0.258,-5.337
0.124,0.042,0.260,-5.337
0.185,0.041,0.260,-5.337
0.211,0.043,0.259,-5.337
0.155,0.042,0.257,-5.337
0.164,0.037,0.256,-5.337
0.177,0.040,0.259,-5.337
0.163,0.042,0.257,-5.337
0.130,0.043,0.255,-5.337
0.100,0.043,0.255,-5.337
0.133,0.045,0.252,-5.337
0.181,0.046,0.249,-5.337
0.197,0.043,0.252,-5.337
0.130,0.042,0.255,-5.337
0.150,0.043,0.253,-5.337
0.181,0.043,0.250,-5.337
0.196,0.040,0.249,-5.337
0.203,0.039,0.253,-5.337
0.224,0.038,0.257,-5.337
0.215,0.038,0.262,-5.337
0.173,0.036,0.265,-5.337
0.200,0.035,0.262,-5.337
0.246,0.038,0.257,-5.337
0.246,0.040,0.257,-5.337
0.230,0.039,0.255,-5.337
0.168,0.038,0.256,-5.337
0.159,0.040,0.255,-5.337
0.200,0.040,0.253,-5.337
0.256,0.038,0.253,-5.337
0.257,0.038,0.255,-5.337
0.213,0.040,0.260,-5.337
0.157,0.040,0.260,-5.337
0.120,0.040,0.258,-5.337
0.179,0.037,0.256,-5.337
0.197,0.038,0.253,-5.337
0.169,0.041,0.249,-5.337
0.184,0.040,0.250,-5.337
0.219,0.041,0.253,-5.337
0.222,0.044,0.259,-5.337
0.242,0.043,0.263,-5.337
0.206,0.044,0.262,-5.337
0.255,0.040,0.255,-5.337
0.229,0.042,0.253,-5.337
0.201,0.041,0.253,-5.337
0.200,0.042,0.259,-5.337
0.147,0.042,0.263,-5.337
0.107,0.044,0.261,-5.337
0.106,0.045,0.259,-5.337
0.083,0.043,0.257,-5.337
0.075,0.044,0.257,-5.337
0.064,0.039,0.252,-5.337
0.141,0.039,0.251,-5.337
0.223,0.039,0.255,-5.337
0.204,0.039,0.259,-5.337
0.163,0.036,0.257,-5.337
0.205,0.040,0.255,-5.337
0.196,0.044,0.255,-5.337
0.152,0.042,0.257,-5.337
0.198,0.040,0.257,-5.337
0.204,0.040,0.255,-5.337
0.195,0.039,0.251,-5.337
0.191,0.038,0.252,-5.337
0.180,0.040,0.256,-5.337
0.142,0.042,0.260,-5.337
0.125,0.041,0.259,-5.337
0.158,0.037,0.255,-5.337
0.226,0.036,0.252,-5.337
0.223,0.036,0.251,-5.337
0.208,0.037,0.252,-5.337
0.174,0.042,0.252,-5.337
0.163,0.042,0.256,-5.337
0.218,0.036,0.259,-5.337
0.251,0.035,0.258,-5.337
0.272,0.037,0.256,-5.337
0.284,0.038,0.258,-5.337
0.255,0.039,0.258,-5.337
0.160,0.038,0.261,-5.337
0.136,0.039,0.260,-5.337
0.158,0.041,0.258,-5.337
0.120,0.041,0.258,-5.337
0.173,0.039,0.259,-5.337
0.204,0.039,0.256,-5.337
0.199,0.040,0.255,-5.337
0.183,0.037,0.254,-5.337
0.198,0.038,0.256,-5.337
0.222,0.036,0.258,-5.337
0.188,0.041,0.258,-5.337
0.140,0.039,0.256,-5.337
0.209,0.038,0.256,-5.337
0.237,0.038,0.260,-5.337
0.232,0.040,0.262,-5.337
0.211,0.040,0.258,-5.337
0.164,0.041,0.255,-5.337
0.142,0.042,0.254,-5.337
0.195,0.042,0.254,-5.337
0.215,0.041,0.254,-5.337
0.142,0.042,0.252,-5.337
0.123,0.042,0.250,-5.337
0.084,0.042,0.251,-5.337
0.037,0.041,0.255,-5.337
0.034,0.040,0.257,-5.337
0.046,0.041,0.258,-5.337
0.062,0.045,0.257,-5.337
0.150,0.044,0.258,-5.337
0.219,0.038,0.257,-5.337
0.244,0.038,0.256,-5.337
0.227,0.037,0.254,-5.337
0.195,0.036,0.255,-5.337
0.196,0.035,0.258,-5.337
0.173,0.034,0.258,-5.337
0.221,0.031,0.258,-5.337
0.192,0.033,0.256,-5.337
0.152,0.036,0.253,-5.337
0.185,0.035,0.254,-5.337
0.215,0.032,0.258,-5.337
0.181,0.036,0.258,-5.337
0.109,0.040,0.257,-5.337
0.107,0.040,0.257,-5.337
0.239,0.036,0.261,-5.337
0.208,0.035,0.261,-5.337
0.178,0.036,0.256,-5.337
0.213,0.034,0.252,-5.337
0.220,0.032,0.253,-5.337
0.206,0.033,0.251,-5.337
0.172,0.037,0.253,-5.337
0.107,0.037,0.255,-5.337
0.042,0.038,0.257,-5.337
0.118,0.037,0.258,-5.337
0.193,0.040,0.259,-5.337
0.145,0.041,0.252,-5.337
0.096,0.045,0.250,-5.337
0.082,0.047,0.253,-5.337
0.088,0.045,0.258,-5.337
0.092,0.046,0.259,-5.337
0.094,0.046,0.257,-5.337
0.171,0.044,0.256,-5.337
0.223,0.043,0.258,-5.337
0.198,0.041,0.259,-5.337
0.200,0.044,0.259,-5.337
0.127,0.044,0.259,-5.337
0.136,0.041,0.255,-5.337
0.207,0.042,0.255,-5.337
0.202,0.042,0.251,-5.337
0.176,0.042,0.248,-5.337
0.167,0.042,0.248,-5.337
0.081,0.042,0.253,-5.337
0.023,0.040,0.262,-5.337
0.068,0.039,0.261,-5.337
0.142,0.039,0.256,-5.337
0.157,0.039,0.255,-5.337
0.186,0.036,0.254,-5.337
0.149,0.037,0.253,-5.337
0.133,0.036,0.252,-5.337
0.198,0.031,0.251,-5.337
0.274,0.028,0.255,-5.337
0.249,0.031,0.258,-5.337
0.227,0.032,0.256,-5.337
0.240,0.033,0.255,-5.337
0.243,0.034,0.257,-5.337
0.159,0.034,0.257,-5.337
0.136,0.034,0.256,-5.337
0.158,0.035,0.254,-5.337
0.116,0.037,0.251,-5.337
0.150,0.035,0.251,-5.337
0.221,0.037,0.255,-5.337
0.248,0.033,0.256,-5.337
0.242,0.036,0.258,-5.337
0.201,0.038,0.256,-5.337
0.203,0.039,0.254,-5.337
0.144,0.041,0.255,-5.337
0.102,0.044,0.259,-5.337
0.127,0.044,0.259,-5.337
0.163,0.042,0.258,-5.337
0.192,0.041,0.254,-5.337
0.179,0.041,0.253,-5.337
0.091,0.043,0.256,-5.337
0.114,0.043,0.257,-5.337
0.117,0.044,0.257,-5.337
0.131,0.045,0.255,-5.337
0.118,0.045,0.251,-5.337
0.173,0.045,0.252,-5.337
0.187,0.044,0.258,-5.337
0.138,0.044,0.260,-5.337
0.131,0.045,0.255,-5.337
0.166,0.043,0.251,-5.337
0.252,0.041,0.254,-5.337
0.293,0.043,0.255,-5.337
0.255,0.046,0.257,-5.337
0.192,0.048,0.260,-5.337
0.216,0.051,0.258,-5.337
0.197,0.048,0.255,-5.337
0.209,0.048,0.254,-5.337
0.146,0.051,0.255,-5.337
0.115,0.050,0.259,-5.337
0.119,0.050,0.263,-5.337
0.123,0.051,0.259,-5.337
0.165,0.051,0.256,-5.337
0.207,0.049,0.254,-5.337
0.237,0.046,0.252,-5.337
0.207,0.044,0.254,-5.337
0.263,0.047,0.257,-5.337
0.232,0.051,0.255,-5.337
0.118,0.049,0.256,-5.337
0.081,0.045,0.257,-5.337
0.180,0.043,0.259,-5.337
0.250,0.046,0.257,-5.337
0.196,0.048,0.256,-5.337
0.168,0.050,0.256,-5.337
0.194,0.049,0.257,-5.337
0.210,0.046,0.257,-5.337
0.232,0.049,0.257,-5.337
0.203,0.050,0.259,-5.337
0.215,0.051,0.260,-5.337
0.230,0.051,0.259,-5.337
0.141,0.053,0.258,-5.337
0.106,0.053,0.255,-5.337
0.139,0.052,0.254,-5.337
0.160,0.052,0.253,-5.337
0.174,0.051,0.251,-5.337
0.154,0.053,0.253,-5.337
0.181,0.056,0.254,-5.337
0.277,0.056,0.255,-5.337
0.259,0.058,0.255,-5.337
0.227,0.059,0.259,-5.337
0.217,0.063,0.259,-5.337
0.169,0.059,0.258,-5.337
0.164,0.057,0.254,-5.337
0.103,0.061,0.255,-5.337
0.079,0.064,0.256,-5.337
0.137,0.062,0.258,-5.337
0.190,0.057,0.259,-5.337
0.211,0.055,0.260,-5.337
0.239,0.055,0.262,-5.337
0.217,0.056,0.260,-5.337
0.192,0.056,0.255,-5.337
0.143,0.056,0.255,-5.337
0.136,0.052,0.255,-5.337
0.230,0.050,0.255,-5.337
0.291,0.053,0.257,-5.337
0.284,0.050,0.257,-5.337
0.232,0.053,0.256,-5.337
0.163,0.053,0.257,-5.337
0.164,0.052,0.256,-5.337
0.169,0.050,0.256,-5.337
0.183,0.048,0.258,-5.337
0.251,0.048,0.260,-5.337
0.315,0.046,0.259,-5.337
0.234,0.047,0.257,-5.337
0.186,0.049,0.259,-5.337
0.172,0.051,0.259,-5.337
0.187,0.053,0.260,-5.337
0.152,0.054,0.259,-5.337
0.154,0.055,0.258,-5.337
0.175,0.057,0.255,-5.337
0.190,0.058,0.257,-5.337
0.254,0.053,0.255,-5.337
0.278,0.056,0.254,-5.337
0.206,0.055,0.254,-5.337
0.168,0.057,0.254,-5.337
0.160,0.056,0.255,-5.337
0.131,0.062,0.257,-5.337
0.081,0.065,0.261,-5.337
0.120,0.060,0.259,-5.337
0.202,0.054,0.255,-5.337
0.227,0.054,0.254,-5.337
0.196,0.056,0.256,-5.337
0.180,0.059,0.259,-5.337
0.218,0.057,0.257,-5.337
0.244,0.057,0.256,-5.337
0.255,0.054,0.259,-5.337
0.261,0.053,0.256,-5.337
0.273,0.053,0.256,-5.337
0.225,0.057,0.258,-5.337
0.157,0.056,0.261,-5.337
0.132,0.057,0.257,-5.337
0.142,0.061,0.253,-5.337
0.108,0.062,0.254,-5.337
0.113,0.061,0.256,-5.337
0.110,0.061,0.256,-5.337
0.211,0.057,0.256,-5.337
0.263,0.053,0.257,-5.337
0.231,0.057,0.257,-5.337
0.196,0.055,0.254,-5.337
0.206,0.058,0.255,-5.337
0.169,0.065,0.258,-5.337
0.140,0.064,0.255,-5.337
0.173,0.063,0.252,-5.337
0.199,0.064,0.253,-5.337
0.170,0.063,0.256,-5.337
0.234,0.061,0.260,-5.337
0.282,0.061,0.263,-5.337
0.281,0.062,0.261,-5.337
0.148,0.068,0.255,-5.337
0.099,0.066,0.250,-5.337
0.138,0.065,0.252,-5.337
0.157,0.065,0.255,-5.337
0.197,0.067,0.258,-5.337
0.229,0.065,0.256,-5.337
0.249,0.063,0.255,-5.337
0.230,0.063,0.258,-5.337
0.245,0.063,0.260,-5.337
0.214,0.063,0.255,-5.337
0.206,0.062,0.253,-5.337
0.262,0.060,0.253,-5.337
0.271,0.062,0.252,-5.337
0.213,0.067,0.255,-5.337
0.162,0.068,0.258,-5.337
0.156,0.066,0.258,-5.337
0.192,0.065,0.257,-5.337
0.285,0.060,0.258,-5.337
0.320,0.060,0.257,-5.337
0.277,0.061,0.257,-5.337
0.193,0.063,0.254,-5.337
0.182,0.064,0.254,-5.337
0.166,0.066,0.255,-5.337
0.166,0.070,0.253,-5.337
0.189,0.067,0.252,-5.337
0.202,0.066,0.254,-5.337
0.194,0.065,0.257,-5.337
0.184,0.066,0.258,-5.337
0.190,0.066,0.259,-5.337
0.208,0.066,0.265,-5.337
0.278,0.068,0.262,-5.337
0.284,0.068,0.257,-5.337
0.259,0.070,0.253,-5.337
0.240,0.070,0.256,-5.337
0.231,0.068,0.255,-5.337
0.214,0.068,0.253,-5.337
0.194,0.067,0.255,-5.337
0.198,0.069,0.257,-5.337
0.173,0.068,0.256,-5.337
0.219,0.065,0.255,-5.337
0.307,0.061,0.254,-5.337
0.284,0.061,0.253,-5.337
0.185,0.067,0.254,-5.337
0.178,0.066,0.255,-5.337
0.202,0.066,0.260,-5.337
0.136,0.067,0.259,-5.337
0.170,0.068,0.255,-5.337
0.208,0.065,0.253,-5.337
0.199,0.065,0.254,-5.337
0.178,0.063,0.258,-5.337
0.169,0.063,0.261,-5.337
0.210,0.062,0.255,-5.337
0.226,0.061,0.255,-5.337
0.261,0.059,0.256,-5.337
0.246,0.062,0.257,-5.337
0.209,0.064,0.256,-5.337
0.169,0.064,0.253,-5.337
0.273,0.062,0.250,-5.337
0.301,0.059,0.248,-5.337
0.210,0.056,0.254,-5.337
0.182,0.059,0.257,-5.337
0.174,0.063,0.260,-5.337
0.173,0.063,0.264,-5.337
0.298,0.058,0.262,-5.337
0.345,0.056,0.260,-5.337
0.284,0.059,0.259,-5.337
0.280,0.061,0.258,-5.337
0.343,0.060,0.255,-5.337
0.310,0.061,0.253,-5.337
0.196,0.065,0.251,-5.337
0.144,0.067,0.251,-5.337
0.161,0.069,0.253,-5.337
0.177,0.070,0.254,-5.337
0.230,0.066,0.257,-5.337
0.263,0.061,0.257,-5.337
0.286,0.063,0.260,-5.337
0.226,0.066,0.261,-5.337
0.177,0.066,0.260,-5.337
0.236,0.063,0.259,-5.337
0.277,0.064,0.258,-5.337
0.197,0.068,0.255,-5.337
0.096,0.068,0.252,-5.337
0.125,0.065,0.255,-5.337
0.179,0.069,0.256,-5.337
0.244,0.068,0.257,-5.337
0.253,0.065,0.257,-5.337
0.179,0.067,0.258,-5.337
0.149,0.067,0.258,-5.337
0.219,0.063,0.258,-5.337
0.281,0.063,0.255,-5.337
0.294,0.058,0.255,-5.337
0.320,0.055,0.257,-5.337
0.312,0.058,0.259,-5.337
0.267,0.056,0.256,-5.337
0.244,0.056,0.255,-5.337
0.237,0.054,0.254,-5.337
0.200,0.057,0.255,-5.337
0.235,0.056,0.255,-5.337
0.278,0.057,0.254,-5.337
0.210,0.060,0.254,-5.337
0.179,0.061,0.258,-5.337
0.241,0.060,0.259,-5.337
0.230,0.061,0.256,-5.337
0.246,0.058,0.252,-5.337
0.221,0.058,0.250,-5.337
0.163,0.057,0.254,-5.337
0.178,0.056,0.257,-5.337
0.204,0.053,0.260,-5.337
0.241,0.054,0.258,-5.337
0.268,0.055,0.258,-5.337
0.290,0.058,0.257,-5.337
0.288,0.061,0.256,-5.337
0.258,0.057,0.256,-5.337
0.204,0.060,0.251,-5.337
0.148,0.063,0.249,-5.337
0.197,0.059,0.250,-5.337
0.206,0.060,0.254,-5.337
0.166,0.062,0.258,-5.337
0.218,0.059,0.260,-5.337
0.284,0.055,0.261,-5.337
0.317,0.052,0.259,-5.337
0.323,0.054,0.257,-5.337
0.253,0.058,0.260,-5.337
0.229,0.060,0.259,-5.337
0.181,0.061,0.255,-5.337
0.148,0.061,0.252,-5.337
0.140,0.060,0.252,-5.337
0.226,0.059,0.251,-5.337
0.221,0.058,0.256,-5.337
0.230,0.055,0.257,-5.337
0.288,0.056,0.256,-5.337
0.257,0.061,0.253,-5.337
0.212,0.062,0.255,-5.337
0.251,0.058,0.256,-5.337
0.294,0.056,0.260,-5.337
0.232,0.057,0.259,-5.337
0.186,0.063,0.257,-5.337
0.175,0.063,0.256,-5.337
0.241,0.054,0.255,-5.337
0.260,0.055,0.252,-5.337
0.223,0.056,0.252,-5.337
0.243,0.058,0.250,-5.337
0.263,0.057,0.254,-5.337
0.226,0.055,0.256,-5.337
0.205,0.056,0.256,-5.337
0.184,0.054,0.259,-5.337
0.257,0.053,0.261,-5.337
0.233,0.051,0.258,-5.337
0.211,0.053,0.253,-5.337
0.206,0.056,0.256,-5.337
0.254,0.057,0.257,-5.337
0.260,0.057,0.255,-5.337
0.211,0.056,0.254,-5.337
0.226,0.055,0.253,-5.337
0.254,0.054,0.259,-5.337
0.222,0.054,0.264,-5.337
0.203,0.052,0.263,-5.337
0.177,0.051,0.261,-5.337
0.127,0.049,0.260,-5.337
0.123,0.045,0.255,-5.337
0.142,0.045,0.251,-5.337
0.143,0.048,0.250,-5.337
0.156,0.049,0.254,-5.337
0.197,0.051,0.259,-5.337
0.283,0.047,0.257,-5.337
0.250,0.046,0.256,-5.337
0.205,0.045,0.260,-5.337
0.201,0.049,0.265,-5.337
0.161,0.054,0.263,-5.337
0.101,0.056,0.257,-5.337
0.104,0.054,0.258,-5.337
0.155,0.050,0.265,-5.337
0.196,0.049,0.263,-5.337
0.198,0.044,0.256,-5.337
0.269,0.044,0.253,-5.337
0.259,0.045,0.255,-5.337
0.193,0.045,0.256,-5.337
0.195,0.044,0.256,-5.337
0.207,0.043,0.258,-5.337
0.259,0.044,0.256,-5.337
0.280,0.046,0.254,-5.337
0.186,0.052,0.254,-5.337
0.100,0.051,0.259,-5.337
0.190,0.046,0.259,-5.337
0.242,0.046,0.258,-5.337
0.282,0.041,0.260,-5.337
0.299,0.041,0.261,-5.337
0.292,0.041,0.263,-5.337
0.221,0.046,0.260,-5.337
0.183,0.046,0.258,-5.337
0.188,0.046,0.258,-5.337
0.189,0.050,0.262,-5.337
0.124,0.051,0.262,-5.337
0.197,0.050,0.257,-5.337
0.223,0.048,0.256,-5.337
0.232,0.045,0.257,-5.337
0.206,0.046,0.256,-5.337
0.232,0.044,0.254,-5.337
0.225,0.044,0.257,-5.337
0.227,0.045,0.259,-5.337
0.247,0.044,0.260,-5.337
0.296,0.045,0.262,-5.337
0.251,0.047,0.262,-5.337
0.159,0.046,0.261,-5.337
0.119,0.047,0.257,-5.337
0.173,0.046,0.257,-5.337
0.252,0.043,0.255,-5.337
0.201,0.043,0.257,-5.337
0.077,0.044,0.259,-5.337
0.120,0.044,0.260,-5.337
0.208,0.041,0.260,-5.337
0.215,0.040,0.259,-5.337
0.159,0.041,0.261,-5.337
0.179,0.042,0.258,-5.337
0.206,0.042,0.259,-5.337
0.173,0.041,0.258,-5.337
0.167,0.040,0.261,-5.337
0.178,0.040,0.263,-5.337
0.161,0.042,0.266,-5.337
0.173,0.043,0.262,-5.337
0.224,0.042,0.256,-5.337
0.225,0.041,0.254,-5.337
0.223,0.041,0.255,-5.337
0.243,0.040,0.254,-5.337
0.203,0.040,0.255,-5.337
0.213,0.039,0.260,-5.337
0.254,0.040,0.264,-5.337
0.229,0.038,0.267,-5.337
0.197,0.040,0.270,-5.337
0.205,0.040,0.263,-5.337
0.254,0.042,0.255,-5.337
0.244,0.044,0.255,-5.337
0.224,0.041,0.261,-5.337
0.284,0.039,0.263,-5.337
0.272,0.040,0.262,-5.337
0.196,0.044,0.259,-5.337
0.141,0.046,0.254,-5.337
0.139,0.044,0.253,-5.337
0.161,0.043,0.253,-5.337
0.127,0.045,0.255,-5.337
0.182,0.046,0.253,-5.337
0.200,0.047,0.256,-5.337
0.113,0.046,0.260,-5.337
0.109,0.045,0.261,-5.337
0.162,0.040,0.260,-5.337
0.151,0.043,0.258,-5.337
0.150,0.042,0.257,-5.337
0.146,0.039,0.255,-5.337
0.139,0.041,0.256,-5.337
0.079,0.046,0.257,-5.337
0.122,0.043,0.256,-5.337
0.213,0.039,0.255,-5.337
0.233,0.038,0.257,-5.337
0.195,0.039,0.258,-5.337
0.186,0.042,0.256,-5.337
0.199,0.045,0.254,-5.337
0.197,0.043,0.257,-5.337
0.197,0.040,0.260,-5.337
0.223,0.039,0.260,-5.337
0.185,0.040,0.257,-5.337
0.161,0.042,0.255,-5.337
0.160,0.042,0.255,-5.337
0.225,0.040,0.263,-5.337
0.251,0.041,0.262,-5.337
0.211,0.041,0.256,-5.337
0.197,0.037,0.253,-5.337
0.201,0.038,0.255,-5.337
0.250,0.037,0.255,-5.337
0.232,0.042,0.255,-5.337
0.190,0.043,0.255,-5.337
0.110,0.042,0.258,-5.337
0.140,0.037,0.260,-5.337
0.185,0.036,0.259,-5.337
0.191,0.040,0.255,-5.337
0.191,0.042,0.253,-5.337
0.188,0.036,0.255,-5.337
0.230,0.030,0.252,-5.337
0.211,0.034,0.253,-5.337
0.164,0.038,0.251,-5.337
0.199,0.039,0.254,-5.337
0.273,0.036,0.255,-5.337
0.323,0.035,0.261,-5.337
0.339,0.037,0.263,-5.337
0.184,0.042,0.260,-5.337
0.114,0.042,0.256,-5.337
0.195,0.039,0.257,-5.337
0.186,0.040,0.258,-5.337
0.125,0.043,0.260,-5.337
0.042,0.047,0.256,-5.337
0.040,0.047,0.260,-5.337
0.081,0.044,0.264,-5.337
0.107,0.043,0.265,-5.337
0.136,0.041,0.261,-5.337
0.157,0.042,0.259,-5.337
0.144,0.043,0.258,-5.337
0.066,0.043,0.255,-5.337
0.095,0.042,0.252,-5.337
0.170,0.038,0.251,-5.337
0.253,0.034,0.249,-5.337
0.270,0.035,0.244,-5.337
0.226,0.037,0.247,-5.337
0.197,0.037,0.253,-5.337
0.204,0.038,0.258,-5.337
0.176,0.037,0.261,-5.337
0.172,0.036,0.263,-5.337
0.214,0.034,0.260,-5.337
0.207,0.034,0.255,-5.337
0.121,0.037,0.255,-5.337
0.116,0.033,0.255,-5.337
0.160,0.031,0.255,-5.337
0.189,0.032,0.259,-5.337
0.172,0.029,0.261,-5.337
0.158,0.031,0.260,-5.337
0.192,0.032,0.257,-5.337
0.205,0.031,0.256,-5.337
0.205,0.033,0.260,-5.337
0.184,0.036,0.260,-5.337
0.167,0.035,0.257,-5.337
0.169,0.035,0.256,-5.337
0.211,0.030,0.257,-5.337
0.140,0.034,0.257,-5.337
0.037,0.037,0.258,-5.337
0.051,0.033,0.258,-5.337
0.111,0.030,0.258,-5.337
0.184,0.031,0.257,-5.337
0.238,0.032,0.257,-5.337
0.205,0.034,0.256,-5.337
0.171,0.038,0.256,-5.337
0.171,0.035,0.252,-5.337
0.173,0.039,0.253,-5.337
0.169,0.040,0.252,-5.337
0.237,0.036,0.253,-5.337
0.275,0.036,0.255,-5.337
0.283,0.037,0.257,-5.337
0.221,0.039,0.260,-5.337
0.135,0.041,0.259,-5.337
0.162,0.035,0.254,-5.337
0.139,0.036,0.253,-5.337
0.161,0.039,0.256,-5.337
0.138,0.040,0.260,-5.337
0.093,0.044,0.258,-5.337
0.125,0.043,0.254,-5.337
0.172,0.041,0.253,-5.337
0.179,0.041,0.256,-5.337
0.194,0.039,0.260,-5.337
0.182,0.040,0.256,-5.337
0.210,0.040,0.256,-5.337
0.207,0.038,0.255,-5.337
0.253,0.037,0.254,-5.337
0.186,0.042,0.252,-5.337
0.130,0.042,0.256,-5.337
0.179,0.039,0.260,-5.337
0.209,0.041,0.257,-5.337
0.200,0.039,0.252,-5.337
0.164,0.040,0.251,-5.337
0.158,0.036,0.253,-5.337
0.156,0.031,0.257,-5.337
0.187,0.027,0.260,-5.337
0.186,0.029,0.255,-5.337
0.153,0.032,0.250,-5.337
0.175,0.032,0.252,-5.337
0.196,0.029,0.254,-5.337
0.139,0.031,0.255,-5.337
0.155,0.034,0.260,-5.337
0.137,0.037,0.263,-5.337
0.116,0.034,0.261,-5.337
0.146,0.033,0.259,-5.337
0.227,0.030,0.258,-5.337
0.224,0.037,0.255,-5.337
0.110,0.042,0.253,-5.337
0.074,0.042,0.253,-5.337
0.068,0.041,0.255,-5.337
0.162,0.037,0.257,-5.337
0.145,0.037,0.260,-5.337
0.095,0.037,0.262,-5.337
0.113,0.037,0.256,-5.337
0.184,0.039,0.253,-5.337
0.182,0.039,0.253,-5.337
0.165,0.039,0.255,-5.337
0.181,0.037,0.258,-5.337
0.166,0.039,0.258,-5.337
0.201,0.036,0.260,-5.337
0.189,0.039,0.258,-5.337
0.187,0.038,0.256,-5.337
0.180,0.035,0.252,-5.337
0.185,0.033,0.250,-5.337
0.206,0.031,0.251,-5.337
0.152,0.036,0.253,-5.337
0.156,0.037,0.253,-5.337
0.144,0.039,0.252,-5.337
0.126,0.039,0.254,-5.337
0.201,0.036,0.253,-5.337
0.199,0.036,0.255,-5.337
0.178,0.037,0.255,-5.337
0.127,0.040,0.256,-5.337
0.099,0.039,0.255,-5.337
0.151,0.040,0.255,-5.337
0.188,0.039,0.258,-5.337
0.186,0.037,0.262,-5.337
0.200,0.035,0.262,-5.337
0.206,0.034,0.257,-5.337
0.198,0.039,0.256,-5.337
0.187,0.043,0.257,-5.337
0.208,0.043,0.257,-5.337
0.240,0.043,0.261,-5.337
0.203,0.045,0.261,-5.337
0.183,0.044,0.257,-5.337
0.224,0.042,0.255,-5.337
0.167,0.044,0.254,-5.337
0.110,0.043,0.255,-5.337
0.214,0.047,0.255,-5.337
0.212,0.049,0.254,-5.337
0.161,0.048,0.253,-5.337
0.109,0.043,0.255,-5.337
0.200,0.039,0.255,-5.337
0.284,0.041,0.252,-5.337
0.209,0.043,0.255,-5.337
0.160,0.040,0.259,-5.337
0.196,0.038,0.256,-5.337
0.165,0.037,0.251,-5.337
0.156,0.037,0.253,-5.337
0.122,0.039,0.258,-5.337
0.147,0.036,0.260,-5.337
0.239,0.036,0.259,-5.337
0.258,0.041,0.257,-5.337
0.214,0.041,0.257,-5.337
0.166,0.043,0.258,-5.337
0.127,0.043,0.258,-5.337
0.206,0.044,0.258,-5.337
0.289,0.044,0.253,-5.337
0.257,0.046,0.254,-5.337
0.150,0.044,0.256,-5.337
0.204,0.038,0.259,-5.337
0.219,0.039,0.259,-5.337
0.192,0.044,0.256,-5.337
0.155,0.044,0.249,-5.337
0.124,0.045,0.248,-5.337
0.150,0.043,0.253,-5.337
0.189,0.046,0.259,-5.337
0.085,0.050,0.262,-5.337
0.098,0.049,0.264,-5.337
0.200,0.047,0.261,-5.337
0.189,0.049,0.257,-5.337
0.115,0.053,0.253,-5.337
0.128,0.050,0.254,-5.337
0.219,0.047,0.254,-5.337
0.221,0.050,0.255,-5.337
0.132,0.054,0.253,-5.337
0.134,0.050,0.256,-5.337
0.159,0.043,0.260,-5.337
0.197,0.045,0.261,-5.337
0.124,0.049,0.263,-5.337
0.096,0.053,0.259,-5.337
0.189,0.053,0.255,-5.337
0.204,0.051,0.252,-5.337
0.195,0.051,0.253,-5.337
0.219,0.050,0.254,-5.337
0.233,0.054,0.255,-5.337
0.268,0.053,0.257,-5.337
0.282,0.054,0.259,-5.337
0.203,0.053,0.259,-5.337
0.150,0.051,0.261,-5.337
0.166,0.050,0.262,-5.337
0.227,0.054,0.262,-5.337
0.231,0.051,0.260,-5.337
0.219,0.050,0.257,-5.337
0.221,0.051,0.258,-5.337
0.123,0.052,0.256,-5.337
0.098,0.051,0.255,-5.337
0.150,0.053,0.258,-5.337
0.194,0.054,0.264,-5.337
0.209,0.054,0.266,-5.337
0.233,0.054,0.264,-5.337
0.218,0.053,0.258,-5.337
0.248,0.052,0.257,-5.337
0.240,0.053,0.257,-5.337
0.292,0.054,0.258,-5.337
0.210,0.059,0.259,-5.337
0.078,0.063,0.260,-5.337
0.056,0.063,0.259,-5.337
0.108,0.063,0.260,-5.337
0.200,0.061,0.261,-5.337
0.195,0.060,0.259,-5.337
0.122,0.059,0.255,-5.337
0.172,0.057,0.256,-5.337
0.238,0.057,0.257,-5.337
0.218,0.054,0.257,-5.337
0.287,0.054,0.258,-5.337
0.286,0.056,0.256,-5.337
0.264,0.056,0.256,-5.337
0.242,0.057,0.259,-5.337
0.245,0.055,0.263,-5.337
0.275,0.055,0.262,-5.337
0.227,0.056,0.263,-5.337
0.210,0.057,0.261,-5.337
0.208,0.059,0.260,-5.337
0.229,0.060,0.257,-5.337
0.228,0.057,0.260,-5.337
0.180,0.058,0.260,-5.337
0.160,0.059,0.260,-5.337
0.204,0.056,0.260,-5.337
0.221,0.056,0.259,-5.337
0.269,0.054,0.261,-5.337
0.235,0.058,0.263,-5.337
0.160,0.059,0.259,-5.337
0.173,0.058,0.254,-5.337
0.230,0.053,0.251,-5.337
0.201,0.053,0.254,-5.337
0.176,0.056,0.258,-5.337
0.224,0.057,0.259,-5.337
0.241,0.058,0.260,-5.337
0.213,0.059,0.260,-5.337
0.269,0.058,0.255,-5.337
0.272,0.063,0.257,-5.337
0.239,0.068,0.260,-5.337
0.143,0.067,0.261,-5.337
0.158,0.062,0.257,-5.337
0.271,0.059,0.252,-5.337
0.295,0.059,0.257,-5.337
0.249,0.064,0.263,-5.337
0.197,0.065,0.262,-5.337
0.222,0.062,0.258,-5.337
0.277,0.060,0.257,-5.337
0.199,0.063,0.258,-5.337
0.112,0.064,0.259,-5.337
0.106,0.064,0.256,-5.337
0.204,0.061,0.255,-5.337
0.311,0.056,0.255,-5.337
0.284,0.057,0.257,-5.337
0.210,0.060,0.256,-5.337
0.206,0.061,0.254,-5.337
0.180,0.064,0.253,-5.337
0.137,0.064,0.256,-5.337
0.166,0.058,0.256,-5.337
0.299,0.057,0.256,-5.337
0.292,0.062,0.256,-5.337
0.245,0.062,0.253,-5.337
0.228,0.063,0.258,-5.337
0.219,0.063,0.265,-5.337
0.225,0.059,0.267,-5.337
0.227,0.056,0.259,-5.337
0.194,0.056,0.251,-5.337
0.222,0.052,0.249,-5.337
0.195,0.052,0.252,-5.337
0.179,0.054,0.254,-5.337
0.246,0.056,0.255,-5.337
0.216,0.060,0.255,-5.337
0.222,0.054,0.257,-5.337
0.217,0.057,0.258,-5.337
0.147,0.062,0.260,-5.337
0.197,0.064,0.260,-5.337
0.231,0.062,0.259,-5.337
0.229,0.063,0.256,-5.337
0.236,0.062,0.257,-5.337
0.236,0.058,0.257,-5.337
0.245,0.058,0.255,-5.337
0.227,0.066,0.256,-5.337
0.154,0.071,0.258,-5.337
0.161,0.069,0.262,-5.337
0.208,0.062,0.262,-5.337
0.254,0.065,0.260,-5.337
0.323,0.061,0.255,-5.337
0.294,0.065,0.252,-5.337
0.218,0.067,0.252,-5.337
0.234,0.064,0.255,-5.337
0.271,0.062,0.257,-5.337
0.173,0.066,0.260,-5.337
0.136,0.067,0.256,-5.337
0.253,0.065,0.251,-5.337
0.284,0.065,0.253,-5.337
0.258,0.066,0.255,-5.337
0.235,0.067,0.258,-5.337
0.236,0.066,0.259,-5.337
0.227,0.064,0.260,-5.337
0.221,0.066,0.259,-5.337
0.272,0.063,0.256,-5.337
0.226,0.065,0.252,-5.337
0.188,0.066,0.253,-5.337
0.160,0.067,0.254,-5.337
0.244,0.065,0.252,-5.337
0.260,0.062,0.253,-5.337
0.142,0.068,0.255,-5.337
0.149,0.067,0.258,-5.337
0.224,0.064,0.260,-5.337
0.188,0.063,0.260,-5.337
0.183,0.063,0.260,-5.337
0.201,0.063,0.254,-5.337
0.220,0.063,0.250,-5.337
0.225,0.064,0.250,-5.337
0.209,0.064,0.258,-5.337
0.232,0.065,0.263,-5.337
0.248,0.063,0.264,-5.337
0.242,0.062,0.260,-5.337
0.222,0.064,0.257,-5.337
0.242,0.065,0.257,-5.337
0.322,0.061,0.259,-5.337
0.339,0.063,0.257,-5.337
0.215,0.066,0.255,-5.337
0.174,0.067,0.254,-5.337
0.210,0.065,0.252,-5.337
0.229,0.063,0.253,-5.337
0.209,0.064,0.256,-5.337
0.232,0.063,0.258,-5.337
0.267,0.064,0.256,-5.337
0.233,0.069,0.255,-5.337
0.224,0.068,0.253,-5.337
0.233,0.065,0.258,-5.337
0.261,0.061,0.260,-5.337
0.269,0.059,0.260,-5.337
0.252,0.061,0.258,-5.337
0.211,0.061,0.259,-5.337
0.239,0.057,0.258,-5.337
0.297,0.057,0.256,-5.337
0.256,0.054,0.255,-5.337
0.158,0.055,0.254,-5.337
0.187,0.051,0.253,-5.337
0.268,0.050,0.251,-5.337
0.259,0.054,0.252,-5.337
0.281,0.055,0.255,-5.337
0.316,0.055,0.259,-5.337
0.320,0.054,0.261,-5.337
0.234,0.056,0.258,-5.337
0.146,0.059,0.255,-5.337
0.189,0.058,0.256,-5.337
0.219,0.056,0.255,-5.337
0.245,0.054,0.256,-5.337
0.198,0.054,0.255,-5.337
0.221,0.053,0.257,-5.337
0.283,0.051,0.254,-5.337
0.260,0.055,0.256,-5.337
0.228,0.056,0.256,-5.337
0.208,0.057,0.257,-5.337
0.162,0.056,0.255,-5.337
0.092,0.060,0.258,-5.337
0.115,0.057,0.258,-5.337
0.175,0.053,0.255,-5.337
0.192,0.053,0.253,-5.337
0.161,0.056,0.254,-5.337
0.180,0.058,0.257,-5.337
0.223,0.056,0.262,-5.337
0.190,0.053,0.260,-5.337
0.197,0.051,0.259,-5.337
0.165,0.054,0.259,-5.337
0.235,0.052,0.257,-5.337
0.228,0.050,0.254,-5.337
0.195,0.050,0.252,-5.337
0.250,0.048,0.256,-5.337
0.272,0.048,0.260,-5.337
0.293,0.044,0.261,-5.337
0.335,0.047,0.255,-5.337
0.260,0.053,0.254,-5.337
0.265,0.053,0.253,-5.337
0.230,0.051,0.257,-5.337
0.214,0.049,0.261,-5.337
0.196,0.049,0.262,-5.337
0.199,0.048,0.258,-5.337
0.245,0.049,0.254,-5.337
0.243,0.048,0.251,-5.337
0.236,0.043,0.253,-5.337
0.252,0.045,0.254,-5.337
0.264,0.049,0.255,-5.337
0.272,0.047,0.254,-5.337
0.267,0.047,0.255,-5.337
0.229,0.049,0.255,-5.337
0.207,0.050,0.259,-5.337
0.188,0.049,0.262,-5.337
0.075,0.054,0.259,-5.337
0.026,0.052,0.254,-5.337
0.100,0.046,0.249,-5.337
0.175,0.044,0.254,-5.337
0.213,0.046,0.258,-5.337
0.201,0.049,0.260,-5.337
0.177,0.049,0.261,-5.337
0.254,0.044,0.260,-5.337
0.248,0.044,0.258,-5.337
0.165,0.053,0.257,-5.337
0.114,0.053,0.255,-5.337
0.181,0.045,0.256,-5.337
0.181,0.042,0.257,-5.337
0.199,0.042,0.260,-5.337
0.157,0.047,0.261,-5.337
0.181,0.045,0.259,-5.337
0.256,0.042,0.256,-5.337
0.265,0.042,0.258,-5.337
0.234,0.043,0.259,-5.337
0.215,0.042,0.256,-5.337
0.281,0.039,0.254,-5.337
0.328,0.040,0.253,-5.337
0.269,0.040,0.256,-5.337
0.183,0.042,0.259,-5.337
0.172,0.044,0.260,-5.337
0.200,0.043,0.257,-5.337
0.190,0.043,0.258,-5.337
0.136,0.040,0.261,-5.337
0.156,0.041,0.259,-5.337
0.229,0.037,0.254,-5.337
0.247,0.039,0.255,-5.337
0.207,0.038,0.257,-5.337
0.143,0.041,0.257,-5.337
0.176,0.041,0.254,-5.337
0.213,0.044,0.255,-5.337
0.182,0.043,0.259,-5.337
0.196,0.039,0.259,-5.337
0.175,0.041,0.257,-5.337
0.169,0.041,0.257,-5.337
0.112,0.043,0.254,-5.337
0.128,0.041,0.252,-5.337
0.223,0.042,0.255,-5.337
0.270,0.042,0.259,-5.337
0.217,0.041,0.261,-5.337
0.168,0.043,0.260,-5.337
0.146,0.043,0.259,-5.337
0.237,0.039,0.256,-5.337
0.236,0.039,0.257,-5.337
0.204,0.041,0.256,-5.337
0.155,0.044,0.257,-5.337
0.168,0.046,0.257,-5.337
0.206,0.045,0.256,-5.337
0.176,0.041,0.251,-5.337
0.144,0.044,0.255,-5.337
0.126,0.045,0.261,-5.337
0.129,0.046,0.263,-5.337
0.160,0.041,0.258,-5.337
0.150,0.042,0.257,-5.337
0.141,0.044,0.257,-5.337
0.165,0.045,0.255,-5.337
0.199,0.042,0.259,-5.337
0.171,0.045,0.262,-5.337
0.162,0.047,0.263,-5.337
0.174,0.046,0.260,-5.337
0.112,0.046,0.265,-5.337
0.165,0.043,0.264,-5.337
0.277,0.040,0.261,-5.337
0.241,0.038,0.257,-5.337
0.196,0.043,0.258,-5.337
0.156,0.044,0.257,-5.337
0.172,0.041,0.257,-5.337
0.162,0.041,0.258,-5.337
0.162,0.041,0.259,-5.337
0.198,0.043,0.260,-5.337
0.187,0.043,0.262,-5.337
0.267,0.041,0.264,-5.337
0.345,0.039,0.264,-5.337
0.284,0.040,0.261,-5.337
0.234,0.040,0.259,-5.337
0.156,0.042,0.257,-5.337
0.083,0.040,0.259,-5.337
0.118,0.038,0.262,-5.337
0.175,0.040,0.263,-5.337
0.161,0.043,0.259,-5.337
0.140,0.042,0.257,-5.337
0.130,0.041,0.259,-5.337
0.106,0.044,0.259,-5.337
0.054,0.044,0.260,-5.337
0.062,0.040,0.258,-5.337
0.198,0.035,0.260,-5.337
0.210,0.036,0.265,-5.337
0.117,0.041,0.269,-5.337
0.088,0.040,0.265,-5.337
0.107,0.036,0.261,-5.337
0.141,0.032,0.257,-5.337
0.220,0.036,0.258,-5.337
0.280,0.035,0.259,-5.337
0.294,0.032,0.260,-5.337
0.292,0.034,0.260,-5.337
0.220,0.036,0.258,-5.337
0.212,0.034,0.257,-5.337
0.193,0.034,0.255,-5.337
0.188,0.037,0.254,-5.337
0.239,0.039,0.258,-5.337
0.268,0.036,0.262,-5.337
0.281,0.035,0.265,-5.337
0.223,0.037,0.261,-5.337
0.149,0.043,0.256,-5.337
0.109,0.040,0.257,-5.337
0.188,0.040,0.257,-5.337
0.231,0.042,0.255,-5.337
0.193,0.043,0.252,-5.337
0.138,0.040,0.260,-5.337
0.159,0.037,0.266,-5.337
0.171,0.040,0.267,-5.337
0.144,0.043,0.260,-5.337
0.159,0.045,0.254,-5.337
0.146,0.042,0.255,-5.337
0.209,0.036,0.258,-5.337
0.260,0.036,0.256,-5.337
0.243,0.036,0.253,-5.337
0.229,0.035,0.254,-5.337
0.195,0.039,0.257,-5.337
0.132,0.042,0.258,-5.337
0.132,0.038,0.258,-5.337
0.157,0.037,0.255,-5.337
0.142,0.038,0.256,-5.337
0.175,0.038,0.259,-5.337
0.206,0.039,0.258,-5.337
0.137,0.039,0.258,-5.337
0.122,0.039,0.256,-5.337
0.198,0.039,0.255,-5.337
0.228,0.034,0.257,-5.337
0.218,0.035,0.259,-5.337
0.201,0.037,0.259,-5.337
0.165,0.037,0.259,-5.337
0.128,0.037,0.259,-5.337
0.099,0.040,0.260,-5.337
0.117,0.040,0.258,-5.337
0.101,0.042,0.255,-5.337
0.182,0.039,0.253,-5.337
0.263,0.039,0.256,-5.337
0.188,0.039,0.259,-5.337
0.108,0.038,0.261,-5.337
0.082,0.036,0.261,-5.337
0.087,0.038,0.260,-5.337
0.139,0.035,0.255,-5.337
0.178,0.034,0.255,-5.337
0.204,0.035,0.259,-5.337
0.229,0.034,0.261,-5.337
0.200,0.036,0.260,-5.337
0.132,0.039,0.257,-5.337
0.130,0.041,0.253,-5.337
0.120,0.045,0.249,-5.337
0.106,0.041,0.252,-5.337
0.174,0.037,0.258,-5.337
0.195,0.035,0.258,-5.337
0.169,0.037,0.255,-5.337
0.216,0.035,0.255,-5.337
0.212,0.035,0.256,-5.337
0.175,0.036,0.255,-5.337
0.191,0.036,0.254,-5.337
0.201,0.039,0.256,-5.337
0.170,0.035,0.259,-5.337
0.125,0.036,0.262,-5.337
0.041,0.037,0.259,-5.337
0.090,0.036,0.255,-5.337
0.197,0.034,0.252,-5.337
0.285,0.031,0.253,-5.337
0.251,0.032,0.254,-5.337
0.154,0.036,0.257,-5.337
0.189,0.035,0.261,-5.337
0.221,0.035,0.260,-5.337
0.202,0.036,0.258,-5.337
0.188,0.032,0.259,-5.337
0.176,0.034,0.258,-5.337
0.185,0.034,0.255,-5.337
0.197,0.036,0.254,-5.337
0.146,0.040,0.259,-5.337
0.097,0.039,0.260,-5.337
0.110,0.036,0.257,-5.337
0.123,0.035,0.256,-5.337
0.073,0.035,0.258,-5.337
0.072,0.035,0.259,-5.337
0.113,0.034,0.257,-5.337
0.186,0.035,0.256,-5.337
0.225,0.035,0.256,-5.337
0.198,0.038,0.255,-5.337
0.120,0.034,0.255,-5.337
0.106,0.034,0.255,-5.337
0.144,0.031,0.251,-5.337
0.196,0.029,0.253,-5.337
0.150,0.032,0.258,-5.337
0.116,0.031,0.257,-5.337
0.145,0.031,0.256,-5.337
0.203,0.034,0.255,-5.337
0.153,0.036,0.258,-5.337
0.053,0.041,0.257,-5.337
0.055,0.038,0.255,-5.337
0.117,0.035,0.251,-5.337
0.160,0.036,0.255,-5.337
0.130,0.039,0.258,-5.337
0.129,0.040,0.260,-5.337
0.129,0.039,0.260,-5.337
0.140,0.040,0.259,-5.337
0.216,0.035,0.257,-5.337
0.305,0.032,0.259,-5.337
0.234,0.035,0.260,-5.337
0.195,0.041,0.262,-5.337
0.161,0.041,0.262,-5.337
0.177,0.039,0.258,-5.337
0.208,0.037,0.255,-5.337
0.207,0.039,0.253,-5.337
0.146,0.041,0.253,-5.337
0.133,0.041,0.255,-5.337
0.170,0.041,0.255,-5.337
0.192,0.043,0.253,-5.337
0.176,0.046,0.254,-5.337
0.188,0.041,0.256,-5.337
0.205,0.039,0.259,-5.337
0.252,0.037,0.258,-5.337
0.200,0.039,0.256,-5.337
0.142,0.039,0.250,-5.337
0.124,0.042,0.252,-5.337
0.121,0.040,0.252,-5.337
0.164,0.041,0.256,-5.337
0.218,0.034,0.257,-5.337
0.230,0.036,0.257,-5.337
0.179,0.038,0.258,-5.337
0.186,0.040,0.258,-5.337
0.241,0.040,0.259,-5.337
0.200,0.043,0.260,-5.337
0.180,0.043,0.259,-5.337
0.187,0.049,0.259,-5.337
0.199,0.046,0.259,-5.337
0.220,0.042,0.258,-5.337
0.204,0.045,0.257,-5.337
0.161,0.047,0.256,-5.337
0.111,0.045,0.253,-5.337
0.151,0.042,0.253,-5.337
0.144,0.042,0.254,-5.337
0.156,0.045,0.257,-5.337
0.205,0.042,0.257,-5.337
0.297,0.039,0.253,-5.337
0.299,0.042,0.253,-5.337
0.240,0.043,0.255,-5.337
0.187,0.042,0.257,-5.337
0.126,0.042,0.258,-5.337
0.159,0.043,0.257,-5.337
0.206,0.042,0.256,-5.337
0.191,0.047,0.256,-5.337
0.192,0.049,0.255,-5.337
0.161,0.048,0.257,-5.337
0.244,0.041,0.261,-5.337
0.258,0.041,0.262,-5.337
0.183,0.045,0.261,-5.337
0.108,0.048,0.261,-5.337
0.124,0.048,0.259,-5.337
0.183,0.048,0.254,-5.337
0.182,0.049,0.252,-5.337
0.174,0.047,0.254,-5.337
0.195,0.048,0.257,-5.337
0.200,0.050,0.257,-5.337
0.203,0.052,0.259,-5.337
0.188,0.049,0.258,-5.337
0.178,0.046,0.259,-5.337
0.223,0.043,0.254,-5.337
0.230,0.047,0.252,-5.337
0.196,0.050,0.254,-5.337
0.263,0.052,0.259,-5.337
0.311,0.047,0.258,-5.337
0.287,0.045,0.255,-5.337
0.212,0.045,0.257,-5.337
0.198,0.046,0.257,-5.337
0.135,0.048,0.255,-5.337
0.119,0.050,0.257,-5.337
0.117,0.050,0.257,-5.337
0.131,0.052,0.256,-5.337
0.169,0.049,0.255,-5.337
0.235,0.044,0.255,-5.337
0.169,0.043,0.255,-5.337
0.174,0.047,0.260,-5.337
0.248,0.043,0.262,-5.337
0.253,0.041,0.257,-5.337
0.201,0.043,0.255,-5.337
0.167,0.047,0.252,-5.337
0.145,0.048,0.252,-5.337
0.133,0.047,0.250,-5.337
0.225,0.044,0.252,-5.337
0.219,0.045,0.257,-5.337
0.172,0.048,0.261,-5.337
0.192,0.042,0.263,-5.337
0.192,0.043,0.262,-5.337
0.201,0.044,0.258,-5.337
0.213,0.047,0.257,-5.337
0.170,0.050,0.261,-5.337
0.162,0.050,0.259,-5.337
0.250,0.049,0.254,-5.337
0.227,0.048,0.256,-5.337
0.167,0.051,0.261,-5.337
0.179,0.050,0.259,-5.337
0.209,0.048,0.256,-5.337
0.215,0.050,0.254,-5.337
0.169,0.053,0.255,-5.337
0.209,0.050,0.253,-5.337
0.223,0.052,0.254,-5.337
0.151,0.050,0.255,-5.337
0.160,0.048,0.257,-5.337
0.186,0.052,0.260,-5.337
0.232,0.052,0.258,-5.337
0.290,0.051,0.258,-5.337
0.273,0.050,0.258,-5.337
0.267,0.050,0.257,-5.337
0.237,0.052,0.256,-5.337
0.174,0.054,0.260,-5.337
0.163,0.054,0.261,-5.337
0.151,0.052,0.259,-5.337
0.179,0.053,0.258,-5.337
0.174,0.052,0.258,-5.337
0.174,0.046,0.256,-5.337
0.242,0.040,0.256,-5.337
0.230,0.047,0.254,-5.337
0.129,0.053,0.255,-5.337
0.097,0.056,0.258,-5.337
0.163,0.051,0.259,-5.337
0.249,0.050,0.259,-5.337
0.226,0.050,0.262,-5.337
0.209,0.051,0.262,-5.337
0.225,0.051,0.259,-5.337
0.204,0.053,0.256,-5.337
0.142,0.055,0.258,-5.337
0.166,0.054,0.260,-5.337
0.265,0.054,0.258,-5.337
0.215,0.057,0.257,-5.337
0.156,0.055,0.253,-5.337
0.161,0.054,0.253,-5.337
0.221,0.055,0.255,-5.337
0.198,0.054,0.258,-5.337
0.143,0.056,0.261,-5.337
0.173,0.054,0.261,-5.337
0.209,0.054,0.261,-5.337
0.188,0.056,0.263,-5.337
0.206,0.058,0.264,-5.337
0.230,0.055,0.264,-5.337
0.293,0.053,0.263,-5.337
0.279,0.055,0.261,-5.337
0.250,0.056,0.256,-5.337
0.262,0.054,0.257,-5.337
0.253,0.052,0.257,-5.337
0.212,0.054,0.259,-5.337
0.194,0.059,0.261,-5.337
0.135,0.060,0.262,-5.337
0.136,0.057,0.257,-5.337
0.186,0.055,0.254,-5.337
0.203,0.054,0.254,-5.337
0.210,0.055,0.258,-5.337
0.246,0.051,0.258,-5.337
0.294,0.048,0.259,-5.337
0.275,0.049,0.265,-5.337
0.145,0.056,0.266,-5.337
0.116,0.056,0.263,-5.337
0.199,0.051,0.260,-5.337
0.292,0.051,0.258,-5.337
0.235,0.058,0.258,-5.337
0.193,0.056,0.259,-5.337
0.202,0.056,0.261,-5.337
0.165,0.056,0.262,-5.337
0.184,0.060,0.259,-5.337
0.253,0.060,0.257,-5.337
0.294,0.057,0.253,-5.337
0.260,0.056,0.252,-5.337
0.251,0.055,0.256,-5.337
0.261,0.057,0.264,-5.337
0.236,0.057,0.267,-5.337
0.247,0.058,0.265,-5.337
0.230,0.057,0.257,-5.337
0.160,0.058,0.252,-5.337
0.144,0.057,0.253,-5.337
0.125,0.058,0.256,-5.337
0.163,0.054,0.258,-5.337
0.207,0.055,0.258,-5.337
0.283,0.052,0.255,-5.337
0.298,0.053,0.254,-5.337
0.170,0.060,0.254,-5.337
0.161,0.061,0.255,-5.337
0.243,0.056,0.256,-5.337
0.290,0.054,0.258,-5.337
0.240,0.056,0.260,-5.337
0.157,0.063,0.261,-5.337
0.165,0.062,0.262,-5.337
0.232,0.057,0.260,-5.337
0.246,0.057,0.256,-5.337
0.219,0.060,0.254,-5.337
0.195,0.065,0.259,-5.337
0.211,0.064,0.263,-5.337
0.274,0.060,0.260,-5.337
0.278,0.058,0.254,-5.337
0.227,0.062,0.253,-5.337
0.241,0.060,0.255,-5.337
0.245,0.058,0.258,-5.337
0.252,0.058,0.257,-5.337
0.281,0.057,0.256,-5.337
0.254,0.057,0.259,-5.337
0.232,0.054,0.261,-5.337
0.235,0.057,0.262,-5.337
0.230,0.059,0.262,-5.337
0.229,0.056,0.258,-5.337
0.227,0.058,0.255,-5.337
0.215,0.060,0.255,-5.337
0.196,0.057,0.259,-5.337
0.193,0.056,0.262,-5.337
0.222,0.057,0.257,-5.337
0.288,0.055,0.253,-5.337
0.244,0.054,0.253,-5.337
0.184,0.056,0.253,-5.337
0.151,0.058,0.251,-5.337
0.202,0.058,0.252,-5.337
0.265,0.056,0.254,-5.337
0.264,0.054,0.256,-5.337
0.234,0.057,0.255,-5.337
0.202,0.061,0.259,-5.337
0.181,0.061,0.262,-5.337
0.234,0.059,0.258,-5.337
0.234,0.057,0.257,-5.337
0.258,0.058,0.257,-5.337
0.210,0.060,0.256,-5.337
0.156,0.063,0.254,-5.337
0.224,0.059,0.253,-5.337
0.300,0.060,0.259,-5.337
0.303,0.063,0.266,-5.337
0.257,0.062,0.266,-5.337
0.319,0.059,0.261,-5.337
0.250,0.063,0.255,-5.337
0.162,0.064,0.253,-5.337
0.191,0.063,0.253,-5.337
0.222,0.063,0.256,-5.337
0.234,0.063,0.256,-5.337
0.237,0.060,0.256,-5.337
0.247,0.061,0.251,-5.337
0.190,0.066,0.250,-5.337
0.152,0.064,0.249,-5.337
0.210,0.061,0.253,-5.337
0.300,0.058,0.256,-5.337
0.328,0.057,0.262,-5.337
0.229,0.057,0.265,-5.337
0.157,0.056,0.262,-5.337
0.199,0.053,0.260,-5.337
0.224,0.052,0.258,-5.337
0.164,0.056,0.255,-5.337
0.111,0.059,0.255,-5.337
0.215,0.057,0.259,-5.337
0.270,0.058,0.262,-5.337
0.282,0.058,0.259,-5.337
0.330,0.059,0.257,-5.337
0.294,0.062,0.255,-5.337
0.268,0.062,0.254,-5.337
0.204,0.062,0.254,-5.337
0.160,0.060,0.251,-5.337
0.187,0.060,0.256,-5.337
0.209,0.061,0.262,-5.337
0.246,0.059,0.262,-5.337
0.198,0.057,0.259,-5.337
0.180,0.056,0.258,-5.337
0.219,0.052,0.256,-5.337
0.280,0.053,0.254,-5.337
0.271,0.055,0.254,-5.337
0.172,0.058,0.254,-5.337
0.154,0.058,0.257,-5.337
0.220,0.057,0.259,-5.337
0.230,0.052,0.258,-5.337
0.223,0.052,0.261,-5.337
0.223,0.053,0.262,-5.337
0.219,0.049,0.262,-5.337
0.269,0.051,0.259,-5.337
0.243,0.054,0.256,-5.337
0.153,0.054,0.254,-5.337
0.162,0.050,0.249,-5.337
0.236,0.047,0.252,-5.337
0.249,0.045,0.255,-5.337
0.231,0.043,0.258,-5.337
0.197,0.043,0.258,-5.337
0.212,0.043,0.262,-5.337
0.241,0.042,0.261,-5.337
0.276,0.043,0.258,-5.337
0.178,0.050,0.255,-5.337
0.119,0.047,0.256,-5.337
0.180,0.044,0.257,-5.337
0.252,0.044,0.257,-5.337
0.250,0.047,0.257,-5.337
0.183,0.047,0.261,-5.337
0.206,0.042,0.261,-5.337
0.237,0.044,0.258,-5.337
0.198,0.048,0.256,-5.337
0.178,0.051,0.257,-5.337
0.189,0.050,0.256,-5.337
0.174,0.048,0.253,-5.337
0.187,0.047,0.253,-5.337
0.155,0.048,0.255,-5.337
0.160,0.047,0.256,-5.337
0.209,0.047,0.258,-5.337
0.225,0.048,0.261,-5.337
0.183,0.048,0.261,-5.337
0.153,0.044,0.261,-5.337
0.214,0.041,0.257,-5.337
0.306,0.043,0.255,-5.337
0.365,0.043,0.253,-5.337
0.342,0.044,0.255,-5.337
0.255,0.044,0.259,-5.337
0.175,0.047,0.259,-5.337
0.139,0.049,0.254,-5.337
0.199,0.046,0.259,-5.337
0.224,0.043,0.260,-5.337
0.178,0.046,0.258,-5.337
0.150,0.043,0.258,-5.337
0.184,0.042,0.260,-5.337
0.194,0.040,0.260,-5.337
0.174,0.042,0.258,-5.337
0.217,0.041,0.253,-5.337
0.191,0.040,0.252,-5.337
0.184,0.039,0.257,-5.337
0.208,0.037,0.262,-5.337
0.208,0.034,0.265,-5.337
0.153,0.037,0.263,-5.337
0.141,0.037,0.255,-5.337
0.173,0.036,0.251,-5.337
0.144,0.038,0.255,-5.337
0.127,0.036,0.256,-5.337
0.201,0.037,0.255,-5.337
0.208,0.036,0.256,-5.337
0.208,0.031,0.258,-5.337
0.228,0.032,0.260,-5.337
0.173,0.037,0.261,-5.337
0.152,0.042,0.262,-5.337
0.170,0.039,0.263,-5.337
0.192,0.035,0.259,-5.337
0.158,0.037,0.255,-5.337
0.174,0.040,0.250,-5.337
0.217,0.041,0.248,-5.337
0.182,0.040,0.256,-5.337
0.191,0.038,0.264,-5.337
0.189,0.040,0.265,-5.337
0.194,0.040,0.258,-5.337
0.268,0.038,0.255,-5.337
0.322,0.038,0.256,-5.337
0.255,0.042,0.262,-5.337
0.203,0.044,0.261,-5.337
0.170,0.046,0.259,-5.337
0.161,0.044,0.258,-5.337
0.085,0.046,0.260,-5.337
0.125,0.042,0.258,-5.337
0.160,0.041,0.256,-5.337
0.189,0.036,0.253,-5.337
0.167,0.040,0.254,-5.337
0.071,0.041,0.258,-5.337
0.052,0.039,0.259,-5.337
0.115,0.035,0.255,-5.337
0.201,0.035,0.253,-5.337
0.168,0.035,0.250,-5.337
0.119,0.040,0.251,-5.337
0.112,0.043,0.259,-5.337
0.208,0.037,0.265,-5.337
0.260,0.034,0.264,-5.337
0.256,0.035,0.257,-5.337
0.202,0.037,0.254,-5.337
0.192,0.037,0.254,-5.337
0.252,0.034,0.257,-5.337
0.244,0.037,0.258,-5.337
0.180,0.041,0.257,-5.337
0.137,0.044,0.254,-5.337
0.144,0.043,0.254,-5.337
0.161,0.039,0.258,-5.337
0.188,0.036,0.259,-5.337
0.244,0.034,0.257,-5.337
0.196,0.036,0.254,-5.337
0.128,0.038,0.255,-5.337
0.108,0.038,0.254,-5.337
0.147,0.038,0.256,-5.337
0.196,0.038,0.256,-5.337
0.192,0.040,0.256,-5.337
0.141,0.040,0.257,-5.337
0.168,0.037,0.261,-5.337
0.280,0.032,0.262,-5.337
0.255,0.035,0.261,-5.337
0.143,0.040,0.258,-5.337
0.156,0.040,0.258,-5.337
0.238,0.038,0.257,-5.337
0.241,0.039,0.255,-5.337
0.244,0.038,0.255,-5.337
0.250,0.038,0.260,-5.337
0.198,0.038,0.261,-5.337
0.189,0.042,0.259,-5.337
0.164,0.044,0.256,-5.337
0.104,0.047,0.259,-5.337
0.130,0.042,0.258,-5.337
0.178,0.038,0.260,-5.337
0.213,0.039,0.262,-5.337
0.285,0.036,0.258,-5.337
0.238,0.033,0.251,-5.337
0.224,0.030,0.252,-5.337
0.204,0.033,0.253,-5.337
0.182,0.036,0.258,-5.337
0.182,0.033,0.259,-5.337
0.152,0.036,0.256,-5.337
0.104,0.035,0.257,-5.337
0.174,0.033,0.260,-5.337
0.208,0.034,0.265,-5.337
0.178,0.036,0.263,-5.337
0.121,0.035,0.256,-5.337
0.115,0.037,0.255,-5.337
0.134,0.039,0.260,-5.337
0.121,0.037,0.260,-5.337
0.121,0.037,0.257,-5.337
0.119,0.036,0.255,-5.337
0.128,0.033,0.257,-5.337
0.162,0.030,0.261,-5.337
0.183,0.032,0.261,-5.337
0.156,0.037,0.262,-5.337
0.172,0.035,0.264,-5.337
0.190,0.034,0.262,-5.337
0.151,0.035,0.258,-5.337
0.176,0.035,0.255,-5.337
0.216,0.034,0.255,-5.337
0.227,0.035,0.259,-5.337
0.205,0.035,0.261,-5.337
0.153,0.035,0.263,-5.337
0.142,0.037,0.261,-5.337
0.180,0.035,0.259,-5.337
0.183,0.035,0.262,-5.337
0.132,0.037,0.268,-5.337
0.069,0.041,0.267,-5.337
0.045,0.042,0.264,-5.337
0.092,0.040,0.256,-5.337
0.146,0.039,0.253,-5.337
0.130,0.041,0.253,-5.337
0.142,0.039,0.252,-5.337
0.213,0.034,0.254,-5.337
0.230,0.035,0.259,-5.337
0.208,0.036,0.263,-5.337
0.210,0.036,0.265,-5.337
0.244,0.036,0.264,-5.337
0.252,0.039,0.262,-5.337
0.164,0.039,0.260,-5.337
0.110,0.039,0.259,-5.337
0.102,0.040,0.258,-5.337
0.071,0.040,0.256,-5.337
0.119,0.037,0.259,-5.337
0.147,0.039,0.262,-5.337
0.138,0.037,0.261,-5.337
0.163,0.033,0.258,-5.337
0.179,0.033,0.256,-5.337
0.169,0.032,0.255,-5.337
0.201,0.034,0.255,-5.337
0.191,0.039,0.257,-5.337
0.166,0.042,0.260,-5.337
0.154,0.039,0.261,-5.337
0.165,0.038,0.261,-5.337
0.149,0.042,0.259,-5.337
0.133,0.043,0.255,-5.337
0.128,0.042,0.253,-5.337
0.191,0.041,0.254,-5.337
0.192,0.042,0.256,-5.337
0.161,0.041,0.260,-5.337
0.141,0.038,0.263,-5.337
0.155,0.040,0.262,-5.337
0.162,0.040,0.262,-5.337
0.175,0.039,0.258,-5.337
0.126,0.039,0.255,-5.337
0.127,0.041,0.256,-5.337
0.182,0.040,0.258,-5.337
0.212,0.036,0.258,-5.337
0.151,0.034,0.255,-5.337
0.176,0.031,0.250,-5.337
0.168,0.034,0.251,-5.337
0.105,0.037,0.257,-5.337
0.071,0.036,0.259,-5.337
0.136,0.036,0.258,-5.337
0.185,0.033,0.260,-5.337
0.161,0.034,0.259,-5.337
0.186,0.033,0.254,-5.337
0.186,0.030,0.252,-5.337
0.206,0.031,0.252,-5.337
0.177,0.035,0.251,-5.337
0.140,0.038,0.254,-5.337
0.149,0.033,0.261,-5.337
0.209,0.032,0.260,-5.337
0.243,0.034,0.255,-5.337
0.234,0.036,0.256,-5.337
0.260,0.034,0.259,-5.337
0.218,0.031,0.260,-5.337
0.158,0.035,0.254,-5.337
0.079,0.037,0.250,-5.337
0.081,0.037,0.253,-5.337
0.169,0.035,0.256,-5.337
0.197,0.031,0.255,-5.337
0.193,0.032,0.256,-5.337
0.167,0.034,0.259,-5.337
0.075,0.036,0.255,-5.337
0.072,0.035,0.253,-5.337
0.159,0.035,0.254,-5.337
0.192,0.038,0.257,-5.337
0.117,0.041,0.257,-5.337
0.110,0.040,0.257,-5.337
0.150,0.038,0.256,-5.337
0.146,0.040,0.256,-5.337
0.133,0.038,0.257,-5.337
0.130,0.039,0.257,-5.337
0.154,0.037,0.257,-5.337
0.191,0.035,0.260,-5.337
0.217,0.040,0.261,-5.337
0.208,0.043,0.255,-5.337
0.198,0.042,0.252,-5.337
0.215,0.042,0.254,-5.337
0.262,0.043,0.256,-5.337
0.218,0.044,0.257,-5.337
0.105,0.045,0.258,-5.337
0.115,0.040,0.259,-5.337
0.170,0.041,0.259,-5.337
0.190,0.042,0.257,-5.337
0.120,0.044,0.255,-5.337
0.115,0.041,0.253,-5.337
0.112,0.042,0.255,-5.337
0.069,0.044,0.255,-5.337
0.103,0.047,0.252,-5.337
0.089,0.046,0.254,-5.337
0.102,0.043,0.260,-5.337
0.129,0.042,0.260,-5.337
0.157,0.041,0.257,-5.337
0.183,0.043,0.255,-5.337
0.159,0.046,0.257,-5.337
0.165,0.042,0.256,-5.337
0.201,0.043,0.254,-5.337
0.194,0.047,0.254,-5.337
0.087,0.048,0.254,-5.337
0.061,0.050,0.254,-5.337
0.119,0.045,0.252,-5.337
0.131,0.044,0.255,-5.337
0.174,0.042,0.258,-5.337
0.172,0.041,0.259,-5.337
0.215,0.039,0.256,-5.337
0.292,0.035,0.258,-5.337
0.241,0.037,0.256,-5.337
0.133,0.045,0.254,-5.337
0.135,0.048,0.251,-5.337
0.210,0.048,0.257,-5.337
0.188,0.046,0.259,-5.337
0.200,0.043,0.258,-5.337
0.204,0.042,0.257,-5.337
0.223,0.045,0.257,-5.337
0.207,0.043,0.256,-5.337
0.171,0.041,0.256,-5.337
0.215,0.040,0.255,-5.337
0.204,0.041,0.254,-5.337
0.173,0.041,0.252,-5.337
0.188,0.042,0.253,-5.337
0.174,0.043,0.253,-5.337
0.221,0.042,0.254,-5.337
0.229,0.042,0.256,-5.337
0.194,0.044,0.259,-5.337
0.186,0.042,0.257,-5.337
0.257,0.039,0.254,-5.337
0.223,0.037,0.256,-5.337
0.166,0.037,0.259,-5.337
0.159,0.041,0.260,-5.337
0.233,0.041,0.258,-5.337
0.231,0.042,0.255,-5.337
0.181,0.043,0.251,-5.337
0.193,0.044,0.251,-5.337
0.184,0.045,0.254,-5.337
0.149,0.046,0.259,-5.337
0.154,0.043,0.260,-5.337
0.163,0.043,0.259,-5.337
0.120,0.043,0.259,-5.337
0.097,0.043,0.262,-5.337
0.144,0.044,0.258,-5.337
0.153,0.049,0.254,-5.337
0.122,0.047,0.253,-5.337
0.145,0.044,0.256,-5.337
0.178,0.046,0.258,-5.337
0.175,0.050,0.258,-5.337
0.180,0.051,0.256,-5.337
0.203,0.050,0.255,-5.337
0.197,0.045,0.258,-5.337
0.214,0.040,0.260,-5.337
0.231,0.040,0.259,-5.337
0.219,0.040,0.256,-5.337
0.225,0.044,0.257,-5.337
0.179,0.049,0.254,-5.337
0.142,0.051,0.253,-5.337
0.147,0.046,0.255,-5.337
0.210,0.044,0.261,-5.337
0.245,0.044,0.263,-5.337
0.244,0.046,0.265,-5.337
0.248,0.044,0.262,-5.337
0.258,0.046,0.260,-5.337
0.247,0.049,0.259,-5.337
0.170,0.051,0.257,-5.337
0.135,0.051,0.256,-5.337
0.207,0.049,0.256,-5.337
0.176,0.050,0.254,-5.337
0.214,0.048,0.252,-5.337
0.274,0.051,0.255,-5.337
0.170,0.055,0.258,-5.337
0.118,0.056,0.257,-5.337
0.159,0.054,0.255,-5.337
0.150,0.056,0.254,-5.337
0.190,0.057,0.253,-5.337
0.204,0.058,0.256,-5.337
0.132,0.057,0.259,-5.337
0.123,0.060,0.263,-5.337
0.142,0.057,0.262,-5.337
0.175,0.055,0.260,-5.337
0.201,0.054,0.258,-5.337
0.208,0.053,0.255,-5.337
0.185,0.053,0.256,-5.337
0.122,0.056,0.255,-5.337
0.092,0.059,0.253,-5.337
0.086,0.054,0.252,-5.337
0.174,0.050,0.255,-5.337
0.217,0.054,0.260,-5.337
0.215,0.055,0.259,-5.337
0.199,0.051,0.257,-5.337
0.220,0.046,0.259,-5.337
0.239,0.050,0.257,-5.337
0.210,0.053,0.255,-5.337
0.202,0.051,0.251,-5.337
0.281,0.048,0.253,-5.337
0.309,0.049,0.255,-5.337
0.157,0.051,0.257,-5.337
0.117,0.051,0.258,-5.337
0.176,0.049,0.258,-5.337
0.234,0.048,0.255,-5.337
0.213,0.052,0.256,-5.337
0.208,0.053,0.259,-5.337
0.217,0.055,0.263,-5.337
0.162,0.057,0.261,-5.337
0.120,0.055,0.258,-5.337
0.144,0.057,0.259,-5.337
0.181,0.056,0.257,-5.337
0.116,0.057,0.249,-5.337
0.077,0.058,0.247,-5.337
0.181,0.058,0.252,-5.337
0.243,0.057,0.257,-5.337
0.233,0.057,0.260,-5.337
0.221,0.054,0.259,-5.337
0.237,0.056,0.257,-5.337
0.271,0.057,0.258,-5.337
0.248,0.056,0.257,-5.337
0.196,0.057,0.256,-5.337
0.177,0.056,0.258,-5.337
0.207,0.055,0.258,-5.337
0.189,0.057,0.259,-5.337
0.146,0.057,0.258,-5.337
0.153,0.057,0.258,-5.337
0.187,0.054,0.258,-5.337
0.154,0.056,0.255,-5.337
0.166,0.054,0.254,-5.337
0.222,0.053,0.255,-5.337
0.248,0.052,0.259,-5.337
0.212,0.054,0.259,-5.337
0.185,0.056,0.256,-5.337
0.136,0.056,0.255,-5.337
0.179,0.054,0.258,-5.337
0.218,0.051,0.258,-5.337
0.248,0.049,0.255,-5.337
0.270,0.055,0.253,-5.337
0.205,0.061,0.254,-5.337
0.161,0.057,0.255,-5.337
0.192,0.052,0.258,-5.337
0.206,0.056,0.258,-5.337
0.159,0.058,0.263,-5.337
0.227,0.054,0.262,-5.337
0.324,0.049,0.262,-5.337
0.304,0.053,0.260,-5.337
0.237,0.053,0.258,-5.337
0.193,0.052,0.257,-5.337
0.171,0.058,0.258,-5.337
0.213,0.059,0.258,-5.337
0.176,0.059,0.263,-5.337
0.151,0.058,0.265,-5.337
0.166,0.060,0.262,-5.337
0.132,0.056,0.256,-5.337
0.224,0.053,0.254,-5.337
0.205,0.054,0.257,-5.337
0.154,0.058,0.258,-5.337
0.235,0.062,0.258,-5.337
0.255,0.061,0.258,-5.337
0.213,0.060,0.258,-5.337
0.267,0.058,0.255,-5.337
0.214,0.059,0.254,-5.337
0.108,0.061,0.256,-5.337
0.152,0.057,0.259,-5.337
0.291,0.055,0.258,-5.337
0.277,0.060,0.262,-5.337
0.177,0.063,0.264,-5.337
0.186,0.062,0.262,-5.337
0.254,0.057,0.257,-5.337
0.299,0.054,0.256,-5.337
0.319,0.056,0.260,-5.337
0.308,0.059,0.262,-5.337
0.282,0.057,0.261,-5.337
0.242,0.056,0.262,-5.337
0.209,0.060,0.261,-5.337
0.148,0.062,0.260,-5.337
0.220,0.060,0.260,-5.337
0.288,0.058,0.258,-5.337
0.260,0.061,0.257,-5.337
0.191,0.062,0.258,-5.337
0.173,0.058,0.258,-5.337
0.202,0.055,0.258,-5.337
0.183,0.060,0.262,-5.337
0.158,0.059,0.260,-5.337
0.169,0.060,0.262,-5.337
0.174,0.059,0.258,-5.337
0.210,0.060,0.256,-5.337
0.208,0.061,0.256,-5.337
0.179,0.061,0.259,-5.337
0.225,0.060,0.258,-5.337
0.185,0.062,0.257,-5.337
0.204,0.059,0.255,-5.337
0.266,0.057,0.259,-5.337
0.293,0.058,0.260,-5.337
0.255,0.060,0.259,-5.337
0.258,0.058,0.257,-5.337
0.285,0.057,0.257,-5.337
0.243,0.057,0.260,-5.337
0.223,0.057,0.264,-5.337
0.384,0.049,0.262,-5.337
0.419,0.053,0.258,-5.337
0.347,0.059,0.255,-5.337
0.195,0.063,0.257,-5.337
0.161,0.065,0.259,-5.337
0.238,0.064,0.259,-5.337
0.216,0.065,0.258,-5.337
0.116,0.068,0.257,-5.337
0.173,0.065,0.259,-5.337
0.256,0.062,0.257,-5.337
0.243,0.064,0.258,-5.337
0.132,0.066,0.258,-5.337
0.117,0.062,0.259,-5.337
0.194,0.059,0.256,-5.337
0.254,0.057,0.254,-5.337
0.211,0.059,0.253,-5.337
0.192,0.060,0.256,-5.337
0.166,0.062,0.255,-5.337
0.176,0.060,0.252,-5.337
0.217,0.057,0.252,-5.337
0.217,0.059,0.256,-5.337
0.208,0.062,0.260,-5.337
0.169,0.060,0.262,-5.337
0.190,0.057,0.263,-5.337
0.225,0.058,0.261,-5.337
0.250,0.059,0.263,-5.337
0.215,0.055,0.260,-5.337
0.222,0.055,0.253,-5.337
0.268,0.054,0.250,-5.337
0.305,0.056,0.257,-5.337
0.267,0.055,0.261,-5.337
0.188,0.057,0.261,-5.337
0.137,0.058,0.255,-5.337
0.184,0.058,0.249,-5.337
0.221,0.056,0.251,-5.337
0.216,0.054,0.254,-5.337
0.221,0.053,0.256,-5.337
0.184,0.054,0.260,-5.337
0.154,0.052,0.258,-5.337
0.178,0.050,0.257,-5.337
0.210,0.048,0.258,-5.337
0.282,0.046,0.259,-5.337
0.330,0.049,0.259,-5.337
0.251,0.050,0.255,-5.337
0.178,0.049,0.256,-5.337
0.213,0.048,0.261,-5.337
0.240,0.050,0.262,-5.337
0.207,0.054,0.256,-5.337
0.155,0.054,0.255,-5.337
0.168,0.053,0.256,-5.337
0.207,0.049,0.258,-5.337
0.189,0.050,0.257,-5.337
0.203,0.048,0.256,-5.337
0.247,0.047,0.258,-5.337
0.254,0.046,0.260,-5.337
0.150,0.049,0.261,-5.337
0.095,0.049,0.262,-5.337
0.162,0.049,0.259,-5.337
0.159,0.050,0.252,-5.337
0.239,0.046,0.251,-5.337
0.278,0.043,0.255,-5.337
0.292,0.045,0.260,-5.337
0.243,0.047,0.259,-5.337
0.206,0.043,0.257,-5.337
0.202,0.044,0.256,-5.337
0.183,0.043,0.258,-5.337
0.183,0.044,0.261,-5.337
0.239,0.047,0.262,-5.337
0.220,0.048,0.261,-5.337
0.229,0.043,0.264,-5.337
0.226,0.045,0.261,-5.337
0.219,0.048,0.256,-5.337
0.212,0.053,0.253,-5.337
0.253,0.055,0.256,-5.337
0.220,0.055,0.256,-5.337
0.131,0.052,0.257,-5.337
0.138,0.050,0.260,-5.337
0.187,0.050,0.258,-5.337
0.179,0.050,0.256,-5.337
0.136,0.050,0.257,-5.337
0.074,0.050,0.257,-5.337
0.091,0.049,0.256,-5.337
0.145,0.047,0.257,-5.337
0.110,0.048,0.258,-5.337
0.130,0.047,0.257,-5.337
0.179,0.048,0.258,-5.337
0.231,0.050,0.260,-5.337
0.230,0.050,0.259,-5.337
0.229,0.045,0.257,-5.337
0.310,0.041,0.259,-5.337
0.285,0.043,0.259,-5.337
0.235,0.042,0.258,-5.337
0.233,0.047,0.254,-5.337
0.201,0.051,0.253,-5.337
0.209,0.048,0.257,-5.337
0.293,0.046,0.259,-5.337
0.311,0.044,0.258,-5.337
0.296,0.040,0.255,-5.337
0.218,0.042,0.253,-5.337
0.180,0.046,0.253,-5.337
0.184,0.048,0.254,-5.337
0.243,0.047,0.256,-5.337
0.247,0.048,0.258,-5.337
0.154,0.050,0.263,-5.337
0.087,0.052,0.266,-5.337
0.107,0.048,0.262,-5.337
0.156,0.047,0.259,-5.337
0.215,0.047,0.262,-5.337
0.191,0.046,0.263,-5.337
0.182,0.050,0.259,-5.337
0.199,0.048,0.256,-5.337
0.197,0.046,0.257,-5.337
0.218,0.048,0.256,-5.337
0.249,0.048,0.256,-5.337
0.247,0.043,0.257,-5.337
0.257,0.040,0.262,-5.337
0.238,0.040,0.259,-5.337
0.167,0.041,0.256,-5.337
0.148,0.043,0.255,-5.337
0.134,0.044,0.258,-5.337
0.144,0.043,0.263,-5.337
0.187,0.040,0.265,-5.337
0.232,0.040,0.259,-5.337
0.217,0.041,0.257,-5.337
0.158,0.039,0.257,-5.337
0.092,0.042,0.256,-5.337
0.128,0.043,0.255,-5.337
0.204,0.041,0.254,-5.337
0.303,0.038,0.255,-5.337
0.260,0.041,0.258,-5.337
0.171,0.045,0.258,-5.337
0.165,0.046,0.259,-5.337
0.144,0.044,0.259,-5.337
0.119,0.044,0.258,-5.337
0.026,0.043,0.260,-5.337
0.091,0.037,0.264,-5.337
0.177,0.034,0.262,-5.337
0.239,0.032,0.255,-5.337
0.280,0.034,0.253,-5.337
0.236,0.035,0.252,-5.337
0.216,0.034,0.258,-5.337
0.208,0.035,0.262,-5.337
0.137,0.035,0.266,-5.337
0.093,0.037,0.262,-5.337
0.086,0.041,0.255,-5.337
0.090,0.038,0.251,-5.337
0.084,0.039,0.256,-5.337
0.099,0.036,0.258,-5.337
0.198,0.035,0.261,-5.337
0.198,0.040,0.260,-5.337
0.164,0.041,0.257,-5.337
0.083,0.040,0.257,-5.337
0.097,0.041,0.262,-5.337
0.130,0.037,0.260,-5.337
0.137,0.036,0.255,-5.337
0.144,0.034,0.255,-5.337
0.165,0.031,0.255,-5.337
0.147,0.031,0.257,-5.337
0.192,0.030,0.257,-5.337
0.209,0.036,0.259,-5.337
0.208,0.036,0.259,-5.337
0.229,0.037,0.258,-5.337
0.218,0.035,0.252,-5.337
0.169,0.038,0.254,-5.337
0.179,0.036,0.257,-5.337
0.245,0.035,0.261,-5.337
0.213,0.035,0.259,-5.337
0.245,0.038,0.258,-5.337
0.217,0.037,0.259,-5.337
0.110,0.037,0.259,-5.337
0.081,0.038,0.255,-5.337
0.147,0.032,0.252,-5.337
0.213,0.035,0.255,-5.337
0.232,0.036,0.262,-5.337
0.196,0.037,0.265,-5.337
0.192,0.037,0.260,-5.337
0.285,0.034,0.256,-5.337
0.288,0.035,0.250,-5.337
0.263,0.035,0.250,-5.337
0.262,0.033,0.255,-5.337
0.252,0.037,0.262,-5.337
0.241,0.039,0.259,-5.337
0.200,0.037,0.260,-5.337
0.208,0.034,0.260,-5.337
0.238,0.032,0.261,-5.337
0.209,0.037,0.257,-5.337
0.118,0.045,0.252,-5.337
0.127,0.043,0.251,-5.337
0.160,0.039,0.253,-5.337
0.135,0.040,0.256,-5.337
0.127,0.037,0.257,-5.337
0.155,0.037,0.258,-5.337
0.166,0.039,0.258,-5.337
0.129,0.040,0.258,-5.337
0.189,0.039,0.258,-5.337
0.195,0.042,0.256,-5.337
0.160,0.040,0.257,-5.337
0.137,0.038,0.262,-5.337
0.129,0.037,0.266,-5.337
0.117,0.032,0.267,-5.337
0.098,0.033,0.260,-5.337
0.180,0.033,0.256,-5.337
0.186,0.034,0.253,-5.337
0.193,0.038,0.257,-5.337
0.166,0.038,0.257,-5.337
0.161,0.040,0.255,-5.337
0.120,0.040,0.254,-5.337
0.182,0.039,0.259,-5.337
0.220,0.038,0.261,-5.337
0.157,0.038,0.260,-5.337
0.089,0.038,0.259,-5.337
0.100,0.041,0.259,-5.337
0.100,0.040,0.258,-5.337
0.174,0.037,0.259,-5.337
0.139,0.039,0.255,-5.337
0.156,0.039,0.258,-5.337
0.213,0.037,0.259,-5.337
0.260,0.035,0.258,-5.337
0.198,0.037,0.259,-5.337
0.112,0.038,0.261,-5.337
0.139,0.036,0.260,-5.337
0.199,0.035,0.257,-5.337
0.173,0.037,0.257,-5.337
0.113,0.038,0.260,-5.337
0.128,0.035,0.265,-5.337
0.215,0.034,0.263,-5.337
0.181,0.034,0.258,-5.337
0.086,0.034,0.256,-5.337
0.046,0.038,0.258,-5.337
0.097,0.035,0.261,-5.337
0.135,0.032,0.265,-5.337
0.150,0.031,0.265,-5.337
0.167,0.036,0.260,-5.337
0.108,0.036,0.255,-5.337
0.143,0.035,0.255,-5.337
0.164,0.036,0.257,-5.337
0.193,0.034,0.262,-5.337
0.235,0.037,0.260,-5.337
0.161,0.038,0.258,-5.337
0.114,0.037,0.259,-5.337
0.120,0.038,0.259,-5.337
0.158,0.040,0.260,-5.337
0.181,0.040,0.258,-5.337
0.165,0.039,0.257,-5.337
0.202,0.039,0.259,-5.337
0.215,0.040,0.264,-5.337
0.158,0.041,0.267,-5.337
0.094,0.043,0.266,-5.337
0.043,0.044,0.261,-5.337
0.058,0.045,0.260,-5.337
0.076,0.043,0.260,-5.337
0.080,0.042,0.261,-5.337
0.187,0.038,0.262,-5.337
0.269,0.039,0.260,-5.337
0.198,0.041,0.256,-5.337
0.152,0.040,0.258,-5.337
0.173,0.037,0.261,-5.337
0.176,0.038,0.261,-5.337
0.088,0.041,0.260,-5.337
0.037,0.042,0.259,-5.337
0.129,0.039,0.259,-5.337
0.187,0.038,0.259,-5.337
0.146,0.038,0.258,-5.337
0.170,0.034,0.258,-5.337
0.227,0.034,0.260,-5.337
0.253,0.033,0.257,-5.337
0.212,0.035,0.256,-5.337
0.195,0.031,0.256,-5.337
0.205,0.034,0.258,-5.337
0.178,0.037,0.258,-5.337
0.144,0.039,0.256,-5.337
0.141,0.037,0.254,-5.337
0.151,0.036,0.254,-5.337
0.161,0.037,0.254,-5.337
0.161,0.035,0.254,-5.337
0.179,0.035,0.254,-5.337
0.158,0.038,0.256,-5.337
0.142,0.038,0.259,-5.337
0.142,0.039,0.261,-5.337
0.137,0.038,0.260,-5.337
0.132,0.038,0.263,-5.337
0.161,0.039,0.263,-5.337
0.168,0.038,0.261,-5.337
0.172,0.039,0.260,-5.337
0.166,0.042,0.256,-5.337
0.176,0.039,0.256,-5.337
0.222,0.039,0.257,-5.337
0.234,0.038,0.258,-5.337
0.204,0.036,0.259,-5.337
0.220,0.038,0.255,-5.337
0.225,0.041,0.252,-5.337
0.199,0.040,0.254,-5.337
0.165,0.040,0.256,-5.337
0.126,0.043,0.258,-5.337
0.146,0.041,0.255,-5.337
0.125,0.040,0.258,-5.337
0.141,0.039,0.259,-5.337
0.173,0.042,0.257,-5.337
0.145,0.044,0.257,-5.337
0.175,0.042,0.254,-5.337
0.211,0.040,0.250,-5.337
0.217,0.042,0.249,-5.337
0.242,0.042,0.255,-5.337
0.203,0.044,0.260,-5.337
0.109,0.046,0.261,-5.337
0.175,0.044,0.259,-5.337
0.218,0.045,0.257,-5.337
0.162,0.046,0.258,-5.337
0.180,0.048,0.261,-5.337
0.235,0.047,0.259,-5.337
0.296,0.043,0.259,-5.337
0.246,0.043,0.258,-5.337
0.223,0.040,0.258,-5.337
0.194,0.041,0.256,-5.337
0.186,0.041,0.258,-5.337
0.243,0.042,0.257,-5.337
0.171,0.048,0.257,-5.337
0.087,0.047,0.257,-5.337
0.093,0.045,0.255,-5.337
0.104,0.047,0.254,-5.337
0.082,0.051,0.252,-5.337
0.156,0.047,0.254,-5.337
0.238,0.047,0.254,-5.337
0.177,0.048,0.254,-5.337
0.152,0.047,0.257,-5.337
0.188,0.046,0.258,-5.337
0.198,0.043,0.255,-5.337
0.223,0.041,0.253,-5.337
0.275,0.042,0.252,-5.337
0.239,0.044,0.254,-5.337
0.242,0.042,0.260,-5.337
0.222,0.042,0.262,-5.337
0.172,0.045,0.257,-5.337
0.194,0.044,0.257,-5.337
0.162,0.047,0.257,-5.337
0.141,0.049,0.259,-5.337
0.120,0.046,0.261,-5.337
0.121,0.046,0.262,-5.337
0.217,0.046,0.259,-5.337
0.270,0.046,0.258,-5.337
0.195,0.047,0.262,-5.337
0.097,0.052,0.262,-5.337
0.103,0.049,0.258,-5.337
0.182,0.046,0.257,-5.337
0.160,0.049,0.258,-5.337
0.141,0.047,0.257,-5.337
0.183,0.046,0.255,-5.337
0.231,0.045,0.254,-5.337
0.208,0.046,0.255,-5.337
0.121,0.049,0.254,-5.337
0.161,0.050,0.255,-5.337
0.263,0.048,0.255,-5.337
0.242,0.048,0.256,-5.337
0.228,0.051,0.257,-5.337
0.225,0.052,0.261,-5.337
0.222,0.050,0.259,-5.337
0.228,0.048,0.260,-5.337
0.223,0.048,0.261,-5.337
0.224,0.050,0.261,-5.337
0.220,0.050,0.259,-5.337
0.176,0.053,0.262,-5.337
0.223,0.049,0.261,-5.337
0.226,0.052,0.259,-5.337
0.243,0.051,0.253,-5.337
0.222,0.052,0.253,-5.337
0.155,0.049,0.254,-5.337
0.124,0.049,0.254,-5.337
0.151,0.051,0.255,-5.337
0.164,0.048,0.260,-5.337
0.178,0.050,0.260,-5.337
0.182,0.048,0.258,-5.337
0.236,0.046,0.258,-5.337
0.229,0.049,0.258,-5.337
0.194,0.052,0.257,-5.337
0.207,0.050,0.258,-5.337
0.188,0.047,0.259,-5.337
0.208,0.046,0.257,-5.337
0.235,0.049,0.255,-5.337
0.208,0.053,0.254,-5.337
0.190,0.054,0.256,-5.337
0.274,0.052,0.257,-5.337
0.250,0.057,0.254,-5.337
0.192,0.058,0.252,-5.337
0.188,0.060,0.255,-5.337
0.153,0.060,0.257,-5.337
0.108,0.059,0.257,-5.337
0.115,0.059,0.257,-5.337
0.153,0.060,0.260,-5.337
0.166,0.058,0.257,-5.337
0.182,0.056,0.256,-5.337
0.233,0.059,0.257,-5.337
0.295,0.056,0.258,-5.337
0.270,0.057,0.260,-5.337
0.191,0.059,0.259,-5.337
0.178,0.058,0.259,-5.337
0.165,0.056,0.256,-5.337
0.089,0.057,0.257,-5.337
0.126,0.058,0.259,-5.337
0.210,0.056,0.260,-5.337
0.223,0.057,0.258,-5.337
0.188,0.058,0.259,-5.337
0.135,0.059,0.256,-5.337
0.142,0.060,0.254,-5.337
0.179,0.058,0.253,-5.337
0.212,0.058,0.255,-5.337
0.189,0.059,0.254,-5.337
0.145,0.061,0.257,-5.337
0.149,0.058,0.258,-5.337
0.234,0.056,0.260,-5.337
0.254,0.060,0.260,-5.337
0.243,0.063,0.261,-5.337
0.248,0.061,0.260,-5.337
0.274,0.060,0.257,-5.337
0.238,0.059,0.254,-5.337
0.206,0.060,0.255,-5.337
0.193,0.062,0.256,-5.337
0.185,0.062,0.256,-5.337
0.212,0.063,0.258,-5.337
0.215,0.064,0.257,-5.337
0.246,0.062,0.258,-5.337
0.242,0.061,0.253,-5.337
0.242,0.061,0.251,-5.337
0.201,0.061,0.254,-5.337
0.202,0.056,0.260,-5.337
0.259,0.054,0.259,-5.337
0.288,0.056,0.258,-5.337
0.276,0.059,0.256,-5.337
0.220,0.062,0.257,-5.337
0.173,0.059,0.261,-5.337
0.167,0.057,0.260,-5.337
0.170,0.059,0.258,-5.337
0.187,0.059,0.256,-5.337
0.224,0.054,0.253,-5.337
0.243,0.050,0.252,-5.337
0.241,0.053,0.254,-5.337
0.212,0.054,0.259,-5.337
0.206,0.054,0.260,-5.337
0.192,0.058,0.258,-5.337
0.207,0.061,0.261,-5.337
0.179,0.064,0.262,-5.337
0.188,0.063,0.259,-5.337
0.185,0.058,0.254,-5.337
0.150,0.061,0.255,-5.337
0.180,0.059,0.254,-5.337
0.279,0.058,0.257,-5.337
0.259,0.060,0.260,-5.337
0.227,0.061,0.261,-5.337
0.258,0.059,0.258,-5.337
0.265,0.059,0.256,-5.337
0.277,0.060,0.254,-5.337
0.278,0.062,0.252,-5.337
0.268,0.062,0.253,-5.337
0.242,0.060,0.257,-5.337
0.204,0.061,0.257,-5.337
0.205,0.061,0.256,-5.337
0.177,0.063,0.259,-5.337
0.182,0.065,0.260,-5.337
0.226,0.061,0.258,-5.337
0.261,0.061,0.254,-5.337
0.243,0.062,0.253,-5.337
0.239,0.058,0.254,-5.337
0.279,0.056,0.258,-5.337
0.254,0.061,0.256,-5.337
0.236,0.060,0.256,-5.337
0.230,0.059,0.255,-5.337
0.247,0.060,0.255,-5.337
0.278,0.060,0.256,-5.337
0.252,0.060,0.255,-5.337
0.193,0.058,0.256,-5.337
0.217,0.061,0.253,-5.337
0.217,0.061,0.250,-5.337
0.201,0.058,0.256,-5.337
0.154,0.059,0.262,-5.337
0.155,0.056,0.262,-5.337
0.211,0.056,0.258,-5.337
0.193,0.056,0.254,-5.337
0.201,0.054,0.254,-5.337
0.198,0.056,0.257,-5.337
0.183,0.060,0.259,-5.337
0.184,0.058,0.262,-5.337
0.244,0.057,0.262,-5.337
0.275,0.058,0.259,-5.337
0.220,0.058,0.263,-5.337
0.195,0.056,0.264,-5.337
0.242,0.055,0.263,-5.337
0.301,0.057,0.261,-5.337
0.316,0.058,0.262,-5.337
0.287,0.056,0.262,-5.337
0.282,0.055,0.259,-5.337
0.242,0.059,0.258,-5.337
0.220,0.060,0.259,-5.337
0.259,0.058,0.260,-5.337
0.309,0.058,0.260,-5.337
0.289,0.055,0.259,-5.337
0.281,0.053,0.255,-5.337
0.283,0.053,0.250,-5.337
0.309,0.056,0.255,-5.337
0.271,0.059,0.256,-5.337
0.239,0.057,0.256,-5.337
0.203,0.053,0.260,-5.337
0.193,0.055,0.261,-5.337
0.201,0.055,0.262,-5.337
0.252,0.055,0.260,-5.337
0.270,0.055,0.258,-5.337
0.193,0.056,0.255,-5.337
0.109,0.059,0.255,-5.337
0.081,0.061,0.255,-5.337
0.129,0.057,0.260,-5.337
0.242,0.055,0.263,-5.337
0.292,0.055,0.263,-5.337
0.217,0.059,0.259,-5.337
0.178,0.060,0.255,-5.337
0.180,0.059,0.254,-5.337
0.204,0.058,0.257,-5.337
0.260,0.056,0.260,-5.337
0.247,0.058,0.265,-5.337
0.252,0.056,0.268,-5.337
0.230,0.055,0.269,-5.337
0.211,0.054,0.266,-5.337
0.241,0.050,0.260,-5.337
0.269,0.054,0.256,-5.337
0.215,0.055,0.256,-5.337
0.164,0.058,0.257,-5.337
0.170,0.059,0.257,-5.337
0.163,0.061,0.257,-5.337
0.198,0.058,0.256,-5.337
0.170,0.060,0.257,-5.337
0.197,0.060,0.256,-5.337
0.194,0.060,0.257,-5.337
0.231,0.059,0.260,-5.337
0.286,0.058,0.261,-5.337
0.225,0.058,0.257,-5.337
0.272,0.054,0.257,-5.337
0.293,0.054,0.258,-5.337
0.198,0.056,0.258,-5.337
0.200,0.054,0.260,-5.337
0.233,0.055,0.259,-5.337
0.208,0.054,0.260,-5.337
0.215,0.055,0.263,-5.337
0.199,0.057,0.260,-5.337
0.220,0.054,0.255,-5.337
0.282,0.051,0.254,-5.337
0.276,0.053,0.256,-5.337
0.207,0.057,0.258,-5.337
0.165,0.059,0.259,-5.337
0.194,0.059,0.261,-5.337
0.253,0.057,0.259,-5.337
0.234,0.055,0.261,-5.337
0.184,0.055,0.262,-5.337
0.168,0.059,0.262,-5.337
0.137,0.060,0.258,-5.337
0.180,0.057,0.254,-5.337
0.247,0.055,0.250,-5.337
0.265,0.056,0.253,-5.337
0.223,0.054,0.258,-5.337
0.188,0.054,0.261,-5.337
0.153,0.052,0.260,-5.337
0.182,0.054,0.260,-5.337
0.240,0.054,0.258,-5.337
0.265,0.053,0.256,-5.337
0.198,0.054,0.255,-5.337
0.197,0.051,0.257,-5.337
0.184,0.055,0.257,-5.337
0.114,0.058,0.255,-5.337
0.139,0.053,0.256,-5.337
0.166,0.053,0.258,-5.337
0.154,0.052,0.257,-5.337
0.156,0.054,0.256,-5.337
0.181,0.054,0.253,-5.337
0.215,0.051,0.255,-5.337
0.211,0.050,0.260,-5.337
0.259,0.046,0.259,-5.337
0.304,0.048,0.258,-5.337
0.220,0.054,0.257,-5.337
0.117,0.057,0.256,-5.337
0.189,0.048,0.255,-5.337
0.281,0.045,0.257,-5.337
0.299,0.044,0.259,-5.337
0.324,0.046,0.260,-5.337
0.311,0.049,0.263,-5.337
0.261,0.050,0.263,-5.337
0.233,0.048,0.258,-5.337
0.218,0.046,0.252,-5.337
0.205,0.047,0.251,-5.337
0.217,0.047,0.254,-5.337
0.266,0.048,0.259,-5.337
0.217,0.050,0.266,-5.337
0.232,0.049,0.269,-5.337
0.256,0.047,0.259,-5.337
0.242,0.049,0.249,-5.337
0.269,0.048,0.246,-5.337
0.255,0.048,0.252,-5.337
0.242,0.050,0.258,-5.337
0.202,0.053,0.260,-5.337
0.142,0.052,0.256,-5.337
0.145,0.052,0.255,-5.337
0.135,0.048,0.254,-5.337
0.157,0.045,0.258,-5.337
0.160,0.045,0.264,-5.337
0.087,0.048,0.261,-5.337
0.107,0.049,0.254,-5.337
0.130,0.049,0.255,-5.337
0.172,0.048,0.258,-5.337
0.192,0.049,0.260,-5.337
0.185,0.049,0.263,-5.337
0.230,0.048,0.262,-5.337
0.180,0.050,0.260,-5.337
0.160,0.049,0.257,-5.337
0.237,0.044,0.257,-5.337
0.217,0.045,0.261,-5.337
0.218,0.046,0.261,-5.337
0.214,0.046,0.257,-5.337
0.228,0.046,0.254,-5.337
0.223,0.049,0.255,-5.337
0.137,0.050,0.261,-5.337
0.189,0.047,0.260,-5.337
0.258,0.047,0.255,-5.337
0.267,0.046,0.257,-5.337
0.257,0.046,0.260,-5.337
0.244,0.047,0.261,-5.337
0.205,0.049,0.258,-5.337
0.199,0.045,0.257,-5.337
0.291,0.039,0.259,-5.337
0.295,0.039,0.259,-5.337
0.199,0.045,0.256,-5.337
0.157,0.046,0.256,-5.337
0.166,0.046,0.255,-5.337
0.219,0.043,0.255,-5.337
0.230,0.038,0.254,-5.337
0.212,0.039,0.253,-5.337
0.206,0.040,0.256,-5.337
0.177,0.045,0.258,-5.337
0.178,0.048,0.254,-5.337
0.226,0.046,0.255,-5.337
0.184,0.044,0.258,-5.337
0.161,0.045,0.261,-5.337
0.148,0.046,0.260,-5.337
0.109,0.050,0.258,-5.337
0.160,0.048,0.255,-5.337
0.182,0.047,0.255,-5.337
0.122,0.045,0.255,-5.337
0.158,0.045,0.259,-5.337
0.141,0.044,0.263,-5.337
0.151,0.043,0.262,-5.337
0.185,0.042,0.258,-5.337
0.198,0.043,0.257,-5.337
0.113,0.046,0.258,-5.337
0.145,0.048,0.259,-5.337
0.185,0.047,0.256,-5.337
0.220,0.045,0.255,-5.337
0.248,0.048,0.257,-5.337
0.242,0.046,0.255,-5.337
0.260,0.044,0.255,-5.337
0.296,0.045,0.259,-5.337
0.238,0.045,0.259,-5.337
0.220,0.043,0.255,-5.337
0.196,0.044,0.251,-5.337
0.186,0.042,0.250,-5.337
0.195,0.041,0.254,-5.337
0.182,0.042,0.258,-5.337
0.121,0.042,0.258,-5.337
0.126,0.040,0.254,-5.337
0.153,0.037,0.261,-5.337
0.163,0.036,0.266,-5.337
0.145,0.040,0.262,-5.337
0.107,0.042,0.257,-5.337
0.156,0.041,0.260,-5.337
0.116,0.039,0.262,-5.337
0.092,0.039,0.261,-5.337
0.113,0.041,0.259,-5.337
0.156,0.038,0.257,-5.337
0.257,0.038,0.255,-5.337
0.249,0.041,0.251,-5.337
0.148,0.041,0.253,-5.337
0.169,0.039,0.253,-5.337
0.253,0.040,0.254,-5.337
0.205,0.041,0.256,-5.337
0.167,0.041,0.258,-5.337
0.178,0.039,0.260,-5.337
0.176,0.039,0.262,-5.337
0.165,0.039,0.257,-5.337
0.157,0.038,0.254,-5.337
0.170,0.041,0.255,-5.337
0.167,0.041,0.260,-5.337
0.144,0.037,0.260,-5.337
0.162,0.037,0.256,-5.337
0.182,0.034,0.255,-5.337
0.224,0.035,0.258,-5.337
0.205,0.033,0.258,-5.337
0.139,0.036,0.260,-5.337
0.153,0.033,0.261,-5.337
0.207,0.032,0.263,-5.337
0.232,0.035,0.262,-5.337
0.178,0.038,0.259,-5.337
0.141,0.041,0.258,-5.337
0.133,0.042,0.257,-5.337
0.168,0.039,0.256,-5.337
0.186,0.038,0.255,-5.337
0.199,0.037,0.255,-5.337
0.171,0.037,0.254,-5.337
0.149,0.039,0.255,-5.337
0.181,0.039,0.251,-5.337
0.151,0.038,0.252,-5.337
0.141,0.036,0.253,-5.337
0.178,0.036,0.257,-5.337
0.214,0.034,0.258,-5.337
0.188,0.036,0.260,-5.337
0.197,0.038,0.257,-5.337
0.255,0.038,0.254,-5.337
0.245,0.039,0.255,-5.337
0.143,0.040,0.259,-5.337
0.166,0.037,0.256,-5.337
0.244,0.034,0.252,-5.337
0.241,0.035,0.250,-5.337
0.186,0.037,0.254,-5.337
0.114,0.040,0.263,-5.337
0.140,0.036,0.267,-5.337
0.200,0.038,0.266,-5.337
0.147,0.043,0.258,-5.337
0.102,0.048,0.253,-5.337
0.145,0.043,0.250,-5.337
0.200,0.041,0.254,-5.337
0.140,0.044,0.258,-5.337
0.118,0.044,0.265,-5.337
0.170,0.041,0.263,-5.337
0.188,0.042,0.260,-5.337
0.226,0.041,0.258,-5.337
0.252,0.039,0.260,-5.337
0.230,0.040,0.261,-5.337
0.206,0.046,0.261,-5.337
0.226,0.045,0.255,-5.337
0.187,0.042,0.252,-5.337
0.105,0.044,0.255,-5.337
0.129,0.043,0.259,-5.337
0.143,0.046,0.257,-5.337
0.117,0.044,0.258,-5.337
0.158,0.041,0.259,-5.337
0.196,0.038,0.259,-5.337
0.212,0.036,0.257,-5.337
0.193,0.038,0.252,-5.337
0.174,0.041,0.252,-5.337
0.198,0.038,0.254,-5.337
0.227,0.041,0.260,-5.337
0.194,0.041,0.258,-5.337
0.170,0.039,0.257,-5.337
0.184,0.040,0.258,-5.337
0.157,0.045,0.260,-5.337
0.141,0.045,0.258,-5.337
0.171,0.048,0.258,-5.337
0.169,0.047,0.254,-5.337
0.162,0.045,0.254,-5.337
0.179,0.044,0.258,-5.337
0.210,0.044,0.260,-5.337
0.236,0.043,0.260,-5.337
0.163,0.043,0.259,-5.337
0.185,0.042,0.260,-5.337
0.187,0.044,0.264,-5.337
0.172,0.045,0.264,-5.337
0.169,0.045,0.261,-5.337
0.121,0.045,0.259,-5.337
0.158,0.044,0.254,-5.337
0.242,0.044,0.255,-5.337
0.259,0.048,0.256,-5.337
0.234,0.045,0.258,-5.337
0.235,0.041,0.257,-5.337
0.163,0.042,0.259,-5.337
0.178,0.039,0.258,-5.337
0.174,0.039,0.258,-5.337
0.139,0.041,0.254,-5.337
0.169,0.038,0.255,-5.337
0.211,0.039,0.258,-5.337
0.153,0.041,0.256,-5.337
0.074,0.039,0.255,-5.337
0.142,0.034,0.261,-5.337
0.193,0.032,0.263,-5.337
0.101,0.038,0.261,-5.337
0.018,0.044,0.260,-5.337
0.022,0.044,0.263,-5.337
0.101,0.040,0.262,-5.337
0.128,0.039,0.260,-5.337
0.168,0.038,0.261,-5.337
0.211,0.040,0.261,-5.337
0.219,0.043,0.255,-5.337
0.132,0.046,0.256,-5.337
0.088,0.045,0.260,-5.337
0.138,0.040,0.258,-5.337
0.178,0.037,0.260,-5.337
0.270,0.035,0.260,-5.337
0.334,0.035,0.258,-5.337
0.303,0.036,0.258,-5.337
0.228,0.038,0.260,-5.337
0.168,0.039,0.258,-5.337
0.215,0.038,0.258,-5.337
0.188,0.042,0.256,-5.337
0.110,0.048,0.256,-5.337
0.051,0.048,0.257,-5.337
0.121,0.042,0.257,-5.337
0.178,0.040,0.255,-5.337
0.193,0.039,0.254,-5.337
0.213,0.039,0.255,-5.337
0.178,0.040,0.259,-5.337
0.139,0.041,0.263,-5.337
0.207,0.040,0.262,-5.337
0.290,0.038,0.259,-5.337
0.209,0.041,0.258,-5.337
0.110,0.042,0.260,-5.337
0.130,0.039,0.260,-5.337
0.187,0.038,0.260,-5.337
0.163,0.041,0.258,-5.337
0.103,0.043,0.255,-5.337
0.134,0.041,0.250,-5.337
0.192,0.042,0.252,-5.337
0.161,0.043,0.257,-5.337
0.134,0.041,0.261,-5.337
0.122,0.042,0.263,-5.337
0.076,0.044,0.263,-5.337
0.121,0.041,0.259,-5.337
0.212,0.039,0.255,-5.337
0.193,0.042,0.254,-5.337
0.214,0.039,0.255,-5.337
0.234,0.037,0.255,-5.337
0.219,0.039,0.255,-5.337
0.241,0.041,0.255,-5.337
0.214,0.045,0.257,-5.337
0.192,0.044,0.262,-5.337
0.239,0.042,0.262,-5.337
0.188,0.044,0.260,-5.337
0.193,0.046,0.257,-5.337
0.155,0.047,0.255,-5.337
0.138,0.045,0.255,-5.337
0.140,0.045,0.254,-5.337
0.211,0.046,0.251,-5.337
0.227,0.048,0.256,-5.337
0.208,0.046,0.259,-5.337
0.143,0.045,0.259,-5.337
0.175,0.040,0.259,-5.337
0.165,0.045,0.260,-5.337
0.122,0.047,0.257,-5.337
0.126,0.044,0.258,-5.337
0.206,0.040,0.258,-5.337
0.232,0.040,0.253,-5.337
0.174,0.042,0.251,-5.337
0.168,0.041,0.252,-5.337
0.192,0.044,0.254,-5.337
0.187,0.047,0.256,-5.337
0.163,0.048,0.257,-5.337
0.159,0.051,0.257,-5.337
0.159,0.054,0.261,-5.337
0.137,0.054,0.260,-5.337
0.105,0.052,0.260,-5.337
0.127,0.051,0.259,-5.337
0.204,0.050,0.259,-5.337
0.265,0.048,0.255,-5.337
0.188,0.052,0.252,-5.337
0.161,0.048,0.251,-5.337
0.231,0.046,0.255,-5.337
0.242,0.047,0.255,-5.337
0.196,0.050,0.257,-5.337
0.176,0.049,0.257,-5.337
0.209,0.051,0.256,-5.337
0.227,0.049,0.258,-5.337
0.230,0.052,0.258,-5.337
0.224,0.051,0.257,-5.337
0.211,0.050,0.257,-5.337
0.238,0.048,0.257,-5.337
0.263,0.052,0.259,-5.337
0.222,0.053,0.259,-5.337
0.222,0.053,0.257,-5.337
0.236,0.052,0.257,-5.337
0.255,0.051,0.257,-5.337
0.230,0.048,0.256,-5.337
0.201,0.048,0.256,-5.337
0.192,0.049,0.261,-5.337
0.246,0.049,0.261,-5.337
0.297,0.049,0.260,-5.337
0.250,0.051,0.258,-5.337
0.178,0.054,0.257,-5.337
0.168,0.053,0.259,-5.337
0.195,0.056,0.259,-5.337
0.205,0.057,0.256,-5.337
0.196,0.054,0.256,-5.337
0.199,0.053,0.259,-5.337
0.196,0.053,0.259,-5.337
0.220,0.055,0.255,-5.337
0.308,0.052,0.252,-5.337
0.268,0.049,0.250,-5.337
0.253,0.048,0.249,-5.337
0.226,0.054,0.252,-5.337
0.188,0.060,0.256,-5.337
0.145,0.059,0.257,-5.337
0.165,0.056,0.257,-5.337
0.209,0.054,0.263,-5.337
0.284,0.054,0.261,-5.337
0.268,0.054,0.256,-5.337
0.233,0.057,0.250,-5.337
0.171,0.059,0.256,-5.337
0.190,0.054,0.261,-5.337
0.209,0.053,0.261,-5.337
0.140,0.054,0.260,-5.337
0.121,0.056,0.259,-5.337
0.154,0.055,0.254,-5.337
0.165,0.059,0.255,-5.337
0.178,0.059,0.262,-5.337
0.229,0.060,0.265,-5.337
0.205,0.056,0.259,-5.337
0.217,0.055,0.253,-5.337
0.258,0.052,0.254,-5.337
0.283,0.055,0.256,-5.337
0.254,0.060,0.258,-5.337
0.224,0.062,0.256,-5.337
0.238,0.056,0.250,-5.337
0.284,0.053,0.248,-5.337
0.279,0.053,0.252,-5.337
0.240,0.055,0.253,-5.337
0.231,0.057,0.258,-5.337
0.229,0.057,0.260,-5.337
0.266,0.057,0.260,-5.337
0.275,0.059,0.261,-5.337
0.242,0.058,0.259,-5.337
0.245,0.057,0.254,-5.337
0.193,0.059,0.255,-5.337
0.149,0.057,0.255,-5.337
0.163,0.058,0.255,-5.337
0.187,0.060,0.255,-5.337
0.175,0.060,0.255,-5.337
0.213,0.059,0.257,-5.337
0.251,0.058,0.261,-5.337
0.286,0.055,0.260,-5.337
0.231,0.060,0.261,-5.337
0.182,0.059,0.258,-5.337
0.248,0.055,0.257,-5.337
0.281,0.056,0.256,-5.337
0.242,0.056,0.255,-5.337
0.238,0.055,0.257,-5.337
0.242,0.057,0.259,-5.337
0.205,0.059,0.257,-5.337
0.195,0.056,0.251,-5.337
0.213,0.059,0.251,-5.337
0.265,0.060,0.253,-5.337
0.163,0.064,0.259,-5.337
0.091,0.066,0.264,-5.337
0.168,0.068,0.267,-5.337
0.211,0.068,0.262,-5.337
0.240,0.063,0.260,-5.337
0.220,0.058,0.261,-5.337
0.206,0.062,0.259,-5.337
0.187,0.060,0.257,-5.337
0.195,0.056,0.256,-5.337
0.251,0.055,0.257,-5.337
0.311,0.054,0.259,-5.337
0.307,0.057,0.261,-5.337
0.225,0.058,0.257,-5.337
0.117,0.057,0.254,-5.337
0.156,0.054,0.252,-5.337
0.267,0.057,0.253,-5.337
0.272,0.059,0.257,-5.337
0.219,0.061,0.259,-5.337
0.231,0.059,0.257,-5.337
0.241,0.059,0.259,-5.337
0.221,0.063,0.256,-5.337
0.198,0.063,0.253,-5.337
0.174,0.065,0.255,-5.337
0.157,0.064,0.257,-5.337
0.271,0.057,0.257,-5.337
0.285,0.060,0.259,-5.337
0.167,0.061,0.262,-5.337
0.166,0.062,0.261,-5.337
0.270,0.058,0.256,-5.337
0.301,0.061,0.252,-5.337
0.265,0.064,0.254,-5.337
0.246,0.067,0.260,-5.337
0.249,0.063,0.261,-5.337
0.276,0.060,0.256,-5.337
0.205,0.063,0.252,-5.337
0.157,0.062,0.251,-5.337
0.223,0.058,0.252,-5.337
0.254,0.060,0.255,-5.337
0.198,0.058,0.258,-5.337
0.168,0.060,0.258,-5.337
0.275,0.056,0.258,-5.337
0.382,0.053,0.257,-5.337
0.348,0.053,0.260,-5.337
0.278,0.053,0.259,-5.337
0.237,0.059,0.261,-5.337
0.196,0.061,0.262,-5.337
0.252,0.059,0.260,-5.337
0.329,0.056,0.257,-5.337
0.305,0.057,0.258,-5.337
0.213,0.057,0.261,-5.337
0.211,0.059,0.259,-5.337
0.213,0.057,0.255,-5.337
0.152,0.058,0.257,-5.337
0.148,0.058,0.256,-5.337
0.240,0.058,0.253,-5.337
0.261,0.062,0.254,-5.337
0.261,0.063,0.257,-5.337
0.259,0.063,0.257,-5.337
0.250,0.066,0.258,-5.337
0.246,0.064,0.259,-5.337
0.241,0.067,0.259,-5.337
0.201,0.063,0.260,-5.337
0.286,0.055,0.258,-5.337
0.296,0.058,0.262,-5.337
0.238,0.062,0.260,-5.337
0.183,0.066,0.255,-5.337
0.129,0.062,0.252,-5.337
0.148,0.062,0.256,-5.337
0.209,0.058,0.257,-5.337
0.193,0.066,0.255,-5.337
0.155,0.067,0.254,-5.337
0.170,0.064,0.256,-5.337
0.240,0.062,0.256,-5.337
0.252,0.061,0.259,-5.337
0.222,0.061,0.258,-5.337
0.203,0.060,0.255,-5.337
0.210,0.057,0.255,-5.337
0.224,0.056,0.256,-5.337
0.201,0.056,0.260,-5.337
0.196,0.057,0.260,-5.337
0.189,0.058,0.258,-5.337
0.242,0.058,0.259,-5.337
0.253,0.057,0.260,-5.337
0.254,0.054,0.259,-5.337
0.253,0.056,0.258,-5.337
0.263,0.054,0.261,-5.337
0.232,0.055,0.267,-5.337
0.212,0.054,0.265,-5.337
0.238,0.054,0.262,-5.337
0.251,0.050,0.257,-5.337
0.248,0.052,0.254,-5.337
0.236,0.056,0.254,-5.337
0.193,0.059,0.254,-5.337
0.168,0.055,0.254,-5.337
0.209,0.053,0.258,-5.337
0.242,0.055,0.262,-5.337
0.194,0.053,0.264,-5.337
0.253,0.052,0.263,-5.337
0.293,0.051,0.263,-5.337
0.255,0.053,0.261,-5.337
0.226,0.055,0.259,-5.337
0.223,0.050,0.261,-5.337
0.220,0.051,0.260,-5.337
0.185,0.050,0.259,-5.337
0.199,0.048,0.260,-5.337
0.230,0.050,0.263,-5.337
0.259,0.049,0.261,-5.337
0.277,0.051,0.260,-5.337
0.185,0.051,0.257,-5.337
0.136,0.052,0.257,-5.337
0.207,0.051,0.259,-5.337
0.238,0.048,0.259,-5.337
0.205,0.048,0.257,-5.337
0.194,0.048,0.258,-5.337
0.218,0.046,0.262,-5.337
0.217,0.047,0.264,-5.337
0.163,0.049,0.261,-5.337
0.174,0.046,0.256,-5.337
0.275,0.042,0.256,-5.337
0.253,0.046,0.256,-5.337
0.156,0.049,0.259,-5.337
0.172,0.048,0.261,-5.337
0.259,0.047,0.262,-5.337
0.250,0.046,0.260,-5.337
0.165,0.046,0.257,-5.337
0.147,0.042,0.257,-5.337
0.198,0.044,0.258,-5.337
0.217,0.045,0.259,-5.337
0.166,0.044,0.263,-5.337
0.165,0.043,0.261,-5.337
0.172,0.042,0.259,-5.337
0.190,0.042,0.258,-5.337
0.202,0.045,0.260,-5.337
0.217,0.045,0.260,-5.337
0.223,0.044,0.263,-5.337
0.161,0.044,0.265,-5.337
0.180,0.041,0.262,-5.337
0.230,0.043,0.257,-5.337
0.221,0.044,0.254,-5.337
0.213,0.044,0.256,-5.337
0.252,0.045,0.260,-5.337
0.240,0.046,0.263,-5.337
0.180,0.044,0.263,-5.337
0.162,0.045,0.261,-5.337
0.213,0.046,0.258,-5.337
0.276,0.047,0.256,-5.337
0.247,0.045,0.255,-5.337
0.241,0.044,0.258,-5.337
0.226,0.047,0.258,-5.337
0.273,0.046,0.261,-5.337
0.237,0.048,0.258,-5.337
0.208,0.048,0.258,-5.337
0.172,0.045,0.255,-5.337
0.223,0.045,0.256,-5.337
0.304,0.044,0.258,-5.337
0.242,0.043,0.259,-5.337
0.184,0.041,0.255,-5.337
0.218,0.041,0.254,-5.337
0.205,0.040,0.255,-5.337
0.192,0.044,0.259,-5.337
0.211,0.043,0.259,-5.337
0.218,0.044,0.258,-5.337
0.154,0.048,0.262,-5.337
0.155,0.042,0.264,-5.337
0.201,0.042,0.259,-5.337
0.171,0.048,0.258,-5.337
0.169,0.046,0.258,-5.337
0.230,0.041,0.255,-5.337
0.195,0.047,0.255,-5.337
0.145,0.051,0.255,-5.337
0.184,0.046,0.256,-5.337
0.243,0.045,0.256,-5.337
0.217,0.050,0.256,-5.337
0.172,0.051,0.253,-5.337
0.206,0.046,0.253,-5.337
0.236,0.044,0.251,-5.337
0.225,0.045,0.256,-5.337
0.138,0.044,0.260,-5.337
0.144,0.045,0.260,-5.337
0.186,0.044,0.258,-5.337
0.199,0.044,0.259,-5.337
0.223,0.044,0.259,-5.337
0.245,0.042,0.257,-5.337
0.234,0.041,0.257,-5.337
0.239,0.040,0.257,-5.337
0.195,0.042,0.256,-5.337
0.132,0.039,0.258,-5.337
0.207,0.036,0.260,-5.337
0.235,0.035,0.262,-5.337
0.180,0.036,0.262,-5.337
0.122,0.039,0.258,-5.337
0.170,0.039,0.258,-5.337
0.236,0.040,0.255,-5.337
0.175,0.041,0.255,-5.337
0.119,0.041,0.254,-5.337
0.189,0.039,0.257,-5.337
0.205,0.039,0.262,-5.337
0.167,0.043,0.260,-5.337
0.155,0.043,0.258,-5.337
0.142,0.043,0.260,-5.337
0.128,0.040,0.262,-5.337
0.109,0.045,0.259,-5.337
0.096,0.046,0.254,-5.337
0.136,0.045,0.252,-5.337
0.184,0.040,0.255,-5.337
0.297,0.036,0.257,-5.337
0.318,0.034,0.258,-5.337
0.206,0.041,0.258,-5.337
0.154,0.041,0.259,-5.337
0.218,0.038,0.258,-5.337
0.161,0.037,0.257,-5.337
0.170,0.033,0.254,-5.337
0.220,0.031,0.254,-5.337
0.181,0.036,0.254,-5.337
0.152,0.039,0.256,-5.337
0.167,0.040,0.252,-5.337
0.161,0.039,0.254,-5.337
0.130,0.038,0.255,-5.337
0.144,0.040,0.258,-5.337
0.131,0.039,0.255,-5.337
0.153,0.042,0.254,-5.337
0.246,0.036,0.259,-5.337
0.233,0.036,0.262,-5.337
0.208,0.033,0.262,-5.337
0.233,0.033,0.263,-5.337
0.234,0.033,0.259,-5.337
0.200,0.036,0.258,-5.337
0.225,0.036,0.257,-5.337
0.176,0.037,0.257,-5.337
0.153,0.031,0.258,-5.337
0.222,0.030,0.258,-5.337
0.235,0.031,0.256,-5.337
0.230,0.032,0.253,-5.337
0.179,0.034,0.251,-5.337
0.119,0.031,0.255,-5.337
0.148,0.030,0.259,-5.337
0.139,0.027,0.260,-5.337
0.090,0.029,0.262,-5.337
0.095,0.034,0.258,-5.337
0.145,0.031,0.253,-5.337
0.167,0.032,0.252,-5.337
0.112,0.037,0.256,-5.337
0.123,0.035,0.257,-5.337
0.163,0.035,0.259,-5.337
0.216,0.032,0.257,-5.337
0.293,0.032,0.255,-5.337
0.258,0.034,0.256,-5.337
0.203,0.036,0.257,-5.337
0.136,0.042,0.257,-5.337
0.083,0.046,0.258,-5.337
0.128,0.041,0.256,-5.337
0.234,0.039,0.256,-5.337
0.231,0.041,0.255,-5.337
0.151,0.039,0.255,-5.337
0.111,0.038,0.258,-5.337
0.143,0.038,0.256,-5.337
0.155,0.039,0.255,-5.337
0.174,0.039,0.256,-5.337
0.223,0.037,0.258,-5.337
0.193,0.039,0.259,-5.337
0.092,0.039,0.258,-5.337
0.140,0.035,0.255,-5.337
0.240,0.034,0.259,-5.337
0.259,0.038,0.259,-5.337
0.148,0.039,0.259,-5.337
0.142,0.036,0.258,-5.337
0.185,0.034,0.257,-5.337
0.240,0.033,0.260,-5.337
0.251,0.037,0.262,-5.337
0.184,0.035,0.258,-5.337
0.132,0.034,0.254,-5.337
0.175,0.035,0.255,-5.337
0.216,0.035,0.259,-5.337
0.237,0.037,0.263,-5.337
0.185,0.041,0.263,-5.337
0.180,0.041,0.255,-5.337
0.221,0.038,0.250,-5.337
0.178,0.040,0.251,-5.337
0.130,0.038,0.257,-5.337
0.167,0.037,0.261,-5.337
0.153,0.038,0.258,-5.337
0.159,0.039,0.257,-5.337
0.173,0.040,0.262,-5.337
0.118,0.044,0.265,-5.337
0.107,0.041,0.259,-5.337
0.222,0.041,0.254,-5.337
0.285,0.039,0.255,-5.337
0.230,0.044,0.256,-5.337
0.142,0.044,0.257,-5.337
0.145,0.043,0.256,-5.337
0.146,0.041,0.255,-5.337
0.134,0.042,0.257,-5.337
0.114,0.041,0.258,-5.337
0.122,0.040,0.257,-5.337
0.171,0.037,0.256,-5.337
0.181,0.037,0.257,-5.337
0.178,0.044,0.258,-5.337
0.116,0.044,0.257,-5.337
0.148,0.038,0.260,-5.337
0.179,0.037,0.258,-5.337
0.173,0.036,0.255,-5.337
0.186,0.034,0.255,-5.337
0.204,0.035,0.259,-5.337
0.206,0.035,0.260,-5.337
0.160,0.036,0.264,-5.337
0.152,0.040,0.259,-5.337
0.149,0.042,0.254,-5.337
0.134,0.037,0.254,-5.337
0.124,0.035,0.256,-5.337
0.128,0.035,0.258,-5.337
0.191,0.034,0.259,-5.337
0.243,0.030,0.261,-5.337
0.224,0.031,0.263,-5.337
0.147,0.036,0.262,-5.337
0.102,0.040,0.259,-5.337
0.091,0.040,0.257,-5.337
0.160,0.037,0.254,-5.337
0.297,0.029,0.248,-5.337
0.338,0.027,0.251,-5.337
0.266,0.036,0.253,-5.337
0.181,0.043,0.252,-5.337
0.115,0.042,0.258,-5.337
0.100,0.041,0.258,-5.337
0.146,0.040,0.257,-5.337
0.149,0.045,0.256,-5.337
0.106,0.046,0.258,-5.337
0.129,0.041,0.259,-5.337
0.148,0.040,0.258,-5.337
0.182,0.034,0.254,-5.337
0.222,0.034,0.256,-5.337
0.260,0.035,0.261,-5.337
0.262,0.037,0.261,-5.337
0.170,0.040,0.259,-5.337
0.124,0.038,0.258,-5.337
0.149,0.037,0.258,-5.337
0.122,0.039,0.257,-5.337
0.113,0.040,0.255,-5.337
0.187,0.039,0.254,-5.337
0.167,0.041,0.259,-5.337
0.158,0.038,0.261,-5.337
0.162,0.038,0.259,-5.337
0.203,0.040,0.255,-5.337
0.216,0.040,0.259,-5.337
0.223,0.038,0.259,-5.337
0.175,0.037,0.255,-5.337
0.120,0.036,0.254,-5.337
0.152,0.038,0.258,-5.337
0.199,0.036,0.256,-5.337
0.215,0.037,0.253,-5.337
0.223,0.039,0.252,-5.337
0.232,0.041,0.255,-5.337
0.220,0.038,0.260,-5.337
0.192,0.037,0.263,-5.337
0.170,0.037,0.263,-5.337
0.223,0.037,0.264,-5.337
0.164,0.038,0.261,-5.337
0.125,0.041,0.259,-5.337
0.163,0.044,0.259,-5.337
0.148,0.048,0.257,-5.337
0.189,0.043,0.253,-5.337
0.223,0.041,0.255,-5.337
0.236,0.038,0.255,-5.337
0.258,0.042,0.255,-5.337
0.228,0.048,0.258,-5.337
0.180,0.050,0.259,-5.337
0.210,0.046,0.257,-5.337
0.275,0.044,0.258,-5.337
0.287,0.043,0.259,-5.337
0.322,0.040,0.258,-5.337
0.310,0.042,0.260,-5.337
0.218,0.044,0.259,-5.337
0.156,0.048,0.258,-5.337
0.126,0.048,0.260,-5.337
0.200,0.045,0.261,-5.337
0.204,0.048,0.259,-5.337
0.142,0.049,0.259,-5.337
0.127,0.050,0.261,-5.337
0.168,0.045,0.263,-5.337
0.131,0.046,0.262,-5.337
0.175,0.044,0.261,-5.337
0.253,0.042,0.258,-5.337
0.234,0.042,0.254,-5.337
0.194,0.040,0.251,-5.337
0.217,0.041,0.258,-5.337
0.207,0.041,0.265,-5.337
0.219,0.042,0.265,-5.337
0.250,0.043,0.261,-5.337
0.215,0.042,0.257,-5.337
0.198,0.044,0.259,-5.337
0.134,0.042,0.259,-5.337
0.111,0.042,0.259,-5.337
0.139,0.043,0.256,-5.337
0.175,0.045,0.256,-5.337
0.138,0.049,0.258,-5.337
0.130,0.050,0.261,-5.337
0.131,0.052,0.261,-5.337
0.160,0.051,0.261,-5.337
0.245,0.046,0.259,-5.337
0.230,0.049,0.263,-5.337
0.197,0.053,0.262,-5.337
0.256,0.048,0.261,-5.337
0.223,0.047,0.259,-5.337
0.167,0.051,0.259,-5.337
0.148,0.053,0.258,-5.337
0.185,0.051,0.257,-5.337
0.213,0.053,0.260,-5.337
0.235,0.052,0.262,-5.337
0.235,0.049,0.265,-5.337
0.227,0.045,0.262,-5.337
0.174,0.048,0.257,-5.337
0.117,0.052,0.254,-5.337
0.114,0.052,0.254,-5.337
0.119,0.052,0.251,-5.337
0.192,0.052,0.255,-5.337
0.222,0.053,0.257,-5.337
0.227,0.047,0.258,-5.337
0.251,0.050,0.257,-5.337
0.220,0.051,0.258,-5.337
0.149,0.053,0.258,-5.337
0.140,0.055,0.258,-5.337
0.215,0.054,0.254,-5.337
0.257,0.049,0.253,-5.337
0.223,0.049,0.256,-5.337
0.159,0.050,0.258,-5.337
0.135,0.052,0.261,-5.337
0.178,0.053,0.263,-5.337
0.192,0.051,0.264,-5.337
0.177,0.047,0.262,-5.337
0.212,0.047,0.262,-5.337
0.190,0.050,0.258,-5.337
0.172,0.052,0.258,-5.337
0.208,0.055,0.257,-5.337
0.222,0.051,0.256,-5.337
0.210,0.050,0.254,-5.337
0.152,0.054,0.255,-5.337
0.117,0.057,0.250,-5.337
0.142,0.055,0.251,-5.337
0.151,0.050,0.255,-5.337
0.141,0.052,0.259,-5.337
0.160,0.050,0.262,-5.337
0.146,0.053,0.263,-5.337
0.152,0.054,0.262,-5.337
0.205,0.052,0.262,-5.337
0.237,0.052,0.262,-5.337
0.202,0.058,0.259,-5.337
0.137,0.061,0.255,-5.337
0.132,0.058,0.255,-5.337
0.186,0.055,0.254,-5.337
0.193,0.055,0.255,-5.337
0.231,0.053,0.256,-5.337
0.274,0.050,0.253,-5.337
0.290,0.052,0.252,-5.337
0.270,0.051,0.254,-5.337
0.305,0.051,0.259,-5.337
0.286,0.050,0.259,-5.337
0.238,0.054,0.257,-5.337
0.234,0.058,0.258,-5.337
0.185,0.057,0.261,-5.337
0.173,0.056,0.262,-5.337
0.224,0.055,0.261,-5.337
0.253,0.055,0.260,-5.337
0.199,0.055,0.257,-5.337
0.177,0.055,0.254,-5.337
0.166,0.057,0.254,-5.337
0.206,0.056,0.258,-5.337
0.192,0.059,0.262,-5.337
0.217,0.054,0.261,-5.337
0.217,0.053,0.255,-5.337
0.150,0.054,0.253,-5.337
0.071,0.056,0.257,-5.337
0.081,0.056,0.262,-5.337
0.200,0.049,0.262,-5.337
0.264,0.046,0.260,-5.337
0.221,0.051,0.256,-5.337
0.140,0.055,0.256,-5.337
0.130,0.054,0.253,-5.337
0.144,0.054,0.253,-5.337
0.187,0.050,0.251,-5.337
0.217,0.051,0.252,-5.337
0.183,0.054,0.252,-5.337
0.196,0.055,0.256,-5.337
0.242,0.053,0.262,-5.337
0.202,0.055,0.264,-5.337
0.178,0.053,0.262,-5.337
0.226,0.054,0.261,-5.337
0.182,0.053,0.257,-5.337
0.140,0.053,0.255,-5.337
0.158,0.055,0.253,-5.337
0.214,0.059,0.259,-5.337
0.240,0.060,0.258,-5.337
0.264,0.055,0.256,-5.337
0.263,0.054,0.256,-5.337
0.240,0.055,0.256,-5.337
0.262,0.054,0.258,-5.337
0.288,0.056,0.259,-5.337
0.258,0.055,0.259,-5.337
0.226,0.054,0.258,-5.337
0.228,0.055,0.255,-5.337
0.203,0.059,0.251,-5.337
0.144,0.061,0.256,-5.337
0.174,0.058,0.259,-5.337
0.179,0.059,0.260,-5.337
0.212,0.057,0.258,-5.337
0.227,0.057,0.257,-5.337
0.212,0.058,0.255,-5.337
0.246,0.058,0.256,-5.337
0.273,0.056,0.256,-5.337
0.279,0.054,0.259,-5.337
0.227,0.058,0.260,-5.337
0.196,0.058,0.258,-5.337
0.241,0.059,0.257,-5.337
0.252,0.059,0.258,-5.337
0.197,0.058,0.261,-5.337
0.190,0.058,0.260,-5.337
0.210,0.059,0.258,-5.337
0.289,0.055,0.256,-5.337
0.306,0.060,0.258,-5.337
0.246,0.061,0.257,-5.337
0.193,0.060,0.257,-5.337
0.197,0.061,0.254,-5.337
0.257,0.065,0.254,-5.337
0.213,0.063,0.256,-5.337
0.203,0.063,0.258,-5.337
0.184,0.063,0.257,-5.337
0.161,0.064,0.257,-5.337
0.143,0.065,0.255,-5.337
0.173,0.063,0.258,-5.337
0.154,0.066,0.257,-5.337
0.164,0.068,0.258,-5.337
0.250,0.065,0.259,-5.337
0.306,0.063,0.261,-5.337
0.318,0.059,0.258,-5.337
0.257,0.063,0.254,-5.337
0.182,0.066,0.255,-5.337
0.179,0.062,0.257,-5.337
0.272,0.057,0.254,-5.337
0.295,0.056,0.253,-5.337
0.278,0.055,0.258,-5.337
0.246,0.055,0.262,-5.337
0.205,0.061,0.264,-5.337
0.210,0.062,0.261,-5.337
0.245,0.062,0.259,-5.337
0.220,0.063,0.259,-5.337
0.215,0.059,0.257,-5.337
0.244,0.054,0.252,-5.337
0.255,0.057,0.254,-5.337
0.233,0.057,0.256,-5.337
0.232,0.056,0.260,-5.337
0.277,0.058,0.263,-5.337
0.274,0.062,0.264,-5.337
0.244,0.059,0.259,-5.337
0.229,0.060,0.255,-5.337
0.265,0.060,0.255,-5.337
0.213,0.061,0.255,-5.337
0.222,0.058,0.258,-5.337
0.283,0.059,0.259,-5.337
0.254,0.063,0.261,-5.337
0.171,0.064,0.259,-5.337
0.172,0.062,0.256,-5.337
0.241,0.060,0.255,-5.337
0.223,0.061,0.257,-5.337
0.220,0.061,0.260,-5.337
0.218,0.064,0.263,-5.337
0.183,0.062,0.261,-5.337
0.179,0.059,0.259,-5.337
0.197,0.060,0.252,-5.337
0.190,0.065,0.251,-5.337
0.185,0.063,0.256,-5.337
0.188,0.061,0.260,-5.337
0.210,0.059,0.258,-5.337
0.260,0.055,0.256,-5.337
0.269,0.053,0.255,-5.337
0.268,0.053,0.256,-5.337
0.273,0.057,0.257,-5.337
0.230,0.063,0.255,-5.337
0.193,0.062,0.257,-5.337
0.226,0.057,0.258,-5.337
0.245,0.058,0.257,-5.337
0.192,0.060,0.257,-5.337
0.215,0.060,0.261,-5.337
0.202,0.060,0.261,-5.337
0.165,0.063,0.261,-5.337
0.169,0.064,0.259,-5.337
0.204,0.060,0.261,-5.337
0.278,0.059,0.259,-5.337
0.259,0.062,0.257,-5.337
0.187,0.064,0.255,-5.337
0.189,0.064,0.254,-5.337
0.168,0.063,0.253,-5.337
0.163,0.061,0.256,-5.337
0.229,0.062,0.258,-5.337
0.224,0.064,0.260,-5.337
0.212,0.062,0.258,-5.337
0.260,0.058,0.254,-5.337
0.318,0.053,0.254,-5.337
0.330,0.050,0.258,-5.337
0.304,0.052,0.259,-5.337
0.196,0.056,0.258,-5.337
0.127,0.056,0.261,-5.337
0.204,0.054,0.259,-5.337
0.264,0.056,0.260,-5.337
0.206,0.056,0.262,-5.337
0.138,0.054,0.261,-5.337
0.174,0.050,0.257,-5.337
