[Parameters]
Operating Mode, Feedback
Subject  AA..ZZ, WT
Session  0..99, 44
No. Trials (1..9999), 500
Mouse Number, 1
Pressure Probe Serial Port, \00\00\00\04COM4
Save additional csv file, TRUE
Save using mouse number, FALSE
A/D Monitor Rate (Hz), 30000.000000
A/D Stimulate Rate (Hz), 30000.000000
A/D input range (+/- V), 5
No. Channels to acquire (N), 2
Pre-Stim Acq. time (ms), 100.000000
Post-Stim Acq. time (ms), 900.000000
Analysis window parameters.M-response Start (ms), 1.100000
Analysis window parameters.M-response Duration (ms), 5.500000
Analysis window parameters.H-response Duration (ms), 6.000000
Analysis window parameters.H-response Start (ms), 6.500000
Feedback window, H response
Proportional gain, 0.100000
Target value, 6.700000
Feedback Ch., 1
Stim Channel to Control (1-4), 4
Trial, 23
Wait for EMG Conditions, FALSE
Channel to monitor (0 - N-1), 1
EMG Hi Limit, 2.000000
EMG Lo Limit, 0.001000
Inter-Stim delay (sec), 10.000000
EMG Monitor Mode, Mean
Time to run Long Stim.(sec), 30
Save Long Stim Data?, OFF
BURST Save time (ms), 1000
BURST Save Interval (x above), 10
Long-Stim. Rep. Rate (Hz), 10.000000
Stim type cluster array.<size(s)>, 4
Stim type cluster array 0.Stimulus Output, Electrical
Stim type cluster array 1.Stimulus Output, OFF
Stim type cluster array 2.Stimulus Output, OFF
Stim type cluster array 3.Stimulus Output, Motor Length
Stim specs cluster array.<size(s)>, 4
Stim specs cluster array 0.Initial Stimulus ampl., 0.300000
Stim specs cluster array 0.Maximum Stimulus, 1.120000
Stim specs cluster array 0.#Pulses in train, 4
Stim specs cluster array 0.Peak Level time (ms), 1.000000
Stim specs cluster array 0.Total pulse period (ms), 150.000000
Stim specs cluster array 0.Start Delay (ms), -50.000000
Stim specs cluster array 0.Pulse Shape, Square
Stim specs cluster array 0.Ramp/Rel. time (ms), 0.100000
Stim specs cluster array 0.Peak Amplitude (V), 0.120000
Stim specs cluster array 1.Initial Stimulus ampl., 0.000000
Stim specs cluster array 1.Maximum Stimulus, 0.000000
Stim specs cluster array 1.#Pulses in train, 3
Stim specs cluster array 1.Peak Level time (ms), 29.000000
Stim specs cluster array 1.Total pulse period (ms), 200.000000
Stim specs cluster array 1.Start Delay (ms), 0.000000
Stim specs cluster array 1.Pulse Shape, Square
Stim specs cluster array 1.Ramp/Rel. time (ms), 0.000000
Stim specs cluster array 1.Peak Amplitude (V), 2.000000
Stim specs cluster array 2.Initial Stimulus ampl., 0.000000
Stim specs cluster array 2.Maximum Stimulus, 0.000000
Stim specs cluster array 2.#Pulses in train, 1
Stim specs cluster array 2.Peak Level time (ms), 25.000000
Stim specs cluster array 2.Total pulse period (ms), 200.000000
Stim specs cluster array 2.Start Delay (ms), 0.000000
Stim specs cluster array 2.Pulse Shape, Square
Stim specs cluster array 2.Ramp/Rel. time (ms), 20.000000
Stim specs cluster array 2.Peak Amplitude (V), 10.000000
Stim specs cluster array 3.Initial Stimulus ampl., 0.000000
Stim specs cluster array 3.Maximum Stimulus, 15.000000
Stim specs cluster array 3.#Pulses in train, 25
Stim specs cluster array 3.Peak Level time (ms), 0.100000
Stim specs cluster array 3.Total pulse period (ms), 4.000000
Stim specs cluster array 3.Start Delay (ms), 205.000000
Stim specs cluster array 3.Pulse Shape, Triangle
Stim specs cluster array 3.Ramp/Rel. time (ms), 3.000000
Stim specs cluster array 3.Peak Amplitude (V), 0.500000
Force cal. (mN/Volt), 100.000000
Force Range (mN), 100.000000
Length cal. (mm/Volt), 10.000000
Length Range (mm), 10.000000
Stim. 1, 0.300000
Stim. 2, 0.000000
Stim. 3, 0.000000
Stim. 4, 0.000000
Monitor acquire time (ms), 100.000000
EMG graph Ymax, 0.100000
Travel limit (mm), 20.000000
Use Pressure Probe, FALSE
Pressure goal (g), 100
Speed (mm/sec), 5.000000
Dwell time (ms), 100.000000
Pressure limit (g), 500.000000
Channel amplitude offset, 0.000000

[DATA]

0.064,0.058,0.313,-5.337
0.100,0.057,0.314,-5.337
0.189,0.060,0.310,-5.337
0.208,0.057,0.303,-5.337
0.178,0.056,0.304,-5.337
0.152,0.058,0.311,-5.337
0.129,0.059,0.315,-5.337
0.154,0.058,0.314,-5.337
0.208,0.056,0.312,-5.337
0.180,0.059,0.311,-5.337
0.157,0.059,0.311,-5.337
0.117,0.061,0.313,-5.337
0.083,0.066,0.310,-5.337
0.110,0.066,0.307,-5.337
0.105,0.066,0.307,-5.337
0.077,0.069,0.311,-5.337
0.086,0.064,0.311,-5.337
0.142,0.061,0.312,-5.337
0.146,0.059,0.311,-5.337
0.167,0.064,0.312,-5.337
0.179,0.062,0.311,-5.337
0.194,0.061,0.310,-5.337
0.157,0.062,0.313,-5.337
0.096,0.065,0.315,-5.337
0.094,0.060,0.312,-5.337
0.152,0.058,0.310,-5.337
0.110,0.063,0.305,-5.337
0.021,0.066,0.306,-5.337
0.018,0.065,0.306,-5.337
0.100,0.064,0.306,-5.337
0.162,0.061,0.308,-5.337
0.160,0.058,0.309,-5.337
0.160,0.061,0.310,-5.337
0.126,0.063,0.309,-5.337
0.124,0.065,0.311,-5.337
0.099,0.062,0.313,-5.337
0.144,0.056,0.315,-5.337
0.181,0.055,0.316,-5.337
0.145,0.060,0.314,-5.337
0.123,0.058,0.305,-5.337
0.123,0.060,0.301,-5.337
0.129,0.059,0.301,-5.337
0.126,0.058,0.305,-5.337
0.139,0.057,0.310,-5.337
0.212,0.055,0.313,-5.337
0.167,0.058,0.313,-5.337
0.127,0.060,0.312,-5.337
0.121,0.057,0.310,-5.337
0.088,0.057,0.311,-5.337
0.077,0.060,0.313,-5.337
0.070,0.064,0.314,-5.337
0.099,0.063,0.311,-5.337
0.136,0.059,0.306,-5.337
0.215,0.056,0.307,-5.337
0.237,0.056,0.310,-5.337
0.148,0.059,0.313,-5.337
0.129,0.058,0.312,-5.337
0.169,0.058,0.308,-5.337
0.223,0.056,0.304,-5.337
0.205,0.059,0.305,-5.337
0.175,0.059,0.311,-5.337
0.161,0.061,0.316,-5.337
0.114,0.060,0.314,-5.337
0.124,0.055,0.309,-5.337
0.134,0.056,0.308,-5.337
0.084,0.061,0.308,-5.337
0.091,0.058,0.305,-5.337
0.148,0.056,0.304,-5.337
0.207,0.056,0.306,-5.337
0.210,0.057,0.307,-5.337
0.145,0.057,0.309,-5.337
0.114,0.054,0.308,-5.337
0.118,0.057,0.308,-5.337
0.112,0.060,0.309,-5.337
0.117,0.058,0.313,-5.337
0.046,0.058,0.310,-5.337
0.033,0.056,0.305,-5.337
0.082,0.055,0.305,-5.337
0.092,0.059,0.310,-5.337
0.059,0.060,0.309,-5.337
0.094,0.057,0.309,-5.337
0.155,0.054,0.308,-5.337
0.104,0.057,0.309,-5.337
0.077,0.057,0.306,-5.337
0.167,0.056,0.305,-5.337
0.175,0.054,0.306,-5.337
0.181,0.052,0.309,-5.337
0.176,0.054,0.309,-5.337
0.161,0.058,0.309,-5.337
0.148,0.057,0.313,-5.337
0.173,0.052,0.315,-5.337
0.248,0.053,0.314,-5.337
0.159,0.057,0.311,-5.337
0.108,0.055,0.310,-5.337
0.109,0.054,0.310,-5.337
0.129,0.049,0.304,-5.337
0.152,0.048,0.305,-5.337
0.134,0.050,0.307,-5.337
0.078,0.051,0.305,-5.337
0.084,0.052,0.308,-5.337
0.172,0.050,0.310,-5.337
0.212,0.049,0.311,-5.337
0.243,0.047,0.308,-5.337
0.249,0.049,0.308,-5.337
0.154,0.050,0.309,-5.337
0.091,0.054,0.312,-5.337
0.122,0.052,0.309,-5.337
0.201,0.048,0.306,-5.337
0.161,0.049,0.306,-5.337
0.142,0.049,0.308,-5.337
0.197,0.045,0.312,-5.337
0.218,0.046,0.313,-5.337
0.192,0.044,0.307,-5.337
0.158,0.043,0.300,-5.337
0.130,0.044,0.302,-5.337
0.192,0.044,0.309,-5.337
0.152,0.049,0.313,-5.337
0.112,0.049,0.316,-5.337
0.116,0.053,0.313,-5.337
0.188,0.053,0.313,-5.337
0.228,0.051,0.314,-5.337
0.228,0.051,0.310,-5.337
0.176,0.052,0.309,-5.337
0.165,0.051,0.306,-5.337
0.174,0.050,0.307,-5.337
0.223,0.049,0.310,-5.337
0.242,0.050,0.311,-5.337
0.165,0.051,0.311,-5.337
0.149,0.050,0.310,-5.337
0.153,0.049,0.309,-5.337
0.217,0.048,0.307,-5.337
0.214,0.049,0.302,-5.337
0.174,0.047,0.307,-5.337
0.154,0.045,0.309,-5.337
0.194,0.041,0.312,-5.337
0.188,0.045,0.310,-5.337
0.112,0.049,0.308,-5.337
0.129,0.048,0.309,-5.337
0.180,0.046,0.310,-5.337
0.227,0.046,0.309,-5.337
0.220,0.049,0.310,-5.337
0.218,0.050,0.312,-5.337
0.233,0.046,0.315,-5.337
0.181,0.046,0.315,-5.337
0.136,0.045,0.312,-5.337
0.122,0.050,0.309,-5.337
0.099,0.049,0.306,-5.337
0.108,0.052,0.308,-5.337
0.083,0.050,0.308,-5.337
0.127,0.046,0.307,-5.337
0.201,0.044,0.306,-5.337
0.185,0.049,0.308,-5.337
0.152,0.047,0.307,-5.337
0.201,0.044,0.310,-5.337
0.169,0.046,0.310,-5.337
0.143,0.045,0.309,-5.337
0.153,0.045,0.308,-5.337
0.144,0.047,0.306,-5.337
0.185,0.048,0.307,-5.337
0.198,0.048,0.312,-5.337
0.179,0.045,0.313,-5.337
0.175,0.045,0.312,-5.337
0.176,0.048,0.313,-5.337
0.208,0.045,0.312,-5.337
0.243,0.042,0.311,-5.337
0.226,0.040,0.309,-5.337
0.193,0.042,0.307,-5.337
0.202,0.039,0.306,-5.337
0.202,0.040,0.307,-5.337
0.194,0.041,0.311,-5.337
0.165,0.042,0.312,-5.337
0.219,0.039,0.312,-5.337
0.301,0.037,0.313,-5.337
0.261,0.041,0.311,-5.337
0.187,0.042,0.312,-5.337
0.197,0.042,0.311,-5.337
0.179,0.041,0.311,-5.337
0.163,0.044,0.308,-5.337
0.191,0.046,0.306,-5.337
0.190,0.045,0.313,-5.337
0.184,0.047,0.317,-5.337
0.166,0.051,0.314,-5.337
0.177,0.052,0.312,-5.337
0.173,0.049,0.312,-5.337
0.190,0.044,0.310,-5.337
0.183,0.043,0.308,-5.337
0.232,0.044,0.311,-5.337
0.239,0.046,0.314,-5.337
0.190,0.046,0.315,-5.337
0.201,0.045,0.316,-5.337
0.269,0.042,0.312,-5.337
0.226,0.046,0.309,-5.337
0.141,0.049,0.310,-5.337
0.103,0.050,0.311,-5.337
0.169,0.049,0.309,-5.337
0.132,0.049,0.308,-5.337
0.195,0.042,0.309,-5.337
0.239,0.042,0.306,-5.337
0.229,0.042,0.304,-5.337
0.199,0.046,0.306,-5.337
0.209,0.047,0.307,-5.337
0.238,0.049,0.309,-5.337
0.300,0.049,0.313,-5.337
0.317,0.046,0.317,-5.337
0.327,0.040,0.319,-5.337
0.308,0.040,0.316,-5.337
0.282,0.048,0.311,-5.337
0.247,0.051,0.309,-5.337
0.233,0.053,0.311,-5.337
0.204,0.049,0.308,-5.337
0.193,0.050,0.310,-5.337
0.111,0.054,0.316,-5.337
0.081,0.054,0.314,-5.337
0.104,0.051,0.309,-5.337
0.164,0.050,0.310,-5.337
0.204,0.048,0.311,-5.337
0.193,0.046,0.311,-5.337
0.223,0.045,0.312,-5.337
0.280,0.046,0.313,-5.337
0.259,0.047,0.313,-5.337
0.242,0.046,0.316,-5.337
0.246,0.045,0.315,-5.337
0.279,0.043,0.311,-5.337
0.243,0.044,0.307,-5.337
0.203,0.044,0.304,-5.337
0.185,0.043,0.304,-5.337
0.214,0.045,0.305,-5.337
0.191,0.046,0.309,-5.337
0.204,0.040,0.313,-5.337
0.221,0.041,0.318,-5.337
0.253,0.043,0.316,-5.337
0.242,0.048,0.312,-5.337
0.210,0.048,0.307,-5.337
0.169,0.049,0.306,-5.337
0.155,0.050,0.305,-5.337
0.212,0.052,0.310,-5.337
0.306,0.045,0.310,-5.337
0.287,0.047,0.308,-5.337
0.215,0.044,0.306,-5.337
0.169,0.043,0.309,-5.337
0.190,0.044,0.314,-5.337
0.212,0.045,0.313,-5.337
0.213,0.046,0.312,-5.337
0.237,0.047,0.309,-5.337
0.221,0.048,0.307,-5.337
0.227,0.049,0.311,-5.337
0.215,0.048,0.310,-5.337
0.178,0.047,0.308,-5.337
0.202,0.051,0.306,-5.337
0.285,0.048,0.307,-5.337
0.271,0.047,0.310,-5.337
0.229,0.044,0.311,-5.337
0.211,0.044,0.313,-5.337
0.216,0.045,0.310,-5.337
0.216,0.045,0.307,-5.337
0.174,0.047,0.309,-5.337
0.115,0.050,0.316,-5.337
0.139,0.048,0.315,-5.337
0.229,0.044,0.308,-5.337
0.181,0.046,0.302,-5.337
0.178,0.048,0.304,-5.337
0.249,0.045,0.308,-5.337
0.285,0.042,0.311,-5.337
0.278,0.039,0.311,-5.337
0.262,0.038,0.308,-5.337
0.314,0.037,0.305,-5.337
0.344,0.035,0.306,-5.337
0.280,0.036,0.309,-5.337
0.249,0.040,0.310,-5.337
0.266,0.039,0.311,-5.337
0.292,0.036,0.308,-5.337
0.214,0.038,0.308,-5.337
0.146,0.038,0.308,-5.337
0.215,0.035,0.310,-5.337
0.251,0.039,0.306,-5.337
0.195,0.038,0.304,-5.337
0.235,0.034,0.304,-5.337
0.299,0.035,0.313,-5.337
0.234,0.035,0.316,-5.337
0.188,0.037,0.315,-5.337
0.116,0.040,0.309,-5.337
0.143,0.036,0.307,-5.337
0.182,0.038,0.307,-5.337
0.244,0.035,0.304,-5.337
0.266,0.033,0.308,-5.337
0.240,0.037,0.313,-5.337
0.282,0.031,0.310,-5.337
0.314,0.030,0.305,-5.337
0.271,0.037,0.303,-5.337
0.178,0.038,0.303,-5.337
0.153,0.038,0.306,-5.337
0.186,0.033,0.313,-5.337
0.198,0.033,0.314,-5.337
0.195,0.036,0.309,-5.337
0.242,0.038,0.309,-5.337
0.239,0.041,0.306,-5.337
0.193,0.043,0.309,-5.337
0.204,0.040,0.308,-5.337
0.264,0.039,0.309,-5.337
0.248,0.040,0.310,-5.337
0.209,0.041,0.307,-5.337
0.172,0.038,0.306,-5.337
0.168,0.038,0.304,-5.337
0.171,0.036,0.304,-5.337
0.219,0.036,0.310,-5.337
0.239,0.037,0.308,-5.337
0.236,0.037,0.304,-5.337
0.230,0.037,0.306,-5.337
0.248,0.035,0.308,-5.337
0.257,0.034,0.309,-5.337
0.290,0.033,0.310,-5.337
0.289,0.035,0.308,-5.337
0.159,0.037,0.309,-5.337
0.190,0.035,0.311,-5.337
0.316,0.035,0.311,-5.337
0.351,0.037,0.309,-5.337
0.332,0.036,0.305,-5.337
0.265,0.034,0.303,-5.337
0.257,0.033,0.308,-5.337
0.265,0.035,0.315,-5.337
0.271,0.035,0.311,-5.337
0.229,0.039,0.305,-5.337
0.192,0.040,0.304,-5.337
0.239,0.041,0.306,-5.337
0.257,0.039,0.309,-5.337
0.253,0.037,0.311,-5.337
0.274,0.039,0.310,-5.337
0.243,0.042,0.309,-5.337
0.247,0.040,0.308,-5.337
0.186,0.042,0.307,-5.337
0.132,0.040,0.307,-5.337
0.158,0.040,0.305,-5.337
0.243,0.041,0.307,-5.337
0.281,0.042,0.311,-5.337
0.250,0.042,0.314,-5.337
0.250,0.039,0.311,-5.337
0.292,0.038,0.305,-5.337
0.335,0.038,0.303,-5.337
0.334,0.039,0.300,-5.337
0.291,0.038,0.303,-5.337
0.270,0.041,0.304,-5.337
0.227,0.042,0.305,-5.337
0.192,0.044,0.312,-5.337
0.203,0.041,0.310,-5.337
0.226,0.040,0.308,-5.337
0.198,0.045,0.306,-5.337
0.180,0.047,0.307,-5.337
0.166,0.044,0.307,-5.337
0.220,0.042,0.307,-5.337
0.218,0.043,0.307,-5.337
0.157,0.046,0.307,-5.337
0.141,0.043,0.306,-5.337
0.181,0.040,0.307,-5.337
0.222,0.043,0.310,-5.337
0.212,0.049,0.309,-5.337
0.270,0.046,0.305,-5.337
0.295,0.038,0.304,-5.337
0.235,0.039,0.303,-5.337
0.141,0.047,0.308,-5.337
0.132,0.047,0.315,-5.337
0.197,0.044,0.316,-5.337
0.175,0.043,0.315,-5.337
0.162,0.047,0.311,-5.337
0.197,0.046,0.308,-5.337
0.170,0.048,0.306,-5.337
0.181,0.045,0.305,-5.337
0.147,0.044,0.304,-5.337
0.159,0.044,0.302,-5.337
0.188,0.042,0.303,-5.337
0.137,0.046,0.309,-5.337
0.112,0.046,0.312,-5.337
0.118,0.047,0.311,-5.337
0.150,0.047,0.309,-5.337
0.177,0.045,0.307,-5.337
0.240,0.039,0.307,-5.337
0.267,0.040,0.308,-5.337
0.218,0.045,0.308,-5.337
0.167,0.047,0.309,-5.337
0.161,0.049,0.305,-5.337
0.174,0.048,0.307,-5.337
0.154,0.050,0.308,-5.337
0.166,0.051,0.307,-5.337
0.194,0.047,0.307,-5.337
0.129,0.046,0.305,-5.337
0.166,0.047,0.308,-5.337
0.215,0.043,0.311,-5.337
0.210,0.045,0.309,-5.337
0.179,0.046,0.303,-5.337
0.138,0.052,0.303,-5.337
0.104,0.052,0.305,-5.337
0.175,0.052,0.310,-5.337
0.181,0.053,0.310,-5.337
0.116,0.052,0.307,-5.337
0.152,0.047,0.306,-5.337
0.218,0.045,0.305,-5.337
0.246,0.045,0.303,-5.337
0.220,0.046,0.304,-5.337
0.207,0.049,0.302,-5.337
0.207,0.045,0.305,-5.337
0.235,0.044,0.309,-5.337
0.218,0.047,0.309,-5.337
0.205,0.045,0.308,-5.337
0.225,0.044,0.307,-5.337
0.213,0.047,0.306,-5.337
0.126,0.054,0.306,-5.337
0.124,0.055,0.308,-5.337
0.118,0.052,0.309,-5.337
0.110,0.052,0.307,-5.337
0.177,0.050,0.305,-5.337
0.169,0.053,0.304,-5.337
0.184,0.052,0.303,-5.337
0.206,0.056,0.306,-5.337
0.183,0.054,0.310,-5.337
0.162,0.051,0.313,-5.337
0.181,0.050,0.313,-5.337
0.158,0.049,0.308,-5.337
0.181,0.046,0.303,-5.337
0.191,0.048,0.303,-5.337
0.220,0.047,0.305,-5.337
0.167,0.051,0.312,-5.337
0.122,0.051,0.315,-5.337
0.216,0.049,0.311,-5.337
0.242,0.051,0.306,-5.337
0.183,0.055,0.302,-5.337
0.099,0.056,0.303,-5.337
0.100,0.051,0.303,-5.337
0.186,0.045,0.302,-5.337
0.225,0.046,0.304,-5.337
0.174,0.048,0.307,-5.337
0.118,0.051,0.306,-5.337
0.142,0.046,0.306,-5.337
0.209,0.045,0.304,-5.337
0.149,0.050,0.305,-5.337
0.083,0.053,0.306,-5.337
0.084,0.053,0.309,-5.337
0.151,0.050,0.310,-5.337
0.189,0.047,0.305,-5.337
0.158,0.051,0.302,-5.337
0.114,0.056,0.305,-5.337
0.133,0.055,0.307,-5.337
0.182,0.052,0.308,-5.337
0.136,0.055,0.304,-5.337
0.126,0.053,0.300,-5.337
0.152,0.052,0.304,-5.337
0.179,0.053,0.309,-5.337
0.137,0.054,0.311,-5.337
0.109,0.055,0.311,-5.337
0.168,0.052,0.309,-5.337
0.203,0.050,0.307,-5.337
0.120,0.053,0.309,-5.337
0.024,0.057,0.309,-5.337
0.037,0.056,0.309,-5.337
0.166,0.049,0.307,-5.337
0.172,0.052,0.308,-5.337
0.090,0.056,0.306,-5.337
0.096,0.054,0.304,-5.337
0.160,0.051,0.300,-5.337
0.197,0.051,0.301,-5.337
0.212,0.052,0.304,-5.337
0.196,0.054,0.306,-5.337
0.181,0.054,0.304,-5.337
0.194,0.046,0.308,-5.337
0.221,0.045,0.309,-5.337
0.183,0.050,0.310,-5.337
0.180,0.052,0.314,-5.337
0.186,0.054,0.316,-5.337
0.189,0.050,0.312,-5.337
0.160,0.051,0.308,-5.337
0.119,0.051,0.305,-5.337
0.103,0.052,0.302,-5.337
0.152,0.051,0.304,-5.337
0.159,0.051,0.310,-5.337
0.104,0.052,0.312,-5.337
0.100,0.054,0.309,-5.337
0.117,0.055,0.308,-5.337
0.172,0.053,0.306,-5.337
0.153,0.055,0.308,-5.337
0.094,0.056,0.308,-5.337
0.069,0.054,0.309,-5.337
0.086,0.052,0.305,-5.337
0.117,0.049,0.305,-5.337
0.149,0.045,0.307,-5.337
0.064,0.050,0.307,-5.337
0.013,0.058,0.308,-5.337
0.061,0.054,0.310,-5.337
0.127,0.048,0.308,-5.337
0.152,0.050,0.306,-5.337
0.113,0.052,0.305,-5.337
0.105,0.053,0.305,-5.337
0.114,0.049,0.305,-5.337
0.135,0.049,0.309,-5.337
0.182,0.050,0.311,-5.337
0.168,0.049,0.305,-5.337
0.111,0.052,0.306,-5.337
0.074,0.051,0.310,-5.337
0.085,0.049,0.308,-5.337
0.147,0.050,0.303,-5.337
0.197,0.051,0.304,-5.337
0.166,0.053,0.305,-5.337
0.085,0.055,0.304,-5.337
0.085,0.052,0.302,-5.337
0.136,0.048,0.308,-5.337
0.115,0.048,0.310,-5.337
0.114,0.047,0.304,-5.337
0.130,0.047,0.301,-5.337
0.172,0.050,0.304,-5.337
0.147,0.052,0.308,-5.337
0.064,0.058,0.308,-5.337
0.067,0.055,0.304,-5.337
0.129,0.051,0.302,-5.337
0.144,0.053,0.308,-5.337
0.135,0.056,0.312,-5.337
0.123,0.057,0.309,-5.337
0.126,0.060,0.302,-5.337
0.084,0.060,0.299,-5.337
0.067,0.061,0.299,-5.337
0.123,0.061,0.297,-5.337
0.129,0.058,0.299,-5.337
0.138,0.058,0.305,-5.337
0.132,0.058,0.304,-5.337
0.071,0.059,0.306,-5.337
0.051,0.060,0.308,-5.337
0.026,0.060,0.310,-5.337
0.080,0.057,0.309,-5.337
0.157,0.055,0.302,-5.337
0.141,0.054,0.300,-5.337
0.072,0.059,0.305,-5.337
0.074,0.055,0.308,-5.337
0.140,0.054,0.304,-5.337
0.184,0.052,0.300,-5.337
0.190,0.052,0.303,-5.337
0.198,0.051,0.306,-5.337
0.223,0.051,0.307,-5.337
0.182,0.052,0.307,-5.337
0.139,0.053,0.307,-5.337
0.086,0.051,0.306,-5.337
0.103,0.052,0.306,-5.337
0.162,0.052,0.305,-5.337
0.119,0.054,0.300,-5.337
0.098,0.056,0.301,-5.337
0.132,0.054,0.301,-5.337
0.126,0.054,0.302,-5.337
0.083,0.054,0.305,-5.337
0.140,0.052,0.303,-5.337
0.159,0.050,0.302,-5.337
0.179,0.051,0.304,-5.337
0.153,0.052,0.303,-5.337
0.110,0.053,0.306,-5.337
0.114,0.054,0.310,-5.337
0.105,0.054,0.309,-5.337
0.139,0.056,0.300,-5.337
0.216,0.057,0.297,-5.337
0.166,0.056,0.297,-5.337
0.124,0.056,0.301,-5.337
0.128,0.056,0.304,-5.337
0.105,0.056,0.305,-5.337
0.045,0.056,0.305,-5.337
0.138,0.052,0.302,-5.337
0.182,0.052,0.305,-5.337
0.176,0.052,0.308,-5.337
0.170,0.051,0.309,-5.337
0.128,0.052,0.306,-5.337
0.154,0.055,0.304,-5.337
0.138,0.055,0.301,-5.337
0.098,0.057,0.300,-5.337
0.104,0.054,0.300,-5.337
0.099,0.057,0.304,-5.337
0.097,0.056,0.305,-5.337
0.166,0.057,0.308,-5.337
0.197,0.057,0.311,-5.337
0.176,0.054,0.308,-5.337
0.134,0.052,0.303,-5.337
0.116,0.055,0.302,-5.337
0.122,0.056,0.303,-5.337
0.167,0.055,0.303,-5.337
0.149,0.055,0.303,-5.337
0.133,0.052,0.304,-5.337
0.112,0.054,0.309,-5.337
0.173,0.052,0.306,-5.337
0.177,0.054,0.300,-5.337
0.107,0.056,0.297,-5.337
0.153,0.053,0.301,-5.337
0.163,0.051,0.302,-5.337
0.111,0.052,0.304,-5.337
0.105,0.052,0.303,-5.337
0.130,0.051,0.303,-5.337
0.113,0.049,0.305,-5.337
0.070,0.050,0.309,-5.337
0.113,0.049,0.309,-5.337
0.152,0.047,0.306,-5.337
0.157,0.048,0.302,-5.337
0.115,0.053,0.297,-5.337
0.132,0.052,0.295,-5.337
0.141,0.052,0.300,-5.337
0.085,0.053,0.303,-5.337
0.078,0.054,0.300,-5.337
0.104,0.053,0.299,-5.337
0.154,0.048,0.303,-5.337
0.151,0.049,0.309,-5.337
0.117,0.049,0.314,-5.337
0.133,0.051,0.310,-5.337
0.112,0.050,0.302,-5.337
0.145,0.048,0.300,-5.337
0.156,0.044,0.302,-5.337
0.147,0.044,0.310,-5.337
0.119,0.045,0.309,-5.337
0.242,0.042,0.305,-5.337
0.294,0.040,0.303,-5.337
0.265,0.045,0.306,-5.337
0.211,0.048,0.306,-5.337
0.166,0.050,0.303,-5.337
0.144,0.049,0.302,-5.337
0.157,0.048,0.301,-5.337
0.171,0.047,0.305,-5.337
0.204,0.046,0.311,-5.337
0.247,0.047,0.311,-5.337
0.221,0.050,0.307,-5.337
0.174,0.048,0.303,-5.337
0.135,0.046,0.303,-5.337
0.113,0.050,0.304,-5.337
0.106,0.049,0.305,-5.337
0.170,0.047,0.305,-5.337
0.246,0.048,0.305,-5.337
0.204,0.047,0.306,-5.337
0.145,0.047,0.304,-5.337
0.106,0.047,0.302,-5.337
0.154,0.047,0.302,-5.337
0.153,0.049,0.303,-5.337
0.118,0.050,0.304,-5.337
0.148,0.049,0.306,-5.337
0.189,0.045,0.305,-5.337
0.134,0.048,0.301,-5.337
0.075,0.050,0.302,-5.337
0.140,0.051,0.304,-5.337
0.233,0.046,0.307,-5.337
0.244,0.049,0.305,-5.337
0.203,0.048,0.301,-5.337
0.183,0.047,0.303,-5.337
0.143,0.048,0.306,-5.337
0.153,0.050,0.306,-5.337
0.171,0.048,0.305,-5.337
0.192,0.048,0.309,-5.337
0.188,0.048,0.312,-5.337
0.202,0.044,0.308,-5.337
0.212,0.042,0.304,-5.337
0.250,0.045,0.302,-5.337
0.237,0.043,0.303,-5.337
0.193,0.048,0.305,-5.337
0.171,0.047,0.307,-5.337
0.210,0.039,0.305,-5.337
0.219,0.041,0.308,-5.337
0.179,0.046,0.308,-5.337
0.170,0.048,0.305,-5.337
0.128,0.048,0.304,-5.337
0.145,0.052,0.302,-5.337
0.204,0.047,0.302,-5.337
0.176,0.046,0.303,-5.337
0.170,0.044,0.304,-5.337
0.203,0.042,0.305,-5.337
0.214,0.042,0.304,-5.337
0.238,0.042,0.302,-5.337
0.213,0.042,0.303,-5.337
0.193,0.047,0.303,-5.337
0.183,0.044,0.301,-5.337
0.183,0.043,0.304,-5.337
0.193,0.045,0.307,-5.337
0.147,0.048,0.309,-5.337
0.187,0.046,0.310,-5.337
0.202,0.046,0.304,-5.337
0.218,0.043,0.299,-5.337
0.185,0.043,0.300,-5.337
0.178,0.045,0.303,-5.337
0.204,0.047,0.305,-5.337
0.235,0.044,0.305,-5.337
0.219,0.042,0.302,-5.337
0.202,0.044,0.301,-5.337
0.193,0.042,0.302,-5.337
0.219,0.046,0.304,-5.337
0.157,0.050,0.305,-5.337
0.144,0.050,0.308,-5.337
0.190,0.048,0.312,-5.337
0.169,0.051,0.311,-5.337
0.148,0.051,0.305,-5.337
0.189,0.045,0.302,-5.337
0.165,0.047,0.303,-5.337
0.174,0.049,0.304,-5.337
0.133,0.051,0.308,-5.337
0.165,0.045,0.308,-5.337
0.254,0.040,0.305,-5.337
0.268,0.041,0.304,-5.337
0.245,0.045,0.310,-5.337
0.230,0.042,0.310,-5.337
0.244,0.042,0.307,-5.337
0.234,0.042,0.305,-5.337
0.265,0.046,0.304,-5.337
0.230,0.044,0.302,-5.337
0.222,0.043,0.301,-5.337
0.231,0.042,0.304,-5.337
0.246,0.042,0.308,-5.337
0.234,0.043,0.310,-5.337
0.214,0.046,0.308,-5.337
0.213,0.046,0.302,-5.337
0.227,0.046,0.301,-5.337
0.238,0.043,0.301,-5.337
0.217,0.044,0.305,-5.337
0.238,0.041,0.306,-5.337
0.251,0.042,0.302,-5.337
0.194,0.042,0.302,-5.337
0.216,0.040,0.303,-5.337
0.285,0.039,0.305,-5.337
0.329,0.037,0.305,-5.337
0.252,0.043,0.308,-5.337
0.191,0.043,0.305,-5.337
0.264,0.039,0.305,-5.337
0.278,0.041,0.301,-5.337
0.227,0.039,0.303,-5.337
0.217,0.038,0.307,-5.337
0.245,0.042,0.307,-5.337
0.202,0.040,0.303,-5.337
0.165,0.042,0.305,-5.337
0.160,0.040,0.307,-5.337
0.135,0.040,0.306,-5.337
0.121,0.042,0.308,-5.337
0.198,0.041,0.313,-5.337
0.205,0.044,0.312,-5.337
0.135,0.048,0.306,-5.337
0.108,0.045,0.306,-5.337
0.119,0.042,0.305,-5.337
0.190,0.043,0.305,-5.337
0.214,0.045,0.303,-5.337
0.223,0.044,0.303,-5.337
0.276,0.044,0.301,-5.337
0.258,0.044,0.305,-5.337
0.206,0.044,0.307,-5.337
0.240,0.043,0.306,-5.337
0.337,0.042,0.307,-5.337
0.322,0.043,0.310,-5.337
0.234,0.045,0.311,-5.337
0.156,0.044,0.307,-5.337
0.189,0.043,0.303,-5.337
0.180,0.044,0.306,-5.337
0.187,0.042,0.309,-5.337
0.216,0.040,0.310,-5.337
0.213,0.043,0.307,-5.337
0.161,0.046,0.307,-5.337
0.148,0.046,0.308,-5.337
0.181,0.044,0.311,-5.337
0.187,0.043,0.311,-5.337
0.214,0.041,0.309,-5.337
0.235,0.040,0.308,-5.337
0.229,0.042,0.307,-5.337
0.289,0.040,0.304,-5.337
0.303,0.042,0.306,-5.337
0.229,0.045,0.309,-5.337
0.202,0.043,0.308,-5.337
0.203,0.044,0.311,-5.337
0.184,0.041,0.311,-5.337
0.188,0.036,0.309,-5.337
0.207,0.034,0.305,-5.337
0.206,0.038,0.305,-5.337
0.215,0.035,0.305,-5.337
0.267,0.031,0.308,-5.337
0.278,0.034,0.308,-5.337
0.207,0.039,0.312,-5.337
0.158,0.037,0.313,-5.337
0.162,0.038,0.305,-5.337
0.226,0.036,0.299,-5.337
0.262,0.039,0.298,-5.337
0.192,0.040,0.299,-5.337
0.179,0.044,0.304,-5.337
0.211,0.042,0.308,-5.337
0.272,0.039,0.309,-5.337
0.274,0.041,0.310,-5.337
0.234,0.044,0.309,-5.337
0.161,0.047,0.305,-5.337
0.181,0.043,0.302,-5.337
0.230,0.042,0.304,-5.337
0.226,0.043,0.310,-5.337
0.196,0.043,0.311,-5.337
0.201,0.039,0.308,-5.337
0.264,0.039,0.307,-5.337
0.301,0.039,0.306,-5.337
0.282,0.039,0.308,-5.337
0.252,0.041,0.307,-5.337
0.206,0.041,0.307,-5.337
0.171,0.040,0.304,-5.337
0.227,0.039,0.301,-5.337
0.255,0.038,0.299,-5.337
0.198,0.043,0.300,-5.337
0.175,0.043,0.305,-5.337
0.190,0.042,0.306,-5.337
0.198,0.045,0.303,-5.337
0.184,0.043,0.302,-5.337
0.210,0.043,0.305,-5.337
0.219,0.043,0.310,-5.337
0.199,0.044,0.311,-5.337
0.201,0.045,0.311,-5.337
0.194,0.045,0.309,-5.337
0.213,0.044,0.307,-5.337
0.203,0.043,0.304,-5.337
0.241,0.044,0.299,-5.337
0.286,0.045,0.297,-5.337
0.343,0.039,0.300,-5.337
0.313,0.042,0.303,-5.337
0.231,0.045,0.304,-5.337
0.235,0.045,0.303,-5.337
0.264,0.043,0.305,-5.337
0.306,0.044,0.308,-5.337
0.336,0.043,0.306,-5.337
0.235,0.046,0.306,-5.337
0.169,0.045,0.307,-5.337
0.224,0.045,0.302,-5.337
0.249,0.049,0.297,-5.337
0.257,0.048,0.298,-5.337
0.208,0.047,0.300,-5.337
0.209,0.046,0.303,-5.337
0.259,0.045,0.304,-5.337
0.163,0.050,0.305,-5.337
0.106,0.048,0.308,-5.337
0.150,0.046,0.309,-5.337
0.188,0.043,0.310,-5.337
0.257,0.039,0.308,-5.337
0.354,0.035,0.304,-5.337
0.313,0.039,0.299,-5.337
0.224,0.046,0.300,-5.337
0.197,0.047,0.301,-5.337
0.212,0.045,0.300,-5.337
0.237,0.043,0.298,-5.337
0.269,0.041,0.301,-5.337
0.221,0.042,0.301,-5.337
0.191,0.044,0.304,-5.337
0.185,0.045,0.307,-5.337
0.188,0.047,0.310,-5.337
0.210,0.046,0.309,-5.337
0.185,0.045,0.308,-5.337
0.224,0.044,0.307,-5.337
0.257,0.045,0.307,-5.337
0.214,0.048,0.304,-5.337
0.195,0.044,0.302,-5.337
0.168,0.042,0.304,-5.337
0.174,0.042,0.306,-5.337
0.237,0.045,0.303,-5.337
0.255,0.047,0.301,-5.337
0.247,0.048,0.303,-5.337
0.232,0.050,0.302,-5.337
0.268,0.054,0.300,-5.337
0.298,0.053,0.304,-5.337
0.257,0.053,0.309,-5.337
0.222,0.052,0.306,-5.337
0.240,0.052,0.307,-5.337
0.225,0.052,0.308,-5.337
0.226,0.053,0.308,-5.337
0.311,0.050,0.305,-5.337
0.276,0.049,0.303,-5.337
0.208,0.051,0.300,-5.337
0.162,0.055,0.301,-5.337
0.124,0.054,0.300,-5.337
0.117,0.052,0.300,-5.337
0.191,0.049,0.303,-5.337
0.258,0.048,0.305,-5.337
0.235,0.051,0.306,-5.337
0.182,0.049,0.308,-5.337
0.219,0.046,0.305,-5.337
0.258,0.047,0.305,-5.337
0.199,0.047,0.309,-5.337
0.182,0.045,0.306,-5.337
0.233,0.043,0.305,-5.337
0.241,0.047,0.306,-5.337
0.229,0.049,0.305,-5.337
0.225,0.049,0.306,-5.337
0.176,0.051,0.307,-5.337
0.216,0.049,0.304,-5.337
0.246,0.050,0.303,-5.337
0.158,0.050,0.303,-5.337
0.135,0.051,0.304,-5.337
0.215,0.047,0.303,-5.337
0.280,0.048,0.303,-5.337
0.219,0.051,0.302,-5.337
0.120,0.051,0.302,-5.337
0.166,0.046,0.301,-5.337
0.181,0.049,0.302,-5.337
0.179,0.048,0.302,-5.337
0.186,0.048,0.302,-5.337
0.205,0.047,0.303,-5.337
0.242,0.046,0.306,-5.337
0.186,0.046,0.308,-5.337
0.141,0.045,0.309,-5.337
0.171,0.045,0.310,-5.337
0.130,0.048,0.307,-5.337
0.182,0.047,0.307,-5.337
0.212,0.047,0.306,-5.337
0.162,0.049,0.306,-5.337
0.057,0.052,0.305,-5.337
0.127,0.050,0.304,-5.337
0.210,0.051,0.301,-5.337
0.156,0.053,0.297,-5.337
0.125,0.055,0.299,-5.337
0.152,0.055,0.301,-5.337
0.174,0.053,0.298,-5.337
0.250,0.048,0.298,-5.337
0.322,0.043,0.300,-5.337
0.263,0.048,0.305,-5.337
0.228,0.051,0.307,-5.337
0.200,0.051,0.307,-5.337
0.171,0.052,0.305,-5.337
0.163,0.053,0.307,-5.337
0.167,0.052,0.306,-5.337
0.148,0.053,0.302,-5.337
0.183,0.053,0.304,-5.337
0.195,0.054,0.308,-5.337
0.193,0.057,0.308,-5.337
0.171,0.059,0.302,-5.337
0.106,0.058,0.303,-5.337
0.113,0.056,0.303,-5.337
0.134,0.055,0.303,-5.337
0.136,0.055,0.302,-5.337
0.104,0.056,0.305,-5.337
0.172,0.054,0.304,-5.337
0.216,0.052,0.304,-5.337
0.152,0.053,0.304,-5.337
0.099,0.057,0.304,-5.337
0.116,0.053,0.303,-5.337
0.146,0.057,0.305,-5.337
0.196,0.054,0.308,-5.337
0.276,0.054,0.306,-5.337
0.266,0.055,0.306,-5.337
0.207,0.052,0.305,-5.337
0.184,0.055,0.301,-5.337
0.147,0.060,0.304,-5.337
0.160,0.060,0.307,-5.337
0.156,0.060,0.306,-5.337
0.101,0.063,0.307,-5.337
0.078,0.062,0.305,-5.337
0.107,0.060,0.303,-5.337
0.237,0.058,0.300,-5.337
0.270,0.057,0.300,-5.337
0.202,0.054,0.301,-5.337
0.095,0.059,0.303,-5.337
0.121,0.059,0.303,-5.337
0.198,0.059,0.305,-5.337
0.171,0.058,0.305,-5.337
0.120,0.059,0.304,-5.337
0.143,0.060,0.304,-5.337
0.183,0.060,0.305,-5.337
0.178,0.057,0.305,-5.337
0.169,0.057,0.303,-5.337
0.164,0.057,0.301,-5.337
0.190,0.060,0.298,-5.337
0.159,0.060,0.302,-5.337
0.139,0.059,0.305,-5.337
0.223,0.055,0.303,-5.337
0.251,0.058,0.301,-5.337
0.157,0.062,0.303,-5.337
0.141,0.058,0.304,-5.337
0.189,0.056,0.306,-5.337
0.169,0.057,0.305,-5.337
0.146,0.058,0.304,-5.337
0.107,0.059,0.303,-5.337
0.080,0.058,0.305,-5.337
0.169,0.054,0.310,-5.337
0.157,0.059,0.313,-5.337
0.099,0.064,0.310,-5.337
0.104,0.066,0.302,-5.337
0.109,0.066,0.298,-5.337
0.100,0.064,0.299,-5.337
0.099,0.065,0.302,-5.337
0.078,0.067,0.305,-5.337
0.065,0.065,0.306,-5.337
0.118,0.064,0.306,-5.337
0.158,0.066,0.308,-5.337
0.180,0.063,0.306,-5.337
0.161,0.065,0.300,-5.337
0.087,0.068,0.296,-5.337
0.140,0.061,0.299,-5.337
0.204,0.059,0.304,-5.337
0.195,0.062,0.308,-5.337
0.189,0.061,0.310,-5.337
0.133,0.062,0.308,-5.337
0.154,0.060,0.302,-5.337
0.155,0.062,0.301,-5.337
0.158,0.063,0.300,-5.337
0.174,0.063,0.301,-5.337
0.116,0.063,0.306,-5.337
0.085,0.064,0.310,-5.337
0.053,0.064,0.312,-5.337
0.102,0.063,0.310,-5.337
0.137,0.062,0.307,-5.337
0.158,0.062,0.305,-5.337
0.134,0.063,0.303,-5.337
0.173,0.062,0.304,-5.337
0.164,0.062,0.305,-5.337
0.107,0.061,0.302,-5.337
0.151,0.058,0.302,-5.337
0.209,0.060,0.304,-5.337
0.146,0.063,0.306,-5.337
0.128,0.064,0.306,-5.337
0.111,0.066,0.309,-5.337
0.104,0.063,0.308,-5.337
0.151,0.060,0.310,-5.337
0.139,0.060,0.311,-5.337
0.091,0.061,0.309,-5.337
0.116,0.061,0.308,-5.337
0.184,0.059,0.309,-5.337
0.157,0.056,0.306,-5.337
0.173,0.055,0.305,-5.337
0.142,0.059,0.310,-5.337
0.113,0.060,0.312,-5.337
0.154,0.060,0.308,-5.337
0.197,0.057,0.304,-5.337
0.205,0.057,0.306,-5.337
0.150,0.064,0.304,-5.337
0.133,0.061,0.302,-5.337
0.188,0.064,0.304,-5.337
0.176,0.067,0.307,-5.337
0.141,0.065,0.307,-5.337
0.171,0.064,0.306,-5.337
0.192,0.062,0.306,-5.337
0.187,0.062,0.310,-5.337
0.128,0.064,0.309,-5.337
0.077,0.066,0.309,-5.337
0.084,0.063,0.309,-5.337
0.155,0.063,0.306,-5.337
0.178,0.062,0.304,-5.337
0.132,0.065,0.306,-5.337
0.125,0.066,0.305,-5.337
0.098,0.066,0.307,-5.337
0.152,0.065,0.304,-5.337
0.205,0.068,0.303,-5.337
0.138,0.069,0.306,-5.337
0.033,0.068,0.310,-5.337
0.072,0.062,0.313,-5.337
0.162,0.062,0.315,-5.337
0.158,0.062,0.314,-5.337
0.193,0.061,0.311,-5.337
0.155,0.063,0.310,-5.337
0.039,0.065,0.308,-5.337
0.106,0.063,0.301,-5.337
0.171,0.061,0.300,-5.337
0.149,0.060,0.301,-5.337
0.074,0.061,0.303,-5.337
0.110,0.063,0.302,-5.337
0.145,0.063,0.300,-5.337
0.137,0.060,0.301,-5.337
0.152,0.060,0.307,-5.337
0.112,0.063,0.309,-5.337
0.162,0.066,0.305,-5.337
0.217,0.068,0.305,-5.337
0.205,0.064,0.308,-5.337
0.161,0.066,0.313,-5.337
0.146,0.065,0.313,-5.337
0.166,0.064,0.308,-5.337
0.172,0.062,0.305,-5.337
0.154,0.066,0.303,-5.337
0.143,0.067,0.301,-5.337
0.127,0.067,0.299,-5.337
0.085,0.067,0.299,-5.337
0.140,0.063,0.300,-5.337
0.141,0.064,0.300,-5.337
0.135,0.067,0.303,-5.337
0.098,0.070,0.308,-5.337
0.056,0.069,0.309,-5.337
0.099,0.067,0.308,-5.337
0.135,0.070,0.304,-5.337
0.146,0.068,0.302,-5.337
0.132,0.070,0.301,-5.337
0.107,0.067,0.303,-5.337
0.137,0.066,0.305,-5.337
0.169,0.067,0.309,-5.337
0.172,0.065,0.306,-5.337
0.122,0.067,0.301,-5.337
0.082,0.066,0.300,-5.337
0.079,0.067,0.304,-5.337
0.080,0.069,0.305,-5.337
0.106,0.064,0.305,-5.337
0.171,0.060,0.304,-5.337
0.216,0.059,0.303,-5.337
0.209,0.057,0.300,-5.337
0.132,0.060,0.304,-5.337
0.093,0.063,0.306,-5.337
0.077,0.067,0.304,-5.337
0.135,0.062,0.306,-5.337
0.193,0.058,0.307,-5.337
0.186,0.058,0.306,-5.337
0.162,0.063,0.307,-5.337
0.188,0.063,0.307,-5.337
0.184,0.059,0.306,-5.337
0.104,0.064,0.306,-5.337
0.127,0.062,0.304,-5.337
0.188,0.061,0.300,-5.337
0.193,0.062,0.298,-5.337
0.140,0.063,0.301,-5.337
0.113,0.062,0.303,-5.337
0.093,0.064,0.302,-5.337
0.119,0.062,0.303,-5.337
0.188,0.059,0.302,-5.337
0.171,0.061,0.302,-5.337
0.133,0.063,0.305,-5.337
0.100,0.066,0.306,-5.337
0.128,0.061,0.309,-5.337
0.122,0.059,0.308,-5.337
0.105,0.061,0.304,-5.337
0.110,0.060,0.302,-5.337
0.109,0.063,0.305,-5.337
0.098,0.063,0.307,-5.337
0.083,0.059,0.303,-5.337
0.137,0.053,0.305,-5.337
0.130,0.056,0.306,-5.337
0.107,0.054,0.305,-5.337
0.140,0.054,0.303,-5.337
0.185,0.054,0.302,-5.337
0.201,0.053,0.302,-5.337
0.193,0.052,0.303,-5.337
0.259,0.047,0.302,-5.337
0.265,0.048,0.302,-5.337
0.263,0.049,0.302,-5.337
0.204,0.053,0.302,-5.337
0.164,0.058,0.300,-5.337
0.121,0.058,0.301,-5.337
0.082,0.053,0.305,-5.337
0.139,0.051,0.304,-5.337
0.204,0.053,0.303,-5.337
0.253,0.056,0.303,-5.337
0.192,0.059,0.304,-5.337
0.130,0.058,0.307,-5.337
0.140,0.057,0.313,-5.337
0.143,0.057,0.315,-5.337
0.098,0.058,0.312,-5.337
0.142,0.056,0.305,-5.337
0.168,0.054,0.304,-5.337
0.194,0.053,0.303,-5.337
0.164,0.056,0.304,-5.337
0.132,0.059,0.305,-5.337
0.097,0.060,0.306,-5.337
0.107,0.057,0.301,-5.337
0.188,0.053,0.297,-5.337
0.225,0.052,0.299,-5.337
0.258,0.052,0.303,-5.337
0.221,0.046,0.304,-5.337
0.188,0.047,0.305,-5.337
0.266,0.044,0.305,-5.337
0.205,0.048,0.302,-5.337
0.198,0.046,0.305,-5.337
0.155,0.045,0.306,-5.337
0.095,0.045,0.303,-5.337
0.175,0.043,0.302,-5.337
0.237,0.044,0.306,-5.337
0.252,0.046,0.309,-5.337
0.193,0.050,0.311,-5.337
0.126,0.051,0.306,-5.337
0.136,0.049,0.299,-5.337
0.173,0.048,0.298,-5.337
0.184,0.046,0.305,-5.337
0.171,0.051,0.306,-5.337
0.177,0.052,0.303,-5.337
0.188,0.050,0.301,-5.337
0.178,0.050,0.303,-5.337
0.186,0.049,0.305,-5.337
0.262,0.046,0.309,-5.337
0.269,0.046,0.310,-5.337
0.151,0.051,0.309,-5.337
0.139,0.051,0.307,-5.337
0.177,0.048,0.303,-5.337
0.177,0.050,0.299,-5.337
0.123,0.054,0.297,-5.337
0.138,0.049,0.297,-5.337
0.211,0.041,0.301,-5.337
0.242,0.042,0.306,-5.337
0.208,0.047,0.308,-5.337
0.189,0.048,0.306,-5.337
0.221,0.046,0.300,-5.337
0.216,0.042,0.300,-5.337
0.275,0.040,0.305,-5.337
0.241,0.044,0.306,-5.337
0.183,0.048,0.303,-5.337
0.200,0.042,0.303,-5.337
0.201,0.041,0.304,-5.337
0.114,0.045,0.306,-5.337
0.079,0.048,0.306,-5.337
0.128,0.047,0.306,-5.337
0.162,0.045,0.301,-5.337
0.135,0.047,0.304,-5.337
0.145,0.044,0.306,-5.337
0.180,0.046,0.307,-5.337
0.168,0.045,0.306,-5.337
0.191,0.043,0.305,-5.337
0.256,0.043,0.303,-5.337
0.301,0.044,0.303,-5.337
0.263,0.043,0.306,-5.337
0.206,0.047,0.310,-5.337
0.197,0.046,0.309,-5.337
0.249,0.043,0.304,-5.337
0.288,0.041,0.298,-5.337
0.210,0.043,0.292,-5.337
0.170,0.043,0.297,-5.337
0.214,0.042,0.300,-5.337
0.216,0.042,0.301,-5.337
0.205,0.042,0.301,-5.337
0.183,0.044,0.305,-5.337
0.147,0.046,0.306,-5.337
0.185,0.047,0.305,-5.337
0.257,0.043,0.304,-5.337
0.279,0.044,0.308,-5.337
0.236,0.045,0.307,-5.337
0.218,0.049,0.304,-5.337
0.242,0.047,0.303,-5.337
0.197,0.048,0.303,-5.337
0.176,0.045,0.306,-5.337
0.163,0.041,0.307,-5.337
0.179,0.043,0.306,-5.337
0.213,0.044,0.302,-5.337
0.237,0.043,0.299,-5.337
0.254,0.043,0.302,-5.337
0.308,0.044,0.307,-5.337
0.278,0.048,0.310,-5.337
0.238,0.048,0.310,-5.337
0.202,0.042,0.307,-5.337
0.258,0.040,0.306,-5.337
0.256,0.045,0.304,-5.337
0.180,0.047,0.304,-5.337
0.148,0.047,0.304,-5.337
0.155,0.048,0.305,-5.337
0.188,0.044,0.303,-5.337
0.207,0.045,0.303,-5.337
0.166,0.047,0.301,-5.337
0.176,0.047,0.302,-5.337
0.266,0.043,0.306,-5.337
0.298,0.046,0.311,-5.337
0.285,0.045,0.307,-5.337
0.245,0.044,0.303,-5.337
0.195,0.044,0.300,-5.337
0.198,0.046,0.301,-5.337
0.283,0.049,0.300,-5.337
0.369,0.048,0.301,-5.337
0.300,0.047,0.302,-5.337
0.196,0.048,0.305,-5.337
0.225,0.045,0.307,-5.337
0.292,0.046,0.303,-5.337
0.291,0.049,0.305,-5.337
0.226,0.049,0.305,-5.337
0.191,0.047,0.305,-5.337
0.217,0.045,0.301,-5.337
0.213,0.046,0.299,-5.337
0.153,0.049,0.300,-5.337
0.163,0.048,0.305,-5.337
0.241,0.046,0.308,-5.337
0.235,0.048,0.310,-5.337
0.195,0.046,0.307,-5.337
0.206,0.044,0.307,-5.337
0.199,0.045,0.309,-5.337
0.223,0.044,0.307,-5.337
0.265,0.043,0.305,-5.337
0.234,0.045,0.306,-5.337
0.201,0.046,0.305,-5.337
0.207,0.050,0.304,-5.337
0.310,0.045,0.300,-5.337
0.334,0.042,0.298,-5.337
0.276,0.042,0.298,-5.337
0.205,0.046,0.298,-5.337
0.184,0.048,0.305,-5.337
0.195,0.048,0.308,-5.337
0.185,0.050,0.310,-5.337
0.151,0.050,0.309,-5.337
0.212,0.045,0.306,-5.337
0.245,0.048,0.302,-5.337
0.284,0.044,0.307,-5.337
0.289,0.046,0.312,-5.337
0.270,0.044,0.314,-5.337
0.223,0.045,0.315,-5.337
0.255,0.045,0.313,-5.337
0.228,0.043,0.309,-5.337
0.195,0.046,0.307,-5.337
0.202,0.045,0.306,-5.337
0.249,0.046,0.303,-5.337
0.243,0.046,0.299,-5.337
0.253,0.047,0.301,-5.337
0.267,0.044,0.305,-5.337
0.276,0.045,0.304,-5.337
0.271,0.045,0.304,-5.337
0.266,0.042,0.304,-5.337
0.287,0.042,0.306,-5.337
0.237,0.043,0.307,-5.337
0.189,0.043,0.305,-5.337
0.184,0.044,0.304,-5.337
0.241,0.044,0.306,-5.337
0.202,0.045,0.306,-5.337
0.190,0.044,0.307,-5.337
0.247,0.039,0.304,-5.337
0.300,0.036,0.304,-5.337
0.306,0.038,0.307,-5.337
0.290,0.044,0.312,-5.337
0.273,0.045,0.311,-5.337
0.217,0.046,0.310,-5.337
0.200,0.042,0.310,-5.337
0.227,0.043,0.310,-5.337
0.244,0.043,0.306,-5.337
0.213,0.047,0.300,-5.337
0.169,0.048,0.300,-5.337
0.193,0.047,0.305,-5.337
0.235,0.047,0.308,-5.337
0.233,0.045,0.310,-5.337
0.216,0.046,0.306,-5.337
0.202,0.048,0.305,-5.337
0.199,0.053,0.308,-5.337
0.235,0.048,0.309,-5.337
0.281,0.046,0.311,-5.337
0.221,0.050,0.305,-5.337
0.149,0.055,0.297,-5.337
0.177,0.054,0.298,-5.337
0.212,0.054,0.306,-5.337
0.197,0.051,0.310,-5.337
0.191,0.048,0.308,-5.337
0.237,0.049,0.303,-5.337
0.253,0.050,0.304,-5.337
0.225,0.047,0.307,-5.337
0.195,0.047,0.309,-5.337
0.248,0.045,0.307,-5.337
0.265,0.044,0.306,-5.337
0.236,0.045,0.305,-5.337
0.241,0.045,0.302,-5.337
0.289,0.042,0.302,-5.337
0.302,0.044,0.306,-5.337
0.277,0.046,0.307,-5.337
0.226,0.044,0.306,-5.337
0.219,0.042,0.305,-5.337
0.200,0.044,0.301,-5.337
0.240,0.042,0.299,-5.337
0.277,0.045,0.300,-5.337
0.226,0.045,0.302,-5.337
0.164,0.047,0.304,-5.337
0.189,0.047,0.304,-5.337
0.198,0.044,0.302,-5.337
0.246,0.045,0.305,-5.337
0.250,0.048,0.303,-5.337
0.180,0.050,0.299,-5.337
0.173,0.048,0.299,-5.337
0.197,0.041,0.304,-5.337
0.264,0.039,0.305,-5.337
0.314,0.043,0.307,-5.337
0.235,0.043,0.309,-5.337
0.220,0.042,0.311,-5.337
0.292,0.040,0.307,-5.337
0.276,0.046,0.301,-5.337
0.175,0.047,0.299,-5.337
0.161,0.047,0.299,-5.337
0.175,0.049,0.304,-5.337
0.246,0.047,0.306,-5.337
0.225,0.047,0.308,-5.337
0.178,0.048,0.305,-5.337
0.258,0.050,0.302,-5.337
0.243,0.053,0.302,-5.337
0.194,0.050,0.305,-5.337
0.213,0.046,0.304,-5.337
0.247,0.047,0.300,-5.337
0.217,0.049,0.295,-5.337
0.228,0.048,0.299,-5.337
0.278,0.047,0.307,-5.337
0.245,0.050,0.310,-5.337
0.186,0.049,0.307,-5.337
0.180,0.044,0.305,-5.337
0.215,0.039,0.304,-5.337
0.278,0.044,0.305,-5.337
0.256,0.045,0.305,-5.337
0.228,0.045,0.301,-5.337
0.229,0.048,0.299,-5.337
0.237,0.048,0.300,-5.337
0.234,0.043,0.302,-5.337
0.249,0.043,0.305,-5.337
0.259,0.044,0.303,-5.337
0.251,0.043,0.300,-5.337
0.214,0.045,0.303,-5.337
0.200,0.047,0.304,-5.337
0.239,0.047,0.304,-5.337
0.185,0.051,0.305,-5.337
0.118,0.052,0.305,-5.337
0.174,0.048,0.306,-5.337
0.125,0.050,0.309,-5.337
0.136,0.047,0.308,-5.337
0.174,0.046,0.304,-5.337
0.203,0.046,0.301,-5.337
0.211,0.046,0.301,-5.337
0.235,0.045,0.303,-5.337
0.169,0.049,0.301,-5.337
0.114,0.052,0.303,-5.337
0.152,0.054,0.304,-5.337
0.148,0.050,0.302,-5.337
0.101,0.052,0.306,-5.337
0.094,0.053,0.309,-5.337
0.185,0.050,0.305,-5.337
0.255,0.053,0.303,-5.337
0.178,0.056,0.303,-5.337
0.137,0.053,0.303,-5.337
0.159,0.054,0.300,-5.337
0.203,0.052,0.299,-5.337
0.275,0.048,0.299,-5.337
0.235,0.052,0.302,-5.337
0.183,0.051,0.304,-5.337
0.158,0.054,0.307,-5.337
0.153,0.056,0.305,-5.337
0.161,0.057,0.302,-5.337
0.146,0.052,0.298,-5.337
0.092,0.054,0.297,-5.337
0.118,0.056,0.299,-5.337
0.154,0.059,0.303,-5.337
0.245,0.054,0.304,-5.337
0.244,0.054,0.303,-5.337
0.198,0.058,0.305,-5.337
0.207,0.057,0.305,-5.337
0.204,0.059,0.305,-5.337
0.100,0.060,0.301,-5.337
0.116,0.054,0.301,-5.337
0.189,0.055,0.307,-5.337
0.250,0.054,0.305,-5.337
0.223,0.055,0.298,-5.337
0.165,0.053,0.298,-5.337
0.179,0.052,0.304,-5.337
0.195,0.052,0.308,-5.337
0.150,0.055,0.306,-5.337
0.183,0.054,0.306,-5.337
0.227,0.051,0.305,-5.337
0.228,0.053,0.305,-5.337
0.216,0.052,0.305,-5.337
0.214,0.054,0.303,-5.337
0.185,0.057,0.303,-5.337
0.130,0.058,0.301,-5.337
0.107,0.054,0.300,-5.337
0.141,0.054,0.301,-5.337
0.218,0.053,0.303,-5.337
0.208,0.052,0.302,-5.337
0.146,0.055,0.305,-5.337
0.146,0.057,0.304,-5.337
0.221,0.053,0.304,-5.337
0.270,0.052,0.301,-5.337
0.225,0.056,0.299,-5.337
0.226,0.055,0.299,-5.337
0.241,0.053,0.298,-5.337
0.202,0.052,0.298,-5.337
0.142,0.055,0.302,-5.337
0.140,0.053,0.304,-5.337
0.159,0.057,0.305,-5.337
0.130,0.058,0.298,-5.337
0.176,0.052,0.299,-5.337
0.201,0.048,0.304,-5.337
0.217,0.051,0.307,-5.337
0.199,0.050,0.305,-5.337
0.200,0.049,0.304,-5.337
0.181,0.049,0.303,-5.337
0.173,0.049,0.302,-5.337
0.168,0.051,0.302,-5.337
0.162,0.053,0.307,-5.337
0.177,0.055,0.312,-5.337
0.141,0.057,0.311,-5.337
0.175,0.053,0.303,-5.337
0.175,0.052,0.298,-5.337
0.131,0.052,0.298,-5.337
0.113,0.055,0.296,-5.337
0.155,0.051,0.299,-5.337
0.174,0.051,0.299,-5.337
0.164,0.054,0.299,-5.337
0.145,0.053,0.300,-5.337
0.227,0.052,0.305,-5.337
0.216,0.055,0.307,-5.337
0.158,0.055,0.306,-5.337
0.154,0.053,0.303,-5.337
0.116,0.054,0.305,-5.337
0.063,0.052,0.304,-5.337
0.102,0.055,0.303,-5.337
0.114,0.055,0.298,-5.337
0.097,0.056,0.297,-5.337
0.144,0.052,0.298,-5.337
0.123,0.053,0.301,-5.337
0.092,0.053,0.303,-5.337
0.164,0.051,0.308,-5.337
0.180,0.051,0.307,-5.337
0.192,0.049,0.303,-5.337
0.194,0.054,0.300,-5.337
0.202,0.058,0.300,-5.337
0.165,0.059,0.304,-5.337
0.161,0.059,0.308,-5.337
0.205,0.057,0.310,-5.337
0.153,0.059,0.307,-5.337
0.191,0.056,0.306,-5.337
0.204,0.056,0.303,-5.337
0.152,0.055,0.303,-5.337
0.125,0.053,0.301,-5.337
0.163,0.053,0.301,-5.337
0.204,0.053,0.302,-5.337
0.156,0.057,0.304,-5.337
0.105,0.058,0.305,-5.337
0.129,0.058,0.306,-5.337
0.123,0.054,0.304,-5.337
0.131,0.054,0.299,-5.337
0.120,0.056,0.297,-5.337
0.186,0.052,0.301,-5.337
0.205,0.054,0.303,-5.337
0.165,0.056,0.303,-5.337
0.138,0.059,0.302,-5.337
0.132,0.058,0.300,-5.337
0.166,0.055,0.301,-5.337
0.192,0.056,0.303,-5.337
0.203,0.058,0.302,-5.337
0.174,0.059,0.299,-5.337
0.128,0.059,0.299,-5.337
0.098,0.062,0.301,-5.337
0.071,0.062,0.302,-5.337
0.124,0.060,0.302,-5.337
0.159,0.064,0.304,-5.337
0.052,0.061,0.304,-5.337
0.037,0.060,0.306,-5.337
0.082,0.058,0.305,-5.337
0.123,0.059,0.304,-5.337
0.099,0.060,0.305,-5.337
0.100,0.061,0.303,-5.337
0.110,0.058,0.303,-5.337
0.106,0.057,0.304,-5.337
0.107,0.053,0.305,-5.337
0.137,0.056,0.305,-5.337
0.150,0.058,0.302,-5.337
0.139,0.057,0.301,-5.337
0.119,0.055,0.301,-5.337
0.141,0.055,0.302,-5.337
0.194,0.054,0.304,-5.337
0.182,0.058,0.303,-5.337
0.159,0.061,0.303,-5.337
0.193,0.059,0.304,-5.337
0.210,0.061,0.305,-5.337
0.192,0.065,0.306,-5.337
0.162,0.065,0.305,-5.337
0.164,0.062,0.303,-5.337
0.132,0.066,0.303,-5.337
0.090,0.072,0.303,-5.337
0.123,0.067,0.302,-5.337
0.086,0.065,0.300,-5.337
0.058,0.067,0.299,-5.337
0.054,0.063,0.301,-5.337
0.050,0.063,0.306,-5.337
0.091,0.061,0.308,-5.337
0.156,0.062,0.309,-5.337
0.119,0.064,0.309,-5.337
0.039,0.069,0.306,-5.337
0.013,0.067,0.306,-5.337
0.032,0.065,0.307,-5.337
0.166,0.057,0.305,-5.337
0.204,0.058,0.304,-5.337
0.151,0.062,0.304,-5.337
0.131,0.064,0.304,-5.337
0.179,0.063,0.304,-5.337
0.137,0.061,0.304,-5.337
0.098,0.062,0.302,-5.337
0.198,0.060,0.300,-5.337
0.220,0.058,0.302,-5.337
0.149,0.057,0.305,-5.337
0.093,0.059,0.307,-5.337
0.094,0.059,0.307,-5.337
0.177,0.062,0.310,-5.337
0.209,0.059,0.310,-5.337
0.176,0.061,0.310,-5.337
0.156,0.061,0.310,-5.337
0.182,0.062,0.306,-5.337
0.168,0.063,0.308,-5.337
0.133,0.061,0.309,-5.337
0.134,0.060,0.307,-5.337
0.106,0.064,0.306,-5.337
0.083,0.064,0.302,-5.337
0.090,0.062,0.299,-5.337
0.139,0.060,0.302,-5.337
0.178,0.057,0.308,-5.337
0.126,0.057,0.310,-5.337
0.133,0.057,0.309,-5.337
0.214,0.052,0.307,-5.337
0.204,0.055,0.303,-5.337
0.122,0.056,0.304,-5.337
0.119,0.057,0.304,-5.337
0.174,0.058,0.307,-5.337
0.185,0.055,0.307,-5.337
0.072,0.056,0.308,-5.337
0.081,0.051,0.302,-5.337
0.120,0.053,0.298,-5.337
0.079,0.055,0.299,-5.337
0.029,0.061,0.303,-5.337
0.082,0.058,0.306,-5.337
0.165,0.055,0.307,-5.337
0.178,0.053,0.305,-5.337
0.186,0.057,0.305,-5.337
0.144,0.063,0.308,-5.337
0.100,0.066,0.309,-5.337
0.053,0.063,0.304,-5.337
0.119,0.056,0.301,-5.337
0.212,0.055,0.299,-5.337
0.207,0.059,0.299,-5.337
0.161,0.059,0.304,-5.337
0.181,0.057,0.304,-5.337
0.154,0.058,0.305,-5.337
0.090,0.059,0.303,-5.337
0.121,0.057,0.303,-5.337
0.113,0.057,0.300,-5.337
0.101,0.057,0.301,-5.337
0.115,0.056,0.306,-5.337
0.093,0.059,0.311,-5.337
0.110,0.056,0.308,-5.337
0.148,0.053,0.302,-5.337
0.170,0.053,0.300,-5.337
0.180,0.053,0.303,-5.337
0.183,0.054,0.304,-5.337
0.168,0.052,0.307,-5.337
0.177,0.051,0.309,-5.337
0.171,0.054,0.307,-5.337
0.184,0.051,0.301,-5.337
0.182,0.050,0.300,-5.337
0.184,0.049,0.304,-5.337
0.168,0.050,0.305,-5.337
0.224,0.046,0.303,-5.337
0.182,0.045,0.297,-5.337
0.116,0.046,0.294,-5.337
0.133,0.045,0.301,-5.337
0.206,0.045,0.305,-5.337
0.196,0.046,0.302,-5.337
0.185,0.047,0.302,-5.337
0.110,0.047,0.301,-5.337
0.152,0.050,0.303,-5.337
0.200,0.047,0.304,-5.337
0.166,0.048,0.303,-5.337
0.152,0.049,0.303,-5.337
0.117,0.052,0.302,-5.337
0.077,0.051,0.303,-5.337
0.120,0.049,0.304,-5.337
0.199,0.047,0.305,-5.337
0.205,0.048,0.302,-5.337
0.120,0.050,0.301,-5.337
0.128,0.050,0.301,-5.337
0.175,0.046,0.302,-5.337
0.162,0.050,0.300,-5.337
0.137,0.049,0.304,-5.337
0.151,0.050,0.303,-5.337
0.143,0.052,0.306,-5.337
0.120,0.051,0.306,-5.337
0.138,0.053,0.304,-5.337
0.199,0.052,0.301,-5.337
0.109,0.053,0.303,-5.337
0.090,0.051,0.302,-5.337
0.141,0.047,0.302,-5.337
0.192,0.049,0.306,-5.337
0.184,0.049,0.306,-5.337
0.140,0.049,0.303,-5.337
0.127,0.051,0.305,-5.337
0.183,0.045,0.308,-5.337
0.199,0.041,0.309,-5.337
0.192,0.044,0.305,-5.337
0.238,0.049,0.303,-5.337
0.188,0.050,0.302,-5.337
0.208,0.050,0.304,-5.337
0.245,0.050,0.306,-5.337
0.235,0.050,0.305,-5.337
0.202,0.051,0.306,-5.337
0.246,0.047,0.307,-5.337
0.300,0.050,0.307,-5.337
0.265,0.050,0.301,-5.337
0.221,0.049,0.302,-5.337
0.205,0.048,0.300,-5.337
0.194,0.047,0.300,-5.337
0.209,0.050,0.300,-5.337
0.189,0.052,0.303,-5.337
0.149,0.049,0.303,-5.337
0.155,0.048,0.303,-5.337
0.189,0.046,0.304,-5.337
0.104,0.047,0.304,-5.337
0.055,0.050,0.304,-5.337
0.136,0.048,0.302,-5.337
0.267,0.043,0.300,-5.337
0.271,0.044,0.300,-5.337
0.226,0.046,0.300,-5.337
0.225,0.046,0.302,-5.337
0.197,0.048,0.306,-5.337
0.193,0.049,0.306,-5.337
0.177,0.046,0.300,-5.337
0.251,0.042,0.297,-5.337
0.250,0.043,0.297,-5.337
0.153,0.047,0.298,-5.337
0.172,0.043,0.301,-5.337
0.229,0.042,0.303,-5.337
0.189,0.043,0.305,-5.337
0.226,0.045,0.304,-5.337
0.237,0.049,0.304,-5.337
0.231,0.048,0.302,-5.337
0.209,0.050,0.304,-5.337
0.174,0.051,0.305,-5.337
0.197,0.053,0.305,-5.337
0.222,0.049,0.304,-5.337
0.218,0.046,0.304,-5.337
0.255,0.042,0.304,-5.337
0.252,0.043,0.303,-5.337
0.259,0.042,0.300,-5.337
0.255,0.045,0.299,-5.337
0.220,0.042,0.299,-5.337
0.152,0.044,0.302,-5.337
0.129,0.045,0.305,-5.337
0.217,0.043,0.305,-5.337
0.303,0.039,0.300,-5.337
0.254,0.040,0.297,-5.337
0.205,0.038,0.301,-5.337
0.230,0.036,0.306,-5.337
0.261,0.035,0.307,-5.337
0.224,0.038,0.306,-5.337
0.121,0.043,0.305,-5.337
0.119,0.044,0.305,-5.337
0.204,0.038,0.307,-5.337
0.259,0.035,0.303,-5.337
0.223,0.038,0.302,-5.337
0.205,0.039,0.303,-5.337
0.213,0.040,0.303,-5.337
0.214,0.040,0.299,-5.337
0.171,0.043,0.299,-5.337
0.174,0.040,0.302,-5.337
0.213,0.041,0.304,-5.337
0.249,0.039,0.302,-5.337
0.252,0.038,0.302,-5.337
0.224,0.041,0.302,-5.337
0.196,0.043,0.299,-5.337
0.153,0.047,0.304,-5.337
0.151,0.045,0.308,-5.337
0.184,0.041,0.303,-5.337
0.227,0.041,0.301,-5.337
0.201,0.041,0.303,-5.337
0.164,0.040,0.301,-5.337
0.193,0.039,0.301,-5.337
0.206,0.044,0.301,-5.337
0.169,0.044,0.303,-5.337
0.171,0.041,0.301,-5.337
0.171,0.041,0.297,-5.337
0.233,0.037,0.296,-5.337
0.278,0.035,0.301,-5.337
0.289,0.034,0.304,-5.337
0.258,0.038,0.304,-5.337
0.272,0.036,0.304,-5.337
0.270,0.039,0.304,-5.337
0.283,0.039,0.304,-5.337
0.323,0.036,0.304,-5.337
0.307,0.036,0.303,-5.337
0.268,0.038,0.305,-5.337
0.202,0.039,0.304,-5.337
0.199,0.044,0.303,-5.337
0.209,0.045,0.302,-5.337
0.210,0.043,0.304,-5.337
0.254,0.041,0.306,-5.337
0.246,0.040,0.304,-5.337
0.196,0.044,0.305,-5.337
0.254,0.043,0.302,-5.337
0.311,0.040,0.300,-5.337
0.303,0.040,0.300,-5.337
0.303,0.038,0.303,-5.337
0.303,0.037,0.305,-5.337
0.232,0.045,0.305,-5.337
0.184,0.043,0.303,-5.337
0.218,0.039,0.299,-5.337
0.230,0.040,0.300,-5.337
0.184,0.043,0.299,-5.337
0.226,0.043,0.298,-5.337
0.251,0.042,0.298,-5.337
0.251,0.041,0.300,-5.337
0.231,0.043,0.305,-5.337
0.201,0.044,0.305,-5.337
0.191,0.046,0.305,-5.337
0.232,0.045,0.308,-5.337
0.224,0.046,0.306,-5.337
0.239,0.045,0.305,-5.337
0.284,0.047,0.305,-5.337
0.259,0.047,0.305,-5.337
0.272,0.044,0.304,-5.337
0.237,0.046,0.305,-5.337
0.235,0.042,0.303,-5.337
0.258,0.039,0.302,-5.337
0.263,0.040,0.299,-5.337
0.277,0.040,0.297,-5.337
0.277,0.043,0.298,-5.337
0.267,0.042,0.301,-5.337
0.248,0.044,0.303,-5.337
0.269,0.044,0.304,-5.337
0.265,0.047,0.303,-5.337
0.243,0.048,0.304,-5.337
0.242,0.045,0.303,-5.337
0.252,0.046,0.301,-5.337
0.192,0.046,0.302,-5.337
0.206,0.040,0.302,-5.337
0.226,0.039,0.303,-5.337
0.303,0.039,0.303,-5.337
0.271,0.038,0.305,-5.337
0.240,0.038,0.304,-5.337
0.323,0.034,0.304,-5.337
0.327,0.036,0.303,-5.337
0.254,0.043,0.305,-5.337
0.161,0.048,0.308,-5.337
0.195,0.046,0.308,-5.337
0.260,0.043,0.303,-5.337
0.291,0.042,0.302,-5.337
0.227,0.048,0.304,-5.337
0.201,0.049,0.305,-5.337
0.218,0.046,0.302,-5.337
0.226,0.042,0.298,-5.337
0.255,0.042,0.296,-5.337
0.285,0.042,0.298,-5.337
0.296,0.040,0.301,-5.337
0.236,0.041,0.301,-5.337
0.202,0.041,0.302,-5.337
0.184,0.042,0.306,-5.337
0.189,0.042,0.309,-5.337
0.185,0.043,0.309,-5.337
0.174,0.046,0.305,-5.337
0.197,0.043,0.303,-5.337
0.261,0.043,0.303,-5.337
0.299,0.043,0.303,-5.337
0.293,0.041,0.307,-5.337
0.223,0.043,0.310,-5.337
0.236,0.041,0.308,-5.337
0.304,0.041,0.300,-5.337
0.277,0.038,0.299,-5.337
0.267,0.035,0.301,-5.337
0.265,0.036,0.304,-5.337
0.301,0.036,0.304,-5.337
0.317,0.037,0.307,-5.337
0.329,0.038,0.310,-5.337
0.237,0.038,0.306,-5.337
0.161,0.041,0.301,-5.337
0.196,0.043,0.299,-5.337
0.257,0.043,0.298,-5.337
0.255,0.044,0.304,-5.337
0.232,0.048,0.310,-5.337
0.245,0.048,0.312,-5.337
0.224,0.050,0.309,-5.337
0.254,0.047,0.305,-5.337
0.234,0.047,0.306,-5.337
0.186,0.046,0.305,-5.337
0.218,0.042,0.304,-5.337
0.280,0.041,0.303,-5.337
0.311,0.043,0.304,-5.337
0.250,0.044,0.307,-5.337
0.191,0.045,0.308,-5.337
0.186,0.042,0.304,-5.337
0.204,0.043,0.303,-5.337
0.279,0.041,0.304,-5.337
0.302,0.040,0.306,-5.337
0.242,0.040,0.304,-5.337
0.203,0.043,0.301,-5.337
0.243,0.038,0.302,-5.337
0.303,0.035,0.304,-5.337
0.318,0.035,0.305,-5.337
0.293,0.042,0.309,-5.337
0.265,0.046,0.310,-5.337
0.232,0.043,0.309,-5.337
0.260,0.037,0.307,-5.337
0.263,0.041,0.305,-5.337
0.242,0.042,0.305,-5.337
0.246,0.040,0.304,-5.337
0.267,0.039,0.302,-5.337
0.183,0.044,0.301,-5.337
0.210,0.043,0.304,-5.337
0.245,0.043,0.303,-5.337
0.248,0.042,0.302,-5.337
0.237,0.041,0.301,-5.337
0.235,0.039,0.302,-5.337
0.227,0.045,0.304,-5.337
0.216,0.049,0.304,-5.337
0.158,0.052,0.302,-5.337
0.119,0.052,0.304,-5.337
0.204,0.047,0.303,-5.337
0.226,0.046,0.300,-5.337
0.224,0.045,0.305,-5.337
0.263,0.045,0.309,-5.337
0.223,0.046,0.307,-5.337
0.198,0.045,0.303,-5.337
0.229,0.043,0.303,-5.337
0.226,0.043,0.303,-5.337
0.236,0.040,0.305,-5.337
0.269,0.040,0.304,-5.337
0.279,0.046,0.300,-5.337
0.255,0.048,0.298,-5.337
0.221,0.048,0.304,-5.337
0.229,0.042,0.305,-5.337
0.219,0.045,0.302,-5.337
0.197,0.049,0.299,-5.337
0.160,0.052,0.300,-5.337
0.112,0.050,0.301,-5.337
0.199,0.046,0.301,-5.337
0.273,0.043,0.298,-5.337
0.247,0.042,0.299,-5.337
0.201,0.047,0.299,-5.337
0.142,0.050,0.303,-5.337
0.191,0.048,0.308,-5.337
0.249,0.046,0.310,-5.337
0.224,0.047,0.307,-5.337
0.158,0.048,0.303,-5.337
0.105,0.048,0.298,-5.337
0.111,0.048,0.300,-5.337
0.113,0.052,0.303,-5.337
0.151,0.051,0.304,-5.337
0.176,0.050,0.305,-5.337
0.210,0.049,0.306,-5.337
0.193,0.050,0.305,-5.337
0.184,0.049,0.302,-5.337
0.200,0.049,0.303,-5.337
0.229,0.047,0.301,-5.337
0.214,0.045,0.302,-5.337
0.173,0.050,0.305,-5.337
0.186,0.048,0.304,-5.337
0.226,0.047,0.299,-5.337
0.234,0.050,0.295,-5.337
0.208,0.049,0.297,-5.337
0.189,0.049,0.303,-5.337
0.212,0.050,0.304,-5.337
0.194,0.050,0.302,-5.337
0.174,0.051,0.300,-5.337
0.180,0.051,0.301,-5.337
0.132,0.055,0.304,-5.337
0.096,0.056,0.306,-5.337
0.149,0.053,0.303,-5.337
0.177,0.050,0.302,-5.337
0.192,0.049,0.304,-5.337
0.226,0.049,0.307,-5.337
0.245,0.051,0.310,-5.337
0.252,0.047,0.307,-5.337
0.186,0.046,0.302,-5.337
0.163,0.048,0.298,-5.337
0.198,0.052,0.301,-5.337
0.237,0.051,0.303,-5.337
0.219,0.046,0.304,-5.337
0.267,0.043,0.300,-5.337
0.238,0.046,0.301,-5.337
0.200,0.045,0.307,-5.337
0.181,0.043,0.308,-5.337
0.189,0.042,0.303,-5.337
0.209,0.042,0.299,-5.337
0.250,0.041,0.296,-5.337
0.196,0.044,0.296,-5.337
0.149,0.049,0.298,-5.337
0.176,0.048,0.299,-5.337
0.169,0.049,0.302,-5.337
0.123,0.048,0.304,-5.337
0.158,0.047,0.304,-5.337
0.190,0.048,0.305,-5.337
0.166,0.047,0.303,-5.337
0.147,0.047,0.302,-5.337
0.091,0.051,0.305,-5.337
0.086,0.052,0.305,-5.337
0.114,0.054,0.304,-5.337
0.154,0.052,0.302,-5.337
0.144,0.049,0.300,-5.337
0.064,0.049,0.299,-5.337
0.054,0.051,0.302,-5.337
0.121,0.044,0.304,-5.337
0.181,0.045,0.305,-5.337
0.194,0.043,0.302,-5.337
0.199,0.044,0.301,-5.337
0.206,0.043,0.303,-5.337
0.216,0.045,0.303,-5.337
0.182,0.046,0.302,-5.337
0.162,0.048,0.300,-5.337
0.146,0.053,0.300,-5.337
0.144,0.051,0.299,-5.337
0.174,0.052,0.298,-5.337
0.230,0.048,0.299,-5.337
0.241,0.048,0.302,-5.337
0.188,0.052,0.304,-5.337
0.191,0.052,0.303,-5.337
0.157,0.047,0.299,-5.337
0.187,0.047,0.299,-5.337
0.141,0.052,0.303,-5.337
0.098,0.054,0.307,-5.337
0.102,0.053,0.305,-5.337
0.096,0.052,0.301,-5.337
0.073,0.054,0.300,-5.337
0.081,0.057,0.300,-5.337
0.105,0.054,0.299,-5.337
0.112,0.054,0.302,-5.337
0.098,0.058,0.306,-5.337
0.129,0.053,0.305,-5.337
0.244,0.050,0.303,-5.337
0.219,0.048,0.300,-5.337
0.158,0.051,0.299,-5.337
0.153,0.050,0.302,-5.337
0.154,0.050,0.301,-5.337
0.117,0.053,0.301,-5.337
0.065,0.058,0.302,-5.337
0.136,0.056,0.301,-5.337
0.187,0.051,0.300,-5.337
0.184,0.050,0.300,-5.337
0.152,0.050,0.302,-5.337
0.121,0.049,0.303,-5.337
0.109,0.049,0.305,-5.337
0.073,0.051,0.304,-5.337
0.105,0.052,0.303,-5.337
0.090,0.055,0.302,-5.337
0.061,0.055,0.306,-5.337
0.154,0.054,0.305,-5.337
0.177,0.057,0.303,-5.337
0.077,0.055,0.300,-5.337
0.045,0.056,0.299,-5.337
0.135,0.054,0.299,-5.337
0.169,0.054,0.301,-5.337
0.182,0.053,0.302,-5.337
0.166,0.049,0.303,-5.337
0.152,0.049,0.301,-5.337
0.146,0.053,0.302,-5.337
0.147,0.052,0.300,-5.337
0.098,0.053,0.299,-5.337
0.104,0.054,0.302,-5.337
0.142,0.055,0.304,-5.337
0.155,0.054,0.303,-5.337
0.127,0.055,0.302,-5.337
0.120,0.054,0.302,-5.337
0.092,0.056,0.300,-5.337
0.061,0.056,0.299,-5.337
0.113,0.054,0.301,-5.337
0.167,0.053,0.304,-5.337
0.177,0.055,0.305,-5.337
0.130,0.057,0.305,-5.337
0.083,0.055,0.303,-5.337
0.077,0.058,0.303,-5.337
0.133,0.056,0.303,-5.337
0.205,0.053,0.302,-5.337
0.231,0.052,0.306,-5.337
0.198,0.052,0.307,-5.337
0.220,0.049,0.303,-5.337
0.161,0.051,0.301,-5.337
0.113,0.051,0.298,-5.337
0.139,0.053,0.299,-5.337
0.114,0.054,0.303,-5.337
0.150,0.049,0.305,-5.337
0.201,0.047,0.304,-5.337
0.167,0.052,0.302,-5.337
0.085,0.056,0.303,-5.337
0.083,0.054,0.302,-5.337
0.154,0.050,0.304,-5.337
0.165,0.050,0.304,-5.337
0.129,0.055,0.302,-5.337
0.135,0.054,0.300,-5.337
0.135,0.051,0.300,-5.337
0.132,0.052,0.302,-5.337
0.120,0.054,0.305,-5.337
0.095,0.053,0.303,-5.337
0.146,0.048,0.302,-5.337
0.174,0.047,0.302,-5.337
0.157,0.052,0.302,-5.337
0.148,0.053,0.300,-5.337
0.115,0.054,0.300,-5.337
0.069,0.055,0.300,-5.337
0.061,0.055,0.299,-5.337
0.109,0.056,0.301,-5.337
0.093,0.058,0.303,-5.337
0.069,0.054,0.306,-5.337
0.107,0.052,0.304,-5.337
0.112,0.050,0.303,-5.337
0.142,0.048,0.303,-5.337
0.137,0.050,0.305,-5.337
0.111,0.052,0.304,-5.337
0.117,0.053,0.302,-5.337
0.129,0.053,0.297,-5.337
0.181,0.050,0.301,-5.337
0.211,0.048,0.307,-5.337
0.145,0.049,0.311,-5.337
0.090,0.050,0.307,-5.337
0.104,0.051,0.305,-5.337
0.112,0.050,0.305,-5.337
0.137,0.049,0.306,-5.337
0.142,0.049,0.302,-5.337
0.111,0.051,0.303,-5.337
0.130,0.052,0.304,-5.337
0.198,0.053,0.304,-5.337
0.186,0.050,0.303,-5.337
0.217,0.050,0.302,-5.337
0.252,0.052,0.301,-5.337
0.220,0.054,0.301,-5.337
0.123,0.056,0.301,-5.337
0.116,0.054,0.302,-5.337
0.172,0.052,0.306,-5.337
0.186,0.055,0.306,-5.337
0.165,0.051,0.306,-5.337
0.192,0.051,0.307,-5.337
0.162,0.054,0.308,-5.337
0.107,0.057,0.303,-5.337
0.146,0.056,0.302,-5.337
0.130,0.055,0.304,-5.337
0.083,0.056,0.305,-5.337
0.117,0.055,0.303,-5.337
0.154,0.054,0.302,-5.337
0.188,0.052,0.303,-5.337
0.167,0.054,0.305,-5.337
0.116,0.054,0.306,-5.337
0.087,0.054,0.308,-5.337
0.148,0.054,0.307,-5.337
0.171,0.050,0.303,-5.337
0.196,0.050,0.299,-5.337
0.170,0.053,0.299,-5.337
0.079,0.053,0.299,-5.337
0.074,0.056,0.301,-5.337
0.149,0.055,0.305,-5.337
0.155,0.052,0.307,-5.337
0.172,0.050,0.308,-5.337
0.126,0.055,0.306,-5.337
0.093,0.057,0.310,-5.337
0.126,0.056,0.308,-5.337
0.166,0.052,0.308,-5.337
0.172,0.051,0.310,-5.337
0.156,0.053,0.310,-5.337
0.151,0.050,0.307,-5.337
0.123,0.049,0.306,-5.337
0.108,0.045,0.303,-5.337
0.097,0.045,0.301,-5.337
0.088,0.047,0.301,-5.337
0.079,0.047,0.304,-5.337
0.096,0.047,0.304,-5.337
0.243,0.048,0.307,-5.337
0.297,0.047,0.308,-5.337
0.185,0.050,0.306,-5.337
0.098,0.053,0.305,-5.337
0.124,0.049,0.304,-5.337
0.182,0.046,0.305,-5.337
0.221,0.051,0.305,-5.337
0.173,0.055,0.306,-5.337
0.159,0.054,0.305,-5.337
0.167,0.054,0.304,-5.337
0.175,0.053,0.304,-5.337
0.174,0.055,0.307,-5.337
0.146,0.053,0.302,-5.337
0.126,0.054,0.299,-5.337
0.109,0.052,0.300,-5.337
0.115,0.052,0.305,-5.337
0.129,0.049,0.308,-5.337
0.164,0.049,0.309,-5.337
0.228,0.046,0.305,-5.337
0.185,0.050,0.301,-5.337
0.135,0.048,0.302,-5.337
0.145,0.047,0.304,-5.337
0.183,0.042,0.304,-5.337
0.197,0.039,0.306,-5.337
0.212,0.037,0.309,-5.337
0.213,0.040,0.304,-5.337
0.192,0.043,0.300,-5.337
0.203,0.045,0.301,-5.337
0.170,0.045,0.306,-5.337
0.093,0.043,0.305,-5.337
0.149,0.042,0.304,-5.337
0.169,0.045,0.303,-5.337
0.165,0.047,0.306,-5.337
0.135,0.044,0.304,-5.337
0.150,0.039,0.304,-5.337
0.193,0.038,0.304,-5.337
0.234,0.039,0.301,-5.337
0.242,0.038,0.298,-5.337
0.212,0.038,0.299,-5.337
0.215,0.039,0.300,-5.337
0.229,0.043,0.303,-5.337
0.201,0.044,0.306,-5.337
0.168,0.044,0.309,-5.337
0.151,0.044,0.307,-5.337
0.194,0.043,0.304,-5.337
0.181,0.046,0.302,-5.337
0.227,0.046,0.301,-5.337
0.213,0.045,0.305,-5.337
0.155,0.043,0.305,-5.337
0.229,0.041,0.303,-5.337
0.211,0.043,0.300,-5.337
0.134,0.046,0.300,-5.337
0.156,0.046,0.303,-5.337
0.160,0.046,0.307,-5.337
0.147,0.044,0.306,-5.337
0.197,0.045,0.306,-5.337
0.232,0.046,0.306,-5.337
0.182,0.047,0.307,-5.337
0.110,0.046,0.306,-5.337
0.126,0.041,0.305,-5.337
0.199,0.040,0.303,-5.337
0.184,0.043,0.301,-5.337
0.178,0.044,0.301,-5.337
0.280,0.042,0.300,-5.337
0.289,0.041,0.297,-5.337
0.227,0.045,0.300,-5.337
0.217,0.042,0.305,-5.337
0.213,0.044,0.308,-5.337
0.208,0.044,0.306,-5.337
0.193,0.048,0.303,-5.337
0.147,0.049,0.301,-5.337
0.206,0.046,0.299,-5.337
0.227,0.046,0.299,-5.337
0.238,0.044,0.303,-5.337
0.175,0.044,0.303,-5.337
0.098,0.044,0.304,-5.337
0.170,0.042,0.306,-5.337
0.208,0.039,0.305,-5.337
0.237,0.039,0.307,-5.337
0.269,0.039,0.306,-5.337
0.280,0.041,0.304,-5.337
0.251,0.041,0.302,-5.337
0.210,0.044,0.303,-5.337
0.240,0.040,0.301,-5.337
0.232,0.039,0.303,-5.337
0.246,0.042,0.304,-5.337
0.261,0.043,0.303,-5.337
0.214,0.043,0.302,-5.337
0.174,0.044,0.301,-5.337
0.180,0.044,0.300,-5.337
0.203,0.044,0.300,-5.337
0.224,0.046,0.300,-5.337
0.177,0.044,0.300,-5.337
0.140,0.041,0.302,-5.337
0.236,0.035,0.304,-5.337
0.346,0.032,0.304,-5.337
0.356,0.036,0.303,-5.337
0.322,0.038,0.307,-5.337
0.256,0.037,0.306,-5.337
0.274,0.039,0.304,-5.337
0.270,0.040,0.303,-5.337
0.210,0.040,0.301,-5.337
0.198,0.039,0.298,-5.337
0.246,0.039,0.301,-5.337
0.254,0.039,0.305,-5.337
0.219,0.042,0.304,-5.337
0.206,0.042,0.303,-5.337
0.222,0.039,0.303,-5.337
0.233,0.038,0.304,-5.337
0.199,0.044,0.307,-5.337
0.219,0.044,0.311,-5.337
0.219,0.041,0.309,-5.337
0.229,0.040,0.306,-5.337
0.229,0.042,0.302,-5.337
0.182,0.042,0.297,-5.337
0.196,0.040,0.298,-5.337
0.177,0.039,0.301,-5.337
0.161,0.039,0.305,-5.337
0.206,0.042,0.303,-5.337
0.191,0.044,0.301,-5.337
0.225,0.043,0.303,-5.337
0.206,0.043,0.302,-5.337
0.264,0.041,0.304,-5.337
0.276,0.042,0.306,-5.337
0.228,0.042,0.307,-5.337
0.265,0.041,0.305,-5.337
0.259,0.046,0.305,-5.337
0.221,0.043,0.303,-5.337
0.211,0.043,0.302,-5.337
0.211,0.041,0.304,-5.337
0.237,0.038,0.306,-5.337
0.275,0.036,0.304,-5.337
0.263,0.039,0.300,-5.337
0.165,0.041,0.295,-5.337
0.115,0.044,0.298,-5.337
0.202,0.039,0.301,-5.337
0.230,0.041,0.300,-5.337
0.183,0.042,0.302,-5.337
0.167,0.041,0.305,-5.337
0.257,0.037,0.306,-5.337
0.376,0.036,0.304,-5.337
0.347,0.036,0.302,-5.337
0.259,0.041,0.300,-5.337
0.241,0.040,0.303,-5.337
0.243,0.037,0.306,-5.337
0.237,0.036,0.310,-5.337
0.235,0.039,0.307,-5.337
0.248,0.040,0.302,-5.337
0.271,0.039,0.297,-5.337
0.262,0.039,0.298,-5.337
0.288,0.038,0.300,-5.337
0.252,0.043,0.300,-5.337
0.194,0.043,0.302,-5.337
0.224,0.042,0.302,-5.337
0.329,0.037,0.300,-5.337
0.263,0.038,0.302,-5.337
0.193,0.040,0.304,-5.337
0.157,0.042,0.301,-5.337
0.217,0.039,0.300,-5.337
0.245,0.040,0.301,-5.337
0.193,0.041,0.305,-5.337
0.184,0.043,0.307,-5.337
0.223,0.043,0.305,-5.337
0.259,0.039,0.303,-5.337
0.274,0.038,0.305,-5.337
0.319,0.035,0.303,-5.337
0.299,0.036,0.302,-5.337
0.241,0.040,0.302,-5.337
0.223,0.043,0.304,-5.337
0.217,0.044,0.303,-5.337
0.176,0.042,0.301,-5.337
0.185,0.041,0.300,-5.337
0.222,0.041,0.300,-5.337
0.230,0.042,0.303,-5.337
0.201,0.041,0.305,-5.337
0.187,0.043,0.303,-5.337
0.194,0.043,0.304,-5.337
0.191,0.044,0.305,-5.337
0.230,0.042,0.304,-5.337
0.265,0.043,0.301,-5.337
0.222,0.043,0.302,-5.337
0.225,0.041,0.305,-5.337
0.309,0.036,0.304,-5.337
0.368,0.035,0.302,-5.337
0.322,0.036,0.299,-5.337
0.317,0.038,0.301,-5.337
0.262,0.040,0.302,-5.337
0.233,0.040,0.302,-5.337
0.247,0.042,0.301,-5.337
0.228,0.043,0.301,-5.337
0.207,0.046,0.301,-5.337
0.205,0.050,0.301,-5.337
0.242,0.045,0.303,-5.337
0.275,0.044,0.306,-5.337
0.299,0.043,0.307,-5.337
0.331,0.042,0.304,-5.337
0.301,0.044,0.303,-5.337
0.273,0.046,0.306,-5.337
0.266,0.045,0.302,-5.337
0.287,0.043,0.300,-5.337
0.246,0.043,0.302,-5.337
0.179,0.046,0.303,-5.337
0.260,0.043,0.299,-5.337
0.317,0.042,0.299,-5.337
0.283,0.039,0.303,-5.337
0.240,0.040,0.302,-5.337
0.193,0.042,0.301,-5.337
0.249,0.040,0.302,-5.337
0.307,0.042,0.304,-5.337
0.261,0.042,0.304,-5.337
0.241,0.040,0.305,-5.337
0.245,0.039,0.304,-5.337
0.246,0.040,0.305,-5.337
0.185,0.044,0.302,-5.337
0.150,0.042,0.301,-5.337
0.238,0.033,0.301,-5.337
0.279,0.037,0.303,-5.337
0.248,0.038,0.305,-5.337
0.211,0.039,0.305,-5.337
0.238,0.039,0.306,-5.337
0.234,0.040,0.308,-5.337
0.194,0.043,0.309,-5.337
0.223,0.042,0.304,-5.337
0.305,0.040,0.303,-5.337
0.265,0.043,0.303,-5.337
0.211,0.040,0.302,-5.337
0.233,0.041,0.301,-5.337
0.263,0.043,0.302,-5.337
0.245,0.042,0.303,-5.337
0.232,0.038,0.303,-5.337
0.284,0.037,0.301,-5.337
0.278,0.037,0.297,-5.337
0.201,0.042,0.296,-5.337
0.210,0.041,0.299,-5.337
0.257,0.041,0.300,-5.337
0.256,0.041,0.303,-5.337
0.265,0.041,0.307,-5.337
0.270,0.042,0.311,-5.337
0.250,0.041,0.309,-5.337
0.226,0.044,0.307,-5.337
0.167,0.047,0.303,-5.337
0.239,0.042,0.299,-5.337
0.285,0.040,0.300,-5.337
0.300,0.043,0.303,-5.337
0.210,0.046,0.302,-5.337
0.166,0.050,0.303,-5.337
0.205,0.048,0.304,-5.337
0.183,0.047,0.303,-5.337
0.116,0.050,0.304,-5.337
0.149,0.045,0.307,-5.337
0.219,0.042,0.309,-5.337
0.249,0.046,0.305,-5.337
0.230,0.047,0.305,-5.337
0.187,0.047,0.308,-5.337
0.191,0.046,0.309,-5.337
0.244,0.043,0.303,-5.337
0.212,0.044,0.303,-5.337
0.167,0.043,0.306,-5.337
0.157,0.043,0.309,-5.337
0.196,0.042,0.307,-5.337
0.252,0.042,0.304,-5.337
0.250,0.042,0.302,-5.337
0.258,0.041,0.301,-5.337
0.228,0.044,0.305,-5.337
0.224,0.043,0.309,-5.337
0.258,0.043,0.307,-5.337
0.303,0.043,0.304,-5.337
0.252,0.044,0.304,-5.337
0.206,0.042,0.303,-5.337
0.187,0.042,0.302,-5.337
0.147,0.044,0.301,-5.337
0.171,0.043,0.301,-5.337
0.155,0.041,0.301,-5.337
0.170,0.041,0.304,-5.337
0.211,0.043,0.307,-5.337
0.228,0.043,0.309,-5.337
0.180,0.044,0.305,-5.337
0.185,0.042,0.303,-5.337
0.216,0.045,0.303,-5.337
0.249,0.046,0.304,-5.337
0.223,0.044,0.303,-5.337
0.149,0.045,0.308,-5.337
0.126,0.047,0.309,-5.337
0.190,0.046,0.309,-5.337
0.170,0.047,0.308,-5.337
0.156,0.048,0.308,-5.337
0.202,0.045,0.306,-5.337
0.253,0.045,0.300,-5.337
0.246,0.046,0.297,-5.337
0.224,0.049,0.299,-5.337
0.202,0.050,0.306,-5.337
0.185,0.048,0.308,-5.337
0.200,0.048,0.307,-5.337
0.130,0.049,0.307,-5.337
0.123,0.048,0.306,-5.337
0.137,0.046,0.300,-5.337
0.146,0.044,0.300,-5.337
0.173,0.046,0.301,-5.337
0.187,0.050,0.304,-5.337
0.168,0.049,0.305,-5.337
0.220,0.048,0.304,-5.337
0.215,0.048,0.301,-5.337
0.220,0.046,0.300,-5.337
0.181,0.046,0.300,-5.337
0.171,0.048,0.300,-5.337
0.203,0.044,0.305,-5.337
0.215,0.041,0.307,-5.337
0.161,0.043,0.307,-5.337
0.136,0.042,0.307,-5.337
0.134,0.043,0.305,-5.337
0.156,0.044,0.301,-5.337
0.173,0.045,0.298,-5.337
0.161,0.050,0.302,-5.337
0.094,0.052,0.305,-5.337
0.072,0.050,0.306,-5.337
0.137,0.048,0.308,-5.337
0.211,0.045,0.306,-5.337
0.178,0.046,0.304,-5.337
0.142,0.045,0.303,-5.337
0.131,0.048,0.304,-5.337
0.101,0.045,0.301,-5.337
0.099,0.048,0.299,-5.337
0.154,0.048,0.302,-5.337
0.187,0.050,0.306,-5.337
0.220,0.049,0.307,-5.337
0.228,0.052,0.307,-5.337
0.186,0.051,0.303,-5.337
0.155,0.048,0.300,-5.337
0.120,0.049,0.301,-5.337
0.118,0.048,0.303,-5.337
0.128,0.048,0.305,-5.337
0.163,0.047,0.306,-5.337
0.187,0.047,0.302,-5.337
0.135,0.047,0.300,-5.337
0.131,0.046,0.301,-5.337
0.153,0.046,0.300,-5.337
0.220,0.044,0.301,-5.337
0.229,0.046,0.303,-5.337
0.193,0.046,0.308,-5.337
0.143,0.047,0.308,-5.337
0.110,0.047,0.305,-5.337
0.098,0.046,0.302,-5.337
0.151,0.046,0.301,-5.337
0.181,0.045,0.299,-5.337
0.167,0.047,0.300,-5.337
0.128,0.046,0.300,-5.337
0.106,0.050,0.302,-5.337
0.091,0.052,0.301,-5.337
0.175,0.051,0.300,-5.337
0.221,0.047,0.300,-5.337
0.154,0.047,0.303,-5.337
0.139,0.047,0.303,-5.337
0.121,0.052,0.304,-5.337
0.107,0.053,0.304,-5.337
0.136,0.054,0.303,-5.337
0.154,0.052,0.301,-5.337
0.156,0.054,0.300,-5.337
0.133,0.054,0.306,-5.337
0.151,0.052,0.306,-5.337
0.143,0.049,0.304,-5.337
0.175,0.049,0.302,-5.337
0.168,0.052,0.307,-5.337
0.182,0.054,0.307,-5.337
0.196,0.055,0.305,-5.337
0.177,0.059,0.302,-5.337
0.139,0.057,0.301,-5.337
0.177,0.053,0.298,-5.337
0.142,0.057,0.299,-5.337
0.126,0.054,0.299,-5.337
0.161,0.054,0.302,-5.337
0.130,0.057,0.303,-5.337
0.040,0.060,0.301,-5.337
0.034,0.057,0.296,-5.337
0.066,0.057,0.295,-5.337
0.084,0.060,0.296,-5.337
0.178,0.060,0.297,-5.337
0.138,0.058,0.299,-5.337
0.079,0.060,0.301,-5.337
0.141,0.058,0.306,-5.337
0.180,0.052,0.306,-5.337
0.142,0.053,0.304,-5.337
0.153,0.053,0.302,-5.337
0.179,0.053,0.301,-5.337
0.172,0.051,0.301,-5.337
0.140,0.048,0.303,-5.337
0.218,0.048,0.302,-5.337
0.281,0.050,0.304,-5.337
0.267,0.049,0.302,-5.337
0.177,0.052,0.304,-5.337
0.143,0.052,0.304,-5.337
0.099,0.057,0.304,-5.337
0.047,0.057,0.304,-5.337
0.065,0.057,0.300,-5.337
0.069,0.057,0.294,-5.337
0.108,0.057,0.297,-5.337
0.143,0.053,0.303,-5.337
0.118,0.049,0.308,-5.337
0.076,0.050,0.306,-5.337
0.119,0.052,0.304,-5.337
0.147,0.057,0.302,-5.337
0.176,0.053,0.300,-5.337
0.226,0.051,0.297,-5.337
0.173,0.054,0.298,-5.337
0.165,0.054,0.297,-5.337
0.142,0.051,0.295,-5.337
0.137,0.048,0.300,-5.337
0.156,0.046,0.304,-5.337
0.204,0.049,0.303,-5.337
0.198,0.051,0.297,-5.337
0.123,0.049,0.299,-5.337
0.072,0.048,0.304,-5.337
0.123,0.048,0.307,-5.337
0.156,0.048,0.306,-5.337
0.126,0.051,0.307,-5.337
0.095,0.052,0.307,-5.337
0.127,0.049,0.303,-5.337
0.172,0.052,0.302,-5.337
0.168,0.054,0.303,-5.337
0.121,0.055,0.301,-5.337
0.123,0.051,0.301,-5.337
0.107,0.050,0.303,-5.337
0.112,0.054,0.304,-5.337
0.153,0.057,0.302,-5.337
0.112,0.058,0.299,-5.337
0.138,0.057,0.299,-5.337
0.140,0.057,0.298,-5.337
0.096,0.055,0.303,-5.337
0.129,0.053,0.311,-5.337
0.192,0.052,0.311,-5.337
0.168,0.051,0.303,-5.337
0.082,0.053,0.299,-5.337
0.101,0.052,0.301,-5.337
0.129,0.050,0.306,-5.337
0.108,0.050,0.306,-5.337
0.160,0.050,0.301,-5.337
0.185,0.053,0.297,-5.337
0.173,0.054,0.296,-5.337
0.122,0.054,0.298,-5.337
0.101,0.056,0.302,-5.337
0.110,0.058,0.303,-5.337
0.164,0.058,0.304,-5.337
0.123,0.058,0.302,-5.337
0.098,0.058,0.301,-5.337
0.077,0.058,0.298,-5.337
0.099,0.057,0.299,-5.337
0.132,0.055,0.306,-5.337
0.151,0.058,0.309,-5.337
0.114,0.054,0.309,-5.337
0.129,0.052,0.304,-5.337
0.164,0.055,0.301,-5.337
0.175,0.054,0.298,-5.337
0.231,0.053,0.300,-5.337
0.216,0.049,0.297,-5.337
0.181,0.051,0.300,-5.337
0.187,0.054,0.302,-5.337
0.164,0.053,0.305,-5.337
0.170,0.048,0.305,-5.337
0.184,0.051,0.305,-5.337
0.154,0.055,0.300,-5.337
0.162,0.055,0.298,-5.337
0.197,0.056,0.299,-5.337
0.204,0.055,0.301,-5.337
0.179,0.054,0.303,-5.337
0.143,0.055,0.303,-5.337
0.072,0.056,0.304,-5.337
0.103,0.057,0.305,-5.337
0.082,0.058,0.304,-5.337
0.096,0.052,0.303,-5.337
0.163,0.050,0.305,-5.337
0.159,0.051,0.300,-5.337
0.157,0.055,0.297,-5.337
0.155,0.055,0.301,-5.337
0.159,0.055,0.305,-5.337
0.180,0.054,0.303,-5.337
0.120,0.055,0.301,-5.337
0.104,0.055,0.301,-5.337
0.175,0.050,0.302,-5.337
0.187,0.046,0.298,-5.337
0.163,0.049,0.298,-5.337
0.103,0.054,0.304,-5.337
0.099,0.050,0.307,-5.337
0.140,0.046,0.305,-5.337
0.167,0.045,0.300,-5.337
0.155,0.045,0.301,-5.337
0.171,0.046,0.305,-5.337
0.204,0.050,0.306,-5.337
0.137,0.053,0.306,-5.337
0.056,0.055,0.307,-5.337
0.058,0.055,0.304,-5.337
0.116,0.052,0.299,-5.337
0.163,0.050,0.296,-5.337
0.139,0.053,0.301,-5.337
0.167,0.050,0.305,-5.337
0.177,0.047,0.305,-5.337
0.160,0.043,0.305,-5.337
0.175,0.047,0.305,-5.337
0.199,0.047,0.302,-5.337
0.213,0.046,0.303,-5.337
0.236,0.048,0.303,-5.337
0.136,0.052,0.302,-5.337
0.121,0.054,0.303,-5.337
0.179,0.052,0.305,-5.337
0.203,0.047,0.302,-5.337
0.198,0.047,0.300,-5.337
0.239,0.050,0.301,-5.337
0.211,0.051,0.304,-5.337
0.146,0.054,0.304,-5.337
0.142,0.051,0.304,-5.337
0.206,0.049,0.304,-5.337
0.232,0.048,0.305,-5.337
0.200,0.048,0.303,-5.337
0.179,0.050,0.303,-5.337
0.128,0.051,0.302,-5.337
0.139,0.050,0.300,-5.337
0.181,0.046,0.301,-5.337
0.148,0.045,0.301,-5.337
0.155,0.048,0.301,-5.337
0.171,0.053,0.301,-5.337
0.191,0.053,0.305,-5.337
0.189,0.047,0.310,-5.337
0.222,0.043,0.310,-5.337
0.252,0.042,0.308,-5.337
0.238,0.051,0.304,-5.337
0.151,0.049,0.301,-5.337
0.123,0.048,0.302,-5.337
0.138,0.048,0.306,-5.337
0.168,0.048,0.305,-5.337
0.166,0.045,0.304,-5.337
0.217,0.042,0.304,-5.337
0.260,0.043,0.299,-5.337
0.193,0.045,0.298,-5.337
0.188,0.043,0.299,-5.337
0.198,0.041,0.301,-5.337
0.211,0.043,0.303,-5.337
0.187,0.047,0.305,-5.337
0.120,0.049,0.307,-5.337
0.122,0.051,0.305,-5.337
0.157,0.049,0.305,-5.337
0.204,0.048,0.306,-5.337
0.223,0.051,0.305,-5.337
0.216,0.048,0.302,-5.337
0.257,0.045,0.302,-5.337
0.249,0.046,0.303,-5.337
0.179,0.048,0.305,-5.337
0.186,0.045,0.306,-5.337
0.210,0.042,0.305,-5.337
0.193,0.042,0.304,-5.337
0.231,0.043,0.304,-5.337
0.269,0.043,0.303,-5.337
0.265,0.043,0.303,-5.337
0.231,0.046,0.301,-5.337
0.210,0.044,0.300,-5.337
0.193,0.043,0.302,-5.337
0.211,0.041,0.303,-5.337
0.220,0.039,0.306,-5.337
0.224,0.041,0.307,-5.337
0.237,0.043,0.307,-5.337
0.251,0.043,0.304,-5.337
0.199,0.045,0.303,-5.337
0.157,0.048,0.299,-5.337
0.178,0.045,0.298,-5.337
0.213,0.041,0.302,-5.337
0.165,0.044,0.304,-5.337
0.151,0.045,0.298,-5.337
0.163,0.045,0.295,-5.337
0.196,0.044,0.294,-5.337
0.190,0.045,0.298,-5.337
0.115,0.047,0.308,-5.337
0.097,0.047,0.313,-5.337
0.189,0.045,0.309,-5.337
0.269,0.042,0.305,-5.337
0.318,0.042,0.302,-5.337
0.340,0.040,0.304,-5.337
0.304,0.041,0.307,-5.337
0.246,0.040,0.307,-5.337
0.222,0.042,0.306,-5.337
0.207,0.044,0.305,-5.337
0.198,0.043,0.302,-5.337
0.204,0.044,0.297,-5.337
0.204,0.042,0.300,-5.337
0.161,0.044,0.304,-5.337
0.154,0.044,0.304,-5.337
0.218,0.044,0.299,-5.337
0.244,0.044,0.298,-5.337
0.248,0.043,0.299,-5.337
0.221,0.042,0.300,-5.337
0.186,0.043,0.302,-5.337
0.168,0.043,0.304,-5.337
0.244,0.038,0.305,-5.337
0.252,0.042,0.305,-5.337
0.222,0.043,0.304,-5.337
0.217,0.043,0.301,-5.337
0.217,0.044,0.300,-5.337
0.218,0.045,0.299,-5.337
0.228,0.045,0.298,-5.337
0.217,0.047,0.300,-5.337
0.188,0.048,0.306,-5.337
0.213,0.045,0.306,-5.337
0.216,0.046,0.305,-5.337
0.251,0.046,0.304,-5.337
0.269,0.045,0.305,-5.337
0.195,0.042,0.304,-5.337
0.211,0.042,0.304,-5.337
0.280,0.043,0.299,-5.337
0.358,0.041,0.298,-5.337
0.353,0.040,0.299,-5.337
0.268,0.041,0.303,-5.337
0.241,0.038,0.301,-5.337
0.268,0.039,0.301,-5.337
0.263,0.039,0.300,-5.337
0.270,0.041,0.303,-5.337
0.266,0.042,0.304,-5.337
0.261,0.041,0.302,-5.337
0.226,0.042,0.301,-5.337
0.206,0.039,0.304,-5.337
0.226,0.035,0.305,-5.337
0.253,0.036,0.305,-5.337
0.232,0.037,0.304,-5.337
0.153,0.042,0.303,-5.337
0.170,0.043,0.303,-5.337
0.189,0.043,0.302,-5.337
0.157,0.046,0.303,-5.337
0.162,0.043,0.302,-5.337
0.230,0.040,0.300,-5.337
0.312,0.039,0.298,-5.337
0.317,0.042,0.300,-5.337
0.244,0.042,0.301,-5.337
0.232,0.042,0.302,-5.337
0.196,0.040,0.302,-5.337
0.275,0.035,0.303,-5.337
0.318,0.033,0.302,-5.337
0.307,0.038,0.302,-5.337
0.225,0.041,0.304,-5.337
0.214,0.039,0.306,-5.337
0.208,0.040,0.303,-5.337
0.226,0.043,0.297,-5.337
0.251,0.040,0.295,-5.337
0.242,0.042,0.298,-5.337
0.251,0.042,0.301,-5.337
0.330,0.040,0.301,-5.337
0.351,0.040,0.304,-5.337
0.315,0.043,0.305,-5.337
0.240,0.044,0.303,-5.337
0.286,0.041,0.300,-5.337
0.315,0.040,0.298,-5.337
0.303,0.039,0.299,-5.337
0.292,0.040,0.304,-5.337
0.298,0.040,0.303,-5.337
0.251,0.043,0.302,-5.337
0.232,0.040,0.302,-5.337
0.226,0.037,0.305,-5.337
0.205,0.041,0.303,-5.337
0.236,0.042,0.300,-5.337
0.288,0.042,0.298,-5.337
0.217,0.046,0.302,-5.337
0.228,0.041,0.303,-5.337
0.352,0.036,0.301,-5.337
0.311,0.037,0.299,-5.337
0.243,0.040,0.303,-5.337
0.184,0.042,0.304,-5.337
0.215,0.043,0.302,-5.337
0.258,0.040,0.299,-5.337
0.288,0.037,0.296,-5.337
0.265,0.038,0.294,-5.337
0.250,0.042,0.295,-5.337
0.256,0.045,0.303,-5.337
0.263,0.042,0.305,-5.337
0.271,0.042,0.305,-5.337
0.255,0.043,0.302,-5.337
0.165,0.044,0.301,-5.337
0.151,0.042,0.301,-5.337
0.197,0.043,0.304,-5.337
0.195,0.045,0.305,-5.337
0.229,0.043,0.305,-5.337
0.287,0.038,0.303,-5.337
0.287,0.034,0.299,-5.337
0.251,0.038,0.301,-5.337
0.276,0.042,0.300,-5.337
0.285,0.041,0.299,-5.337
0.324,0.037,0.298,-5.337
0.264,0.036,0.301,-5.337
0.214,0.035,0.299,-5.337
0.228,0.037,0.296,-5.337
0.250,0.039,0.297,-5.337
0.268,0.040,0.299,-5.337
0.259,0.038,0.301,-5.337
0.221,0.037,0.300,-5.337
0.211,0.036,0.301,-5.337
0.192,0.035,0.301,-5.337
0.230,0.035,0.303,-5.337
0.277,0.033,0.303,-5.337
0.267,0.032,0.301,-5.337
0.239,0.036,0.298,-5.337
0.270,0.037,0.296,-5.337
0.245,0.038,0.302,-5.337
0.230,0.034,0.303,-5.337
0.243,0.039,0.302,-5.337
0.247,0.043,0.306,-5.337
0.276,0.040,0.307,-5.337
0.243,0.038,0.301,-5.337
0.273,0.035,0.296,-5.337
0.308,0.036,0.296,-5.337
0.278,0.037,0.302,-5.337
0.235,0.037,0.304,-5.337
0.230,0.040,0.301,-5.337
0.270,0.036,0.301,-5.337
0.322,0.032,0.299,-5.337
0.341,0.032,0.299,-5.337
0.303,0.036,0.298,-5.337
0.285,0.037,0.303,-5.337
0.299,0.035,0.306,-5.337
0.294,0.035,0.306,-5.337
0.278,0.030,0.300,-5.337
0.269,0.033,0.301,-5.337
0.227,0.035,0.301,-5.337
0.243,0.034,0.301,-5.337
0.285,0.035,0.299,-5.337
0.218,0.037,0.302,-5.337
0.195,0.037,0.301,-5.337
0.228,0.037,0.300,-5.337
0.254,0.035,0.298,-5.337
0.303,0.036,0.299,-5.337
0.273,0.036,0.302,-5.337
0.248,0.037,0.302,-5.337
0.276,0.038,0.298,-5.337
0.232,0.041,0.296,-5.337
0.190,0.042,0.298,-5.337
0.255,0.043,0.301,-5.337
0.253,0.043,0.302,-5.337
0.216,0.043,0.303,-5.337
0.204,0.040,0.304,-5.337
0.241,0.038,0.301,-5.337
0.309,0.039,0.300,-5.337
0.325,0.041,0.297,-5.337
0.274,0.042,0.300,-5.337
0.204,0.042,0.306,-5.337
0.268,0.038,0.306,-5.337
0.224,0.041,0.302,-5.337
0.221,0.038,0.301,-5.337
0.294,0.038,0.302,-5.337
0.278,0.040,0.301,-5.337
0.272,0.038,0.301,-5.337
0.216,0.036,0.304,-5.337
0.203,0.034,0.305,-5.337
0.226,0.035,0.306,-5.337
0.234,0.040,0.308,-5.337
0.199,0.044,0.305,-5.337
0.152,0.047,0.301,-5.337
0.166,0.043,0.302,-5.337
0.233,0.044,0.304,-5.337
0.264,0.043,0.301,-5.337
0.264,0.042,0.299,-5.337
0.279,0.043,0.300,-5.337
0.235,0.043,0.299,-5.337
0.235,0.039,0.303,-5.337
0.257,0.042,0.306,-5.337
0.181,0.048,0.301,-5.337
0.187,0.047,0.302,-5.337
0.209,0.046,0.303,-5.337
0.174,0.047,0.303,-5.337
0.158,0.048,0.297,-5.337
0.165,0.044,0.295,-5.337
0.161,0.043,0.297,-5.337
0.170,0.043,0.302,-5.337
0.149,0.045,0.303,-5.337
0.202,0.043,0.301,-5.337
0.207,0.042,0.301,-5.337
0.192,0.043,0.303,-5.337
0.182,0.045,0.303,-5.337
0.243,0.040,0.302,-5.337
0.256,0.037,0.301,-5.337
0.275,0.039,0.299,-5.337
0.232,0.044,0.302,-5.337
0.228,0.043,0.310,-5.337
0.259,0.039,0.310,-5.337
0.273,0.041,0.302,-5.337
0.253,0.043,0.297,-5.337
0.236,0.045,0.298,-5.337
0.186,0.051,0.300,-5.337
0.168,0.052,0.296,-5.337
0.203,0.047,0.299,-5.337
0.177,0.047,0.302,-5.337
0.196,0.048,0.308,-5.337
0.165,0.046,0.307,-5.337
0.167,0.049,0.306,-5.337
0.214,0.050,0.304,-5.337
0.170,0.051,0.301,-5.337
0.134,0.051,0.297,-5.337
0.159,0.050,0.297,-5.337
0.168,0.053,0.300,-5.337
0.169,0.052,0.305,-5.337
0.169,0.049,0.308,-5.337
0.208,0.048,0.308,-5.337
0.240,0.047,0.308,-5.337
0.270,0.046,0.306,-5.337
0.259,0.044,0.302,-5.337
0.188,0.048,0.302,-5.337
0.200,0.048,0.301,-5.337
0.178,0.052,0.300,-5.337
0.130,0.048,0.302,-5.337
0.131,0.045,0.303,-5.337
0.136,0.046,0.305,-5.337
0.144,0.049,0.304,-5.337
0.147,0.048,0.306,-5.337
0.184,0.044,0.306,-5.337
0.185,0.046,0.305,-5.337
0.142,0.050,0.302,-5.337
0.144,0.050,0.305,-5.337
0.185,0.045,0.307,-5.337
0.216,0.045,0.305,-5.337
0.231,0.046,0.302,-5.337
0.246,0.047,0.305,-5.337
0.156,0.050,0.306,-5.337
0.155,0.048,0.302,-5.337
0.167,0.049,0.296,-5.337
0.177,0.049,0.295,-5.337
0.186,0.051,0.298,-5.337
0.214,0.050,0.303,-5.337
0.199,0.053,0.305,-5.337
0.168,0.053,0.303,-5.337
0.215,0.048,0.303,-5.337
0.240,0.045,0.302,-5.337
0.229,0.046,0.306,-5.337
0.237,0.047,0.303,-5.337
0.247,0.047,0.302,-5.337
0.170,0.049,0.300,-5.337
0.130,0.052,0.303,-5.337
0.140,0.051,0.305,-5.337
0.169,0.055,0.307,-5.337
0.173,0.053,0.305,-5.337
0.166,0.057,0.301,-5.337
0.180,0.055,0.298,-5.337
0.187,0.053,0.299,-5.337
0.204,0.049,0.302,-5.337
0.214,0.051,0.305,-5.337
0.163,0.054,0.308,-5.337
0.097,0.059,0.307,-5.337
0.062,0.056,0.304,-5.337
0.034,0.056,0.300,-5.337
0.046,0.054,0.302,-5.337
0.074,0.054,0.303,-5.337
0.124,0.050,0.302,-5.337
0.186,0.047,0.303,-5.337
0.239,0.047,0.304,-5.337
0.188,0.051,0.300,-5.337
0.181,0.051,0.300,-5.337
0.160,0.050,0.299,-5.337
0.137,0.050,0.301,-5.337
0.095,0.052,0.302,-5.337
0.169,0.049,0.302,-5.337
0.213,0.049,0.298,-5.337
0.139,0.054,0.300,-5.337
0.100,0.053,0.301,-5.337
0.152,0.053,0.301,-5.337
0.122,0.051,0.301,-5.337
0.123,0.050,0.305,-5.337
0.181,0.045,0.306,-5.337
0.186,0.042,0.306,-5.337
0.181,0.042,0.304,-5.337
0.137,0.045,0.305,-5.337
0.125,0.049,0.301,-5.337
0.163,0.050,0.298,-5.337
0.151,0.051,0.297,-5.337
0.116,0.051,0.298,-5.337
0.108,0.050,0.300,-5.337
0.131,0.048,0.300,-5.337
0.167,0.048,0.301,-5.337
0.222,0.049,0.300,-5.337
0.211,0.050,0.300,-5.337
0.174,0.050,0.299,-5.337
0.125,0.051,0.298,-5.337
0.163,0.050,0.298,-5.337
0.174,0.053,0.305,-5.337
0.140,0.055,0.306,-5.337
0.168,0.052,0.304,-5.337
0.200,0.052,0.299,-5.337
0.087,0.055,0.299,-5.337
0.096,0.052,0.303,-5.337
0.184,0.050,0.303,-5.337
0.104,0.053,0.301,-5.337
0.088,0.055,0.301,-5.337
0.128,0.054,0.300,-5.337
0.154,0.050,0.300,-5.337
0.163,0.053,0.299,-5.337
0.151,0.057,0.301,-5.337
0.231,0.053,0.302,-5.337
0.221,0.054,0.300,-5.337
0.177,0.055,0.299,-5.337
0.188,0.052,0.302,-5.337
0.192,0.051,0.307,-5.337
0.211,0.052,0.308,-5.337
0.140,0.058,0.304,-5.337
0.115,0.058,0.299,-5.337
0.096,0.055,0.295,-5.337
0.154,0.048,0.296,-5.337
0.188,0.052,0.299,-5.337
0.121,0.053,0.304,-5.337
0.067,0.056,0.305,-5.337
0.120,0.051,0.304,-5.337
0.148,0.053,0.305,-5.337
0.142,0.054,0.303,-5.337
0.140,0.055,0.305,-5.337
0.135,0.054,0.305,-5.337
0.143,0.049,0.301,-5.337
0.144,0.050,0.301,-5.337
0.107,0.049,0.302,-5.337
0.092,0.051,0.299,-5.337
0.147,0.052,0.301,-5.337
0.097,0.052,0.304,-5.337
0.070,0.051,0.302,-5.337
0.127,0.052,0.303,-5.337
0.110,0.054,0.302,-5.337
0.092,0.054,0.299,-5.337
0.147,0.051,0.296,-5.337
0.169,0.051,0.297,-5.337
0.187,0.052,0.302,-5.337
0.183,0.054,0.304,-5.337
0.167,0.051,0.302,-5.337
0.168,0.051,0.298,-5.337
0.140,0.050,0.299,-5.337
0.130,0.051,0.300,-5.337
0.155,0.052,0.303,-5.337
0.205,0.051,0.305,-5.337
0.183,0.051,0.304,-5.337
0.125,0.054,0.304,-5.337
0.136,0.053,0.306,-5.337
0.132,0.053,0.305,-5.337
0.165,0.054,0.303,-5.337
0.166,0.054,0.303,-5.337
0.090,0.056,0.305,-5.337
0.100,0.055,0.305,-5.337
0.140,0.056,0.302,-5.337
0.123,0.056,0.299,-5.337
0.096,0.056,0.301,-5.337
0.132,0.054,0.301,-5.337
0.186,0.056,0.301,-5.337
0.168,0.052,0.300,-5.337
0.137,0.053,0.301,-5.337
0.144,0.054,0.304,-5.337
0.163,0.057,0.300,-5.337
0.164,0.054,0.296,-5.337
0.227,0.053,0.296,-5.337
0.244,0.050,0.299,-5.337
0.266,0.046,0.302,-5.337
0.246,0.047,0.303,-5.337
0.150,0.054,0.304,-5.337
0.133,0.055,0.303,-5.337
0.145,0.051,0.301,-5.337
0.146,0.050,0.297,-5.337
0.110,0.052,0.297,-5.337
0.149,0.050,0.300,-5.337
0.189,0.051,0.301,-5.337
0.177,0.054,0.300,-5.337
0.179,0.052,0.303,-5.337
0.225,0.048,0.309,-5.337
0.221,0.051,0.308,-5.337
0.211,0.057,0.306,-5.337
0.158,0.059,0.299,-5.337
0.077,0.056,0.298,-5.337
0.020,0.054,0.301,-5.337
0.076,0.056,0.305,-5.337
0.118,0.054,0.306,-5.337
0.087,0.056,0.304,-5.337
0.084,0.052,0.301,-5.337
0.161,0.052,0.298,-5.337
0.196,0.051,0.297,-5.337
0.099,0.054,0.299,-5.337
0.043,0.054,0.302,-5.337
0.109,0.054,0.303,-5.337
0.165,0.054,0.303,-5.337
0.162,0.052,0.302,-5.337
0.154,0.048,0.302,-5.337
0.193,0.047,0.303,-5.337
0.130,0.052,0.303,-5.337
0.064,0.054,0.301,-5.337
0.169,0.048,0.297,-5.337
0.213,0.045,0.295,-5.337
0.134,0.050,0.299,-5.337
0.125,0.050,0.305,-5.337
0.150,0.051,0.306,-5.337
0.168,0.051,0.305,-5.337
0.187,0.051,0.303,-5.337
0.222,0.047,0.300,-5.337
0.163,0.050,0.300,-5.337
0.134,0.052,0.301,-5.337
0.158,0.052,0.300,-5.337
0.159,0.049,0.300,-5.337
0.136,0.049,0.302,-5.337
0.148,0.048,0.303,-5.337
0.138,0.048,0.302,-5.337
0.113,0.046,0.297,-5.337
0.161,0.045,0.296,-5.337
0.174,0.044,0.302,-5.337
0.171,0.046,0.304,-5.337
0.180,0.047,0.303,-5.337
0.154,0.047,0.306,-5.337
0.181,0.045,0.305,-5.337
0.223,0.046,0.299,-5.337
0.241,0.051,0.301,-5.337
0.180,0.049,0.303,-5.337
0.136,0.048,0.306,-5.337
0.139,0.048,0.305,-5.337
0.147,0.050,0.300,-5.337
0.146,0.049,0.294,-5.337
0.148,0.046,0.296,-5.337
0.172,0.043,0.300,-5.337
0.185,0.045,0.303,-5.337
0.200,0.045,0.301,-5.337
0.247,0.045,0.301,-5.337
0.237,0.045,0.304,-5.337
0.227,0.045,0.307,-5.337
0.257,0.044,0.305,-5.337
0.273,0.043,0.302,-5.337
0.231,0.043,0.300,-5.337
0.245,0.042,0.297,-5.337
0.254,0.045,0.298,-5.337
0.161,0.047,0.302,-5.337
0.080,0.047,0.307,-5.337
0.038,0.049,0.307,-5.337
0.089,0.048,0.308,-5.337
0.222,0.047,0.305,-5.337
0.208,0.047,0.302,-5.337
0.145,0.048,0.297,-5.337
0.197,0.046,0.299,-5.337
0.186,0.046,0.301,-5.337
0.157,0.046,0.303,-5.337
0.131,0.044,0.305,-5.337
0.142,0.044,0.308,-5.337
0.179,0.041,0.307,-5.337
0.206,0.038,0.305,-5.337
0.211,0.041,0.304,-5.337
0.186,0.046,0.304,-5.337
0.187,0.045,0.301,-5.337
0.214,0.044,0.298,-5.337
0.193,0.044,0.296,-5.337
0.230,0.041,0.302,-5.337
0.286,0.046,0.305,-5.337
0.220,0.047,0.303,-5.337
0.132,0.045,0.304,-5.337
0.147,0.044,0.305,-5.337
0.197,0.045,0.308,-5.337
0.159,0.047,0.307,-5.337
0.162,0.048,0.305,-5.337
0.263,0.043,0.301,-5.337
0.321,0.043,0.303,-5.337
0.306,0.042,0.305,-5.337
0.290,0.039,0.306,-5.337
0.301,0.038,0.306,-5.337
0.279,0.040,0.303,-5.337
0.293,0.041,0.303,-5.337
0.274,0.042,0.300,-5.337
0.244,0.041,0.301,-5.337
0.248,0.042,0.303,-5.337
0.222,0.040,0.302,-5.337
0.167,0.042,0.303,-5.337
0.127,0.047,0.304,-5.337
0.184,0.044,0.305,-5.337
0.208,0.038,0.304,-5.337
0.223,0.037,0.301,-5.337
0.202,0.040,0.300,-5.337
0.197,0.040,0.303,-5.337
0.227,0.037,0.305,-5.337
0.196,0.038,0.304,-5.337
0.191,0.039,0.307,-5.337
0.167,0.045,0.307,-5.337
0.192,0.043,0.303,-5.337
0.171,0.044,0.300,-5.337
0.173,0.046,0.305,-5.337
0.216,0.043,0.307,-5.337
0.154,0.042,0.308,-5.337
0.090,0.044,0.306,-5.337
0.164,0.044,0.302,-5.337
0.197,0.042,0.299,-5.337
0.261,0.038,0.301,-5.337
0.269,0.038,0.300,-5.337
0.231,0.041,0.304,-5.337
0.188,0.044,0.306,-5.337
0.175,0.044,0.305,-5.337
0.218,0.041,0.300,-5.337
0.294,0.036,0.299,-5.337
0.299,0.038,0.303,-5.337
0.222,0.040,0.306,-5.337
0.128,0.045,0.304,-5.337
0.146,0.043,0.301,-5.337
0.272,0.039,0.303,-5.337
0.310,0.039,0.304,-5.337
0.216,0.040,0.306,-5.337
0.152,0.040,0.306,-5.337
0.169,0.041,0.308,-5.337
0.198,0.040,0.308,-5.337
0.196,0.040,0.306,-5.337
0.139,0.042,0.300,-5.337
0.131,0.043,0.300,-5.337
0.221,0.040,0.300,-5.337
0.249,0.039,0.301,-5.337
0.254,0.040,0.305,-5.337
0.220,0.044,0.307,-5.337
0.227,0.040,0.307,-5.337
0.258,0.041,0.303,-5.337
0.270,0.039,0.300,-5.337
0.271,0.038,0.297,-5.337
0.238,0.039,0.300,-5.337
0.243,0.036,0.306,-5.337
0.213,0.039,0.306,-5.337
0.242,0.039,0.303,-5.337
0.292,0.039,0.303,-5.337
0.236,0.042,0.302,-5.337
0.185,0.042,0.303,-5.337
0.199,0.038,0.303,-5.337
0.230,0.036,0.306,-5.337
0.332,0.035,0.305,-5.337
0.325,0.036,0.303,-5.337
0.285,0.036,0.300,-5.337
0.221,0.039,0.303,-5.337
0.213,0.039,0.305,-5.337
0.213,0.040,0.307,-5.337
0.200,0.037,0.303,-5.337
0.170,0.037,0.300,-5.337
0.209,0.037,0.302,-5.337
0.261,0.034,0.301,-5.337
0.196,0.038,0.301,-5.337
0.144,0.041,0.303,-5.337
0.192,0.041,0.305,-5.337
0.169,0.042,0.306,-5.337
0.173,0.041,0.306,-5.337
0.196,0.040,0.302,-5.337
0.240,0.043,0.300,-5.337
0.215,0.043,0.300,-5.337
0.209,0.040,0.303,-5.337
0.215,0.040,0.304,-5.337
0.226,0.044,0.304,-5.337
0.248,0.044,0.302,-5.337
0.280,0.044,0.301,-5.337
0.240,0.041,0.299,-5.337
0.238,0.044,0.302,-5.337
0.267,0.045,0.304,-5.337
0.260,0.044,0.304,-5.337
0.291,0.043,0.303,-5.337
0.353,0.045,0.310,-5.337
0.329,0.044,0.310,-5.337
0.240,0.044,0.305,-5.337
0.225,0.044,0.298,-5.337
0.287,0.044,0.299,-5.337
0.320,0.041,0.301,-5.337
0.211,0.043,0.302,-5.337
0.183,0.045,0.304,-5.337
0.200,0.046,0.304,-5.337
0.217,0.043,0.304,-5.337
0.236,0.042,0.299,-5.337
0.212,0.043,0.299,-5.337
0.223,0.042,0.299,-5.337
0.251,0.041,0.299,-5.337
0.281,0.042,0.301,-5.337
0.247,0.044,0.305,-5.337
0.177,0.044,0.304,-5.337
0.176,0.041,0.303,-5.337
0.255,0.042,0.304,-5.337
0.302,0.041,0.306,-5.337
0.249,0.040,0.305,-5.337
0.191,0.041,0.309,-5.337
0.203,0.040,0.310,-5.337
0.236,0.041,0.306,-5.337
0.225,0.044,0.302,-5.337
0.256,0.042,0.303,-5.337
0.193,0.046,0.301,-5.337
0.243,0.044,0.298,-5.337
0.287,0.041,0.298,-5.337
0.304,0.038,0.298,-5.337
0.252,0.040,0.298,-5.337
0.196,0.041,0.302,-5.337
0.248,0.039,0.306,-5.337
0.270,0.039,0.306,-5.337
0.205,0.038,0.302,-5.337
0.233,0.036,0.299,-5.337
0.271,0.036,0.301,-5.337
0.217,0.041,0.303,-5.337
0.172,0.039,0.306,-5.337
0.235,0.035,0.304,-5.337
0.292,0.038,0.300,-5.337
0.241,0.035,0.298,-5.337
0.167,0.037,0.297,-5.337
0.183,0.034,0.296,-5.337
0.315,0.034,0.299,-5.337
0.371,0.033,0.305,-5.337
0.259,0.033,0.305,-5.337
0.223,0.027,0.302,-5.337
0.328,0.028,0.304,-5.337
0.316,0.032,0.303,-5.337
0.250,0.037,0.303,-5.337
0.241,0.037,0.302,-5.337
0.283,0.035,0.300,-5.337
0.265,0.034,0.300,-5.337
0.225,0.036,0.302,-5.337
0.235,0.033,0.302,-5.337
0.263,0.033,0.300,-5.337
0.277,0.032,0.301,-5.337
0.249,0.032,0.301,-5.337
0.205,0.035,0.304,-5.337
0.214,0.041,0.303,-5.337
0.175,0.044,0.302,-5.337
0.164,0.038,0.300,-5.337
0.193,0.037,0.300,-5.337
0.180,0.039,0.304,-5.337
0.198,0.039,0.305,-5.337
0.227,0.038,0.301,-5.337
0.237,0.039,0.301,-5.337
0.257,0.035,0.302,-5.337
0.277,0.034,0.302,-5.337
0.281,0.036,0.301,-5.337
0.264,0.035,0.302,-5.337
0.251,0.035,0.301,-5.337
0.231,0.036,0.302,-5.337
0.199,0.037,0.301,-5.337
0.256,0.038,0.301,-5.337
0.283,0.036,0.300,-5.337
0.268,0.036,0.300,-5.337
0.232,0.037,0.301,-5.337
0.248,0.036,0.300,-5.337
0.280,0.036,0.301,-5.337
0.226,0.040,0.302,-5.337
0.166,0.039,0.304,-5.337
0.250,0.036,0.306,-5.337
0.293,0.033,0.306,-5.337
0.259,0.035,0.303,-5.337
0.243,0.037,0.302,-5.337
0.255,0.039,0.302,-5.337
0.246,0.041,0.304,-5.337
0.230,0.042,0.302,-5.337
0.210,0.041,0.300,-5.337
0.247,0.040,0.300,-5.337
0.264,0.041,0.302,-5.337
0.266,0.039,0.297,-5.337
0.231,0.044,0.296,-5.337
0.212,0.044,0.300,-5.337
0.192,0.042,0.305,-5.337
0.215,0.041,0.309,-5.337
0.231,0.043,0.307,-5.337
0.179,0.045,0.302,-5.337
0.207,0.045,0.298,-5.337
0.257,0.041,0.298,-5.337
0.282,0.043,0.299,-5.337
0.220,0.048,0.303,-5.337
0.171,0.044,0.301,-5.337
0.167,0.044,0.302,-5.337
0.187,0.044,0.300,-5.337
0.233,0.043,0.304,-5.337
0.247,0.043,0.305,-5.337
0.224,0.045,0.303,-5.337
0.274,0.042,0.302,-5.337
0.310,0.038,0.302,-5.337
0.316,0.035,0.299,-5.337
0.241,0.042,0.300,-5.337
0.135,0.049,0.301,-5.337
0.187,0.046,0.303,-5.337
0.253,0.042,0.300,-5.337
0.263,0.044,0.300,-5.337
0.214,0.046,0.301,-5.337
0.183,0.045,0.300,-5.337
0.259,0.042,0.301,-5.337
0.221,0.043,0.303,-5.337
0.205,0.041,0.302,-5.337
0.247,0.043,0.303,-5.337
0.171,0.045,0.304,-5.337
0.158,0.046,0.304,-5.337
0.183,0.047,0.307,-5.337
0.247,0.044,0.304,-5.337
0.328,0.040,0.301,-5.337
0.284,0.042,0.299,-5.337
0.205,0.045,0.297,-5.337
0.220,0.043,0.300,-5.337
0.211,0.046,0.305,-5.337
0.182,0.047,0.303,-5.337
0.175,0.045,0.302,-5.337
0.218,0.041,0.304,-5.337
0.241,0.039,0.305,-5.337
0.177,0.047,0.302,-5.337
0.160,0.049,0.301,-5.337
0.197,0.047,0.303,-5.337
0.190,0.047,0.306,-5.337
0.259,0.045,0.305,-5.337
0.319,0.040,0.304,-5.337
0.275,0.037,0.306,-5.337
0.260,0.039,0.302,-5.337
0.249,0.043,0.299,-5.337
0.207,0.042,0.301,-5.337
0.155,0.044,0.304,-5.337
0.128,0.041,0.304,-5.337
0.150,0.043,0.302,-5.337
0.135,0.044,0.303,-5.337
0.075,0.047,0.305,-5.337
0.078,0.046,0.304,-5.337
0.145,0.045,0.305,-5.337
0.219,0.045,0.306,-5.337
0.232,0.043,0.305,-5.337
0.181,0.041,0.305,-5.337
0.188,0.043,0.305,-5.337
0.178,0.044,0.305,-5.337
0.170,0.045,0.306,-5.337
0.242,0.043,0.305,-5.337
0.260,0.041,0.302,-5.337
0.221,0.044,0.301,-5.337
0.171,0.047,0.302,-5.337
0.185,0.044,0.302,-5.337
0.195,0.042,0.302,-5.337
0.208,0.042,0.306,-5.337
0.179,0.045,0.309,-5.337
0.156,0.046,0.309,-5.337
0.180,0.044,0.302,-5.337
0.253,0.043,0.301,-5.337
0.271,0.044,0.305,-5.337
0.268,0.047,0.308,-5.337
0.225,0.049,0.306,-5.337
0.173,0.050,0.302,-5.337
0.127,0.053,0.300,-5.337
0.148,0.055,0.303,-5.337
0.156,0.053,0.305,-5.337
0.184,0.052,0.301,-5.337
0.221,0.049,0.299,-5.337
0.190,0.049,0.301,-5.337
0.179,0.049,0.305,-5.337
0.228,0.048,0.310,-5.337
0.243,0.048,0.309,-5.337
0.140,0.045,0.303,-5.337
0.126,0.045,0.302,-5.337
0.180,0.047,0.301,-5.337
0.181,0.049,0.305,-5.337
0.113,0.049,0.310,-5.337
0.154,0.044,0.311,-5.337
0.167,0.046,0.304,-5.337
0.168,0.048,0.298,-5.337
0.155,0.048,0.299,-5.337
0.101,0.046,0.302,-5.337
0.106,0.045,0.302,-5.337
0.135,0.047,0.306,-5.337
0.142,0.051,0.306,-5.337
0.098,0.051,0.306,-5.337
0.141,0.047,0.305,-5.337
0.182,0.044,0.304,-5.337
0.117,0.043,0.305,-5.337
0.029,0.051,0.303,-5.337
0.085,0.048,0.299,-5.337
0.165,0.045,0.299,-5.337
0.147,0.047,0.301,-5.337
0.114,0.051,0.302,-5.337
0.174,0.047,0.304,-5.337
0.206,0.043,0.307,-5.337
0.180,0.043,0.308,-5.337
0.130,0.044,0.303,-5.337
0.127,0.044,0.300,-5.337
0.163,0.043,0.301,-5.337
0.179,0.045,0.307,-5.337
0.192,0.046,0.306,-5.337
0.120,0.047,0.302,-5.337
0.105,0.046,0.302,-5.337
0.157,0.049,0.302,-5.337
0.212,0.050,0.300,-5.337
0.177,0.047,0.299,-5.337
0.158,0.044,0.302,-5.337
0.125,0.045,0.303,-5.337
0.125,0.046,0.303,-5.337
0.124,0.046,0.306,-5.337
0.137,0.046,0.306,-5.337
0.159,0.048,0.307,-5.337
0.170,0.047,0.309,-5.337
0.147,0.047,0.308,-5.337
0.175,0.048,0.304,-5.337
0.183,0.047,0.300,-5.337
0.156,0.045,0.300,-5.337
0.147,0.044,0.301,-5.337
0.115,0.049,0.305,-5.337
0.078,0.049,0.304,-5.337
0.117,0.044,0.301,-5.337
0.140,0.044,0.298,-5.337
0.156,0.047,0.302,-5.337
0.183,0.046,0.305,-5.337
0.181,0.048,0.309,-5.337
0.173,0.049,0.306,-5.337
0.149,0.052,0.306,-5.337
0.112,0.051,0.303,-5.337
0.183,0.047,0.300,-5.337
0.186,0.047,0.302,-5.337
0.115,0.051,0.303,-5.337
0.034,0.048,0.302,-5.337
0.119,0.047,0.300,-5.337
0.187,0.048,0.301,-5.337
0.146,0.047,0.301,-5.337
0.198,0.044,0.301,-5.337
0.272,0.042,0.302,-5.337
0.247,0.047,0.301,-5.337
0.178,0.052,0.298,-5.337
0.176,0.053,0.301,-5.337
0.193,0.052,0.308,-5.337
0.141,0.051,0.313,-5.337
0.117,0.050,0.310,-5.337
0.162,0.051,0.308,-5.337
0.143,0.056,0.302,-5.337
0.108,0.057,0.299,-5.337
0.119,0.054,0.301,-5.337
0.146,0.054,0.302,-5.337
0.135,0.052,0.303,-5.337
0.129,0.053,0.303,-5.337
0.096,0.051,0.300,-5.337
0.077,0.051,0.301,-5.337
0.067,0.051,0.301,-5.337
0.082,0.053,0.297,-5.337
0.140,0.050,0.299,-5.337
0.180,0.047,0.303,-5.337
0.169,0.050,0.307,-5.337
0.095,0.057,0.308,-5.337
0.123,0.053,0.304,-5.337
0.177,0.050,0.300,-5.337
0.169,0.053,0.301,-5.337
0.133,0.052,0.305,-5.337
0.108,0.054,0.306,-5.337
0.122,0.053,0.305,-5.337
0.136,0.052,0.305,-5.337
0.186,0.056,0.300,-5.337
0.186,0.053,0.301,-5.337
0.208,0.053,0.303,-5.337
0.208,0.051,0.306,-5.337
0.170,0.056,0.306,-5.337
0.116,0.060,0.304,-5.337
0.102,0.060,0.304,-5.337
0.114,0.058,0.303,-5.337
0.134,0.059,0.302,-5.337
0.140,0.058,0.300,-5.337
0.179,0.054,0.300,-5.337
0.161,0.054,0.301,-5.337
0.140,0.052,0.304,-5.337
0.145,0.048,0.303,-5.337
0.149,0.050,0.303,-5.337
0.105,0.052,0.303,-5.337
0.161,0.049,0.302,-5.337
0.173,0.051,0.301,-5.337
0.111,0.054,0.300,-5.337
0.096,0.055,0.301,-5.337
0.116,0.054,0.303,-5.337
0.138,0.052,0.301,-5.337
0.198,0.052,0.300,-5.337
0.225,0.051,0.302,-5.337
0.249,0.052,0.306,-5.337
0.154,0.058,0.308,-5.337
0.117,0.060,0.305,-5.337
0.130,0.057,0.302,-5.337
0.145,0.055,0.302,-5.337
0.145,0.056,0.300,-5.337
0.125,0.061,0.298,-5.337
0.108,0.059,0.299,-5.337
0.127,0.055,0.302,-5.337
0.162,0.052,0.301,-5.337
0.139,0.056,0.300,-5.337
0.190,0.056,0.298,-5.337
0.262,0.054,0.296,-5.337
0.178,0.056,0.298,-5.337
0.201,0.057,0.301,-5.337
0.248,0.055,0.304,-5.337
0.195,0.055,0.304,-5.337
0.146,0.054,0.303,-5.337
0.126,0.054,0.301,-5.337
0.154,0.054,0.300,-5.337
0.155,0.052,0.298,-5.337
0.111,0.052,0.299,-5.337
0.064,0.054,0.296,-5.337
0.128,0.053,0.300,-5.337
0.150,0.053,0.305,-5.337
0.137,0.057,0.307,-5.337
0.140,0.059,0.304,-5.337
0.135,0.057,0.305,-5.337
0.152,0.054,0.309,-5.337
0.157,0.055,0.309,-5.337
0.091,0.055,0.305,-5.337
0.021,0.056,0.299,-5.337
0.060,0.054,0.295,-5.337
0.125,0.053,0.296,-5.337
0.202,0.052,0.298,-5.337
0.213,0.054,0.303,-5.337
0.117,0.054,0.302,-5.337
0.116,0.056,0.300,-5.337
0.099,0.056,0.301,-5.337
0.107,0.055,0.300,-5.337
0.145,0.055,0.300,-5.337
0.130,0.052,0.303,-5.337
0.132,0.052,0.305,-5.337
0.172,0.051,0.302,-5.337
0.166,0.050,0.299,-5.337
0.181,0.051,0.297,-5.337
0.183,0.049,0.301,-5.337
0.188,0.047,0.302,-5.337
0.202,0.049,0.300,-5.337
0.184,0.051,0.298,-5.337
0.138,0.049,0.299,-5.337
0.156,0.048,0.302,-5.337
0.102,0.051,0.306,-5.337
0.083,0.050,0.308,-5.337
0.159,0.047,0.303,-5.337
0.212,0.045,0.298,-5.337
0.208,0.046,0.296,-5.337
0.186,0.050,0.300,-5.337
0.182,0.052,0.300,-5.337
0.163,0.047,0.302,-5.337
0.185,0.042,0.304,-5.337
0.202,0.045,0.305,-5.337
0.181,0.047,0.303,-5.337
0.181,0.050,0.301,-5.337
0.183,0.047,0.296,-5.337
0.183,0.045,0.295,-5.337
0.151,0.047,0.299,-5.337
0.148,0.048,0.305,-5.337
0.188,0.048,0.304,-5.337
0.189,0.049,0.301,-5.337
0.176,0.051,0.301,-5.337
0.163,0.053,0.302,-5.337
0.213,0.049,0.302,-5.337
0.286,0.045,0.301,-5.337
0.244,0.044,0.300,-5.337
0.189,0.045,0.302,-5.337
0.140,0.046,0.304,-5.337
0.168,0.050,0.305,-5.337
0.222,0.049,0.306,-5.337
0.244,0.048,0.307,-5.337
0.246,0.048,0.307,-5.337
0.249,0.048,0.303,-5.337
0.205,0.049,0.298,-5.337
0.125,0.052,0.293,-5.337
0.130,0.049,0.292,-5.337
0.192,0.046,0.297,-5.337
0.176,0.050,0.300,-5.337
0.197,0.050,0.299,-5.337
0.232,0.045,0.301,-5.337
0.242,0.044,0.302,-5.337
0.232,0.046,0.299,-5.337
0.180,0.050,0.301,-5.337
0.203,0.047,0.306,-5.337
0.208,0.048,0.310,-5.337
0.158,0.048,0.308,-5.337
0.142,0.045,0.305,-5.337
0.203,0.043,0.300,-5.337
0.271,0.042,0.298,-5.337
0.291,0.042,0.302,-5.337
0.191,0.045,0.307,-5.337
0.146,0.043,0.304,-5.337
0.117,0.044,0.298,-5.337
0.182,0.045,0.297,-5.337
0.222,0.046,0.297,-5.337
0.248,0.042,0.296,-5.337
0.266,0.040,0.297,-5.337
0.254,0.040,0.298,-5.337
0.239,0.039,0.300,-5.337
0.258,0.039,0.298,-5.337
0.263,0.037,0.301,-5.337
0.229,0.037,0.303,-5.337
0.211,0.038,0.303,-5.337
0.194,0.040,0.303,-5.337
0.181,0.042,0.303,-5.337
0.158,0.041,0.305,-5.337
0.214,0.040,0.304,-5.337
0.234,0.044,0.302,-5.337
0.237,0.046,0.302,-5.337
0.224,0.048,0.306,-5.337
0.195,0.049,0.307,-5.337
0.153,0.046,0.304,-5.337
0.143,0.046,0.303,-5.337
0.196,0.047,0.305,-5.337
0.167,0.045,0.305,-5.337
0.191,0.043,0.302,-5.337
0.224,0.040,0.301,-5.337
0.284,0.040,0.300,-5.337
0.339,0.040,0.301,-5.337
0.339,0.039,0.301,-5.337
0.260,0.039,0.301,-5.337
0.243,0.039,0.305,-5.337
0.235,0.040,0.307,-5.337
0.225,0.039,0.306,-5.337
0.167,0.043,0.300,-5.337
0.127,0.045,0.299,-5.337
0.204,0.042,0.300,-5.337
0.211,0.044,0.303,-5.337
0.162,0.044,0.300,-5.337
0.166,0.043,0.302,-5.337
0.181,0.039,0.308,-5.337
0.210,0.043,0.311,-5.337
0.245,0.038,0.306,-5.337
0.227,0.038,0.298,-5.337
0.170,0.040,0.297,-5.337
0.183,0.043,0.297,-5.337
0.197,0.038,0.299,-5.337
0.227,0.036,0.304,-5.337
0.242,0.036,0.306,-5.337
0.213,0.040,0.305,-5.337
0.204,0.042,0.307,-5.337
0.246,0.038,0.307,-5.337
0.255,0.034,0.306,-5.337
0.242,0.036,0.304,-5.337
0.214,0.037,0.302,-5.337
0.156,0.041,0.302,-5.337
0.118,0.044,0.301,-5.337
0.119,0.043,0.297,-5.337
0.139,0.044,0.300,-5.337
0.189,0.043,0.303,-5.337
0.178,0.046,0.305,-5.337
0.194,0.044,0.305,-5.337
0.224,0.040,0.308,-5.337
0.265,0.042,0.310,-5.337
0.226,0.046,0.310,-5.337
0.213,0.051,0.306,-5.337
0.263,0.047,0.301,-5.337
0.281,0.043,0.302,-5.337
0.245,0.042,0.303,-5.337
0.218,0.042,0.300,-5.337
0.218,0.041,0.300,-5.337
0.253,0.044,0.301,-5.337
0.304,0.043,0.299,-5.337
0.326,0.044,0.298,-5.337
0.281,0.045,0.300,-5.337
0.233,0.047,0.300,-5.337
0.246,0.048,0.299,-5.337
0.230,0.047,0.303,-5.337
0.228,0.044,0.301,-5.337
0.258,0.042,0.298,-5.337
0.266,0.040,0.297,-5.337
0.270,0.042,0.302,-5.337
0.232,0.043,0.307,-5.337
0.200,0.043,0.307,-5.337
0.249,0.042,0.302,-5.337
0.312,0.042,0.298,-5.337
0.334,0.039,0.296,-5.337
0.282,0.043,0.299,-5.337
0.242,0.047,0.303,-5.337
0.181,0.048,0.304,-5.337
0.150,0.045,0.300,-5.337
0.192,0.042,0.300,-5.337
0.228,0.041,0.303,-5.337
0.256,0.046,0.305,-5.337
0.253,0.045,0.307,-5.337
0.234,0.044,0.307,-5.337
0.237,0.045,0.310,-5.337
0.260,0.046,0.308,-5.337
0.315,0.046,0.305,-5.337
0.293,0.043,0.299,-5.337
0.272,0.043,0.294,-5.337
0.264,0.045,0.297,-5.337
0.258,0.047,0.304,-5.337
0.220,0.045,0.305,-5.337
0.267,0.040,0.303,-5.337
0.251,0.043,0.300,-5.337
0.217,0.048,0.300,-5.337
0.240,0.046,0.302,-5.337
0.272,0.046,0.303,-5.337
0.251,0.043,0.303,-5.337
0.211,0.044,0.301,-5.337
0.159,0.048,0.300,-5.337
0.187,0.051,0.298,-5.337
0.169,0.051,0.298,-5.337
0.183,0.051,0.302,-5.337
0.215,0.047,0.305,-5.337
0.262,0.045,0.302,-5.337
0.300,0.046,0.304,-5.337
0.285,0.050,0.307,-5.337
0.250,0.048,0.310,-5.337
0.279,0.046,0.305,-5.337
0.270,0.048,0.303,-5.337
0.205,0.048,0.299,-5.337
0.169,0.050,0.300,-5.337
0.178,0.045,0.302,-5.337
0.203,0.044,0.304,-5.337
0.292,0.041,0.300,-5.337
0.311,0.042,0.294,-5.337
0.248,0.042,0.295,-5.337
0.220,0.044,0.299,-5.337
0.172,0.045,0.299,-5.337
0.238,0.042,0.300,-5.337
0.313,0.042,0.302,-5.337
0.262,0.047,0.306,-5.337
0.272,0.045,0.307,-5.337
0.252,0.045,0.307,-5.337
0.275,0.045,0.308,-5.337
0.270,0.045,0.304,-5.337
0.322,0.043,0.302,-5.337
0.273,0.043,0.299,-5.337
0.165,0.048,0.302,-5.337
0.171,0.044,0.303,-5.337
0.267,0.042,0.301,-5.337
0.315,0.043,0.298,-5.337
0.296,0.044,0.304,-5.337
0.294,0.046,0.307,-5.337
0.242,0.049,0.304,-5.337
0.254,0.044,0.298,-5.337
0.258,0.048,0.298,-5.337
0.279,0.043,0.301,-5.337
0.337,0.045,0.301,-5.337
0.270,0.050,0.298,-5.337
0.239,0.050,0.298,-5.337
0.270,0.051,0.302,-5.337
0.242,0.053,0.306,-5.337
0.223,0.053,0.303,-5.337
0.227,0.053,0.299,-5.337
0.223,0.050,0.299,-5.337
0.270,0.049,0.299,-5.337
0.204,0.052,0.299,-5.337
0.162,0.051,0.302,-5.337
0.221,0.048,0.303,-5.337
0.271,0.046,0.299,-5.337
0.286,0.048,0.296,-5.337
0.295,0.047,0.294,-5.337
0.270,0.048,0.295,-5.337
0.252,0.051,0.299,-5.337
0.206,0.051,0.300,-5.337
0.238,0.049,0.299,-5.337
0.284,0.050,0.302,-5.337
0.309,0.048,0.303,-5.337
0.277,0.046,0.305,-5.337
0.240,0.046,0.307,-5.337
0.202,0.049,0.304,-5.337
0.221,0.049,0.299,-5.337
0.294,0.045,0.300,-5.337
0.252,0.043,0.300,-5.337
0.224,0.044,0.296,-5.337
0.276,0.040,0.294,-5.337
0.263,0.043,0.294,-5.337
0.199,0.044,0.296,-5.337
0.254,0.041,0.296,-5.337
0.334,0.040,0.301,-5.337
0.299,0.040,0.302,-5.337
0.278,0.040,0.301,-5.337
0.289,0.041,0.302,-5.337
0.293,0.043,0.303,-5.337
0.283,0.043,0.298,-5.337
0.225,0.046,0.296,-5.337
0.162,0.050,0.298,-5.337
0.201,0.048,0.299,-5.337
0.233,0.044,0.298,-5.337
0.217,0.045,0.300,-5.337
0.200,0.046,0.304,-5.337
0.208,0.045,0.306,-5.337
0.236,0.045,0.305,-5.337
0.183,0.045,0.303,-5.337
0.210,0.043,0.297,-5.337
0.280,0.042,0.294,-5.337
0.299,0.043,0.295,-5.337
0.199,0.043,0.300,-5.337
0.211,0.043,0.303,-5.337
0.229,0.045,0.302,-5.337
0.233,0.044,0.301,-5.337
0.213,0.045,0.302,-5.337
0.207,0.047,0.299,-5.337
0.219,0.048,0.293,-5.337
0.185,0.049,0.293,-5.337
0.165,0.047,0.298,-5.337
0.194,0.045,0.303,-5.337
0.229,0.048,0.303,-5.337
0.151,0.051,0.300,-5.337
0.098,0.051,0.297,-5.337
0.160,0.050,0.296,-5.337
0.211,0.048,0.299,-5.337
0.155,0.050,0.306,-5.337
0.174,0.045,0.307,-5.337
0.248,0.048,0.303,-5.337
0.225,0.048,0.297,-5.337
0.244,0.050,0.293,-5.337
0.293,0.049,0.294,-5.337
0.208,0.054,0.299,-5.337
0.162,0.051,0.303,-5.337
0.175,0.050,0.307,-5.337
0.197,0.049,0.307,-5.337
0.190,0.050,0.305,-5.337
0.119,0.052,0.303,-5.337
0.146,0.048,0.295,-5.337
0.177,0.049,0.291,-5.337
0.159,0.049,0.290,-5.337
0.150,0.050,0.294,-5.337
0.119,0.053,0.300,-5.337
0.161,0.055,0.304,-5.337
0.228,0.052,0.301,-5.337
0.289,0.050,0.300,-5.337
0.246,0.049,0.300,-5.337
0.219,0.051,0.302,-5.337
0.283,0.045,0.302,-5.337
0.278,0.047,0.297,-5.337
0.236,0.049,0.296,-5.337
0.217,0.051,0.299,-5.337
0.183,0.050,0.300,-5.337
0.191,0.050,0.296,-5.337
0.223,0.052,0.293,-5.337
0.211,0.053,0.297,-5.337
0.157,0.055,0.301,-5.337
0.160,0.053,0.302,-5.337
0.146,0.050,0.302,-5.337
0.200,0.049,0.303,-5.337
0.197,0.048,0.306,-5.337
0.220,0.045,0.300,-5.337
0.193,0.048,0.299,-5.337
0.184,0.048,0.301,-5.337
0.194,0.050,0.306,-5.337
0.186,0.050,0.303,-5.337
0.145,0.054,0.301,-5.337
0.107,0.051,0.301,-5.337
0.135,0.051,0.303,-5.337
0.188,0.047,0.299,-5.337
0.201,0.045,0.303,-5.337
0.104,0.049,0.302,-5.337
0.083,0.052,0.300,-5.337
0.183,0.049,0.297,-5.337
0.185,0.049,0.300,-5.337
0.153,0.052,0.301,-5.337
0.190,0.054,0.303,-5.337
0.189,0.054,0.304,-5.337
0.100,0.056,0.303,-5.337
0.086,0.056,0.298,-5.337
0.129,0.057,0.296,-5.337
0.174,0.054,0.300,-5.337
0.190,0.057,0.303,-5.337
0.140,0.056,0.304,-5.337
0.084,0.054,0.300,-5.337
0.134,0.054,0.305,-5.337
0.190,0.055,0.306,-5.337
0.181,0.054,0.306,-5.337
0.067,0.056,0.307,-5.337
0.056,0.056,0.306,-5.337
0.164,0.055,0.303,-5.337
0.156,0.057,0.299,-5.337
0.214,0.051,0.297,-5.337
0.287,0.050,0.301,-5.337
0.266,0.052,0.302,-5.337
0.241,0.052,0.301,-5.337
0.213,0.054,0.302,-5.337
0.154,0.060,0.305,-5.337
0.154,0.058,0.304,-5.337
0.203,0.054,0.303,-5.337
0.187,0.054,0.302,-5.337
0.187,0.055,0.301,-5.337
0.213,0.055,0.302,-5.337
0.209,0.053,0.301,-5.337
0.210,0.049,0.301,-5.337
0.252,0.051,0.303,-5.337
0.260,0.054,0.305,-5.337
0.131,0.055,0.302,-5.337
0.112,0.053,0.302,-5.337
0.165,0.052,0.303,-5.337
0.143,0.054,0.302,-5.337
0.088,0.053,0.303,-5.337
0.046,0.057,0.306,-5.337
0.140,0.055,0.300,-5.337
0.228,0.053,0.298,-5.337
0.184,0.053,0.303,-5.337
0.150,0.055,0.306,-5.337
0.124,0.052,0.304,-5.337
0.093,0.052,0.301,-5.337
0.113,0.049,0.302,-5.337
0.167,0.051,0.302,-5.337
0.168,0.050,0.303,-5.337
0.123,0.048,0.302,-5.337
0.072,0.053,0.302,-5.337
0.055,0.054,0.301,-5.337
0.095,0.051,0.299,-5.337
0.107,0.050,0.299,-5.337
0.129,0.050,0.302,-5.337
0.154,0.048,0.303,-5.337
0.156,0.052,0.305,-5.337
0.134,0.054,0.303,-5.337
0.083,0.056,0.304,-5.337
0.183,0.056,0.304,-5.337
0.169,0.057,0.304,-5.337
0.109,0.055,0.304,-5.337
0.084,0.054,0.301,-5.337
0.126,0.056,0.304,-5.337
0.152,0.057,0.308,-5.337
0.121,0.059,0.309,-5.337
0.130,0.059,0.305,-5.337
0.139,0.057,0.304,-5.337
0.168,0.053,0.303,-5.337
0.177,0.054,0.300,-5.337
0.145,0.055,0.297,-5.337
0.112,0.055,0.297,-5.337
0.072,0.056,0.300,-5.337
0.086,0.053,0.305,-5.337
0.116,0.054,0.305,-5.337
0.152,0.057,0.304,-5.337
0.109,0.058,0.304,-5.337
0.108,0.056,0.303,-5.337
0.164,0.055,0.295,-5.337
0.202,0.058,0.293,-5.337
0.189,0.058,0.296,-5.337
0.175,0.055,0.303,-5.337
0.153,0.055,0.307,-5.337
0.109,0.059,0.309,-5.337
0.119,0.057,0.307,-5.337
0.161,0.059,0.303,-5.337
0.130,0.057,0.299,-5.337
0.180,0.054,0.299,-5.337
0.270,0.052,0.301,-5.337
0.250,0.055,0.303,-5.337
0.215,0.052,0.304,-5.337
0.189,0.052,0.304,-5.337
0.182,0.051,0.303,-5.337
0.184,0.049,0.303,-5.337
0.223,0.051,0.302,-5.337
0.127,0.053,0.298,-5.337
0.103,0.054,0.299,-5.337
0.074,0.056,0.299,-5.337
0.073,0.056,0.298,-5.337
0.137,0.053,0.298,-5.337
0.158,0.055,0.305,-5.337
0.114,0.055,0.305,-5.337
0.142,0.057,0.304,-5.337
0.202,0.059,0.305,-5.337
0.203,0.058,0.307,-5.337
0.177,0.057,0.303,-5.337
0.184,0.059,0.299,-5.337
0.180,0.061,0.298,-5.337
0.107,0.062,0.300,-5.337
0.082,0.057,0.301,-5.337
0.143,0.054,0.304,-5.337
0.173,0.058,0.307,-5.337
0.185,0.063,0.306,-5.337
0.101,0.063,0.305,-5.337
0.085,0.054,0.305,-5.337
0.131,0.053,0.303,-5.337
0.105,0.056,0.301,-5.337
0.086,0.056,0.301,-5.337
0.163,0.054,0.301,-5.337
0.164,0.054,0.302,-5.337
0.083,0.054,0.297,-5.337
0.083,0.056,0.299,-5.337
0.120,0.057,0.302,-5.337
0.210,0.054,0.302,-5.337
0.212,0.053,0.300,-5.337
0.117,0.060,0.302,-5.337
0.079,0.063,0.302,-5.337
0.075,0.061,0.305,-5.337
0.103,0.058,0.308,-5.337
0.143,0.058,0.304,-5.337
0.165,0.059,0.301,-5.337
0.141,0.062,0.305,-5.337
0.099,0.061,0.308,-5.337
0.135,0.055,0.309,-5.337
0.169,0.053,0.306,-5.337
0.157,0.056,0.301,-5.337
0.127,0.060,0.299,-5.337
0.155,0.054,0.301,-5.337
0.172,0.054,0.304,-5.337
0.152,0.054,0.306,-5.337
0.093,0.056,0.303,-5.337
0.071,0.058,0.300,-5.337
0.088,0.060,0.303,-5.337
0.108,0.058,0.304,-5.337
0.064,0.061,0.302,-5.337
0.036,0.061,0.300,-5.337
0.068,0.061,0.299,-5.337
0.164,0.055,0.300,-5.337
0.182,0.055,0.303,-5.337
0.098,0.057,0.307,-5.337
0.066,0.061,0.307,-5.337
0.133,0.059,0.305,-5.337
0.151,0.059,0.305,-5.337
0.121,0.059,0.305,-5.337
0.085,0.060,0.303,-5.337
0.082,0.059,0.298,-5.337
0.120,0.058,0.297,-5.337
0.148,0.059,0.299,-5.337
0.179,0.057,0.301,-5.337
0.190,0.056,0.302,-5.337
0.261,0.053,0.299,-5.337
0.255,0.057,0.302,-5.337
0.115,0.060,0.303,-5.337
0.066,0.060,0.303,-5.337
0.092,0.064,0.303,-5.337
0.087,0.066,0.303,-5.337
0.050,0.063,0.302,-5.337
0.092,0.056,0.302,-5.337
0.134,0.054,0.301,-5.337
0.099,0.059,0.302,-5.337
0.104,0.054,0.304,-5.337
0.116,0.053,0.304,-5.337
0.109,0.055,0.303,-5.337
0.135,0.053,0.302,-5.337
0.144,0.053,0.301,-5.337
0.100,0.056,0.297,-5.337
0.104,0.053,0.298,-5.337
0.088,0.055,0.303,-5.337
0.131,0.054,0.304,-5.337
0.223,0.054,0.302,-5.337
0.209,0.057,0.299,-5.337
0.132,0.057,0.297,-5.337
0.117,0.055,0.301,-5.337
0.144,0.059,0.299,-5.337
0.120,0.057,0.298,-5.337
0.185,0.051,0.299,-5.337
0.194,0.057,0.305,-5.337
0.176,0.059,0.303,-5.337
0.186,0.059,0.300,-5.337
0.213,0.052,0.295,-5.337
0.174,0.052,0.301,-5.337
0.138,0.052,0.305,-5.337
0.118,0.051,0.305,-5.337
0.180,0.050,0.301,-5.337
0.159,0.054,0.299,-5.337
0.169,0.055,0.300,-5.337
0.169,0.052,0.301,-5.337
0.180,0.051,0.298,-5.337
0.189,0.050,0.299,-5.337
0.196,0.051,0.298,-5.337
0.208,0.053,0.297,-5.337
0.180,0.053,0.300,-5.337
0.188,0.049,0.306,-5.337
0.239,0.046,0.305,-5.337
0.227,0.047,0.302,-5.337
0.186,0.048,0.304,-5.337
0.148,0.047,0.304,-5.337
0.143,0.050,0.303,-5.337
0.211,0.045,0.301,-5.337
0.245,0.045,0.299,-5.337
0.239,0.047,0.297,-5.337
0.214,0.048,0.295,-5.337
0.176,0.051,0.296,-5.337
0.066,0.053,0.304,-5.337
0.032,0.049,0.306,-5.337
0.118,0.049,0.303,-5.337
0.128,0.047,0.297,-5.337
0.137,0.045,0.297,-5.337
0.188,0.046,0.300,-5.337
0.157,0.050,0.302,-5.337
0.102,0.048,0.303,-5.337
0.150,0.046,0.303,-5.337
0.152,0.043,0.301,-5.337
0.183,0.043,0.302,-5.337
0.157,0.046,0.301,-5.337
0.139,0.046,0.299,-5.337
0.144,0.044,0.302,-5.337
0.182,0.047,0.304,-5.337
0.197,0.047,0.300,-5.337
0.170,0.047,0.299,-5.337
0.200,0.045,0.300,-5.337
0.160,0.046,0.300,-5.337
0.143,0.047,0.300,-5.337
0.117,0.046,0.300,-5.337
0.154,0.044,0.301,-5.337
0.204,0.044,0.301,-5.337
0.174,0.047,0.303,-5.337
0.138,0.044,0.305,-5.337
0.146,0.045,0.304,-5.337
0.196,0.045,0.303,-5.337
0.222,0.047,0.302,-5.337
0.251,0.046,0.300,-5.337
0.301,0.045,0.301,-5.337
0.271,0.045,0.301,-5.337
0.238,0.042,0.305,-5.337
0.235,0.045,0.305,-5.337
0.263,0.047,0.301,-5.337
0.141,0.051,0.297,-5.337
0.085,0.051,0.295,-5.337
0.150,0.048,0.297,-5.337
0.168,0.051,0.297,-5.337
0.159,0.056,0.302,-5.337
0.172,0.052,0.301,-5.337
0.194,0.049,0.299,-5.337
0.205,0.048,0.298,-5.337
0.217,0.046,0.302,-5.337
0.225,0.044,0.303,-5.337
0.164,0.050,0.303,-5.337
0.145,0.047,0.307,-5.337
0.166,0.046,0.307,-5.337
0.210,0.047,0.302,-5.337
0.253,0.047,0.296,-5.337
0.233,0.048,0.292,-5.337
0.163,0.052,0.292,-5.337
0.170,0.052,0.295,-5.337
0.240,0.047,0.299,-5.337
0.288,0.047,0.303,-5.337
0.222,0.050,0.307,-5.337
0.147,0.051,0.309,-5.337
0.190,0.047,0.305,-5.337
0.260,0.045,0.301,-5.337
0.263,0.045,0.295,-5.337
0.157,0.051,0.296,-5.337
0.113,0.052,0.301,-5.337
0.155,0.051,0.305,-5.337
0.217,0.049,0.305,-5.337
0.283,0.049,0.304,-5.337
0.270,0.049,0.301,-5.337
0.234,0.050,0.300,-5.337
0.280,0.045,0.302,-5.337
0.252,0.045,0.304,-5.337
0.180,0.045,0.304,-5.337
0.222,0.040,0.303,-5.337
0.254,0.034,0.302,-5.337
0.217,0.040,0.298,-5.337
0.156,0.047,0.296,-5.337
0.182,0.043,0.300,-5.337
0.285,0.044,0.301,-5.337
0.230,0.049,0.301,-5.337
0.169,0.049,0.304,-5.337
0.169,0.049,0.304,-5.337
0.174,0.051,0.303,-5.337
0.190,0.050,0.302,-5.337
0.245,0.047,0.307,-5.337
0.297,0.049,0.305,-5.337
0.256,0.051,0.305,-5.337
0.175,0.053,0.305,-5.337
0.153,0.055,0.307,-5.337
0.212,0.049,0.302,-5.337
0.257,0.048,0.301,-5.337
0.226,0.051,0.302,-5.337
0.162,0.056,0.302,-5.337
0.162,0.054,0.302,-5.337
0.175,0.050,0.304,-5.337
0.200,0.051,0.304,-5.337
0.300,0.049,0.301,-5.337
0.241,0.052,0.296,-5.337
0.210,0.050,0.297,-5.337
0.267,0.047,0.304,-5.337
0.263,0.052,0.307,-5.337
0.243,0.054,0.308,-5.337
0.229,0.054,0.305,-5.337
0.225,0.051,0.301,-5.337
0.183,0.051,0.295,-5.337
0.139,0.049,0.296,-5.337
0.132,0.047,0.298,-5.337
0.155,0.047,0.300,-5.337
0.198,0.049,0.300,-5.337
0.243,0.048,0.307,-5.337
0.229,0.047,0.310,-5.337
0.198,0.048,0.308,-5.337
0.175,0.047,0.302,-5.337
0.218,0.048,0.300,-5.337
0.215,0.049,0.299,-5.337
0.236,0.047,0.297,-5.337
0.225,0.049,0.300,-5.337
0.237,0.049,0.306,-5.337
0.196,0.048,0.309,-5.337
0.220,0.049,0.306,-5.337
0.248,0.049,0.302,-5.337
0.253,0.047,0.300,-5.337
0.207,0.049,0.300,-5.337
0.217,0.054,0.299,-5.337
0.239,0.050,0.303,-5.337
0.272,0.048,0.307,-5.337
0.233,0.050,0.306,-5.337
0.212,0.055,0.303,-5.337
0.180,0.054,0.302,-5.337
0.172,0.052,0.304,-5.337
0.202,0.049,0.305,-5.337
0.260,0.050,0.300,-5.337
0.227,0.054,0.297,-5.337
0.237,0.053,0.299,-5.337
0.310,0.048,0.302,-5.337
0.292,0.048,0.302,-5.337
0.263,0.049,0.301,-5.337
0.274,0.048,0.300,-5.337
0.229,0.049,0.304,-5.337
0.200,0.048,0.305,-5.337
0.192,0.050,0.303,-5.337
0.200,0.051,0.301,-5.337
0.262,0.048,0.301,-5.337
0.267,0.047,0.299,-5.337
0.227,0.047,0.300,-5.337
0.191,0.049,0.304,-5.337
0.208,0.050,0.303,-5.337
0.238,0.048,0.300,-5.337
0.275,0.045,0.301,-5.337
0.301,0.046,0.304,-5.337
0.231,0.049,0.306,-5.337
0.150,0.053,0.305,-5.337
0.173,0.049,0.301,-5.337
0.293,0.043,0.301,-5.337
0.290,0.044,0.300,-5.337
0.223,0.045,0.300,-5.337
0.166,0.045,0.298,-5.337
0.223,0.048,0.299,-5.337
0.235,0.047,0.297,-5.337
0.165,0.049,0.298,-5.337
0.119,0.048,0.301,-5.337
0.164,0.048,0.305,-5.337
0.208,0.046,0.304,-5.337
0.245,0.045,0.303,-5.337
0.301,0.044,0.301,-5.337
0.302,0.046,0.301,-5.337
0.259,0.050,0.299,-5.337
0.185,0.049,0.300,-5.337
0.210,0.044,0.301,-5.337
0.274,0.039,0.301,-5.337
0.276,0.043,0.301,-5.337
0.238,0.049,0.303,-5.337
0.195,0.048,0.306,-5.337
0.259,0.044,0.305,-5.337
0.265,0.046,0.302,-5.337
0.242,0.046,0.299,-5.337
0.238,0.044,0.300,-5.337
0.246,0.043,0.301,-5.337
0.242,0.045,0.302,-5.337
0.233,0.045,0.298,-5.337
0.223,0.045,0.298,-5.337
0.187,0.044,0.299,-5.337
0.217,0.044,0.301,-5.337
0.212,0.043,0.304,-5.337
0.204,0.042,0.304,-5.337
0.158,0.044,0.299,-5.337
0.146,0.048,0.304,-5.337
0.194,0.048,0.307,-5.337
0.204,0.045,0.305,-5.337
0.255,0.041,0.301,-5.337
0.291,0.044,0.300,-5.337
0.253,0.047,0.302,-5.337
0.220,0.047,0.306,-5.337
0.200,0.044,0.303,-5.337
0.216,0.046,0.299,-5.337
0.224,0.044,0.298,-5.337
0.308,0.042,0.298,-5.337
0.362,0.040,0.299,-5.337
0.318,0.038,0.301,-5.337
0.269,0.043,0.303,-5.337
0.310,0.044,0.303,-5.337
0.290,0.046,0.301,-5.337
0.255,0.045,0.302,-5.337
0.259,0.042,0.303,-5.337
0.246,0.037,0.303,-5.337
0.271,0.039,0.303,-5.337
0.296,0.042,0.305,-5.337
0.257,0.043,0.304,-5.337
0.219,0.042,0.300,-5.337
0.258,0.039,0.305,-5.337
0.295,0.041,0.307,-5.337
0.253,0.043,0.304,-5.337
0.219,0.041,0.303,-5.337
0.199,0.042,0.302,-5.337
0.179,0.044,0.302,-5.337
0.170,0.045,0.303,-5.337
0.223,0.043,0.304,-5.337
0.303,0.040,0.303,-5.337
0.245,0.043,0.300,-5.337
0.229,0.047,0.299,-5.337
0.261,0.051,0.302,-5.337
0.222,0.051,0.302,-5.337
0.187,0.047,0.300,-5.337
0.190,0.042,0.297,-5.337
0.217,0.042,0.299,-5.337
0.247,0.045,0.300,-5.337
0.259,0.047,0.299,-5.337
0.252,0.044,0.298,-5.337
0.186,0.044,0.298,-5.337
0.153,0.043,0.297,-5.337
0.202,0.046,0.299,-5.337
0.195,0.048,0.301,-5.337
0.217,0.047,0.302,-5.337
0.260,0.045,0.301,-5.337
0.294,0.044,0.301,-5.337
0.191,0.047,0.304,-5.337
0.129,0.049,0.301,-5.337
0.175,0.045,0.298,-5.337
0.217,0.045,0.296,-5.337
0.199,0.046,0.298,-5.337
0.185,0.046,0.300,-5.337
0.210,0.051,0.306,-5.337
0.246,0.046,0.304,-5.337
0.273,0.041,0.301,-5.337
0.265,0.042,0.298,-5.337
0.206,0.045,0.298,-5.337
0.175,0.046,0.299,-5.337
0.196,0.048,0.301,-5.337
0.208,0.046,0.301,-5.337
0.223,0.042,0.300,-5.337
0.165,0.042,0.300,-5.337
0.142,0.044,0.300,-5.337
0.120,0.046,0.303,-5.337
0.176,0.041,0.301,-5.337
0.215,0.043,0.294,-5.337
0.231,0.044,0.294,-5.337
0.237,0.040,0.298,-5.337
0.205,0.043,0.301,-5.337
0.163,0.049,0.301,-5.337
0.156,0.046,0.302,-5.337
0.142,0.046,0.303,-5.337
0.187,0.049,0.301,-5.337
0.255,0.047,0.302,-5.337
0.227,0.044,0.300,-5.337
0.106,0.046,0.297,-5.337
0.108,0.047,0.295,-5.337
0.168,0.047,0.299,-5.337
0.172,0.047,0.299,-5.337
0.176,0.050,0.301,-5.337
0.181,0.048,0.301,-5.337
0.202,0.047,0.299,-5.337
0.249,0.047,0.298,-5.337
0.236,0.046,0.300,-5.337
0.218,0.045,0.304,-5.337
0.221,0.049,0.303,-5.337
0.163,0.052,0.299,-5.337
0.150,0.053,0.300,-5.337
0.228,0.050,0.302,-5.337
0.213,0.049,0.302,-5.337
0.095,0.055,0.303,-5.337
0.059,0.057,0.302,-5.337
0.170,0.054,0.299,-5.337
0.245,0.055,0.299,-5.337
0.202,0.055,0.301,-5.337
0.177,0.054,0.301,-5.337
0.134,0.056,0.301,-5.337
0.163,0.055,0.295,-5.337
0.220,0.053,0.296,-5.337
0.229,0.055,0.301,-5.337
0.176,0.057,0.307,-5.337
0.149,0.056,0.308,-5.337
0.180,0.053,0.304,-5.337
0.195,0.049,0.298,-5.337
0.225,0.048,0.296,-5.337
0.197,0.053,0.297,-5.337
0.133,0.052,0.297,-5.337
0.160,0.050,0.300,-5.337
0.166,0.053,0.302,-5.337
0.153,0.056,0.302,-5.337
0.185,0.054,0.299,-5.337
0.190,0.050,0.299,-5.337
0.189,0.048,0.297,-5.337
0.241,0.050,0.299,-5.337
0.212,0.056,0.303,-5.337
0.169,0.056,0.301,-5.337
0.197,0.055,0.300,-5.337
0.223,0.055,0.301,-5.337
0.191,0.058,0.300,-5.337
0.152,0.057,0.299,-5.337
0.103,0.056,0.296,-5.337
0.165,0.054,0.296,-5.337
0.195,0.053,0.293,-5.337
0.250,0.052,0.298,-5.337
0.232,0.054,0.303,-5.337
0.133,0.057,0.305,-5.337
0.132,0.054,0.304,-5.337
0.137,0.055,0.298,-5.337
0.123,0.053,0.297,-5.337
0.109,0.055,0.298,-5.337
0.082,0.056,0.299,-5.337
0.120,0.061,0.299,-5.337
0.148,0.058,0.299,-5.337
0.205,0.051,0.298,-5.337
0.269,0.053,0.302,-5.337
0.217,0.056,0.303,-5.337
0.141,0.058,0.302,-5.337
0.101,0.056,0.301,-5.337
0.137,0.055,0.301,-5.337
0.202,0.053,0.299,-5.337
0.176,0.056,0.302,-5.337
0.110,0.061,0.304,-5.337
0.123,0.059,0.303,-5.337
0.170,0.055,0.300,-5.337
0.169,0.055,0.300,-5.337
0.184,0.055,0.300,-5.337
0.164,0.060,0.298,-5.337
0.113,0.060,0.299,-5.337
0.085,0.060,0.300,-5.337
0.078,0.060,0.297,-5.337
0.136,0.056,0.292,-5.337
0.196,0.052,0.294,-5.337
0.203,0.054,0.300,-5.337
0.192,0.059,0.305,-5.337
0.165,0.059,0.304,-5.337
0.122,0.055,0.302,-5.337
0.129,0.056,0.303,-5.337
0.139,0.055,0.306,-5.337
0.113,0.058,0.302,-5.337
0.118,0.057,0.301,-5.337
0.149,0.055,0.298,-5.337
0.137,0.051,0.300,-5.337
0.136,0.047,0.301,-5.337
0.100,0.055,0.302,-5.337
0.096,0.055,0.304,-5.337
0.180,0.054,0.305,-5.337
0.196,0.053,0.302,-5.337
0.172,0.054,0.305,-5.337
0.138,0.054,0.304,-5.337
0.153,0.058,0.303,-5.337
0.174,0.057,0.300,-5.337
0.168,0.053,0.298,-5.337
0.127,0.054,0.297,-5.337
0.131,0.056,0.297,-5.337
0.156,0.056,0.300,-5.337
0.159,0.057,0.302,-5.337
0.160,0.056,0.304,-5.337
0.125,0.054,0.302,-5.337
0.115,0.054,0.303,-5.337
0.134,0.056,0.304,-5.337
0.149,0.055,0.303,-5.337
0.140,0.058,0.299,-5.337
0.108,0.060,0.301,-5.337
0.087,0.060,0.301,-5.337
0.170,0.059,0.305,-5.337
0.192,0.057,0.305,-5.337
0.172,0.061,0.305,-5.337
0.224,0.063,0.306,-5.337
0.215,0.061,0.305,-5.337
0.161,0.059,0.305,-5.337
0.116,0.062,0.303,-5.337
0.095,0.062,0.300,-5.337
0.109,0.060,0.304,-5.337
0.166,0.056,0.307,-5.337
0.157,0.056,0.303,-5.337
0.151,0.056,0.298,-5.337
0.150,0.058,0.298,-5.337
0.171,0.056,0.300,-5.337
0.160,0.057,0.302,-5.337
0.179,0.056,0.303,-5.337
0.172,0.057,0.302,-5.337
0.105,0.058,0.303,-5.337
0.102,0.059,0.302,-5.337
0.094,0.061,0.303,-5.337
0.129,0.062,0.306,-5.337
0.129,0.060,0.309,-5.337
0.142,0.054,0.305,-5.337
0.224,0.054,0.301,-5.337
0.193,0.056,0.298,-5.337
0.126,0.058,0.298,-5.337
0.119,0.059,0.298,-5.337
0.105,0.059,0.300,-5.337
0.060,0.059,0.302,-5.337
0.068,0.061,0.301,-5.337
0.109,0.061,0.301,-5.337
0.177,0.060,0.300,-5.337
0.183,0.058,0.301,-5.337
0.131,0.064,0.304,-5.337
0.117,0.062,0.305,-5.337
0.126,0.059,0.305,-5.337
0.095,0.056,0.304,-5.337
0.125,0.056,0.301,-5.337
0.107,0.060,0.300,-5.337
0.061,0.061,0.302,-5.337
0.080,0.060,0.301,-5.337
0.085,0.061,0.298,-5.337
0.099,0.056,0.300,-5.337
0.166,0.054,0.304,-5.337
0.217,0.054,0.304,-5.337
0.213,0.055,0.302,-5.337
0.208,0.056,0.304,-5.337
0.172,0.056,0.301,-5.337
0.134,0.058,0.296,-5.337
0.144,0.058,0.296,-5.337
0.147,0.059,0.300,-5.337
0.106,0.060,0.305,-5.337
0.062,0.062,0.307,-5.337
0.104,0.060,0.306,-5.337
0.118,0.061,0.306,-5.337
0.112,0.058,0.307,-5.337
0.147,0.056,0.302,-5.337
0.154,0.057,0.299,-5.337
0.145,0.056,0.298,-5.337
0.171,0.058,0.298,-5.337
0.167,0.058,0.301,-5.337
0.123,0.060,0.304,-5.337
0.127,0.060,0.303,-5.337
0.129,0.061,0.304,-5.337
0.085,0.061,0.307,-5.337
0.120,0.058,0.308,-5.337
0.220,0.052,0.305,-5.337
0.223,0.053,0.304,-5.337
0.118,0.058,0.304,-5.337
0.123,0.058,0.306,-5.337
0.180,0.052,0.305,-5.337
0.170,0.055,0.300,-5.337
0.161,0.055,0.297,-5.337
0.171,0.055,0.294,-5.337
0.122,0.058,0.295,-5.337
0.134,0.058,0.300,-5.337
0.197,0.056,0.303,-5.337
0.190,0.058,0.304,-5.337
0.169,0.058,0.301,-5.337
0.160,0.057,0.297,-5.337
0.134,0.058,0.299,-5.337
0.110,0.060,0.304,-5.337
0.114,0.059,0.310,-5.337
0.114,0.063,0.309,-5.337
0.097,0.063,0.305,-5.337
0.128,0.061,0.301,-5.337
0.179,0.058,0.302,-5.337
0.141,0.064,0.303,-5.337
0.134,0.063,0.304,-5.337
0.209,0.057,0.305,-5.337
0.226,0.059,0.304,-5.337
0.190,0.061,0.304,-5.337
0.150,0.062,0.305,-5.337
0.087,0.059,0.301,-5.337
0.149,0.058,0.300,-5.337
0.130,0.054,0.303,-5.337
0.136,0.053,0.305,-5.337
0.171,0.051,0.304,-5.337
0.172,0.052,0.304,-5.337
0.150,0.052,0.302,-5.337
0.171,0.052,0.300,-5.337
0.173,0.054,0.303,-5.337
0.198,0.052,0.305,-5.337
0.165,0.054,0.302,-5.337
0.076,0.056,0.297,-5.337
0.076,0.054,0.299,-5.337
0.107,0.056,0.303,-5.337
0.131,0.054,0.303,-5.337
0.155,0.051,0.301,-5.337
0.144,0.052,0.304,-5.337
0.175,0.047,0.306,-5.337
0.234,0.049,0.308,-5.337
0.192,0.050,0.306,-5.337
0.168,0.050,0.303,-5.337
0.170,0.049,0.300,-5.337
0.201,0.050,0.299,-5.337
0.164,0.050,0.298,-5.337
0.154,0.049,0.298,-5.337
0.217,0.045,0.303,-5.337
0.258,0.046,0.309,-5.337
0.213,0.051,0.309,-5.337
0.158,0.054,0.307,-5.337
0.208,0.051,0.305,-5.337
0.232,0.048,0.306,-5.337
0.138,0.046,0.303,-5.337
0.108,0.048,0.301,-5.337
0.120,0.049,0.303,-5.337
0.131,0.049,0.300,-5.337
0.148,0.048,0.299,-5.337
0.198,0.045,0.298,-5.337
0.210,0.048,0.298,-5.337
0.148,0.051,0.298,-5.337
0.154,0.050,0.304,-5.337
0.117,0.051,0.309,-5.337
0.103,0.052,0.306,-5.337
0.164,0.049,0.301,-5.337
0.201,0.049,0.296,-5.337
0.144,0.052,0.297,-5.337
0.114,0.049,0.299,-5.337
0.146,0.048,0.305,-5.337
0.200,0.046,0.305,-5.337
0.228,0.044,0.301,-5.337
0.262,0.042,0.299,-5.337
0.198,0.047,0.298,-5.337
0.145,0.050,0.298,-5.337
0.190,0.046,0.303,-5.337
0.277,0.043,0.309,-5.337
0.194,0.046,0.311,-5.337
0.137,0.046,0.304,-5.337
0.171,0.045,0.300,-5.337
0.175,0.047,0.300,-5.337
0.220,0.049,0.303,-5.337
0.224,0.051,0.304,-5.337
0.219,0.047,0.306,-5.337
