[Parameters]
Operating Mode, Feedback
Subject  AA..ZZ, WT
Session  0..99, 44
No. Trials (1..9999), 500
Mouse Number, 1
Pressure Probe Serial Port, \00\00\00\04COM4
Save additional csv file, TRUE
Save using mouse number, FALSE
A/D Monitor Rate (Hz), 30000.000000
A/D Stimulate Rate (Hz), 30000.000000
A/D input range (+/- V), 5
No. Channels to acquire (N), 2
Pre-Stim Acq. time (ms), 100.000000
Post-Stim Acq. time (ms), 900.000000
Analysis window parameters.M-response Start (ms), 1.100000
Analysis window parameters.M-response Duration (ms), 5.500000
Analysis window parameters.H-response Duration (ms), 6.000000
Analysis window parameters.H-response Start (ms), 6.500000
Feedback window, H response
Proportional gain, 0.100000
Target value, 6.700000
Feedback Ch., 1
Stim Channel to Control (1-4), 4
Trial, 23
Wait for EMG Conditions, FALSE
Channel to monitor (0 - N-1), 1
EMG Hi Limit, 2.000000
EMG Lo Limit, 0.001000
Inter-Stim delay (sec), 10.000000
EMG Monitor Mode, Mean
Time to run Long Stim.(sec), 30
Save Long Stim Data?, OFF
BURST Save time (ms), 1000
BURST Save Interval (x above), 10
Long-Stim. Rep. Rate (Hz), 10.000000
Stim type cluster array.<size(s)>, 4
Stim type cluster array 0.Stimulus Output, Electrical
Stim type cluster array 1.Stimulus Output, OFF
Stim type cluster array 2.Stimulus Output, OFF
Stim type cluster array 3.Stimulus Output, Motor Length
Stim specs cluster array.<size(s)>, 4
Stim specs cluster array 0.Initial Stimulus ampl., 0.300000
Stim specs cluster array 0.Maximum Stimulus, 1.120000
Stim specs cluster array 0.#Pulses in train, 4
Stim specs cluster array 0.Peak Level time (ms), 1.000000
Stim specs cluster array 0.Total pulse period (ms), 150.000000
Stim specs cluster array 0.Start Delay (ms), -50.000000
Stim specs cluster array 0.Pulse Shape, Square
Stim specs cluster array 0.Ramp/Rel. time (ms), 0.100000
Stim specs cluster array 0.Peak Amplitude (V), 0.120000
Stim specs cluster array 1.Initial Stimulus ampl., 0.000000
Stim specs cluster array 1.Maximum Stimulus, 0.000000
Stim specs cluster array 1.#Pulses in train, 3
Stim specs cluster array 1.Peak Level time (ms), 29.000000
Stim specs cluster array 1.Total pulse period (ms), 200.000000
Stim specs cluster array 1.Start Delay (ms), 0.000000
Stim specs cluster array 1.Pulse Shape, Square
Stim specs cluster array 1.Ramp/Rel. time (ms), 0.000000
Stim specs cluster array 1.Peak Amplitude (V), 2.000000
Stim specs cluster array 2.Initial Stimulus ampl., 0.000000
Stim specs cluster array 2.Maximum Stimulus, 0.000000
Stim specs cluster array 2.#Pulses in train, 1
Stim specs cluster array 2.Peak Level time (ms), 25.000000
Stim specs cluster array 2.Total pulse period (ms), 200.000000
Stim specs cluster array 2.Start Delay (ms), 0.000000
Stim specs cluster array 2.Pulse Shape, Square
Stim specs cluster array 2.Ramp/Rel. time (ms), 20.000000
Stim specs cluster array 2.Peak Amplitude (V), 10.000000
Stim specs cluster array 3.Initial Stimulus ampl., 0.000000
Stim specs cluster array 3.Maximum Stimulus, 15.000000
Stim specs cluster array 3.#Pulses in train, 25
Stim specs cluster array 3.Peak Level time (ms), 0.100000
Stim specs cluster array 3.Total pulse period (ms), 4.000000
Stim specs cluster array 3.Start Delay (ms), 205.000000
Stim specs cluster array 3.Pulse Shape, Triangle
Stim specs cluster array 3.Ramp/Rel. time (ms), 3.000000
Stim specs cluster array 3.Peak Amplitude (V), 0.500000
Force cal. (mN/Volt), 100.000000
Force Range (mN), 100.000000
Length cal. (mm/Volt), 10.000000
Length Range (mm), 10.000000
Stim. 1, 0.300000
Stim. 2, 0.000000
Stim. 3, 0.000000
Stim. 4, 0.000000
Monitor acquire time (ms), 100.000000
EMG graph Ymax, 0.100000
Travel limit (mm), 20.000000
Use Pressure Probe, FALSE
Pressure goal (g), 100
Speed (mm/sec), 5.000000
Dwell time (ms), 100.000000
Pressure limit (g), 500.000000
Channel amplitude offset, 0.000000

[DATA]

0.264,0.041,0.276,-5.337
0.178,0.045,0.275,-5.337
0.202,0.040,0.275,-5.337
0.209,0.040,0.274,-5.337
0.191,0.041,0.276,-5.337
0.147,0.040,0.280,-5.337
0.164,0.039,0.279,-5.337
0.169,0.041,0.282,-5.337
0.131,0.041,0.280,-5.337
0.165,0.040,0.280,-5.337
0.175,0.042,0.280,-5.337
0.174,0.042,0.279,-5.337
0.142,0.041,0.275,-5.337
0.130,0.039,0.273,-5.337
0.145,0.040,0.276,-5.337
0.193,0.042,0.282,-5.337
0.156,0.041,0.286,-5.337
0.111,0.044,0.286,-5.337
0.042,0.046,0.285,-5.337
0.042,0.045,0.281,-5.337
0.121,0.042,0.275,-5.337
0.206,0.043,0.276,-5.337
0.174,0.041,0.279,-5.337
0.134,0.042,0.278,-5.337
0.128,0.042,0.279,-5.337
0.167,0.039,0.279,-5.337
0.197,0.036,0.279,-5.337
0.221,0.037,0.280,-5.337
0.186,0.040,0.286,-5.337
0.164,0.042,0.285,-5.337
0.182,0.042,0.282,-5.337
0.136,0.042,0.279,-5.337
0.158,0.041,0.282,-5.337
0.166,0.038,0.283,-5.337
0.198,0.040,0.278,-5.337
0.153,0.042,0.275,-5.337
0.122,0.041,0.277,-5.337
0.123,0.043,0.279,-5.337
0.148,0.044,0.280,-5.337
0.205,0.043,0.280,-5.337
0.194,0.042,0.284,-5.337
0.173,0.040,0.285,-5.337
0.154,0.041,0.282,-5.337
0.155,0.045,0.282,-5.337
0.194,0.043,0.284,-5.337
0.197,0.042,0.286,-5.337
0.172,0.043,0.283,-5.337
0.202,0.043,0.282,-5.337
0.240,0.040,0.279,-5.337
0.147,0.040,0.279,-5.337
0.186,0.039,0.279,-5.337
0.222,0.044,0.281,-5.337
0.202,0.038,0.281,-5.337
0.182,0.037,0.282,-5.337
0.210,0.034,0.279,-5.337
0.164,0.036,0.276,-5.337
0.139,0.039,0.273,-5.337
0.152,0.039,0.277,-5.337
0.186,0.038,0.279,-5.337
0.184,0.037,0.280,-5.337
0.189,0.037,0.280,-5.337
0.159,0.042,0.284,-5.337
0.170,0.044,0.285,-5.337
0.171,0.043,0.284,-5.337
0.150,0.041,0.284,-5.337
0.125,0.040,0.278,-5.337
0.141,0.040,0.273,-5.337
0.162,0.042,0.274,-5.337
0.192,0.043,0.282,-5.337
0.213,0.042,0.285,-5.337
0.183,0.042,0.281,-5.337
0.100,0.043,0.272,-5.337
0.123,0.040,0.270,-5.337
0.142,0.043,0.275,-5.337
0.112,0.046,0.283,-5.337
0.112,0.042,0.284,-5.337
0.142,0.042,0.278,-5.337
0.118,0.043,0.272,-5.337
0.140,0.044,0.271,-5.337
0.147,0.044,0.275,-5.337
0.092,0.046,0.279,-5.337
0.115,0.042,0.284,-5.337
0.168,0.044,0.288,-5.337
0.153,0.047,0.287,-5.337
0.111,0.043,0.281,-5.337
0.101,0.041,0.276,-5.337
0.128,0.044,0.273,-5.337
0.177,0.040,0.274,-5.337
0.177,0.037,0.276,-5.337
0.192,0.036,0.279,-5.337
0.193,0.036,0.281,-5.337
0.177,0.039,0.282,-5.337
0.163,0.039,0.280,-5.337
0.132,0.040,0.281,-5.337
0.139,0.040,0.280,-5.337
0.189,0.038,0.278,-5.337
0.174,0.040,0.274,-5.337
0.187,0.041,0.276,-5.337
0.235,0.038,0.275,-5.337
0.208,0.040,0.278,-5.337
0.152,0.042,0.280,-5.337
0.205,0.039,0.279,-5.337
0.259,0.039,0.277,-5.337
0.291,0.038,0.274,-5.337
0.204,0.040,0.274,-5.337
0.107,0.045,0.274,-5.337
0.047,0.045,0.274,-5.337
0.084,0.043,0.278,-5.337
0.162,0.043,0.280,-5.337
0.117,0.043,0.278,-5.337
0.102,0.044,0.278,-5.337
0.076,0.045,0.278,-5.337
0.120,0.043,0.277,-5.337
0.164,0.040,0.276,-5.337
0.155,0.038,0.279,-5.337
0.130,0.042,0.282,-5.337
0.162,0.046,0.285,-5.337
0.198,0.047,0.280,-5.337
0.159,0.051,0.274,-5.337
0.139,0.048,0.272,-5.337
0.103,0.047,0.279,-5.337
0.124,0.044,0.285,-5.337
0.148,0.042,0.282,-5.337
0.186,0.040,0.275,-5.337
0.235,0.043,0.273,-5.337
0.211,0.044,0.275,-5.337
0.136,0.044,0.279,-5.337
0.148,0.044,0.281,-5.337
0.132,0.043,0.282,-5.337
0.138,0.045,0.282,-5.337
0.154,0.050,0.281,-5.337
0.134,0.050,0.279,-5.337
0.104,0.049,0.278,-5.337
0.120,0.045,0.278,-5.337
0.149,0.044,0.275,-5.337
0.181,0.042,0.275,-5.337
0.197,0.039,0.275,-5.337
0.199,0.038,0.277,-5.337
0.214,0.041,0.280,-5.337
0.243,0.041,0.283,-5.337
0.277,0.042,0.282,-5.337
0.238,0.048,0.281,-5.337
0.162,0.047,0.280,-5.337
0.130,0.049,0.283,-5.337
0.159,0.045,0.283,-5.337
0.224,0.046,0.283,-5.337
0.214,0.047,0.283,-5.337
0.132,0.049,0.280,-5.337
0.163,0.046,0.275,-5.337
0.197,0.046,0.275,-5.337
0.220,0.045,0.275,-5.337
0.189,0.046,0.277,-5.337
0.217,0.047,0.281,-5.337
0.226,0.048,0.282,-5.337
0.188,0.049,0.279,-5.337
0.137,0.052,0.275,-5.337
0.105,0.048,0.275,-5.337
0.097,0.050,0.275,-5.337
0.173,0.052,0.277,-5.337
0.171,0.049,0.277,-5.337
0.119,0.048,0.276,-5.337
0.125,0.051,0.276,-5.337
0.102,0.054,0.277,-5.337
0.169,0.051,0.272,-5.337
0.231,0.047,0.273,-5.337
0.197,0.050,0.274,-5.337
0.172,0.051,0.273,-5.337
0.244,0.046,0.275,-5.337
0.276,0.045,0.282,-5.337
0.280,0.046,0.284,-5.337
0.255,0.046,0.284,-5.337
0.180,0.051,0.281,-5.337
0.169,0.052,0.280,-5.337
0.193,0.051,0.278,-5.337
0.255,0.049,0.279,-5.337
0.242,0.051,0.281,-5.337
0.179,0.053,0.282,-5.337
0.167,0.054,0.284,-5.337
0.148,0.054,0.280,-5.337
0.073,0.056,0.280,-5.337
0.076,0.057,0.282,-5.337
0.125,0.054,0.280,-5.337
0.137,0.053,0.278,-5.337
0.150,0.055,0.278,-5.337
0.199,0.054,0.274,-5.337
0.214,0.054,0.270,-5.337
0.214,0.052,0.268,-5.337
0.203,0.051,0.274,-5.337
0.243,0.047,0.281,-5.337
0.276,0.050,0.286,-5.337
0.232,0.056,0.283,-5.337
0.156,0.057,0.280,-5.337
0.179,0.058,0.278,-5.337
0.233,0.058,0.277,-5.337
0.244,0.056,0.279,-5.337
0.174,0.054,0.281,-5.337
0.171,0.054,0.282,-5.337
0.187,0.057,0.282,-5.337
0.194,0.058,0.282,-5.337
0.225,0.057,0.280,-5.337
0.221,0.057,0.279,-5.337
0.235,0.059,0.277,-5.337
0.186,0.060,0.277,-5.337
0.244,0.055,0.277,-5.337
0.269,0.053,0.279,-5.337
0.299,0.054,0.278,-5.337
0.325,0.054,0.279,-5.337
0.294,0.054,0.280,-5.337
0.244,0.057,0.279,-5.337
0.205,0.054,0.279,-5.337
0.180,0.053,0.279,-5.337
0.162,0.055,0.277,-5.337
0.214,0.054,0.278,-5.337
0.243,0.056,0.277,-5.337
0.209,0.058,0.275,-5.337
0.191,0.054,0.279,-5.337
0.250,0.051,0.281,-5.337
0.255,0.054,0.283,-5.337
0.202,0.055,0.284,-5.337
0.206,0.051,0.288,-5.337
0.251,0.050,0.284,-5.337
0.290,0.051,0.281,-5.337
0.293,0.054,0.277,-5.337
0.264,0.058,0.272,-5.337
0.236,0.063,0.273,-5.337
0.201,0.067,0.280,-5.337
0.197,0.062,0.284,-5.337
0.197,0.059,0.283,-5.337
0.128,0.058,0.281,-5.337
0.110,0.055,0.283,-5.337
0.252,0.052,0.281,-5.337
0.304,0.051,0.277,-5.337
0.268,0.055,0.272,-5.337
0.209,0.061,0.274,-5.337
0.169,0.064,0.279,-5.337
0.235,0.060,0.279,-5.337
0.320,0.057,0.277,-5.337
0.293,0.058,0.277,-5.337
0.242,0.058,0.280,-5.337
0.209,0.059,0.278,-5.337
0.216,0.056,0.279,-5.337
0.273,0.054,0.280,-5.337
0.251,0.056,0.282,-5.337
0.223,0.055,0.280,-5.337
0.186,0.060,0.280,-5.337
0.166,0.063,0.274,-5.337
0.138,0.065,0.271,-5.337
0.104,0.060,0.276,-5.337
0.228,0.055,0.280,-5.337
0.373,0.056,0.280,-5.337
0.350,0.061,0.277,-5.337
0.290,0.060,0.276,-5.337
0.295,0.061,0.278,-5.337
0.296,0.063,0.277,-5.337
0.326,0.063,0.277,-5.337
0.308,0.064,0.278,-5.337
0.287,0.063,0.276,-5.337
0.194,0.062,0.274,-5.337
0.157,0.062,0.278,-5.337
0.246,0.061,0.283,-5.337
0.271,0.059,0.284,-5.337
0.270,0.059,0.280,-5.337
0.245,0.062,0.278,-5.337
0.200,0.063,0.280,-5.337
0.251,0.059,0.278,-5.337
0.253,0.061,0.276,-5.337
0.226,0.062,0.278,-5.337
0.215,0.063,0.280,-5.337
0.258,0.058,0.279,-5.337
0.299,0.058,0.281,-5.337
0.261,0.059,0.276,-5.337
0.261,0.058,0.276,-5.337
0.314,0.056,0.282,-5.337
0.290,0.059,0.286,-5.337
0.287,0.058,0.286,-5.337
0.299,0.058,0.282,-5.337
0.307,0.054,0.279,-5.337
0.263,0.057,0.278,-5.337
0.158,0.062,0.278,-5.337
0.178,0.063,0.277,-5.337
0.177,0.066,0.278,-5.337
0.200,0.066,0.277,-5.337
0.185,0.065,0.278,-5.337
0.209,0.067,0.278,-5.337
0.244,0.067,0.280,-5.337
0.274,0.068,0.279,-5.337
0.199,0.069,0.280,-5.337
0.191,0.064,0.279,-5.337
0.307,0.060,0.280,-5.337
0.331,0.062,0.281,-5.337
0.315,0.067,0.283,-5.337
0.307,0.063,0.281,-5.337
0.294,0.062,0.281,-5.337
0.263,0.063,0.280,-5.337
0.287,0.063,0.277,-5.337
0.294,0.059,0.275,-5.337
0.210,0.067,0.280,-5.337
0.144,0.069,0.284,-5.337
0.212,0.065,0.285,-5.337
0.204,0.064,0.283,-5.337
0.215,0.063,0.281,-5.337
0.240,0.061,0.278,-5.337
0.298,0.060,0.276,-5.337
0.282,0.064,0.277,-5.337
0.217,0.069,0.281,-5.337
0.162,0.068,0.281,-5.337
0.161,0.066,0.279,-5.337
0.172,0.064,0.282,-5.337
0.247,0.063,0.285,-5.337
0.249,0.064,0.284,-5.337
0.227,0.065,0.286,-5.337
0.253,0.064,0.289,-5.337
0.297,0.066,0.286,-5.337
0.236,0.064,0.282,-5.337
0.262,0.062,0.280,-5.337
0.331,0.062,0.276,-5.337
0.395,0.060,0.280,-5.337
0.324,0.063,0.284,-5.337
0.218,0.066,0.285,-5.337
0.209,0.064,0.286,-5.337
0.204,0.064,0.283,-5.337
0.230,0.065,0.277,-5.337
0.247,0.067,0.275,-5.337
0.276,0.063,0.278,-5.337
0.292,0.061,0.281,-5.337
0.318,0.061,0.279,-5.337
0.282,0.064,0.282,-5.337
0.207,0.069,0.285,-5.337
0.233,0.068,0.282,-5.337
0.273,0.064,0.275,-5.337
0.243,0.065,0.276,-5.337
0.181,0.063,0.279,-5.337
0.157,0.063,0.283,-5.337
0.211,0.061,0.284,-5.337
0.271,0.066,0.283,-5.337
0.301,0.063,0.284,-5.337
0.300,0.061,0.283,-5.337
0.238,0.064,0.279,-5.337
0.236,0.062,0.277,-5.337
0.239,0.063,0.279,-5.337
0.203,0.063,0.279,-5.337
0.234,0.060,0.275,-5.337
0.297,0.059,0.276,-5.337
0.233,0.062,0.279,-5.337
0.176,0.065,0.282,-5.337
0.132,0.065,0.285,-5.337
0.189,0.059,0.282,-5.337
0.262,0.062,0.282,-5.337
0.241,0.065,0.280,-5.337
0.222,0.061,0.277,-5.337
0.241,0.056,0.276,-5.337
0.277,0.056,0.275,-5.337
0.311,0.055,0.277,-5.337
0.262,0.057,0.280,-5.337
0.149,0.057,0.282,-5.337
0.172,0.055,0.285,-5.337
0.212,0.055,0.284,-5.337
0.266,0.055,0.282,-5.337
0.308,0.055,0.282,-5.337
0.260,0.057,0.281,-5.337
0.143,0.058,0.281,-5.337
0.122,0.056,0.280,-5.337
0.179,0.053,0.280,-5.337
0.233,0.054,0.279,-5.337
0.280,0.056,0.277,-5.337
0.255,0.054,0.276,-5.337
0.237,0.052,0.278,-5.337
0.271,0.050,0.277,-5.337
0.235,0.053,0.278,-5.337
0.259,0.055,0.278,-5.337
0.254,0.055,0.280,-5.337
0.175,0.059,0.280,-5.337
0.183,0.059,0.279,-5.337
0.226,0.055,0.276,-5.337
0.241,0.055,0.276,-5.337
0.253,0.057,0.278,-5.337
0.225,0.063,0.282,-5.337
0.222,0.061,0.280,-5.337
0.277,0.056,0.278,-5.337
0.238,0.054,0.279,-5.337
0.171,0.057,0.281,-5.337
0.152,0.055,0.281,-5.337
0.229,0.052,0.281,-5.337
0.282,0.050,0.279,-5.337
0.251,0.051,0.276,-5.337
0.251,0.050,0.276,-5.337
0.242,0.052,0.277,-5.337
0.274,0.052,0.276,-5.337
0.308,0.050,0.279,-5.337
0.274,0.047,0.279,-5.337
0.256,0.049,0.276,-5.337
0.243,0.053,0.274,-5.337
0.255,0.050,0.272,-5.337
0.290,0.045,0.281,-5.337
0.247,0.051,0.284,-5.337
0.193,0.052,0.282,-5.337
0.190,0.052,0.275,-5.337
0.219,0.052,0.273,-5.337
0.163,0.050,0.276,-5.337
0.130,0.054,0.282,-5.337
0.185,0.049,0.282,-5.337
0.205,0.049,0.277,-5.337
0.192,0.048,0.274,-5.337
0.199,0.050,0.273,-5.337
0.191,0.050,0.275,-5.337
0.203,0.048,0.277,-5.337
0.189,0.048,0.281,-5.337
0.214,0.049,0.283,-5.337
0.167,0.053,0.281,-5.337
0.169,0.053,0.279,-5.337
0.195,0.052,0.277,-5.337
0.237,0.049,0.271,-5.337
0.295,0.045,0.270,-5.337
0.307,0.045,0.272,-5.337
0.242,0.047,0.275,-5.337
0.183,0.049,0.275,-5.337
0.166,0.048,0.278,-5.337
0.209,0.047,0.279,-5.337
0.232,0.049,0.281,-5.337
0.241,0.045,0.280,-5.337
0.284,0.043,0.281,-5.337
0.237,0.046,0.277,-5.337
0.211,0.049,0.274,-5.337
0.141,0.050,0.271,-5.337
0.107,0.052,0.272,-5.337
0.136,0.053,0.277,-5.337
0.230,0.050,0.282,-5.337
0.323,0.044,0.280,-5.337
0.311,0.043,0.275,-5.337
0.249,0.047,0.273,-5.337
0.195,0.048,0.272,-5.337
0.183,0.049,0.274,-5.337
0.172,0.047,0.278,-5.337
0.176,0.050,0.281,-5.337
0.212,0.050,0.280,-5.337
0.220,0.049,0.280,-5.337
0.278,0.048,0.275,-5.337
0.254,0.048,0.274,-5.337
0.173,0.047,0.272,-5.337
0.193,0.043,0.276,-5.337
0.236,0.042,0.277,-5.337
0.166,0.043,0.275,-5.337
0.112,0.042,0.275,-5.337
0.143,0.042,0.278,-5.337
0.180,0.044,0.277,-5.337
0.157,0.044,0.278,-5.337
0.177,0.043,0.278,-5.337
0.200,0.043,0.278,-5.337
0.194,0.043,0.279,-5.337
0.183,0.046,0.279,-5.337
0.175,0.044,0.279,-5.337
0.167,0.048,0.279,-5.337
0.194,0.046,0.280,-5.337
0.297,0.042,0.274,-5.337
0.314,0.042,0.269,-5.337
0.319,0.044,0.266,-5.337
0.299,0.043,0.271,-5.337
0.259,0.045,0.277,-5.337
0.191,0.047,0.281,-5.337
0.234,0.043,0.279,-5.337
0.293,0.040,0.276,-5.337
0.233,0.040,0.273,-5.337
0.156,0.043,0.277,-5.337
0.110,0.046,0.279,-5.337
0.183,0.044,0.277,-5.337
0.266,0.040,0.275,-5.337
0.231,0.040,0.277,-5.337
0.183,0.040,0.277,-5.337
0.132,0.040,0.278,-5.337
0.107,0.041,0.275,-5.337
0.212,0.041,0.274,-5.337
0.227,0.042,0.273,-5.337
0.204,0.044,0.275,-5.337
0.144,0.045,0.275,-5.337
0.146,0.043,0.275,-5.337
0.129,0.044,0.276,-5.337
0.179,0.043,0.276,-5.337
0.219,0.043,0.280,-5.337
0.155,0.044,0.277,-5.337
0.101,0.045,0.274,-5.337
0.079,0.043,0.272,-5.337
0.086,0.044,0.277,-5.337
0.111,0.042,0.277,-5.337
0.233,0.042,0.275,-5.337
0.342,0.041,0.271,-5.337
0.269,0.042,0.271,-5.337
0.149,0.041,0.274,-5.337
0.160,0.042,0.278,-5.337
0.153,0.041,0.280,-5.337
0.198,0.041,0.276,-5.337
0.256,0.038,0.272,-5.337
0.249,0.037,0.272,-5.337
0.264,0.040,0.273,-5.337
0.215,0.042,0.276,-5.337
0.152,0.039,0.278,-5.337
0.157,0.039,0.283,-5.337
0.175,0.036,0.284,-5.337
0.227,0.037,0.281,-5.337
0.222,0.039,0.278,-5.337
0.173,0.040,0.273,-5.337
0.119,0.042,0.271,-5.337
0.184,0.040,0.272,-5.337
0.244,0.034,0.275,-5.337
0.201,0.033,0.278,-5.337
0.201,0.036,0.276,-5.337
0.169,0.040,0.272,-5.337
0.172,0.044,0.273,-5.337
0.141,0.044,0.272,-5.337
0.130,0.042,0.275,-5.337
0.153,0.038,0.280,-5.337
0.149,0.037,0.280,-5.337
0.203,0.037,0.275,-5.337
0.252,0.040,0.274,-5.337
0.168,0.044,0.273,-5.337
0.172,0.041,0.273,-5.337
0.215,0.038,0.275,-5.337
0.228,0.038,0.273,-5.337
0.223,0.036,0.273,-5.337
0.155,0.037,0.274,-5.337
0.157,0.038,0.277,-5.337
0.178,0.040,0.277,-5.337
0.195,0.040,0.276,-5.337
0.154,0.042,0.272,-5.337
0.099,0.044,0.275,-5.337
0.090,0.043,0.274,-5.337
0.097,0.048,0.273,-5.337
0.041,0.049,0.272,-5.337
0.067,0.041,0.272,-5.337
0.148,0.038,0.274,-5.337
0.175,0.042,0.276,-5.337
0.143,0.043,0.278,-5.337
0.130,0.042,0.278,-5.337
0.120,0.041,0.274,-5.337
0.151,0.039,0.274,-5.337
0.165,0.040,0.277,-5.337
0.186,0.037,0.278,-5.337
0.156,0.039,0.274,-5.337
0.154,0.041,0.274,-5.337
0.196,0.046,0.276,-5.337
0.179,0.046,0.276,-5.337
0.141,0.044,0.273,-5.337
0.115,0.045,0.270,-5.337
0.145,0.042,0.273,-5.337
0.195,0.039,0.277,-5.337
0.223,0.038,0.278,-5.337
0.159,0.038,0.273,-5.337
0.188,0.037,0.272,-5.337
0.185,0.043,0.273,-5.337
0.134,0.042,0.274,-5.337
0.166,0.038,0.273,-5.337
0.239,0.038,0.273,-5.337
0.173,0.041,0.272,-5.337
0.132,0.044,0.274,-5.337
0.136,0.043,0.278,-5.337
0.162,0.044,0.281,-5.337
0.230,0.042,0.283,-5.337
0.239,0.043,0.280,-5.337
0.230,0.042,0.274,-5.337
0.201,0.042,0.271,-5.337
0.191,0.044,0.269,-5.337
0.139,0.046,0.268,-5.337
0.141,0.044,0.269,-5.337
0.150,0.042,0.271,-5.337
0.181,0.044,0.274,-5.337
0.198,0.045,0.277,-5.337
0.230,0.042,0.280,-5.337
0.221,0.040,0.281,-5.337
0.180,0.037,0.279,-5.337
0.235,0.040,0.275,-5.337
0.224,0.041,0.272,-5.337
0.199,0.041,0.274,-5.337
0.252,0.040,0.274,-5.337
0.267,0.038,0.273,-5.337
0.192,0.045,0.275,-5.337
0.067,0.049,0.276,-5.337
0.069,0.048,0.276,-5.337
0.140,0.044,0.278,-5.337
0.166,0.041,0.278,-5.337
0.125,0.039,0.276,-5.337
0.182,0.033,0.274,-5.337
0.170,0.037,0.274,-5.337
0.165,0.038,0.276,-5.337
0.201,0.035,0.279,-5.337
0.274,0.035,0.278,-5.337
0.197,0.041,0.275,-5.337
0.088,0.043,0.276,-5.337
0.054,0.043,0.282,-5.337
0.022,0.047,0.285,-5.337
0.051,0.045,0.282,-5.337
0.148,0.044,0.277,-5.337
0.243,0.047,0.278,-5.337
0.220,0.045,0.277,-5.337
0.195,0.044,0.277,-5.337
0.167,0.043,0.278,-5.337
0.188,0.045,0.276,-5.337
0.164,0.048,0.275,-5.337
0.191,0.047,0.276,-5.337
0.222,0.042,0.275,-5.337
0.216,0.044,0.276,-5.337
0.226,0.045,0.276,-5.337
0.256,0.045,0.274,-5.337
0.213,0.046,0.275,-5.337
0.202,0.045,0.278,-5.337
0.180,0.044,0.279,-5.337
0.107,0.046,0.275,-5.337
0.051,0.047,0.274,-5.337
0.134,0.047,0.273,-5.337
0.200,0.045,0.276,-5.337
0.162,0.048,0.280,-5.337
0.107,0.047,0.282,-5.337
0.176,0.043,0.276,-5.337
0.164,0.044,0.274,-5.337
0.134,0.046,0.274,-5.337
0.121,0.049,0.276,-5.337
0.078,0.049,0.277,-5.337
0.137,0.048,0.279,-5.337
0.225,0.044,0.276,-5.337
0.255,0.042,0.271,-5.337
0.218,0.047,0.270,-5.337
0.198,0.049,0.273,-5.337
0.092,0.053,0.277,-5.337
0.061,0.050,0.278,-5.337
0.145,0.048,0.276,-5.337
0.245,0.047,0.274,-5.337
0.234,0.046,0.271,-5.337
0.147,0.046,0.273,-5.337
0.084,0.045,0.277,-5.337
0.157,0.047,0.277,-5.337
0.159,0.050,0.276,-5.337
0.126,0.052,0.275,-5.337
0.141,0.046,0.277,-5.337
0.193,0.043,0.277,-5.337
0.262,0.044,0.277,-5.337
0.268,0.044,0.274,-5.337
0.247,0.047,0.276,-5.337
0.246,0.048,0.273,-5.337
0.224,0.048,0.273,-5.337
0.255,0.048,0.277,-5.337
0.244,0.050,0.277,-5.337
0.203,0.050,0.273,-5.337
0.188,0.052,0.274,-5.337
0.194,0.050,0.271,-5.337
0.227,0.051,0.272,-5.337
0.240,0.050,0.273,-5.337
0.155,0.054,0.273,-5.337
0.121,0.055,0.273,-5.337
0.172,0.051,0.274,-5.337
0.197,0.051,0.278,-5.337
0.188,0.052,0.281,-5.337
0.231,0.051,0.278,-5.337
0.244,0.054,0.271,-5.337
0.204,0.054,0.273,-5.337
0.180,0.050,0.275,-5.337
0.177,0.052,0.276,-5.337
0.238,0.052,0.276,-5.337
0.233,0.052,0.278,-5.337
0.174,0.055,0.277,-5.337
0.142,0.057,0.275,-5.337
0.177,0.056,0.273,-5.337
0.174,0.057,0.272,-5.337
0.208,0.053,0.274,-5.337
0.200,0.053,0.279,-5.337
0.148,0.057,0.277,-5.337
0.141,0.060,0.272,-5.337
0.211,0.054,0.275,-5.337
0.200,0.056,0.276,-5.337
0.199,0.058,0.273,-5.337
0.160,0.056,0.270,-5.337
0.210,0.053,0.272,-5.337
0.243,0.051,0.272,-5.337
0.214,0.052,0.274,-5.337
0.194,0.055,0.278,-5.337
0.223,0.058,0.280,-5.337
0.258,0.056,0.278,-5.337
0.195,0.054,0.276,-5.337
0.157,0.056,0.272,-5.337
0.211,0.059,0.274,-5.337
0.269,0.056,0.276,-5.337
0.255,0.057,0.277,-5.337
0.217,0.057,0.275,-5.337
0.269,0.056,0.272,-5.337
0.284,0.051,0.271,-5.337
0.207,0.051,0.275,-5.337
0.212,0.053,0.275,-5.337
0.260,0.052,0.275,-5.337
0.260,0.050,0.277,-5.337
0.266,0.053,0.276,-5.337
0.248,0.054,0.276,-5.337
0.165,0.057,0.273,-5.337
0.152,0.059,0.271,-5.337
0.185,0.057,0.271,-5.337
0.183,0.054,0.271,-5.337
0.161,0.055,0.272,-5.337
0.193,0.055,0.274,-5.337
0.215,0.057,0.275,-5.337
0.191,0.054,0.280,-5.337
0.161,0.055,0.281,-5.337
0.221,0.057,0.280,-5.337
0.257,0.058,0.275,-5.337
0.277,0.057,0.274,-5.337
0.282,0.056,0.275,-5.337
0.263,0.055,0.272,-5.337
0.243,0.055,0.271,-5.337
0.213,0.058,0.274,-5.337
0.125,0.061,0.274,-5.337
0.146,0.059,0.276,-5.337
0.295,0.056,0.279,-5.337
0.294,0.055,0.279,-5.337
0.261,0.057,0.277,-5.337
0.225,0.061,0.277,-5.337
0.158,0.062,0.273,-5.337
0.145,0.060,0.268,-5.337
0.213,0.064,0.268,-5.337
0.236,0.064,0.270,-5.337
0.191,0.064,0.277,-5.337
0.151,0.065,0.279,-5.337
0.176,0.063,0.279,-5.337
0.225,0.061,0.274,-5.337
0.239,0.060,0.272,-5.337
0.190,0.063,0.273,-5.337
0.203,0.065,0.275,-5.337
0.222,0.064,0.274,-5.337
0.230,0.062,0.272,-5.337
0.236,0.057,0.275,-5.337
0.203,0.057,0.279,-5.337
0.166,0.058,0.280,-5.337
0.188,0.059,0.276,-5.337
0.232,0.056,0.275,-5.337
0.312,0.056,0.277,-5.337
0.313,0.060,0.276,-5.337
0.259,0.066,0.275,-5.337
0.194,0.065,0.277,-5.337
0.252,0.056,0.276,-5.337
0.374,0.052,0.277,-5.337
0.404,0.056,0.276,-5.337
0.352,0.058,0.278,-5.337
0.329,0.054,0.278,-5.337
0.252,0.057,0.277,-5.337
0.196,0.058,0.276,-5.337
0.285,0.057,0.277,-5.337
0.312,0.057,0.273,-5.337
0.229,0.056,0.273,-5.337
0.214,0.056,0.274,-5.337
0.275,0.057,0.277,-5.337
0.310,0.057,0.277,-5.337
0.212,0.059,0.278,-5.337
0.099,0.058,0.278,-5.337
0.116,0.060,0.278,-5.337
0.221,0.056,0.276,-5.337
0.304,0.056,0.274,-5.337
0.283,0.056,0.272,-5.337
0.236,0.058,0.275,-5.337
0.178,0.058,0.279,-5.337
0.209,0.056,0.278,-5.337
0.226,0.055,0.277,-5.337
0.175,0.058,0.276,-5.337
0.098,0.060,0.276,-5.337
0.116,0.060,0.275,-5.337
0.239,0.056,0.276,-5.337
0.300,0.058,0.276,-5.337
0.282,0.061,0.277,-5.337
0.256,0.058,0.276,-5.337
0.295,0.056,0.276,-5.337
0.341,0.059,0.278,-5.337
0.313,0.062,0.277,-5.337
0.275,0.063,0.275,-5.337
0.301,0.063,0.277,-5.337
0.327,0.059,0.278,-5.337
0.257,0.063,0.277,-5.337
0.184,0.064,0.275,-5.337
0.208,0.062,0.272,-5.337
0.151,0.065,0.274,-5.337
0.126,0.066,0.277,-5.337
0.182,0.067,0.278,-5.337
0.176,0.065,0.277,-5.337
0.187,0.065,0.274,-5.337
0.244,0.062,0.269,-5.337
0.265,0.061,0.273,-5.337
0.276,0.060,0.276,-5.337
0.237,0.060,0.278,-5.337
0.207,0.061,0.275,-5.337
0.246,0.058,0.275,-5.337
0.280,0.058,0.275,-5.337
0.267,0.064,0.279,-5.337
0.220,0.065,0.278,-5.337
0.208,0.063,0.278,-5.337
0.297,0.057,0.278,-5.337
0.362,0.063,0.274,-5.337
0.337,0.067,0.274,-5.337
0.253,0.070,0.278,-5.337
0.232,0.070,0.282,-5.337
0.286,0.066,0.282,-5.337
0.268,0.066,0.277,-5.337
0.231,0.064,0.273,-5.337
0.270,0.064,0.270,-5.337
0.277,0.068,0.268,-5.337
0.300,0.065,0.273,-5.337
0.307,0.067,0.274,-5.337
0.322,0.063,0.274,-5.337
0.279,0.063,0.273,-5.337
0.234,0.062,0.273,-5.337
0.249,0.060,0.273,-5.337
0.247,0.060,0.275,-5.337
0.233,0.062,0.276,-5.337
0.253,0.060,0.275,-5.337
0.266,0.061,0.275,-5.337
0.197,0.067,0.279,-5.337
0.195,0.064,0.278,-5.337
0.286,0.062,0.279,-5.337
0.262,0.061,0.279,-5.337
0.227,0.063,0.274,-5.337
0.250,0.063,0.276,-5.337
0.235,0.063,0.280,-5.337
0.208,0.061,0.280,-5.337
0.232,0.062,0.274,-5.337
0.302,0.062,0.270,-5.337
0.355,0.063,0.274,-5.337
0.372,0.056,0.279,-5.337
0.367,0.055,0.277,-5.337
0.277,0.058,0.280,-5.337
0.272,0.064,0.281,-5.337
0.227,0.064,0.278,-5.337
0.224,0.063,0.273,-5.337
0.206,0.063,0.272,-5.337
0.243,0.062,0.271,-5.337
0.244,0.063,0.273,-5.337
0.223,0.061,0.275,-5.337
0.209,0.060,0.280,-5.337
0.211,0.061,0.280,-5.337
0.231,0.062,0.280,-5.337
0.257,0.059,0.275,-5.337
0.275,0.058,0.273,-5.337
0.245,0.058,0.275,-5.337
0.222,0.060,0.276,-5.337
0.258,0.060,0.277,-5.337
0.264,0.062,0.279,-5.337
0.178,0.064,0.277,-5.337
0.168,0.062,0.277,-5.337
0.242,0.058,0.279,-5.337
0.276,0.058,0.278,-5.337
0.326,0.058,0.277,-5.337
0.325,0.058,0.274,-5.337
0.254,0.059,0.274,-5.337
0.248,0.054,0.278,-5.337
0.287,0.054,0.281,-5.337
0.259,0.059,0.279,-5.337
0.149,0.059,0.282,-5.337
0.155,0.058,0.280,-5.337
0.177,0.058,0.273,-5.337
0.265,0.060,0.273,-5.337
0.346,0.060,0.281,-5.337
0.342,0.055,0.286,-5.337
0.258,0.058,0.285,-5.337
0.157,0.057,0.281,-5.337
0.137,0.057,0.276,-5.337
0.182,0.057,0.271,-5.337
0.274,0.057,0.270,-5.337
0.315,0.054,0.276,-5.337
0.217,0.054,0.282,-5.337
0.218,0.052,0.283,-5.337
0.252,0.053,0.277,-5.337
0.184,0.054,0.275,-5.337
0.251,0.054,0.274,-5.337
0.312,0.057,0.277,-5.337
0.307,0.053,0.277,-5.337
0.229,0.051,0.277,-5.337
0.186,0.054,0.277,-5.337
0.197,0.058,0.283,-5.337
0.274,0.059,0.285,-5.337
0.329,0.055,0.285,-5.337
0.264,0.054,0.280,-5.337
0.179,0.058,0.277,-5.337
0.175,0.055,0.276,-5.337
0.237,0.051,0.273,-5.337
0.269,0.052,0.276,-5.337
0.225,0.055,0.283,-5.337
0.197,0.056,0.283,-5.337
0.234,0.054,0.280,-5.337
0.218,0.054,0.276,-5.337
0.194,0.053,0.274,-5.337
0.193,0.053,0.273,-5.337
0.189,0.050,0.276,-5.337
0.291,0.049,0.280,-5.337
0.303,0.050,0.279,-5.337
0.262,0.052,0.279,-5.337
0.233,0.053,0.281,-5.337
0.258,0.052,0.281,-5.337
0.248,0.053,0.277,-5.337
0.293,0.052,0.278,-5.337
0.305,0.049,0.278,-5.337
0.250,0.050,0.278,-5.337
0.209,0.055,0.276,-5.337
0.178,0.055,0.275,-5.337
0.238,0.049,0.275,-5.337
0.272,0.047,0.274,-5.337
0.284,0.047,0.274,-5.337
0.209,0.050,0.274,-5.337
0.193,0.046,0.277,-5.337
0.223,0.044,0.277,-5.337
0.214,0.047,0.277,-5.337
0.256,0.049,0.277,-5.337
0.234,0.051,0.275,-5.337
0.213,0.049,0.277,-5.337
0.174,0.047,0.279,-5.337
0.243,0.046,0.276,-5.337
0.288,0.047,0.272,-5.337
0.292,0.045,0.275,-5.337
0.256,0.044,0.280,-5.337
0.213,0.043,0.282,-5.337
0.170,0.045,0.280,-5.337
0.207,0.045,0.275,-5.337
0.256,0.043,0.273,-5.337
0.278,0.041,0.272,-5.337
0.239,0.040,0.271,-5.337
0.201,0.040,0.270,-5.337
0.180,0.042,0.277,-5.337
0.142,0.046,0.281,-5.337
0.105,0.045,0.282,-5.337
0.163,0.041,0.279,-5.337
0.176,0.042,0.275,-5.337
0.074,0.046,0.274,-5.337
0.072,0.045,0.275,-5.337
0.149,0.042,0.276,-5.337
0.230,0.039,0.271,-5.337
0.247,0.038,0.272,-5.337
0.211,0.043,0.277,-5.337
0.213,0.042,0.279,-5.337
0.238,0.045,0.277,-5.337
0.256,0.045,0.274,-5.337
0.226,0.047,0.274,-5.337
0.169,0.047,0.279,-5.337
0.201,0.044,0.280,-5.337
0.223,0.046,0.280,-5.337
0.222,0.045,0.277,-5.337
0.277,0.048,0.276,-5.337
0.257,0.050,0.277,-5.337
0.239,0.049,0.280,-5.337
0.224,0.049,0.276,-5.337
0.245,0.052,0.272,-5.337
0.256,0.050,0.270,-5.337
0.216,0.050,0.273,-5.337
0.179,0.049,0.279,-5.337
0.143,0.053,0.280,-5.337
0.092,0.051,0.277,-5.337
0.129,0.049,0.280,-5.337
0.168,0.048,0.282,-5.337
0.161,0.046,0.282,-5.337
0.122,0.051,0.279,-5.337
0.108,0.051,0.274,-5.337
0.167,0.047,0.272,-5.337
0.237,0.046,0.274,-5.337
0.233,0.047,0.274,-5.337
0.236,0.045,0.273,-5.337
0.301,0.043,0.278,-5.337
0.226,0.048,0.276,-5.337
0.176,0.045,0.276,-5.337
0.228,0.044,0.276,-5.337
0.230,0.048,0.278,-5.337
0.231,0.050,0.278,-5.337
0.210,0.051,0.274,-5.337
0.133,0.052,0.271,-5.337
0.136,0.048,0.272,-5.337
0.189,0.043,0.275,-5.337
0.240,0.040,0.281,-5.337
0.213,0.041,0.281,-5.337
0.090,0.048,0.278,-5.337
0.081,0.044,0.273,-5.337
0.217,0.038,0.272,-5.337
0.292,0.039,0.275,-5.337
0.202,0.042,0.278,-5.337
0.149,0.041,0.280,-5.337
0.180,0.041,0.279,-5.337
0.162,0.047,0.279,-5.337
0.107,0.048,0.279,-5.337
0.100,0.049,0.278,-5.337
0.137,0.046,0.275,-5.337
0.167,0.046,0.273,-5.337
0.179,0.045,0.275,-5.337
0.188,0.043,0.277,-5.337
0.128,0.045,0.275,-5.337
0.115,0.044,0.275,-5.337
0.182,0.040,0.275,-5.337
0.195,0.042,0.274,-5.337
0.128,0.044,0.274,-5.337
0.179,0.042,0.279,-5.337
0.269,0.038,0.279,-5.337
0.203,0.041,0.278,-5.337
0.113,0.042,0.278,-5.337
0.132,0.040,0.277,-5.337
0.214,0.039,0.277,-5.337
0.232,0.038,0.276,-5.337
0.173,0.040,0.279,-5.337
0.174,0.040,0.280,-5.337
0.224,0.037,0.280,-5.337
0.267,0.036,0.277,-5.337
0.228,0.038,0.273,-5.337
0.191,0.034,0.269,-5.337
0.233,0.034,0.272,-5.337
0.291,0.030,0.274,-5.337
0.214,0.033,0.275,-5.337
0.152,0.033,0.275,-5.337
0.168,0.031,0.275,-5.337
0.142,0.032,0.276,-5.337
0.136,0.036,0.280,-5.337
0.179,0.037,0.281,-5.337
0.161,0.038,0.279,-5.337
0.202,0.032,0.276,-5.337
0.198,0.034,0.273,-5.337
0.125,0.037,0.275,-5.337
0.089,0.037,0.275,-5.337
0.180,0.036,0.275,-5.337
0.187,0.036,0.277,-5.337
0.198,0.035,0.281,-5.337
0.163,0.037,0.280,-5.337
0.105,0.038,0.277,-5.337
0.138,0.037,0.274,-5.337
0.179,0.036,0.274,-5.337
0.142,0.038,0.277,-5.337
0.118,0.038,0.281,-5.337
0.147,0.036,0.280,-5.337
0.140,0.036,0.277,-5.337
0.170,0.037,0.273,-5.337
0.171,0.037,0.271,-5.337
0.149,0.034,0.273,-5.337
0.194,0.034,0.279,-5.337
0.210,0.036,0.279,-5.337
0.236,0.034,0.278,-5.337
0.279,0.031,0.278,-5.337
0.210,0.034,0.278,-5.337
0.180,0.033,0.278,-5.337
0.232,0.032,0.279,-5.337
0.267,0.031,0.279,-5.337
0.236,0.030,0.277,-5.337
0.175,0.032,0.275,-5.337
0.147,0.029,0.272,-5.337
0.109,0.031,0.272,-5.337
0.079,0.034,0.273,-5.337
0.142,0.031,0.278,-5.337
0.218,0.031,0.282,-5.337
0.179,0.033,0.279,-5.337
0.192,0.030,0.273,-5.337
0.165,0.035,0.272,-5.337
0.117,0.032,0.276,-5.337
0.124,0.035,0.280,-5.337
0.165,0.036,0.276,-5.337
0.200,0.037,0.273,-5.337
0.175,0.032,0.275,-5.337
0.227,0.026,0.275,-5.337
0.264,0.031,0.278,-5.337
0.214,0.037,0.282,-5.337
0.160,0.035,0.281,-5.337
0.128,0.033,0.282,-5.337
0.172,0.033,0.281,-5.337
0.200,0.037,0.277,-5.337
0.203,0.038,0.274,-5.337
0.186,0.037,0.272,-5.337
0.143,0.037,0.270,-5.337
0.202,0.037,0.273,-5.337
0.226,0.037,0.275,-5.337
0.165,0.040,0.274,-5.337
0.153,0.040,0.274,-5.337
0.205,0.039,0.276,-5.337
0.214,0.039,0.281,-5.337
0.209,0.038,0.280,-5.337
0.173,0.043,0.281,-5.337
0.144,0.043,0.283,-5.337
0.189,0.043,0.283,-5.337
0.186,0.043,0.281,-5.337
0.189,0.042,0.280,-5.337
0.173,0.041,0.277,-5.337
0.177,0.037,0.274,-5.337
0.180,0.040,0.272,-5.337
0.130,0.045,0.272,-5.337
0.036,0.047,0.273,-5.337
0.077,0.040,0.266,-5.337
0.158,0.037,0.266,-5.337
0.193,0.039,0.270,-5.337
0.155,0.037,0.272,-5.337
0.162,0.035,0.271,-5.337
0.189,0.036,0.273,-5.337
0.204,0.035,0.273,-5.337
0.185,0.039,0.277,-5.337
0.105,0.039,0.279,-5.337
0.125,0.039,0.282,-5.337
0.200,0.040,0.279,-5.337
0.120,0.045,0.276,-5.337
0.072,0.047,0.274,-5.337
0.082,0.042,0.277,-5.337
0.110,0.037,0.281,-5.337
0.143,0.037,0.281,-5.337
0.185,0.036,0.278,-5.337
0.134,0.040,0.277,-5.337
0.162,0.037,0.276,-5.337
0.206,0.036,0.273,-5.337
0.131,0.039,0.274,-5.337
0.151,0.037,0.277,-5.337
0.132,0.036,0.278,-5.337
0.075,0.041,0.276,-5.337
0.120,0.038,0.276,-5.337
0.213,0.034,0.277,-5.337
0.157,0.036,0.275,-5.337
0.131,0.038,0.273,-5.337
0.205,0.037,0.278,-5.337
0.250,0.036,0.281,-5.337
0.179,0.039,0.278,-5.337
0.127,0.043,0.275,-5.337
0.172,0.044,0.275,-5.337
0.207,0.041,0.275,-5.337
0.187,0.039,0.274,-5.337
0.154,0.042,0.276,-5.337
0.145,0.044,0.280,-5.337
0.119,0.043,0.283,-5.337
0.152,0.041,0.284,-5.337
0.178,0.040,0.283,-5.337
0.144,0.042,0.279,-5.337
0.121,0.044,0.277,-5.337
0.099,0.048,0.280,-5.337
0.111,0.049,0.283,-5.337
0.188,0.045,0.282,-5.337
0.267,0.047,0.278,-5.337
0.254,0.046,0.278,-5.337
0.172,0.046,0.280,-5.337
0.238,0.045,0.277,-5.337
0.226,0.046,0.274,-5.337
0.133,0.049,0.276,-5.337
0.131,0.048,0.279,-5.337
0.171,0.045,0.279,-5.337
0.177,0.047,0.278,-5.337
0.174,0.046,0.276,-5.337
0.183,0.048,0.278,-5.337
0.132,0.051,0.280,-5.337
0.102,0.051,0.279,-5.337
0.114,0.050,0.281,-5.337
0.095,0.051,0.282,-5.337
0.159,0.048,0.280,-5.337
0.233,0.049,0.276,-5.337
0.222,0.050,0.275,-5.337
0.214,0.046,0.277,-5.337
0.222,0.046,0.280,-5.337
0.143,0.049,0.281,-5.337
0.164,0.047,0.279,-5.337
0.161,0.046,0.279,-5.337
0.169,0.046,0.278,-5.337
0.149,0.046,0.279,-5.337
0.158,0.045,0.284,-5.337
0.211,0.042,0.283,-5.337
0.245,0.043,0.280,-5.337
0.190,0.049,0.278,-5.337
0.118,0.053,0.276,-5.337
0.155,0.051,0.274,-5.337
0.300,0.048,0.274,-5.337
0.310,0.048,0.276,-5.337
0.179,0.052,0.279,-5.337
0.134,0.050,0.277,-5.337
0.156,0.048,0.273,-5.337
0.131,0.050,0.274,-5.337
0.162,0.050,0.276,-5.337
0.209,0.053,0.279,-5.337
0.215,0.050,0.282,-5.337
0.221,0.052,0.280,-5.337
0.163,0.052,0.278,-5.337
0.152,0.051,0.280,-5.337
0.207,0.051,0.282,-5.337
0.203,0.053,0.279,-5.337
0.199,0.048,0.275,-5.337
0.244,0.044,0.275,-5.337
0.218,0.051,0.276,-5.337
0.191,0.053,0.280,-5.337
0.157,0.054,0.278,-5.337
0.153,0.056,0.277,-5.337
0.197,0.056,0.276,-5.337
0.170,0.055,0.280,-5.337
0.138,0.052,0.278,-5.337
0.197,0.055,0.274,-5.337
0.209,0.057,0.273,-5.337
0.140,0.056,0.276,-5.337
0.143,0.054,0.277,-5.337
0.179,0.056,0.281,-5.337
0.198,0.054,0.282,-5.337
0.184,0.053,0.279,-5.337
0.253,0.056,0.274,-5.337
0.280,0.056,0.271,-5.337
0.214,0.057,0.269,-5.337
0.193,0.058,0.273,-5.337
0.221,0.058,0.276,-5.337
0.180,0.059,0.275,-5.337
0.222,0.059,0.273,-5.337
0.275,0.060,0.274,-5.337
0.203,0.063,0.277,-5.337
0.177,0.062,0.278,-5.337
0.231,0.060,0.276,-5.337
0.273,0.059,0.271,-5.337
0.284,0.058,0.274,-5.337
0.298,0.057,0.276,-5.337
0.268,0.060,0.276,-5.337
0.258,0.062,0.276,-5.337
0.272,0.064,0.277,-5.337
0.251,0.062,0.278,-5.337
0.245,0.063,0.278,-5.337
0.220,0.066,0.275,-5.337
0.224,0.067,0.275,-5.337
0.207,0.070,0.275,-5.337
0.202,0.067,0.276,-5.337
0.267,0.065,0.275,-5.337
0.263,0.067,0.277,-5.337
0.192,0.066,0.280,-5.337
0.149,0.065,0.280,-5.337
0.191,0.066,0.275,-5.337
0.212,0.065,0.275,-5.337
0.233,0.064,0.278,-5.337
0.222,0.062,0.278,-5.337
0.236,0.063,0.276,-5.337
0.292,0.060,0.272,-5.337
0.327,0.059,0.272,-5.337
0.286,0.060,0.273,-5.337
0.229,0.062,0.276,-5.337
0.201,0.060,0.275,-5.337
0.154,0.064,0.277,-5.337
0.118,0.064,0.278,-5.337
0.170,0.064,0.278,-5.337
0.199,0.063,0.277,-5.337
0.147,0.062,0.277,-5.337
0.095,0.060,0.278,-5.337
0.157,0.058,0.276,-5.337
0.218,0.057,0.273,-5.337
0.194,0.060,0.273,-5.337
0.162,0.062,0.275,-5.337
0.257,0.059,0.276,-5.337
0.286,0.056,0.274,-5.337
0.304,0.054,0.273,-5.337
0.325,0.057,0.276,-5.337
0.237,0.066,0.278,-5.337
0.224,0.066,0.282,-5.337
0.222,0.062,0.280,-5.337
0.244,0.060,0.278,-5.337
0.306,0.057,0.277,-5.337
0.265,0.059,0.277,-5.337
0.269,0.056,0.274,-5.337
0.282,0.060,0.271,-5.337
0.282,0.062,0.274,-5.337
0.288,0.061,0.282,-5.337
0.254,0.058,0.284,-5.337
0.210,0.060,0.278,-5.337
0.202,0.061,0.268,-5.337
0.268,0.059,0.268,-5.337
0.209,0.064,0.273,-5.337
0.176,0.062,0.275,-5.337
0.211,0.058,0.275,-5.337
0.202,0.060,0.278,-5.337
0.191,0.062,0.282,-5.337
0.204,0.061,0.283,-5.337
0.261,0.059,0.283,-5.337
0.294,0.060,0.278,-5.337
0.205,0.063,0.277,-5.337
0.112,0.061,0.274,-5.337
0.182,0.060,0.270,-5.337
0.263,0.061,0.268,-5.337
0.236,0.063,0.271,-5.337
0.221,0.063,0.277,-5.337
0.213,0.061,0.280,-5.337
0.263,0.060,0.281,-5.337
0.296,0.058,0.278,-5.337
0.243,0.058,0.275,-5.337
0.187,0.057,0.280,-5.337
0.227,0.059,0.282,-5.337
0.251,0.064,0.275,-5.337
0.232,0.063,0.273,-5.337
0.239,0.061,0.274,-5.337
0.257,0.061,0.275,-5.337
0.262,0.060,0.276,-5.337
0.282,0.059,0.279,-5.337
0.280,0.063,0.279,-5.337
0.293,0.064,0.280,-5.337
0.287,0.064,0.277,-5.337
0.260,0.065,0.274,-5.337
0.228,0.066,0.275,-5.337
0.229,0.067,0.285,-5.337
0.277,0.067,0.286,-5.337
0.309,0.069,0.283,-5.337
0.288,0.066,0.277,-5.337
0.264,0.063,0.275,-5.337
0.281,0.061,0.273,-5.337
0.256,0.063,0.276,-5.337
0.233,0.064,0.276,-5.337
0.251,0.065,0.274,-5.337
0.270,0.063,0.276,-5.337
0.280,0.064,0.279,-5.337
0.240,0.069,0.278,-5.337
0.266,0.068,0.279,-5.337
0.307,0.068,0.282,-5.337
0.252,0.070,0.283,-5.337
0.234,0.066,0.277,-5.337
0.295,0.065,0.274,-5.337
0.273,0.065,0.272,-5.337
0.219,0.064,0.276,-5.337
0.218,0.062,0.281,-5.337
0.211,0.063,0.283,-5.337
0.275,0.060,0.281,-5.337
0.287,0.059,0.280,-5.337
0.230,0.062,0.280,-5.337
0.181,0.066,0.277,-5.337
0.193,0.065,0.274,-5.337
0.192,0.063,0.274,-5.337
0.226,0.064,0.279,-5.337
0.216,0.065,0.279,-5.337
0.270,0.061,0.276,-5.337
0.305,0.060,0.276,-5.337
0.294,0.065,0.280,-5.337
0.269,0.067,0.282,-5.337
0.322,0.062,0.279,-5.337
0.294,0.063,0.276,-5.337
0.239,0.060,0.272,-5.337
0.185,0.064,0.273,-5.337
0.251,0.068,0.273,-5.337
0.258,0.068,0.273,-5.337
0.231,0.067,0.270,-5.337
0.272,0.063,0.274,-5.337
0.286,0.064,0.277,-5.337
0.254,0.066,0.277,-5.337
0.259,0.067,0.275,-5.337
0.279,0.070,0.277,-5.337
0.284,0.069,0.278,-5.337
0.278,0.068,0.280,-5.337
0.242,0.063,0.280,-5.337
0.279,0.062,0.277,-5.337
0.332,0.062,0.271,-5.337
0.347,0.067,0.267,-5.337
0.362,0.063,0.266,-5.337
0.379,0.066,0.272,-5.337
0.321,0.069,0.280,-5.337
0.301,0.065,0.283,-5.337
0.255,0.066,0.282,-5.337
0.205,0.069,0.281,-5.337
0.203,0.067,0.279,-5.337
0.229,0.064,0.275,-5.337
0.279,0.062,0.274,-5.337
0.288,0.064,0.277,-5.337
0.278,0.064,0.278,-5.337
0.203,0.062,0.274,-5.337
0.146,0.062,0.276,-5.337
0.142,0.064,0.275,-5.337
0.154,0.066,0.276,-5.337
0.155,0.065,0.274,-5.337
0.201,0.066,0.274,-5.337
0.213,0.067,0.275,-5.337
0.219,0.067,0.281,-5.337
0.207,0.068,0.280,-5.337
0.272,0.066,0.276,-5.337
0.300,0.062,0.275,-5.337
0.255,0.060,0.275,-5.337
0.220,0.057,0.274,-5.337
0.226,0.054,0.276,-5.337
0.245,0.057,0.280,-5.337
0.209,0.057,0.282,-5.337
0.198,0.054,0.280,-5.337
0.213,0.055,0.274,-5.337
0.233,0.054,0.270,-5.337
0.239,0.053,0.273,-5.337
0.242,0.055,0.280,-5.337
0.283,0.055,0.277,-5.337
0.305,0.057,0.272,-5.337
0.249,0.060,0.271,-5.337
0.179,0.062,0.272,-5.337
0.175,0.057,0.276,-5.337
0.265,0.054,0.280,-5.337
0.355,0.055,0.280,-5.337
0.274,0.060,0.279,-5.337
0.191,0.058,0.274,-5.337
0.148,0.056,0.271,-5.337
0.187,0.057,0.272,-5.337
0.253,0.057,0.274,-5.337
0.286,0.054,0.277,-5.337
0.204,0.056,0.277,-5.337
0.186,0.054,0.278,-5.337
0.256,0.057,0.279,-5.337
0.250,0.057,0.281,-5.337
0.212,0.054,0.277,-5.337
0.161,0.056,0.275,-5.337
0.195,0.052,0.278,-5.337
0.223,0.053,0.282,-5.337
0.254,0.053,0.280,-5.337
0.295,0.056,0.282,-5.337
0.273,0.055,0.284,-5.337
0.237,0.055,0.281,-5.337
0.246,0.053,0.273,-5.337
0.261,0.053,0.270,-5.337
0.268,0.054,0.272,-5.337
0.240,0.055,0.281,-5.337
0.265,0.053,0.284,-5.337
0.278,0.050,0.281,-5.337
0.357,0.041,0.279,-5.337
0.310,0.045,0.279,-5.337
0.165,0.051,0.279,-5.337
0.128,0.054,0.280,-5.337
0.259,0.049,0.283,-5.337
0.248,0.050,0.281,-5.337
0.145,0.057,0.275,-5.337
0.171,0.056,0.273,-5.337
0.200,0.056,0.274,-5.337
0.228,0.056,0.277,-5.337
0.238,0.055,0.283,-5.337
0.204,0.057,0.285,-5.337
0.138,0.063,0.282,-5.337
0.138,0.058,0.278,-5.337
0.170,0.055,0.278,-5.337
0.163,0.057,0.277,-5.337
0.196,0.061,0.277,-5.337
0.225,0.060,0.276,-5.337
0.196,0.057,0.276,-5.337
0.209,0.053,0.280,-5.337
0.170,0.055,0.285,-5.337
0.160,0.053,0.282,-5.337
0.180,0.055,0.280,-5.337
0.238,0.052,0.279,-5.337
0.254,0.052,0.272,-5.337
0.224,0.054,0.271,-5.337
0.180,0.052,0.279,-5.337
0.136,0.052,0.283,-5.337
0.158,0.051,0.282,-5.337
0.222,0.049,0.279,-5.337
0.218,0.053,0.278,-5.337
0.165,0.057,0.278,-5.337
0.227,0.051,0.276,-5.337
0.208,0.048,0.276,-5.337
0.194,0.051,0.277,-5.337
0.241,0.046,0.277,-5.337
0.244,0.045,0.276,-5.337
0.215,0.048,0.276,-5.337
0.241,0.046,0.274,-5.337
0.242,0.047,0.276,-5.337
0.210,0.048,0.278,-5.337
0.207,0.050,0.280,-5.337
0.279,0.041,0.281,-5.337
0.287,0.042,0.280,-5.337
0.261,0.045,0.278,-5.337
0.209,0.049,0.276,-5.337
0.230,0.049,0.275,-5.337
0.248,0.047,0.274,-5.337
0.222,0.049,0.275,-5.337
0.179,0.048,0.278,-5.337
0.211,0.044,0.278,-5.337
0.227,0.042,0.273,-5.337
0.150,0.044,0.270,-5.337
0.126,0.043,0.272,-5.337
0.099,0.043,0.277,-5.337
0.179,0.042,0.275,-5.337
0.213,0.047,0.275,-5.337
0.198,0.047,0.273,-5.337
0.221,0.046,0.272,-5.337
0.205,0.047,0.273,-5.337
0.187,0.047,0.279,-5.337
0.152,0.052,0.279,-5.337
0.137,0.054,0.281,-5.337
0.079,0.052,0.280,-5.337
0.115,0.050,0.277,-5.337
0.162,0.051,0.277,-5.337
0.231,0.048,0.278,-5.337
0.292,0.044,0.280,-5.337
0.229,0.046,0.278,-5.337
0.146,0.042,0.278,-5.337
0.201,0.042,0.279,-5.337
0.254,0.043,0.280,-5.337
0.208,0.044,0.280,-5.337
0.203,0.044,0.279,-5.337
0.143,0.046,0.278,-5.337
0.122,0.044,0.276,-5.337
0.135,0.047,0.271,-5.337
0.116,0.048,0.271,-5.337
0.180,0.047,0.273,-5.337
0.169,0.046,0.276,-5.337
0.136,0.045,0.272,-5.337
0.182,0.043,0.272,-5.337
0.225,0.044,0.276,-5.337
0.170,0.048,0.278,-5.337
0.120,0.047,0.276,-5.337
0.201,0.045,0.277,-5.337
0.216,0.043,0.283,-5.337
0.155,0.045,0.284,-5.337
0.191,0.042,0.279,-5.337
0.190,0.042,0.276,-5.337
0.165,0.046,0.277,-5.337
0.155,0.044,0.275,-5.337
0.187,0.042,0.273,-5.337
0.201,0.045,0.274,-5.337
0.163,0.047,0.271,-5.337
0.170,0.045,0.272,-5.337
0.189,0.041,0.275,-5.337
0.233,0.039,0.273,-5.337
0.222,0.040,0.272,-5.337
0.198,0.040,0.273,-5.337
0.227,0.039,0.277,-5.337
0.291,0.039,0.278,-5.337
0.292,0.041,0.277,-5.337
0.273,0.042,0.278,-5.337
0.173,0.045,0.279,-5.337
0.113,0.043,0.278,-5.337
0.194,0.038,0.280,-5.337
0.275,0.039,0.279,-5.337
0.218,0.039,0.276,-5.337
0.166,0.040,0.277,-5.337
0.100,0.041,0.277,-5.337
0.095,0.043,0.277,-5.337
0.114,0.041,0.274,-5.337
0.157,0.038,0.272,-5.337
0.140,0.039,0.273,-5.337
0.149,0.039,0.276,-5.337
0.164,0.043,0.277,-5.337
0.079,0.043,0.279,-5.337
0.084,0.043,0.276,-5.337
0.134,0.042,0.273,-5.337
0.128,0.042,0.271,-5.337
0.144,0.044,0.276,-5.337
0.204,0.042,0.278,-5.337
0.216,0.046,0.281,-5.337
0.220,0.043,0.278,-5.337
0.224,0.047,0.279,-5.337
0.159,0.048,0.279,-5.337
0.184,0.045,0.280,-5.337
0.277,0.043,0.276,-5.337
0.243,0.047,0.273,-5.337
0.153,0.048,0.274,-5.337
0.189,0.047,0.279,-5.337
0.242,0.047,0.277,-5.337
0.173,0.050,0.277,-5.337
0.139,0.051,0.279,-5.337
0.156,0.051,0.278,-5.337
0.234,0.047,0.274,-5.337
0.256,0.046,0.273,-5.337
0.200,0.044,0.274,-5.337
0.204,0.043,0.276,-5.337
0.239,0.042,0.278,-5.337
0.227,0.041,0.274,-5.337
0.238,0.042,0.272,-5.337
0.166,0.047,0.272,-5.337
0.135,0.048,0.274,-5.337
0.139,0.046,0.275,-5.337
0.119,0.046,0.278,-5.337
0.114,0.045,0.277,-5.337
0.119,0.047,0.276,-5.337
0.150,0.046,0.275,-5.337
0.162,0.047,0.277,-5.337
0.162,0.046,0.276,-5.337
0.133,0.050,0.278,-5.337
0.165,0.047,0.277,-5.337
0.225,0.045,0.276,-5.337
0.236,0.042,0.274,-5.337
0.262,0.045,0.275,-5.337
0.248,0.044,0.276,-5.337
0.218,0.043,0.281,-5.337
0.136,0.047,0.281,-5.337
0.089,0.048,0.280,-5.337
0.102,0.045,0.279,-5.337
0.110,0.046,0.276,-5.337
0.166,0.045,0.277,-5.337
0.251,0.043,0.277,-5.337
0.283,0.046,0.278,-5.337
0.208,0.048,0.279,-5.337
0.207,0.049,0.278,-5.337
0.202,0.047,0.276,-5.337
0.169,0.047,0.276,-5.337
0.177,0.046,0.277,-5.337
0.110,0.046,0.277,-5.337
0.106,0.043,0.279,-5.337
0.176,0.043,0.280,-5.337
0.181,0.044,0.280,-5.337
0.130,0.043,0.277,-5.337
0.117,0.038,0.275,-5.337
0.184,0.036,0.279,-5.337
0.230,0.040,0.281,-5.337
0.197,0.045,0.277,-5.337
0.133,0.045,0.276,-5.337
0.138,0.044,0.275,-5.337
0.153,0.044,0.267,-5.337
0.099,0.049,0.267,-5.337
0.137,0.046,0.273,-5.337
0.207,0.042,0.276,-5.337
0.211,0.041,0.277,-5.337
0.175,0.044,0.277,-5.337
0.102,0.045,0.278,-5.337
0.160,0.041,0.278,-5.337
0.255,0.040,0.278,-5.337
0.242,0.044,0.277,-5.337
0.170,0.044,0.276,-5.337
0.147,0.044,0.276,-5.337
0.106,0.047,0.276,-5.337
0.154,0.045,0.274,-5.337
0.179,0.040,0.274,-5.337
0.182,0.037,0.276,-5.337
0.160,0.039,0.278,-5.337
0.159,0.043,0.277,-5.337
0.165,0.043,0.275,-5.337
0.117,0.042,0.276,-5.337
0.083,0.042,0.278,-5.337
0.111,0.043,0.277,-5.337
0.110,0.044,0.276,-5.337
0.133,0.041,0.279,-5.337
0.193,0.037,0.280,-5.337
0.207,0.042,0.279,-5.337
0.113,0.046,0.270,-5.337
0.053,0.044,0.268,-5.337
0.140,0.044,0.268,-5.337
0.196,0.043,0.275,-5.337
0.160,0.039,0.279,-5.337
0.124,0.039,0.282,-5.337
0.120,0.039,0.278,-5.337
0.102,0.041,0.273,-5.337
0.143,0.041,0.270,-5.337
0.184,0.042,0.275,-5.337
0.208,0.043,0.279,-5.337
0.210,0.043,0.280,-5.337
0.192,0.044,0.278,-5.337
0.224,0.044,0.276,-5.337
0.203,0.045,0.271,-5.337
0.219,0.045,0.270,-5.337
0.217,0.044,0.270,-5.337
0.195,0.043,0.274,-5.337
0.202,0.045,0.277,-5.337
0.175,0.044,0.275,-5.337
0.129,0.047,0.275,-5.337
0.207,0.045,0.278,-5.337
0.224,0.044,0.280,-5.337
0.278,0.044,0.277,-5.337
0.262,0.047,0.279,-5.337
0.188,0.050,0.282,-5.337
0.111,0.055,0.281,-5.337
0.147,0.053,0.274,-5.337
0.208,0.048,0.275,-5.337
0.218,0.049,0.277,-5.337
0.210,0.052,0.277,-5.337
0.180,0.051,0.277,-5.337
0.119,0.050,0.280,-5.337
0.146,0.047,0.277,-5.337
0.225,0.044,0.273,-5.337
0.163,0.047,0.274,-5.337
0.052,0.053,0.276,-5.337
0.088,0.053,0.279,-5.337
0.149,0.051,0.279,-5.337
0.177,0.048,0.280,-5.337
0.192,0.051,0.280,-5.337
0.083,0.054,0.279,-5.337
0.046,0.050,0.276,-5.337
0.179,0.046,0.279,-5.337
0.192,0.048,0.277,-5.337
0.117,0.051,0.279,-5.337
0.149,0.050,0.278,-5.337
0.227,0.048,0.276,-5.337
0.201,0.052,0.276,-5.337
0.188,0.050,0.279,-5.337
0.206,0.050,0.279,-5.337
0.253,0.051,0.279,-5.337
0.268,0.048,0.280,-5.337
0.229,0.052,0.278,-5.337
0.238,0.053,0.278,-5.337
0.265,0.052,0.280,-5.337
0.248,0.052,0.280,-5.337
0.240,0.049,0.278,-5.337
0.225,0.052,0.275,-5.337
0.241,0.051,0.273,-5.337
0.244,0.052,0.276,-5.337
0.197,0.053,0.279,-5.337
0.181,0.055,0.281,-5.337
0.173,0.056,0.279,-5.337
0.153,0.058,0.279,-5.337
0.193,0.056,0.280,-5.337
0.204,0.058,0.280,-5.337
0.238,0.056,0.280,-5.337
0.268,0.054,0.280,-5.337
0.339,0.053,0.281,-5.337
0.341,0.054,0.277,-5.337
0.270,0.053,0.274,-5.337
0.188,0.052,0.277,-5.337
0.218,0.049,0.281,-5.337
0.304,0.051,0.282,-5.337
0.229,0.054,0.282,-5.337
0.150,0.057,0.284,-5.337
0.201,0.054,0.284,-5.337
0.198,0.054,0.281,-5.337
0.166,0.056,0.277,-5.337
0.176,0.057,0.276,-5.337
0.201,0.055,0.279,-5.337
0.190,0.054,0.279,-5.337
0.178,0.054,0.281,-5.337
0.166,0.056,0.280,-5.337
0.195,0.059,0.278,-5.337
0.247,0.059,0.276,-5.337
0.233,0.059,0.276,-5.337
0.189,0.057,0.277,-5.337
0.174,0.059,0.280,-5.337
0.133,0.059,0.280,-5.337
0.110,0.056,0.281,-5.337
0.124,0.055,0.278,-5.337
0.179,0.058,0.278,-5.337
0.202,0.059,0.281,-5.337
0.227,0.057,0.284,-5.337
0.188,0.059,0.285,-5.337
0.153,0.061,0.282,-5.337
0.193,0.060,0.275,-5.337
0.240,0.056,0.269,-5.337
0.173,0.056,0.269,-5.337
0.196,0.057,0.272,-5.337
0.272,0.058,0.277,-5.337
0.267,0.063,0.277,-5.337
0.244,0.065,0.277,-5.337
0.225,0.061,0.275,-5.337
0.273,0.059,0.274,-5.337
0.255,0.060,0.274,-5.337
0.219,0.061,0.277,-5.337
0.248,0.059,0.278,-5.337
0.226,0.059,0.278,-5.337
0.218,0.061,0.276,-5.337
0.250,0.062,0.277,-5.337
0.298,0.063,0.279,-5.337
0.232,0.065,0.279,-5.337
0.173,0.063,0.277,-5.337
0.258,0.059,0.275,-5.337
0.279,0.058,0.275,-5.337
0.308,0.059,0.276,-5.337
0.338,0.058,0.278,-5.337
0.272,0.058,0.280,-5.337
0.174,0.059,0.279,-5.337
0.182,0.064,0.278,-5.337
0.245,0.065,0.278,-5.337
0.276,0.061,0.277,-5.337
0.197,0.058,0.274,-5.337
0.190,0.059,0.272,-5.337
0.256,0.057,0.274,-5.337
0.322,0.058,0.276,-5.337
0.228,0.061,0.281,-5.337
0.189,0.064,0.281,-5.337
0.164,0.065,0.282,-5.337
0.164,0.064,0.279,-5.337
0.139,0.065,0.276,-5.337
0.178,0.063,0.270,-5.337
0.181,0.063,0.269,-5.337
0.180,0.060,0.274,-5.337
0.217,0.059,0.278,-5.337
0.246,0.062,0.278,-5.337
0.186,0.066,0.277,-5.337
0.143,0.065,0.277,-5.337
0.175,0.065,0.278,-5.337
0.287,0.062,0.278,-5.337
0.328,0.062,0.279,-5.337
0.325,0.062,0.275,-5.337
0.249,0.066,0.274,-5.337
0.177,0.064,0.278,-5.337
0.212,0.063,0.277,-5.337
0.250,0.065,0.275,-5.337
0.206,0.069,0.275,-5.337
0.228,0.066,0.277,-5.337
0.246,0.061,0.277,-5.337
0.224,0.059,0.277,-5.337
0.272,0.058,0.277,-5.337
0.275,0.061,0.281,-5.337
0.219,0.065,0.279,-5.337
0.166,0.068,0.278,-5.337
0.208,0.064,0.275,-5.337
0.239,0.065,0.270,-5.337
0.187,0.065,0.270,-5.337
0.122,0.066,0.276,-5.337
0.152,0.065,0.280,-5.337
0.178,0.061,0.281,-5.337
0.236,0.063,0.277,-5.337
0.245,0.066,0.275,-5.337
0.171,0.067,0.276,-5.337
0.119,0.069,0.280,-5.337
0.128,0.066,0.282,-5.337
0.197,0.067,0.281,-5.337
0.237,0.067,0.279,-5.337
0.198,0.067,0.277,-5.337
0.140,0.068,0.277,-5.337
0.143,0.065,0.275,-5.337
0.302,0.063,0.275,-5.337
0.322,0.065,0.276,-5.337
0.273,0.066,0.277,-5.337
0.308,0.066,0.274,-5.337
0.359,0.062,0.271,-5.337
0.313,0.064,0.272,-5.337
0.261,0.069,0.276,-5.337
0.288,0.068,0.276,-5.337
0.284,0.071,0.277,-5.337
0.253,0.069,0.277,-5.337
0.299,0.065,0.277,-5.337
0.289,0.065,0.279,-5.337
0.284,0.066,0.277,-5.337
0.251,0.069,0.273,-5.337
0.249,0.067,0.271,-5.337
0.224,0.067,0.275,-5.337
0.189,0.065,0.278,-5.337
0.170,0.066,0.275,-5.337
0.244,0.068,0.274,-5.337
0.204,0.074,0.280,-5.337
0.123,0.072,0.285,-5.337
0.125,0.072,0.285,-5.337
0.127,0.073,0.284,-5.337
0.179,0.071,0.282,-5.337
0.228,0.071,0.278,-5.337
0.239,0.072,0.275,-5.337
0.283,0.067,0.273,-5.337
0.312,0.067,0.277,-5.337
0.305,0.067,0.278,-5.337
0.260,0.071,0.277,-5.337
0.223,0.070,0.277,-5.337
0.288,0.067,0.274,-5.337
0.349,0.066,0.277,-5.337
0.281,0.068,0.281,-5.337
0.307,0.064,0.282,-5.337
0.308,0.063,0.283,-5.337
0.260,0.066,0.277,-5.337
0.216,0.066,0.269,-5.337
0.242,0.067,0.270,-5.337
0.233,0.066,0.276,-5.337
0.217,0.061,0.284,-5.337
0.194,0.061,0.283,-5.337
0.236,0.061,0.282,-5.337
0.239,0.061,0.277,-5.337
0.225,0.059,0.276,-5.337
0.242,0.060,0.278,-5.337
0.253,0.059,0.279,-5.337
0.269,0.055,0.274,-5.337
0.243,0.060,0.272,-5.337
0.190,0.063,0.274,-5.337
0.195,0.063,0.275,-5.337
0.213,0.062,0.273,-5.337
0.258,0.060,0.273,-5.337
0.299,0.061,0.279,-5.337
0.266,0.061,0.283,-5.337
0.232,0.064,0.281,-5.337
0.213,0.064,0.276,-5.337
0.259,0.061,0.274,-5.337
0.282,0.060,0.275,-5.337
0.310,0.056,0.279,-5.337
0.289,0.057,0.282,-5.337
0.229,0.059,0.283,-5.337
0.263,0.057,0.282,-5.337
0.344,0.058,0.281,-5.337
0.266,0.060,0.276,-5.337
0.163,0.063,0.274,-5.337
0.212,0.061,0.275,-5.337
0.368,0.058,0.277,-5.337
0.342,0.055,0.277,-5.337
0.258,0.060,0.280,-5.337
0.268,0.059,0.278,-5.337
0.327,0.058,0.276,-5.337
0.313,0.061,0.276,-5.337
0.269,0.064,0.279,-5.337
0.304,0.064,0.280,-5.337
0.324,0.061,0.281,-5.337
0.302,0.064,0.278,-5.337
0.262,0.062,0.276,-5.337
0.191,0.063,0.275,-5.337
0.102,0.064,0.272,-5.337
0.157,0.059,0.274,-5.337
0.284,0.054,0.277,-5.337
0.330,0.054,0.278,-5.337
0.231,0.057,0.277,-5.337
0.162,0.058,0.280,-5.337
0.191,0.056,0.279,-5.337
0.226,0.059,0.277,-5.337
0.145,0.060,0.275,-5.337
0.051,0.057,0.277,-5.337
0.135,0.054,0.280,-5.337
0.221,0.054,0.280,-5.337
0.200,0.056,0.280,-5.337
0.174,0.057,0.279,-5.337
0.184,0.054,0.276,-5.337
0.202,0.053,0.276,-5.337
0.217,0.055,0.278,-5.337
0.259,0.054,0.275,-5.337
0.276,0.054,0.273,-5.337
0.268,0.051,0.274,-5.337
0.327,0.048,0.278,-5.337
0.307,0.052,0.279,-5.337
0.216,0.059,0.279,-5.337
0.194,0.057,0.276,-5.337
0.228,0.056,0.278,-5.337
0.244,0.053,0.279,-5.337
0.277,0.052,0.281,-5.337
0.261,0.052,0.279,-5.337
0.281,0.053,0.276,-5.337
0.253,0.052,0.275,-5.337
0.141,0.053,0.277,-5.337
0.138,0.049,0.278,-5.337
0.247,0.047,0.281,-5.337
0.229,0.047,0.278,-5.337
0.231,0.048,0.273,-5.337
0.261,0.049,0.271,-5.337
0.253,0.049,0.276,-5.337
0.237,0.046,0.280,-5.337
0.214,0.049,0.278,-5.337
0.189,0.047,0.273,-5.337
0.151,0.053,0.270,-5.337
0.131,0.054,0.273,-5.337
0.175,0.050,0.279,-5.337
0.230,0.049,0.281,-5.337
0.253,0.047,0.280,-5.337
0.266,0.049,0.278,-5.337
0.242,0.053,0.276,-5.337
0.173,0.051,0.278,-5.337
0.137,0.050,0.277,-5.337
0.167,0.050,0.277,-5.337
0.197,0.050,0.278,-5.337
0.166,0.050,0.281,-5.337
0.237,0.045,0.280,-5.337
0.232,0.047,0.279,-5.337
0.231,0.048,0.276,-5.337
0.245,0.044,0.278,-5.337
0.244,0.043,0.280,-5.337
0.202,0.045,0.278,-5.337
0.136,0.041,0.275,-5.337
0.168,0.043,0.274,-5.337
0.257,0.043,0.276,-5.337
0.270,0.045,0.278,-5.337
0.210,0.044,0.280,-5.337
0.161,0.045,0.281,-5.337
0.196,0.042,0.281,-5.337
0.294,0.044,0.278,-5.337
0.274,0.048,0.277,-5.337
0.237,0.049,0.277,-5.337
0.183,0.047,0.275,-5.337
0.216,0.045,0.273,-5.337
0.256,0.042,0.277,-5.337
0.169,0.044,0.280,-5.337
0.121,0.044,0.282,-5.337
0.168,0.042,0.284,-5.337
0.220,0.042,0.284,-5.337
0.205,0.042,0.279,-5.337
0.170,0.043,0.280,-5.337
0.156,0.040,0.280,-5.337
0.109,0.042,0.280,-5.337
0.124,0.040,0.280,-5.337
0.178,0.040,0.280,-5.337
0.216,0.039,0.280,-5.337
0.240,0.043,0.280,-5.337
0.175,0.046,0.279,-5.337
0.224,0.044,0.281,-5.337
0.265,0.041,0.281,-5.337
0.277,0.047,0.281,-5.337
0.187,0.051,0.281,-5.337
0.125,0.047,0.280,-5.337
0.166,0.045,0.280,-5.337
0.181,0.044,0.279,-5.337
0.240,0.047,0.278,-5.337
0.232,0.048,0.281,-5.337
0.240,0.046,0.282,-5.337
0.219,0.046,0.281,-5.337
0.157,0.047,0.280,-5.337
0.110,0.048,0.279,-5.337
0.108,0.049,0.282,-5.337
0.088,0.044,0.282,-5.337
0.092,0.043,0.282,-5.337
0.101,0.043,0.280,-5.337
0.165,0.041,0.278,-5.337
0.189,0.042,0.276,-5.337
0.195,0.041,0.275,-5.337
0.210,0.042,0.275,-5.337
0.242,0.043,0.276,-5.337
0.188,0.042,0.276,-5.337
0.130,0.041,0.277,-5.337
0.131,0.041,0.280,-5.337
0.180,0.042,0.279,-5.337
0.221,0.042,0.279,-5.337
0.183,0.044,0.279,-5.337
0.188,0.042,0.280,-5.337
0.191,0.042,0.278,-5.337
0.230,0.040,0.284,-5.337
0.233,0.042,0.286,-5.337
0.165,0.041,0.283,-5.337
0.164,0.041,0.277,-5.337
0.195,0.042,0.277,-5.337
0.181,0.043,0.278,-5.337
0.152,0.045,0.277,-5.337
0.148,0.045,0.277,-5.337
0.196,0.048,0.276,-5.337
0.239,0.044,0.275,-5.337
0.204,0.043,0.273,-5.337
0.160,0.045,0.274,-5.337
0.171,0.044,0.279,-5.337
0.222,0.045,0.282,-5.337
0.215,0.044,0.284,-5.337
0.206,0.044,0.280,-5.337
0.143,0.049,0.278,-5.337
0.060,0.053,0.274,-5.337
0.148,0.047,0.271,-5.337
0.197,0.045,0.276,-5.337
0.203,0.042,0.280,-5.337
0.146,0.043,0.280,-5.337
0.065,0.042,0.277,-5.337
0.096,0.040,0.275,-5.337
0.160,0.040,0.275,-5.337
0.142,0.044,0.279,-5.337
0.129,0.042,0.278,-5.337
0.156,0.043,0.277,-5.337
0.154,0.044,0.275,-5.337
0.152,0.045,0.275,-5.337
0.178,0.045,0.276,-5.337
0.234,0.042,0.278,-5.337
0.304,0.038,0.277,-5.337
0.269,0.036,0.279,-5.337
0.215,0.039,0.276,-5.337
0.135,0.039,0.275,-5.337
0.078,0.040,0.275,-5.337
0.104,0.039,0.274,-5.337
0.170,0.040,0.276,-5.337
0.176,0.040,0.274,-5.337
0.165,0.036,0.274,-5.337
0.237,0.038,0.276,-5.337
0.255,0.041,0.280,-5.337
0.220,0.042,0.280,-5.337
0.217,0.040,0.280,-5.337
0.251,0.039,0.275,-5.337
0.233,0.041,0.274,-5.337
0.216,0.041,0.274,-5.337
0.229,0.041,0.273,-5.337
0.257,0.042,0.276,-5.337
0.177,0.047,0.281,-5.337
0.080,0.045,0.281,-5.337
0.060,0.045,0.279,-5.337
0.124,0.045,0.280,-5.337
0.164,0.045,0.279,-5.337
0.194,0.043,0.274,-5.337
0.252,0.039,0.274,-5.337
0.206,0.039,0.278,-5.337
0.148,0.042,0.279,-5.337
0.168,0.039,0.276,-5.337
0.214,0.037,0.273,-5.337
0.212,0.039,0.272,-5.337
0.162,0.044,0.272,-5.337
0.091,0.043,0.277,-5.337
0.093,0.042,0.278,-5.337
0.133,0.044,0.278,-5.337
0.145,0.045,0.276,-5.337
0.090,0.046,0.274,-5.337
0.118,0.044,0.272,-5.337
0.113,0.046,0.274,-5.337
0.135,0.038,0.277,-5.337
0.165,0.037,0.277,-5.337
0.173,0.037,0.278,-5.337
0.197,0.036,0.279,-5.337
0.241,0.036,0.276,-5.337
0.151,0.041,0.277,-5.337
0.138,0.039,0.278,-5.337
0.160,0.040,0.276,-5.337
0.131,0.039,0.275,-5.337
0.177,0.035,0.275,-5.337
0.243,0.034,0.276,-5.337
0.205,0.037,0.271,-5.337
0.123,0.040,0.273,-5.337
0.144,0.036,0.275,-5.337
0.174,0.037,0.279,-5.337
0.175,0.038,0.279,-5.337
0.215,0.036,0.278,-5.337
0.252,0.037,0.277,-5.337
0.148,0.039,0.278,-5.337
0.079,0.040,0.276,-5.337
0.128,0.039,0.273,-5.337
0.108,0.039,0.273,-5.337
0.111,0.039,0.275,-5.337
0.146,0.038,0.280,-5.337
0.136,0.038,0.280,-5.337
0.159,0.035,0.277,-5.337
0.125,0.038,0.274,-5.337
0.047,0.039,0.279,-5.337
0.079,0.039,0.284,-5.337
0.135,0.041,0.283,-5.337
0.115,0.042,0.276,-5.337
0.097,0.037,0.273,-5.337
0.171,0.038,0.274,-5.337
0.209,0.037,0.274,-5.337
0.192,0.039,0.271,-5.337
0.141,0.041,0.269,-5.337
0.148,0.038,0.270,-5.337
0.163,0.037,0.275,-5.337
0.153,0.037,0.278,-5.337
0.200,0.036,0.277,-5.337
0.191,0.034,0.277,-5.337
0.137,0.033,0.279,-5.337
0.160,0.035,0.276,-5.337
0.201,0.034,0.274,-5.337
0.244,0.029,0.277,-5.337
0.215,0.032,0.280,-5.337
0.151,0.033,0.276,-5.337
0.165,0.030,0.274,-5.337
0.220,0.029,0.273,-5.337
0.224,0.030,0.272,-5.337
0.217,0.033,0.274,-5.337
0.179,0.037,0.278,-5.337
0.142,0.038,0.280,-5.337
0.127,0.036,0.280,-5.337
0.167,0.033,0.277,-5.337
0.202,0.034,0.276,-5.337
0.193,0.037,0.276,-5.337
0.130,0.037,0.273,-5.337
0.129,0.034,0.277,-5.337
0.139,0.035,0.280,-5.337
0.153,0.033,0.279,-5.337
0.218,0.035,0.277,-5.337
0.159,0.037,0.280,-5.337
0.130,0.034,0.281,-5.337
0.144,0.032,0.280,-5.337
0.153,0.031,0.274,-5.337
0.185,0.034,0.271,-5.337
0.184,0.032,0.271,-5.337
0.219,0.032,0.274,-5.337
0.218,0.033,0.273,-5.337
0.200,0.036,0.275,-5.337
0.220,0.034,0.277,-5.337
0.205,0.037,0.279,-5.337
0.205,0.037,0.280,-5.337
0.168,0.041,0.278,-5.337
0.084,0.044,0.274,-5.337
0.111,0.044,0.273,-5.337
0.171,0.040,0.274,-5.337
0.184,0.039,0.274,-5.337
0.117,0.040,0.276,-5.337
0.108,0.042,0.279,-5.337
0.190,0.039,0.279,-5.337
0.227,0.039,0.276,-5.337
0.173,0.041,0.279,-5.337
0.093,0.041,0.279,-5.337
0.083,0.039,0.277,-5.337
0.144,0.036,0.272,-5.337
0.250,0.034,0.274,-5.337
0.254,0.036,0.276,-5.337
0.200,0.041,0.277,-5.337
0.101,0.042,0.280,-5.337
0.118,0.045,0.279,-5.337
0.197,0.042,0.274,-5.337
0.255,0.041,0.274,-5.337
0.221,0.044,0.276,-5.337
0.157,0.043,0.274,-5.337
0.127,0.044,0.269,-5.337
0.110,0.043,0.269,-5.337
0.142,0.042,0.274,-5.337
0.129,0.040,0.275,-5.337
0.144,0.037,0.276,-5.337
0.173,0.037,0.279,-5.337
0.162,0.039,0.286,-5.337
0.112,0.036,0.282,-5.337
0.119,0.038,0.281,-5.337
0.111,0.044,0.281,-5.337
0.081,0.048,0.272,-5.337
0.101,0.051,0.265,-5.337
0.116,0.053,0.267,-5.337
0.142,0.046,0.270,-5.337
0.161,0.046,0.274,-5.337
0.152,0.050,0.275,-5.337
0.140,0.051,0.278,-5.337
0.176,0.052,0.280,-5.337
0.169,0.055,0.281,-5.337
0.160,0.052,0.280,-5.337
0.177,0.050,0.276,-5.337
0.188,0.048,0.272,-5.337
0.175,0.046,0.273,-5.337
0.211,0.043,0.276,-5.337
0.214,0.044,0.275,-5.337
0.219,0.045,0.274,-5.337
0.236,0.046,0.277,-5.337
0.234,0.044,0.280,-5.337
0.235,0.042,0.281,-5.337
0.246,0.043,0.280,-5.337
0.260,0.044,0.277,-5.337
0.234,0.046,0.276,-5.337
0.233,0.045,0.274,-5.337
0.215,0.046,0.273,-5.337
0.147,0.050,0.270,-5.337
0.144,0.050,0.273,-5.337
0.171,0.049,0.278,-5.337
0.171,0.051,0.279,-5.337
0.164,0.048,0.276,-5.337
0.123,0.049,0.277,-5.337
0.128,0.050,0.277,-5.337
0.161,0.052,0.275,-5.337
0.138,0.049,0.277,-5.337
0.135,0.051,0.281,-5.337
0.114,0.054,0.284,-5.337
0.157,0.057,0.284,-5.337
0.237,0.055,0.280,-5.337
0.240,0.057,0.273,-5.337
0.193,0.057,0.271,-5.337
0.158,0.056,0.270,-5.337
0.166,0.055,0.270,-5.337
0.190,0.054,0.274,-5.337
0.207,0.057,0.277,-5.337
0.248,0.053,0.274,-5.337
0.252,0.053,0.274,-5.337
0.188,0.051,0.276,-5.337
0.265,0.048,0.279,-5.337
0.298,0.050,0.281,-5.337
0.273,0.050,0.280,-5.337
0.259,0.047,0.279,-5.337
0.222,0.049,0.279,-5.337
0.214,0.050,0.279,-5.337
0.246,0.050,0.276,-5.337
0.225,0.055,0.274,-5.337
0.191,0.056,0.274,-5.337
0.129,0.053,0.279,-5.337
0.114,0.056,0.283,-5.337
0.177,0.060,0.282,-5.337
0.249,0.059,0.275,-5.337
0.269,0.057,0.275,-5.337
0.238,0.056,0.280,-5.337
0.202,0.055,0.282,-5.337
0.210,0.054,0.279,-5.337
0.232,0.054,0.277,-5.337
0.252,0.054,0.274,-5.337
0.202,0.058,0.275,-5.337
0.177,0.059,0.275,-5.337
0.232,0.055,0.278,-5.337
0.305,0.051,0.280,-5.337
0.233,0.055,0.283,-5.337
0.200,0.053,0.284,-5.337
0.225,0.058,0.284,-5.337
0.200,0.060,0.279,-5.337
0.188,0.058,0.274,-5.337
0.233,0.056,0.277,-5.337
0.217,0.056,0.280,-5.337
0.216,0.056,0.279,-5.337
0.210,0.056,0.276,-5.337
0.227,0.057,0.277,-5.337
0.271,0.056,0.280,-5.337
0.319,0.055,0.278,-5.337
0.300,0.055,0.275,-5.337
0.305,0.054,0.277,-5.337
0.231,0.060,0.280,-5.337
0.137,0.063,0.280,-5.337
0.189,0.060,0.274,-5.337
0.278,0.058,0.272,-5.337
0.295,0.055,0.273,-5.337
0.199,0.059,0.277,-5.337
0.142,0.059,0.278,-5.337
0.148,0.062,0.278,-5.337
0.217,0.059,0.281,-5.337
0.269,0.060,0.285,-5.337
0.239,0.061,0.283,-5.337
0.141,0.065,0.276,-5.337
0.132,0.063,0.271,-5.337
0.140,0.063,0.270,-5.337
0.176,0.062,0.275,-5.337
0.203,0.061,0.276,-5.337
0.227,0.062,0.276,-5.337
0.261,0.061,0.275,-5.337
0.226,0.062,0.274,-5.337
0.228,0.062,0.273,-5.337
0.304,0.061,0.275,-5.337
0.283,0.059,0.278,-5.337
0.264,0.054,0.280,-5.337
0.242,0.057,0.279,-5.337
0.249,0.058,0.278,-5.337
0.262,0.059,0.275,-5.337
0.261,0.060,0.271,-5.337
0.206,0.058,0.269,-5.337
0.252,0.055,0.269,-5.337
0.281,0.051,0.274,-5.337
0.246,0.057,0.278,-5.337
0.246,0.056,0.282,-5.337
0.229,0.055,0.282,-5.337
0.149,0.054,0.281,-5.337
0.168,0.054,0.281,-5.337
0.221,0.054,0.276,-5.337
0.203,0.055,0.275,-5.337
0.137,0.058,0.276,-5.337
0.162,0.057,0.276,-5.337
0.291,0.058,0.277,-5.337
0.349,0.060,0.276,-5.337
0.307,0.058,0.276,-5.337
0.245,0.052,0.275,-5.337
0.270,0.053,0.275,-5.337
0.247,0.056,0.274,-5.337
0.186,0.057,0.273,-5.337
0.194,0.054,0.276,-5.337
0.173,0.058,0.279,-5.337
0.182,0.059,0.278,-5.337
0.205,0.059,0.275,-5.337
0.163,0.059,0.275,-5.337
0.133,0.061,0.275,-5.337
0.167,0.061,0.275,-5.337
0.264,0.055,0.278,-5.337
0.330,0.054,0.278,-5.337
0.256,0.056,0.274,-5.337
0.221,0.056,0.272,-5.337
0.218,0.057,0.272,-5.337
0.269,0.055,0.277,-5.337
0.250,0.056,0.282,-5.337
0.208,0.057,0.283,-5.337
0.211,0.056,0.277,-5.337
0.226,0.060,0.272,-5.337
0.250,0.062,0.273,-5.337
0.223,0.058,0.275,-5.337
0.268,0.057,0.273,-5.337
0.282,0.061,0.276,-5.337
0.275,0.057,0.276,-5.337
0.317,0.056,0.278,-5.337
0.322,0.059,0.278,-5.337
0.173,0.066,0.277,-5.337
0.091,0.063,0.274,-5.337
0.086,0.062,0.275,-5.337
0.168,0.059,0.278,-5.337
0.247,0.062,0.282,-5.337
0.302,0.064,0.279,-5.337
0.295,0.066,0.275,-5.337
0.256,0.065,0.272,-5.337
0.269,0.064,0.274,-5.337
0.210,0.068,0.275,-5.337
0.220,0.066,0.276,-5.337
0.255,0.060,0.280,-5.337
0.306,0.059,0.277,-5.337
0.287,0.060,0.272,-5.337
0.258,0.063,0.270,-5.337
0.275,0.060,0.272,-5.337
0.334,0.055,0.276,-5.337
0.313,0.057,0.277,-5.337
0.261,0.063,0.276,-5.337
0.208,0.063,0.274,-5.337
0.210,0.058,0.273,-5.337
0.241,0.058,0.276,-5.337
0.195,0.061,0.279,-5.337
0.162,0.062,0.281,-5.337
0.150,0.062,0.277,-5.337
0.230,0.062,0.271,-5.337
0.300,0.064,0.268,-5.337
0.268,0.063,0.269,-5.337
0.171,0.061,0.274,-5.337
0.161,0.063,0.278,-5.337
0.217,0.063,0.279,-5.337
0.250,0.062,0.279,-5.337
0.287,0.059,0.281,-5.337
0.274,0.062,0.281,-5.337
0.192,0.064,0.283,-5.337
0.184,0.062,0.285,-5.337
0.234,0.062,0.281,-5.337
0.220,0.063,0.273,-5.337
0.251,0.062,0.270,-5.337
0.263,0.059,0.267,-5.337
0.251,0.060,0.268,-5.337
0.226,0.055,0.271,-5.337
0.292,0.051,0.271,-5.337
0.276,0.053,0.271,-5.337
0.248,0.055,0.273,-5.337
0.280,0.053,0.276,-5.337
0.271,0.053,0.274,-5.337
0.254,0.053,0.272,-5.337
0.277,0.056,0.277,-5.337
0.306,0.055,0.279,-5.337
0.309,0.055,0.276,-5.337
0.300,0.058,0.275,-5.337
0.270,0.060,0.275,-5.337
0.227,0.058,0.278,-5.337
0.209,0.055,0.277,-5.337
0.188,0.054,0.277,-5.337
0.206,0.058,0.277,-5.337
0.197,0.061,0.275,-5.337
0.201,0.061,0.272,-5.337
0.258,0.055,0.275,-5.337
0.304,0.054,0.279,-5.337
0.257,0.057,0.279,-5.337
0.207,0.056,0.277,-5.337
0.197,0.058,0.279,-5.337
0.205,0.058,0.277,-5.337
0.249,0.058,0.278,-5.337
0.232,0.057,0.279,-5.337
0.180,0.058,0.274,-5.337
0.170,0.055,0.276,-5.337
0.243,0.056,0.280,-5.337
0.251,0.054,0.278,-5.337
0.284,0.052,0.276,-5.337
0.244,0.051,0.273,-5.337
0.268,0.049,0.275,-5.337
0.205,0.054,0.277,-5.337
0.219,0.054,0.279,-5.337
0.358,0.048,0.281,-5.337
0.394,0.046,0.279,-5.337
0.342,0.047,0.277,-5.337
0.238,0.052,0.273,-5.337
0.137,0.054,0.272,-5.337
0.189,0.051,0.271,-5.337
0.264,0.048,0.278,-5.337
0.259,0.049,0.281,-5.337
0.222,0.052,0.277,-5.337
0.183,0.050,0.276,-5.337
0.238,0.049,0.278,-5.337
0.266,0.051,0.279,-5.337
0.217,0.051,0.280,-5.337
0.213,0.047,0.277,-5.337
0.254,0.049,0.272,-5.337
0.221,0.053,0.271,-5.337
0.199,0.051,0.278,-5.337
0.198,0.054,0.280,-5.337
0.215,0.053,0.279,-5.337
0.219,0.052,0.278,-5.337
0.097,0.051,0.275,-5.337
0.166,0.045,0.274,-5.337
0.232,0.046,0.274,-5.337
0.150,0.049,0.277,-5.337
0.118,0.047,0.274,-5.337
0.164,0.047,0.272,-5.337
0.211,0.046,0.269,-5.337
0.189,0.049,0.275,-5.337
0.151,0.047,0.278,-5.337
0.269,0.042,0.275,-5.337
0.289,0.042,0.274,-5.337
0.226,0.045,0.276,-5.337
0.262,0.044,0.277,-5.337
0.284,0.041,0.278,-5.337
0.253,0.043,0.276,-5.337
0.237,0.046,0.274,-5.337
0.221,0.046,0.275,-5.337
0.208,0.045,0.280,-5.337
0.241,0.043,0.281,-5.337
0.283,0.044,0.279,-5.337
0.324,0.042,0.274,-5.337
0.279,0.040,0.274,-5.337
0.273,0.041,0.272,-5.337
0.230,0.046,0.270,-5.337
0.180,0.047,0.272,-5.337
0.196,0.044,0.274,-5.337
0.257,0.042,0.279,-5.337
0.231,0.042,0.282,-5.337
0.156,0.047,0.279,-5.337
0.069,0.050,0.273,-5.337
0.123,0.050,0.275,-5.337
0.215,0.047,0.278,-5.337
0.211,0.046,0.278,-5.337
0.159,0.048,0.278,-5.337
0.191,0.046,0.282,-5.337
0.222,0.042,0.278,-5.337
0.183,0.042,0.273,-5.337
0.157,0.040,0.271,-5.337
0.179,0.038,0.274,-5.337
0.296,0.036,0.276,-5.337
0.347,0.037,0.278,-5.337
0.315,0.039,0.279,-5.337
0.263,0.041,0.278,-5.337
0.149,0.042,0.273,-5.337
0.123,0.038,0.272,-5.337
0.117,0.037,0.274,-5.337
0.163,0.039,0.276,-5.337
0.181,0.040,0.278,-5.337
0.255,0.038,0.281,-5.337
0.339,0.036,0.282,-5.337
0.304,0.039,0.282,-5.337
0.266,0.042,0.284,-5.337
0.283,0.037,0.281,-5.337
0.305,0.037,0.278,-5.337
0.234,0.037,0.276,-5.337
0.170,0.038,0.271,-5.337
0.176,0.034,0.272,-5.337
0.164,0.036,0.276,-5.337
0.114,0.037,0.278,-5.337
0.088,0.038,0.278,-5.337
0.130,0.038,0.280,-5.337
0.200,0.036,0.280,-5.337
0.176,0.035,0.282,-5.337
0.214,0.032,0.280,-5.337
0.233,0.029,0.277,-5.337
0.223,0.030,0.277,-5.337
0.194,0.036,0.279,-5.337
0.188,0.037,0.275,-5.337
0.201,0.036,0.275,-5.337
0.155,0.035,0.276,-5.337
0.155,0.037,0.277,-5.337
0.192,0.037,0.276,-5.337
0.150,0.036,0.278,-5.337
0.131,0.033,0.280,-5.337
0.182,0.033,0.281,-5.337
0.222,0.032,0.282,-5.337
0.271,0.030,0.281,-5.337
0.269,0.028,0.278,-5.337
0.283,0.030,0.279,-5.337
0.237,0.033,0.280,-5.337
0.167,0.034,0.279,-5.337
0.193,0.035,0.275,-5.337
0.243,0.033,0.274,-5.337
0.250,0.035,0.276,-5.337
0.173,0.038,0.280,-5.337
0.122,0.039,0.283,-5.337
0.126,0.035,0.283,-5.337
0.145,0.037,0.281,-5.337
0.159,0.034,0.276,-5.337
0.167,0.032,0.274,-5.337
0.134,0.032,0.278,-5.337
0.156,0.034,0.282,-5.337
0.199,0.034,0.279,-5.337
0.229,0.034,0.276,-5.337
0.182,0.031,0.274,-5.337
0.171,0.032,0.277,-5.337
0.186,0.032,0.280,-5.337
0.203,0.032,0.283,-5.337
0.149,0.035,0.282,-5.337
0.172,0.037,0.280,-5.337
0.166,0.038,0.278,-5.337
0.238,0.033,0.277,-5.337
0.245,0.030,0.278,-5.337
0.184,0.032,0.276,-5.337
0.179,0.035,0.273,-5.337
0.156,0.035,0.275,-5.337
0.136,0.033,0.278,-5.337
0.171,0.031,0.280,-5.337
0.176,0.032,0.282,-5.337
0.108,0.033,0.284,-5.337
0.081,0.032,0.284,-5.337
0.137,0.030,0.279,-5.337
0.183,0.033,0.275,-5.337
0.135,0.034,0.273,-5.337
0.084,0.038,0.277,-5.337
0.135,0.036,0.280,-5.337
0.175,0.032,0.279,-5.337
0.164,0.031,0.277,-5.337
0.205,0.031,0.279,-5.337
0.284,0.031,0.280,-5.337
0.272,0.032,0.278,-5.337
0.238,0.032,0.276,-5.337
0.264,0.033,0.272,-5.337
0.240,0.033,0.269,-5.337
0.199,0.031,0.274,-5.337
0.180,0.033,0.279,-5.337
0.128,0.033,0.279,-5.337
0.130,0.036,0.281,-5.337
0.209,0.034,0.284,-5.337
0.238,0.031,0.280,-5.337
0.245,0.033,0.275,-5.337
0.173,0.038,0.274,-5.337
0.175,0.037,0.275,-5.337
0.180,0.037,0.279,-5.337
0.213,0.035,0.279,-5.337
0.177,0.035,0.278,-5.337
0.119,0.032,0.277,-5.337
0.141,0.033,0.277,-5.337
0.161,0.036,0.275,-5.337
0.168,0.037,0.280,-5.337
0.176,0.034,0.283,-5.337
0.164,0.032,0.286,-5.337
0.222,0.030,0.284,-5.337
0.226,0.035,0.277,-5.337
0.147,0.036,0.273,-5.337
0.146,0.034,0.271,-5.337
0.225,0.033,0.272,-5.337
0.226,0.031,0.273,-5.337
0.143,0.035,0.275,-5.337
0.075,0.036,0.276,-5.337
0.142,0.032,0.274,-5.337
0.181,0.029,0.274,-5.337
0.212,0.026,0.274,-5.337
0.215,0.029,0.273,-5.337
0.271,0.028,0.271,-5.337
0.285,0.026,0.271,-5.337
0.272,0.027,0.274,-5.337
0.217,0.031,0.277,-5.337
0.115,0.035,0.279,-5.337
0.091,0.037,0.281,-5.337
0.123,0.038,0.283,-5.337
0.179,0.035,0.282,-5.337
0.180,0.037,0.279,-5.337
0.118,0.038,0.275,-5.337
0.110,0.037,0.271,-5.337
0.094,0.035,0.273,-5.337
0.141,0.032,0.277,-5.337
0.142,0.036,0.277,-5.337
0.115,0.033,0.278,-5.337
0.192,0.029,0.276,-5.337
0.246,0.028,0.273,-5.337
0.227,0.034,0.270,-5.337
0.199,0.038,0.273,-5.337
0.152,0.039,0.278,-5.337
0.177,0.035,0.279,-5.337
0.181,0.033,0.282,-5.337
0.170,0.033,0.283,-5.337
0.190,0.033,0.281,-5.337
0.161,0.037,0.280,-5.337
0.075,0.037,0.280,-5.337
0.144,0.033,0.276,-5.337
0.234,0.031,0.273,-5.337
0.228,0.033,0.273,-5.337
0.128,0.039,0.275,-5.337
0.072,0.038,0.275,-5.337
0.131,0.037,0.273,-5.337
0.192,0.036,0.275,-5.337
0.137,0.033,0.278,-5.337
0.085,0.030,0.275,-5.337
0.098,0.032,0.277,-5.337
0.155,0.035,0.276,-5.337
0.176,0.035,0.278,-5.337
0.118,0.031,0.281,-5.337
0.139,0.035,0.281,-5.337
0.115,0.036,0.279,-5.337
0.139,0.030,0.273,-5.337
0.189,0.031,0.273,-5.337
0.184,0.034,0.278,-5.337
0.165,0.035,0.280,-5.337
0.177,0.034,0.279,-5.337
0.168,0.033,0.276,-5.337
0.159,0.035,0.272,-5.337
0.159,0.042,0.270,-5.337
0.141,0.041,0.269,-5.337
0.177,0.035,0.273,-5.337
0.256,0.031,0.278,-5.337
0.345,0.029,0.282,-5.337
0.262,0.029,0.278,-5.337
0.152,0.032,0.273,-5.337
0.143,0.036,0.273,-5.337
0.151,0.038,0.274,-5.337
0.234,0.033,0.274,-5.337
0.271,0.035,0.273,-5.337
0.170,0.037,0.274,-5.337
0.100,0.039,0.273,-5.337
0.151,0.037,0.274,-5.337
0.201,0.037,0.276,-5.337
0.189,0.037,0.281,-5.337
0.198,0.033,0.280,-5.337
0.202,0.034,0.279,-5.337
0.167,0.035,0.277,-5.337
0.176,0.040,0.277,-5.337
0.187,0.036,0.277,-5.337
0.221,0.032,0.277,-5.337
0.163,0.037,0.277,-5.337
0.129,0.038,0.277,-5.337
0.224,0.035,0.278,-5.337
0.241,0.035,0.280,-5.337
0.186,0.038,0.279,-5.337
0.178,0.043,0.278,-5.337
0.178,0.042,0.281,-5.337
0.105,0.041,0.279,-5.337
0.066,0.043,0.275,-5.337
0.108,0.043,0.271,-5.337
0.151,0.040,0.271,-5.337
0.176,0.039,0.273,-5.337
0.145,0.038,0.275,-5.337
0.109,0.038,0.276,-5.337
0.109,0.041,0.278,-5.337
0.128,0.039,0.277,-5.337
0.127,0.040,0.276,-5.337
0.181,0.041,0.273,-5.337
0.183,0.040,0.279,-5.337
0.075,0.043,0.282,-5.337
0.090,0.043,0.283,-5.337
0.138,0.042,0.276,-5.337
0.151,0.043,0.271,-5.337
0.186,0.042,0.274,-5.337
0.193,0.044,0.280,-5.337
0.197,0.044,0.278,-5.337
0.145,0.046,0.279,-5.337
0.136,0.046,0.279,-5.337
0.116,0.045,0.276,-5.337
0.138,0.041,0.274,-5.337
0.165,0.040,0.276,-5.337
0.184,0.040,0.276,-5.337
0.137,0.044,0.276,-5.337
0.092,0.048,0.278,-5.337
0.179,0.045,0.280,-5.337
0.247,0.043,0.280,-5.337
0.197,0.045,0.277,-5.337
0.118,0.045,0.273,-5.337
0.204,0.044,0.274,-5.337
0.266,0.044,0.273,-5.337
0.254,0.045,0.272,-5.337
0.264,0.047,0.274,-5.337
0.200,0.049,0.272,-5.337
0.161,0.050,0.277,-5.337
0.203,0.047,0.277,-5.337
0.230,0.042,0.277,-5.337
0.254,0.039,0.280,-5.337
0.250,0.041,0.282,-5.337
0.169,0.046,0.281,-5.337
0.164,0.050,0.279,-5.337
0.219,0.049,0.273,-5.337
0.242,0.048,0.271,-5.337
0.214,0.049,0.274,-5.337
0.306,0.046,0.277,-5.337
0.317,0.046,0.277,-5.337
0.248,0.047,0.279,-5.337
0.207,0.050,0.274,-5.337
0.152,0.052,0.270,-5.337
0.160,0.051,0.274,-5.337
0.193,0.050,0.278,-5.337
0.157,0.049,0.281,-5.337
0.216,0.049,0.281,-5.337
0.212,0.049,0.280,-5.337
0.165,0.054,0.275,-5.337
0.109,0.056,0.274,-5.337
0.064,0.060,0.276,-5.337
0.086,0.056,0.277,-5.337
0.138,0.053,0.280,-5.337
0.157,0.054,0.277,-5.337
0.140,0.055,0.274,-5.337
0.183,0.054,0.274,-5.337
0.225,0.050,0.274,-5.337
0.241,0.052,0.275,-5.337
0.246,0.050,0.277,-5.337
0.277,0.048,0.277,-5.337
0.289,0.047,0.279,-5.337
0.308,0.049,0.280,-5.337
0.280,0.049,0.277,-5.337
0.280,0.047,0.272,-5.337
0.277,0.051,0.274,-5.337
0.245,0.051,0.276,-5.337
0.238,0.053,0.275,-5.337
0.268,0.053,0.276,-5.337
0.266,0.050,0.277,-5.337
0.183,0.051,0.277,-5.337
0.109,0.058,0.278,-5.337
0.133,0.059,0.276,-5.337
0.207,0.058,0.274,-5.337
0.214,0.060,0.274,-5.337
0.129,0.060,0.275,-5.337
0.118,0.057,0.276,-5.337
0.143,0.056,0.279,-5.337
0.125,0.054,0.277,-5.337
0.073,0.056,0.276,-5.337
0.110,0.052,0.275,-5.337
0.187,0.049,0.277,-5.337
0.161,0.051,0.279,-5.337
0.153,0.054,0.283,-5.337
0.189,0.051,0.281,-5.337
0.195,0.052,0.279,-5.337
0.240,0.051,0.280,-5.337
0.239,0.056,0.278,-5.337
0.230,0.054,0.275,-5.337
0.238,0.053,0.275,-5.337
0.231,0.055,0.279,-5.337
0.230,0.056,0.279,-5.337
0.249,0.058,0.279,-5.337
0.202,0.059,0.280,-5.337
0.188,0.062,0.278,-5.337
0.220,0.057,0.274,-5.337
0.258,0.054,0.276,-5.337
0.205,0.055,0.280,-5.337
0.213,0.057,0.282,-5.337
0.214,0.056,0.283,-5.337
0.171,0.058,0.281,-5.337
0.148,0.062,0.277,-5.337
0.176,0.061,0.275,-5.337
0.224,0.061,0.276,-5.337
0.181,0.065,0.275,-5.337
0.179,0.064,0.277,-5.337
0.223,0.065,0.281,-5.337
0.274,0.068,0.285,-5.337
0.275,0.065,0.285,-5.337
0.240,0.060,0.283,-5.337
0.198,0.062,0.276,-5.337
0.166,0.069,0.272,-5.337
0.150,0.069,0.272,-5.337
0.166,0.067,0.277,-5.337
0.205,0.063,0.281,-5.337
0.244,0.061,0.280,-5.337
0.270,0.060,0.276,-5.337
0.267,0.065,0.274,-5.337
0.228,0.067,0.277,-5.337
0.221,0.065,0.282,-5.337
0.274,0.062,0.282,-5.337
0.300,0.062,0.279,-5.337
0.290,0.062,0.276,-5.337
0.275,0.063,0.279,-5.337
0.205,0.063,0.279,-5.337
0.199,0.065,0.279,-5.337
0.205,0.063,0.280,-5.337
0.234,0.064,0.279,-5.337
0.241,0.062,0.278,-5.337
0.246,0.061,0.278,-5.337
0.208,0.061,0.279,-5.337
0.194,0.064,0.276,-5.337
0.251,0.066,0.275,-5.337
0.226,0.066,0.274,-5.337
0.256,0.063,0.277,-5.337
0.272,0.061,0.280,-5.337
0.257,0.063,0.281,-5.337
0.200,0.065,0.278,-5.337
0.200,0.065,0.272,-5.337
0.194,0.065,0.274,-5.337
0.197,0.064,0.279,-5.337
0.238,0.063,0.280,-5.337
0.264,0.065,0.277,-5.337
0.261,0.067,0.277,-5.337
0.209,0.070,0.280,-5.337
0.155,0.070,0.279,-5.337
0.153,0.069,0.280,-5.337
0.200,0.067,0.279,-5.337
0.222,0.067,0.273,-5.337
0.197,0.068,0.275,-5.337
0.153,0.070,0.278,-5.337
0.183,0.064,0.279,-5.337
0.237,0.061,0.279,-5.337
0.275,0.058,0.280,-5.337
0.320,0.058,0.276,-5.337
0.246,0.067,0.277,-5.337
0.230,0.069,0.279,-5.337
0.276,0.066,0.281,-5.337
0.258,0.067,0.281,-5.337
0.229,0.066,0.279,-5.337
0.251,0.068,0.276,-5.337
0.188,0.070,0.276,-5.337
0.217,0.069,0.277,-5.337
0.288,0.067,0.279,-5.337
0.242,0.068,0.280,-5.337
0.226,0.067,0.277,-5.337
0.278,0.064,0.272,-5.337
0.265,0.067,0.274,-5.337
0.250,0.071,0.278,-5.337
0.252,0.071,0.279,-5.337
0.248,0.070,0.277,-5.337
0.224,0.065,0.276,-5.337
0.260,0.063,0.277,-5.337
0.250,0.067,0.275,-5.337
0.227,0.068,0.275,-5.337
0.241,0.068,0.272,-5.337
0.213,0.067,0.270,-5.337
0.190,0.064,0.269,-5.337
0.175,0.063,0.275,-5.337
0.233,0.063,0.279,-5.337
0.271,0.065,0.282,-5.337
0.275,0.065,0.282,-5.337
0.272,0.068,0.282,-5.337
0.231,0.067,0.277,-5.337
0.228,0.066,0.276,-5.337
0.182,0.066,0.278,-5.337
0.190,0.065,0.277,-5.337
0.245,0.062,0.277,-5.337
0.256,0.062,0.279,-5.337
0.244,0.060,0.277,-5.337
0.268,0.061,0.277,-5.337
0.254,0.056,0.278,-5.337
0.251,0.057,0.277,-5.337
0.260,0.061,0.275,-5.337
0.271,0.063,0.275,-5.337
0.226,0.063,0.276,-5.337
0.261,0.061,0.278,-5.337
0.272,0.060,0.280,-5.337
0.289,0.060,0.277,-5.337
0.241,0.062,0.271,-5.337
0.208,0.061,0.269,-5.337
0.264,0.058,0.274,-5.337
0.220,0.064,0.273,-5.337
0.243,0.066,0.273,-5.337
0.245,0.060,0.272,-5.337
0.210,0.059,0.274,-5.337
0.208,0.059,0.278,-5.337
0.247,0.060,0.279,-5.337
0.264,0.060,0.276,-5.337
0.284,0.058,0.275,-5.337
0.294,0.056,0.274,-5.337
0.306,0.055,0.277,-5.337
0.269,0.060,0.278,-5.337
0.224,0.062,0.277,-5.337
0.149,0.061,0.277,-5.337
0.132,0.058,0.277,-5.337
0.252,0.053,0.280,-5.337
0.272,0.056,0.280,-5.337
0.240,0.059,0.280,-5.337
0.214,0.060,0.278,-5.337
0.308,0.059,0.280,-5.337
0.357,0.056,0.274,-5.337
0.243,0.058,0.269,-5.337
0.224,0.057,0.268,-5.337
0.226,0.062,0.271,-5.337
0.196,0.061,0.278,-5.337
0.311,0.059,0.279,-5.337
0.366,0.061,0.275,-5.337
0.325,0.057,0.270,-5.337
0.262,0.056,0.271,-5.337
0.271,0.059,0.278,-5.337
0.287,0.058,0.280,-5.337
0.258,0.060,0.279,-5.337
0.260,0.057,0.280,-5.337
0.252,0.055,0.279,-5.337
0.249,0.056,0.281,-5.337
0.295,0.057,0.280,-5.337
0.329,0.059,0.280,-5.337
0.270,0.060,0.277,-5.337
0.208,0.062,0.280,-5.337
0.213,0.060,0.279,-5.337
0.273,0.057,0.278,-5.337
0.270,0.053,0.275,-5.337
0.213,0.055,0.273,-5.337
0.178,0.057,0.273,-5.337
0.200,0.058,0.274,-5.337
0.201,0.055,0.277,-5.337
0.176,0.056,0.278,-5.337
0.165,0.057,0.275,-5.337
0.185,0.058,0.273,-5.337
0.243,0.052,0.274,-5.337
0.249,0.051,0.278,-5.337
0.154,0.058,0.281,-5.337
0.110,0.060,0.281,-5.337
0.195,0.056,0.281,-5.337
0.233,0.056,0.279,-5.337
0.187,0.059,0.276,-5.337
0.142,0.060,0.274,-5.337
0.193,0.056,0.277,-5.337
0.286,0.054,0.275,-5.337
0.238,0.059,0.276,-5.337
0.157,0.061,0.278,-5.337
0.188,0.060,0.280,-5.337
0.245,0.058,0.276,-5.337
0.225,0.058,0.274,-5.337
0.196,0.056,0.274,-5.337
0.181,0.052,0.275,-5.337
0.182,0.049,0.277,-5.337
0.198,0.050,0.279,-5.337
0.113,0.056,0.278,-5.337
0.115,0.055,0.278,-5.337
0.230,0.049,0.279,-5.337
0.223,0.051,0.277,-5.337
0.136,0.052,0.274,-5.337
0.174,0.052,0.274,-5.337
0.233,0.051,0.278,-5.337
0.191,0.052,0.278,-5.337
0.202,0.050,0.283,-5.337
0.276,0.047,0.279,-5.337
0.332,0.047,0.274,-5.337
0.318,0.046,0.276,-5.337
0.312,0.049,0.277,-5.337
0.276,0.050,0.276,-5.337
0.251,0.048,0.277,-5.337
0.248,0.048,0.274,-5.337
0.239,0.051,0.274,-5.337
0.221,0.054,0.277,-5.337
0.191,0.054,0.279,-5.337
0.151,0.055,0.279,-5.337
0.108,0.054,0.279,-5.337
0.157,0.050,0.279,-5.337
0.157,0.052,0.274,-5.337
0.169,0.050,0.275,-5.337
0.220,0.049,0.276,-5.337
0.269,0.048,0.274,-5.337
0.224,0.048,0.275,-5.337
0.172,0.050,0.277,-5.337
0.174,0.048,0.280,-5.337
0.221,0.048,0.280,-5.337
0.179,0.052,0.278,-5.337
0.043,0.051,0.276,-5.337
0.063,0.046,0.275,-5.337
0.152,0.050,0.277,-5.337
0.174,0.045,0.275,-5.337
0.215,0.039,0.274,-5.337
0.251,0.039,0.273,-5.337
0.270,0.043,0.274,-5.337
0.268,0.043,0.278,-5.337
0.276,0.040,0.284,-5.337
0.245,0.039,0.280,-5.337
0.204,0.044,0.278,-5.337
0.140,0.044,0.275,-5.337
0.172,0.044,0.278,-5.337
0.186,0.043,0.281,-5.337
0.095,0.047,0.281,-5.337
0.079,0.046,0.275,-5.337
0.145,0.048,0.271,-5.337
0.135,0.047,0.270,-5.337
0.115,0.045,0.271,-5.337
0.166,0.044,0.276,-5.337
0.253,0.040,0.280,-5.337
0.228,0.039,0.281,-5.337
0.116,0.043,0.277,-5.337
0.129,0.043,0.275,-5.337
0.186,0.041,0.273,-5.337
0.185,0.037,0.277,-5.337
0.228,0.037,0.279,-5.337
0.277,0.039,0.279,-5.337
0.276,0.040,0.276,-5.337
0.179,0.040,0.278,-5.337
0.113,0.037,0.278,-5.337
0.166,0.040,0.273,-5.337
0.134,0.042,0.267,-5.337
0.108,0.043,0.269,-5.337
0.187,0.041,0.276,-5.337
0.182,0.044,0.286,-5.337
0.173,0.043,0.287,-5.337
0.209,0.041,0.283,-5.337
0.237,0.039,0.281,-5.337
0.169,0.042,0.280,-5.337
0.128,0.042,0.274,-5.337
0.126,0.042,0.270,-5.337
0.131,0.043,0.272,-5.337
0.173,0.040,0.276,-5.337
0.174,0.036,0.279,-5.337
0.152,0.036,0.280,-5.337
0.129,0.038,0.279,-5.337
0.141,0.039,0.277,-5.337
0.205,0.039,0.280,-5.337
0.231,0.037,0.280,-5.337
0.184,0.041,0.281,-5.337
0.173,0.042,0.278,-5.337
0.208,0.042,0.279,-5.337
0.255,0.039,0.279,-5.337
0.257,0.041,0.277,-5.337
0.194,0.036,0.272,-5.337
0.152,0.040,0.271,-5.337
0.172,0.038,0.275,-5.337
0.236,0.035,0.276,-5.337
0.186,0.037,0.274,-5.337
0.153,0.038,0.278,-5.337
0.251,0.037,0.282,-5.337
0.268,0.036,0.281,-5.337
0.226,0.036,0.276,-5.337
0.170,0.038,0.278,-5.337
0.184,0.041,0.282,-5.337
0.131,0.046,0.285,-5.337
0.140,0.045,0.286,-5.337
0.187,0.043,0.284,-5.337
0.178,0.041,0.283,-5.337
0.145,0.041,0.282,-5.337
0.115,0.038,0.281,-5.337
0.122,0.036,0.277,-5.337
0.165,0.038,0.274,-5.337
0.212,0.038,0.272,-5.337
0.219,0.035,0.271,-5.337
0.220,0.032,0.273,-5.337
0.246,0.035,0.276,-5.337
0.186,0.041,0.278,-5.337
0.156,0.039,0.278,-5.337
0.189,0.037,0.275,-5.337
0.191,0.038,0.274,-5.337
0.169,0.042,0.276,-5.337
0.181,0.042,0.279,-5.337
0.204,0.041,0.278,-5.337
0.220,0.039,0.278,-5.337
0.161,0.041,0.284,-5.337
0.134,0.045,0.285,-5.337
0.176,0.042,0.281,-5.337
0.194,0.040,0.278,-5.337
0.185,0.041,0.280,-5.337
0.179,0.042,0.278,-5.337
0.250,0.042,0.278,-5.337
0.233,0.042,0.275,-5.337
0.148,0.046,0.276,-5.337
0.131,0.043,0.280,-5.337
0.213,0.039,0.286,-5.337
0.253,0.040,0.286,-5.337
0.174,0.044,0.283,-5.337
0.139,0.045,0.279,-5.337
0.207,0.043,0.276,-5.337
0.225,0.042,0.272,-5.337
0.189,0.041,0.275,-5.337
0.172,0.044,0.276,-5.337
0.116,0.045,0.276,-5.337
0.113,0.040,0.277,-5.337
0.180,0.036,0.280,-5.337
0.239,0.033,0.279,-5.337
0.256,0.037,0.276,-5.337
0.216,0.038,0.278,-5.337
0.194,0.037,0.278,-5.337
0.176,0.038,0.280,-5.337
0.137,0.042,0.277,-5.337
0.100,0.042,0.275,-5.337
0.145,0.037,0.276,-5.337
0.248,0.035,0.275,-5.337
0.276,0.036,0.274,-5.337
0.209,0.039,0.274,-5.337
0.218,0.039,0.277,-5.337
0.160,0.038,0.283,-5.337
0.171,0.035,0.285,-5.337
0.138,0.036,0.281,-5.337
0.124,0.035,0.279,-5.337
0.156,0.038,0.279,-5.337
0.189,0.041,0.279,-5.337
0.193,0.041,0.280,-5.337
0.181,0.036,0.276,-5.337
0.195,0.038,0.273,-5.337
0.154,0.041,0.272,-5.337
0.161,0.039,0.276,-5.337
0.182,0.038,0.279,-5.337
0.159,0.040,0.275,-5.337
0.168,0.039,0.278,-5.337
0.253,0.037,0.281,-5.337
0.225,0.038,0.282,-5.337
0.153,0.039,0.280,-5.337
0.180,0.038,0.279,-5.337
0.198,0.040,0.280,-5.337
0.115,0.040,0.283,-5.337
0.144,0.040,0.280,-5.337
0.175,0.042,0.278,-5.337
0.190,0.042,0.278,-5.337
0.231,0.040,0.278,-5.337
0.154,0.040,0.278,-5.337
0.156,0.042,0.277,-5.337
0.203,0.041,0.272,-5.337
0.135,0.044,0.272,-5.337
0.102,0.043,0.275,-5.337
0.132,0.040,0.274,-5.337
0.126,0.045,0.275,-5.337
0.036,0.047,0.279,-5.337
0.056,0.045,0.279,-5.337
0.117,0.043,0.276,-5.337
0.099,0.043,0.274,-5.337
0.112,0.042,0.272,-5.337
0.154,0.041,0.277,-5.337
0.167,0.040,0.283,-5.337
0.175,0.042,0.285,-5.337
0.209,0.040,0.278,-5.337
0.271,0.037,0.273,-5.337
0.292,0.034,0.270,-5.337
0.188,0.040,0.272,-5.337
0.157,0.040,0.273,-5.337
0.203,0.039,0.277,-5.337
0.197,0.037,0.280,-5.337
0.195,0.041,0.282,-5.337
0.113,0.048,0.281,-5.337
0.126,0.047,0.279,-5.337
0.178,0.044,0.276,-5.337
0.206,0.044,0.271,-5.337
0.162,0.041,0.269,-5.337
0.180,0.043,0.272,-5.337
0.150,0.044,0.274,-5.337
0.078,0.044,0.275,-5.337
0.105,0.040,0.277,-5.337
0.205,0.041,0.279,-5.337
0.175,0.042,0.282,-5.337
0.154,0.042,0.280,-5.337
0.173,0.041,0.276,-5.337
0.153,0.045,0.277,-5.337
0.190,0.041,0.281,-5.337
0.220,0.039,0.280,-5.337
0.114,0.045,0.279,-5.337
0.093,0.043,0.280,-5.337
0.151,0.042,0.281,-5.337
0.144,0.041,0.278,-5.337
0.189,0.042,0.276,-5.337
0.189,0.047,0.277,-5.337
0.165,0.047,0.280,-5.337
0.161,0.044,0.278,-5.337
0.189,0.041,0.274,-5.337
0.286,0.043,0.269,-5.337
0.263,0.046,0.271,-5.337
0.123,0.046,0.277,-5.337
0.087,0.044,0.280,-5.337
0.162,0.043,0.282,-5.337
0.255,0.042,0.279,-5.337
0.238,0.045,0.276,-5.337
0.123,0.049,0.274,-5.337
0.116,0.047,0.276,-5.337
0.190,0.044,0.274,-5.337
0.193,0.048,0.272,-5.337
0.186,0.048,0.272,-5.337
0.105,0.051,0.276,-5.337
0.155,0.047,0.280,-5.337
0.188,0.046,0.278,-5.337
0.106,0.046,0.276,-5.337
0.094,0.048,0.276,-5.337
0.195,0.046,0.278,-5.337
0.212,0.049,0.280,-5.337
0.154,0.049,0.280,-5.337
0.143,0.048,0.279,-5.337
0.195,0.045,0.275,-5.337
0.280,0.041,0.270,-5.337
0.309,0.044,0.272,-5.337
0.211,0.052,0.275,-5.337
0.202,0.049,0.277,-5.337
0.213,0.051,0.278,-5.337
0.140,0.053,0.278,-5.337
0.079,0.052,0.275,-5.337
0.075,0.054,0.275,-5.337
0.136,0.051,0.276,-5.337
0.182,0.047,0.278,-5.337
0.199,0.045,0.279,-5.337
0.207,0.048,0.280,-5.337
0.202,0.048,0.279,-5.337
0.198,0.052,0.277,-5.337
0.167,0.054,0.276,-5.337
0.134,0.055,0.278,-5.337
0.117,0.054,0.277,-5.337
0.161,0.055,0.273,-5.337
0.170,0.055,0.270,-5.337
0.121,0.056,0.276,-5.337
0.136,0.054,0.279,-5.337
0.183,0.054,0.277,-5.337
0.181,0.052,0.279,-5.337
0.200,0.050,0.279,-5.337
0.230,0.049,0.277,-5.337
0.193,0.052,0.277,-5.337
0.165,0.056,0.279,-5.337
0.237,0.053,0.277,-5.337
0.228,0.052,0.277,-5.337
0.152,0.054,0.277,-5.337
0.222,0.054,0.276,-5.337
0.243,0.055,0.274,-5.337
0.221,0.055,0.279,-5.337
0.193,0.056,0.280,-5.337
0.182,0.058,0.279,-5.337
0.170,0.056,0.278,-5.337
0.179,0.055,0.278,-5.337
0.219,0.054,0.278,-5.337
0.210,0.053,0.273,-5.337
0.294,0.050,0.272,-5.337
0.309,0.048,0.274,-5.337
0.248,0.052,0.278,-5.337
0.213,0.054,0.280,-5.337
0.205,0.053,0.282,-5.337
0.245,0.053,0.281,-5.337
0.260,0.054,0.276,-5.337
0.227,0.052,0.271,-5.337
0.201,0.050,0.267,-5.337
0.283,0.049,0.269,-5.337
0.323,0.050,0.275,-5.337
0.271,0.055,0.277,-5.337
0.230,0.057,0.276,-5.337
0.154,0.058,0.276,-5.337
0.157,0.060,0.280,-5.337
0.216,0.056,0.278,-5.337
0.184,0.059,0.279,-5.337
0.110,0.058,0.281,-5.337
0.132,0.060,0.280,-5.337
0.180,0.059,0.275,-5.337
0.248,0.060,0.274,-5.337
0.235,0.059,0.277,-5.337
0.184,0.061,0.279,-5.337
0.167,0.063,0.280,-5.337
0.172,0.063,0.279,-5.337
0.204,0.061,0.278,-5.337
0.271,0.059,0.278,-5.337
0.331,0.059,0.277,-5.337
0.324,0.060,0.276,-5.337
0.309,0.064,0.279,-5.337
0.272,0.065,0.279,-5.337
0.223,0.059,0.275,-5.337
0.213,0.055,0.275,-5.337
0.172,0.060,0.279,-5.337
0.100,0.065,0.279,-5.337
0.087,0.063,0.276,-5.337
0.208,0.057,0.276,-5.337
0.282,0.056,0.278,-5.337
0.234,0.060,0.279,-5.337
0.138,0.063,0.276,-5.337
0.141,0.065,0.274,-5.337
0.214,0.066,0.277,-5.337
0.272,0.062,0.279,-5.337
0.262,0.058,0.276,-5.337
0.234,0.059,0.272,-5.337
0.205,0.063,0.268,-5.337
0.181,0.064,0.272,-5.337
0.221,0.063,0.279,-5.337
0.318,0.062,0.281,-5.337
0.315,0.068,0.279,-5.337
0.273,0.070,0.278,-5.337
0.260,0.067,0.277,-5.337
0.292,0.062,0.277,-5.337
0.276,0.059,0.277,-5.337
0.194,0.061,0.278,-5.337
0.192,0.059,0.276,-5.337
0.293,0.060,0.280,-5.337
0.300,0.062,0.281,-5.337
0.234,0.064,0.284,-5.337
0.192,0.064,0.279,-5.337
0.241,0.065,0.275,-5.337
0.247,0.065,0.274,-5.337
0.209,0.063,0.276,-5.337
0.228,0.059,0.279,-5.337
0.250,0.060,0.281,-5.337
0.258,0.062,0.277,-5.337
0.221,0.064,0.273,-5.337
0.238,0.063,0.274,-5.337
0.282,0.064,0.276,-5.337
0.242,0.061,0.280,-5.337
0.226,0.061,0.280,-5.337
0.229,0.061,0.281,-5.337
0.218,0.061,0.281,-5.337
0.277,0.057,0.279,-5.337
0.226,0.062,0.277,-5.337
0.112,0.063,0.275,-5.337
0.108,0.061,0.277,-5.337
0.215,0.059,0.279,-5.337
0.254,0.062,0.280,-5.337
0.196,0.063,0.279,-5.337
0.192,0.064,0.277,-5.337
0.185,0.067,0.277,-5.337
0.172,0.064,0.277,-5.337
0.206,0.065,0.279,-5.337
0.205,0.064,0.281,-5.337
0.276,0.063,0.281,-5.337
0.303,0.063,0.280,-5.337
0.220,0.063,0.278,-5.337
0.242,0.062,0.278,-5.337
0.302,0.061,0.278,-5.337
0.302,0.062,0.275,-5.337
0.227,0.063,0.273,-5.337
0.149,0.064,0.275,-5.337
0.146,0.065,0.277,-5.337
0.241,0.061,0.280,-5.337
0.240,0.061,0.282,-5.337
0.171,0.062,0.283,-5.337
0.201,0.059,0.277,-5.337
0.244,0.060,0.276,-5.337
0.286,0.062,0.282,-5.337
0.328,0.063,0.284,-5.337
0.322,0.059,0.279,-5.337
0.295,0.060,0.276,-5.337
0.293,0.062,0.277,-5.337
0.284,0.067,0.281,-5.337
0.270,0.067,0.281,-5.337
0.261,0.069,0.281,-5.337
0.284,0.067,0.277,-5.337
0.321,0.069,0.276,-5.337
0.248,0.072,0.277,-5.337
0.227,0.067,0.281,-5.337
0.209,0.066,0.283,-5.337
0.169,0.071,0.282,-5.337
0.188,0.068,0.279,-5.337
0.247,0.066,0.274,-5.337
0.242,0.066,0.275,-5.337
0.212,0.067,0.279,-5.337
0.176,0.065,0.281,-5.337
0.206,0.065,0.278,-5.337
0.273,0.067,0.278,-5.337
0.285,0.068,0.278,-5.337
0.198,0.072,0.279,-5.337
0.140,0.070,0.277,-5.337
0.166,0.069,0.276,-5.337
0.256,0.063,0.275,-5.337
0.335,0.063,0.275,-5.337
0.317,0.065,0.277,-5.337
0.256,0.072,0.280,-5.337
0.241,0.068,0.280,-5.337
0.280,0.068,0.280,-5.337
0.275,0.067,0.277,-5.337
0.249,0.068,0.274,-5.337
0.290,0.066,0.272,-5.337
0.380,0.061,0.278,-5.337
0.390,0.058,0.284,-5.337
0.269,0.064,0.286,-5.337
0.185,0.067,0.286,-5.337
0.170,0.071,0.278,-5.337
0.215,0.067,0.274,-5.337
0.278,0.064,0.275,-5.337
0.346,0.064,0.278,-5.337
0.292,0.062,0.278,-5.337
0.267,0.061,0.280,-5.337
0.292,0.061,0.281,-5.337
0.234,0.063,0.283,-5.337
0.147,0.064,0.278,-5.337
0.206,0.063,0.275,-5.337
0.249,0.065,0.276,-5.337
0.225,0.066,0.279,-5.337
0.260,0.062,0.280,-5.337
0.263,0.064,0.278,-5.337
0.235,0.063,0.281,-5.337
0.226,0.062,0.285,-5.337
0.227,0.063,0.282,-5.337
0.264,0.063,0.279,-5.337
0.328,0.063,0.278,-5.337
0.331,0.063,0.277,-5.337
0.254,0.063,0.278,-5.337
0.220,0.061,0.278,-5.337
0.196,0.060,0.279,-5.337
0.199,0.060,0.277,-5.337
0.218,0.062,0.278,-5.337
0.268,0.060,0.274,-5.337
0.259,0.061,0.272,-5.337
0.215,0.062,0.272,-5.337
0.225,0.064,0.276,-5.337
0.280,0.061,0.280,-5.337
0.276,0.060,0.280,-5.337
0.223,0.060,0.278,-5.337
0.203,0.062,0.279,-5.337
0.182,0.060,0.281,-5.337
0.224,0.058,0.280,-5.337
0.259,0.060,0.279,-5.337
0.240,0.059,0.278,-5.337
0.247,0.057,0.276,-5.337
0.251,0.057,0.280,-5.337
0.270,0.053,0.279,-5.337
0.263,0.054,0.280,-5.337
0.248,0.057,0.280,-5.337
0.247,0.054,0.281,-5.337
0.238,0.053,0.279,-5.337
0.209,0.056,0.275,-5.337
0.218,0.054,0.272,-5.337
0.294,0.054,0.275,-5.337
0.314,0.057,0.278,-5.337
0.268,0.058,0.277,-5.337
0.206,0.054,0.278,-5.337
0.136,0.056,0.276,-5.337
0.157,0.059,0.277,-5.337
0.216,0.058,0.280,-5.337
0.198,0.060,0.280,-5.337
0.218,0.058,0.282,-5.337
0.236,0.059,0.282,-5.337
0.203,0.058,0.280,-5.337
0.217,0.055,0.277,-5.337
0.214,0.053,0.278,-5.337
0.219,0.053,0.277,-5.337
0.229,0.052,0.275,-5.337
0.201,0.052,0.277,-5.337
0.147,0.054,0.277,-5.337
0.165,0.056,0.274,-5.337
0.177,0.056,0.274,-5.337
0.201,0.057,0.275,-5.337
0.230,0.055,0.277,-5.337
0.219,0.053,0.280,-5.337
0.196,0.055,0.280,-5.337
0.178,0.054,0.279,-5.337
0.239,0.052,0.277,-5.337
0.283,0.054,0.275,-5.337
0.273,0.061,0.278,-5.337
0.184,0.060,0.282,-5.337
0.121,0.060,0.280,-5.337
0.125,0.058,0.276,-5.337
0.141,0.057,0.275,-5.337
0.158,0.057,0.274,-5.337
0.235,0.056,0.276,-5.337
0.293,0.053,0.278,-5.337
0.194,0.051,0.280,-5.337
0.149,0.050,0.280,-5.337
0.162,0.056,0.281,-5.337
0.197,0.053,0.280,-5.337
0.213,0.053,0.280,-5.337
0.210,0.053,0.283,-5.337
0.237,0.048,0.282,-5.337
0.272,0.045,0.280,-5.337
0.238,0.047,0.282,-5.337
0.215,0.050,0.283,-5.337
0.262,0.048,0.280,-5.337
0.216,0.050,0.277,-5.337
0.175,0.049,0.274,-5.337
0.296,0.048,0.273,-5.337
0.300,0.051,0.275,-5.337
0.215,0.054,0.278,-5.337
0.194,0.051,0.280,-5.337
0.209,0.049,0.279,-5.337
0.227,0.048,0.276,-5.337
0.208,0.047,0.274,-5.337
0.164,0.051,0.273,-5.337
0.174,0.053,0.275,-5.337
0.208,0.053,0.277,-5.337
0.183,0.053,0.279,-5.337
0.137,0.054,0.278,-5.337
0.158,0.051,0.276,-5.337
0.147,0.050,0.277,-5.337
0.109,0.050,0.277,-5.337
0.107,0.049,0.279,-5.337
0.151,0.050,0.276,-5.337
0.204,0.052,0.278,-5.337
0.217,0.049,0.280,-5.337
0.197,0.047,0.284,-5.337
0.187,0.047,0.283,-5.337
0.187,0.048,0.279,-5.337
0.219,0.048,0.277,-5.337
0.239,0.046,0.279,-5.337
0.234,0.046,0.281,-5.337
0.178,0.049,0.284,-5.337
0.196,0.047,0.281,-5.337
0.201,0.046,0.279,-5.337
0.199,0.047,0.282,-5.337
0.195,0.047,0.280,-5.337
0.215,0.048,0.275,-5.337
0.182,0.050,0.278,-5.337
0.123,0.052,0.282,-5.337
0.125,0.048,0.280,-5.337
0.220,0.046,0.276,-5.337
0.230,0.046,0.278,-5.337
0.218,0.047,0.279,-5.337
0.210,0.044,0.275,-5.337
0.178,0.046,0.273,-5.337
0.190,0.047,0.277,-5.337
0.152,0.049,0.280,-5.337
0.186,0.047,0.278,-5.337
0.192,0.047,0.279,-5.337
0.207,0.043,0.276,-5.337
0.239,0.041,0.275,-5.337
0.222,0.041,0.274,-5.337
0.126,0.047,0.274,-5.337
0.087,0.047,0.278,-5.337
0.179,0.043,0.284,-5.337
0.231,0.042,0.282,-5.337
0.155,0.045,0.278,-5.337
0.123,0.042,0.275,-5.337
0.198,0.040,0.270,-5.337
0.204,0.042,0.270,-5.337
0.146,0.042,0.274,-5.337
0.162,0.043,0.280,-5.337
0.168,0.042,0.284,-5.337
0.222,0.040,0.283,-5.337
0.228,0.042,0.279,-5.337
0.160,0.044,0.279,-5.337
0.160,0.039,0.278,-5.337
0.187,0.038,0.278,-5.337
0.252,0.042,0.278,-5.337
0.257,0.044,0.275,-5.337
0.180,0.044,0.274,-5.337
0.111,0.042,0.278,-5.337
0.180,0.041,0.281,-5.337
0.210,0.042,0.279,-5.337
0.139,0.042,0.275,-5.337
0.067,0.041,0.274,-5.337
0.112,0.042,0.273,-5.337
0.158,0.041,0.277,-5.337
0.138,0.040,0.278,-5.337
0.127,0.041,0.278,-5.337
0.137,0.039,0.280,-5.337
0.128,0.041,0.282,-5.337
0.116,0.045,0.281,-5.337
0.153,0.044,0.276,-5.337
0.163,0.046,0.277,-5.337
0.192,0.047,0.280,-5.337
0.131,0.051,0.280,-5.337
0.073,0.050,0.279,-5.337
0.119,0.048,0.277,-5.337
0.106,0.048,0.273,-5.337
0.089,0.051,0.278,-5.337
0.185,0.047,0.280,-5.337
0.272,0.049,0.282,-5.337
0.252,0.050,0.281,-5.337
0.229,0.050,0.280,-5.337
0.201,0.048,0.277,-5.337
0.201,0.047,0.275,-5.337
0.236,0.041,0.275,-5.337
0.275,0.039,0.274,-5.337
0.194,0.039,0.270,-5.337
0.132,0.043,0.271,-5.337
0.181,0.042,0.277,-5.337
0.228,0.043,0.284,-5.337
0.161,0.047,0.284,-5.337
0.062,0.050,0.282,-5.337
0.077,0.045,0.279,-5.337
0.132,0.046,0.275,-5.337
0.146,0.041,0.276,-5.337
0.107,0.041,0.275,-5.337
0.130,0.040,0.277,-5.337
0.154,0.040,0.276,-5.337
0.151,0.039,0.276,-5.337
0.167,0.036,0.277,-5.337
0.180,0.036,0.280,-5.337
0.195,0.038,0.280,-5.337
0.252,0.040,0.281,-5.337
0.216,0.040,0.283,-5.337
0.183,0.039,0.282,-5.337
0.187,0.039,0.277,-5.337
0.186,0.039,0.278,-5.337
0.221,0.035,0.279,-5.337
0.192,0.037,0.278,-5.337
0.129,0.040,0.277,-5.337
0.097,0.041,0.278,-5.337
0.115,0.037,0.279,-5.337
0.121,0.035,0.278,-5.337
0.133,0.037,0.279,-5.337
0.248,0.038,0.280,-5.337
0.257,0.042,0.282,-5.337
0.183,0.042,0.283,-5.337
0.139,0.041,0.283,-5.337
0.144,0.037,0.282,-5.337
0.168,0.036,0.282,-5.337
0.198,0.035,0.280,-5.337
0.218,0.038,0.279,-5.337
0.183,0.038,0.278,-5.337
0.173,0.040,0.277,-5.337
0.162,0.039,0.275,-5.337
0.183,0.036,0.274,-5.337
0.180,0.036,0.277,-5.337
0.114,0.037,0.283,-5.337
0.092,0.036,0.284,-5.337
0.208,0.037,0.281,-5.337
0.254,0.038,0.279,-5.337
0.129,0.040,0.277,-5.337
0.076,0.042,0.278,-5.337
0.146,0.040,0.278,-5.337
0.195,0.038,0.279,-5.337
0.187,0.040,0.280,-5.337
0.155,0.042,0.278,-5.337
0.138,0.040,0.276,-5.337
0.155,0.040,0.276,-5.337
0.152,0.040,0.277,-5.337
0.117,0.042,0.283,-5.337
0.119,0.041,0.284,-5.337
0.146,0.040,0.285,-5.337
0.165,0.039,0.280,-5.337
0.201,0.040,0.277,-5.337
0.171,0.042,0.275,-5.337
0.159,0.040,0.276,-5.337
0.182,0.040,0.278,-5.337
0.161,0.042,0.277,-5.337
0.201,0.041,0.274,-5.337
0.202,0.044,0.275,-5.337
0.159,0.046,0.281,-5.337
0.083,0.047,0.281,-5.337
0.066,0.043,0.280,-5.337
0.136,0.038,0.279,-5.337
0.126,0.037,0.277,-5.337
0.131,0.036,0.275,-5.337
0.110,0.043,0.278,-5.337
0.082,0.043,0.285,-5.337
0.229,0.036,0.286,-5.337
0.249,0.035,0.279,-5.337
0.190,0.035,0.277,-5.337
0.138,0.035,0.277,-5.337
0.198,0.038,0.277,-5.337
0.189,0.038,0.277,-5.337
0.175,0.036,0.281,-5.337
0.201,0.033,0.282,-5.337
0.178,0.036,0.278,-5.337
0.176,0.036,0.275,-5.337
0.145,0.038,0.277,-5.337
0.174,0.034,0.277,-5.337
0.201,0.036,0.276,-5.337
0.188,0.036,0.276,-5.337
0.191,0.035,0.276,-5.337
0.221,0.033,0.277,-5.337
0.192,0.037,0.274,-5.337
0.155,0.040,0.270,-5.337
0.145,0.040,0.274,-5.337
0.085,0.038,0.279,-5.337
0.075,0.037,0.283,-5.337
0.104,0.035,0.281,-5.337
0.117,0.038,0.281,-5.337
0.111,0.036,0.283,-5.337
0.120,0.036,0.284,-5.337
0.132,0.038,0.283,-5.337
0.118,0.037,0.280,-5.337
0.120,0.034,0.277,-5.337
0.135,0.036,0.273,-5.337
0.128,0.040,0.270,-5.337
0.149,0.039,0.271,-5.337
0.197,0.041,0.280,-5.337
0.215,0.041,0.284,-5.337
0.184,0.041,0.281,-5.337
0.151,0.040,0.279,-5.337
0.145,0.042,0.281,-5.337
0.098,0.042,0.282,-5.337
0.085,0.043,0.280,-5.337
0.099,0.042,0.279,-5.337
0.164,0.044,0.280,-5.337
0.216,0.043,0.278,-5.337
0.189,0.046,0.277,-5.337
0.161,0.043,0.279,-5.337
0.152,0.043,0.279,-5.337
0.110,0.044,0.277,-5.337
0.176,0.046,0.276,-5.337
0.221,0.044,0.277,-5.337
0.207,0.044,0.279,-5.337
0.135,0.043,0.281,-5.337
0.173,0.042,0.280,-5.337
0.206,0.047,0.278,-5.337
0.225,0.047,0.277,-5.337
0.193,0.045,0.279,-5.337
0.199,0.043,0.278,-5.337
0.236,0.044,0.278,-5.337
0.196,0.047,0.278,-5.337
0.230,0.044,0.274,-5.337
0.219,0.043,0.271,-5.337
0.099,0.047,0.273,-5.337
0.120,0.046,0.277,-5.337
0.166,0.050,0.281,-5.337
0.124,0.051,0.281,-5.337
0.085,0.050,0.278,-5.337
0.100,0.048,0.276,-5.337
0.161,0.051,0.278,-5.337
0.159,0.049,0.279,-5.337
0.096,0.050,0.277,-5.337
0.137,0.046,0.276,-5.337
0.207,0.047,0.273,-5.337
0.149,0.050,0.275,-5.337
0.141,0.050,0.280,-5.337
0.213,0.047,0.283,-5.337
0.248,0.048,0.277,-5.337
0.164,0.054,0.277,-5.337
0.088,0.055,0.276,-5.337
0.161,0.053,0.276,-5.337
0.228,0.048,0.276,-5.337
0.245,0.049,0.279,-5.337
0.140,0.052,0.278,-5.337
0.165,0.051,0.276,-5.337
0.212,0.053,0.275,-5.337
0.212,0.054,0.277,-5.337
0.201,0.054,0.277,-5.337
0.199,0.052,0.276,-5.337
0.147,0.052,0.276,-5.337
0.147,0.052,0.277,-5.337
0.158,0.050,0.275,-5.337
0.182,0.049,0.277,-5.337
0.188,0.053,0.280,-5.337
0.179,0.053,0.278,-5.337
0.141,0.052,0.278,-5.337
0.173,0.051,0.277,-5.337
0.190,0.051,0.277,-5.337
0.180,0.052,0.278,-5.337
0.130,0.053,0.282,-5.337
0.107,0.053,0.284,-5.337
0.142,0.051,0.280,-5.337
0.203,0.047,0.279,-5.337
0.259,0.050,0.279,-5.337
0.192,0.051,0.279,-5.337
0.182,0.050,0.277,-5.337
0.238,0.049,0.271,-5.337
0.256,0.051,0.269,-5.337
0.215,0.049,0.274,-5.337
0.187,0.049,0.277,-5.337
0.224,0.048,0.278,-5.337
0.300,0.047,0.275,-5.337
0.349,0.044,0.276,-5.337
0.340,0.045,0.275,-5.337
0.236,0.047,0.279,-5.337
0.158,0.048,0.277,-5.337
0.199,0.048,0.276,-5.337
0.259,0.046,0.274,-5.337
0.248,0.048,0.276,-5.337
0.211,0.047,0.278,-5.337
0.212,0.050,0.284,-5.337
0.252,0.048,0.286,-5.337
0.244,0.051,0.288,-5.337
0.191,0.052,0.285,-5.337
0.179,0.050,0.280,-5.337
0.162,0.050,0.276,-5.337
0.170,0.053,0.276,-5.337
0.194,0.053,0.274,-5.337
0.233,0.056,0.273,-5.337
0.248,0.056,0.276,-5.337
0.200,0.056,0.279,-5.337
0.142,0.053,0.278,-5.337
0.162,0.052,0.276,-5.337
0.183,0.050,0.277,-5.337
0.263,0.049,0.279,-5.337
0.287,0.050,0.278,-5.337
0.219,0.049,0.276,-5.337
0.173,0.050,0.278,-5.337
0.223,0.051,0.278,-5.337
0.281,0.048,0.280,-5.337
0.238,0.049,0.278,-5.337
0.194,0.052,0.275,-5.337
0.209,0.051,0.274,-5.337
0.231,0.053,0.279,-5.337
0.200,0.052,0.282,-5.337
0.155,0.054,0.280,-5.337
0.211,0.050,0.275,-5.337
0.246,0.049,0.273,-5.337
0.218,0.053,0.272,-5.337
0.208,0.053,0.273,-5.337
0.201,0.054,0.277,-5.337
0.134,0.058,0.276,-5.337
0.112,0.060,0.276,-5.337
0.150,0.057,0.281,-5.337
0.165,0.057,0.281,-5.337
0.215,0.055,0.277,-5.337
0.270,0.055,0.276,-5.337
0.224,0.054,0.275,-5.337
0.200,0.054,0.278,-5.337
0.219,0.054,0.278,-5.337
0.220,0.056,0.279,-5.337
0.192,0.057,0.274,-5.337
0.175,0.057,0.271,-5.337
0.146,0.057,0.272,-5.337
0.224,0.057,0.277,-5.337
0.323,0.052,0.280,-5.337
0.315,0.053,0.281,-5.337
0.354,0.052,0.280,-5.337
0.350,0.055,0.278,-5.337
0.223,0.057,0.280,-5.337
0.225,0.058,0.281,-5.337
0.268,0.054,0.278,-5.337
0.350,0.052,0.273,-5.337
0.311,0.052,0.272,-5.337
0.237,0.053,0.276,-5.337
0.212,0.057,0.277,-5.337
0.205,0.057,0.275,-5.337
0.187,0.058,0.277,-5.337
0.134,0.059,0.280,-5.337
0.161,0.056,0.280,-5.337
0.124,0.060,0.279,-5.337
0.131,0.059,0.281,-5.337
0.243,0.053,0.275,-5.337
0.342,0.050,0.273,-5.337
0.392,0.050,0.274,-5.337
0.344,0.054,0.277,-5.337
0.253,0.055,0.278,-5.337
0.203,0.056,0.277,-5.337
0.132,0.056,0.278,-5.337
0.159,0.055,0.277,-5.337
0.222,0.054,0.275,-5.337
0.262,0.052,0.273,-5.337
0.275,0.053,0.272,-5.337
0.306,0.053,0.273,-5.337
0.320,0.054,0.278,-5.337
0.272,0.055,0.282,-5.337
0.208,0.059,0.283,-5.337
0.242,0.058,0.281,-5.337
0.276,0.054,0.279,-5.337
0.245,0.057,0.277,-5.337
0.203,0.058,0.279,-5.337
0.230,0.058,0.277,-5.337
0.285,0.058,0.277,-5.337
0.252,0.059,0.276,-5.337
0.158,0.060,0.276,-5.337
0.153,0.062,0.274,-5.337
0.213,0.059,0.275,-5.337
0.233,0.060,0.276,-5.337
0.242,0.062,0.282,-5.337
0.265,0.059,0.286,-5.337
0.233,0.059,0.283,-5.337
0.214,0.061,0.280,-5.337
0.210,0.059,0.279,-5.337
0.215,0.059,0.275,-5.337
0.214,0.060,0.276,-5.337
0.282,0.056,0.277,-5.337
0.310,0.058,0.276,-5.337
0.249,0.061,0.275,-5.337
0.190,0.064,0.277,-5.337
0.205,0.059,0.280,-5.337
0.230,0.060,0.280,-5.337
0.279,0.058,0.278,-5.337
0.238,0.063,0.275,-5.337
0.197,0.061,0.279,-5.337
0.245,0.058,0.280,-5.337
0.271,0.059,0.281,-5.337
0.205,0.061,0.274,-5.337
0.213,0.065,0.272,-5.337
0.306,0.063,0.277,-5.337
0.324,0.063,0.283,-5.337
0.153,0.066,0.284,-5.337
0.175,0.064,0.285,-5.337
0.276,0.062,0.285,-5.337
0.235,0.064,0.281,-5.337
0.232,0.061,0.275,-5.337
0.252,0.060,0.276,-5.337
0.207,0.063,0.276,-5.337
0.140,0.065,0.278,-5.337
0.151,0.064,0.281,-5.337
0.175,0.065,0.281,-5.337
0.177,0.066,0.280,-5.337
0.155,0.065,0.276,-5.337
0.205,0.062,0.279,-5.337
0.217,0.061,0.282,-5.337
0.227,0.057,0.283,-5.337
0.210,0.057,0.282,-5.337
0.263,0.062,0.278,-5.337
0.287,0.060,0.273,-5.337
0.245,0.060,0.277,-5.337
0.249,0.056,0.278,-5.337
0.243,0.056,0.277,-5.337
0.236,0.058,0.280,-5.337
0.294,0.054,0.282,-5.337
0.294,0.056,0.281,-5.337
0.208,0.058,0.276,-5.337
0.153,0.057,0.279,-5.337
0.210,0.056,0.281,-5.337
0.311,0.055,0.279,-5.337
0.328,0.056,0.278,-5.337
0.318,0.058,0.279,-5.337
0.296,0.058,0.277,-5.337
0.273,0.061,0.272,-5.337
0.205,0.063,0.273,-5.337
0.150,0.064,0.279,-5.337
0.249,0.064,0.279,-5.337
0.314,0.059,0.279,-5.337
0.252,0.055,0.275,-5.337
0.183,0.056,0.273,-5.337
0.242,0.058,0.275,-5.337
0.274,0.059,0.280,-5.337
0.246,0.059,0.278,-5.337
0.222,0.059,0.275,-5.337
0.290,0.055,0.276,-5.337
0.314,0.052,0.278,-5.337
0.224,0.052,0.280,-5.337
0.210,0.057,0.282,-5.337
0.209,0.059,0.281,-5.337
0.230,0.055,0.281,-5.337
0.233,0.055,0.278,-5.337
0.227,0.055,0.276,-5.337
0.186,0.060,0.273,-5.337
0.174,0.061,0.275,-5.337
0.193,0.058,0.277,-5.337
0.275,0.056,0.281,-5.337
0.326,0.054,0.283,-5.337
0.310,0.051,0.280,-5.337
0.292,0.048,0.280,-5.337
0.278,0.052,0.278,-5.337
0.236,0.055,0.276,-5.337
0.207,0.057,0.274,-5.337
0.155,0.056,0.276,-5.337
0.128,0.054,0.278,-5.337
0.160,0.054,0.277,-5.337
0.149,0.052,0.279,-5.337
0.102,0.054,0.280,-5.337
0.098,0.054,0.277,-5.337
0.178,0.050,0.275,-5.337
0.194,0.048,0.277,-5.337
0.162,0.045,0.279,-5.337
0.158,0.049,0.281,-5.337
0.167,0.052,0.281,-5.337
0.173,0.052,0.279,-5.337
0.199,0.050,0.280,-5.337
0.220,0.050,0.276,-5.337
0.234,0.050,0.275,-5.337
0.246,0.051,0.278,-5.337
0.277,0.048,0.275,-5.337
0.296,0.049,0.278,-5.337
0.272,0.050,0.282,-5.337
0.218,0.048,0.280,-5.337
0.203,0.045,0.278,-5.337
0.235,0.040,0.280,-5.337
0.260,0.041,0.279,-5.337
0.248,0.044,0.279,-5.337
0.264,0.043,0.277,-5.337
0.226,0.045,0.275,-5.337
0.168,0.045,0.276,-5.337
0.170,0.047,0.279,-5.337
0.208,0.044,0.281,-5.337
0.265,0.040,0.280,-5.337
0.212,0.040,0.280,-5.337
0.197,0.043,0.283,-5.337
0.176,0.045,0.281,-5.337
0.185,0.043,0.277,-5.337
0.244,0.039,0.274,-5.337
0.234,0.041,0.275,-5.337
0.184,0.043,0.279,-5.337
0.163,0.043,0.280,-5.337
0.201,0.046,0.281,-5.337
0.221,0.045,0.281,-5.337
0.216,0.047,0.282,-5.337
0.199,0.044,0.279,-5.337
0.225,0.042,0.278,-5.337
0.245,0.044,0.279,-5.337
0.208,0.047,0.279,-5.337
0.146,0.043,0.279,-5.337
0.103,0.042,0.282,-5.337
0.120,0.039,0.283,-5.337
0.175,0.037,0.283,-5.337
0.219,0.038,0.279,-5.337
0.182,0.045,0.279,-5.337
0.200,0.043,0.276,-5.337
0.189,0.044,0.274,-5.337
0.168,0.042,0.276,-5.337
0.164,0.041,0.276,-5.337
0.150,0.039,0.275,-5.337
0.171,0.041,0.274,-5.337
0.149,0.043,0.279,-5.337
0.175,0.045,0.279,-5.337
0.166,0.047,0.275,-5.337
0.139,0.045,0.275,-5.337
0.128,0.043,0.281,-5.337
0.201,0.040,0.280,-5.337
0.235,0.040,0.277,-5.337
0.260,0.041,0.275,-5.337
0.281,0.044,0.273,-5.337
0.267,0.039,0.277,-5.337
0.220,0.039,0.281,-5.337
0.242,0.042,0.277,-5.337
0.232,0.044,0.275,-5.337
0.164,0.040,0.276,-5.337
0.173,0.041,0.278,-5.337
0.206,0.038,0.277,-5.337
0.214,0.036,0.278,-5.337
0.195,0.036,0.276,-5.337
0.139,0.038,0.278,-5.337
0.133,0.038,0.280,-5.337
0.199,0.038,0.279,-5.337
0.215,0.036,0.279,-5.337
0.215,0.038,0.276,-5.337
0.206,0.038,0.276,-5.337
0.111,0.039,0.276,-5.337
0.086,0.043,0.271,-5.337
0.118,0.041,0.268,-5.337
0.203,0.037,0.273,-5.337
0.174,0.037,0.280,-5.337
0.111,0.040,0.282,-5.337
0.135,0.035,0.279,-5.337
0.168,0.033,0.276,-5.337
0.141,0.038,0.273,-5.337
0.193,0.039,0.275,-5.337
0.183,0.038,0.280,-5.337
0.183,0.039,0.280,-5.337
0.237,0.036,0.280,-5.337
0.177,0.036,0.277,-5.337
0.208,0.035,0.274,-5.337
0.320,0.033,0.275,-5.337
0.281,0.036,0.278,-5.337
0.255,0.034,0.278,-5.337
0.216,0.035,0.282,-5.337
0.151,0.040,0.284,-5.337
0.151,0.042,0.284,-5.337
0.178,0.039,0.280,-5.337
0.149,0.039,0.276,-5.337
0.123,0.041,0.275,-5.337
0.113,0.043,0.281,-5.337
0.157,0.040,0.284,-5.337
0.129,0.040,0.281,-5.337
0.094,0.038,0.274,-5.337
0.135,0.036,0.272,-5.337
0.218,0.038,0.276,-5.337
0.201,0.041,0.278,-5.337
0.186,0.040,0.277,-5.337
0.142,0.041,0.278,-5.337
0.161,0.038,0.276,-5.337
0.212,0.038,0.275,-5.337
0.216,0.035,0.275,-5.337
0.236,0.031,0.277,-5.337
0.255,0.032,0.279,-5.337
0.182,0.036,0.280,-5.337
0.095,0.038,0.275,-5.337
0.090,0.038,0.274,-5.337
0.117,0.036,0.277,-5.337
0.161,0.035,0.277,-5.337
0.177,0.037,0.278,-5.337
0.090,0.042,0.276,-5.337
0.092,0.036,0.275,-5.337
0.184,0.033,0.277,-5.337
0.165,0.035,0.278,-5.337
0.107,0.037,0.277,-5.337
0.154,0.037,0.279,-5.337
0.205,0.036,0.280,-5.337
0.196,0.040,0.277,-5.337
0.147,0.039,0.271,-5.337
0.156,0.036,0.270,-5.337
0.157,0.032,0.272,-5.337
0.139,0.034,0.273,-5.337
0.163,0.034,0.276,-5.337
0.159,0.040,0.280,-5.337
0.129,0.038,0.278,-5.337
0.154,0.034,0.277,-5.337
0.158,0.031,0.277,-5.337
0.088,0.035,0.277,-5.337
0.098,0.036,0.277,-5.337
0.180,0.033,0.280,-5.337
0.284,0.029,0.284,-5.337
0.250,0.034,0.283,-5.337
0.184,0.040,0.278,-5.337
0.137,0.041,0.271,-5.337
0.171,0.037,0.269,-5.337
0.177,0.036,0.269,-5.337
0.162,0.035,0.277,-5.337
0.222,0.032,0.282,-5.337
0.324,0.032,0.280,-5.337
0.281,0.032,0.279,-5.337
0.225,0.033,0.275,-5.337
0.232,0.031,0.272,-5.337
0.208,0.036,0.273,-5.337
0.148,0.040,0.274,-5.337
0.139,0.040,0.276,-5.337
0.128,0.041,0.279,-5.337
0.118,0.044,0.278,-5.337
0.114,0.045,0.275,-5.337
0.113,0.042,0.274,-5.337
0.168,0.037,0.278,-5.337
0.213,0.036,0.279,-5.337
0.128,0.040,0.280,-5.337
0.069,0.039,0.278,-5.337
0.128,0.040,0.277,-5.337
0.169,0.040,0.273,-5.337
0.188,0.040,0.274,-5.337
0.157,0.042,0.275,-5.337
0.108,0.039,0.277,-5.337
0.155,0.034,0.279,-5.337
0.166,0.035,0.281,-5.337
0.142,0.036,0.278,-5.337
0.138,0.039,0.274,-5.337
0.103,0.038,0.274,-5.337
0.068,0.038,0.275,-5.337
0.130,0.036,0.280,-5.337
0.177,0.035,0.280,-5.337
0.186,0.036,0.278,-5.337
0.183,0.038,0.278,-5.337
0.146,0.038,0.278,-5.337
0.208,0.035,0.277,-5.337
0.276,0.033,0.280,-5.337
0.216,0.033,0.280,-5.337
0.150,0.032,0.280,-5.337
0.200,0.031,0.277,-5.337
0.222,0.034,0.279,-5.337
0.236,0.033,0.280,-5.337
0.231,0.032,0.282,-5.337
0.237,0.032,0.281,-5.337
0.247,0.035,0.279,-5.337
0.186,0.035,0.277,-5.337
0.118,0.035,0.279,-5.337
0.092,0.037,0.281,-5.337
0.093,0.040,0.283,-5.337
0.096,0.039,0.282,-5.337
0.103,0.037,0.280,-5.337
0.164,0.037,0.277,-5.337
0.155,0.038,0.277,-5.337
0.168,0.037,0.275,-5.337
0.190,0.037,0.278,-5.337
0.186,0.037,0.281,-5.337
0.207,0.037,0.280,-5.337
0.186,0.036,0.278,-5.337
0.165,0.036,0.277,-5.337
0.176,0.038,0.275,-5.337
0.132,0.044,0.279,-5.337
0.116,0.042,0.283,-5.337
0.130,0.038,0.282,-5.337
0.135,0.036,0.281,-5.337
0.147,0.034,0.278,-5.337
0.220,0.039,0.279,-5.337
0.204,0.040,0.280,-5.337
0.150,0.039,0.283,-5.337
0.168,0.036,0.282,-5.337
0.238,0.033,0.279,-5.337
0.206,0.034,0.277,-5.337
0.100,0.037,0.278,-5.337
0.092,0.032,0.277,-5.337
0.159,0.033,0.276,-5.337
0.155,0.038,0.277,-5.337
0.180,0.038,0.277,-5.337
0.211,0.035,0.276,-5.337
0.174,0.038,0.277,-5.337
0.176,0.037,0.274,-5.337
0.195,0.038,0.272,-5.337
0.227,0.036,0.275,-5.337
0.213,0.036,0.278,-5.337
0.150,0.039,0.279,-5.337
0.136,0.041,0.276,-5.337
0.154,0.040,0.276,-5.337
0.147,0.036,0.277,-5.337
0.145,0.037,0.281,-5.337
0.183,0.039,0.281,-5.337
0.181,0.041,0.281,-5.337
0.072,0.041,0.278,-5.337
0.080,0.042,0.276,-5.337
0.114,0.040,0.272,-5.337
0.134,0.042,0.274,-5.337
0.137,0.042,0.274,-5.337
0.165,0.040,0.272,-5.337
0.233,0.034,0.274,-5.337
0.188,0.038,0.278,-5.337
0.142,0.042,0.280,-5.337
0.142,0.043,0.283,-5.337
0.151,0.042,0.280,-5.337
0.206,0.041,0.278,-5.337
0.235,0.041,0.278,-5.337
0.197,0.041,0.276,-5.337
0.192,0.042,0.276,-5.337
0.180,0.045,0.276,-5.337
0.168,0.045,0.279,-5.337
0.155,0.047,0.281,-5.337
0.102,0.045,0.280,-5.337
0.100,0.045,0.277,-5.337
0.167,0.046,0.279,-5.337
0.167,0.044,0.275,-5.337
0.165,0.042,0.277,-5.337
0.184,0.044,0.277,-5.337
0.171,0.047,0.277,-5.337
0.159,0.043,0.273,-5.337
0.180,0.043,0.273,-5.337
0.179,0.045,0.276,-5.337
0.162,0.048,0.277,-5.337
0.117,0.049,0.278,-5.337
0.067,0.050,0.277,-5.337
0.078,0.048,0.276,-5.337
0.109,0.047,0.278,-5.337
0.115,0.046,0.278,-5.337
0.166,0.046,0.280,-5.337
0.155,0.051,0.282,-5.337
0.172,0.054,0.281,-5.337
0.221,0.051,0.278,-5.337
0.231,0.048,0.278,-5.337
0.145,0.048,0.279,-5.337
0.175,0.045,0.272,-5.337
0.209,0.048,0.272,-5.337
0.251,0.050,0.277,-5.337
0.258,0.051,0.282,-5.337
0.213,0.051,0.283,-5.337
0.194,0.050,0.282,-5.337
0.276,0.045,0.278,-5.337
0.322,0.048,0.276,-5.337
0.222,0.051,0.276,-5.337
0.151,0.052,0.277,-5.337
0.098,0.050,0.279,-5.337
0.092,0.048,0.280,-5.337
0.139,0.048,0.280,-5.337
0.167,0.051,0.280,-5.337
0.175,0.054,0.279,-5.337
0.150,0.054,0.278,-5.337
0.131,0.052,0.277,-5.337
0.180,0.051,0.279,-5.337
0.190,0.050,0.283,-5.337
0.142,0.051,0.283,-5.337
0.187,0.049,0.280,-5.337
0.239,0.051,0.279,-5.337
0.219,0.049,0.284,-5.337
0.162,0.049,0.285,-5.337
0.113,0.051,0.283,-5.337
0.043,0.049,0.279,-5.337
0.078,0.049,0.277,-5.337
0.200,0.046,0.275,-5.337
0.252,0.049,0.274,-5.337
0.224,0.053,0.278,-5.337
0.175,0.053,0.278,-5.337
0.132,0.049,0.274,-5.337
0.175,0.049,0.276,-5.337
0.167,0.051,0.281,-5.337
0.169,0.050,0.279,-5.337
0.265,0.051,0.278,-5.337
0.355,0.051,0.279,-5.337
0.333,0.051,0.276,-5.337
0.253,0.053,0.274,-5.337
0.170,0.055,0.277,-5.337
0.212,0.050,0.275,-5.337
0.284,0.048,0.275,-5.337
0.250,0.053,0.274,-5.337
0.246,0.049,0.274,-5.337
0.230,0.050,0.274,-5.337
0.180,0.054,0.274,-5.337
0.110,0.057,0.273,-5.337
0.142,0.056,0.278,-5.337
0.190,0.053,0.279,-5.337
0.158,0.055,0.278,-5.337
0.188,0.051,0.279,-5.337
0.227,0.053,0.282,-5.337
0.227,0.054,0.283,-5.337
0.138,0.057,0.278,-5.337
0.062,0.059,0.277,-5.337
0.093,0.061,0.275,-5.337
0.143,0.059,0.275,-5.337
0.235,0.056,0.274,-5.337
0.284,0.057,0.275,-5.337
0.243,0.056,0.279,-5.337
0.216,0.057,0.282,-5.337
0.267,0.056,0.281,-5.337
0.247,0.057,0.278,-5.337
0.196,0.060,0.276,-5.337
0.282,0.055,0.280,-5.337
0.271,0.055,0.281,-5.337
0.177,0.060,0.280,-5.337
0.124,0.059,0.277,-5.337
0.186,0.056,0.275,-5.337
0.202,0.055,0.276,-5.337
0.205,0.059,0.280,-5.337
0.177,0.058,0.280,-5.337
0.159,0.056,0.279,-5.337
0.152,0.054,0.274,-5.337
0.210,0.057,0.274,-5.337
0.235,0.059,0.280,-5.337
0.235,0.058,0.285,-5.337
0.259,0.056,0.285,-5.337
0.259,0.056,0.281,-5.337
0.270,0.054,0.276,-5.337
0.284,0.056,0.273,-5.337
0.292,0.054,0.276,-5.337
0.302,0.052,0.278,-5.337
0.270,0.053,0.280,-5.337
0.189,0.060,0.277,-5.337
0.145,0.061,0.279,-5.337
0.198,0.057,0.281,-5.337
0.180,0.057,0.278,-5.337
0.179,0.054,0.272,-5.337
0.220,0.054,0.270,-5.337
0.184,0.054,0.275,-5.337
0.180,0.052,0.281,-5.337
0.231,0.051,0.285,-5.337
0.290,0.054,0.282,-5.337
0.230,0.056,0.275,-5.337
0.185,0.059,0.276,-5.337
0.184,0.062,0.278,-5.337
0.178,0.064,0.280,-5.337
0.231,0.061,0.278,-5.337
0.321,0.056,0.276,-5.337
0.287,0.056,0.274,-5.337
0.244,0.060,0.270,-5.337
0.271,0.058,0.273,-5.337
0.304,0.057,0.279,-5.337
0.330,0.057,0.285,-5.337
0.326,0.059,0.281,-5.337
0.314,0.062,0.278,-5.337
0.308,0.061,0.275,-5.337
0.251,0.067,0.277,-5.337
0.212,0.068,0.279,-5.337
0.167,0.066,0.280,-5.337
0.146,0.067,0.281,-5.337
0.126,0.066,0.281,-5.337
0.138,0.062,0.278,-5.337
0.174,0.063,0.279,-5.337
0.236,0.064,0.280,-5.337
0.201,0.066,0.279,-5.337
0.121,0.064,0.276,-5.337
0.211,0.060,0.279,-5.337
0.246,0.060,0.279,-5.337
0.182,0.063,0.277,-5.337
0.190,0.063,0.273,-5.337
0.242,0.065,0.275,-5.337
0.208,0.062,0.278,-5.337
0.110,0.067,0.278,-5.337
0.154,0.066,0.278,-5.337
0.220,0.060,0.277,-5.337
0.193,0.061,0.277,-5.337
0.258,0.061,0.276,-5.337
0.276,0.059,0.280,-5.337
0.195,0.063,0.281,-5.337
0.201,0.066,0.280,-5.337
0.262,0.070,0.275,-5.337
0.284,0.072,0.274,-5.337
0.322,0.067,0.275,-5.337
0.349,0.067,0.275,-5.337
0.319,0.066,0.273,-5.337
0.306,0.067,0.274,-5.337
0.324,0.065,0.277,-5.337
0.324,0.066,0.278,-5.337
0.289,0.067,0.277,-5.337
0.252,0.068,0.274,-5.337
0.258,0.068,0.278,-5.337
0.333,0.067,0.283,-5.337
0.297,0.070,0.280,-5.337
0.297,0.068,0.274,-5.337
0.356,0.067,0.272,-5.337
0.322,0.067,0.277,-5.337
0.225,0.064,0.282,-5.337
0.234,0.061,0.280,-5.337
0.275,0.064,0.280,-5.337
0.257,0.069,0.280,-5.337
0.280,0.070,0.276,-5.337
0.232,0.069,0.270,-5.337
0.203,0.069,0.273,-5.337
0.267,0.066,0.278,-5.337
0.244,0.068,0.278,-5.337
0.173,0.067,0.278,-5.337
0.183,0.065,0.280,-5.337
0.213,0.067,0.277,-5.337
0.224,0.074,0.277,-5.337
0.160,0.073,0.277,-5.337
0.141,0.070,0.277,-5.337
0.161,0.068,0.276,-5.337
0.250,0.064,0.277,-5.337
0.306,0.062,0.274,-5.337
0.270,0.061,0.273,-5.337
0.289,0.060,0.276,-5.337
0.279,0.061,0.281,-5.337
0.233,0.060,0.283,-5.337
0.197,0.060,0.279,-5.337
0.225,0.061,0.278,-5.337
0.320,0.062,0.275,-5.337
0.354,0.058,0.280,-5.337
0.292,0.060,0.284,-5.337
0.234,0.065,0.285,-5.337
0.247,0.063,0.282,-5.337
0.238,0.066,0.277,-5.337
0.232,0.066,0.272,-5.337
0.230,0.067,0.269,-5.337
0.281,0.059,0.274,-5.337
0.352,0.057,0.280,-5.337
0.354,0.058,0.282,-5.337
0.279,0.061,0.279,-5.337
0.223,0.064,0.276,-5.337
0.242,0.064,0.277,-5.337
0.300,0.064,0.277,-5.337
0.295,0.066,0.275,-5.337
0.261,0.063,0.275,-5.337
0.257,0.063,0.277,-5.337
0.224,0.065,0.280,-5.337
0.194,0.066,0.282,-5.337
0.229,0.065,0.283,-5.337
0.211,0.065,0.279,-5.337
0.180,0.067,0.276,-5.337
0.195,0.068,0.275,-5.337
0.233,0.068,0.278,-5.337
0.208,0.071,0.279,-5.337
0.188,0.075,0.278,-5.337
0.238,0.070,0.281,-5.337
0.231,0.063,0.285,-5.337
0.257,0.060,0.287,-5.337
0.303,0.060,0.284,-5.337
0.291,0.067,0.279,-5.337
0.287,0.067,0.277,-5.337
0.293,0.067,0.278,-5.337
0.292,0.066,0.280,-5.337
0.262,0.068,0.281,-5.337
0.248,0.067,0.280,-5.337
0.287,0.064,0.276,-5.337
0.340,0.061,0.270,-5.337
0.294,0.064,0.271,-5.337
0.251,0.065,0.276,-5.337
0.254,0.063,0.280,-5.337
0.298,0.064,0.280,-5.337
0.347,0.063,0.280,-5.337
0.339,0.060,0.278,-5.337
0.260,0.066,0.276,-5.337
0.210,0.061,0.274,-5.337
0.208,0.059,0.274,-5.337
0.184,0.057,0.275,-5.337
0.204,0.060,0.278,-5.337
0.207,0.064,0.279,-5.337
0.166,0.065,0.281,-5.337
0.179,0.059,0.279,-5.337
0.235,0.058,0.279,-5.337
0.249,0.060,0.279,-5.337
0.198,0.061,0.279,-5.337
0.246,0.056,0.277,-5.337
0.336,0.051,0.276,-5.337
0.292,0.053,0.280,-5.337
0.256,0.055,0.282,-5.337
0.252,0.054,0.278,-5.337
0.256,0.050,0.274,-5.337
0.283,0.050,0.274,-5.337
0.270,0.050,0.274,-5.337
0.183,0.056,0.275,-5.337
0.104,0.056,0.275,-5.337
0.159,0.053,0.278,-5.337
0.264,0.050,0.278,-5.337
0.268,0.051,0.278,-5.337
0.249,0.052,0.279,-5.337
0.278,0.052,0.275,-5.337
0.227,0.054,0.268,-5.337
0.177,0.054,0.272,-5.337
0.172,0.056,0.277,-5.337
0.186,0.059,0.280,-5.337
0.171,0.058,0.280,-5.337
0.161,0.055,0.281,-5.337
0.237,0.053,0.284,-5.337
0.262,0.054,0.284,-5.337
0.219,0.054,0.280,-5.337
0.136,0.057,0.279,-5.337
0.174,0.056,0.282,-5.337
0.223,0.052,0.280,-5.337
0.197,0.051,0.275,-5.337
0.249,0.051,0.274,-5.337
0.236,0.053,0.278,-5.337
0.155,0.051,0.276,-5.337
0.215,0.048,0.278,-5.337
0.294,0.051,0.278,-5.337
0.203,0.057,0.278,-5.337
0.166,0.055,0.276,-5.337
0.177,0.057,0.278,-5.337
0.232,0.054,0.280,-5.337
0.218,0.056,0.282,-5.337
0.226,0.055,0.281,-5.337
0.229,0.055,0.280,-5.337
0.183,0.059,0.279,-5.337
0.185,0.057,0.283,-5.337
0.193,0.050,0.286,-5.337
0.286,0.048,0.283,-5.337
0.195,0.052,0.276,-5.337
0.092,0.052,0.275,-5.337
0.141,0.049,0.282,-5.337
0.229,0.047,0.284,-5.337
0.248,0.044,0.282,-5.337
0.219,0.048,0.279,-5.337
0.168,0.051,0.274,-5.337
0.183,0.051,0.275,-5.337
0.239,0.049,0.278,-5.337
0.259,0.046,0.280,-5.337
0.192,0.044,0.277,-5.337
0.168,0.040,0.275,-5.337
0.227,0.044,0.275,-5.337
0.230,0.048,0.277,-5.337
0.207,0.048,0.278,-5.337
0.170,0.047,0.282,-5.337
0.224,0.047,0.281,-5.337
0.296,0.044,0.282,-5.337
0.266,0.045,0.282,-5.337
0.188,0.045,0.278,-5.337
0.187,0.042,0.276,-5.337
0.179,0.042,0.278,-5.337
0.136,0.043,0.279,-5.337
0.125,0.042,0.276,-5.337
0.164,0.046,0.278,-5.337
0.190,0.047,0.281,-5.337
0.163,0.047,0.280,-5.337
0.206,0.043,0.281,-5.337
0.249,0.040,0.279,-5.337
0.244,0.041,0.282,-5.337
0.229,0.044,0.282,-5.337
0.165,0.042,0.283,-5.337
0.191,0.039,0.281,-5.337
0.189,0.044,0.280,-5.337
0.132,0.049,0.278,-5.337
0.082,0.048,0.277,-5.337
0.108,0.044,0.277,-5.337
0.230,0.041,0.279,-5.337
0.289,0.040,0.281,-5.337
0.226,0.042,0.279,-5.337
0.197,0.046,0.277,-5.337
0.212,0.047,0.276,-5.337
0.184,0.044,0.275,-5.337
0.159,0.044,0.274,-5.337
0.185,0.045,0.273,-5.337
0.161,0.048,0.277,-5.337
0.099,0.053,0.281,-5.337
0.133,0.053,0.282,-5.337
0.172,0.049,0.281,-5.337
0.178,0.045,0.280,-5.337
0.202,0.045,0.276,-5.337
0.230,0.045,0.271,-5.337
0.229,0.046,0.271,-5.337
0.188,0.048,0.274,-5.337
0.112,0.050,0.277,-5.337
0.169,0.047,0.278,-5.337
0.277,0.044,0.277,-5.337
0.238,0.045,0.276,-5.337
0.115,0.046,0.274,-5.337
0.101,0.044,0.275,-5.337
0.195,0.041,0.280,-5.337
0.188,0.044,0.281,-5.337
0.149,0.042,0.277,-5.337
0.176,0.039,0.275,-5.337
0.197,0.042,0.277,-5.337
0.192,0.043,0.276,-5.337
0.227,0.039,0.274,-5.337
0.212,0.038,0.275,-5.337
0.186,0.040,0.278,-5.337
0.166,0.043,0.281,-5.337
0.166,0.044,0.282,-5.337
0.188,0.044,0.282,-5.337
0.171,0.043,0.280,-5.337
0.152,0.042,0.276,-5.337
0.186,0.033,0.272,-5.337
0.153,0.037,0.274,-5.337
0.144,0.040,0.276,-5.337
0.156,0.040,0.277,-5.337
0.202,0.038,0.278,-5.337
0.232,0.041,0.277,-5.337
0.239,0.040,0.276,-5.337
0.170,0.042,0.277,-5.337
0.061,0.043,0.274,-5.337
0.138,0.039,0.274,-5.337
0.234,0.040,0.275,-5.337
0.209,0.042,0.278,-5.337
0.196,0.039,0.281,-5.337
0.178,0.040,0.281,-5.337
0.120,0.041,0.282,-5.337
0.157,0.041,0.278,-5.337
0.228,0.040,0.276,-5.337
0.231,0.038,0.275,-5.337
0.220,0.040,0.277,-5.337
0.163,0.039,0.274,-5.337
0.188,0.040,0.274,-5.337
0.203,0.037,0.276,-5.337
0.186,0.041,0.279,-5.337
0.162,0.041,0.277,-5.337
0.184,0.042,0.278,-5.337
0.287,0.040,0.280,-5.337
0.287,0.043,0.283,-5.337
0.224,0.044,0.283,-5.337
0.227,0.044,0.281,-5.337
0.199,0.047,0.279,-5.337
0.118,0.050,0.282,-5.337
0.152,0.043,0.282,-5.337
0.146,0.040,0.277,-5.337
0.179,0.038,0.271,-5.337
0.203,0.040,0.273,-5.337
0.226,0.042,0.275,-5.337
0.242,0.042,0.276,-5.337
0.199,0.043,0.275,-5.337
0.203,0.042,0.274,-5.337
0.192,0.040,0.280,-5.337
0.177,0.040,0.280,-5.337
0.215,0.040,0.280,-5.337
0.177,0.041,0.279,-5.337
0.157,0.045,0.278,-5.337
0.155,0.046,0.277,-5.337
0.175,0.045,0.276,-5.337
0.209,0.041,0.274,-5.337
0.153,0.042,0.276,-5.337
0.087,0.046,0.279,-5.337
0.145,0.044,0.278,-5.337
0.212,0.045,0.274,-5.337
0.133,0.046,0.275,-5.337
0.087,0.044,0.275,-5.337
0.091,0.047,0.276,-5.337
0.135,0.044,0.277,-5.337
0.190,0.041,0.275,-5.337
0.207,0.042,0.275,-5.337
0.198,0.043,0.277,-5.337
0.154,0.045,0.277,-5.337
0.139,0.045,0.278,-5.337
0.217,0.041,0.278,-5.337
0.283,0.042,0.275,-5.337
0.237,0.045,0.277,-5.337
0.234,0.042,0.275,-5.337
0.255,0.041,0.274,-5.337
0.184,0.042,0.271,-5.337
0.158,0.042,0.276,-5.337
0.210,0.043,0.276,-5.337
0.203,0.043,0.279,-5.337
0.166,0.041,0.282,-5.337
0.128,0.041,0.282,-5.337
0.102,0.041,0.280,-5.337
0.085,0.045,0.277,-5.337
0.168,0.043,0.277,-5.337
0.149,0.041,0.279,-5.337
0.152,0.042,0.275,-5.337
0.211,0.042,0.271,-5.337
0.198,0.042,0.273,-5.337
0.141,0.041,0.281,-5.337
0.124,0.042,0.283,-5.337
0.153,0.041,0.277,-5.337
0.157,0.044,0.272,-5.337
0.101,0.046,0.273,-5.337
0.106,0.045,0.279,-5.337
0.171,0.043,0.283,-5.337
0.121,0.043,0.283,-5.337
0.177,0.042,0.278,-5.337
0.217,0.042,0.275,-5.337
0.164,0.040,0.280,-5.337
0.119,0.043,0.283,-5.337
0.154,0.042,0.280,-5.337
0.162,0.040,0.273,-5.337
0.115,0.041,0.274,-5.337
0.066,0.043,0.279,-5.337
0.119,0.038,0.279,-5.337
0.176,0.038,0.271,-5.337
0.128,0.040,0.268,-5.337
0.114,0.040,0.275,-5.337
0.143,0.040,0.278,-5.337
0.207,0.042,0.278,-5.337
0.188,0.045,0.282,-5.337
0.154,0.045,0.281,-5.337
0.169,0.040,0.278,-5.337
0.126,0.039,0.276,-5.337
0.103,0.041,0.278,-5.337
0.154,0.045,0.277,-5.337
0.176,0.040,0.277,-5.337
0.217,0.035,0.275,-5.337
0.235,0.037,0.281,-5.337
0.211,0.036,0.282,-5.337
0.263,0.038,0.279,-5.337
0.256,0.040,0.276,-5.337
0.167,0.042,0.275,-5.337
0.136,0.043,0.277,-5.337
0.113,0.043,0.277,-5.337
0.107,0.042,0.278,-5.337
0.129,0.044,0.280,-5.337
0.119,0.044,0.279,-5.337
0.142,0.042,0.279,-5.337
0.176,0.042,0.278,-5.337
0.179,0.044,0.278,-5.337
0.127,0.045,0.277,-5.337
0.155,0.046,0.277,-5.337
0.230,0.042,0.278,-5.337
0.246,0.043,0.278,-5.337
0.181,0.047,0.278,-5.337
0.130,0.053,0.281,-5.337
0.123,0.055,0.281,-5.337
0.171,0.054,0.275,-5.337
0.216,0.054,0.273,-5.337
0.154,0.051,0.272,-5.337
0.184,0.052,0.271,-5.337
0.182,0.055,0.272,-5.337
0.140,0.055,0.276,-5.337
0.118,0.053,0.278,-5.337
0.067,0.051,0.276,-5.337
0.119,0.050,0.276,-5.337
0.200,0.047,0.279,-5.337
0.197,0.051,0.282,-5.337
0.189,0.052,0.284,-5.337
0.113,0.054,0.282,-5.337
0.055,0.058,0.279,-5.337
0.082,0.054,0.282,-5.337
0.132,0.054,0.282,-5.337
0.082,0.054,0.279,-5.337
0.089,0.050,0.278,-5.337
0.177,0.051,0.276,-5.337
0.145,0.054,0.270,-5.337
0.140,0.052,0.274,-5.337
0.167,0.051,0.278,-5.337
0.197,0.051,0.279,-5.337
0.241,0.049,0.276,-5.337
0.262,0.051,0.279,-5.337
0.184,0.056,0.282,-5.337
0.106,0.056,0.281,-5.337
0.110,0.057,0.275,-5.337
0.182,0.053,0.273,-5.337
0.303,0.050,0.278,-5.337
0.250,0.056,0.281,-5.337
0.155,0.058,0.280,-5.337
0.165,0.054,0.277,-5.337
