[Parameters]
Operating Mode, Feedback
Subject  AA..ZZ, WT
Session  0..99, 44
No. Trials (1..9999), 500
Mouse Number, 1
Pressure Probe Serial Port, \00\00\00\04COM4
Save additional csv file, TRUE
Save using mouse number, FALSE
A/D Monitor Rate (Hz), 30000.000000
A/D Stimulate Rate (Hz), 30000.000000
A/D input range (+/- V), 5
No. Channels to acquire (N), 2
Pre-Stim Acq. time (ms), 100.000000
Post-Stim Acq. time (ms), 900.000000
Analysis window parameters.M-response Start (ms), 1.100000
Analysis window parameters.M-response Duration (ms), 5.500000
Analysis window parameters.H-response Duration (ms), 6.000000
Analysis window parameters.H-response Start (ms), 6.500000
Feedback window, H response
Proportional gain, 0.100000
Target value, 6.700000
Feedback Ch., 1
Stim Channel to Control (1-4), 4
Trial, 23
Wait for EMG Conditions, FALSE
Channel to monitor (0 - N-1), 1
EMG Hi Limit, 2.000000
EMG Lo Limit, 0.001000
Inter-Stim delay (sec), 10.000000
EMG Monitor Mode, Mean
Time to run Long Stim.(sec), 30
Save Long Stim Data?, OFF
BURST Save time (ms), 1000
BURST Save Interval (x above), 10
Long-Stim. Rep. Rate (Hz), 10.000000
Stim type cluster array.<size(s)>, 4
Stim type cluster array 0.Stimulus Output, Electrical
Stim type cluster array 1.Stimulus Output, OFF
Stim type cluster array 2.Stimulus Output, OFF
Stim type cluster array 3.Stimulus Output, Motor Length
Stim specs cluster array.<size(s)>, 4
Stim specs cluster array 0.Initial Stimulus ampl., 0.300000
Stim specs cluster array 0.Maximum Stimulus, 1.120000
Stim specs cluster array 0.#Pulses in train, 4
Stim specs cluster array 0.Peak Level time (ms), 1.000000
Stim specs cluster array 0.Total pulse period (ms), 150.000000
Stim specs cluster array 0.Start Delay (ms), -50.000000
Stim specs cluster array 0.Pulse Shape, Square
Stim specs cluster array 0.Ramp/Rel. time (ms), 0.100000
Stim specs cluster array 0.Peak Amplitude (V), 0.120000
Stim specs cluster array 1.Initial Stimulus ampl., 0.000000
Stim specs cluster array 1.Maximum Stimulus, 0.000000
Stim specs cluster array 1.#Pulses in train, 3
Stim specs cluster array 1.Peak Level time (ms), 29.000000
Stim specs cluster array 1.Total pulse period (ms), 200.000000
Stim specs cluster array 1.Start Delay (ms), 0.000000
Stim specs cluster array 1.Pulse Shape, Square
Stim specs cluster array 1.Ramp/Rel. time (ms), 0.000000
Stim specs cluster array 1.Peak Amplitude (V), 2.000000
Stim specs cluster array 2.Initial Stimulus ampl., 0.000000
Stim specs cluster array 2.Maximum Stimulus, 0.000000
Stim specs cluster array 2.#Pulses in train, 1
Stim specs cluster array 2.Peak Level time (ms), 25.000000
Stim specs cluster array 2.Total pulse period (ms), 200.000000
Stim specs cluster array 2.Start Delay (ms), 0.000000
Stim specs cluster array 2.Pulse Shape, Square
Stim specs cluster array 2.Ramp/Rel. time (ms), 20.000000
Stim specs cluster array 2.Peak Amplitude (V), 10.000000
Stim specs cluster array 3.Initial Stimulus ampl., 0.000000
Stim specs cluster array 3.Maximum Stimulus, 15.000000
Stim specs cluster array 3.#Pulses in train, 25
Stim specs cluster array 3.Peak Level time (ms), 0.100000
Stim specs cluster array 3.Total pulse period (ms), 4.000000
Stim specs cluster array 3.Start Delay (ms), 205.000000
Stim specs cluster array 3.Pulse Shape, Triangle
Stim specs cluster array 3.Ramp/Rel. time (ms), 3.000000
Stim specs cluster array 3.Peak Amplitude (V), 0.500000
Force cal. (mN/Volt), 100.000000
Force Range (mN), 100.000000
Length cal. (mm/Volt), 10.000000
Length Range (mm), 10.000000
Stim. 1, 0.300000
Stim. 2, 0.000000
Stim. 3, 0.000000
Stim. 4, 0.000000
Monitor acquire time (ms), 100.000000
EMG graph Ymax, 0.100000
Travel limit (mm), 20.000000
Use Pressure Probe, FALSE
Pressure goal (g), 100
Speed (mm/sec), 5.000000
Dwell time (ms), 100.000000
Pressure limit (g), 500.000000
Channel amplitude offset, 0.000000

[DATA]

0.122,0.042,0.212,-5.337
0.086,0.043,0.211,-5.337
0.147,0.043,0.216,-5.337
0.158,0.045,0.218,-5.337
0.161,0.044,0.215,-5.337
0.150,0.042,0.217,-5.337
0.172,0.039,0.218,-5.337
0.194,0.038,0.216,-5.337
0.182,0.040,0.214,-5.337
0.162,0.043,0.214,-5.337
0.192,0.043,0.214,-5.337
0.169,0.041,0.209,-5.337
0.120,0.042,0.208,-5.337
0.115,0.042,0.210,-5.337
0.145,0.042,0.215,-5.337
0.168,0.046,0.215,-5.337
0.163,0.048,0.216,-5.337
0.166,0.047,0.216,-5.337
0.129,0.046,0.212,-5.337
0.120,0.043,0.210,-5.337
0.154,0.043,0.210,-5.337
0.216,0.040,0.210,-5.337
0.263,0.043,0.213,-5.337
0.247,0.043,0.214,-5.337
0.235,0.042,0.212,-5.337
0.226,0.044,0.213,-5.337
0.223,0.045,0.216,-5.337
0.207,0.043,0.213,-5.337
0.207,0.044,0.212,-5.337
0.217,0.046,0.214,-5.337
0.196,0.049,0.214,-5.337
0.177,0.046,0.213,-5.337
0.159,0.048,0.215,-5.337
0.161,0.050,0.215,-5.337
0.158,0.051,0.214,-5.337
0.171,0.048,0.215,-5.337
0.192,0.046,0.217,-5.337
0.163,0.045,0.217,-5.337
0.168,0.045,0.215,-5.337
0.192,0.045,0.217,-5.337
0.178,0.045,0.215,-5.337
0.187,0.048,0.212,-5.337
0.168,0.049,0.212,-5.337
0.184,0.045,0.213,-5.337
0.262,0.039,0.213,-5.337
0.262,0.039,0.213,-5.337
0.193,0.041,0.211,-5.337
0.153,0.041,0.213,-5.337
0.122,0.040,0.213,-5.337
0.147,0.042,0.211,-5.337
0.196,0.042,0.213,-5.337
0.178,0.041,0.214,-5.337
0.136,0.044,0.216,-5.337
0.190,0.043,0.217,-5.337
0.272,0.037,0.217,-5.337
0.228,0.043,0.213,-5.337
0.210,0.046,0.212,-5.337
0.224,0.045,0.211,-5.337
0.186,0.047,0.211,-5.337
0.117,0.052,0.209,-5.337
0.117,0.055,0.211,-5.337
0.108,0.054,0.211,-5.337
0.099,0.050,0.209,-5.337
0.113,0.047,0.209,-5.337
0.160,0.048,0.213,-5.337
0.213,0.045,0.214,-5.337
0.162,0.041,0.213,-5.337
0.126,0.038,0.212,-5.337
0.145,0.038,0.211,-5.337
0.169,0.040,0.212,-5.337
0.198,0.041,0.217,-5.337
0.197,0.041,0.222,-5.337
0.205,0.041,0.221,-5.337
0.226,0.039,0.214,-5.337
0.249,0.042,0.210,-5.337
0.228,0.042,0.212,-5.337
0.211,0.047,0.212,-5.337
0.278,0.048,0.216,-5.337
0.307,0.048,0.216,-5.337
0.273,0.049,0.218,-5.337
0.212,0.047,0.216,-5.337
0.152,0.047,0.213,-5.337
0.115,0.047,0.215,-5.337
0.166,0.048,0.216,-5.337
0.200,0.048,0.216,-5.337
0.223,0.052,0.213,-5.337
0.223,0.047,0.212,-5.337
0.175,0.047,0.213,-5.337
0.121,0.049,0.213,-5.337
0.196,0.046,0.212,-5.337
0.254,0.042,0.212,-5.337
0.213,0.044,0.214,-5.337
0.167,0.046,0.215,-5.337
0.162,0.047,0.215,-5.337
0.181,0.042,0.213,-5.337
0.161,0.043,0.212,-5.337
0.089,0.046,0.217,-5.337
0.070,0.048,0.220,-5.337
0.113,0.044,0.218,-5.337
0.164,0.041,0.215,-5.337
0.184,0.044,0.213,-5.337
0.190,0.044,0.211,-5.337
0.180,0.046,0.212,-5.337
0.188,0.042,0.212,-5.337
0.212,0.041,0.213,-5.337
0.239,0.041,0.212,-5.337
0.216,0.041,0.210,-5.337
0.171,0.040,0.214,-5.337
0.175,0.039,0.214,-5.337
0.205,0.040,0.210,-5.337
0.205,0.040,0.209,-5.337
0.190,0.042,0.209,-5.337
0.215,0.043,0.209,-5.337
0.238,0.041,0.210,-5.337
0.251,0.041,0.211,-5.337
0.195,0.044,0.214,-5.337
0.182,0.050,0.217,-5.337
0.141,0.054,0.218,-5.337
0.103,0.048,0.217,-5.337
0.111,0.048,0.216,-5.337
0.152,0.049,0.213,-5.337
0.162,0.048,0.213,-5.337
0.150,0.046,0.215,-5.337
0.154,0.048,0.215,-5.337
0.219,0.045,0.211,-5.337
0.235,0.047,0.205,-5.337
0.180,0.048,0.205,-5.337
0.144,0.051,0.213,-5.337
0.168,0.048,0.222,-5.337
0.203,0.046,0.221,-5.337
0.220,0.048,0.218,-5.337
0.238,0.048,0.214,-5.337
0.246,0.046,0.210,-5.337
0.232,0.043,0.210,-5.337
0.249,0.046,0.211,-5.337
0.233,0.048,0.217,-5.337
0.246,0.048,0.218,-5.337
0.248,0.048,0.211,-5.337
0.250,0.047,0.205,-5.337
0.185,0.046,0.205,-5.337
0.132,0.048,0.212,-5.337
0.101,0.053,0.216,-5.337
0.129,0.050,0.217,-5.337
0.182,0.049,0.220,-5.337
0.168,0.051,0.222,-5.337
0.209,0.047,0.216,-5.337
0.242,0.045,0.211,-5.337
0.251,0.049,0.211,-5.337
0.247,0.052,0.214,-5.337
0.227,0.050,0.213,-5.337
0.195,0.053,0.212,-5.337
0.165,0.054,0.209,-5.337
0.171,0.052,0.211,-5.337
0.197,0.048,0.211,-5.337
0.187,0.052,0.214,-5.337
0.166,0.051,0.219,-5.337
0.164,0.053,0.220,-5.337
0.272,0.049,0.215,-5.337
0.299,0.049,0.213,-5.337
0.235,0.050,0.215,-5.337
0.170,0.054,0.216,-5.337
0.125,0.055,0.218,-5.337
0.151,0.054,0.217,-5.337
0.228,0.052,0.212,-5.337
0.238,0.053,0.210,-5.337
0.176,0.056,0.213,-5.337
0.217,0.052,0.216,-5.337
0.230,0.053,0.216,-5.337
0.207,0.052,0.215,-5.337
0.234,0.049,0.215,-5.337
0.230,0.047,0.214,-5.337
0.224,0.047,0.213,-5.337
0.265,0.048,0.210,-5.337
0.236,0.050,0.212,-5.337
0.156,0.055,0.216,-5.337
0.173,0.058,0.219,-5.337
0.212,0.052,0.218,-5.337
0.148,0.054,0.216,-5.337
0.113,0.053,0.214,-5.337
0.163,0.054,0.217,-5.337
0.201,0.053,0.217,-5.337
0.203,0.053,0.218,-5.337
0.180,0.053,0.215,-5.337
0.134,0.057,0.214,-5.337
0.143,0.060,0.215,-5.337
0.220,0.055,0.218,-5.337
0.268,0.052,0.220,-5.337
0.268,0.053,0.218,-5.337
0.266,0.051,0.216,-5.337
0.281,0.052,0.213,-5.337
0.241,0.054,0.211,-5.337
0.174,0.054,0.211,-5.337
0.173,0.054,0.214,-5.337
0.178,0.057,0.215,-5.337
0.170,0.056,0.213,-5.337
0.167,0.053,0.212,-5.337
0.159,0.054,0.214,-5.337
0.172,0.054,0.217,-5.337
0.209,0.054,0.217,-5.337
0.195,0.054,0.218,-5.337
0.157,0.056,0.214,-5.337
0.132,0.056,0.214,-5.337
0.146,0.053,0.216,-5.337
0.160,0.054,0.217,-5.337
0.174,0.057,0.219,-5.337
0.175,0.059,0.220,-5.337
0.160,0.057,0.217,-5.337
0.254,0.054,0.213,-5.337
0.269,0.056,0.214,-5.337
0.183,0.055,0.216,-5.337
0.171,0.053,0.215,-5.337
0.158,0.056,0.215,-5.337
0.200,0.055,0.212,-5.337
0.213,0.055,0.212,-5.337
0.182,0.055,0.215,-5.337
0.131,0.054,0.216,-5.337
0.080,0.057,0.214,-5.337
0.092,0.059,0.215,-5.337
0.170,0.055,0.214,-5.337
0.185,0.056,0.211,-5.337
0.172,0.053,0.207,-5.337
0.153,0.056,0.209,-5.337
0.213,0.057,0.215,-5.337
0.248,0.054,0.217,-5.337
0.232,0.057,0.217,-5.337
0.198,0.059,0.219,-5.337
0.208,0.055,0.216,-5.337
0.184,0.057,0.210,-5.337
0.214,0.057,0.210,-5.337
0.210,0.058,0.211,-5.337
0.175,0.059,0.212,-5.337
0.135,0.059,0.212,-5.337
0.180,0.057,0.212,-5.337
0.250,0.055,0.211,-5.337
0.274,0.055,0.211,-5.337
0.254,0.055,0.210,-5.337
0.216,0.061,0.213,-5.337
0.181,0.063,0.212,-5.337
0.184,0.060,0.212,-5.337
0.190,0.060,0.213,-5.337
0.217,0.060,0.214,-5.337
0.244,0.062,0.215,-5.337
0.216,0.061,0.213,-5.337
0.142,0.059,0.212,-5.337
0.134,0.057,0.212,-5.337
0.178,0.056,0.213,-5.337
0.193,0.056,0.216,-5.337
0.220,0.055,0.214,-5.337
0.186,0.058,0.214,-5.337
0.193,0.060,0.215,-5.337
0.192,0.062,0.212,-5.337
0.186,0.060,0.211,-5.337
0.183,0.060,0.216,-5.337
0.178,0.058,0.216,-5.337
0.213,0.058,0.213,-5.337
0.168,0.059,0.214,-5.337
0.143,0.062,0.210,-5.337
0.170,0.061,0.208,-5.337
0.206,0.059,0.204,-5.337
0.196,0.059,0.206,-5.337
0.194,0.062,0.209,-5.337
0.176,0.062,0.211,-5.337
0.195,0.060,0.214,-5.337
0.225,0.063,0.216,-5.337
0.200,0.060,0.216,-5.337
0.162,0.061,0.214,-5.337
0.211,0.059,0.209,-5.337
0.257,0.055,0.210,-5.337
0.252,0.057,0.214,-5.337
0.203,0.063,0.215,-5.337
0.155,0.058,0.214,-5.337
0.141,0.058,0.213,-5.337
0.194,0.056,0.212,-5.337
0.215,0.056,0.211,-5.337
0.204,0.055,0.213,-5.337
0.255,0.055,0.215,-5.337
0.272,0.054,0.218,-5.337
0.220,0.056,0.215,-5.337
0.166,0.060,0.213,-5.337
0.174,0.060,0.209,-5.337
0.176,0.061,0.208,-5.337
0.176,0.058,0.205,-5.337
0.156,0.062,0.206,-5.337
0.200,0.064,0.208,-5.337
0.198,0.068,0.212,-5.337
0.166,0.067,0.214,-5.337
0.190,0.065,0.211,-5.337
0.157,0.068,0.208,-5.337
0.077,0.073,0.209,-5.337
0.028,0.067,0.207,-5.337
0.062,0.062,0.209,-5.337
0.117,0.062,0.213,-5.337
0.175,0.063,0.215,-5.337
0.214,0.058,0.216,-5.337
0.240,0.056,0.219,-5.337
0.184,0.059,0.216,-5.337
0.109,0.063,0.217,-5.337
0.173,0.061,0.220,-5.337
0.222,0.056,0.216,-5.337
0.183,0.055,0.214,-5.337
0.117,0.057,0.214,-5.337
0.142,0.057,0.213,-5.337
0.189,0.059,0.211,-5.337
0.232,0.059,0.212,-5.337
0.178,0.062,0.215,-5.337
0.150,0.065,0.218,-5.337
0.176,0.064,0.213,-5.337
0.217,0.061,0.210,-5.337
0.201,0.063,0.207,-5.337
0.181,0.063,0.207,-5.337
0.152,0.063,0.208,-5.337
0.164,0.064,0.211,-5.337
0.169,0.062,0.214,-5.337
0.191,0.064,0.215,-5.337
0.139,0.066,0.215,-5.337
0.167,0.061,0.213,-5.337
0.225,0.060,0.210,-5.337
0.157,0.061,0.206,-5.337
0.141,0.063,0.206,-5.337
0.235,0.059,0.212,-5.337
0.266,0.057,0.215,-5.337
0.228,0.061,0.214,-5.337
0.194,0.060,0.217,-5.337
0.205,0.060,0.218,-5.337
0.202,0.063,0.217,-5.337
0.200,0.060,0.213,-5.337
0.167,0.055,0.214,-5.337
0.148,0.056,0.212,-5.337
0.170,0.058,0.214,-5.337
0.208,0.062,0.211,-5.337
0.159,0.066,0.210,-5.337
0.166,0.063,0.213,-5.337
0.194,0.060,0.217,-5.337
0.204,0.059,0.217,-5.337
0.221,0.061,0.215,-5.337
0.206,0.059,0.216,-5.337
0.194,0.061,0.218,-5.337
0.188,0.064,0.219,-5.337
0.185,0.065,0.215,-5.337
0.174,0.063,0.210,-5.337
0.187,0.061,0.211,-5.337
0.258,0.059,0.211,-5.337
0.270,0.059,0.210,-5.337
0.229,0.062,0.210,-5.337
0.220,0.060,0.212,-5.337
0.199,0.061,0.215,-5.337
0.136,0.064,0.217,-5.337
0.099,0.064,0.217,-5.337
0.142,0.060,0.211,-5.337
0.143,0.059,0.213,-5.337
0.142,0.058,0.217,-5.337
0.204,0.058,0.217,-5.337
0.197,0.059,0.215,-5.337
0.176,0.058,0.210,-5.337
0.213,0.053,0.208,-5.337
0.231,0.054,0.211,-5.337
0.208,0.053,0.214,-5.337
0.184,0.057,0.213,-5.337
0.153,0.057,0.212,-5.337
0.125,0.052,0.215,-5.337
0.168,0.050,0.217,-5.337
0.194,0.053,0.218,-5.337
0.158,0.057,0.215,-5.337
0.150,0.057,0.211,-5.337
0.186,0.054,0.213,-5.337
0.208,0.057,0.217,-5.337
0.192,0.058,0.217,-5.337
0.208,0.056,0.213,-5.337
0.242,0.054,0.213,-5.337
0.279,0.051,0.214,-5.337
0.249,0.054,0.215,-5.337
0.196,0.057,0.212,-5.337
0.227,0.053,0.211,-5.337
0.217,0.050,0.213,-5.337
0.156,0.053,0.213,-5.337
0.133,0.053,0.212,-5.337
0.181,0.054,0.210,-5.337
0.176,0.056,0.212,-5.337
0.121,0.056,0.211,-5.337
0.143,0.051,0.215,-5.337
0.149,0.054,0.214,-5.337
0.202,0.054,0.208,-5.337
0.195,0.055,0.209,-5.337
0.118,0.053,0.212,-5.337
0.129,0.053,0.213,-5.337
0.133,0.059,0.213,-5.337
0.113,0.061,0.213,-5.337
0.124,0.058,0.216,-5.337
0.126,0.057,0.216,-5.337
0.160,0.054,0.215,-5.337
0.198,0.054,0.213,-5.337
0.178,0.055,0.212,-5.337
0.156,0.053,0.210,-5.337
0.204,0.052,0.214,-5.337
0.227,0.052,0.217,-5.337
0.205,0.053,0.215,-5.337
0.196,0.052,0.210,-5.337
0.180,0.048,0.212,-5.337
0.207,0.045,0.213,-5.337
0.217,0.053,0.213,-5.337
0.187,0.056,0.213,-5.337
0.208,0.053,0.211,-5.337
0.186,0.056,0.207,-5.337
0.207,0.052,0.206,-5.337
0.226,0.050,0.207,-5.337
0.191,0.051,0.212,-5.337
0.153,0.049,0.214,-5.337
0.166,0.048,0.214,-5.337
0.135,0.051,0.211,-5.337
0.157,0.051,0.210,-5.337
0.172,0.051,0.212,-5.337
0.164,0.049,0.214,-5.337
0.166,0.050,0.218,-5.337
0.156,0.049,0.214,-5.337
0.190,0.051,0.212,-5.337
0.177,0.051,0.209,-5.337
0.143,0.053,0.212,-5.337
0.125,0.055,0.210,-5.337
0.207,0.057,0.208,-5.337
0.282,0.050,0.207,-5.337
0.264,0.050,0.212,-5.337
0.145,0.057,0.215,-5.337
0.121,0.058,0.211,-5.337
0.178,0.053,0.208,-5.337
0.231,0.050,0.209,-5.337
0.213,0.048,0.212,-5.337
0.177,0.049,0.214,-5.337
0.225,0.046,0.215,-5.337
0.277,0.046,0.214,-5.337
0.230,0.044,0.211,-5.337
0.218,0.045,0.208,-5.337
0.153,0.051,0.210,-5.337
0.073,0.052,0.214,-5.337
0.104,0.048,0.218,-5.337
0.222,0.049,0.216,-5.337
0.267,0.047,0.210,-5.337
0.269,0.048,0.209,-5.337
0.253,0.046,0.213,-5.337
0.184,0.047,0.213,-5.337
0.151,0.049,0.210,-5.337
0.208,0.046,0.209,-5.337
0.280,0.044,0.210,-5.337
0.236,0.047,0.211,-5.337
0.216,0.051,0.212,-5.337
0.218,0.050,0.214,-5.337
0.253,0.047,0.213,-5.337
0.268,0.046,0.211,-5.337
0.237,0.048,0.213,-5.337
0.194,0.047,0.214,-5.337
0.187,0.046,0.216,-5.337
0.222,0.041,0.212,-5.337
0.200,0.046,0.210,-5.337
0.172,0.046,0.210,-5.337
0.197,0.043,0.210,-5.337
0.169,0.043,0.217,-5.337
0.143,0.043,0.218,-5.337
0.176,0.043,0.214,-5.337
0.177,0.046,0.209,-5.337
0.168,0.047,0.210,-5.337
0.198,0.046,0.210,-5.337
0.207,0.047,0.213,-5.337
0.180,0.044,0.214,-5.337
0.130,0.048,0.212,-5.337
0.124,0.047,0.209,-5.337
0.150,0.046,0.208,-5.337
0.172,0.043,0.210,-5.337
0.199,0.042,0.213,-5.337
0.198,0.042,0.215,-5.337
0.152,0.044,0.214,-5.337
0.196,0.042,0.214,-5.337
0.227,0.041,0.214,-5.337
0.165,0.046,0.210,-5.337
0.140,0.045,0.210,-5.337
0.188,0.043,0.212,-5.337
0.186,0.045,0.215,-5.337
0.179,0.047,0.213,-5.337
0.144,0.047,0.210,-5.337
0.160,0.044,0.209,-5.337
0.203,0.042,0.206,-5.337
0.219,0.044,0.210,-5.337
0.202,0.047,0.215,-5.337
0.158,0.050,0.221,-5.337
0.144,0.045,0.218,-5.337
0.175,0.042,0.213,-5.337
0.122,0.044,0.210,-5.337
0.115,0.045,0.211,-5.337
0.147,0.043,0.210,-5.337
0.143,0.048,0.211,-5.337
0.188,0.042,0.210,-5.337
0.177,0.036,0.210,-5.337
0.201,0.034,0.211,-5.337
0.230,0.037,0.212,-5.337
0.184,0.039,0.210,-5.337
0.168,0.041,0.210,-5.337
0.151,0.042,0.208,-5.337
0.171,0.042,0.211,-5.337
0.176,0.040,0.212,-5.337
0.205,0.037,0.214,-5.337
0.215,0.040,0.214,-5.337
0.250,0.045,0.211,-5.337
0.194,0.048,0.212,-5.337
0.145,0.046,0.210,-5.337
0.167,0.042,0.210,-5.337
0.235,0.039,0.210,-5.337
0.219,0.042,0.214,-5.337
0.173,0.043,0.212,-5.337
0.156,0.041,0.208,-5.337
0.150,0.044,0.205,-5.337
0.157,0.046,0.206,-5.337
0.172,0.044,0.208,-5.337
0.152,0.044,0.211,-5.337
0.118,0.043,0.210,-5.337
0.108,0.044,0.208,-5.337
0.160,0.044,0.204,-5.337
0.163,0.044,0.203,-5.337
0.114,0.043,0.206,-5.337
0.206,0.042,0.212,-5.337
0.251,0.042,0.215,-5.337
0.180,0.047,0.213,-5.337
0.107,0.047,0.209,-5.337
0.158,0.042,0.206,-5.337
0.219,0.042,0.210,-5.337
0.234,0.046,0.210,-5.337
0.237,0.046,0.210,-5.337
0.220,0.045,0.209,-5.337
0.203,0.044,0.210,-5.337
0.177,0.047,0.210,-5.337
0.188,0.048,0.211,-5.337
0.202,0.047,0.210,-5.337
0.147,0.049,0.212,-5.337
0.162,0.046,0.214,-5.337
0.177,0.043,0.214,-5.337
0.245,0.045,0.210,-5.337
0.279,0.047,0.206,-5.337
0.182,0.047,0.207,-5.337
0.178,0.044,0.212,-5.337
0.235,0.040,0.214,-5.337
0.224,0.042,0.209,-5.337
0.179,0.046,0.205,-5.337
0.190,0.043,0.206,-5.337
0.211,0.045,0.210,-5.337
0.227,0.046,0.211,-5.337
0.215,0.046,0.212,-5.337
0.232,0.044,0.208,-5.337
0.303,0.043,0.203,-5.337
0.268,0.045,0.205,-5.337
0.209,0.049,0.211,-5.337
0.205,0.045,0.211,-5.337
0.236,0.044,0.212,-5.337
0.203,0.049,0.212,-5.337
0.194,0.045,0.214,-5.337
0.237,0.044,0.212,-5.337
0.236,0.041,0.210,-5.337
0.201,0.041,0.207,-5.337
0.170,0.045,0.207,-5.337
0.163,0.043,0.209,-5.337
0.135,0.043,0.210,-5.337
0.134,0.043,0.209,-5.337
0.224,0.042,0.206,-5.337
0.284,0.040,0.205,-5.337
0.233,0.044,0.210,-5.337
0.164,0.044,0.213,-5.337
0.173,0.043,0.216,-5.337
0.147,0.046,0.214,-5.337
0.132,0.046,0.211,-5.337
0.099,0.049,0.209,-5.337
0.149,0.044,0.210,-5.337
0.163,0.042,0.212,-5.337
0.152,0.042,0.209,-5.337
0.153,0.042,0.207,-5.337
0.163,0.043,0.207,-5.337
0.187,0.040,0.209,-5.337
0.211,0.040,0.204,-5.337
0.234,0.043,0.208,-5.337
0.178,0.045,0.210,-5.337
0.169,0.044,0.215,-5.337
0.206,0.041,0.215,-5.337
0.192,0.042,0.210,-5.337
0.167,0.041,0.209,-5.337
0.229,0.042,0.211,-5.337
0.256,0.041,0.209,-5.337
0.245,0.044,0.206,-5.337
0.214,0.044,0.207,-5.337
0.248,0.041,0.211,-5.337
0.246,0.042,0.212,-5.337
0.200,0.042,0.210,-5.337
0.224,0.040,0.210,-5.337
0.243,0.043,0.211,-5.337
0.203,0.039,0.213,-5.337
0.170,0.040,0.211,-5.337
0.176,0.042,0.211,-5.337
0.189,0.040,0.210,-5.337
0.235,0.040,0.212,-5.337
0.198,0.043,0.211,-5.337
0.171,0.043,0.211,-5.337
0.200,0.040,0.212,-5.337
0.247,0.041,0.213,-5.337
0.203,0.045,0.212,-5.337
0.156,0.045,0.212,-5.337
0.214,0.040,0.213,-5.337
0.218,0.043,0.213,-5.337
0.205,0.044,0.210,-5.337
0.216,0.046,0.207,-5.337
0.208,0.046,0.207,-5.337
0.242,0.042,0.212,-5.337
0.226,0.043,0.212,-5.337
0.212,0.046,0.210,-5.337
0.220,0.043,0.207,-5.337
0.231,0.043,0.207,-5.337
0.230,0.043,0.206,-5.337
0.212,0.042,0.210,-5.337
0.214,0.040,0.215,-5.337
0.182,0.045,0.212,-5.337
0.165,0.047,0.211,-5.337
0.155,0.047,0.213,-5.337
0.121,0.046,0.211,-5.337
0.170,0.041,0.209,-5.337
0.211,0.044,0.211,-5.337
0.224,0.044,0.215,-5.337
0.199,0.046,0.215,-5.337
0.190,0.045,0.207,-5.337
0.206,0.047,0.205,-5.337
0.176,0.045,0.207,-5.337
0.176,0.045,0.208,-5.337
0.204,0.046,0.210,-5.337
0.196,0.045,0.214,-5.337
0.176,0.045,0.213,-5.337
0.176,0.045,0.210,-5.337
0.192,0.044,0.211,-5.337
0.228,0.044,0.212,-5.337
0.228,0.042,0.211,-5.337
0.202,0.044,0.213,-5.337
0.186,0.047,0.215,-5.337
0.201,0.046,0.212,-5.337
0.249,0.043,0.211,-5.337
0.237,0.049,0.210,-5.337
0.147,0.051,0.211,-5.337
0.149,0.050,0.211,-5.337
0.160,0.050,0.212,-5.337
0.177,0.048,0.208,-5.337
0.163,0.046,0.208,-5.337
0.195,0.048,0.209,-5.337
0.262,0.045,0.209,-5.337
0.230,0.043,0.207,-5.337
0.201,0.044,0.206,-5.337
0.181,0.046,0.209,-5.337
0.182,0.045,0.213,-5.337
0.193,0.042,0.214,-5.337
0.173,0.044,0.215,-5.337
0.177,0.046,0.212,-5.337
0.179,0.044,0.210,-5.337
0.217,0.041,0.208,-5.337
0.247,0.042,0.209,-5.337
0.202,0.046,0.209,-5.337
0.147,0.049,0.210,-5.337
0.155,0.046,0.212,-5.337
0.156,0.044,0.211,-5.337
0.158,0.045,0.215,-5.337
0.168,0.050,0.217,-5.337
0.133,0.048,0.215,-5.337
0.135,0.047,0.213,-5.337
0.170,0.046,0.207,-5.337
0.191,0.048,0.202,-5.337
0.215,0.049,0.207,-5.337
0.233,0.047,0.211,-5.337
0.216,0.048,0.209,-5.337
0.170,0.051,0.211,-5.337
0.193,0.051,0.210,-5.337
0.239,0.049,0.210,-5.337
0.204,0.053,0.209,-5.337
0.153,0.054,0.207,-5.337
0.171,0.053,0.207,-5.337
0.260,0.050,0.206,-5.337
0.229,0.052,0.207,-5.337
0.155,0.051,0.209,-5.337
0.170,0.048,0.213,-5.337
0.183,0.047,0.215,-5.337
0.212,0.047,0.207,-5.337
0.207,0.050,0.204,-5.337
0.171,0.052,0.210,-5.337
0.226,0.047,0.217,-5.337
0.231,0.048,0.217,-5.337
0.191,0.048,0.216,-5.337
0.220,0.048,0.213,-5.337
0.296,0.046,0.213,-5.337
0.257,0.049,0.214,-5.337
0.201,0.053,0.213,-5.337
0.171,0.054,0.207,-5.337
0.213,0.055,0.204,-5.337
0.248,0.054,0.205,-5.337
0.232,0.056,0.209,-5.337
0.198,0.058,0.214,-5.337
0.174,0.056,0.218,-5.337
0.139,0.056,0.216,-5.337
0.161,0.058,0.213,-5.337
0.200,0.059,0.208,-5.337
0.198,0.057,0.207,-5.337
0.182,0.056,0.212,-5.337
0.146,0.056,0.209,-5.337
0.167,0.056,0.210,-5.337
0.155,0.057,0.213,-5.337
0.141,0.057,0.212,-5.337
0.214,0.057,0.210,-5.337
0.203,0.058,0.211,-5.337
0.195,0.059,0.212,-5.337
0.190,0.058,0.213,-5.337
0.228,0.058,0.211,-5.337
0.211,0.055,0.214,-5.337
0.187,0.052,0.213,-5.337
0.227,0.053,0.212,-5.337
0.234,0.054,0.206,-5.337
0.182,0.054,0.207,-5.337
0.210,0.052,0.212,-5.337
0.199,0.057,0.212,-5.337
0.194,0.058,0.211,-5.337
0.210,0.057,0.210,-5.337
0.210,0.055,0.212,-5.337
0.184,0.060,0.212,-5.337
0.082,0.061,0.217,-5.337
0.073,0.058,0.223,-5.337
0.135,0.056,0.224,-5.337
0.213,0.055,0.218,-5.337
0.228,0.058,0.210,-5.337
0.186,0.060,0.208,-5.337
0.203,0.057,0.208,-5.337
0.237,0.051,0.210,-5.337
0.222,0.051,0.215,-5.337
0.180,0.053,0.217,-5.337
0.197,0.054,0.216,-5.337
0.209,0.054,0.213,-5.337
0.231,0.052,0.210,-5.337
0.221,0.056,0.208,-5.337
0.198,0.062,0.212,-5.337
0.196,0.059,0.211,-5.337
0.201,0.060,0.210,-5.337
0.202,0.059,0.213,-5.337
0.205,0.061,0.214,-5.337
0.203,0.055,0.211,-5.337
0.221,0.054,0.213,-5.337
0.215,0.057,0.216,-5.337
0.246,0.061,0.213,-5.337
0.231,0.059,0.209,-5.337
0.232,0.057,0.210,-5.337
0.238,0.054,0.211,-5.337
0.232,0.056,0.213,-5.337
0.186,0.062,0.216,-5.337
0.171,0.065,0.218,-5.337
0.173,0.061,0.218,-5.337
0.147,0.060,0.211,-5.337
0.158,0.060,0.205,-5.337
0.166,0.061,0.202,-5.337
0.148,0.064,0.206,-5.337
0.209,0.060,0.210,-5.337
0.263,0.061,0.214,-5.337
0.178,0.064,0.217,-5.337
0.157,0.063,0.217,-5.337
0.189,0.055,0.218,-5.337
0.222,0.058,0.215,-5.337
0.253,0.058,0.211,-5.337
0.236,0.060,0.206,-5.337
0.218,0.059,0.205,-5.337
0.239,0.056,0.212,-5.337
0.228,0.058,0.213,-5.337
0.230,0.060,0.212,-5.337
0.185,0.065,0.211,-5.337
0.158,0.066,0.209,-5.337
0.164,0.064,0.210,-5.337
0.161,0.063,0.209,-5.337
0.189,0.061,0.208,-5.337
0.188,0.062,0.208,-5.337
0.201,0.062,0.211,-5.337
0.208,0.061,0.210,-5.337
0.206,0.060,0.213,-5.337
0.187,0.059,0.212,-5.337
0.197,0.058,0.210,-5.337
0.183,0.058,0.206,-5.337
0.157,0.058,0.204,-5.337
0.169,0.059,0.209,-5.337
0.224,0.061,0.214,-5.337
0.209,0.060,0.217,-5.337
0.189,0.060,0.214,-5.337
0.205,0.060,0.210,-5.337
0.230,0.056,0.211,-5.337
0.265,0.054,0.211,-5.337
0.248,0.054,0.212,-5.337
0.171,0.057,0.211,-5.337
0.113,0.058,0.210,-5.337
0.113,0.058,0.208,-5.337
0.157,0.057,0.208,-5.337
0.186,0.059,0.211,-5.337
0.159,0.060,0.212,-5.337
0.178,0.060,0.212,-5.337
0.161,0.064,0.208,-5.337
0.168,0.063,0.208,-5.337
0.200,0.059,0.210,-5.337
0.201,0.061,0.213,-5.337
0.196,0.058,0.209,-5.337
0.177,0.061,0.208,-5.337
0.148,0.063,0.209,-5.337
0.109,0.066,0.212,-5.337
0.064,0.065,0.213,-5.337
0.141,0.064,0.211,-5.337
0.168,0.064,0.207,-5.337
0.144,0.063,0.205,-5.337
0.150,0.060,0.207,-5.337
0.184,0.058,0.208,-5.337
0.215,0.057,0.203,-5.337
0.191,0.060,0.200,-5.337
0.170,0.059,0.202,-5.337
0.159,0.059,0.208,-5.337
0.233,0.057,0.214,-5.337
0.233,0.058,0.217,-5.337
0.183,0.061,0.217,-5.337
0.177,0.059,0.216,-5.337
0.245,0.056,0.212,-5.337
0.204,0.058,0.208,-5.337
0.148,0.063,0.211,-5.337
0.149,0.061,0.216,-5.337
0.234,0.054,0.218,-5.337
0.245,0.049,0.214,-5.337
0.224,0.050,0.212,-5.337
0.162,0.054,0.210,-5.337
0.194,0.055,0.207,-5.337
0.247,0.054,0.204,-5.337
0.231,0.057,0.207,-5.337
0.253,0.056,0.208,-5.337
0.263,0.054,0.206,-5.337
0.236,0.053,0.206,-5.337
0.216,0.055,0.207,-5.337
0.204,0.057,0.210,-5.337
0.251,0.058,0.212,-5.337
0.228,0.059,0.212,-5.337
0.177,0.056,0.211,-5.337
0.175,0.055,0.212,-5.337
0.191,0.056,0.213,-5.337
0.174,0.061,0.215,-5.337
0.161,0.060,0.214,-5.337
0.155,0.056,0.209,-5.337
0.163,0.055,0.202,-5.337
0.113,0.058,0.200,-5.337
0.097,0.055,0.202,-5.337
0.129,0.055,0.209,-5.337
0.115,0.056,0.209,-5.337
0.096,0.054,0.211,-5.337
0.142,0.053,0.209,-5.337
0.164,0.055,0.208,-5.337
0.115,0.054,0.208,-5.337
0.121,0.055,0.209,-5.337
0.157,0.054,0.209,-5.337
0.217,0.056,0.208,-5.337
0.201,0.056,0.210,-5.337
0.111,0.058,0.213,-5.337
0.121,0.059,0.212,-5.337
0.176,0.058,0.210,-5.337
0.208,0.057,0.213,-5.337
0.248,0.055,0.215,-5.337
0.278,0.052,0.216,-5.337
0.279,0.053,0.213,-5.337
0.234,0.057,0.208,-5.337
0.180,0.056,0.206,-5.337
0.188,0.054,0.212,-5.337
0.141,0.056,0.214,-5.337
0.173,0.055,0.214,-5.337
0.205,0.055,0.208,-5.337
0.180,0.054,0.205,-5.337
0.166,0.052,0.205,-5.337
0.151,0.057,0.208,-5.337
0.195,0.051,0.209,-5.337
0.216,0.052,0.210,-5.337
0.189,0.054,0.210,-5.337
0.177,0.056,0.211,-5.337
0.145,0.055,0.214,-5.337
0.193,0.055,0.214,-5.337
0.211,0.054,0.211,-5.337
0.209,0.051,0.213,-5.337
0.198,0.053,0.213,-5.337
0.158,0.057,0.210,-5.337
0.108,0.059,0.208,-5.337
0.167,0.057,0.208,-5.337
0.179,0.055,0.208,-5.337
0.135,0.057,0.213,-5.337
0.142,0.052,0.216,-5.337
0.176,0.054,0.214,-5.337
0.184,0.060,0.212,-5.337
0.200,0.060,0.211,-5.337
0.204,0.057,0.211,-5.337
0.244,0.053,0.210,-5.337
0.226,0.054,0.209,-5.337
0.206,0.053,0.208,-5.337
0.177,0.053,0.206,-5.337
0.097,0.052,0.206,-5.337
0.113,0.053,0.209,-5.337
0.158,0.050,0.213,-5.337
0.214,0.049,0.215,-5.337
0.183,0.048,0.212,-5.337
0.180,0.047,0.210,-5.337
0.162,0.050,0.211,-5.337
0.136,0.053,0.213,-5.337
0.103,0.053,0.210,-5.337
0.082,0.053,0.208,-5.337
0.114,0.050,0.213,-5.337
0.193,0.045,0.213,-5.337
0.252,0.045,0.211,-5.337
0.228,0.046,0.210,-5.337
0.207,0.046,0.213,-5.337
0.210,0.047,0.210,-5.337
0.197,0.047,0.210,-5.337
0.172,0.049,0.208,-5.337
0.147,0.052,0.209,-5.337
0.137,0.049,0.208,-5.337
0.167,0.050,0.208,-5.337
0.181,0.053,0.210,-5.337
0.197,0.050,0.212,-5.337
0.236,0.045,0.213,-5.337
0.216,0.048,0.215,-5.337
0.189,0.051,0.214,-5.337
0.170,0.052,0.207,-5.337
0.139,0.054,0.205,-5.337
0.180,0.052,0.208,-5.337
0.234,0.049,0.212,-5.337
0.188,0.054,0.213,-5.337
0.095,0.056,0.212,-5.337
0.142,0.049,0.212,-5.337
0.186,0.048,0.211,-5.337
0.183,0.049,0.207,-5.337
0.181,0.048,0.205,-5.337
0.175,0.048,0.208,-5.337
0.129,0.049,0.213,-5.337
0.148,0.049,0.215,-5.337
0.162,0.049,0.215,-5.337
0.187,0.047,0.208,-5.337
0.184,0.047,0.206,-5.337
0.191,0.043,0.206,-5.337
0.190,0.045,0.209,-5.337
0.155,0.047,0.210,-5.337
0.111,0.047,0.209,-5.337
0.152,0.044,0.205,-5.337
0.126,0.046,0.204,-5.337
0.104,0.045,0.205,-5.337
0.205,0.046,0.211,-5.337
0.249,0.047,0.213,-5.337
0.201,0.047,0.210,-5.337
0.196,0.044,0.210,-5.337
0.212,0.046,0.209,-5.337
0.214,0.043,0.208,-5.337
0.165,0.043,0.207,-5.337
0.167,0.044,0.210,-5.337
0.211,0.043,0.212,-5.337
0.174,0.044,0.214,-5.337
0.159,0.047,0.213,-5.337
0.166,0.044,0.211,-5.337
0.187,0.039,0.207,-5.337
0.242,0.041,0.209,-5.337
0.234,0.043,0.215,-5.337
0.219,0.048,0.216,-5.337
0.257,0.043,0.214,-5.337
0.247,0.042,0.211,-5.337
0.184,0.046,0.210,-5.337
0.160,0.047,0.212,-5.337
0.211,0.042,0.212,-5.337
0.153,0.044,0.213,-5.337
0.197,0.046,0.211,-5.337
0.186,0.048,0.207,-5.337
0.084,0.049,0.209,-5.337
0.076,0.045,0.209,-5.337
0.120,0.043,0.208,-5.337
0.127,0.040,0.213,-5.337
0.131,0.040,0.216,-5.337
0.163,0.042,0.213,-5.337
0.157,0.045,0.211,-5.337
0.148,0.046,0.214,-5.337
0.210,0.043,0.216,-5.337
0.239,0.044,0.212,-5.337
0.199,0.045,0.208,-5.337
0.177,0.045,0.205,-5.337
0.221,0.044,0.208,-5.337
0.246,0.045,0.207,-5.337
0.209,0.048,0.210,-5.337
0.216,0.046,0.213,-5.337
0.258,0.044,0.211,-5.337
0.214,0.047,0.212,-5.337
0.178,0.051,0.212,-5.337
0.171,0.052,0.210,-5.337
0.141,0.048,0.210,-5.337
0.149,0.046,0.214,-5.337
0.190,0.046,0.215,-5.337
0.214,0.048,0.211,-5.337
0.275,0.045,0.208,-5.337
0.255,0.041,0.211,-5.337
0.148,0.042,0.217,-5.337
0.134,0.043,0.216,-5.337
0.185,0.043,0.216,-5.337
0.219,0.045,0.217,-5.337
0.232,0.043,0.214,-5.337
0.230,0.040,0.211,-5.337
0.191,0.042,0.212,-5.337
0.161,0.044,0.213,-5.337
0.144,0.047,0.211,-5.337
0.158,0.047,0.213,-5.337
0.176,0.046,0.212,-5.337
0.180,0.046,0.211,-5.337
0.219,0.043,0.210,-5.337
0.221,0.047,0.210,-5.337
0.192,0.047,0.207,-5.337
0.141,0.051,0.206,-5.337
0.092,0.051,0.208,-5.337
0.146,0.049,0.211,-5.337
0.156,0.044,0.216,-5.337
0.199,0.043,0.217,-5.337
0.175,0.045,0.212,-5.337
0.123,0.046,0.211,-5.337
0.140,0.045,0.210,-5.337
0.139,0.046,0.213,-5.337
0.121,0.045,0.214,-5.337
0.142,0.040,0.212,-5.337
0.173,0.037,0.208,-5.337
0.220,0.041,0.204,-5.337
0.190,0.045,0.205,-5.337
0.155,0.044,0.210,-5.337
0.145,0.047,0.214,-5.337
0.158,0.044,0.215,-5.337
0.133,0.042,0.215,-5.337
0.134,0.043,0.211,-5.337
0.195,0.043,0.207,-5.337
0.202,0.043,0.206,-5.337
0.144,0.045,0.207,-5.337
0.136,0.043,0.209,-5.337
0.148,0.045,0.215,-5.337
0.176,0.039,0.218,-5.337
0.240,0.035,0.219,-5.337
0.227,0.039,0.215,-5.337
0.213,0.041,0.211,-5.337
0.266,0.037,0.211,-5.337
0.243,0.039,0.209,-5.337
0.181,0.040,0.207,-5.337
0.199,0.037,0.207,-5.337
0.220,0.038,0.210,-5.337
0.263,0.037,0.213,-5.337
0.245,0.039,0.214,-5.337
0.196,0.039,0.213,-5.337
0.140,0.041,0.214,-5.337
0.164,0.040,0.211,-5.337
0.229,0.037,0.209,-5.337
0.259,0.038,0.203,-5.337
0.180,0.041,0.204,-5.337
0.108,0.039,0.207,-5.337
0.165,0.039,0.209,-5.337
0.201,0.037,0.211,-5.337
0.191,0.038,0.208,-5.337
0.201,0.038,0.207,-5.337
0.161,0.041,0.209,-5.337
0.153,0.044,0.211,-5.337
0.180,0.045,0.213,-5.337
0.183,0.043,0.209,-5.337
0.209,0.038,0.207,-5.337
0.179,0.043,0.210,-5.337
0.237,0.041,0.211,-5.337
0.295,0.039,0.209,-5.337
0.249,0.040,0.207,-5.337
0.161,0.043,0.210,-5.337
0.171,0.044,0.214,-5.337
0.246,0.041,0.217,-5.337
0.280,0.038,0.214,-5.337
0.238,0.039,0.209,-5.337
0.165,0.040,0.207,-5.337
0.173,0.040,0.211,-5.337
0.283,0.039,0.213,-5.337
0.266,0.041,0.214,-5.337
0.245,0.039,0.211,-5.337
0.244,0.041,0.210,-5.337
0.166,0.042,0.211,-5.337
0.095,0.044,0.212,-5.337
0.104,0.040,0.212,-5.337
0.170,0.043,0.211,-5.337
0.208,0.042,0.205,-5.337
0.189,0.044,0.201,-5.337
0.168,0.046,0.204,-5.337
0.219,0.043,0.207,-5.337
0.205,0.042,0.209,-5.337
0.127,0.047,0.211,-5.337
0.154,0.049,0.214,-5.337
0.182,0.048,0.212,-5.337
0.159,0.046,0.209,-5.337
0.179,0.043,0.208,-5.337
0.226,0.041,0.209,-5.337
0.259,0.040,0.207,-5.337
0.204,0.042,0.208,-5.337
0.167,0.045,0.211,-5.337
0.179,0.044,0.213,-5.337
0.227,0.041,0.210,-5.337
0.223,0.047,0.208,-5.337
0.151,0.051,0.209,-5.337
0.137,0.046,0.208,-5.337
0.133,0.039,0.207,-5.337
0.169,0.037,0.209,-5.337
0.231,0.041,0.209,-5.337
0.268,0.043,0.207,-5.337
0.299,0.040,0.207,-5.337
0.305,0.045,0.209,-5.337
0.260,0.048,0.211,-5.337
0.220,0.046,0.214,-5.337
0.223,0.041,0.216,-5.337
0.196,0.044,0.212,-5.337
0.168,0.047,0.208,-5.337
0.201,0.049,0.210,-5.337
0.228,0.047,0.214,-5.337
0.159,0.048,0.214,-5.337
0.139,0.048,0.216,-5.337
0.187,0.047,0.211,-5.337
0.221,0.047,0.206,-5.337
0.221,0.045,0.205,-5.337
0.212,0.045,0.207,-5.337
0.205,0.047,0.205,-5.337
0.223,0.047,0.206,-5.337
0.198,0.049,0.211,-5.337
0.169,0.048,0.214,-5.337
0.168,0.044,0.213,-5.337
0.160,0.045,0.211,-5.337
0.219,0.046,0.209,-5.337
0.221,0.045,0.211,-5.337
0.245,0.044,0.212,-5.337
0.231,0.047,0.211,-5.337
0.200,0.049,0.210,-5.337
0.188,0.052,0.212,-5.337
0.135,0.050,0.213,-5.337
0.176,0.047,0.209,-5.337
0.219,0.048,0.210,-5.337
0.180,0.050,0.213,-5.337
0.133,0.051,0.212,-5.337
0.138,0.049,0.210,-5.337
0.200,0.045,0.212,-5.337
0.244,0.045,0.210,-5.337
0.268,0.046,0.203,-5.337
0.267,0.044,0.202,-5.337
0.179,0.047,0.209,-5.337
0.145,0.049,0.213,-5.337
0.121,0.050,0.214,-5.337
0.125,0.051,0.212,-5.337
0.160,0.052,0.210,-5.337
0.186,0.052,0.209,-5.337
0.191,0.052,0.211,-5.337
0.163,0.052,0.210,-5.337
0.091,0.054,0.212,-5.337
0.129,0.052,0.215,-5.337
0.234,0.051,0.214,-5.337
0.336,0.050,0.212,-5.337
0.315,0.055,0.213,-5.337
0.236,0.054,0.214,-5.337
0.235,0.052,0.211,-5.337
0.257,0.048,0.212,-5.337
0.236,0.047,0.210,-5.337
0.239,0.047,0.208,-5.337
0.237,0.051,0.206,-5.337
0.239,0.054,0.209,-5.337
0.186,0.052,0.209,-5.337
0.142,0.051,0.209,-5.337
0.144,0.051,0.210,-5.337
0.158,0.052,0.210,-5.337
0.149,0.053,0.207,-5.337
0.175,0.055,0.208,-5.337
0.190,0.053,0.215,-5.337
0.180,0.052,0.217,-5.337
0.161,0.051,0.215,-5.337
0.133,0.055,0.211,-5.337
0.125,0.057,0.208,-5.337
0.110,0.054,0.208,-5.337
0.133,0.053,0.209,-5.337
0.122,0.055,0.213,-5.337
0.106,0.054,0.214,-5.337
0.114,0.053,0.214,-5.337
0.190,0.054,0.216,-5.337
0.176,0.056,0.215,-5.337
0.162,0.054,0.212,-5.337
0.206,0.054,0.208,-5.337
0.231,0.052,0.210,-5.337
0.238,0.054,0.209,-5.337
0.185,0.055,0.209,-5.337
0.151,0.056,0.209,-5.337
0.177,0.058,0.211,-5.337
0.223,0.056,0.212,-5.337
0.247,0.059,0.211,-5.337
0.196,0.061,0.209,-5.337
0.161,0.061,0.211,-5.337
0.212,0.052,0.212,-5.337
0.265,0.052,0.206,-5.337
0.226,0.055,0.204,-5.337
0.206,0.057,0.206,-5.337
0.239,0.056,0.207,-5.337
0.218,0.056,0.210,-5.337
0.204,0.058,0.215,-5.337
0.190,0.057,0.215,-5.337
0.220,0.056,0.213,-5.337
0.233,0.056,0.210,-5.337
0.191,0.056,0.209,-5.337
0.194,0.053,0.212,-5.337
0.217,0.054,0.215,-5.337
0.211,0.052,0.215,-5.337
0.186,0.055,0.212,-5.337
0.119,0.059,0.204,-5.337
0.136,0.056,0.208,-5.337
0.198,0.054,0.211,-5.337
0.175,0.056,0.210,-5.337
0.168,0.057,0.209,-5.337
0.212,0.057,0.210,-5.337
0.264,0.055,0.207,-5.337
0.238,0.058,0.207,-5.337
0.209,0.056,0.209,-5.337
0.197,0.059,0.213,-5.337
0.208,0.060,0.215,-5.337
0.256,0.058,0.213,-5.337
0.230,0.055,0.209,-5.337
0.191,0.057,0.208,-5.337
0.189,0.056,0.212,-5.337
0.242,0.055,0.216,-5.337
0.216,0.056,0.217,-5.337
0.159,0.058,0.213,-5.337
0.181,0.060,0.211,-5.337
0.198,0.059,0.213,-5.337
0.176,0.059,0.213,-5.337
0.153,0.057,0.214,-5.337
0.157,0.056,0.217,-5.337
0.106,0.060,0.213,-5.337
0.101,0.061,0.210,-5.337
0.207,0.055,0.207,-5.337
0.237,0.054,0.205,-5.337
0.206,0.056,0.209,-5.337
0.176,0.058,0.213,-5.337
0.207,0.057,0.211,-5.337
0.226,0.058,0.213,-5.337
0.226,0.056,0.214,-5.337
0.223,0.056,0.212,-5.337
0.237,0.059,0.210,-5.337
0.244,0.058,0.209,-5.337
0.239,0.057,0.208,-5.337
0.238,0.058,0.210,-5.337
0.226,0.058,0.212,-5.337
0.179,0.059,0.211,-5.337
0.218,0.058,0.211,-5.337
0.282,0.055,0.208,-5.337
0.241,0.055,0.207,-5.337
0.224,0.054,0.209,-5.337
0.223,0.056,0.212,-5.337
0.203,0.059,0.216,-5.337
0.152,0.061,0.218,-5.337
0.170,0.058,0.213,-5.337
0.216,0.057,0.209,-5.337
0.229,0.055,0.208,-5.337
0.228,0.057,0.213,-5.337
0.206,0.058,0.215,-5.337
0.180,0.059,0.213,-5.337
0.150,0.063,0.211,-5.337
0.191,0.061,0.210,-5.337
0.256,0.057,0.210,-5.337
0.215,0.058,0.211,-5.337
0.193,0.058,0.212,-5.337
0.182,0.061,0.211,-5.337
0.232,0.059,0.210,-5.337
0.244,0.057,0.211,-5.337
0.202,0.059,0.212,-5.337
0.201,0.062,0.212,-5.337
0.256,0.059,0.214,-5.337
0.333,0.058,0.214,-5.337
0.323,0.059,0.215,-5.337
0.231,0.063,0.213,-5.337
0.122,0.066,0.215,-5.337
0.146,0.062,0.216,-5.337
0.170,0.058,0.214,-5.337
0.199,0.057,0.210,-5.337
0.175,0.060,0.210,-5.337
0.158,0.064,0.205,-5.337
0.163,0.068,0.207,-5.337
0.186,0.065,0.210,-5.337
0.185,0.061,0.215,-5.337
0.247,0.054,0.217,-5.337
0.249,0.060,0.216,-5.337
0.172,0.066,0.212,-5.337
0.140,0.066,0.207,-5.337
0.139,0.064,0.205,-5.337
0.159,0.063,0.208,-5.337
0.193,0.059,0.209,-5.337
0.200,0.061,0.209,-5.337
0.120,0.064,0.208,-5.337
0.127,0.061,0.210,-5.337
0.205,0.060,0.212,-5.337
0.177,0.061,0.210,-5.337
0.137,0.058,0.210,-5.337
0.196,0.053,0.211,-5.337
0.235,0.053,0.212,-5.337
0.226,0.058,0.210,-5.337
0.191,0.061,0.213,-5.337
0.135,0.060,0.212,-5.337
0.144,0.058,0.213,-5.337
0.226,0.053,0.214,-5.337
0.220,0.055,0.216,-5.337
0.181,0.059,0.216,-5.337
0.215,0.057,0.213,-5.337
0.271,0.054,0.210,-5.337
0.202,0.058,0.209,-5.337
0.150,0.061,0.209,-5.337
0.204,0.055,0.211,-5.337
0.261,0.051,0.212,-5.337
0.242,0.052,0.213,-5.337
0.221,0.053,0.217,-5.337
0.156,0.059,0.218,-5.337
0.148,0.058,0.214,-5.337
0.149,0.058,0.210,-5.337
0.177,0.056,0.209,-5.337
0.190,0.053,0.211,-5.337
0.213,0.058,0.213,-5.337
0.168,0.062,0.211,-5.337
0.081,0.059,0.211,-5.337
0.112,0.054,0.211,-5.337
0.170,0.053,0.210,-5.337
0.150,0.055,0.206,-5.337
0.204,0.057,0.208,-5.337
0.239,0.057,0.212,-5.337
0.221,0.057,0.215,-5.337
0.240,0.053,0.212,-5.337
0.251,0.054,0.209,-5.337
0.170,0.057,0.208,-5.337
0.166,0.059,0.207,-5.337
0.198,0.057,0.208,-5.337
0.172,0.056,0.214,-5.337
0.220,0.057,0.215,-5.337
0.262,0.052,0.216,-5.337
0.274,0.050,0.214,-5.337
0.211,0.055,0.210,-5.337
0.190,0.055,0.210,-5.337
0.210,0.056,0.211,-5.337
0.160,0.059,0.211,-5.337
0.162,0.058,0.208,-5.337
0.143,0.057,0.209,-5.337
0.118,0.056,0.211,-5.337
0.132,0.054,0.215,-5.337
0.168,0.053,0.211,-5.337
0.237,0.050,0.211,-5.337
0.237,0.055,0.212,-5.337
0.212,0.056,0.212,-5.337
0.227,0.055,0.213,-5.337
0.148,0.058,0.214,-5.337
0.116,0.058,0.210,-5.337
0.122,0.058,0.207,-5.337
0.148,0.054,0.210,-5.337
0.149,0.053,0.212,-5.337
0.142,0.055,0.213,-5.337
0.190,0.055,0.214,-5.337
0.224,0.054,0.210,-5.337
0.217,0.054,0.208,-5.337
0.145,0.057,0.207,-5.337
0.160,0.057,0.206,-5.337
0.145,0.059,0.204,-5.337
0.106,0.057,0.207,-5.337
0.142,0.054,0.211,-5.337
0.178,0.049,0.209,-5.337
0.201,0.048,0.210,-5.337
0.187,0.051,0.213,-5.337
0.167,0.051,0.216,-5.337
0.145,0.050,0.210,-5.337
0.195,0.050,0.205,-5.337
0.208,0.046,0.205,-5.337
0.138,0.050,0.209,-5.337
0.130,0.050,0.212,-5.337
0.134,0.050,0.212,-5.337
0.149,0.050,0.213,-5.337
0.144,0.057,0.212,-5.337
0.161,0.054,0.211,-5.337
0.209,0.050,0.211,-5.337
0.234,0.050,0.208,-5.337
0.216,0.055,0.211,-5.337
0.159,0.057,0.208,-5.337
0.169,0.052,0.205,-5.337
0.208,0.049,0.207,-5.337
0.110,0.052,0.209,-5.337
0.113,0.049,0.212,-5.337
0.249,0.047,0.213,-5.337
0.304,0.048,0.212,-5.337
0.220,0.051,0.211,-5.337
0.178,0.051,0.211,-5.337
0.175,0.052,0.209,-5.337
0.155,0.051,0.211,-5.337
0.138,0.051,0.212,-5.337
0.178,0.052,0.212,-5.337
0.181,0.053,0.212,-5.337
0.135,0.052,0.213,-5.337
0.147,0.046,0.216,-5.337
0.174,0.049,0.218,-5.337
0.195,0.050,0.215,-5.337
0.213,0.047,0.211,-5.337
0.167,0.050,0.208,-5.337
0.174,0.052,0.210,-5.337
0.222,0.048,0.211,-5.337
0.256,0.045,0.211,-5.337
0.216,0.048,0.209,-5.337
0.144,0.054,0.208,-5.337
0.141,0.051,0.212,-5.337
0.225,0.045,0.214,-5.337
0.285,0.041,0.212,-5.337
0.206,0.048,0.209,-5.337
0.121,0.052,0.207,-5.337
0.112,0.050,0.208,-5.337
0.151,0.048,0.213,-5.337
0.166,0.045,0.214,-5.337
0.143,0.048,0.216,-5.337
0.145,0.048,0.213,-5.337
0.173,0.047,0.212,-5.337
0.189,0.043,0.209,-5.337
0.175,0.045,0.211,-5.337
0.206,0.043,0.209,-5.337
0.212,0.040,0.210,-5.337
0.188,0.039,0.211,-5.337
0.112,0.044,0.210,-5.337
0.096,0.046,0.210,-5.337
0.119,0.046,0.213,-5.337
0.135,0.045,0.210,-5.337
0.198,0.042,0.213,-5.337
0.168,0.047,0.216,-5.337
0.157,0.048,0.212,-5.337
0.192,0.042,0.211,-5.337
0.236,0.043,0.213,-5.337
0.251,0.045,0.214,-5.337
0.241,0.042,0.212,-5.337
0.228,0.039,0.209,-5.337
0.228,0.040,0.210,-5.337
0.221,0.043,0.214,-5.337
0.182,0.045,0.214,-5.337
0.162,0.045,0.212,-5.337
0.188,0.045,0.208,-5.337
0.180,0.047,0.207,-5.337
0.159,0.047,0.209,-5.337
0.175,0.044,0.207,-5.337
0.147,0.042,0.206,-5.337
0.126,0.044,0.207,-5.337
0.171,0.043,0.208,-5.337
0.207,0.038,0.210,-5.337
0.195,0.038,0.215,-5.337
0.192,0.040,0.216,-5.337
0.230,0.037,0.212,-5.337
0.242,0.036,0.208,-5.337
0.260,0.038,0.204,-5.337
0.223,0.040,0.205,-5.337
0.220,0.036,0.211,-5.337
0.238,0.040,0.216,-5.337
0.219,0.044,0.219,-5.337
0.191,0.043,0.217,-5.337
0.171,0.044,0.215,-5.337
0.174,0.041,0.215,-5.337
0.164,0.040,0.216,-5.337
0.121,0.044,0.214,-5.337
0.092,0.044,0.211,-5.337
0.102,0.044,0.208,-5.337
0.175,0.042,0.203,-5.337
0.191,0.044,0.202,-5.337
0.087,0.046,0.207,-5.337
0.088,0.044,0.214,-5.337
0.183,0.039,0.215,-5.337
0.264,0.039,0.214,-5.337
0.189,0.040,0.213,-5.337
0.097,0.040,0.214,-5.337
0.162,0.041,0.216,-5.337
0.246,0.039,0.213,-5.337
0.244,0.039,0.207,-5.337
0.175,0.041,0.213,-5.337
0.131,0.043,0.214,-5.337
0.175,0.040,0.214,-5.337
0.228,0.037,0.211,-5.337
0.229,0.037,0.208,-5.337
0.221,0.038,0.207,-5.337
0.198,0.039,0.205,-5.337
0.164,0.041,0.201,-5.337
0.128,0.043,0.207,-5.337
0.177,0.042,0.212,-5.337
0.173,0.041,0.219,-5.337
0.204,0.041,0.220,-5.337
0.218,0.044,0.216,-5.337
0.190,0.042,0.212,-5.337
0.201,0.040,0.209,-5.337
0.245,0.041,0.206,-5.337
0.265,0.044,0.207,-5.337
0.213,0.050,0.209,-5.337
0.159,0.048,0.209,-5.337
0.147,0.046,0.208,-5.337
0.131,0.046,0.209,-5.337
0.141,0.047,0.212,-5.337
0.170,0.046,0.212,-5.337
0.188,0.046,0.212,-5.337
0.228,0.044,0.213,-5.337
0.221,0.044,0.215,-5.337
0.207,0.045,0.216,-5.337
0.161,0.047,0.212,-5.337
0.163,0.044,0.209,-5.337
0.213,0.042,0.209,-5.337
0.212,0.046,0.214,-5.337
0.157,0.051,0.216,-5.337
0.155,0.048,0.216,-5.337
0.102,0.047,0.216,-5.337
0.108,0.047,0.215,-5.337
0.195,0.042,0.213,-5.337
0.251,0.042,0.209,-5.337
0.196,0.045,0.208,-5.337
0.145,0.042,0.211,-5.337
0.188,0.043,0.215,-5.337
0.219,0.045,0.214,-5.337
0.198,0.045,0.210,-5.337
0.187,0.045,0.209,-5.337
0.227,0.044,0.208,-5.337
0.247,0.041,0.210,-5.337
0.190,0.045,0.212,-5.337
0.119,0.047,0.213,-5.337
0.124,0.045,0.216,-5.337
0.180,0.043,0.218,-5.337
0.225,0.042,0.217,-5.337
0.251,0.045,0.215,-5.337
0.242,0.042,0.211,-5.337
0.222,0.042,0.212,-5.337
0.205,0.045,0.211,-5.337
0.207,0.045,0.209,-5.337
0.232,0.040,0.208,-5.337
0.233,0.040,0.211,-5.337
0.206,0.044,0.214,-5.337
0.222,0.044,0.216,-5.337
0.202,0.044,0.212,-5.337
0.155,0.047,0.207,-5.337
0.171,0.046,0.203,-5.337
0.182,0.048,0.205,-5.337
0.164,0.049,0.212,-5.337
0.181,0.051,0.216,-5.337
0.207,0.047,0.215,-5.337
0.198,0.046,0.214,-5.337
0.168,0.047,0.214,-5.337
0.171,0.047,0.215,-5.337
0.185,0.047,0.216,-5.337
0.198,0.049,0.217,-5.337
0.149,0.049,0.218,-5.337
0.176,0.047,0.216,-5.337
0.216,0.044,0.216,-5.337
0.265,0.040,0.214,-5.337
0.250,0.042,0.213,-5.337
0.214,0.047,0.208,-5.337
0.217,0.050,0.208,-5.337
0.283,0.045,0.209,-5.337
0.260,0.043,0.207,-5.337
0.179,0.045,0.210,-5.337
0.211,0.047,0.215,-5.337
0.232,0.045,0.213,-5.337
0.254,0.045,0.207,-5.337
0.245,0.045,0.206,-5.337
0.226,0.047,0.209,-5.337
0.204,0.048,0.213,-5.337
0.186,0.047,0.217,-5.337
0.220,0.044,0.217,-5.337
0.189,0.046,0.215,-5.337
0.132,0.048,0.214,-5.337
0.167,0.047,0.213,-5.337
0.234,0.042,0.213,-5.337
0.248,0.041,0.210,-5.337
0.176,0.043,0.208,-5.337
0.143,0.045,0.209,-5.337
0.177,0.046,0.213,-5.337
0.153,0.046,0.210,-5.337
0.118,0.044,0.211,-5.337
0.158,0.042,0.211,-5.337
0.164,0.045,0.210,-5.337
0.182,0.042,0.210,-5.337
0.245,0.042,0.213,-5.337
0.284,0.044,0.213,-5.337
0.213,0.048,0.212,-5.337
0.173,0.045,0.214,-5.337
0.192,0.042,0.217,-5.337
0.213,0.044,0.214,-5.337
0.249,0.049,0.211,-5.337
0.207,0.050,0.210,-5.337
0.121,0.051,0.208,-5.337
0.120,0.051,0.208,-5.337
0.209,0.049,0.212,-5.337
0.267,0.050,0.216,-5.337
0.231,0.048,0.214,-5.337
0.228,0.041,0.211,-5.337
0.233,0.044,0.207,-5.337
0.240,0.047,0.206,-5.337
0.231,0.046,0.206,-5.337
0.202,0.047,0.210,-5.337
0.204,0.044,0.211,-5.337
0.194,0.045,0.211,-5.337
0.220,0.044,0.210,-5.337
0.255,0.044,0.211,-5.337
0.220,0.046,0.212,-5.337
0.188,0.047,0.214,-5.337
0.187,0.048,0.212,-5.337
0.197,0.050,0.210,-5.337
0.166,0.053,0.213,-5.337
0.144,0.050,0.211,-5.337
0.183,0.050,0.207,-5.337
0.213,0.047,0.208,-5.337
0.213,0.043,0.211,-5.337
0.217,0.042,0.213,-5.337
0.242,0.042,0.213,-5.337
0.285,0.046,0.209,-5.337
0.194,0.053,0.211,-5.337
0.114,0.053,0.212,-5.337
0.148,0.051,0.215,-5.337
0.216,0.047,0.213,-5.337
0.248,0.048,0.208,-5.337
0.209,0.048,0.210,-5.337
0.213,0.048,0.213,-5.337
0.215,0.049,0.213,-5.337
0.195,0.051,0.211,-5.337
0.157,0.048,0.211,-5.337
0.189,0.047,0.213,-5.337
0.244,0.046,0.212,-5.337
0.298,0.045,0.210,-5.337
0.265,0.047,0.211,-5.337
0.220,0.046,0.214,-5.337
0.153,0.047,0.215,-5.337
0.151,0.048,0.214,-5.337
0.190,0.047,0.212,-5.337
0.207,0.047,0.210,-5.337
0.251,0.044,0.209,-5.337
0.244,0.041,0.210,-5.337
0.268,0.038,0.213,-5.337
0.284,0.043,0.210,-5.337
0.173,0.051,0.208,-5.337
0.118,0.049,0.204,-5.337
0.146,0.051,0.205,-5.337
0.195,0.048,0.207,-5.337
0.194,0.046,0.214,-5.337
0.211,0.043,0.215,-5.337
0.230,0.047,0.214,-5.337
0.211,0.049,0.208,-5.337
0.201,0.049,0.206,-5.337
0.214,0.045,0.208,-5.337
0.191,0.047,0.208,-5.337
0.145,0.049,0.208,-5.337
0.139,0.051,0.210,-5.337
0.202,0.047,0.210,-5.337
0.201,0.047,0.212,-5.337
0.215,0.042,0.212,-5.337
0.217,0.043,0.212,-5.337
0.219,0.043,0.212,-5.337
0.233,0.042,0.213,-5.337
0.252,0.043,0.213,-5.337
0.237,0.044,0.217,-5.337
0.208,0.046,0.220,-5.337
0.145,0.047,0.216,-5.337
0.203,0.046,0.210,-5.337
0.185,0.051,0.205,-5.337
0.188,0.051,0.207,-5.337
0.219,0.051,0.208,-5.337
0.217,0.050,0.215,-5.337
0.197,0.052,0.217,-5.337
0.184,0.049,0.213,-5.337
0.215,0.047,0.207,-5.337
0.245,0.051,0.209,-5.337
0.219,0.052,0.211,-5.337
0.226,0.050,0.212,-5.337
0.237,0.050,0.211,-5.337
0.219,0.052,0.210,-5.337
0.179,0.053,0.211,-5.337
0.186,0.051,0.212,-5.337
0.212,0.049,0.215,-5.337
0.230,0.052,0.211,-5.337
0.252,0.053,0.208,-5.337
0.212,0.055,0.210,-5.337
0.167,0.056,0.212,-5.337
0.175,0.054,0.210,-5.337
0.189,0.052,0.210,-5.337
0.153,0.056,0.210,-5.337
0.129,0.052,0.210,-5.337
0.183,0.047,0.210,-5.337
0.205,0.048,0.214,-5.337
0.225,0.047,0.215,-5.337
0.227,0.049,0.213,-5.337
0.176,0.054,0.213,-5.337
0.205,0.055,0.214,-5.337
0.298,0.050,0.211,-5.337
0.217,0.051,0.207,-5.337
0.142,0.054,0.210,-5.337
0.218,0.055,0.212,-5.337
0.227,0.059,0.213,-5.337
0.110,0.060,0.214,-5.337
0.051,0.059,0.216,-5.337
0.124,0.058,0.217,-5.337
0.218,0.055,0.213,-5.337
0.254,0.054,0.210,-5.337
0.217,0.053,0.209,-5.337
0.180,0.052,0.209,-5.337
0.241,0.052,0.207,-5.337
0.216,0.054,0.209,-5.337
0.124,0.056,0.208,-5.337
0.098,0.055,0.208,-5.337
0.126,0.056,0.209,-5.337
0.166,0.053,0.211,-5.337
0.206,0.053,0.215,-5.337
0.216,0.053,0.211,-5.337
0.233,0.052,0.208,-5.337
0.276,0.052,0.207,-5.337
0.248,0.056,0.213,-5.337
0.209,0.058,0.214,-5.337
0.180,0.059,0.213,-5.337
0.223,0.055,0.211,-5.337
0.209,0.054,0.211,-5.337
0.227,0.051,0.209,-5.337
0.233,0.054,0.210,-5.337
0.238,0.056,0.210,-5.337
0.230,0.054,0.211,-5.337
0.233,0.056,0.214,-5.337
0.207,0.061,0.213,-5.337
0.182,0.061,0.210,-5.337
0.219,0.057,0.208,-5.337
0.263,0.056,0.206,-5.337
0.210,0.060,0.206,-5.337
0.154,0.063,0.207,-5.337
0.179,0.062,0.210,-5.337
0.196,0.062,0.213,-5.337
0.188,0.062,0.215,-5.337
0.180,0.060,0.215,-5.337
0.199,0.059,0.213,-5.337
0.211,0.059,0.215,-5.337
0.191,0.058,0.214,-5.337
0.183,0.060,0.210,-5.337
0.204,0.058,0.210,-5.337
0.168,0.056,0.210,-5.337
0.153,0.055,0.213,-5.337
0.165,0.055,0.212,-5.337
0.232,0.055,0.210,-5.337
0.206,0.057,0.212,-5.337
0.156,0.057,0.213,-5.337
0.206,0.053,0.212,-5.337
0.195,0.056,0.211,-5.337
0.127,0.059,0.210,-5.337
0.145,0.057,0.209,-5.337
0.229,0.054,0.208,-5.337
0.238,0.056,0.209,-5.337
0.198,0.060,0.209,-5.337
0.159,0.063,0.210,-5.337
0.172,0.059,0.213,-5.337
0.168,0.058,0.215,-5.337
0.150,0.060,0.212,-5.337
0.135,0.060,0.210,-5.337
0.187,0.059,0.210,-5.337
0.206,0.061,0.211,-5.337
0.189,0.060,0.212,-5.337
0.245,0.054,0.212,-5.337
0.293,0.053,0.210,-5.337
0.272,0.057,0.208,-5.337
0.221,0.056,0.207,-5.337
0.220,0.056,0.209,-5.337
0.242,0.056,0.209,-5.337
0.244,0.056,0.208,-5.337
0.207,0.056,0.205,-5.337
0.198,0.052,0.206,-5.337
0.204,0.051,0.210,-5.337
0.163,0.059,0.213,-5.337
0.163,0.061,0.214,-5.337
0.130,0.057,0.215,-5.337
0.122,0.056,0.217,-5.337
0.147,0.055,0.214,-5.337
0.162,0.053,0.213,-5.337
0.190,0.054,0.213,-5.337
0.217,0.053,0.212,-5.337
0.250,0.052,0.211,-5.337
0.211,0.055,0.216,-5.337
0.157,0.059,0.215,-5.337
0.105,0.061,0.212,-5.337
0.153,0.056,0.210,-5.337
0.195,0.056,0.208,-5.337
0.214,0.058,0.206,-5.337
0.227,0.060,0.210,-5.337
0.221,0.059,0.214,-5.337
0.194,0.060,0.215,-5.337
0.182,0.059,0.212,-5.337
0.190,0.055,0.214,-5.337
0.187,0.056,0.211,-5.337
0.219,0.058,0.210,-5.337
0.190,0.059,0.211,-5.337
0.168,0.060,0.213,-5.337
0.211,0.059,0.212,-5.337
0.223,0.061,0.213,-5.337
0.198,0.059,0.211,-5.337
0.141,0.058,0.211,-5.337
0.146,0.058,0.217,-5.337
0.207,0.058,0.215,-5.337
0.215,0.056,0.209,-5.337
0.214,0.057,0.208,-5.337
0.202,0.059,0.212,-5.337
0.199,0.057,0.209,-5.337
0.223,0.059,0.207,-5.337
0.195,0.059,0.204,-5.337
0.190,0.061,0.207,-5.337
0.174,0.058,0.215,-5.337
0.176,0.059,0.212,-5.337
0.171,0.060,0.208,-5.337
0.158,0.058,0.210,-5.337
0.171,0.057,0.211,-5.337
0.213,0.059,0.214,-5.337
0.237,0.060,0.216,-5.337
0.215,0.056,0.216,-5.337
0.206,0.056,0.214,-5.337
0.195,0.058,0.208,-5.337
0.167,0.063,0.207,-5.337
0.194,0.062,0.210,-5.337
0.254,0.059,0.213,-5.337
0.253,0.055,0.214,-5.337
0.201,0.055,0.216,-5.337
0.191,0.056,0.213,-5.337
0.158,0.058,0.210,-5.337
0.128,0.058,0.210,-5.337
0.166,0.061,0.210,-5.337
0.190,0.059,0.207,-5.337
0.245,0.052,0.210,-5.337
0.279,0.054,0.212,-5.337
0.207,0.061,0.212,-5.337
0.212,0.061,0.210,-5.337
0.245,0.063,0.211,-5.337
0.246,0.064,0.214,-5.337
0.227,0.064,0.215,-5.337
0.207,0.063,0.213,-5.337
0.183,0.061,0.212,-5.337
0.133,0.062,0.207,-5.337
0.111,0.060,0.204,-5.337
0.187,0.059,0.206,-5.337
0.232,0.060,0.214,-5.337
0.250,0.060,0.215,-5.337
0.209,0.058,0.210,-5.337
0.205,0.059,0.210,-5.337
0.166,0.061,0.210,-5.337
0.178,0.062,0.210,-5.337
0.204,0.061,0.208,-5.337
0.245,0.059,0.210,-5.337
0.256,0.060,0.213,-5.337
0.210,0.065,0.214,-5.337
0.104,0.066,0.215,-5.337
0.091,0.064,0.217,-5.337
0.154,0.060,0.214,-5.337
0.211,0.064,0.208,-5.337
0.168,0.064,0.205,-5.337
0.155,0.063,0.207,-5.337
0.221,0.057,0.212,-5.337
0.226,0.056,0.214,-5.337
0.142,0.058,0.211,-5.337
0.153,0.059,0.209,-5.337
0.188,0.056,0.211,-5.337
0.231,0.056,0.213,-5.337
0.209,0.056,0.211,-5.337
0.176,0.058,0.206,-5.337
0.162,0.059,0.205,-5.337
0.167,0.056,0.203,-5.337
0.140,0.062,0.206,-5.337
0.122,0.064,0.210,-5.337
0.141,0.061,0.214,-5.337
0.210,0.059,0.210,-5.337
0.198,0.059,0.213,-5.337
0.144,0.060,0.215,-5.337
0.148,0.062,0.216,-5.337
0.155,0.057,0.216,-5.337
0.161,0.057,0.217,-5.337
0.203,0.053,0.214,-5.337
0.235,0.052,0.211,-5.337
0.211,0.053,0.210,-5.337
0.190,0.053,0.206,-5.337
0.272,0.049,0.204,-5.337
0.264,0.051,0.207,-5.337
0.180,0.055,0.215,-5.337
0.100,0.057,0.218,-5.337
0.164,0.055,0.216,-5.337
0.262,0.054,0.214,-5.337
0.224,0.060,0.214,-5.337
0.131,0.058,0.210,-5.337
0.207,0.053,0.208,-5.337
0.231,0.049,0.207,-5.337
0.216,0.051,0.207,-5.337
0.224,0.050,0.209,-5.337
0.234,0.051,0.211,-5.337
0.202,0.054,0.209,-5.337
0.162,0.057,0.210,-5.337
0.131,0.057,0.209,-5.337
0.122,0.054,0.211,-5.337
0.166,0.054,0.211,-5.337
0.158,0.057,0.211,-5.337
0.130,0.057,0.215,-5.337
0.043,0.060,0.215,-5.337
0.067,0.057,0.213,-5.337
0.174,0.053,0.209,-5.337
0.231,0.052,0.203,-5.337
0.220,0.053,0.205,-5.337
0.157,0.055,0.211,-5.337
0.088,0.059,0.214,-5.337
0.111,0.056,0.212,-5.337
0.189,0.055,0.208,-5.337
0.214,0.057,0.207,-5.337
0.208,0.060,0.207,-5.337
0.154,0.061,0.207,-5.337
0.107,0.062,0.209,-5.337
0.181,0.053,0.212,-5.337
0.292,0.048,0.211,-5.337
0.274,0.052,0.210,-5.337
0.224,0.053,0.207,-5.337
0.210,0.053,0.205,-5.337
0.197,0.052,0.204,-5.337
0.130,0.052,0.206,-5.337
0.108,0.051,0.211,-5.337
0.166,0.051,0.209,-5.337
0.198,0.045,0.209,-5.337
0.219,0.042,0.212,-5.337
0.214,0.041,0.215,-5.337
0.161,0.045,0.217,-5.337
0.133,0.049,0.218,-5.337
0.108,0.045,0.211,-5.337
0.147,0.042,0.204,-5.337
0.157,0.043,0.205,-5.337
0.155,0.042,0.206,-5.337
0.144,0.042,0.204,-5.337
0.167,0.044,0.207,-5.337
0.195,0.047,0.210,-5.337
0.181,0.046,0.213,-5.337
0.200,0.046,0.216,-5.337
0.214,0.047,0.215,-5.337
0.206,0.047,0.211,-5.337
0.224,0.045,0.213,-5.337
0.189,0.050,0.211,-5.337
0.107,0.049,0.206,-5.337
0.158,0.045,0.204,-5.337
0.199,0.046,0.207,-5.337
0.169,0.046,0.210,-5.337
0.128,0.050,0.210,-5.337
0.142,0.050,0.206,-5.337
0.196,0.045,0.207,-5.337
0.183,0.043,0.210,-5.337
0.176,0.044,0.209,-5.337
0.155,0.041,0.208,-5.337
0.158,0.038,0.208,-5.337
0.214,0.037,0.208,-5.337
0.200,0.041,0.211,-5.337
0.170,0.043,0.215,-5.337
0.170,0.045,0.215,-5.337
0.197,0.043,0.212,-5.337
0.228,0.041,0.211,-5.337
0.195,0.045,0.213,-5.337
0.182,0.043,0.211,-5.337
0.249,0.042,0.210,-5.337
0.224,0.042,0.208,-5.337
0.151,0.046,0.210,-5.337
0.117,0.043,0.209,-5.337
0.120,0.047,0.212,-5.337
0.183,0.046,0.212,-5.337
0.230,0.045,0.212,-5.337
0.203,0.042,0.210,-5.337
0.154,0.043,0.213,-5.337
0.134,0.042,0.214,-5.337
0.160,0.043,0.211,-5.337
0.202,0.047,0.207,-5.337
0.146,0.045,0.210,-5.337
0.129,0.046,0.213,-5.337
0.110,0.047,0.213,-5.337
0.131,0.043,0.212,-5.337
0.176,0.044,0.213,-5.337
0.214,0.043,0.215,-5.337
0.179,0.044,0.212,-5.337
0.133,0.044,0.208,-5.337
0.148,0.043,0.205,-5.337
0.221,0.043,0.208,-5.337
0.214,0.043,0.210,-5.337
0.146,0.040,0.210,-5.337
0.146,0.039,0.209,-5.337
0.187,0.039,0.211,-5.337
0.188,0.038,0.210,-5.337
0.130,0.042,0.209,-5.337
0.159,0.040,0.206,-5.337
0.226,0.037,0.202,-5.337
0.202,0.040,0.204,-5.337
0.177,0.042,0.209,-5.337
0.212,0.040,0.215,-5.337
0.188,0.041,0.216,-5.337
0.125,0.042,0.212,-5.337
0.129,0.040,0.208,-5.337
0.133,0.042,0.209,-5.337
0.201,0.041,0.210,-5.337
0.220,0.041,0.210,-5.337
0.199,0.040,0.211,-5.337
0.166,0.039,0.213,-5.337
0.143,0.039,0.210,-5.337
0.175,0.039,0.212,-5.337
0.160,0.041,0.211,-5.337
0.128,0.045,0.213,-5.337
0.145,0.041,0.210,-5.337
0.165,0.039,0.211,-5.337
0.121,0.041,0.214,-5.337
0.119,0.042,0.211,-5.337
0.155,0.041,0.209,-5.337
0.189,0.040,0.210,-5.337
0.218,0.037,0.210,-5.337
0.214,0.037,0.207,-5.337
0.213,0.035,0.201,-5.337
0.185,0.036,0.200,-5.337
0.193,0.039,0.203,-5.337
0.250,0.038,0.207,-5.337
0.258,0.033,0.213,-5.337
0.202,0.035,0.214,-5.337
0.151,0.037,0.212,-5.337
0.152,0.041,0.211,-5.337
0.208,0.040,0.212,-5.337
0.191,0.039,0.213,-5.337
0.217,0.043,0.213,-5.337
0.235,0.043,0.212,-5.337
0.224,0.043,0.212,-5.337
0.212,0.040,0.212,-5.337
0.180,0.042,0.216,-5.337
0.161,0.042,0.212,-5.337
0.162,0.045,0.205,-5.337
0.180,0.040,0.205,-5.337
0.237,0.041,0.212,-5.337
0.229,0.042,0.213,-5.337
0.179,0.043,0.212,-5.337
0.196,0.042,0.214,-5.337
0.236,0.042,0.218,-5.337
0.174,0.041,0.216,-5.337
0.155,0.037,0.211,-5.337
0.186,0.035,0.205,-5.337
0.180,0.041,0.203,-5.337
0.146,0.043,0.210,-5.337
0.200,0.037,0.217,-5.337
0.236,0.038,0.218,-5.337
0.182,0.046,0.215,-5.337
0.131,0.047,0.213,-5.337
0.149,0.042,0.212,-5.337
0.161,0.042,0.214,-5.337
0.184,0.043,0.213,-5.337
0.202,0.043,0.212,-5.337
0.200,0.041,0.210,-5.337
0.192,0.038,0.213,-5.337
0.229,0.035,0.214,-5.337
0.255,0.035,0.211,-5.337
0.264,0.037,0.207,-5.337
0.214,0.038,0.209,-5.337
0.172,0.042,0.214,-5.337
0.166,0.042,0.215,-5.337
0.217,0.036,0.211,-5.337
0.214,0.037,0.210,-5.337
0.215,0.037,0.210,-5.337
0.164,0.037,0.208,-5.337
0.142,0.039,0.210,-5.337
0.224,0.039,0.213,-5.337
0.214,0.039,0.211,-5.337
0.144,0.041,0.211,-5.337
0.138,0.043,0.212,-5.337
0.122,0.045,0.212,-5.337
0.137,0.046,0.213,-5.337
0.159,0.048,0.216,-5.337
0.221,0.045,0.217,-5.337
0.204,0.046,0.214,-5.337
0.160,0.046,0.212,-5.337
0.155,0.046,0.207,-5.337
0.145,0.048,0.209,-5.337
0.185,0.043,0.211,-5.337
0.164,0.043,0.215,-5.337
0.147,0.046,0.216,-5.337
0.174,0.044,0.212,-5.337
0.264,0.038,0.207,-5.337
0.261,0.036,0.208,-5.337
0.242,0.039,0.212,-5.337
0.186,0.046,0.214,-5.337
0.147,0.048,0.214,-5.337
0.125,0.044,0.215,-5.337
0.154,0.043,0.213,-5.337
0.173,0.044,0.211,-5.337
0.174,0.044,0.209,-5.337
0.202,0.044,0.209,-5.337
0.173,0.041,0.210,-5.337
0.186,0.038,0.210,-5.337
0.186,0.038,0.212,-5.337
0.166,0.039,0.213,-5.337
0.206,0.038,0.215,-5.337
0.221,0.039,0.214,-5.337
0.241,0.039,0.213,-5.337
0.292,0.040,0.207,-5.337
0.297,0.042,0.206,-5.337
0.234,0.041,0.208,-5.337
0.190,0.042,0.211,-5.337
0.177,0.042,0.213,-5.337
0.167,0.044,0.209,-5.337
0.168,0.042,0.209,-5.337
0.155,0.043,0.212,-5.337
0.154,0.042,0.211,-5.337
0.189,0.043,0.212,-5.337
0.142,0.045,0.215,-5.337
0.086,0.047,0.217,-5.337
0.115,0.045,0.212,-5.337
0.199,0.047,0.211,-5.337
0.219,0.043,0.213,-5.337
0.183,0.044,0.213,-5.337
0.164,0.043,0.211,-5.337
0.161,0.043,0.210,-5.337
0.198,0.041,0.214,-5.337
0.197,0.044,0.212,-5.337
0.220,0.045,0.210,-5.337
0.260,0.041,0.210,-5.337
0.209,0.038,0.211,-5.337
0.198,0.039,0.208,-5.337
0.207,0.045,0.207,-5.337
0.196,0.049,0.211,-5.337
0.205,0.048,0.214,-5.337
0.214,0.044,0.212,-5.337
0.244,0.043,0.211,-5.337
0.264,0.044,0.211,-5.337
0.186,0.046,0.212,-5.337
0.196,0.044,0.210,-5.337
0.268,0.044,0.211,-5.337
0.246,0.043,0.208,-5.337
0.191,0.042,0.210,-5.337
0.219,0.039,0.214,-5.337
0.222,0.039,0.216,-5.337
0.187,0.041,0.216,-5.337
0.189,0.042,0.214,-5.337
0.247,0.040,0.211,-5.337
0.246,0.038,0.208,-5.337
0.213,0.042,0.208,-5.337
0.187,0.041,0.210,-5.337
0.206,0.043,0.214,-5.337
0.279,0.044,0.213,-5.337
0.299,0.044,0.214,-5.337
0.226,0.044,0.212,-5.337
0.185,0.049,0.206,-5.337
0.152,0.044,0.206,-5.337
0.154,0.043,0.210,-5.337
0.206,0.043,0.212,-5.337
0.267,0.044,0.215,-5.337
0.285,0.043,0.216,-5.337
0.248,0.043,0.216,-5.337
0.222,0.047,0.217,-5.337
0.175,0.050,0.216,-5.337
0.181,0.046,0.215,-5.337
0.240,0.043,0.212,-5.337
0.226,0.044,0.211,-5.337
0.219,0.049,0.209,-5.337
0.233,0.047,0.214,-5.337
0.248,0.043,0.214,-5.337
0.233,0.043,0.213,-5.337
0.147,0.044,0.212,-5.337
0.148,0.041,0.214,-5.337
0.178,0.045,0.212,-5.337
0.167,0.048,0.213,-5.337
0.145,0.047,0.213,-5.337
0.175,0.046,0.215,-5.337
0.228,0.043,0.215,-5.337
0.213,0.040,0.210,-5.337
0.173,0.042,0.207,-5.337
0.241,0.040,0.209,-5.337
0.277,0.043,0.214,-5.337
0.227,0.048,0.213,-5.337
0.204,0.048,0.213,-5.337
0.207,0.047,0.213,-5.337
0.189,0.049,0.212,-5.337
0.207,0.047,0.211,-5.337
0.227,0.041,0.208,-5.337
0.240,0.043,0.208,-5.337
0.205,0.047,0.210,-5.337
0.185,0.047,0.209,-5.337
0.186,0.049,0.212,-5.337
0.152,0.052,0.214,-5.337
0.167,0.050,0.211,-5.337
0.200,0.044,0.209,-5.337
0.183,0.042,0.210,-5.337
0.153,0.043,0.209,-5.337
0.185,0.042,0.211,-5.337
0.187,0.043,0.209,-5.337
0.199,0.046,0.208,-5.337
0.210,0.049,0.207,-5.337
0.193,0.050,0.210,-5.337
0.172,0.047,0.215,-5.337
0.206,0.046,0.217,-5.337
0.230,0.048,0.216,-5.337
0.241,0.045,0.215,-5.337
0.240,0.043,0.214,-5.337
0.237,0.044,0.214,-5.337
0.244,0.048,0.209,-5.337
0.190,0.049,0.205,-5.337
0.235,0.049,0.206,-5.337
0.272,0.050,0.209,-5.337
0.276,0.050,0.212,-5.337
0.258,0.051,0.214,-5.337
0.237,0.051,0.217,-5.337
0.197,0.052,0.215,-5.337
0.195,0.052,0.215,-5.337
0.214,0.048,0.213,-5.337
0.248,0.046,0.214,-5.337
0.197,0.049,0.211,-5.337
0.166,0.051,0.213,-5.337
0.218,0.046,0.214,-5.337
0.238,0.044,0.212,-5.337
0.243,0.047,0.209,-5.337
0.292,0.047,0.205,-5.337
0.273,0.045,0.206,-5.337
0.195,0.048,0.210,-5.337
0.201,0.049,0.213,-5.337
0.220,0.049,0.214,-5.337
0.226,0.047,0.212,-5.337
0.223,0.043,0.211,-5.337
0.264,0.044,0.210,-5.337
0.261,0.047,0.210,-5.337
0.199,0.049,0.213,-5.337
0.208,0.049,0.216,-5.337
0.287,0.047,0.217,-5.337
0.234,0.048,0.216,-5.337
0.162,0.048,0.212,-5.337
0.189,0.051,0.207,-5.337
0.213,0.049,0.205,-5.337
0.204,0.049,0.210,-5.337
0.146,0.053,0.216,-5.337
0.215,0.050,0.217,-5.337
0.232,0.049,0.217,-5.337
0.180,0.053,0.212,-5.337
0.216,0.051,0.208,-5.337
0.163,0.054,0.207,-5.337
0.177,0.053,0.209,-5.337
0.244,0.050,0.211,-5.337
0.254,0.052,0.213,-5.337
0.223,0.052,0.218,-5.337
0.271,0.052,0.218,-5.337
0.254,0.053,0.214,-5.337
0.210,0.055,0.208,-5.337
0.173,0.053,0.205,-5.337
0.217,0.051,0.205,-5.337
0.222,0.052,0.208,-5.337
0.164,0.053,0.212,-5.337
0.147,0.056,0.216,-5.337
0.152,0.055,0.215,-5.337
0.117,0.059,0.213,-5.337
0.153,0.056,0.213,-5.337
0.213,0.051,0.212,-5.337
0.246,0.049,0.205,-5.337
0.197,0.052,0.203,-5.337
0.110,0.059,0.206,-5.337
0.084,0.058,0.212,-5.337
0.153,0.052,0.216,-5.337
0.187,0.050,0.217,-5.337
0.167,0.052,0.216,-5.337
0.219,0.052,0.218,-5.337
0.186,0.054,0.218,-5.337
0.171,0.051,0.213,-5.337
0.243,0.049,0.207,-5.337
0.248,0.050,0.207,-5.337
0.147,0.054,0.210,-5.337
0.091,0.055,0.214,-5.337
0.154,0.055,0.217,-5.337
0.200,0.052,0.215,-5.337
0.269,0.048,0.211,-5.337
0.273,0.051,0.207,-5.337
0.245,0.052,0.207,-5.337
0.208,0.054,0.206,-5.337
0.207,0.052,0.207,-5.337
0.231,0.053,0.209,-5.337
0.234,0.056,0.213,-5.337
0.183,0.058,0.211,-5.337
0.166,0.059,0.210,-5.337
0.168,0.059,0.211,-5.337
0.153,0.057,0.211,-5.337
0.170,0.054,0.211,-5.337
0.222,0.058,0.210,-5.337
0.178,0.059,0.210,-5.337
0.130,0.059,0.211,-5.337
0.158,0.056,0.212,-5.337
0.207,0.054,0.215,-5.337
0.262,0.054,0.215,-5.337
0.229,0.057,0.215,-5.337
0.174,0.061,0.211,-5.337
0.123,0.064,0.208,-5.337
0.126,0.060,0.208,-5.337
0.154,0.057,0.211,-5.337
0.217,0.055,0.213,-5.337
0.250,0.059,0.214,-5.337
0.185,0.063,0.214,-5.337
0.080,0.066,0.214,-5.337
0.119,0.062,0.214,-5.337
0.198,0.060,0.213,-5.337
0.237,0.060,0.213,-5.337
0.210,0.063,0.211,-5.337
0.125,0.065,0.205,-5.337
0.182,0.062,0.205,-5.337
0.268,0.063,0.208,-5.337
0.253,0.060,0.210,-5.337
0.264,0.055,0.212,-5.337
0.258,0.056,0.215,-5.337
0.210,0.057,0.216,-5.337
0.180,0.057,0.215,-5.337
0.204,0.057,0.213,-5.337
0.239,0.056,0.213,-5.337
0.213,0.059,0.214,-5.337
0.168,0.064,0.217,-5.337
0.158,0.062,0.219,-5.337
0.206,0.057,0.216,-5.337
0.194,0.057,0.214,-5.337
0.183,0.057,0.213,-5.337
0.145,0.058,0.211,-5.337
0.151,0.056,0.213,-5.337
0.198,0.053,0.211,-5.337
0.180,0.060,0.210,-5.337
0.215,0.055,0.210,-5.337
0.208,0.057,0.212,-5.337
0.233,0.055,0.212,-5.337
0.259,0.056,0.214,-5.337
0.208,0.056,0.216,-5.337
0.207,0.058,0.216,-5.337
0.187,0.060,0.212,-5.337
0.142,0.060,0.209,-5.337
0.154,0.053,0.208,-5.337
0.194,0.056,0.213,-5.337
0.249,0.054,0.215,-5.337
0.261,0.054,0.214,-5.337
0.192,0.055,0.209,-5.337
0.135,0.055,0.209,-5.337
0.223,0.052,0.209,-5.337
0.258,0.056,0.213,-5.337
0.187,0.061,0.216,-5.337
0.153,0.059,0.214,-5.337
0.209,0.059,0.213,-5.337
0.203,0.056,0.214,-5.337
0.162,0.055,0.216,-5.337
0.161,0.057,0.214,-5.337
0.207,0.055,0.210,-5.337
0.210,0.055,0.208,-5.337
0.165,0.057,0.210,-5.337
0.149,0.057,0.211,-5.337
0.142,0.058,0.212,-5.337
0.190,0.057,0.210,-5.337
0.254,0.057,0.209,-5.337
0.297,0.055,0.211,-5.337
0.264,0.055,0.213,-5.337
0.194,0.056,0.214,-5.337
0.208,0.057,0.215,-5.337
0.222,0.057,0.215,-5.337
0.176,0.060,0.217,-5.337
0.124,0.060,0.219,-5.337
0.189,0.057,0.216,-5.337
0.274,0.058,0.211,-5.337
0.230,0.061,0.210,-5.337
0.190,0.061,0.211,-5.337
0.226,0.055,0.211,-5.337
0.220,0.053,0.212,-5.337
0.197,0.055,0.214,-5.337
0.260,0.057,0.213,-5.337
0.242,0.056,0.208,-5.337
0.198,0.055,0.209,-5.337
0.227,0.056,0.208,-5.337
0.229,0.052,0.206,-5.337
0.161,0.055,0.209,-5.337
0.080,0.058,0.214,-5.337
0.146,0.056,0.214,-5.337
0.173,0.055,0.213,-5.337
0.143,0.055,0.212,-5.337
0.148,0.054,0.214,-5.337
0.125,0.056,0.214,-5.337
0.141,0.053,0.213,-5.337
0.153,0.049,0.213,-5.337
0.153,0.052,0.213,-5.337
0.206,0.055,0.213,-5.337
0.202,0.054,0.213,-5.337
0.175,0.052,0.215,-5.337
0.184,0.053,0.215,-5.337
0.180,0.055,0.212,-5.337
0.216,0.053,0.211,-5.337
0.280,0.051,0.213,-5.337
0.293,0.049,0.214,-5.337
0.255,0.053,0.213,-5.337
0.195,0.061,0.207,-5.337
0.123,0.064,0.206,-5.337
0.096,0.060,0.207,-5.337
0.118,0.060,0.212,-5.337
0.145,0.061,0.215,-5.337
0.124,0.062,0.213,-5.337
0.140,0.058,0.211,-5.337
0.152,0.057,0.206,-5.337
0.197,0.054,0.205,-5.337
0.209,0.054,0.208,-5.337
0.210,0.053,0.212,-5.337
0.235,0.052,0.217,-5.337
0.245,0.051,0.220,-5.337
0.168,0.052,0.216,-5.337
0.136,0.050,0.211,-5.337
0.189,0.052,0.213,-5.337
0.204,0.054,0.214,-5.337
0.204,0.052,0.214,-5.337
0.192,0.053,0.214,-5.337
0.206,0.050,0.212,-5.337
0.189,0.049,0.212,-5.337
0.184,0.049,0.211,-5.337
0.180,0.045,0.211,-5.337
0.207,0.048,0.213,-5.337
0.225,0.050,0.220,-5.337
0.147,0.049,0.220,-5.337
0.165,0.050,0.215,-5.337
0.165,0.048,0.211,-5.337
0.142,0.047,0.208,-5.337
0.205,0.046,0.208,-5.337
0.227,0.045,0.207,-5.337
0.224,0.045,0.208,-5.337
0.238,0.048,0.210,-5.337
0.230,0.045,0.212,-5.337
0.162,0.043,0.216,-5.337
0.178,0.046,0.216,-5.337
0.250,0.043,0.211,-5.337
0.264,0.043,0.209,-5.337
0.224,0.044,0.212,-5.337
0.126,0.047,0.216,-5.337
0.141,0.048,0.215,-5.337
0.112,0.047,0.214,-5.337
0.138,0.041,0.214,-5.337
0.205,0.038,0.216,-5.337
0.223,0.040,0.215,-5.337
0.199,0.039,0.215,-5.337
0.230,0.042,0.213,-5.337
0.247,0.042,0.211,-5.337
0.233,0.042,0.207,-5.337
0.192,0.044,0.208,-5.337
0.184,0.043,0.209,-5.337
0.184,0.043,0.209,-5.337
0.167,0.043,0.210,-5.337
0.162,0.041,0.211,-5.337
0.134,0.038,0.212,-5.337
0.181,0.038,0.213,-5.337
0.244,0.034,0.211,-5.337
0.194,0.038,0.213,-5.337
0.232,0.039,0.215,-5.337
0.273,0.041,0.215,-5.337
0.232,0.040,0.213,-5.337
0.191,0.040,0.211,-5.337
0.199,0.040,0.210,-5.337
0.221,0.038,0.209,-5.337
0.188,0.038,0.210,-5.337
0.099,0.038,0.211,-5.337
0.117,0.032,0.210,-5.337
0.159,0.034,0.207,-5.337
0.162,0.041,0.210,-5.337
0.142,0.038,0.211,-5.337
0.060,0.037,0.207,-5.337
0.061,0.034,0.204,-5.337
0.095,0.034,0.207,-5.337
0.184,0.033,0.209,-5.337
0.227,0.034,0.215,-5.337
0.167,0.037,0.216,-5.337
0.157,0.036,0.213,-5.337
0.159,0.036,0.209,-5.337
0.123,0.038,0.208,-5.337
0.115,0.038,0.209,-5.337
0.139,0.039,0.212,-5.337
0.105,0.042,0.214,-5.337
0.097,0.041,0.212,-5.337
0.152,0.038,0.213,-5.337
0.217,0.037,0.214,-5.337
0.235,0.036,0.215,-5.337
0.219,0.037,0.214,-5.337
0.207,0.038,0.213,-5.337
0.232,0.036,0.212,-5.337
0.208,0.038,0.215,-5.337
0.200,0.039,0.212,-5.337
0.191,0.041,0.211,-5.337
0.166,0.040,0.210,-5.337
0.175,0.041,0.207,-5.337
0.250,0.039,0.205,-5.337
0.241,0.042,0.207,-5.337
0.184,0.039,0.208,-5.337
0.175,0.039,0.210,-5.337
0.232,0.038,0.216,-5.337
0.197,0.040,0.217,-5.337
0.164,0.044,0.212,-5.337
0.144,0.043,0.212,-5.337
0.163,0.039,0.215,-5.337
0.214,0.034,0.214,-5.337
0.185,0.035,0.211,-5.337
0.181,0.038,0.211,-5.337
0.188,0.039,0.213,-5.337
0.167,0.039,0.214,-5.337
0.186,0.039,0.212,-5.337
0.161,0.039,0.209,-5.337
0.159,0.036,0.210,-5.337
0.193,0.038,0.211,-5.337
0.196,0.037,0.215,-5.337
0.202,0.036,0.214,-5.337
0.269,0.034,0.211,-5.337
0.245,0.036,0.208,-5.337
0.213,0.035,0.210,-5.337
0.203,0.035,0.213,-5.337
0.165,0.036,0.214,-5.337
0.151,0.035,0.216,-5.337
0.182,0.035,0.212,-5.337
0.230,0.031,0.208,-5.337
0.244,0.029,0.207,-5.337
0.217,0.029,0.209,-5.337
0.215,0.031,0.210,-5.337
0.144,0.034,0.209,-5.337
0.098,0.031,0.210,-5.337
0.126,0.031,0.212,-5.337
0.194,0.035,0.213,-5.337
0.157,0.037,0.212,-5.337
0.159,0.033,0.212,-5.337
0.188,0.030,0.212,-5.337
0.183,0.035,0.209,-5.337
0.201,0.033,0.207,-5.337
0.199,0.032,0.208,-5.337
0.207,0.036,0.215,-5.337
0.179,0.035,0.216,-5.337
0.143,0.033,0.216,-5.337
0.138,0.032,0.213,-5.337
0.160,0.033,0.208,-5.337
0.191,0.033,0.206,-5.337
0.241,0.031,0.207,-5.337
0.222,0.029,0.210,-5.337
0.166,0.030,0.214,-5.337
0.176,0.031,0.213,-5.337
0.176,0.032,0.209,-5.337
0.148,0.032,0.210,-5.337
0.084,0.033,0.213,-5.337
0.135,0.030,0.210,-5.337
0.172,0.031,0.207,-5.337
0.165,0.029,0.208,-5.337
0.207,0.029,0.213,-5.337
0.200,0.032,0.217,-5.337
0.184,0.034,0.217,-5.337
0.209,0.033,0.216,-5.337
0.226,0.032,0.213,-5.337
0.238,0.033,0.213,-5.337
0.231,0.030,0.211,-5.337
0.268,0.030,0.208,-5.337
0.232,0.032,0.208,-5.337
0.196,0.034,0.210,-5.337
0.187,0.030,0.212,-5.337
0.213,0.028,0.214,-5.337
0.198,0.032,0.212,-5.337
0.212,0.034,0.208,-5.337
0.254,0.029,0.211,-5.337
0.252,0.032,0.216,-5.337
0.201,0.033,0.211,-5.337
0.207,0.032,0.205,-5.337
0.227,0.030,0.212,-5.337
0.187,0.034,0.216,-5.337
0.189,0.033,0.216,-5.337
0.189,0.029,0.214,-5.337
0.200,0.028,0.212,-5.337
0.153,0.031,0.209,-5.337
0.116,0.031,0.210,-5.337
0.146,0.034,0.212,-5.337
0.172,0.036,0.213,-5.337
0.135,0.038,0.214,-5.337
0.158,0.036,0.214,-5.337
0.191,0.037,0.212,-5.337
0.156,0.038,0.213,-5.337
0.170,0.037,0.212,-5.337
0.212,0.035,0.208,-5.337
0.237,0.033,0.207,-5.337
0.237,0.034,0.208,-5.337
0.215,0.034,0.211,-5.337
0.171,0.036,0.216,-5.337
0.121,0.036,0.216,-5.337
0.155,0.035,0.213,-5.337
0.216,0.033,0.209,-5.337
0.204,0.036,0.207,-5.337
0.127,0.040,0.209,-5.337
0.094,0.042,0.213,-5.337
0.201,0.041,0.218,-5.337
0.263,0.039,0.216,-5.337
0.192,0.040,0.213,-5.337
0.177,0.039,0.212,-5.337
0.205,0.040,0.212,-5.337
0.242,0.037,0.212,-5.337
0.231,0.037,0.215,-5.337
0.205,0.035,0.213,-5.337
0.194,0.038,0.212,-5.337
0.204,0.039,0.208,-5.337
0.265,0.038,0.208,-5.337
0.322,0.033,0.211,-5.337
0.237,0.036,0.214,-5.337
0.171,0.033,0.215,-5.337
0.174,0.034,0.214,-5.337
0.158,0.037,0.212,-5.337
0.158,0.037,0.209,-5.337
0.178,0.037,0.210,-5.337
0.168,0.039,0.214,-5.337
0.153,0.037,0.213,-5.337
0.177,0.038,0.211,-5.337
0.210,0.040,0.209,-5.337
0.169,0.041,0.210,-5.337
0.158,0.043,0.211,-5.337
0.117,0.042,0.210,-5.337
0.159,0.043,0.212,-5.337
0.259,0.038,0.215,-5.337
0.253,0.037,0.218,-5.337
0.175,0.038,0.219,-5.337
0.141,0.038,0.216,-5.337
0.158,0.036,0.208,-5.337
0.182,0.039,0.207,-5.337
0.156,0.042,0.211,-5.337
0.196,0.041,0.212,-5.337
0.209,0.039,0.211,-5.337
0.211,0.040,0.210,-5.337
0.193,0.038,0.212,-5.337
0.175,0.040,0.214,-5.337
0.181,0.041,0.217,-5.337
0.226,0.038,0.217,-5.337
0.208,0.039,0.215,-5.337
0.205,0.041,0.211,-5.337
0.165,0.041,0.210,-5.337
0.149,0.039,0.211,-5.337
0.135,0.038,0.211,-5.337
0.160,0.037,0.213,-5.337
0.183,0.035,0.213,-5.337
0.155,0.035,0.212,-5.337
0.136,0.039,0.215,-5.337
0.144,0.038,0.214,-5.337
0.156,0.038,0.213,-5.337
0.151,0.042,0.209,-5.337
0.225,0.040,0.208,-5.337
0.225,0.037,0.209,-5.337
0.208,0.034,0.211,-5.337
0.261,0.035,0.212,-5.337
0.253,0.039,0.213,-5.337
0.235,0.038,0.212,-5.337
0.224,0.041,0.213,-5.337
0.209,0.045,0.216,-5.337
0.205,0.047,0.214,-5.337
0.203,0.047,0.210,-5.337
0.210,0.045,0.211,-5.337
0.194,0.044,0.212,-5.337
0.143,0.043,0.212,-5.337
0.177,0.041,0.211,-5.337
0.231,0.039,0.209,-5.337
0.205,0.040,0.213,-5.337
0.190,0.038,0.214,-5.337
0.210,0.038,0.212,-5.337
0.219,0.040,0.212,-5.337
0.243,0.035,0.216,-5.337
0.217,0.034,0.212,-5.337
0.215,0.040,0.210,-5.337
0.247,0.042,0.208,-5.337
0.230,0.041,0.209,-5.337
0.213,0.037,0.211,-5.337
0.192,0.038,0.211,-5.337
0.188,0.038,0.209,-5.337
0.166,0.040,0.207,-5.337
0.183,0.040,0.208,-5.337
0.258,0.040,0.211,-5.337
0.250,0.040,0.214,-5.337
0.208,0.041,0.215,-5.337
0.201,0.041,0.213,-5.337
0.177,0.045,0.213,-5.337
0.170,0.044,0.212,-5.337
0.169,0.049,0.213,-5.337
0.221,0.050,0.215,-5.337
0.248,0.047,0.213,-5.337
0.217,0.046,0.211,-5.337
0.174,0.044,0.209,-5.337
0.163,0.046,0.211,-5.337
0.188,0.045,0.211,-5.337
0.223,0.048,0.212,-5.337
0.235,0.045,0.211,-5.337
0.243,0.045,0.213,-5.337
0.239,0.047,0.211,-5.337
0.232,0.049,0.214,-5.337
0.234,0.048,0.216,-5.337
0.185,0.051,0.211,-5.337
0.137,0.052,0.206,-5.337
0.166,0.051,0.207,-5.337
0.206,0.048,0.210,-5.337
0.212,0.050,0.210,-5.337
0.180,0.051,0.215,-5.337
0.205,0.048,0.217,-5.337
0.132,0.050,0.215,-5.337
0.113,0.051,0.212,-5.337
0.207,0.050,0.209,-5.337
0.294,0.052,0.209,-5.337
0.210,0.056,0.209,-5.337
0.147,0.054,0.210,-5.337
0.188,0.052,0.214,-5.337
0.225,0.051,0.216,-5.337
0.204,0.055,0.217,-5.337
0.189,0.056,0.215,-5.337
0.182,0.054,0.216,-5.337
0.156,0.053,0.217,-5.337
0.165,0.051,0.217,-5.337
0.188,0.053,0.214,-5.337
0.227,0.053,0.214,-5.337
0.222,0.050,0.214,-5.337
0.167,0.054,0.213,-5.337
0.138,0.054,0.211,-5.337
0.186,0.049,0.209,-5.337
0.262,0.044,0.211,-5.337
0.302,0.046,0.212,-5.337
0.273,0.047,0.212,-5.337
0.245,0.050,0.212,-5.337
0.258,0.047,0.215,-5.337
0.233,0.048,0.214,-5.337
0.152,0.049,0.211,-5.337
0.159,0.049,0.209,-5.337
0.168,0.051,0.213,-5.337
0.135,0.051,0.216,-5.337
0.178,0.051,0.214,-5.337
0.171,0.055,0.210,-5.337
0.134,0.057,0.212,-5.337
0.128,0.055,0.215,-5.337
0.158,0.052,0.218,-5.337
0.215,0.050,0.213,-5.337
0.190,0.053,0.207,-5.337
0.142,0.050,0.206,-5.337
0.142,0.049,0.212,-5.337
0.122,0.051,0.215,-5.337
0.175,0.051,0.214,-5.337
0.184,0.053,0.210,-5.337
0.184,0.053,0.208,-5.337
0.235,0.050,0.209,-5.337
0.246,0.050,0.212,-5.337
0.214,0.052,0.216,-5.337
0.221,0.053,0.215,-5.337
0.254,0.052,0.210,-5.337
0.223,0.055,0.206,-5.337
0.196,0.054,0.204,-5.337
0.175,0.053,0.208,-5.337
0.183,0.050,0.213,-5.337
0.278,0.049,0.213,-5.337
0.281,0.051,0.211,-5.337
0.213,0.053,0.209,-5.337
0.178,0.055,0.212,-5.337
0.165,0.056,0.212,-5.337
0.155,0.052,0.210,-5.337
0.256,0.049,0.208,-5.337
0.312,0.050,0.209,-5.337
0.259,0.050,0.208,-5.337
0.236,0.051,0.211,-5.337
0.226,0.056,0.211,-5.337
0.218,0.058,0.210,-5.337
0.218,0.056,0.211,-5.337
0.217,0.056,0.211,-5.337
0.206,0.056,0.210,-5.337
0.171,0.057,0.209,-5.337
0.130,0.057,0.212,-5.337
0.187,0.054,0.212,-5.337
0.256,0.051,0.212,-5.337
0.274,0.053,0.214,-5.337
0.281,0.053,0.215,-5.337
0.244,0.056,0.218,-5.337
0.198,0.059,0.218,-5.337
0.185,0.061,0.212,-5.337
0.217,0.058,0.207,-5.337
0.231,0.054,0.207,-5.337
0.221,0.056,0.211,-5.337
0.180,0.059,0.212,-5.337
0.150,0.056,0.211,-5.337
0.217,0.054,0.209,-5.337
0.267,0.055,0.211,-5.337
0.208,0.058,0.212,-5.337
0.114,0.061,0.213,-5.337
0.163,0.057,0.212,-5.337
0.198,0.056,0.213,-5.337
0.174,0.059,0.213,-5.337
0.168,0.060,0.209,-5.337
0.207,0.053,0.209,-5.337
0.231,0.052,0.214,-5.337
0.210,0.057,0.218,-5.337
0.154,0.059,0.215,-5.337
0.172,0.055,0.216,-5.337
0.211,0.052,0.217,-5.337
0.151,0.057,0.212,-5.337
0.134,0.059,0.209,-5.337
0.180,0.053,0.210,-5.337
0.214,0.052,0.213,-5.337
0.170,0.056,0.213,-5.337
0.197,0.059,0.215,-5.337
0.216,0.059,0.214,-5.337
0.190,0.058,0.209,-5.337
0.202,0.054,0.209,-5.337
0.220,0.055,0.211,-5.337
0.178,0.059,0.216,-5.337
0.148,0.060,0.217,-5.337
0.179,0.059,0.211,-5.337
0.165,0.060,0.209,-5.337
0.137,0.063,0.212,-5.337
0.170,0.060,0.210,-5.337
0.268,0.061,0.211,-5.337
0.280,0.065,0.210,-5.337
0.243,0.062,0.208,-5.337
0.204,0.060,0.209,-5.337
0.178,0.065,0.213,-5.337
0.173,0.063,0.214,-5.337
0.267,0.054,0.214,-5.337
0.342,0.051,0.212,-5.337
0.305,0.058,0.210,-5.337
0.223,0.064,0.211,-5.337
0.164,0.064,0.212,-5.337
0.187,0.060,0.213,-5.337
0.189,0.060,0.213,-5.337
0.134,0.061,0.215,-5.337
0.125,0.060,0.213,-5.337
0.162,0.058,0.213,-5.337
0.201,0.058,0.210,-5.337
0.196,0.058,0.210,-5.337
0.175,0.055,0.212,-5.337
0.219,0.055,0.213,-5.337
0.166,0.059,0.209,-5.337
0.155,0.061,0.207,-5.337
0.159,0.062,0.212,-5.337
0.157,0.062,0.216,-5.337
0.160,0.061,0.214,-5.337
0.182,0.060,0.213,-5.337
0.194,0.061,0.211,-5.337
0.201,0.058,0.208,-5.337
0.193,0.060,0.207,-5.337
0.188,0.058,0.205,-5.337
0.194,0.058,0.209,-5.337
0.223,0.059,0.211,-5.337
0.248,0.058,0.214,-5.337
0.227,0.056,0.214,-5.337
0.199,0.055,0.215,-5.337
0.198,0.057,0.212,-5.337
0.194,0.057,0.212,-5.337
0.198,0.060,0.211,-5.337
0.206,0.060,0.212,-5.337
0.216,0.060,0.211,-5.337
0.230,0.061,0.211,-5.337
0.224,0.060,0.214,-5.337
0.240,0.061,0.214,-5.337
0.195,0.061,0.212,-5.337
0.147,0.064,0.211,-5.337
0.129,0.064,0.212,-5.337
0.111,0.064,0.213,-5.337
0.107,0.064,0.211,-5.337
0.179,0.065,0.211,-5.337
0.205,0.068,0.212,-5.337
0.170,0.067,0.213,-5.337
0.161,0.066,0.212,-5.337
0.200,0.061,0.210,-5.337
0.259,0.059,0.211,-5.337
0.255,0.060,0.212,-5.337
0.204,0.061,0.210,-5.337
0.154,0.063,0.205,-5.337
0.163,0.064,0.206,-5.337
0.209,0.061,0.211,-5.337
0.205,0.059,0.217,-5.337
0.151,0.059,0.216,-5.337
0.143,0.060,0.214,-5.337
0.171,0.059,0.213,-5.337
0.210,0.057,0.211,-5.337
0.202,0.058,0.209,-5.337
0.154,0.060,0.212,-5.337
0.162,0.058,0.215,-5.337
0.209,0.056,0.217,-5.337
0.172,0.058,0.214,-5.337
0.159,0.057,0.212,-5.337
0.116,0.060,0.210,-5.337
0.098,0.064,0.212,-5.337
0.139,0.061,0.214,-5.337
0.133,0.061,0.215,-5.337
0.073,0.059,0.217,-5.337
0.135,0.058,0.216,-5.337
0.234,0.057,0.215,-5.337
0.234,0.059,0.213,-5.337
0.167,0.061,0.213,-5.337
0.109,0.060,0.213,-5.337
0.139,0.056,0.211,-5.337
0.179,0.056,0.212,-5.337
0.201,0.055,0.216,-5.337
0.209,0.054,0.214,-5.337
0.194,0.058,0.214,-5.337
0.219,0.056,0.215,-5.337
0.230,0.057,0.215,-5.337
0.235,0.056,0.213,-5.337
0.173,0.056,0.209,-5.337
0.143,0.060,0.209,-5.337
0.143,0.061,0.209,-5.337
0.144,0.057,0.211,-5.337
0.137,0.058,0.211,-5.337
0.182,0.056,0.207,-5.337
0.193,0.056,0.206,-5.337
0.212,0.056,0.210,-5.337
0.233,0.059,0.213,-5.337
0.217,0.056,0.218,-5.337
0.158,0.051,0.220,-5.337
0.126,0.055,0.215,-5.337
0.129,0.058,0.210,-5.337
0.118,0.060,0.208,-5.337
0.167,0.055,0.209,-5.337
0.221,0.052,0.214,-5.337
0.195,0.055,0.215,-5.337
0.118,0.054,0.211,-5.337
0.124,0.052,0.207,-5.337
0.169,0.052,0.207,-5.337
0.181,0.054,0.205,-5.337
0.157,0.056,0.209,-5.337
0.176,0.054,0.212,-5.337
0.216,0.054,0.212,-5.337
0.223,0.054,0.212,-5.337
0.188,0.055,0.214,-5.337
0.175,0.055,0.213,-5.337
0.215,0.053,0.216,-5.337
0.205,0.055,0.215,-5.337
0.173,0.057,0.211,-5.337
0.146,0.053,0.210,-5.337
0.176,0.052,0.213,-5.337
0.194,0.051,0.216,-5.337
0.167,0.053,0.216,-5.337
0.140,0.055,0.216,-5.337
0.133,0.053,0.214,-5.337
0.107,0.053,0.211,-5.337
0.130,0.051,0.211,-5.337
0.189,0.051,0.207,-5.337
0.210,0.048,0.206,-5.337
0.225,0.049,0.211,-5.337
0.204,0.049,0.210,-5.337
0.183,0.050,0.209,-5.337
0.192,0.047,0.212,-5.337
0.180,0.048,0.212,-5.337
0.152,0.051,0.209,-5.337
0.169,0.053,0.208,-5.337
0.236,0.050,0.206,-5.337
0.241,0.046,0.213,-5.337
0.231,0.051,0.221,-5.337
0.194,0.052,0.219,-5.337
0.204,0.048,0.214,-5.337
0.187,0.045,0.214,-5.337
0.181,0.048,0.214,-5.337
0.175,0.049,0.213,-5.337
0.150,0.050,0.213,-5.337
0.130,0.050,0.211,-5.337
0.167,0.052,0.212,-5.337
0.214,0.051,0.211,-5.337
0.271,0.049,0.213,-5.337
0.220,0.049,0.213,-5.337
0.166,0.048,0.215,-5.337
0.199,0.048,0.214,-5.337
0.250,0.045,0.210,-5.337
0.266,0.042,0.212,-5.337
0.191,0.044,0.212,-5.337
0.081,0.046,0.212,-5.337
0.110,0.046,0.213,-5.337
0.135,0.047,0.214,-5.337
0.108,0.047,0.219,-5.337
0.095,0.048,0.219,-5.337
0.172,0.047,0.217,-5.337
0.201,0.045,0.210,-5.337
0.200,0.046,0.209,-5.337
0.202,0.048,0.209,-5.337
0.199,0.047,0.208,-5.337
0.197,0.047,0.212,-5.337
0.150,0.049,0.214,-5.337
0.176,0.046,0.212,-5.337
0.177,0.046,0.209,-5.337
0.136,0.049,0.213,-5.337
0.146,0.050,0.215,-5.337
0.126,0.051,0.216,-5.337
0.150,0.047,0.213,-5.337
0.158,0.044,0.213,-5.337
0.196,0.040,0.213,-5.337
0.214,0.045,0.210,-5.337
0.152,0.050,0.209,-5.337
0.151,0.048,0.211,-5.337
0.237,0.043,0.211,-5.337
0.265,0.046,0.211,-5.337
0.217,0.047,0.214,-5.337
0.149,0.050,0.214,-5.337
0.157,0.046,0.213,-5.337
0.218,0.042,0.212,-5.337
0.204,0.045,0.216,-5.337
0.134,0.047,0.217,-5.337
0.142,0.045,0.214,-5.337
0.165,0.045,0.210,-5.337
0.213,0.042,0.214,-5.337
0.204,0.045,0.215,-5.337
0.175,0.045,0.213,-5.337
0.169,0.044,0.209,-5.337
0.261,0.041,0.210,-5.337
0.213,0.044,0.213,-5.337
0.142,0.042,0.215,-5.337
0.188,0.041,0.214,-5.337
0.248,0.042,0.213,-5.337
0.250,0.044,0.212,-5.337
0.222,0.044,0.211,-5.337
0.215,0.046,0.208,-5.337
0.153,0.048,0.209,-5.337
0.133,0.042,0.212,-5.337
0.187,0.042,0.216,-5.337
0.221,0.043,0.216,-5.337
0.201,0.044,0.214,-5.337
0.185,0.042,0.212,-5.337
0.188,0.042,0.212,-5.337
0.177,0.044,0.213,-5.337
0.176,0.047,0.212,-5.337
0.219,0.044,0.210,-5.337
0.231,0.041,0.208,-5.337
0.180,0.043,0.207,-5.337
0.150,0.045,0.209,-5.337
0.155,0.045,0.211,-5.337
0.140,0.045,0.209,-5.337
0.140,0.044,0.214,-5.337
0.177,0.041,0.218,-5.337
0.171,0.043,0.218,-5.337
0.155,0.049,0.215,-5.337
0.187,0.052,0.216,-5.337
0.132,0.048,0.214,-5.337
0.136,0.045,0.214,-5.337
0.169,0.045,0.215,-5.337
0.163,0.047,0.215,-5.337
0.188,0.045,0.213,-5.337
0.186,0.045,0.209,-5.337
0.119,0.049,0.209,-5.337
0.146,0.050,0.207,-5.337
0.198,0.048,0.206,-5.337
0.219,0.046,0.211,-5.337
0.176,0.045,0.211,-5.337
0.145,0.042,0.212,-5.337
0.167,0.042,0.214,-5.337
0.168,0.043,0.214,-5.337
0.153,0.042,0.214,-5.337
0.151,0.045,0.211,-5.337
0.140,0.041,0.212,-5.337
0.183,0.041,0.213,-5.337
0.190,0.044,0.215,-5.337
0.153,0.043,0.211,-5.337
0.164,0.044,0.209,-5.337
0.163,0.042,0.208,-5.337
0.191,0.040,0.211,-5.337
0.198,0.038,0.214,-5.337
0.186,0.042,0.215,-5.337
0.182,0.042,0.216,-5.337
0.185,0.043,0.216,-5.337
0.177,0.044,0.212,-5.337
0.180,0.044,0.211,-5.337
0.203,0.043,0.212,-5.337
0.205,0.044,0.213,-5.337
0.174,0.044,0.211,-5.337
0.225,0.043,0.214,-5.337
0.231,0.040,0.214,-5.337
0.200,0.039,0.211,-5.337
0.219,0.038,0.210,-5.337
0.237,0.038,0.213,-5.337
0.176,0.035,0.218,-5.337
0.134,0.038,0.215,-5.337
0.136,0.040,0.213,-5.337
0.190,0.037,0.212,-5.337
0.197,0.041,0.215,-5.337
0.185,0.041,0.215,-5.337
0.212,0.039,0.212,-5.337
0.209,0.040,0.208,-5.337
0.215,0.040,0.211,-5.337
0.166,0.038,0.214,-5.337
0.135,0.039,0.213,-5.337
0.157,0.039,0.213,-5.337
0.218,0.035,0.214,-5.337
0.306,0.034,0.210,-5.337
0.267,0.038,0.208,-5.337
0.220,0.038,0.208,-5.337
0.199,0.040,0.213,-5.337
0.191,0.040,0.215,-5.337
0.192,0.042,0.213,-5.337
0.203,0.040,0.213,-5.337
0.177,0.041,0.213,-5.337
0.135,0.041,0.216,-5.337
0.123,0.043,0.216,-5.337
0.128,0.042,0.216,-5.337
0.152,0.042,0.213,-5.337
0.157,0.044,0.214,-5.337
0.155,0.043,0.211,-5.337
0.189,0.042,0.212,-5.337
0.171,0.041,0.213,-5.337
0.190,0.042,0.214,-5.337
0.221,0.037,0.209,-5.337
0.218,0.037,0.207,-5.337
0.191,0.034,0.211,-5.337
0.205,0.041,0.215,-5.337
0.191,0.043,0.214,-5.337
0.214,0.039,0.210,-5.337
0.277,0.035,0.206,-5.337
0.223,0.036,0.208,-5.337
0.191,0.035,0.209,-5.337
0.223,0.037,0.209,-5.337
0.222,0.038,0.211,-5.337
0.208,0.040,0.211,-5.337
0.238,0.038,0.215,-5.337
0.235,0.033,0.217,-5.337
0.214,0.035,0.215,-5.337
0.160,0.040,0.212,-5.337
0.162,0.042,0.212,-5.337
0.186,0.039,0.212,-5.337
0.185,0.037,0.214,-5.337
0.202,0.036,0.215,-5.337
0.167,0.039,0.216,-5.337
0.108,0.042,0.214,-5.337
0.150,0.044,0.214,-5.337
0.175,0.045,0.212,-5.337
0.200,0.049,0.214,-5.337
0.187,0.053,0.211,-5.337
0.156,0.052,0.205,-5.337
0.161,0.049,0.205,-5.337
0.153,0.049,0.211,-5.337
0.138,0.046,0.214,-5.337
0.154,0.047,0.216,-5.337
0.203,0.046,0.216,-5.337
0.215,0.047,0.215,-5.337
0.199,0.044,0.210,-5.337
0.246,0.044,0.209,-5.337
0.251,0.046,0.215,-5.337
0.218,0.045,0.218,-5.337
0.221,0.042,0.220,-5.337
0.237,0.040,0.218,-5.337
0.263,0.039,0.215,-5.337
0.257,0.041,0.214,-5.337
0.218,0.043,0.216,-5.337
0.197,0.044,0.213,-5.337
0.188,0.043,0.210,-5.337
0.209,0.042,0.206,-5.337
0.199,0.041,0.209,-5.337
0.191,0.039,0.212,-5.337
0.190,0.040,0.216,-5.337
0.228,0.042,0.217,-5.337
0.286,0.042,0.216,-5.337
0.265,0.040,0.211,-5.337
0.219,0.040,0.212,-5.337
0.176,0.043,0.215,-5.337
0.206,0.044,0.217,-5.337
0.190,0.044,0.219,-5.337
0.211,0.043,0.223,-5.337
0.183,0.046,0.219,-5.337
0.144,0.044,0.210,-5.337
0.135,0.046,0.207,-5.337
0.092,0.052,0.209,-5.337
0.098,0.051,0.216,-5.337
0.206,0.049,0.219,-5.337
0.246,0.045,0.219,-5.337
0.214,0.046,0.217,-5.337
0.169,0.048,0.219,-5.337
0.192,0.049,0.215,-5.337
0.172,0.049,0.212,-5.337
0.163,0.050,0.210,-5.337
0.203,0.048,0.212,-5.337
0.206,0.051,0.212,-5.337
0.210,0.047,0.211,-5.337
0.286,0.042,0.212,-5.337
0.279,0.046,0.217,-5.337
0.211,0.049,0.217,-5.337
0.184,0.044,0.213,-5.337
0.204,0.043,0.213,-5.337
0.231,0.045,0.213,-5.337
0.242,0.043,0.208,-5.337
0.201,0.042,0.210,-5.337
0.199,0.044,0.213,-5.337
0.186,0.048,0.216,-5.337
0.177,0.045,0.217,-5.337
0.227,0.041,0.215,-5.337
0.257,0.041,0.217,-5.337
0.265,0.043,0.217,-5.337
0.238,0.045,0.215,-5.337
0.200,0.044,0.212,-5.337
0.177,0.043,0.215,-5.337
0.162,0.043,0.211,-5.337
0.153,0.043,0.208,-5.337
0.214,0.041,0.207,-5.337
0.251,0.047,0.210,-5.337
0.182,0.048,0.211,-5.337
0.144,0.048,0.212,-5.337
0.196,0.045,0.213,-5.337
0.245,0.042,0.214,-5.337
0.271,0.041,0.212,-5.337
0.219,0.041,0.209,-5.337
0.195,0.044,0.211,-5.337
0.219,0.045,0.214,-5.337
0.241,0.042,0.215,-5.337
0.246,0.044,0.214,-5.337
0.234,0.048,0.213,-5.337
0.272,0.046,0.213,-5.337
0.227,0.049,0.214,-5.337
0.171,0.053,0.217,-5.337
0.187,0.050,0.216,-5.337
0.217,0.049,0.211,-5.337
0.193,0.052,0.212,-5.337
0.155,0.052,0.216,-5.337
0.181,0.048,0.218,-5.337
0.174,0.046,0.220,-5.337
0.157,0.046,0.216,-5.337
0.162,0.049,0.210,-5.337
0.217,0.048,0.207,-5.337
0.259,0.048,0.209,-5.337
0.230,0.047,0.211,-5.337
0.212,0.049,0.212,-5.337
0.142,0.052,0.212,-5.337
0.141,0.051,0.211,-5.337
0.215,0.048,0.213,-5.337
0.269,0.046,0.215,-5.337
0.167,0.051,0.215,-5.337
0.158,0.052,0.217,-5.337
0.201,0.050,0.215,-5.337
0.230,0.048,0.214,-5.337
0.195,0.048,0.212,-5.337
0.164,0.051,0.210,-5.337
0.147,0.050,0.207,-5.337
0.185,0.047,0.208,-5.337
0.205,0.046,0.209,-5.337
0.178,0.045,0.214,-5.337
0.130,0.048,0.214,-5.337
0.124,0.049,0.211,-5.337
0.119,0.049,0.212,-5.337
0.158,0.049,0.212,-5.337
0.168,0.048,0.213,-5.337
0.175,0.046,0.217,-5.337
0.191,0.046,0.218,-5.337
0.203,0.051,0.216,-5.337
0.154,0.052,0.209,-5.337
0.169,0.051,0.205,-5.337
0.215,0.048,0.205,-5.337
0.232,0.053,0.212,-5.337
0.224,0.057,0.217,-5.337
0.223,0.054,0.218,-5.337
0.187,0.053,0.215,-5.337
0.186,0.055,0.214,-5.337
0.211,0.055,0.214,-5.337
0.167,0.056,0.213,-5.337
0.149,0.054,0.213,-5.337
0.192,0.055,0.213,-5.337
0.251,0.047,0.215,-5.337
0.242,0.047,0.215,-5.337
0.165,0.052,0.216,-5.337
0.173,0.056,0.211,-5.337
0.188,0.057,0.211,-5.337
0.219,0.056,0.213,-5.337
0.216,0.054,0.215,-5.337
0.202,0.052,0.218,-5.337
0.182,0.052,0.219,-5.337
0.254,0.053,0.216,-5.337
0.286,0.052,0.211,-5.337
0.265,0.050,0.209,-5.337
0.195,0.051,0.211,-5.337
0.185,0.050,0.213,-5.337
0.246,0.049,0.213,-5.337
0.278,0.050,0.216,-5.337
0.235,0.049,0.214,-5.337
0.214,0.050,0.208,-5.337
0.208,0.055,0.210,-5.337
0.186,0.053,0.216,-5.337
0.167,0.051,0.214,-5.337
0.226,0.051,0.212,-5.337
0.226,0.053,0.212,-5.337
0.260,0.052,0.215,-5.337
0.278,0.056,0.214,-5.337
0.184,0.057,0.213,-5.337
0.130,0.054,0.213,-5.337
0.129,0.053,0.214,-5.337
0.180,0.050,0.211,-5.337
0.222,0.051,0.213,-5.337
0.214,0.053,0.215,-5.337
0.211,0.051,0.216,-5.337
0.229,0.051,0.218,-5.337
0.252,0.051,0.216,-5.337
0.234,0.051,0.210,-5.337
0.217,0.054,0.208,-5.337
0.206,0.058,0.211,-5.337
0.163,0.058,0.212,-5.337
0.154,0.055,0.211,-5.337
0.169,0.054,0.213,-5.337
0.226,0.051,0.212,-5.337
0.202,0.053,0.210,-5.337
0.177,0.052,0.210,-5.337
0.182,0.055,0.209,-5.337
0.174,0.058,0.214,-5.337
0.220,0.054,0.217,-5.337
0.270,0.055,0.220,-5.337
0.256,0.054,0.219,-5.337
0.178,0.056,0.214,-5.337
0.178,0.056,0.209,-5.337
0.213,0.060,0.205,-5.337
0.269,0.057,0.204,-5.337
0.251,0.056,0.206,-5.337
0.235,0.052,0.209,-5.337
0.270,0.054,0.214,-5.337
0.218,0.057,0.216,-5.337
0.215,0.058,0.216,-5.337
0.173,0.061,0.213,-5.337
0.138,0.060,0.213,-5.337
0.204,0.055,0.217,-5.337
0.250,0.053,0.218,-5.337
0.192,0.054,0.219,-5.337
0.153,0.059,0.219,-5.337
0.115,0.056,0.217,-5.337
0.119,0.053,0.213,-5.337
0.157,0.053,0.211,-5.337
0.189,0.054,0.209,-5.337
0.251,0.056,0.213,-5.337
0.225,0.054,0.214,-5.337
0.192,0.055,0.214,-5.337
0.236,0.054,0.211,-5.337
0.238,0.055,0.209,-5.337
0.171,0.054,0.211,-5.337
0.125,0.053,0.214,-5.337
0.216,0.049,0.214,-5.337
0.307,0.052,0.214,-5.337
0.273,0.059,0.214,-5.337
0.155,0.061,0.213,-5.337
0.061,0.058,0.212,-5.337
0.081,0.056,0.212,-5.337
0.114,0.058,0.210,-5.337
0.123,0.062,0.207,-5.337
0.185,0.057,0.208,-5.337
0.248,0.053,0.213,-5.337
0.218,0.054,0.215,-5.337
0.164,0.056,0.213,-5.337
0.108,0.055,0.208,-5.337
0.149,0.054,0.209,-5.337
0.211,0.056,0.212,-5.337
0.256,0.055,0.213,-5.337
0.192,0.057,0.212,-5.337
0.182,0.057,0.212,-5.337
0.225,0.055,0.215,-5.337
0.201,0.055,0.214,-5.337
0.190,0.053,0.210,-5.337
0.225,0.050,0.212,-5.337
0.218,0.054,0.214,-5.337
0.176,0.057,0.216,-5.337
0.182,0.056,0.220,-5.337
0.181,0.053,0.220,-5.337
0.197,0.053,0.216,-5.337
0.226,0.049,0.210,-5.337
0.165,0.055,0.203,-5.337
0.149,0.058,0.202,-5.337
0.167,0.056,0.208,-5.337
0.205,0.053,0.213,-5.337
0.196,0.054,0.216,-5.337
0.219,0.051,0.217,-5.337
0.223,0.049,0.218,-5.337
0.137,0.054,0.218,-5.337
0.084,0.056,0.213,-5.337
0.132,0.054,0.210,-5.337
0.191,0.054,0.210,-5.337
0.228,0.054,0.211,-5.337
0.219,0.053,0.211,-5.337
0.191,0.056,0.212,-5.337
0.186,0.054,0.209,-5.337
0.172,0.054,0.206,-5.337
0.174,0.054,0.209,-5.337
0.178,0.055,0.214,-5.337
0.187,0.056,0.213,-5.337
0.182,0.059,0.209,-5.337
0.190,0.058,0.206,-5.337
0.217,0.058,0.205,-5.337
0.218,0.057,0.211,-5.337
0.219,0.056,0.217,-5.337
0.171,0.058,0.216,-5.337
0.162,0.055,0.212,-5.337
0.141,0.057,0.208,-5.337
0.108,0.057,0.210,-5.337
0.120,0.058,0.215,-5.337
0.145,0.056,0.215,-5.337
0.164,0.054,0.214,-5.337
0.174,0.056,0.213,-5.337
0.196,0.056,0.216,-5.337
0.208,0.055,0.215,-5.337
0.177,0.057,0.213,-5.337
0.157,0.058,0.208,-5.337
0.199,0.055,0.207,-5.337
0.175,0.058,0.207,-5.337
0.136,0.057,0.208,-5.337
0.196,0.051,0.209,-5.337
0.238,0.054,0.211,-5.337
0.226,0.055,0.215,-5.337
0.190,0.054,0.215,-5.337
0.191,0.058,0.214,-5.337
0.179,0.059,0.213,-5.337
0.131,0.057,0.212,-5.337
0.123,0.054,0.211,-5.337
0.183,0.051,0.210,-5.337
0.179,0.054,0.210,-5.337
0.249,0.053,0.211,-5.337
0.269,0.052,0.213,-5.337
0.194,0.054,0.218,-5.337
0.208,0.054,0.217,-5.337
0.185,0.053,0.213,-5.337
0.190,0.053,0.210,-5.337
0.172,0.056,0.210,-5.337
0.137,0.054,0.211,-5.337
0.155,0.051,0.213,-5.337
0.184,0.051,0.215,-5.337
0.132,0.054,0.215,-5.337
0.136,0.054,0.209,-5.337
0.156,0.054,0.209,-5.337
0.150,0.050,0.212,-5.337
0.133,0.054,0.217,-5.337
0.150,0.053,0.217,-5.337
0.183,0.052,0.218,-5.337
0.184,0.050,0.215,-5.337
0.147,0.050,0.218,-5.337
0.139,0.048,0.219,-5.337
0.186,0.048,0.216,-5.337
0.219,0.051,0.212,-5.337
0.207,0.053,0.212,-5.337
0.182,0.048,0.217,-5.337
0.151,0.049,0.219,-5.337
0.109,0.051,0.218,-5.337
0.124,0.046,0.215,-5.337
0.207,0.043,0.210,-5.337
0.223,0.047,0.204,-5.337
0.230,0.047,0.206,-5.337
0.241,0.045,0.208,-5.337
0.236,0.045,0.205,-5.337
0.227,0.044,0.205,-5.337
0.179,0.047,0.210,-5.337
0.159,0.048,0.214,-5.337
0.186,0.048,0.221,-5.337
0.164,0.050,0.221,-5.337
0.202,0.050,0.214,-5.337
0.255,0.048,0.210,-5.337
0.238,0.048,0.216,-5.337
0.173,0.051,0.220,-5.337
0.109,0.051,0.219,-5.337
0.168,0.051,0.215,-5.337
0.202,0.055,0.214,-5.337
0.156,0.057,0.212,-5.337
0.127,0.058,0.210,-5.337
0.141,0.056,0.211,-5.337
0.142,0.052,0.213,-5.337
0.150,0.052,0.216,-5.337
0.137,0.055,0.216,-5.337
0.142,0.051,0.216,-5.337
0.220,0.049,0.213,-5.337
0.226,0.050,0.209,-5.337
0.180,0.051,0.207,-5.337
0.138,0.053,0.211,-5.337
0.115,0.051,0.210,-5.337
0.123,0.051,0.211,-5.337
0.178,0.047,0.214,-5.337
0.217,0.047,0.215,-5.337
0.179,0.046,0.212,-5.337
0.202,0.046,0.210,-5.337
0.198,0.048,0.210,-5.337
0.151,0.050,0.212,-5.337
0.162,0.049,0.211,-5.337
0.133,0.048,0.209,-5.337
0.153,0.047,0.209,-5.337
0.188,0.044,0.210,-5.337
0.224,0.042,0.211,-5.337
0.208,0.044,0.210,-5.337
0.179,0.046,0.209,-5.337
0.195,0.044,0.209,-5.337
0.234,0.039,0.211,-5.337
0.184,0.042,0.212,-5.337
0.129,0.046,0.216,-5.337
0.164,0.041,0.216,-5.337
0.155,0.040,0.216,-5.337
0.123,0.043,0.214,-5.337
0.149,0.044,0.212,-5.337
0.162,0.042,0.211,-5.337
0.194,0.042,0.212,-5.337
0.153,0.042,0.213,-5.337
0.178,0.044,0.212,-5.337
0.207,0.045,0.210,-5.337
0.155,0.048,0.210,-5.337
0.111,0.046,0.208,-5.337
0.185,0.045,0.207,-5.337
0.212,0.043,0.207,-5.337
0.183,0.045,0.211,-5.337
0.155,0.045,0.217,-5.337
0.146,0.044,0.218,-5.337
0.121,0.045,0.215,-5.337
0.081,0.047,0.210,-5.337
0.136,0.048,0.208,-5.337
0.221,0.045,0.207,-5.337
0.198,0.046,0.212,-5.337
0.174,0.044,0.213,-5.337
0.182,0.043,0.214,-5.337
0.191,0.044,0.213,-5.337
0.196,0.043,0.216,-5.337
0.192,0.042,0.218,-5.337
0.184,0.045,0.215,-5.337
0.174,0.045,0.211,-5.337
0.160,0.045,0.208,-5.337
0.181,0.042,0.209,-5.337
0.199,0.041,0.210,-5.337
0.199,0.041,0.209,-5.337
0.159,0.042,0.211,-5.337
0.134,0.043,0.213,-5.337
0.190,0.043,0.215,-5.337
0.250,0.043,0.216,-5.337
0.211,0.044,0.214,-5.337
0.148,0.042,0.212,-5.337
0.154,0.038,0.209,-5.337
0.193,0.039,0.212,-5.337
0.181,0.043,0.213,-5.337
0.185,0.044,0.211,-5.337
0.224,0.040,0.208,-5.337
0.212,0.038,0.211,-5.337
0.197,0.039,0.211,-5.337
0.211,0.039,0.213,-5.337
0.217,0.040,0.214,-5.337
0.146,0.042,0.214,-5.337
0.069,0.045,0.214,-5.337
0.113,0.041,0.213,-5.337
0.191,0.036,0.212,-5.337
0.173,0.040,0.214,-5.337
0.127,0.045,0.211,-5.337
0.109,0.042,0.207,-5.337
0.118,0.040,0.208,-5.337
0.160,0.040,0.210,-5.337
0.212,0.040,0.213,-5.337
0.260,0.041,0.216,-5.337
0.229,0.037,0.218,-5.337
0.165,0.038,0.215,-5.337
0.161,0.038,0.212,-5.337
0.186,0.039,0.207,-5.337
0.206,0.042,0.208,-5.337
0.185,0.042,0.212,-5.337
0.153,0.042,0.212,-5.337
0.132,0.042,0.212,-5.337
0.127,0.046,0.211,-5.337
0.095,0.043,0.211,-5.337
0.103,0.046,0.216,-5.337
0.136,0.044,0.216,-5.337
0.196,0.040,0.217,-5.337
0.188,0.036,0.216,-5.337
0.199,0.037,0.212,-5.337
0.204,0.036,0.210,-5.337
0.208,0.037,0.211,-5.337
0.162,0.039,0.214,-5.337
0.145,0.040,0.214,-5.337
0.156,0.038,0.215,-5.337
0.137,0.041,0.213,-5.337
0.171,0.043,0.212,-5.337
0.175,0.041,0.213,-5.337
0.209,0.039,0.214,-5.337
0.228,0.039,0.210,-5.337
0.230,0.038,0.210,-5.337
0.236,0.038,0.213,-5.337
0.192,0.039,0.216,-5.337
0.221,0.037,0.213,-5.337
0.249,0.037,0.208,-5.337
0.250,0.038,0.207,-5.337
0.229,0.039,0.212,-5.337
0.178,0.040,0.215,-5.337
0.116,0.044,0.213,-5.337
0.061,0.046,0.211,-5.337
0.123,0.043,0.212,-5.337
0.167,0.045,0.211,-5.337
0.157,0.044,0.212,-5.337
0.168,0.040,0.211,-5.337
0.150,0.040,0.208,-5.337
0.149,0.042,0.207,-5.337
0.133,0.041,0.211,-5.337
0.148,0.040,0.215,-5.337
0.118,0.043,0.215,-5.337
0.129,0.042,0.212,-5.337
0.196,0.041,0.215,-5.337
0.195,0.045,0.212,-5.337
0.154,0.044,0.209,-5.337
0.117,0.045,0.209,-5.337
0.137,0.047,0.210,-5.337
0.217,0.042,0.212,-5.337
0.231,0.043,0.215,-5.337
0.263,0.044,0.217,-5.337
0.261,0.044,0.213,-5.337
0.240,0.047,0.209,-5.337
0.215,0.046,0.202,-5.337
0.169,0.047,0.205,-5.337
0.179,0.043,0.211,-5.337
0.231,0.044,0.216,-5.337
0.211,0.042,0.216,-5.337
0.251,0.041,0.215,-5.337
0.262,0.039,0.213,-5.337
0.192,0.040,0.209,-5.337
0.191,0.041,0.210,-5.337
0.244,0.041,0.214,-5.337
0.218,0.042,0.217,-5.337
0.147,0.043,0.216,-5.337
0.129,0.042,0.210,-5.337
0.215,0.039,0.210,-5.337
0.237,0.039,0.210,-5.337
0.144,0.043,0.212,-5.337
0.108,0.045,0.216,-5.337
0.157,0.043,0.214,-5.337
0.243,0.042,0.214,-5.337
0.185,0.045,0.211,-5.337
0.176,0.044,0.212,-5.337
0.163,0.045,0.211,-5.337
0.206,0.038,0.210,-5.337
0.266,0.035,0.210,-5.337
0.255,0.039,0.211,-5.337
0.227,0.038,0.213,-5.337
0.273,0.041,0.215,-5.337
0.274,0.042,0.213,-5.337
0.240,0.041,0.210,-5.337
0.204,0.043,0.212,-5.337
0.196,0.042,0.212,-5.337
0.203,0.044,0.211,-5.337
0.196,0.044,0.212,-5.337
0.159,0.042,0.211,-5.337
0.158,0.042,0.210,-5.337
0.219,0.041,0.211,-5.337
0.208,0.039,0.211,-5.337
0.201,0.037,0.213,-5.337
0.241,0.038,0.215,-5.337
0.285,0.039,0.218,-5.337
0.244,0.043,0.217,-5.337
0.151,0.048,0.212,-5.337
0.138,0.045,0.205,-5.337
0.154,0.045,0.210,-5.337
0.194,0.045,0.211,-5.337
0.230,0.044,0.213,-5.337
0.177,0.042,0.214,-5.337
0.151,0.042,0.213,-5.337
0.195,0.039,0.209,-5.337
0.197,0.042,0.206,-5.337
0.181,0.044,0.208,-5.337
0.178,0.048,0.213,-5.337
0.164,0.050,0.215,-5.337
0.172,0.045,0.214,-5.337
0.208,0.042,0.214,-5.337
0.235,0.042,0.215,-5.337
0.258,0.042,0.213,-5.337
0.240,0.042,0.212,-5.337
0.233,0.040,0.209,-5.337
0.202,0.041,0.208,-5.337
0.163,0.044,0.214,-5.337
0.200,0.045,0.216,-5.337
0.234,0.044,0.214,-5.337
0.216,0.047,0.207,-5.337
0.187,0.048,0.206,-5.337
0.194,0.048,0.208,-5.337
0.156,0.050,0.214,-5.337
0.107,0.048,0.216,-5.337
0.110,0.047,0.213,-5.337
0.121,0.045,0.208,-5.337
0.184,0.045,0.208,-5.337
0.193,0.046,0.212,-5.337
0.148,0.050,0.214,-5.337
0.172,0.048,0.210,-5.337
0.219,0.046,0.209,-5.337
0.204,0.042,0.211,-5.337
0.230,0.042,0.213,-5.337
0.211,0.044,0.215,-5.337
0.211,0.045,0.217,-5.337
0.230,0.044,0.214,-5.337
0.208,0.045,0.212,-5.337
0.187,0.043,0.213,-5.337
0.160,0.046,0.209,-5.337
0.169,0.045,0.209,-5.337
0.208,0.041,0.211,-5.337
0.230,0.040,0.215,-5.337
0.210,0.042,0.216,-5.337
0.221,0.040,0.213,-5.337
0.240,0.040,0.210,-5.337
0.211,0.045,0.214,-5.337
0.216,0.047,0.213,-5.337
0.266,0.044,0.214,-5.337
0.249,0.044,0.216,-5.337
0.197,0.043,0.216,-5.337
0.157,0.046,0.214,-5.337
0.161,0.044,0.215,-5.337
0.257,0.044,0.215,-5.337
0.252,0.047,0.211,-5.337
0.207,0.049,0.213,-5.337
0.187,0.048,0.219,-5.337
0.232,0.049,0.218,-5.337
0.179,0.050,0.216,-5.337
0.147,0.048,0.215,-5.337
0.164,0.049,0.214,-5.337
0.206,0.046,0.214,-5.337
0.253,0.045,0.215,-5.337
0.236,0.044,0.213,-5.337
0.223,0.049,0.210,-5.337
0.224,0.049,0.214,-5.337
0.189,0.047,0.212,-5.337
0.197,0.045,0.211,-5.337
0.235,0.047,0.209,-5.337
0.236,0.045,0.210,-5.337
0.220,0.042,0.212,-5.337
0.242,0.045,0.215,-5.337
0.242,0.044,0.217,-5.337
0.162,0.046,0.217,-5.337
0.131,0.048,0.215,-5.337
0.136,0.050,0.216,-5.337
0.164,0.045,0.215,-5.337
0.188,0.045,0.213,-5.337
0.212,0.049,0.211,-5.337
0.215,0.050,0.209,-5.337
0.172,0.051,0.211,-5.337
0.132,0.051,0.217,-5.337
0.128,0.051,0.219,-5.337
0.173,0.052,0.217,-5.337
0.215,0.054,0.216,-5.337
0.209,0.050,0.214,-5.337
0.186,0.049,0.212,-5.337
0.193,0.051,0.210,-5.337
0.198,0.053,0.211,-5.337
0.224,0.051,0.212,-5.337
0.269,0.054,0.213,-5.337
0.272,0.055,0.211,-5.337
0.250,0.056,0.210,-5.337
0.218,0.054,0.209,-5.337
0.198,0.059,0.210,-5.337
0.217,0.057,0.211,-5.337
0.227,0.058,0.214,-5.337
0.268,0.058,0.215,-5.337
0.256,0.056,0.212,-5.337
0.226,0.055,0.209,-5.337
0.171,0.057,0.211,-5.337
0.176,0.054,0.211,-5.337
0.164,0.056,0.211,-5.337
0.160,0.058,0.211,-5.337
0.217,0.054,0.209,-5.337
0.251,0.052,0.209,-5.337
0.224,0.054,0.210,-5.337
0.186,0.054,0.216,-5.337
0.184,0.048,0.217,-5.337
0.153,0.051,0.213,-5.337
0.138,0.051,0.212,-5.337
0.211,0.053,0.213,-5.337
0.224,0.055,0.213,-5.337
0.236,0.055,0.212,-5.337
0.244,0.055,0.211,-5.337
0.210,0.055,0.209,-5.337
0.162,0.055,0.209,-5.337
0.158,0.052,0.211,-5.337
0.233,0.051,0.209,-5.337
0.234,0.053,0.210,-5.337
0.188,0.053,0.211,-5.337
0.168,0.054,0.215,-5.337
0.181,0.056,0.213,-5.337
0.248,0.052,0.210,-5.337
0.239,0.051,0.208,-5.337
0.238,0.052,0.212,-5.337
0.294,0.053,0.214,-5.337
0.298,0.053,0.210,-5.337
0.255,0.053,0.208,-5.337
0.222,0.051,0.209,-5.337
0.237,0.053,0.211,-5.337
0.184,0.054,0.215,-5.337
0.200,0.052,0.218,-5.337
0.258,0.049,0.217,-5.337
0.220,0.053,0.211,-5.337
0.191,0.053,0.207,-5.337
0.217,0.051,0.207,-5.337
0.212,0.051,0.205,-5.337
0.198,0.051,0.204,-5.337
0.223,0.050,0.207,-5.337
0.246,0.048,0.214,-5.337
0.243,0.045,0.216,-5.337
0.247,0.049,0.218,-5.337
0.216,0.049,0.219,-5.337
0.181,0.051,0.218,-5.337
0.176,0.049,0.214,-5.337
0.241,0.049,0.211,-5.337
0.265,0.050,0.212,-5.337
0.185,0.055,0.213,-5.337
0.114,0.058,0.213,-5.337
0.113,0.053,0.209,-5.337
0.210,0.050,0.209,-5.337
0.229,0.052,0.210,-5.337
0.173,0.058,0.213,-5.337
0.178,0.058,0.215,-5.337
0.197,0.056,0.218,-5.337
0.171,0.059,0.218,-5.337
0.191,0.060,0.216,-5.337
0.156,0.062,0.215,-5.337
0.154,0.061,0.215,-5.337
0.154,0.063,0.211,-5.337
0.155,0.062,0.209,-5.337
0.175,0.057,0.211,-5.337
0.197,0.055,0.211,-5.337
0.194,0.052,0.211,-5.337
0.215,0.053,0.212,-5.337
0.246,0.049,0.212,-5.337
0.248,0.051,0.213,-5.337
0.206,0.056,0.214,-5.337
0.164,0.061,0.216,-5.337
0.149,0.061,0.217,-5.337
0.221,0.055,0.217,-5.337
0.243,0.054,0.216,-5.337
0.182,0.059,0.212,-5.337
0.142,0.058,0.211,-5.337
0.159,0.057,0.212,-5.337
0.166,0.057,0.215,-5.337
0.188,0.055,0.213,-5.337
0.211,0.055,0.210,-5.337
0.261,0.053,0.208,-5.337
0.235,0.050,0.210,-5.337
0.143,0.051,0.215,-5.337
0.206,0.051,0.215,-5.337
0.275,0.050,0.213,-5.337
0.270,0.052,0.213,-5.337
0.222,0.053,0.213,-5.337
0.214,0.055,0.216,-5.337
0.202,0.056,0.214,-5.337
0.194,0.057,0.211,-5.337
0.181,0.059,0.209,-5.337
0.184,0.056,0.211,-5.337
0.195,0.055,0.213,-5.337
0.227,0.054,0.215,-5.337
0.191,0.058,0.215,-5.337
0.172,0.060,0.218,-5.337
0.143,0.060,0.219,-5.337
0.142,0.059,0.218,-5.337
0.202,0.055,0.215,-5.337
0.188,0.055,0.210,-5.337
0.192,0.054,0.209,-5.337
0.198,0.055,0.211,-5.337
0.205,0.054,0.215,-5.337
0.210,0.054,0.215,-5.337
0.180,0.055,0.212,-5.337
0.165,0.054,0.211,-5.337
0.211,0.057,0.213,-5.337
0.157,0.059,0.212,-5.337
0.135,0.059,0.210,-5.337
0.192,0.055,0.211,-5.337
0.188,0.056,0.214,-5.337
0.154,0.057,0.212,-5.337
0.168,0.058,0.209,-5.337
0.175,0.058,0.210,-5.337
0.168,0.061,0.215,-5.337
0.160,0.061,0.215,-5.337
0.192,0.057,0.214,-5.337
0.183,0.057,0.216,-5.337
0.166,0.056,0.214,-5.337
0.177,0.058,0.212,-5.337
0.182,0.057,0.210,-5.337
0.213,0.055,0.211,-5.337
0.204,0.055,0.211,-5.337
0.185,0.057,0.213,-5.337
0.197,0.058,0.213,-5.337
0.220,0.056,0.212,-5.337
0.308,0.055,0.207,-5.337
0.254,0.056,0.208,-5.337
0.175,0.056,0.212,-5.337
0.190,0.056,0.217,-5.337
0.186,0.057,0.221,-5.337
0.190,0.058,0.218,-5.337
0.183,0.059,0.214,-5.337
0.139,0.059,0.212,-5.337
0.135,0.060,0.208,-5.337
0.146,0.058,0.208,-5.337
0.163,0.056,0.208,-5.337
0.178,0.057,0.211,-5.337
0.236,0.056,0.210,-5.337
0.255,0.054,0.210,-5.337
0.174,0.054,0.213,-5.337
0.164,0.056,0.215,-5.337
0.185,0.055,0.211,-5.337
0.217,0.054,0.207,-5.337
0.270,0.055,0.210,-5.337
0.248,0.054,0.214,-5.337
0.229,0.054,0.212,-5.337
0.165,0.055,0.212,-5.337
0.204,0.057,0.215,-5.337
0.244,0.055,0.211,-5.337
0.275,0.054,0.212,-5.337
0.269,0.055,0.212,-5.337
0.179,0.056,0.212,-5.337
0.177,0.056,0.212,-5.337
0.167,0.060,0.213,-5.337
0.181,0.058,0.210,-5.337
0.233,0.057,0.211,-5.337
0.249,0.057,0.213,-5.337
0.189,0.058,0.211,-5.337
0.167,0.057,0.209,-5.337
0.151,0.059,0.212,-5.337
0.165,0.060,0.216,-5.337
0.163,0.061,0.213,-5.337
0.156,0.057,0.210,-5.337
0.153,0.057,0.209,-5.337
0.197,0.055,0.211,-5.337
0.235,0.052,0.210,-5.337
0.225,0.055,0.211,-5.337
0.201,0.058,0.212,-5.337
0.194,0.056,0.209,-5.337
0.221,0.054,0.207,-5.337
0.192,0.058,0.212,-5.337
0.131,0.058,0.215,-5.337
0.148,0.056,0.215,-5.337
0.164,0.052,0.212,-5.337
0.216,0.053,0.210,-5.337
0.220,0.051,0.210,-5.337
0.250,0.049,0.209,-5.337
0.210,0.054,0.209,-5.337
0.182,0.053,0.212,-5.337
0.222,0.048,0.211,-5.337
0.164,0.049,0.210,-5.337
0.167,0.050,0.213,-5.337
0.190,0.053,0.214,-5.337
0.129,0.056,0.213,-5.337
0.064,0.058,0.213,-5.337
0.123,0.053,0.211,-5.337
0.165,0.050,0.212,-5.337
0.133,0.055,0.211,-5.337
0.129,0.055,0.207,-5.337
0.188,0.053,0.209,-5.337
0.214,0.051,0.208,-5.337
0.266,0.049,0.212,-5.337
0.274,0.047,0.215,-5.337
0.215,0.049,0.214,-5.337
0.146,0.052,0.213,-5.337
0.118,0.052,0.212,-5.337
0.133,0.050,0.210,-5.337
0.186,0.048,0.214,-5.337
0.187,0.045,0.213,-5.337
0.164,0.049,0.209,-5.337
0.135,0.050,0.209,-5.337
0.140,0.049,0.210,-5.337
0.150,0.047,0.210,-5.337
0.148,0.048,0.210,-5.337
0.133,0.046,0.208,-5.337
0.132,0.045,0.212,-5.337
0.145,0.045,0.216,-5.337
0.134,0.048,0.217,-5.337
0.205,0.046,0.213,-5.337
0.242,0.046,0.209,-5.337
0.174,0.047,0.214,-5.337
0.161,0.046,0.217,-5.337
0.162,0.046,0.216,-5.337
0.165,0.045,0.214,-5.337
0.186,0.047,0.217,-5.337
0.159,0.048,0.213,-5.337
0.148,0.045,0.207,-5.337
0.172,0.043,0.202,-5.337
0.187,0.044,0.208,-5.337
0.190,0.047,0.212,-5.337
0.184,0.047,0.216,-5.337
0.177,0.048,0.218,-5.337
0.180,0.048,0.216,-5.337
0.219,0.047,0.213,-5.337
0.269,0.050,0.210,-5.337
0.253,0.049,0.208,-5.337
0.219,0.048,0.210,-5.337
0.208,0.047,0.215,-5.337
0.203,0.047,0.218,-5.337
0.228,0.045,0.215,-5.337
0.235,0.049,0.211,-5.337
0.208,0.047,0.211,-5.337
0.186,0.049,0.212,-5.337
0.202,0.049,0.216,-5.337
0.216,0.046,0.213,-5.337
0.225,0.044,0.211,-5.337
0.189,0.044,0.213,-5.337
0.175,0.044,0.212,-5.337
0.196,0.043,0.210,-5.337
0.178,0.045,0.215,-5.337
0.179,0.045,0.221,-5.337
0.133,0.047,0.217,-5.337
0.147,0.045,0.213,-5.337
0.197,0.043,0.212,-5.337
0.188,0.047,0.213,-5.337
0.136,0.049,0.212,-5.337
0.099,0.049,0.212,-5.337
0.127,0.043,0.210,-5.337
0.186,0.044,0.210,-5.337
0.198,0.043,0.215,-5.337
0.166,0.040,0.219,-5.337
0.160,0.042,0.219,-5.337
0.157,0.042,0.217,-5.337
0.157,0.040,0.212,-5.337
0.153,0.043,0.208,-5.337
0.158,0.045,0.206,-5.337
0.172,0.043,0.208,-5.337
0.224,0.043,0.212,-5.337
0.188,0.048,0.216,-5.337
0.172,0.048,0.214,-5.337
0.225,0.046,0.212,-5.337
0.240,0.043,0.207,-5.337
0.165,0.047,0.203,-5.337
0.143,0.043,0.205,-5.337
0.146,0.042,0.210,-5.337
0.135,0.041,0.213,-5.337
0.131,0.042,0.215,-5.337
0.136,0.041,0.214,-5.337
0.158,0.046,0.215,-5.337
0.229,0.045,0.216,-5.337
0.234,0.041,0.214,-5.337
0.196,0.039,0.209,-5.337
0.164,0.041,0.207,-5.337
0.164,0.040,0.209,-5.337
0.168,0.040,0.214,-5.337
0.211,0.040,0.215,-5.337
0.195,0.040,0.211,-5.337
0.168,0.040,0.206,-5.337
0.173,0.040,0.205,-5.337
0.168,0.040,0.212,-5.337
0.105,0.044,0.214,-5.337
0.106,0.041,0.212,-5.337
0.167,0.037,0.209,-5.337
0.131,0.039,0.212,-5.337
0.171,0.038,0.213,-5.337
0.258,0.039,0.210,-5.337
0.185,0.036,0.209,-5.337
0.159,0.037,0.211,-5.337
0.178,0.038,0.209,-5.337
0.181,0.040,0.207,-5.337
0.201,0.037,0.207,-5.337
0.205,0.036,0.209,-5.337
0.197,0.037,0.210,-5.337
0.200,0.036,0.211,-5.337
0.202,0.038,0.209,-5.337
0.239,0.036,0.205,-5.337
0.237,0.037,0.208,-5.337
0.199,0.038,0.212,-5.337
0.236,0.039,0.214,-5.337
0.250,0.039,0.212,-5.337
0.226,0.041,0.212,-5.337
0.202,0.040,0.211,-5.337
0.184,0.042,0.212,-5.337
0.157,0.045,0.213,-5.337
0.111,0.042,0.212,-5.337
0.132,0.042,0.211,-5.337
0.153,0.041,0.211,-5.337
0.099,0.038,0.212,-5.337
0.092,0.038,0.213,-5.337
0.138,0.038,0.211,-5.337
0.136,0.040,0.208,-5.337
0.163,0.038,0.208,-5.337
0.241,0.034,0.213,-5.337
0.224,0.035,0.215,-5.337
0.152,0.035,0.214,-5.337
0.175,0.036,0.212,-5.337
0.213,0.041,0.212,-5.337
0.148,0.045,0.216,-5.337
0.131,0.042,0.215,-5.337
0.205,0.037,0.212,-5.337
0.225,0.036,0.208,-5.337
0.230,0.035,0.209,-5.337
0.225,0.038,0.213,-5.337
0.179,0.040,0.215,-5.337
0.139,0.038,0.212,-5.337
0.147,0.039,0.209,-5.337
0.179,0.040,0.203,-5.337
0.209,0.041,0.203,-5.337
0.237,0.036,0.209,-5.337
0.229,0.037,0.213,-5.337
0.181,0.038,0.215,-5.337
0.176,0.046,0.218,-5.337
0.175,0.047,0.217,-5.337
0.151,0.044,0.212,-5.337
0.148,0.040,0.208,-5.337
0.175,0.041,0.212,-5.337
0.156,0.044,0.214,-5.337
0.142,0.045,0.214,-5.337
0.177,0.044,0.210,-5.337
0.229,0.043,0.210,-5.337
0.215,0.043,0.214,-5.337
0.183,0.044,0.216,-5.337
0.166,0.042,0.216,-5.337
0.130,0.043,0.209,-5.337
0.118,0.044,0.206,-5.337
0.191,0.045,0.209,-5.337
0.203,0.043,0.213,-5.337
0.164,0.039,0.213,-5.337
0.180,0.040,0.215,-5.337
0.189,0.039,0.214,-5.337
0.159,0.038,0.211,-5.337
0.204,0.036,0.209,-5.337
0.226,0.037,0.209,-5.337
0.235,0.039,0.211,-5.337
0.223,0.040,0.211,-5.337
0.188,0.038,0.212,-5.337
0.171,0.040,0.212,-5.337
0.223,0.041,0.211,-5.337
0.249,0.039,0.213,-5.337
0.160,0.044,0.215,-5.337
0.126,0.043,0.219,-5.337
0.183,0.040,0.219,-5.337
0.155,0.045,0.217,-5.337
0.167,0.043,0.212,-5.337
0.184,0.040,0.213,-5.337
0.197,0.037,0.217,-5.337
0.194,0.037,0.215,-5.337
0.203,0.035,0.212,-5.337
0.244,0.032,0.212,-5.337
0.273,0.033,0.211,-5.337
0.222,0.037,0.209,-5.337
0.222,0.036,0.211,-5.337
0.213,0.035,0.213,-5.337
0.138,0.041,0.212,-5.337
0.083,0.044,0.209,-5.337
0.078,0.041,0.208,-5.337
0.119,0.041,0.210,-5.337
0.155,0.039,0.212,-5.337
0.233,0.036,0.214,-5.337
0.211,0.037,0.212,-5.337
0.210,0.037,0.212,-5.337
0.172,0.041,0.215,-5.337
0.161,0.042,0.215,-5.337
0.186,0.043,0.212,-5.337
0.204,0.042,0.208,-5.337
0.192,0.040,0.212,-5.337
0.198,0.040,0.215,-5.337
0.194,0.042,0.210,-5.337
0.206,0.043,0.206,-5.337
0.175,0.047,0.208,-5.337
0.145,0.044,0.211,-5.337
0.169,0.041,0.213,-5.337
0.194,0.043,0.216,-5.337
0.169,0.042,0.214,-5.337
0.201,0.039,0.211,-5.337
0.208,0.040,0.212,-5.337
0.243,0.037,0.214,-5.337
0.190,0.039,0.215,-5.337
0.148,0.037,0.215,-5.337
0.168,0.037,0.212,-5.337
0.176,0.038,0.208,-5.337
0.233,0.035,0.209,-5.337
0.259,0.037,0.212,-5.337
0.211,0.039,0.213,-5.337
0.171,0.041,0.211,-5.337
0.148,0.041,0.214,-5.337
0.152,0.042,0.213,-5.337
0.130,0.042,0.209,-5.337
0.146,0.040,0.210,-5.337
0.228,0.038,0.213,-5.337
0.241,0.041,0.215,-5.337
0.202,0.041,0.214,-5.337
0.222,0.040,0.210,-5.337
0.230,0.038,0.210,-5.337
0.223,0.039,0.208,-5.337
0.201,0.042,0.209,-5.337
0.178,0.045,0.212,-5.337
0.178,0.044,0.217,-5.337
0.200,0.043,0.216,-5.337
0.195,0.045,0.213,-5.337
0.165,0.044,0.209,-5.337
0.126,0.043,0.206,-5.337
0.150,0.043,0.210,-5.337
0.220,0.043,0.216,-5.337
0.220,0.047,0.214,-5.337
0.172,0.053,0.209,-5.337
0.157,0.051,0.210,-5.337
0.168,0.049,0.217,-5.337
0.215,0.047,0.220,-5.337
0.176,0.046,0.217,-5.337
0.135,0.048,0.213,-5.337
0.142,0.049,0.209,-5.337
0.174,0.049,0.209,-5.337
0.239,0.047,0.209,-5.337
0.223,0.050,0.211,-5.337
0.188,0.050,0.210,-5.337
0.208,0.048,0.214,-5.337
0.218,0.045,0.213,-5.337
0.184,0.047,0.213,-5.337
0.180,0.047,0.211,-5.337
0.186,0.046,0.213,-5.337
0.170,0.044,0.215,-5.337
0.196,0.044,0.214,-5.337
0.220,0.038,0.209,-5.337
0.251,0.038,0.209,-5.337
0.250,0.041,0.212,-5.337
0.225,0.041,0.212,-5.337
0.186,0.044,0.213,-5.337
0.193,0.042,0.211,-5.337
0.192,0.044,0.211,-5.337
0.151,0.045,0.212,-5.337
0.195,0.045,0.215,-5.337
0.242,0.042,0.215,-5.337
0.242,0.044,0.214,-5.337
0.194,0.044,0.213,-5.337
0.184,0.046,0.214,-5.337
0.209,0.044,0.211,-5.337
0.238,0.041,0.210,-5.337
0.235,0.042,0.211,-5.337
0.221,0.045,0.210,-5.337
0.198,0.048,0.206,-5.337
0.184,0.048,0.205,-5.337
0.175,0.048,0.206,-5.337
0.200,0.047,0.208,-5.337
0.271,0.046,0.213,-5.337
0.192,0.051,0.217,-5.337
0.123,0.054,0.217,-5.337
0.104,0.056,0.212,-5.337
0.126,0.055,0.206,-5.337
0.173,0.054,0.210,-5.337
0.165,0.050,0.213,-5.337
0.160,0.048,0.212,-5.337
0.138,0.053,0.209,-5.337
0.154,0.052,0.204,-5.337
0.203,0.053,0.206,-5.337
0.211,0.055,0.213,-5.337
0.187,0.050,0.216,-5.337
0.158,0.049,0.214,-5.337
0.224,0.048,0.214,-5.337
0.273,0.045,0.215,-5.337
0.261,0.048,0.217,-5.337
0.226,0.050,0.216,-5.337
0.215,0.050,0.215,-5.337
0.193,0.049,0.210,-5.337
0.180,0.051,0.210,-5.337
0.206,0.053,0.211,-5.337
0.209,0.056,0.213,-5.337
0.187,0.055,0.214,-5.337
0.212,0.054,0.213,-5.337
0.201,0.052,0.210,-5.337
0.215,0.051,0.209,-5.337
0.219,0.054,0.210,-5.337
0.177,0.055,0.213,-5.337
0.172,0.056,0.213,-5.337
0.214,0.055,0.211,-5.337
0.246,0.053,0.209,-5.337
0.185,0.052,0.212,-5.337
0.181,0.053,0.215,-5.337
0.185,0.055,0.213,-5.337
0.199,0.056,0.213,-5.337
0.153,0.057,0.212,-5.337
0.125,0.053,0.214,-5.337
0.167,0.055,0.216,-5.337
0.155,0.060,0.216,-5.337
0.151,0.060,0.211,-5.337
0.188,0.060,0.210,-5.337
0.225,0.058,0.212,-5.337
0.227,0.055,0.216,-5.337
0.185,0.059,0.215,-5.337
0.096,0.064,0.212,-5.337
0.086,0.061,0.207,-5.337
0.153,0.061,0.211,-5.337
0.208,0.059,0.216,-5.337
0.217,0.054,0.217,-5.337
0.169,0.057,0.213,-5.337
0.187,0.057,0.212,-5.337
0.230,0.058,0.211,-5.337
0.223,0.060,0.211,-5.337
0.191,0.060,0.215,-5.337
0.241,0.059,0.217,-5.337
0.200,0.062,0.213,-5.337
0.149,0.063,0.208,-5.337
0.144,0.064,0.206,-5.337
0.208,0.061,0.207,-5.337
0.231,0.058,0.212,-5.337
0.218,0.058,0.215,-5.337
0.183,0.057,0.213,-5.337
0.146,0.060,0.209,-5.337
0.152,0.059,0.209,-5.337
0.223,0.057,0.204,-5.337
0.173,0.059,0.204,-5.337
0.138,0.059,0.209,-5.337
0.222,0.061,0.215,-5.337
0.183,0.063,0.215,-5.337
0.182,0.060,0.214,-5.337
0.187,0.056,0.211,-5.337
0.202,0.056,0.210,-5.337
0.199,0.054,0.213,-5.337
0.195,0.053,0.213,-5.337
0.219,0.054,0.210,-5.337
0.217,0.054,0.210,-5.337
0.169,0.055,0.212,-5.337
0.208,0.056,0.212,-5.337
0.227,0.057,0.212,-5.337
0.163,0.060,0.211,-5.337
0.151,0.061,0.210,-5.337
0.181,0.058,0.209,-5.337
0.235,0.061,0.214,-5.337
0.180,0.064,0.214,-5.337
0.176,0.061,0.214,-5.337
0.227,0.058,0.210,-5.337
0.200,0.058,0.211,-5.337
0.196,0.056,0.211,-5.337
0.177,0.060,0.212,-5.337
0.165,0.058,0.210,-5.337
0.165,0.058,0.210,-5.337
0.226,0.058,0.215,-5.337
0.196,0.061,0.211,-5.337
0.172,0.062,0.206,-5.337
0.163,0.058,0.208,-5.337
0.171,0.058,0.209,-5.337
0.179,0.059,0.212,-5.337
0.228,0.060,0.216,-5.337
0.224,0.061,0.214,-5.337
0.219,0.058,0.209,-5.337
0.228,0.056,0.205,-5.337
0.186,0.058,0.209,-5.337
0.171,0.060,0.214,-5.337
0.200,0.062,0.216,-5.337
0.238,0.062,0.212,-5.337
0.276,0.062,0.209,-5.337
0.259,0.061,0.208,-5.337
0.236,0.064,0.211,-5.337
0.183,0.062,0.212,-5.337
0.179,0.061,0.213,-5.337
0.195,0.060,0.214,-5.337
0.239,0.064,0.213,-5.337
0.245,0.063,0.213,-5.337
0.252,0.062,0.212,-5.337
0.206,0.063,0.208,-5.337
0.163,0.064,0.206,-5.337
0.156,0.062,0.206,-5.337
0.211,0.062,0.209,-5.337
0.173,0.063,0.210,-5.337
0.166,0.062,0.209,-5.337
0.174,0.063,0.208,-5.337
0.129,0.069,0.213,-5.337
0.132,0.069,0.215,-5.337
0.156,0.067,0.213,-5.337
0.110,0.068,0.214,-5.337
0.110,0.068,0.213,-5.337
0.171,0.069,0.212,-5.337
0.196,0.065,0.210,-5.337
0.171,0.067,0.210,-5.337
0.146,0.069,0.208,-5.337
0.161,0.068,0.208,-5.337
0.168,0.064,0.208,-5.337
0.187,0.064,0.209,-5.337
0.196,0.060,0.214,-5.337
0.226,0.056,0.213,-5.337
0.258,0.058,0.214,-5.337
0.256,0.060,0.215,-5.337
0.224,0.057,0.214,-5.337
0.189,0.057,0.213,-5.337
0.167,0.058,0.214,-5.337
0.189,0.059,0.211,-5.337
0.213,0.062,0.208,-5.337
0.221,0.065,0.208,-5.337
0.196,0.067,0.212,-5.337
0.159,0.063,0.212,-5.337
0.136,0.064,0.212,-5.337
0.213,0.062,0.215,-5.337
0.282,0.061,0.217,-5.337
0.241,0.058,0.213,-5.337
0.177,0.060,0.211,-5.337
0.136,0.062,0.211,-5.337
0.235,0.059,0.214,-5.337
0.229,0.059,0.211,-5.337
0.161,0.063,0.209,-5.337
0.155,0.066,0.212,-5.337
0.219,0.064,0.217,-5.337
0.211,0.065,0.220,-5.337
0.141,0.068,0.217,-5.337
0.135,0.064,0.212,-5.337
0.145,0.060,0.207,-5.337
0.166,0.058,0.204,-5.337
0.194,0.058,0.204,-5.337
0.175,0.061,0.208,-5.337
0.154,0.060,0.210,-5.337
0.163,0.059,0.209,-5.337
0.164,0.060,0.213,-5.337
0.189,0.059,0.215,-5.337
0.214,0.059,0.218,-5.337
0.188,0.061,0.220,-5.337
0.150,0.059,0.215,-5.337
0.166,0.056,0.208,-5.337
0.185,0.061,0.207,-5.337
0.188,0.061,0.209,-5.337
0.168,0.060,0.209,-5.337
0.185,0.060,0.213,-5.337
0.193,0.065,0.213,-5.337
0.186,0.068,0.213,-5.337
0.196,0.067,0.213,-5.337
0.185,0.064,0.216,-5.337
0.222,0.058,0.216,-5.337
0.256,0.055,0.211,-5.337
0.236,0.055,0.208,-5.337
0.194,0.061,0.209,-5.337
0.200,0.059,0.209,-5.337
0.199,0.060,0.210,-5.337
0.197,0.060,0.213,-5.337
0.162,0.061,0.218,-5.337
0.159,0.059,0.218,-5.337
0.180,0.057,0.213,-5.337
0.168,0.059,0.209,-5.337
0.181,0.058,0.209,-5.337
0.208,0.057,0.209,-5.337
0.197,0.055,0.213,-5.337
0.224,0.054,0.217,-5.337
0.184,0.054,0.217,-5.337
0.136,0.054,0.218,-5.337
0.139,0.055,0.214,-5.337
0.182,0.054,0.209,-5.337
0.226,0.055,0.206,-5.337
0.210,0.056,0.209,-5.337
0.181,0.058,0.215,-5.337
0.211,0.056,0.215,-5.337
0.269,0.054,0.216,-5.337
0.208,0.061,0.215,-5.337
0.177,0.061,0.212,-5.337
0.154,0.058,0.211,-5.337
0.136,0.058,0.212,-5.337
0.107,0.060,0.211,-5.337
0.148,0.060,0.209,-5.337
0.165,0.057,0.208,-5.337
0.135,0.059,0.209,-5.337
0.135,0.062,0.210,-5.337
0.165,0.060,0.212,-5.337
0.224,0.056,0.212,-5.337
0.216,0.053,0.213,-5.337
0.201,0.054,0.208,-5.337
0.242,0.055,0.207,-5.337
0.257,0.054,0.207,-5.337
0.244,0.054,0.211,-5.337
0.250,0.053,0.213,-5.337
0.225,0.056,0.211,-5.337
0.171,0.058,0.207,-5.337
0.108,0.056,0.208,-5.337
0.111,0.052,0.211,-5.337
0.165,0.050,0.213,-5.337
0.138,0.050,0.215,-5.337
0.143,0.051,0.220,-5.337
0.188,0.054,0.219,-5.337
0.170,0.051,0.214,-5.337
0.173,0.051,0.207,-5.337
0.171,0.054,0.207,-5.337
0.210,0.051,0.210,-5.337
0.240,0.048,0.212,-5.337
0.217,0.045,0.211,-5.337
0.214,0.047,0.208,-5.337
0.173,0.052,0.210,-5.337
0.147,0.054,0.211,-5.337
0.151,0.054,0.210,-5.337
0.151,0.051,0.207,-5.337
0.142,0.048,0.213,-5.337
0.170,0.048,0.214,-5.337
0.180,0.053,0.214,-5.337
0.153,0.053,0.212,-5.337
0.220,0.051,0.209,-5.337
0.176,0.050,0.209,-5.337
0.148,0.050,0.215,-5.337
0.157,0.045,0.216,-5.337
0.133,0.046,0.211,-5.337
0.184,0.043,0.209,-5.337
0.246,0.041,0.212,-5.337
0.222,0.043,0.215,-5.337
0.192,0.043,0.216,-5.337
0.161,0.045,0.214,-5.337
0.194,0.044,0.207,-5.337
0.231,0.042,0.207,-5.337
0.231,0.045,0.212,-5.337
0.172,0.048,0.215,-5.337
0.187,0.045,0.213,-5.337
0.170,0.045,0.213,-5.337
0.158,0.047,0.212,-5.337
0.221,0.045,0.212,-5.337
0.256,0.046,0.210,-5.337
0.209,0.049,0.209,-5.337
0.216,0.051,0.210,-5.337
0.241,0.050,0.211,-5.337
0.254,0.048,0.208,-5.337
0.222,0.046,0.206,-5.337
0.202,0.045,0.209,-5.337
0.214,0.046,0.214,-5.337
0.221,0.044,0.217,-5.337
0.201,0.043,0.213,-5.337
0.182,0.045,0.212,-5.337
0.194,0.043,0.212,-5.337
0.233,0.043,0.212,-5.337
0.192,0.044,0.213,-5.337
0.179,0.044,0.211,-5.337
0.184,0.042,0.209,-5.337
0.171,0.043,0.211,-5.337
0.138,0.045,0.213,-5.337
0.120,0.044,0.215,-5.337
0.130,0.043,0.212,-5.337
0.190,0.044,0.210,-5.337
0.185,0.045,0.213,-5.337
0.124,0.044,0.214,-5.337
0.190,0.043,0.213,-5.337
0.148,0.045,0.213,-5.337
0.170,0.041,0.212,-5.337
0.241,0.039,0.213,-5.337
0.222,0.042,0.212,-5.337
0.174,0.042,0.216,-5.337
0.164,0.042,0.217,-5.337
0.189,0.042,0.213,-5.337
0.185,0.040,0.209,-5.337
0.141,0.042,0.209,-5.337
0.136,0.041,0.210,-5.337
0.117,0.042,0.215,-5.337
0.142,0.039,0.216,-5.337
0.214,0.038,0.215,-5.337
0.207,0.039,0.212,-5.337
0.177,0.040,0.212,-5.337
0.206,0.037,0.211,-5.337
0.240,0.036,0.209,-5.337
0.240,0.041,0.209,-5.337
0.203,0.045,0.210,-5.337
0.103,0.045,0.213,-5.337
0.119,0.039,0.214,-5.337
0.202,0.040,0.215,-5.337
0.250,0.039,0.213,-5.337
0.176,0.038,0.214,-5.337
0.177,0.035,0.214,-5.337
0.246,0.036,0.212,-5.337
0.185,0.035,0.208,-5.337
0.165,0.036,0.209,-5.337
0.159,0.036,0.213,-5.337
0.209,0.034,0.216,-5.337
0.211,0.035,0.216,-5.337
0.179,0.037,0.218,-5.337
0.171,0.035,0.218,-5.337
0.174,0.036,0.214,-5.337
0.188,0.038,0.206,-5.337
0.204,0.042,0.206,-5.337
0.175,0.043,0.210,-5.337
0.174,0.041,0.214,-5.337
0.164,0.041,0.214,-5.337
0.152,0.040,0.211,-5.337
0.183,0.038,0.210,-5.337
0.210,0.038,0.210,-5.337
0.233,0.037,0.212,-5.337
0.247,0.036,0.212,-5.337
0.248,0.037,0.215,-5.337
0.244,0.038,0.216,-5.337
0.168,0.042,0.215,-5.337
0.150,0.043,0.211,-5.337
0.132,0.042,0.207,-5.337
0.075,0.040,0.206,-5.337
0.144,0.041,0.211,-5.337
0.197,0.041,0.214,-5.337
0.221,0.039,0.216,-5.337
0.231,0.037,0.216,-5.337
0.195,0.040,0.210,-5.337
0.155,0.041,0.207,-5.337
0.169,0.037,0.210,-5.337
0.211,0.035,0.211,-5.337
0.194,0.040,0.212,-5.337
0.131,0.042,0.210,-5.337
0.112,0.043,0.212,-5.337
0.142,0.041,0.213,-5.337
0.196,0.036,0.216,-5.337
0.218,0.035,0.217,-5.337
0.198,0.034,0.214,-5.337
0.140,0.036,0.210,-5.337
0.160,0.037,0.209,-5.337
0.161,0.041,0.208,-5.337
0.183,0.036,0.213,-5.337
0.247,0.034,0.214,-5.337
0.226,0.036,0.209,-5.337
0.215,0.037,0.209,-5.337
0.242,0.039,0.207,-5.337
0.232,0.038,0.209,-5.337
0.184,0.037,0.214,-5.337
0.190,0.036,0.218,-5.337
0.165,0.035,0.214,-5.337
0.162,0.040,0.212,-5.337
0.195,0.042,0.209,-5.337
0.195,0.042,0.209,-5.337
0.158,0.041,0.212,-5.337
0.173,0.037,0.211,-5.337
0.205,0.036,0.208,-5.337
0.212,0.041,0.210,-5.337
0.207,0.038,0.210,-5.337
0.212,0.040,0.211,-5.337
0.203,0.037,0.211,-5.337
0.201,0.037,0.210,-5.337
0.182,0.038,0.212,-5.337
0.205,0.040,0.210,-5.337
0.156,0.041,0.210,-5.337
0.183,0.039,0.209,-5.337
0.244,0.039,0.210,-5.337
0.217,0.040,0.212,-5.337
0.179,0.038,0.214,-5.337
0.189,0.039,0.214,-5.337
0.221,0.042,0.211,-5.337
0.281,0.038,0.208,-5.337
0.258,0.039,0.210,-5.337
0.209,0.041,0.213,-5.337
0.239,0.039,0.213,-5.337
0.258,0.039,0.211,-5.337
0.185,0.040,0.212,-5.337
0.135,0.037,0.209,-5.337
0.180,0.039,0.208,-5.337
0.257,0.040,0.211,-5.337
0.203,0.040,0.210,-5.337
0.100,0.041,0.211,-5.337
0.128,0.038,0.212,-5.337
0.219,0.035,0.216,-5.337
0.215,0.038,0.214,-5.337
0.139,0.038,0.211,-5.337
0.168,0.038,0.209,-5.337
0.188,0.042,0.209,-5.337
0.186,0.037,0.208,-5.337
0.171,0.035,0.209,-5.337
0.220,0.034,0.210,-5.337
0.189,0.040,0.212,-5.337
0.120,0.042,0.214,-5.337
0.097,0.040,0.212,-5.337
0.170,0.037,0.211,-5.337
0.273,0.036,0.209,-5.337
0.258,0.037,0.209,-5.337
0.271,0.038,0.214,-5.337
0.204,0.040,0.218,-5.337
0.141,0.037,0.216,-5.337
0.186,0.037,0.213,-5.337
0.221,0.038,0.213,-5.337
0.223,0.038,0.214,-5.337
0.235,0.037,0.211,-5.337
0.248,0.035,0.209,-5.337
0.259,0.036,0.208,-5.337
0.235,0.038,0.212,-5.337
0.182,0.039,0.213,-5.337
0.193,0.042,0.215,-5.337
0.185,0.042,0.214,-5.337
0.180,0.044,0.212,-5.337
0.136,0.043,0.208,-5.337
0.129,0.043,0.208,-5.337
0.120,0.043,0.210,-5.337
0.105,0.043,0.212,-5.337
0.189,0.039,0.213,-5.337
0.184,0.040,0.216,-5.337
0.168,0.038,0.213,-5.337
0.158,0.041,0.209,-5.337
0.215,0.040,0.210,-5.337
0.245,0.041,0.212,-5.337
0.206,0.043,0.213,-5.337
0.213,0.045,0.218,-5.337
0.270,0.045,0.220,-5.337
0.284,0.042,0.217,-5.337
0.242,0.040,0.213,-5.337
0.202,0.041,0.213,-5.337
0.240,0.043,0.214,-5.337
0.235,0.045,0.211,-5.337
0.249,0.044,0.210,-5.337
0.266,0.043,0.209,-5.337
0.234,0.046,0.208,-5.337
0.218,0.045,0.209,-5.337
0.228,0.042,0.213,-5.337
0.237,0.042,0.212,-5.337
0.220,0.039,0.213,-5.337
0.211,0.040,0.218,-5.337
0.160,0.045,0.218,-5.337
0.074,0.047,0.216,-5.337
0.122,0.048,0.213,-5.337
0.190,0.050,0.210,-5.337
0.192,0.050,0.212,-5.337
0.202,0.046,0.216,-5.337
0.205,0.045,0.215,-5.337
0.200,0.044,0.212,-5.337
0.227,0.041,0.214,-5.337
0.228,0.041,0.216,-5.337
0.182,0.044,0.215,-5.337
0.106,0.047,0.213,-5.337
0.123,0.048,0.212,-5.337
0.156,0.051,0.214,-5.337
0.162,0.047,0.213,-5.337
0.217,0.046,0.215,-5.337
0.269,0.040,0.212,-5.337
0.271,0.041,0.211,-5.337
0.270,0.041,0.212,-5.337
0.259,0.048,0.213,-5.337
0.190,0.048,0.213,-5.337
0.159,0.045,0.214,-5.337
0.180,0.044,0.213,-5.337
0.153,0.050,0.210,-5.337
0.163,0.049,0.210,-5.337
0.230,0.044,0.211,-5.337
0.235,0.045,0.211,-5.337
0.202,0.044,0.212,-5.337
0.188,0.048,0.214,-5.337
0.221,0.053,0.214,-5.337
0.234,0.055,0.212,-5.337
0.192,0.054,0.212,-5.337
0.171,0.054,0.214,-5.337
0.241,0.050,0.215,-5.337
0.273,0.045,0.217,-5.337
0.220,0.047,0.214,-5.337
0.164,0.047,0.211,-5.337
0.222,0.046,0.212,-5.337
0.241,0.049,0.215,-5.337
0.227,0.047,0.215,-5.337
