[Parameters]
Operating Mode, Feedback
Subject  AA..ZZ, WT
Session  0..99, 44
No. Trials (1..9999), 500
Mouse Number, 1
Pressure Probe Serial Port, \00\00\00\04COM4
Save additional csv file, TRUE
Save using mouse number, FALSE
A/D Monitor Rate (Hz), 30000.000000
A/D Stimulate Rate (Hz), 30000.000000
A/D input range (+/- V), 5
No. Channels to acquire (N), 2
Pre-Stim Acq. time (ms), 100.000000
Post-Stim Acq. time (ms), 900.000000
Analysis window parameters.M-response Start (ms), 1.100000
Analysis window parameters.M-response Duration (ms), 5.500000
Analysis window parameters.H-response Duration (ms), 6.000000
Analysis window parameters.H-response Start (ms), 6.500000
Feedback window, H response
Proportional gain, 0.100000
Target value, 6.700000
Feedback Ch., 1
Stim Channel to Control (1-4), 4
Trial, 23
Wait for EMG Conditions, FALSE
Channel to monitor (0 - N-1), 1
EMG Hi Limit, 2.000000
EMG Lo Limit, 0.001000
Inter-Stim delay (sec), 10.000000
EMG Monitor Mode, Mean
Time to run Long Stim.(sec), 30
Save Long Stim Data?, OFF
BURST Save time (ms), 1000
BURST Save Interval (x above), 10
Long-Stim. Rep. Rate (Hz), 10.000000
Stim type cluster array.<size(s)>, 4
Stim type cluster array 0.Stimulus Output, Electrical
Stim type cluster array 1.Stimulus Output, OFF
Stim type cluster array 2.Stimulus Output, OFF
Stim type cluster array 3.Stimulus Output, Motor Length
Stim specs cluster array.<size(s)>, 4
Stim specs cluster array 0.Initial Stimulus ampl., 0.300000
Stim specs cluster array 0.Maximum Stimulus, 1.120000
Stim specs cluster array 0.#Pulses in train, 4
Stim specs cluster array 0.Peak Level time (ms), 1.000000
Stim specs cluster array 0.Total pulse period (ms), 150.000000
Stim specs cluster array 0.Start Delay (ms), -50.000000
Stim specs cluster array 0.Pulse Shape, Square
Stim specs cluster array 0.Ramp/Rel. time (ms), 0.100000
Stim specs cluster array 0.Peak Amplitude (V), 0.120000
Stim specs cluster array 1.Initial Stimulus ampl., 0.000000
Stim specs cluster array 1.Maximum Stimulus, 0.000000
Stim specs cluster array 1.#Pulses in train, 3
Stim specs cluster array 1.Peak Level time (ms), 29.000000
Stim specs cluster array 1.Total pulse period (ms), 200.000000
Stim specs cluster array 1.Start Delay (ms), 0.000000
Stim specs cluster array 1.Pulse Shape, Square
Stim specs cluster array 1.Ramp/Rel. time (ms), 0.000000
Stim specs cluster array 1.Peak Amplitude (V), 2.000000
Stim specs cluster array 2.Initial Stimulus ampl., 0.000000
Stim specs cluster array 2.Maximum Stimulus, 0.000000
Stim specs cluster array 2.#Pulses in train, 1
Stim specs cluster array 2.Peak Level time (ms), 25.000000
Stim specs cluster array 2.Total pulse period (ms), 200.000000
Stim specs cluster array 2.Start Delay (ms), 0.000000
Stim specs cluster array 2.Pulse Shape, Square
Stim specs cluster array 2.Ramp/Rel. time (ms), 20.000000
Stim specs cluster array 2.Peak Amplitude (V), 10.000000
Stim specs cluster array 3.Initial Stimulus ampl., 0.000000
Stim specs cluster array 3.Maximum Stimulus, 15.000000
Stim specs cluster array 3.#Pulses in train, 25
Stim specs cluster array 3.Peak Level time (ms), 0.100000
Stim specs cluster array 3.Total pulse period (ms), 4.000000
Stim specs cluster array 3.Start Delay (ms), 205.000000
Stim specs cluster array 3.Pulse Shape, Triangle
Stim specs cluster array 3.Ramp/Rel. time (ms), 3.000000
Stim specs cluster array 3.Peak Amplitude (V), 0.500000
Force cal. (mN/Volt), 100.000000
Force Range (mN), 100.000000
Length cal. (mm/Volt), 10.000000
Length Range (mm), 10.000000
Stim. 1, 0.300000
Stim. 2, 0.000000
Stim. 3, 0.000000
Stim. 4, 0.000000
Monitor acquire time (ms), 100.000000
EMG graph Ymax, 0.100000
Travel limit (mm), 20.000000
Use Pressure Probe, FALSE
Pressure goal (g), 100
Speed (mm/sec), 5.000000
Dwell time (ms), 100.000000
Pressure limit (g), 500.000000
Channel amplitude offset, 0.000000

[DATA]

0.257,0.065,0.266,-5.337
0.194,0.063,0.266,-5.337
0.145,0.065,0.266,-5.337
0.222,0.064,0.266,-5.337
0.305,0.061,0.266,-5.337
0.246,0.066,0.267,-5.337
0.144,0.064,0.269,-5.337
0.113,0.064,0.269,-5.337
0.204,0.061,0.268,-5.337
0.264,0.060,0.267,-5.337
0.237,0.061,0.269,-5.337
0.220,0.062,0.271,-5.337
0.251,0.060,0.270,-5.337
0.276,0.062,0.271,-5.337
0.226,0.063,0.269,-5.337
0.203,0.066,0.266,-5.337
0.276,0.063,0.267,-5.337
0.292,0.059,0.269,-5.337
0.291,0.058,0.274,-5.337
0.228,0.060,0.270,-5.337
0.150,0.061,0.267,-5.337
0.145,0.061,0.266,-5.337
0.162,0.063,0.267,-5.337
0.237,0.058,0.267,-5.337
0.214,0.061,0.267,-5.337
0.223,0.058,0.270,-5.337
0.304,0.055,0.270,-5.337
0.297,0.054,0.265,-5.337
0.219,0.057,0.264,-5.337
0.181,0.057,0.266,-5.337
0.190,0.055,0.270,-5.337
0.217,0.054,0.272,-5.337
0.196,0.058,0.270,-5.337
0.208,0.054,0.268,-5.337
0.244,0.056,0.265,-5.337
0.217,0.059,0.266,-5.337
0.163,0.062,0.266,-5.337
0.167,0.060,0.264,-5.337
0.183,0.057,0.265,-5.337
0.175,0.058,0.266,-5.337
0.158,0.059,0.263,-5.337
0.174,0.056,0.261,-5.337
0.233,0.053,0.259,-5.337
0.292,0.052,0.262,-5.337
0.278,0.053,0.269,-5.337
0.250,0.055,0.274,-5.337
0.269,0.054,0.272,-5.337
0.286,0.053,0.269,-5.337
0.292,0.053,0.267,-5.337
0.242,0.055,0.264,-5.337
0.230,0.054,0.266,-5.337
0.241,0.056,0.269,-5.337
0.220,0.055,0.268,-5.337
0.196,0.054,0.266,-5.337
0.190,0.054,0.267,-5.337
0.232,0.056,0.273,-5.337
0.181,0.057,0.273,-5.337
0.191,0.058,0.267,-5.337
0.199,0.055,0.263,-5.337
0.210,0.056,0.268,-5.337
0.218,0.057,0.274,-5.337
0.231,0.053,0.274,-5.337
0.218,0.054,0.272,-5.337
0.222,0.055,0.268,-5.337
0.196,0.056,0.268,-5.337
0.208,0.055,0.267,-5.337
0.243,0.056,0.272,-5.337
0.233,0.058,0.268,-5.337
0.148,0.059,0.267,-5.337
0.149,0.055,0.266,-5.337
0.239,0.053,0.265,-5.337
0.236,0.054,0.265,-5.337
0.201,0.055,0.268,-5.337
0.191,0.054,0.268,-5.337
0.150,0.056,0.267,-5.337
0.162,0.058,0.267,-5.337
0.187,0.055,0.265,-5.337
0.159,0.052,0.265,-5.337
0.127,0.054,0.269,-5.337
0.199,0.049,0.273,-5.337
0.197,0.051,0.274,-5.337
0.173,0.052,0.271,-5.337
0.160,0.052,0.268,-5.337
0.213,0.048,0.267,-5.337
0.254,0.047,0.266,-5.337
0.259,0.048,0.269,-5.337
0.244,0.048,0.269,-5.337
0.239,0.052,0.267,-5.337
0.224,0.051,0.262,-5.337
0.157,0.052,0.261,-5.337
0.151,0.048,0.264,-5.337
0.203,0.048,0.267,-5.337
0.217,0.054,0.270,-5.337
0.171,0.058,0.271,-5.337
0.153,0.058,0.267,-5.337
0.185,0.057,0.267,-5.337
0.217,0.056,0.270,-5.337
0.204,0.055,0.271,-5.337
0.213,0.050,0.269,-5.337
0.206,0.049,0.267,-5.337
0.157,0.054,0.267,-5.337
0.120,0.054,0.269,-5.337
0.121,0.055,0.270,-5.337
0.123,0.053,0.267,-5.337
0.163,0.052,0.267,-5.337
0.149,0.055,0.268,-5.337
0.122,0.053,0.269,-5.337
0.206,0.048,0.271,-5.337
0.243,0.049,0.271,-5.337
0.235,0.045,0.266,-5.337
0.242,0.046,0.264,-5.337
0.221,0.049,0.264,-5.337
0.164,0.049,0.266,-5.337
0.186,0.047,0.267,-5.337
0.182,0.053,0.271,-5.337
0.125,0.054,0.271,-5.337
0.126,0.052,0.269,-5.337
0.195,0.047,0.269,-5.337
0.272,0.044,0.269,-5.337
0.308,0.043,0.270,-5.337
0.292,0.048,0.272,-5.337
0.223,0.050,0.272,-5.337
0.178,0.048,0.268,-5.337
0.119,0.050,0.264,-5.337
0.113,0.049,0.265,-5.337
0.183,0.051,0.269,-5.337
0.233,0.050,0.271,-5.337
0.147,0.051,0.273,-5.337
0.111,0.049,0.273,-5.337
0.224,0.049,0.273,-5.337
0.268,0.052,0.269,-5.337
0.214,0.051,0.269,-5.337
0.165,0.052,0.268,-5.337
0.185,0.051,0.265,-5.337
0.188,0.050,0.266,-5.337
0.176,0.048,0.268,-5.337
0.163,0.048,0.272,-5.337
0.194,0.049,0.271,-5.337
0.194,0.052,0.269,-5.337
0.161,0.048,0.267,-5.337
0.155,0.048,0.267,-5.337
0.130,0.052,0.270,-5.337
0.123,0.052,0.272,-5.337
0.168,0.049,0.268,-5.337
0.195,0.050,0.267,-5.337
0.175,0.049,0.267,-5.337
0.212,0.046,0.272,-5.337
0.207,0.046,0.271,-5.337
0.127,0.048,0.271,-5.337
0.100,0.047,0.269,-5.337
0.152,0.043,0.268,-5.337
0.212,0.044,0.269,-5.337
0.211,0.045,0.272,-5.337
0.274,0.042,0.272,-5.337
0.237,0.045,0.269,-5.337
0.163,0.048,0.267,-5.337
0.052,0.052,0.264,-5.337
0.045,0.053,0.262,-5.337
0.117,0.054,0.264,-5.337
0.183,0.052,0.268,-5.337
0.184,0.048,0.270,-5.337
0.188,0.046,0.271,-5.337
0.243,0.045,0.272,-5.337
0.247,0.046,0.272,-5.337
0.221,0.046,0.265,-5.337
0.174,0.046,0.263,-5.337
0.206,0.046,0.265,-5.337
0.230,0.046,0.271,-5.337
0.226,0.045,0.268,-5.337
0.267,0.044,0.264,-5.337
0.225,0.045,0.266,-5.337
0.198,0.045,0.269,-5.337
0.163,0.043,0.268,-5.337
0.188,0.044,0.263,-5.337
0.246,0.046,0.265,-5.337
0.261,0.045,0.270,-5.337
0.189,0.043,0.272,-5.337
0.157,0.046,0.270,-5.337
0.164,0.049,0.266,-5.337
0.198,0.049,0.266,-5.337
0.225,0.049,0.267,-5.337
0.210,0.050,0.263,-5.337
0.198,0.052,0.262,-5.337
0.239,0.052,0.263,-5.337
0.278,0.048,0.265,-5.337
0.238,0.051,0.267,-5.337
0.151,0.052,0.267,-5.337
0.082,0.054,0.266,-5.337
0.106,0.051,0.267,-5.337
0.121,0.051,0.269,-5.337
0.193,0.051,0.267,-5.337
0.335,0.046,0.262,-5.337
0.257,0.051,0.265,-5.337
0.158,0.051,0.267,-5.337
0.187,0.052,0.268,-5.337
0.197,0.051,0.266,-5.337
0.192,0.048,0.267,-5.337
0.206,0.048,0.264,-5.337
0.206,0.052,0.262,-5.337
0.250,0.051,0.261,-5.337
0.271,0.051,0.262,-5.337
0.188,0.054,0.264,-5.337
0.198,0.057,0.266,-5.337
0.192,0.055,0.267,-5.337
0.165,0.056,0.266,-5.337
0.137,0.054,0.266,-5.337
0.112,0.056,0.265,-5.337
0.200,0.054,0.267,-5.337
0.190,0.055,0.270,-5.337
0.117,0.055,0.271,-5.337
0.089,0.052,0.267,-5.337
0.126,0.051,0.262,-5.337
0.138,0.051,0.262,-5.337
0.167,0.054,0.267,-5.337
0.144,0.058,0.273,-5.337
0.160,0.059,0.272,-5.337
0.167,0.055,0.267,-5.337
0.159,0.054,0.264,-5.337
0.170,0.051,0.267,-5.337
0.233,0.047,0.268,-5.337
0.252,0.051,0.266,-5.337
0.214,0.050,0.266,-5.337
0.153,0.052,0.266,-5.337
0.110,0.051,0.268,-5.337
0.117,0.049,0.268,-5.337
0.118,0.051,0.264,-5.337
0.110,0.049,0.265,-5.337
0.080,0.051,0.264,-5.337
0.115,0.049,0.264,-5.337
0.176,0.046,0.266,-5.337
0.187,0.049,0.272,-5.337
0.158,0.052,0.272,-5.337
0.149,0.056,0.266,-5.337
0.202,0.053,0.261,-5.337
0.187,0.054,0.261,-5.337
0.121,0.054,0.265,-5.337
0.190,0.050,0.268,-5.337
0.197,0.051,0.268,-5.337
0.156,0.053,0.272,-5.337
0.167,0.052,0.275,-5.337
0.212,0.051,0.273,-5.337
0.268,0.048,0.270,-5.337
0.245,0.052,0.265,-5.337
0.167,0.058,0.263,-5.337
0.120,0.056,0.264,-5.337
0.146,0.053,0.267,-5.337
0.188,0.051,0.270,-5.337
0.223,0.052,0.272,-5.337
0.214,0.052,0.269,-5.337
0.199,0.058,0.265,-5.337
0.150,0.061,0.263,-5.337
0.179,0.061,0.260,-5.337
0.263,0.057,0.263,-5.337
0.272,0.055,0.266,-5.337
0.183,0.056,0.267,-5.337
0.159,0.055,0.267,-5.337
0.171,0.058,0.266,-5.337
0.221,0.058,0.268,-5.337
0.232,0.059,0.266,-5.337
0.209,0.058,0.264,-5.337
0.213,0.059,0.269,-5.337
0.205,0.061,0.268,-5.337
0.217,0.056,0.266,-5.337
0.248,0.055,0.266,-5.337
0.285,0.055,0.268,-5.337
0.284,0.056,0.268,-5.337
0.260,0.057,0.269,-5.337
0.167,0.058,0.267,-5.337
0.183,0.057,0.265,-5.337
0.152,0.060,0.263,-5.337
0.120,0.063,0.265,-5.337
0.143,0.059,0.264,-5.337
0.185,0.057,0.264,-5.337
0.191,0.057,0.264,-5.337
0.219,0.059,0.266,-5.337
0.242,0.060,0.264,-5.337
0.228,0.063,0.264,-5.337
0.221,0.061,0.267,-5.337
0.212,0.061,0.269,-5.337
0.209,0.062,0.266,-5.337
0.192,0.063,0.265,-5.337
0.130,0.065,0.266,-5.337
0.093,0.067,0.266,-5.337
0.046,0.067,0.268,-5.337
0.075,0.063,0.268,-5.337
0.138,0.060,0.269,-5.337
0.163,0.061,0.268,-5.337
0.121,0.063,0.272,-5.337
0.106,0.064,0.271,-5.337
0.097,0.062,0.269,-5.337
0.093,0.065,0.265,-5.337
0.122,0.065,0.264,-5.337
0.180,0.064,0.263,-5.337
0.260,0.063,0.265,-5.337
0.225,0.067,0.265,-5.337
0.179,0.072,0.266,-5.337
0.190,0.067,0.267,-5.337
0.231,0.066,0.268,-5.337
0.192,0.064,0.267,-5.337
0.189,0.065,0.266,-5.337
0.189,0.069,0.263,-5.337
0.162,0.071,0.262,-5.337
0.190,0.067,0.262,-5.337
0.258,0.065,0.267,-5.337
0.237,0.068,0.268,-5.337
0.155,0.075,0.266,-5.337
0.148,0.070,0.265,-5.337
0.131,0.068,0.263,-5.337
0.195,0.064,0.262,-5.337
0.275,0.063,0.262,-5.337
0.227,0.067,0.266,-5.337
0.181,0.067,0.266,-5.337
0.172,0.068,0.268,-5.337
0.191,0.071,0.268,-5.337
0.215,0.071,0.266,-5.337
0.193,0.066,0.266,-5.337
0.228,0.065,0.268,-5.337
0.228,0.066,0.269,-5.337
0.203,0.067,0.270,-5.337
0.188,0.067,0.269,-5.337
0.118,0.068,0.268,-5.337
0.122,0.067,0.263,-5.337
0.156,0.069,0.263,-5.337
0.145,0.070,0.264,-5.337
0.126,0.070,0.268,-5.337
0.184,0.068,0.270,-5.337
0.174,0.071,0.270,-5.337
0.224,0.070,0.266,-5.337
0.282,0.071,0.266,-5.337
0.239,0.073,0.268,-5.337
0.191,0.074,0.264,-5.337
0.231,0.072,0.265,-5.337
0.250,0.073,0.267,-5.337
0.172,0.075,0.271,-5.337
0.166,0.077,0.271,-5.337
0.156,0.075,0.269,-5.337
0.186,0.069,0.263,-5.337
0.195,0.068,0.260,-5.337
0.149,0.072,0.265,-5.337
0.161,0.074,0.270,-5.337
0.181,0.074,0.273,-5.337
0.178,0.074,0.270,-5.337
0.166,0.075,0.264,-5.337
0.200,0.072,0.261,-5.337
0.201,0.070,0.263,-5.337
0.194,0.073,0.267,-5.337
0.184,0.075,0.267,-5.337
0.207,0.078,0.266,-5.337
0.289,0.077,0.265,-5.337
0.272,0.074,0.266,-5.337
0.234,0.077,0.267,-5.337
0.214,0.077,0.266,-5.337
0.211,0.075,0.266,-5.337
0.277,0.074,0.267,-5.337
0.288,0.072,0.270,-5.337
0.208,0.074,0.269,-5.337
0.156,0.077,0.266,-5.337
0.167,0.075,0.265,-5.337
0.138,0.076,0.267,-5.337
0.198,0.069,0.265,-5.337
0.251,0.068,0.266,-5.337
0.237,0.069,0.268,-5.337
0.219,0.070,0.265,-5.337
0.200,0.067,0.265,-5.337
0.194,0.071,0.263,-5.337
0.133,0.074,0.261,-5.337
0.150,0.069,0.266,-5.337
0.225,0.068,0.270,-5.337
0.201,0.073,0.271,-5.337
0.158,0.074,0.268,-5.337
0.211,0.073,0.264,-5.337
0.230,0.074,0.262,-5.337
0.249,0.076,0.263,-5.337
0.182,0.080,0.267,-5.337
0.186,0.077,0.268,-5.337
0.220,0.071,0.269,-5.337
0.224,0.069,0.266,-5.337
0.195,0.072,0.267,-5.337
0.274,0.071,0.267,-5.337
0.309,0.073,0.265,-5.337
0.228,0.072,0.266,-5.337
0.181,0.076,0.268,-5.337
0.238,0.076,0.268,-5.337
0.254,0.075,0.269,-5.337
0.208,0.074,0.265,-5.337
0.178,0.076,0.260,-5.337
0.219,0.078,0.262,-5.337
0.281,0.074,0.266,-5.337
0.284,0.074,0.268,-5.337
0.186,0.077,0.264,-5.337
0.142,0.076,0.261,-5.337
0.170,0.073,0.261,-5.337
0.144,0.074,0.263,-5.337
0.116,0.074,0.264,-5.337
0.140,0.073,0.267,-5.337
0.116,0.076,0.265,-5.337
0.096,0.075,0.266,-5.337
0.161,0.072,0.267,-5.337
0.228,0.070,0.267,-5.337
0.193,0.070,0.266,-5.337
0.217,0.072,0.262,-5.337
0.268,0.075,0.264,-5.337
0.203,0.079,0.268,-5.337
0.197,0.079,0.268,-5.337
0.221,0.073,0.266,-5.337
0.179,0.074,0.265,-5.337
0.164,0.077,0.262,-5.337
0.205,0.082,0.261,-5.337
0.225,0.078,0.265,-5.337
0.232,0.072,0.271,-5.337
0.175,0.075,0.268,-5.337
0.169,0.074,0.263,-5.337
0.212,0.076,0.261,-5.337
0.161,0.074,0.264,-5.337
0.156,0.074,0.266,-5.337
0.266,0.069,0.269,-5.337
0.303,0.071,0.264,-5.337
0.244,0.077,0.260,-5.337
0.180,0.079,0.258,-5.337
0.169,0.077,0.261,-5.337
0.195,0.074,0.265,-5.337
0.247,0.073,0.268,-5.337
0.214,0.074,0.267,-5.337
0.165,0.076,0.265,-5.337
0.193,0.078,0.266,-5.337
0.220,0.077,0.268,-5.337
0.142,0.080,0.268,-5.337
0.092,0.080,0.264,-5.337
0.178,0.076,0.262,-5.337
0.235,0.074,0.261,-5.337
0.237,0.074,0.262,-5.337
0.251,0.074,0.267,-5.337
0.279,0.072,0.269,-5.337
0.264,0.071,0.265,-5.337
0.204,0.075,0.265,-5.337
0.149,0.075,0.263,-5.337
0.143,0.077,0.265,-5.337
0.121,0.074,0.265,-5.337
0.096,0.075,0.263,-5.337
0.116,0.073,0.261,-5.337
0.182,0.072,0.260,-5.337
0.199,0.070,0.262,-5.337
0.156,0.073,0.265,-5.337
0.116,0.074,0.265,-5.337
0.157,0.074,0.262,-5.337
0.185,0.073,0.260,-5.337
0.300,0.072,0.261,-5.337
0.258,0.072,0.262,-5.337
0.220,0.072,0.262,-5.337
0.202,0.072,0.262,-5.337
0.319,0.069,0.261,-5.337
0.305,0.071,0.259,-5.337
0.236,0.073,0.259,-5.337
0.234,0.074,0.264,-5.337
0.275,0.075,0.268,-5.337
0.216,0.077,0.269,-5.337
0.157,0.077,0.265,-5.337
0.195,0.075,0.262,-5.337
0.236,0.073,0.261,-5.337
0.253,0.071,0.261,-5.337
0.231,0.072,0.262,-5.337
0.177,0.076,0.260,-5.337
0.235,0.073,0.258,-5.337
0.278,0.076,0.259,-5.337
0.305,0.074,0.259,-5.337
0.260,0.072,0.260,-5.337
0.191,0.071,0.263,-5.337
0.183,0.070,0.263,-5.337
0.233,0.068,0.266,-5.337
0.208,0.072,0.264,-5.337
0.121,0.071,0.260,-5.337
0.151,0.067,0.258,-5.337
0.209,0.069,0.259,-5.337
0.179,0.070,0.259,-5.337
0.166,0.071,0.262,-5.337
0.168,0.070,0.265,-5.337
0.231,0.065,0.266,-5.337
0.212,0.067,0.263,-5.337
0.148,0.073,0.263,-5.337
0.157,0.073,0.261,-5.337
0.189,0.070,0.261,-5.337
0.213,0.067,0.257,-5.337
0.221,0.069,0.256,-5.337
0.192,0.071,0.262,-5.337
0.217,0.068,0.269,-5.337
0.314,0.065,0.269,-5.337
0.310,0.067,0.267,-5.337
0.212,0.067,0.265,-5.337
0.234,0.066,0.265,-5.337
0.230,0.066,0.259,-5.337
0.222,0.063,0.256,-5.337
0.202,0.063,0.257,-5.337
0.230,0.062,0.262,-5.337
0.179,0.064,0.264,-5.337
0.182,0.066,0.265,-5.337
0.302,0.060,0.265,-5.337
0.377,0.059,0.264,-5.337
0.300,0.059,0.262,-5.337
0.259,0.060,0.258,-5.337
0.226,0.061,0.256,-5.337
0.258,0.060,0.257,-5.337
0.286,0.060,0.261,-5.337
0.238,0.061,0.263,-5.337
0.178,0.064,0.264,-5.337
0.227,0.059,0.262,-5.337
0.295,0.059,0.257,-5.337
0.238,0.060,0.255,-5.337
0.170,0.062,0.260,-5.337
0.185,0.059,0.265,-5.337
0.177,0.058,0.270,-5.337
0.195,0.059,0.268,-5.337
0.220,0.060,0.266,-5.337
0.243,0.058,0.265,-5.337
0.211,0.056,0.267,-5.337
0.247,0.056,0.264,-5.337
0.212,0.061,0.262,-5.337
0.233,0.057,0.262,-5.337
0.266,0.055,0.261,-5.337
0.192,0.059,0.262,-5.337
0.177,0.056,0.261,-5.337
0.206,0.054,0.264,-5.337
0.175,0.054,0.262,-5.337
0.183,0.056,0.262,-5.337
0.226,0.056,0.265,-5.337
0.221,0.057,0.262,-5.337
0.231,0.054,0.260,-5.337
0.233,0.053,0.260,-5.337
0.195,0.053,0.259,-5.337
0.232,0.050,0.262,-5.337
0.230,0.053,0.261,-5.337
0.160,0.058,0.259,-5.337
0.154,0.060,0.261,-5.337
0.234,0.056,0.266,-5.337
0.253,0.054,0.269,-5.337
0.190,0.057,0.268,-5.337
0.190,0.054,0.266,-5.337
0.226,0.055,0.260,-5.337
0.223,0.054,0.256,-5.337
0.191,0.054,0.256,-5.337
0.210,0.055,0.263,-5.337
0.215,0.057,0.270,-5.337
0.209,0.056,0.269,-5.337
0.197,0.054,0.263,-5.337
0.241,0.052,0.257,-5.337
0.268,0.056,0.260,-5.337
0.246,0.053,0.263,-5.337
0.194,0.055,0.268,-5.337
0.176,0.055,0.269,-5.337
0.228,0.053,0.266,-5.337
0.225,0.053,0.263,-5.337
0.161,0.057,0.263,-5.337
0.134,0.053,0.263,-5.337
0.184,0.053,0.263,-5.337
0.271,0.054,0.260,-5.337
0.229,0.055,0.257,-5.337
0.135,0.053,0.255,-5.337
0.131,0.053,0.260,-5.337
0.187,0.056,0.261,-5.337
0.233,0.054,0.262,-5.337
0.248,0.053,0.264,-5.337
0.210,0.055,0.267,-5.337
0.175,0.053,0.265,-5.337
0.173,0.054,0.262,-5.337
0.191,0.053,0.257,-5.337
0.218,0.052,0.260,-5.337
0.230,0.052,0.263,-5.337
0.196,0.053,0.260,-5.337
0.205,0.053,0.259,-5.337
0.246,0.055,0.259,-5.337
0.281,0.052,0.257,-5.337
0.247,0.052,0.259,-5.337
0.199,0.051,0.263,-5.337
0.171,0.053,0.263,-5.337
0.165,0.054,0.261,-5.337
0.149,0.052,0.264,-5.337
0.161,0.051,0.261,-5.337
0.148,0.051,0.258,-5.337
0.135,0.049,0.259,-5.337
0.171,0.051,0.262,-5.337
0.199,0.049,0.263,-5.337
0.226,0.048,0.262,-5.337
0.176,0.049,0.263,-5.337
0.152,0.049,0.260,-5.337
0.147,0.050,0.261,-5.337
0.166,0.050,0.261,-5.337
0.162,0.050,0.260,-5.337
0.121,0.051,0.261,-5.337
0.142,0.052,0.263,-5.337
0.156,0.055,0.265,-5.337
0.169,0.056,0.267,-5.337
0.205,0.058,0.266,-5.337
0.211,0.059,0.265,-5.337
0.226,0.053,0.263,-5.337
0.212,0.051,0.262,-5.337
0.185,0.049,0.259,-5.337
0.161,0.053,0.258,-5.337
0.210,0.051,0.261,-5.337
0.174,0.052,0.267,-5.337
0.106,0.055,0.269,-5.337
0.162,0.049,0.265,-5.337
0.213,0.046,0.262,-5.337
0.254,0.044,0.260,-5.337
0.235,0.047,0.264,-5.337
0.177,0.046,0.263,-5.337
0.195,0.048,0.266,-5.337
0.188,0.047,0.265,-5.337
0.132,0.048,0.263,-5.337
0.112,0.048,0.260,-5.337
0.209,0.048,0.256,-5.337
0.207,0.048,0.257,-5.337
0.177,0.048,0.265,-5.337
0.185,0.045,0.269,-5.337
0.187,0.051,0.270,-5.337
0.151,0.053,0.265,-5.337
0.166,0.051,0.263,-5.337
0.214,0.046,0.262,-5.337
0.181,0.051,0.261,-5.337
0.142,0.051,0.265,-5.337
0.152,0.049,0.264,-5.337
0.167,0.047,0.261,-5.337
0.125,0.051,0.260,-5.337
0.078,0.050,0.261,-5.337
0.178,0.044,0.259,-5.337
0.192,0.046,0.258,-5.337
0.165,0.046,0.259,-5.337
0.169,0.043,0.264,-5.337
0.228,0.045,0.263,-5.337
0.183,0.051,0.263,-5.337
0.145,0.050,0.266,-5.337
0.140,0.048,0.266,-5.337
0.164,0.046,0.264,-5.337
0.230,0.046,0.264,-5.337
0.264,0.050,0.265,-5.337
0.232,0.054,0.262,-5.337
0.139,0.052,0.260,-5.337
0.172,0.048,0.262,-5.337
0.254,0.046,0.261,-5.337
0.267,0.050,0.258,-5.337
0.213,0.051,0.261,-5.337
0.233,0.051,0.264,-5.337
0.218,0.053,0.267,-5.337
0.179,0.048,0.266,-5.337
0.204,0.046,0.267,-5.337
0.192,0.047,0.264,-5.337
0.190,0.047,0.261,-5.337
0.191,0.045,0.261,-5.337
0.224,0.044,0.262,-5.337
0.213,0.044,0.261,-5.337
0.220,0.047,0.259,-5.337
0.162,0.049,0.259,-5.337
0.186,0.051,0.263,-5.337
0.188,0.051,0.263,-5.337
0.200,0.048,0.260,-5.337
0.192,0.043,0.260,-5.337
0.163,0.046,0.263,-5.337
0.140,0.047,0.264,-5.337
0.116,0.050,0.267,-5.337
0.130,0.051,0.269,-5.337
0.141,0.052,0.267,-5.337
0.159,0.049,0.265,-5.337
0.175,0.048,0.266,-5.337
0.166,0.047,0.267,-5.337
0.128,0.049,0.264,-5.337
0.184,0.047,0.261,-5.337
0.170,0.047,0.262,-5.337
0.116,0.044,0.264,-5.337
0.166,0.042,0.261,-5.337
0.205,0.046,0.265,-5.337
0.175,0.046,0.269,-5.337
0.202,0.044,0.265,-5.337
0.205,0.045,0.259,-5.337
0.192,0.045,0.262,-5.337
0.188,0.044,0.264,-5.337
0.200,0.043,0.262,-5.337
0.183,0.045,0.260,-5.337
0.178,0.044,0.260,-5.337
0.240,0.042,0.262,-5.337
0.215,0.044,0.266,-5.337
0.114,0.046,0.264,-5.337
0.130,0.045,0.264,-5.337
0.179,0.046,0.262,-5.337
0.198,0.046,0.260,-5.337
0.148,0.047,0.261,-5.337
0.180,0.045,0.259,-5.337
0.212,0.044,0.261,-5.337
0.188,0.045,0.263,-5.337
0.209,0.041,0.265,-5.337
0.202,0.037,0.265,-5.337
0.180,0.041,0.266,-5.337
0.151,0.045,0.265,-5.337
0.124,0.045,0.265,-5.337
0.106,0.043,0.267,-5.337
0.087,0.045,0.264,-5.337
0.060,0.047,0.260,-5.337
0.123,0.046,0.262,-5.337
0.148,0.046,0.264,-5.337
0.129,0.050,0.263,-5.337
0.132,0.051,0.260,-5.337
0.154,0.048,0.257,-5.337
0.168,0.047,0.260,-5.337
0.163,0.047,0.264,-5.337
0.201,0.040,0.264,-5.337
0.209,0.042,0.262,-5.337
0.146,0.047,0.262,-5.337
0.224,0.043,0.262,-5.337
0.288,0.040,0.265,-5.337
0.329,0.039,0.262,-5.337
0.258,0.043,0.261,-5.337
0.143,0.047,0.263,-5.337
0.122,0.047,0.263,-5.337
0.158,0.044,0.259,-5.337
0.165,0.045,0.262,-5.337
0.173,0.046,0.260,-5.337
0.115,0.051,0.260,-5.337
0.095,0.048,0.262,-5.337
0.120,0.049,0.262,-5.337
0.116,0.049,0.260,-5.337
0.116,0.049,0.259,-5.337
0.169,0.045,0.255,-5.337
0.200,0.044,0.255,-5.337
0.155,0.045,0.259,-5.337
0.135,0.046,0.262,-5.337
0.228,0.047,0.264,-5.337
0.274,0.047,0.265,-5.337
0.214,0.049,0.265,-5.337
0.212,0.048,0.266,-5.337
0.224,0.047,0.265,-5.337
0.187,0.048,0.261,-5.337
0.142,0.049,0.263,-5.337
0.179,0.044,0.267,-5.337
0.205,0.048,0.268,-5.337
0.189,0.050,0.264,-5.337
0.155,0.051,0.257,-5.337
0.167,0.046,0.260,-5.337
0.183,0.045,0.265,-5.337
0.165,0.047,0.264,-5.337
0.143,0.050,0.259,-5.337
0.164,0.049,0.258,-5.337
0.114,0.050,0.263,-5.337
0.127,0.046,0.265,-5.337
0.224,0.043,0.259,-5.337
0.195,0.045,0.254,-5.337
0.141,0.046,0.256,-5.337
0.165,0.048,0.260,-5.337
0.194,0.051,0.260,-5.337
0.141,0.052,0.260,-5.337
0.082,0.052,0.257,-5.337
0.072,0.048,0.259,-5.337
0.118,0.049,0.265,-5.337
0.141,0.049,0.269,-5.337
0.201,0.044,0.266,-5.337
0.181,0.048,0.266,-5.337
0.161,0.051,0.266,-5.337
0.184,0.050,0.265,-5.337
0.242,0.045,0.265,-5.337
0.169,0.051,0.262,-5.337
0.117,0.051,0.255,-5.337
0.094,0.056,0.255,-5.337
0.082,0.057,0.260,-5.337
0.135,0.055,0.264,-5.337
0.209,0.053,0.261,-5.337
0.184,0.053,0.261,-5.337
0.154,0.051,0.264,-5.337
0.097,0.056,0.264,-5.337
0.102,0.054,0.262,-5.337
0.117,0.057,0.261,-5.337
0.129,0.059,0.263,-5.337
0.219,0.057,0.260,-5.337
0.225,0.055,0.259,-5.337
0.146,0.053,0.261,-5.337
0.133,0.051,0.265,-5.337
0.172,0.046,0.263,-5.337
0.212,0.047,0.264,-5.337
0.177,0.049,0.263,-5.337
0.155,0.052,0.260,-5.337
0.203,0.051,0.259,-5.337
0.206,0.053,0.263,-5.337
0.161,0.055,0.267,-5.337
0.131,0.052,0.266,-5.337
0.113,0.054,0.266,-5.337
0.146,0.056,0.264,-5.337
0.176,0.055,0.264,-5.337
0.139,0.053,0.262,-5.337
0.143,0.056,0.262,-5.337
0.217,0.057,0.265,-5.337
0.252,0.055,0.267,-5.337
0.211,0.055,0.264,-5.337
0.162,0.055,0.267,-5.337
0.135,0.055,0.269,-5.337
0.197,0.054,0.267,-5.337
0.194,0.057,0.260,-5.337
0.220,0.060,0.257,-5.337
0.257,0.059,0.258,-5.337
0.279,0.058,0.264,-5.337
0.208,0.058,0.265,-5.337
0.144,0.058,0.263,-5.337
0.103,0.057,0.263,-5.337
0.119,0.058,0.263,-5.337
0.119,0.058,0.259,-5.337
0.071,0.058,0.259,-5.337
0.175,0.057,0.266,-5.337
0.249,0.057,0.269,-5.337
0.200,0.056,0.270,-5.337
0.133,0.058,0.267,-5.337
0.177,0.054,0.260,-5.337
0.213,0.053,0.254,-5.337
0.177,0.052,0.253,-5.337
0.172,0.055,0.253,-5.337
0.159,0.057,0.260,-5.337
0.167,0.059,0.263,-5.337
0.155,0.060,0.266,-5.337
0.160,0.058,0.264,-5.337
0.158,0.059,0.265,-5.337
0.183,0.056,0.267,-5.337
0.255,0.054,0.267,-5.337
0.278,0.057,0.265,-5.337
0.197,0.061,0.263,-5.337
0.159,0.057,0.262,-5.337
0.239,0.052,0.264,-5.337
0.239,0.054,0.266,-5.337
0.219,0.054,0.264,-5.337
0.226,0.054,0.263,-5.337
0.205,0.056,0.263,-5.337
0.204,0.059,0.259,-5.337
0.204,0.059,0.257,-5.337
0.120,0.063,0.262,-5.337
0.011,0.066,0.264,-5.337
0.058,0.064,0.260,-5.337
0.156,0.061,0.257,-5.337
0.222,0.059,0.260,-5.337
0.263,0.053,0.261,-5.337
0.253,0.056,0.259,-5.337
0.206,0.058,0.257,-5.337
0.208,0.056,0.258,-5.337
0.190,0.055,0.258,-5.337
0.201,0.057,0.262,-5.337
0.215,0.056,0.266,-5.337
0.179,0.062,0.268,-5.337
0.129,0.060,0.268,-5.337
0.194,0.059,0.268,-5.337
0.195,0.061,0.268,-5.337
0.178,0.061,0.268,-5.337
0.198,0.057,0.262,-5.337
0.224,0.053,0.258,-5.337
0.226,0.060,0.259,-5.337
0.176,0.065,0.261,-5.337
0.135,0.064,0.261,-5.337
0.138,0.062,0.259,-5.337
0.163,0.063,0.264,-5.337
0.126,0.062,0.264,-5.337
0.130,0.061,0.263,-5.337
0.247,0.052,0.261,-5.337
0.282,0.055,0.259,-5.337
0.229,0.061,0.257,-5.337
0.226,0.064,0.258,-5.337
0.188,0.063,0.257,-5.337
0.153,0.057,0.258,-5.337
0.185,0.057,0.262,-5.337
0.142,0.062,0.265,-5.337
0.110,0.064,0.263,-5.337
0.170,0.061,0.261,-5.337
0.212,0.062,0.261,-5.337
0.239,0.062,0.267,-5.337
0.237,0.061,0.267,-5.337
0.267,0.063,0.265,-5.337
0.287,0.063,0.266,-5.337
0.203,0.064,0.265,-5.337
0.110,0.063,0.265,-5.337
0.127,0.060,0.263,-5.337
0.158,0.060,0.263,-5.337
0.173,0.059,0.263,-5.337
0.182,0.062,0.266,-5.337
0.174,0.062,0.265,-5.337
0.189,0.063,0.267,-5.337
0.252,0.066,0.265,-5.337
0.183,0.068,0.264,-5.337
0.156,0.061,0.260,-5.337
0.249,0.057,0.260,-5.337
0.246,0.058,0.262,-5.337
0.278,0.057,0.262,-5.337
0.221,0.055,0.263,-5.337
0.216,0.057,0.263,-5.337
0.202,0.060,0.259,-5.337
0.170,0.064,0.258,-5.337
0.188,0.064,0.259,-5.337
0.241,0.059,0.261,-5.337
0.243,0.061,0.259,-5.337
0.193,0.065,0.256,-5.337
0.167,0.067,0.259,-5.337
0.118,0.068,0.263,-5.337
0.130,0.066,0.267,-5.337
0.151,0.063,0.266,-5.337
0.181,0.063,0.266,-5.337
0.162,0.065,0.265,-5.337
0.123,0.068,0.267,-5.337
0.170,0.066,0.267,-5.337
0.267,0.063,0.266,-5.337
0.239,0.064,0.262,-5.337
0.195,0.063,0.257,-5.337
0.165,0.065,0.259,-5.337
0.079,0.068,0.263,-5.337
0.107,0.065,0.268,-5.337
0.145,0.065,0.267,-5.337
0.214,0.063,0.263,-5.337
0.265,0.062,0.266,-5.337
0.233,0.063,0.271,-5.337
0.277,0.066,0.271,-5.337
0.285,0.067,0.267,-5.337
0.283,0.063,0.261,-5.337
0.256,0.063,0.260,-5.337
0.216,0.066,0.261,-5.337
0.214,0.066,0.261,-5.337
0.261,0.069,0.262,-5.337
0.260,0.070,0.262,-5.337
0.183,0.070,0.260,-5.337
0.164,0.068,0.262,-5.337
0.159,0.067,0.258,-5.337
0.201,0.065,0.256,-5.337
0.277,0.064,0.261,-5.337
0.288,0.064,0.265,-5.337
0.279,0.063,0.264,-5.337
0.221,0.067,0.262,-5.337
0.162,0.070,0.263,-5.337
0.162,0.071,0.263,-5.337
0.229,0.067,0.262,-5.337
0.270,0.068,0.264,-5.337
0.209,0.069,0.264,-5.337
0.123,0.067,0.266,-5.337
0.185,0.065,0.268,-5.337
0.251,0.066,0.267,-5.337
0.210,0.067,0.269,-5.337
0.186,0.067,0.270,-5.337
0.196,0.068,0.271,-5.337
0.201,0.068,0.265,-5.337
0.199,0.069,0.263,-5.337
0.215,0.069,0.261,-5.337
0.241,0.067,0.261,-5.337
0.238,0.064,0.263,-5.337
0.201,0.066,0.262,-5.337
0.222,0.066,0.260,-5.337
0.236,0.065,0.260,-5.337
0.175,0.063,0.263,-5.337
0.183,0.064,0.265,-5.337
0.186,0.064,0.264,-5.337
0.155,0.064,0.262,-5.337
0.169,0.062,0.265,-5.337
0.186,0.062,0.266,-5.337
0.204,0.061,0.266,-5.337
0.276,0.058,0.264,-5.337
0.276,0.063,0.264,-5.337
0.192,0.069,0.265,-5.337
0.178,0.068,0.266,-5.337
0.192,0.065,0.265,-5.337
0.209,0.063,0.265,-5.337
0.149,0.064,0.265,-5.337
0.170,0.066,0.266,-5.337
0.183,0.067,0.263,-5.337
0.159,0.063,0.262,-5.337
0.227,0.057,0.267,-5.337
0.261,0.063,0.268,-5.337
0.256,0.065,0.267,-5.337
0.284,0.064,0.266,-5.337
0.218,0.064,0.266,-5.337
0.218,0.062,0.265,-5.337
0.281,0.063,0.261,-5.337
0.294,0.066,0.257,-5.337
0.234,0.071,0.258,-5.337
0.174,0.070,0.261,-5.337
0.193,0.066,0.263,-5.337
0.205,0.066,0.266,-5.337
0.233,0.065,0.268,-5.337
0.190,0.067,0.266,-5.337
0.185,0.067,0.264,-5.337
0.184,0.071,0.258,-5.337
0.145,0.067,0.259,-5.337
0.199,0.062,0.259,-5.337
0.185,0.062,0.260,-5.337
0.198,0.059,0.261,-5.337
0.215,0.058,0.262,-5.337
0.196,0.063,0.262,-5.337
0.200,0.063,0.266,-5.337
0.233,0.058,0.270,-5.337
0.261,0.059,0.270,-5.337
0.247,0.058,0.267,-5.337
0.203,0.062,0.263,-5.337
0.206,0.063,0.261,-5.337
0.223,0.060,0.260,-5.337
0.200,0.059,0.259,-5.337
0.152,0.063,0.261,-5.337
0.119,0.065,0.263,-5.337
0.171,0.061,0.264,-5.337
0.206,0.058,0.265,-5.337
0.241,0.057,0.263,-5.337
0.262,0.056,0.261,-5.337
0.255,0.053,0.259,-5.337
0.129,0.056,0.263,-5.337
0.111,0.058,0.264,-5.337
0.150,0.060,0.260,-5.337
0.171,0.057,0.259,-5.337
0.162,0.059,0.263,-5.337
0.185,0.053,0.264,-5.337
0.216,0.054,0.260,-5.337
0.263,0.053,0.257,-5.337
0.219,0.055,0.257,-5.337
0.145,0.057,0.260,-5.337
0.146,0.053,0.263,-5.337
0.203,0.051,0.261,-5.337
0.220,0.052,0.265,-5.337
0.212,0.049,0.267,-5.337
0.240,0.052,0.266,-5.337
0.173,0.054,0.266,-5.337
0.112,0.054,0.263,-5.337
0.132,0.053,0.261,-5.337
0.208,0.053,0.263,-5.337
0.189,0.053,0.265,-5.337
0.174,0.053,0.264,-5.337
0.205,0.054,0.264,-5.337
0.198,0.053,0.264,-5.337
0.247,0.053,0.264,-5.337
0.241,0.051,0.265,-5.337
0.195,0.051,0.266,-5.337
0.209,0.051,0.265,-5.337
0.259,0.050,0.264,-5.337
0.247,0.050,0.262,-5.337
0.224,0.049,0.263,-5.337
0.172,0.052,0.265,-5.337
0.058,0.054,0.266,-5.337
0.090,0.049,0.263,-5.337
0.151,0.051,0.263,-5.337
0.073,0.055,0.263,-5.337
0.116,0.050,0.261,-5.337
0.174,0.050,0.261,-5.337
0.163,0.050,0.262,-5.337
0.190,0.048,0.263,-5.337
0.216,0.044,0.263,-5.337
0.273,0.043,0.263,-5.337
0.323,0.044,0.263,-5.337
0.313,0.051,0.266,-5.337
0.267,0.052,0.266,-5.337
0.233,0.052,0.268,-5.337
0.213,0.050,0.268,-5.337
0.234,0.047,0.265,-5.337
0.239,0.048,0.263,-5.337
0.226,0.051,0.265,-5.337
0.226,0.052,0.266,-5.337
0.163,0.054,0.268,-5.337
0.154,0.050,0.265,-5.337
0.196,0.050,0.263,-5.337
0.178,0.054,0.262,-5.337
0.125,0.054,0.263,-5.337
0.142,0.050,0.261,-5.337
0.205,0.052,0.261,-5.337
0.230,0.052,0.264,-5.337
0.209,0.050,0.267,-5.337
0.189,0.046,0.268,-5.337
0.196,0.045,0.265,-5.337
0.201,0.046,0.262,-5.337
0.252,0.046,0.261,-5.337
0.273,0.047,0.263,-5.337
0.265,0.048,0.267,-5.337
0.273,0.049,0.266,-5.337
0.233,0.049,0.262,-5.337
0.185,0.048,0.263,-5.337
0.181,0.048,0.264,-5.337
0.170,0.049,0.264,-5.337
0.191,0.048,0.267,-5.337
0.244,0.049,0.271,-5.337
0.147,0.052,0.271,-5.337
0.079,0.051,0.265,-5.337
0.150,0.051,0.263,-5.337
0.192,0.048,0.265,-5.337
0.235,0.046,0.266,-5.337
0.230,0.049,0.263,-5.337
0.199,0.050,0.260,-5.337
0.207,0.052,0.262,-5.337
0.218,0.055,0.266,-5.337
0.252,0.052,0.264,-5.337
0.262,0.052,0.266,-5.337
0.220,0.050,0.266,-5.337
0.162,0.050,0.269,-5.337
0.172,0.046,0.270,-5.337
0.204,0.047,0.269,-5.337
0.166,0.045,0.265,-5.337
0.152,0.047,0.264,-5.337
0.176,0.046,0.264,-5.337
0.160,0.047,0.263,-5.337
0.177,0.047,0.262,-5.337
0.184,0.049,0.265,-5.337
0.167,0.046,0.265,-5.337
0.129,0.048,0.263,-5.337
0.170,0.046,0.260,-5.337
0.173,0.044,0.261,-5.337
0.189,0.044,0.261,-5.337
0.190,0.048,0.264,-5.337
0.189,0.045,0.270,-5.337
0.222,0.047,0.272,-5.337
0.268,0.049,0.270,-5.337
0.211,0.049,0.265,-5.337
0.180,0.049,0.266,-5.337
0.174,0.048,0.263,-5.337
0.220,0.046,0.261,-5.337
0.171,0.049,0.261,-5.337
0.141,0.054,0.261,-5.337
0.167,0.050,0.264,-5.337
0.201,0.049,0.267,-5.337
0.141,0.050,0.263,-5.337
0.118,0.051,0.260,-5.337
0.153,0.048,0.263,-5.337
0.196,0.047,0.264,-5.337
0.192,0.048,0.263,-5.337
0.176,0.052,0.266,-5.337
0.110,0.051,0.269,-5.337
0.085,0.048,0.266,-5.337
0.135,0.046,0.265,-5.337
0.181,0.046,0.265,-5.337
0.171,0.046,0.263,-5.337
0.167,0.044,0.262,-5.337
0.176,0.044,0.264,-5.337
0.104,0.047,0.260,-5.337
0.127,0.049,0.258,-5.337
0.178,0.045,0.261,-5.337
0.206,0.045,0.267,-5.337
0.175,0.049,0.266,-5.337
0.153,0.051,0.265,-5.337
0.120,0.052,0.261,-5.337
0.108,0.051,0.260,-5.337
0.142,0.048,0.264,-5.337
0.089,0.049,0.264,-5.337
0.067,0.045,0.259,-5.337
0.130,0.042,0.257,-5.337
0.128,0.041,0.262,-5.337
0.146,0.039,0.267,-5.337
0.159,0.040,0.268,-5.337
0.117,0.044,0.267,-5.337
0.118,0.045,0.267,-5.337
0.077,0.049,0.267,-5.337
0.080,0.048,0.268,-5.337
0.101,0.049,0.263,-5.337
0.105,0.048,0.262,-5.337
0.175,0.046,0.261,-5.337
0.205,0.046,0.264,-5.337
0.214,0.046,0.265,-5.337
0.158,0.046,0.266,-5.337
0.181,0.046,0.263,-5.337
0.255,0.047,0.261,-5.337
0.204,0.047,0.263,-5.337
0.215,0.045,0.266,-5.337
0.213,0.043,0.265,-5.337
0.166,0.045,0.264,-5.337
0.155,0.042,0.261,-5.337
0.223,0.042,0.263,-5.337
0.220,0.044,0.266,-5.337
0.203,0.046,0.262,-5.337
0.195,0.047,0.260,-5.337
0.166,0.047,0.261,-5.337
0.141,0.048,0.262,-5.337
0.187,0.048,0.263,-5.337
0.211,0.051,0.263,-5.337
0.108,0.051,0.264,-5.337
0.073,0.049,0.268,-5.337
0.102,0.048,0.268,-5.337
0.159,0.044,0.268,-5.337
0.212,0.044,0.264,-5.337
0.185,0.042,0.263,-5.337
0.156,0.044,0.266,-5.337
0.099,0.049,0.269,-5.337
0.076,0.050,0.266,-5.337
0.101,0.045,0.264,-5.337
0.184,0.042,0.263,-5.337
0.176,0.047,0.262,-5.337
0.142,0.048,0.261,-5.337
0.153,0.047,0.261,-5.337
0.164,0.047,0.259,-5.337
0.179,0.043,0.260,-5.337
0.162,0.042,0.263,-5.337
0.193,0.041,0.264,-5.337
0.178,0.046,0.264,-5.337
0.122,0.049,0.264,-5.337
0.138,0.049,0.266,-5.337
0.124,0.048,0.264,-5.337
0.108,0.046,0.262,-5.337
0.060,0.049,0.261,-5.337
0.035,0.052,0.262,-5.337
0.133,0.048,0.261,-5.337
0.207,0.045,0.264,-5.337
0.227,0.042,0.267,-5.337
0.230,0.046,0.265,-5.337
0.130,0.046,0.262,-5.337
0.138,0.043,0.261,-5.337
0.223,0.042,0.259,-5.337
0.234,0.051,0.254,-5.337
0.169,0.051,0.255,-5.337
0.161,0.048,0.260,-5.337
0.154,0.049,0.267,-5.337
0.102,0.052,0.270,-5.337
0.127,0.053,0.269,-5.337
0.237,0.047,0.268,-5.337
0.280,0.045,0.266,-5.337
0.259,0.048,0.263,-5.337
0.220,0.046,0.262,-5.337
0.199,0.046,0.264,-5.337
0.245,0.048,0.268,-5.337
0.167,0.048,0.268,-5.337
0.079,0.047,0.271,-5.337
0.188,0.043,0.268,-5.337
0.259,0.045,0.268,-5.337
0.240,0.047,0.265,-5.337
0.228,0.045,0.260,-5.337
0.228,0.045,0.262,-5.337
0.205,0.046,0.262,-5.337
0.212,0.043,0.258,-5.337
0.229,0.045,0.258,-5.337
0.224,0.046,0.259,-5.337
0.193,0.049,0.262,-5.337
0.095,0.049,0.264,-5.337
0.104,0.047,0.266,-5.337
0.104,0.049,0.265,-5.337
0.099,0.053,0.263,-5.337
0.109,0.050,0.264,-5.337
0.169,0.050,0.264,-5.337
0.203,0.049,0.261,-5.337
0.130,0.050,0.260,-5.337
0.124,0.049,0.263,-5.337
0.181,0.046,0.263,-5.337
0.158,0.046,0.264,-5.337
0.177,0.044,0.266,-5.337
0.167,0.049,0.266,-5.337
0.142,0.052,0.263,-5.337
0.116,0.051,0.263,-5.337
0.072,0.050,0.267,-5.337
0.088,0.048,0.266,-5.337
0.147,0.044,0.262,-5.337
0.152,0.045,0.264,-5.337
0.171,0.050,0.266,-5.337
0.210,0.047,0.262,-5.337
0.171,0.045,0.257,-5.337
0.163,0.047,0.259,-5.337
0.226,0.044,0.261,-5.337
0.223,0.043,0.262,-5.337
0.197,0.048,0.263,-5.337
0.177,0.051,0.263,-5.337
0.233,0.045,0.268,-5.337
0.242,0.045,0.267,-5.337
0.178,0.049,0.264,-5.337
0.129,0.052,0.259,-5.337
0.090,0.054,0.258,-5.337
0.119,0.052,0.261,-5.337
0.146,0.054,0.263,-5.337
0.157,0.054,0.261,-5.337
0.133,0.054,0.258,-5.337
0.127,0.050,0.260,-5.337
0.198,0.049,0.263,-5.337
0.185,0.050,0.268,-5.337
0.107,0.053,0.266,-5.337
-0.012,0.055,0.261,-5.337
0.018,0.054,0.260,-5.337
0.054,0.053,0.262,-5.337
0.113,0.053,0.262,-5.337
0.142,0.053,0.261,-5.337
0.112,0.055,0.260,-5.337
0.139,0.055,0.260,-5.337
0.199,0.051,0.259,-5.337
0.192,0.048,0.265,-5.337
0.107,0.052,0.267,-5.337
0.110,0.051,0.266,-5.337
0.175,0.052,0.264,-5.337
0.148,0.057,0.266,-5.337
0.058,0.055,0.266,-5.337
0.070,0.056,0.266,-5.337
0.129,0.057,0.264,-5.337
0.159,0.057,0.262,-5.337
0.172,0.055,0.260,-5.337
0.200,0.051,0.262,-5.337
0.200,0.052,0.263,-5.337
0.148,0.054,0.262,-5.337
0.172,0.051,0.261,-5.337
0.185,0.054,0.261,-5.337
0.146,0.053,0.260,-5.337
0.192,0.050,0.260,-5.337
0.217,0.051,0.262,-5.337
0.142,0.054,0.263,-5.337
0.132,0.052,0.264,-5.337
0.161,0.052,0.266,-5.337
0.161,0.052,0.267,-5.337
0.125,0.055,0.270,-5.337
0.110,0.054,0.267,-5.337
0.134,0.052,0.259,-5.337
0.167,0.052,0.260,-5.337
0.193,0.055,0.260,-5.337
0.180,0.056,0.262,-5.337
0.090,0.058,0.265,-5.337
0.108,0.056,0.265,-5.337
0.157,0.053,0.262,-5.337
0.145,0.052,0.261,-5.337
0.100,0.054,0.259,-5.337
0.142,0.056,0.262,-5.337
0.143,0.057,0.264,-5.337
0.127,0.060,0.266,-5.337
0.061,0.061,0.267,-5.337
0.083,0.055,0.265,-5.337
0.151,0.055,0.262,-5.337
0.076,0.060,0.261,-5.337
0.038,0.058,0.263,-5.337
0.094,0.058,0.267,-5.337
0.176,0.061,0.267,-5.337
0.175,0.060,0.265,-5.337
0.167,0.059,0.263,-5.337
0.166,0.059,0.260,-5.337
0.197,0.059,0.264,-5.337
0.303,0.056,0.266,-5.337
0.348,0.055,0.267,-5.337
0.244,0.056,0.261,-5.337
0.162,0.055,0.259,-5.337
0.196,0.054,0.262,-5.337
0.246,0.055,0.267,-5.337
0.203,0.054,0.269,-5.337
0.176,0.056,0.270,-5.337
0.233,0.055,0.269,-5.337
0.150,0.056,0.269,-5.337
0.095,0.058,0.268,-5.337
0.153,0.056,0.267,-5.337
0.193,0.056,0.266,-5.337
0.169,0.057,0.262,-5.337
0.158,0.056,0.261,-5.337
0.114,0.059,0.263,-5.337
0.136,0.057,0.268,-5.337
0.149,0.059,0.268,-5.337
0.154,0.060,0.267,-5.337
0.142,0.060,0.265,-5.337
0.104,0.063,0.270,-5.337
0.122,0.058,0.269,-5.337
0.137,0.058,0.263,-5.337
0.152,0.061,0.257,-5.337
0.155,0.062,0.264,-5.337
0.132,0.057,0.269,-5.337
0.126,0.055,0.270,-5.337
0.197,0.051,0.265,-5.337
0.209,0.050,0.264,-5.337
0.218,0.054,0.263,-5.337
0.238,0.055,0.266,-5.337
0.232,0.052,0.266,-5.337
0.231,0.052,0.267,-5.337
0.257,0.055,0.267,-5.337
0.289,0.058,0.267,-5.337
0.218,0.059,0.269,-5.337
0.172,0.059,0.268,-5.337
0.217,0.057,0.267,-5.337
0.298,0.054,0.267,-5.337
0.260,0.058,0.266,-5.337
0.193,0.061,0.263,-5.337
0.234,0.057,0.263,-5.337
0.179,0.058,0.264,-5.337
0.098,0.060,0.268,-5.337
0.110,0.061,0.270,-5.337
0.161,0.062,0.266,-5.337
0.150,0.060,0.265,-5.337
0.172,0.059,0.265,-5.337
0.242,0.059,0.267,-5.337
0.300,0.057,0.269,-5.337
0.224,0.060,0.269,-5.337
0.157,0.061,0.267,-5.337
0.213,0.061,0.266,-5.337
0.266,0.061,0.265,-5.337
0.233,0.062,0.265,-5.337
0.205,0.061,0.264,-5.337
0.214,0.062,0.263,-5.337
0.137,0.066,0.263,-5.337
0.118,0.066,0.266,-5.337
0.216,0.065,0.266,-5.337
0.221,0.063,0.264,-5.337
0.179,0.065,0.264,-5.337
0.243,0.068,0.265,-5.337
0.281,0.065,0.266,-5.337
0.220,0.064,0.266,-5.337
0.142,0.065,0.266,-5.337
0.178,0.067,0.265,-5.337
0.158,0.068,0.263,-5.337
0.099,0.068,0.262,-5.337
0.078,0.070,0.263,-5.337
0.055,0.073,0.265,-5.337
0.145,0.069,0.264,-5.337
0.166,0.071,0.264,-5.337
0.107,0.073,0.266,-5.337
0.076,0.074,0.268,-5.337
0.150,0.072,0.267,-5.337
0.156,0.068,0.263,-5.337
0.167,0.067,0.258,-5.337
0.192,0.065,0.259,-5.337
0.233,0.063,0.265,-5.337
0.234,0.066,0.270,-5.337
0.205,0.065,0.271,-5.337
0.205,0.063,0.266,-5.337
0.241,0.062,0.263,-5.337
0.221,0.063,0.267,-5.337
0.229,0.066,0.268,-5.337
0.195,0.066,0.267,-5.337
0.170,0.069,0.268,-5.337
0.193,0.070,0.268,-5.337
0.158,0.070,0.266,-5.337
0.142,0.070,0.266,-5.337
0.159,0.067,0.267,-5.337
0.211,0.065,0.266,-5.337
0.229,0.062,0.264,-5.337
0.241,0.057,0.262,-5.337
0.183,0.061,0.265,-5.337
0.145,0.066,0.269,-5.337
0.182,0.062,0.267,-5.337
0.230,0.059,0.266,-5.337
0.247,0.061,0.263,-5.337
0.194,0.064,0.265,-5.337
0.192,0.068,0.265,-5.337
0.205,0.067,0.265,-5.337
0.171,0.064,0.266,-5.337
0.179,0.061,0.266,-5.337
0.170,0.065,0.262,-5.337
0.132,0.069,0.261,-5.337
0.137,0.065,0.258,-5.337
0.210,0.062,0.258,-5.337
0.240,0.061,0.263,-5.337
0.218,0.064,0.266,-5.337
0.208,0.067,0.266,-5.337
0.179,0.067,0.266,-5.337
0.134,0.069,0.265,-5.337
0.118,0.069,0.266,-5.337
0.143,0.071,0.267,-5.337
0.138,0.072,0.267,-5.337
0.154,0.070,0.269,-5.337
0.162,0.068,0.268,-5.337
0.200,0.069,0.268,-5.337
0.207,0.072,0.265,-5.337
0.231,0.069,0.263,-5.337
0.208,0.068,0.263,-5.337
0.188,0.068,0.267,-5.337
0.224,0.066,0.266,-5.337
0.224,0.067,0.265,-5.337
0.198,0.066,0.264,-5.337
0.210,0.065,0.264,-5.337
0.210,0.064,0.261,-5.337
0.182,0.064,0.261,-5.337
0.260,0.063,0.267,-5.337
0.274,0.062,0.272,-5.337
0.232,0.064,0.270,-5.337
0.228,0.065,0.268,-5.337
0.232,0.067,0.264,-5.337
0.222,0.068,0.261,-5.337
0.245,0.063,0.263,-5.337
0.230,0.060,0.263,-5.337
0.212,0.064,0.264,-5.337
0.181,0.065,0.268,-5.337
0.220,0.064,0.270,-5.337
0.309,0.064,0.267,-5.337
0.312,0.065,0.265,-5.337
0.237,0.067,0.260,-5.337
0.220,0.069,0.263,-5.337
0.273,0.069,0.268,-5.337
0.310,0.067,0.268,-5.337
0.279,0.067,0.264,-5.337
0.219,0.069,0.261,-5.337
0.194,0.071,0.260,-5.337
0.202,0.070,0.261,-5.337
0.188,0.066,0.261,-5.337
0.169,0.067,0.268,-5.337
0.192,0.068,0.270,-5.337
0.159,0.067,0.267,-5.337
0.133,0.068,0.265,-5.337
0.160,0.067,0.267,-5.337
0.208,0.062,0.269,-5.337
0.225,0.063,0.268,-5.337
0.162,0.064,0.267,-5.337
0.174,0.063,0.266,-5.337
0.217,0.063,0.268,-5.337
0.276,0.062,0.266,-5.337
0.289,0.065,0.267,-5.337
0.246,0.065,0.264,-5.337
0.246,0.067,0.264,-5.337
0.235,0.065,0.267,-5.337
0.238,0.065,0.266,-5.337
0.236,0.063,0.260,-5.337
0.268,0.063,0.260,-5.337
0.270,0.061,0.267,-5.337
0.238,0.060,0.272,-5.337
0.187,0.062,0.268,-5.337
0.167,0.063,0.264,-5.337
0.223,0.062,0.263,-5.337
0.200,0.062,0.262,-5.337
0.181,0.065,0.262,-5.337
0.186,0.064,0.265,-5.337
0.243,0.065,0.269,-5.337
0.211,0.064,0.269,-5.337
0.162,0.065,0.267,-5.337
0.166,0.062,0.268,-5.337
0.232,0.064,0.272,-5.337
0.278,0.063,0.268,-5.337
0.190,0.066,0.266,-5.337
0.082,0.066,0.264,-5.337
0.147,0.059,0.263,-5.337
0.199,0.057,0.261,-5.337
0.170,0.061,0.263,-5.337
0.172,0.058,0.261,-5.337
0.211,0.059,0.261,-5.337
0.209,0.061,0.263,-5.337
0.211,0.063,0.264,-5.337
0.230,0.060,0.263,-5.337
0.323,0.055,0.261,-5.337
0.318,0.056,0.261,-5.337
0.250,0.060,0.263,-5.337
0.193,0.058,0.266,-5.337
0.172,0.056,0.269,-5.337
0.136,0.055,0.269,-5.337
0.179,0.055,0.267,-5.337
0.217,0.058,0.265,-5.337
0.218,0.060,0.264,-5.337
0.213,0.058,0.266,-5.337
0.200,0.058,0.265,-5.337
0.154,0.059,0.262,-5.337
0.143,0.056,0.261,-5.337
0.186,0.055,0.265,-5.337
0.184,0.057,0.267,-5.337
0.184,0.057,0.268,-5.337
0.186,0.056,0.270,-5.337
0.195,0.057,0.269,-5.337
0.183,0.054,0.267,-5.337
0.237,0.050,0.261,-5.337
0.212,0.054,0.260,-5.337
0.206,0.051,0.261,-5.337
0.252,0.044,0.263,-5.337
0.231,0.046,0.265,-5.337
0.214,0.050,0.265,-5.337
0.186,0.055,0.267,-5.337
0.144,0.055,0.268,-5.337
0.156,0.053,0.267,-5.337
0.178,0.051,0.262,-5.337
0.208,0.054,0.256,-5.337
0.184,0.057,0.257,-5.337
0.137,0.058,0.263,-5.337
0.205,0.055,0.269,-5.337
0.256,0.054,0.267,-5.337
0.205,0.057,0.265,-5.337
0.245,0.054,0.265,-5.337
0.300,0.054,0.266,-5.337
0.232,0.056,0.265,-5.337
0.182,0.057,0.267,-5.337
0.200,0.054,0.267,-5.337
0.224,0.052,0.267,-5.337
0.206,0.050,0.267,-5.337
0.251,0.047,0.266,-5.337
0.229,0.052,0.262,-5.337
0.131,0.055,0.262,-5.337
0.175,0.055,0.265,-5.337
0.213,0.055,0.266,-5.337
0.215,0.052,0.269,-5.337
0.250,0.049,0.267,-5.337
0.208,0.052,0.262,-5.337
0.225,0.048,0.261,-5.337
0.218,0.049,0.267,-5.337
0.159,0.053,0.267,-5.337
0.137,0.052,0.264,-5.337
0.181,0.053,0.265,-5.337
0.172,0.054,0.268,-5.337
0.229,0.052,0.266,-5.337
0.190,0.054,0.263,-5.337
0.133,0.054,0.264,-5.337
0.145,0.054,0.266,-5.337
0.182,0.052,0.265,-5.337
0.215,0.052,0.263,-5.337
0.237,0.051,0.262,-5.337
0.230,0.053,0.264,-5.337
0.223,0.053,0.263,-5.337
0.146,0.054,0.264,-5.337
0.126,0.051,0.265,-5.337
0.145,0.046,0.265,-5.337
0.256,0.041,0.266,-5.337
0.238,0.045,0.265,-5.337
0.157,0.049,0.265,-5.337
0.158,0.049,0.265,-5.337
0.132,0.051,0.267,-5.337
0.143,0.049,0.267,-5.337
0.182,0.048,0.269,-5.337
0.189,0.043,0.266,-5.337
0.264,0.045,0.266,-5.337
0.236,0.049,0.266,-5.337
0.208,0.049,0.267,-5.337
0.246,0.045,0.267,-5.337
0.226,0.047,0.269,-5.337
0.210,0.043,0.268,-5.337
0.266,0.041,0.265,-5.337
0.270,0.041,0.263,-5.337
0.233,0.045,0.267,-5.337
0.183,0.044,0.265,-5.337
0.187,0.042,0.261,-5.337
0.263,0.043,0.263,-5.337
0.264,0.046,0.264,-5.337
0.204,0.047,0.262,-5.337
0.157,0.045,0.263,-5.337
0.149,0.046,0.263,-5.337
0.195,0.046,0.266,-5.337
0.180,0.044,0.272,-5.337
0.153,0.046,0.272,-5.337
0.157,0.050,0.267,-5.337
0.175,0.050,0.262,-5.337
0.188,0.050,0.261,-5.337
0.182,0.047,0.262,-5.337
0.174,0.049,0.265,-5.337
0.167,0.048,0.271,-5.337
0.195,0.048,0.274,-5.337
0.227,0.049,0.270,-5.337
0.189,0.050,0.265,-5.337
0.122,0.051,0.263,-5.337
0.114,0.052,0.262,-5.337
0.130,0.052,0.262,-5.337
0.148,0.049,0.262,-5.337
0.179,0.051,0.264,-5.337
0.172,0.046,0.268,-5.337
0.100,0.045,0.271,-5.337
0.068,0.043,0.271,-5.337
0.080,0.041,0.271,-5.337
0.126,0.041,0.270,-5.337
0.161,0.042,0.269,-5.337
0.208,0.041,0.266,-5.337
0.240,0.041,0.265,-5.337
0.210,0.039,0.265,-5.337
0.140,0.043,0.265,-5.337
0.105,0.043,0.264,-5.337
0.138,0.042,0.266,-5.337
0.206,0.038,0.268,-5.337
0.241,0.041,0.267,-5.337
0.175,0.044,0.266,-5.337
0.147,0.044,0.269,-5.337
0.167,0.041,0.272,-5.337
0.166,0.042,0.270,-5.337
0.193,0.048,0.267,-5.337
0.242,0.045,0.266,-5.337
0.247,0.042,0.267,-5.337
0.230,0.043,0.267,-5.337
0.227,0.042,0.268,-5.337
0.215,0.042,0.267,-5.337
0.139,0.045,0.265,-5.337
0.132,0.042,0.265,-5.337
0.179,0.042,0.269,-5.337
0.192,0.042,0.268,-5.337
0.218,0.044,0.267,-5.337
0.262,0.046,0.268,-5.337
0.198,0.049,0.267,-5.337
0.219,0.048,0.264,-5.337
0.279,0.045,0.261,-5.337
0.265,0.043,0.260,-5.337
0.158,0.050,0.264,-5.337
0.113,0.053,0.268,-5.337
0.159,0.049,0.268,-5.337
0.154,0.050,0.266,-5.337
0.134,0.049,0.267,-5.337
0.150,0.049,0.269,-5.337
0.181,0.047,0.268,-5.337
0.175,0.046,0.265,-5.337
0.162,0.047,0.265,-5.337
0.126,0.051,0.266,-5.337
0.139,0.050,0.264,-5.337
0.148,0.049,0.264,-5.337
0.153,0.049,0.266,-5.337
0.182,0.046,0.269,-5.337
0.206,0.051,0.267,-5.337
0.162,0.052,0.262,-5.337
0.129,0.049,0.262,-5.337
0.146,0.048,0.262,-5.337
0.193,0.047,0.265,-5.337
0.192,0.043,0.268,-5.337
0.128,0.043,0.269,-5.337
0.081,0.042,0.268,-5.337
0.074,0.046,0.268,-5.337
0.077,0.049,0.268,-5.337
0.134,0.045,0.267,-5.337
0.157,0.046,0.267,-5.337
0.163,0.041,0.267,-5.337
0.212,0.041,0.262,-5.337
0.155,0.043,0.260,-5.337
0.174,0.043,0.263,-5.337
0.195,0.041,0.267,-5.337
0.169,0.038,0.267,-5.337
0.162,0.041,0.269,-5.337
0.146,0.042,0.268,-5.337
0.126,0.042,0.266,-5.337
0.127,0.042,0.267,-5.337
0.173,0.045,0.273,-5.337
0.148,0.044,0.273,-5.337
0.122,0.043,0.267,-5.337
0.124,0.039,0.261,-5.337
0.152,0.040,0.261,-5.337
0.186,0.045,0.263,-5.337
0.228,0.045,0.265,-5.337
0.275,0.040,0.268,-5.337
0.308,0.039,0.269,-5.337
0.288,0.040,0.270,-5.337
0.251,0.045,0.269,-5.337
0.193,0.047,0.264,-5.337
0.163,0.048,0.263,-5.337
0.168,0.047,0.265,-5.337
0.185,0.046,0.264,-5.337
0.212,0.046,0.264,-5.337
0.140,0.051,0.264,-5.337
0.161,0.050,0.261,-5.337
0.237,0.047,0.261,-5.337
0.242,0.050,0.263,-5.337
0.157,0.053,0.263,-5.337
0.137,0.050,0.264,-5.337
0.125,0.053,0.265,-5.337
0.087,0.054,0.267,-5.337
0.091,0.054,0.267,-5.337
0.123,0.049,0.267,-5.337
0.132,0.046,0.265,-5.337
0.076,0.048,0.267,-5.337
0.106,0.042,0.269,-5.337
0.132,0.042,0.267,-5.337
0.111,0.039,0.265,-5.337
0.111,0.041,0.268,-5.337
0.129,0.042,0.271,-5.337
0.200,0.039,0.271,-5.337
0.217,0.037,0.270,-5.337
0.201,0.037,0.266,-5.337
0.201,0.037,0.262,-5.337
0.172,0.039,0.262,-5.337
0.166,0.041,0.265,-5.337
0.126,0.040,0.265,-5.337
0.116,0.038,0.264,-5.337
0.146,0.040,0.266,-5.337
0.144,0.043,0.270,-5.337
0.076,0.046,0.268,-5.337
0.099,0.045,0.266,-5.337
0.165,0.045,0.266,-5.337
0.178,0.044,0.267,-5.337
0.219,0.043,0.264,-5.337
0.215,0.045,0.262,-5.337
0.159,0.042,0.264,-5.337
0.137,0.044,0.269,-5.337
0.139,0.043,0.271,-5.337
0.160,0.043,0.268,-5.337
0.194,0.040,0.263,-5.337
0.194,0.040,0.259,-5.337
0.148,0.044,0.262,-5.337
0.113,0.046,0.267,-5.337
0.116,0.050,0.271,-5.337
0.105,0.047,0.268,-5.337
0.171,0.044,0.268,-5.337
0.200,0.045,0.268,-5.337
0.159,0.048,0.266,-5.337
0.142,0.046,0.262,-5.337
0.198,0.041,0.260,-5.337
0.183,0.039,0.260,-5.337
0.160,0.043,0.263,-5.337
0.168,0.044,0.264,-5.337
0.176,0.046,0.267,-5.337
0.198,0.042,0.271,-5.337
0.195,0.041,0.268,-5.337
0.200,0.040,0.263,-5.337
0.203,0.041,0.265,-5.337
0.235,0.042,0.268,-5.337
0.193,0.045,0.269,-5.337
0.107,0.047,0.272,-5.337
0.116,0.046,0.272,-5.337
0.181,0.046,0.268,-5.337
0.249,0.046,0.263,-5.337
0.207,0.045,0.263,-5.337
0.172,0.048,0.262,-5.337
0.182,0.048,0.264,-5.337
0.185,0.046,0.264,-5.337
0.178,0.045,0.267,-5.337
0.139,0.047,0.264,-5.337
0.120,0.047,0.262,-5.337
0.097,0.045,0.259,-5.337
0.151,0.049,0.260,-5.337
0.118,0.050,0.263,-5.337
0.119,0.051,0.263,-5.337
0.137,0.054,0.265,-5.337
0.118,0.054,0.270,-5.337
0.169,0.048,0.271,-5.337
0.218,0.044,0.267,-5.337
0.236,0.043,0.264,-5.337
0.213,0.046,0.263,-5.337
0.200,0.049,0.265,-5.337
0.199,0.049,0.267,-5.337
0.198,0.049,0.269,-5.337
0.218,0.050,0.267,-5.337
0.191,0.050,0.270,-5.337
0.206,0.052,0.271,-5.337
0.254,0.051,0.268,-5.337
0.257,0.050,0.266,-5.337
0.136,0.054,0.267,-5.337
0.070,0.054,0.265,-5.337
0.118,0.054,0.263,-5.337
0.175,0.051,0.263,-5.337
0.136,0.053,0.264,-5.337
0.083,0.054,0.262,-5.337
0.124,0.054,0.263,-5.337
0.172,0.053,0.266,-5.337
0.144,0.054,0.266,-5.337
0.159,0.050,0.264,-5.337
0.202,0.050,0.267,-5.337
0.186,0.055,0.268,-5.337
0.192,0.055,0.267,-5.337
0.174,0.053,0.266,-5.337
0.172,0.055,0.265,-5.337
0.204,0.058,0.265,-5.337
0.204,0.054,0.263,-5.337
0.193,0.050,0.266,-5.337
0.151,0.053,0.265,-5.337
0.178,0.056,0.269,-5.337
0.173,0.056,0.268,-5.337
0.192,0.052,0.264,-5.337
0.198,0.052,0.262,-5.337
0.188,0.056,0.267,-5.337
0.162,0.057,0.268,-5.337
0.169,0.059,0.266,-5.337
0.142,0.057,0.261,-5.337
0.124,0.057,0.262,-5.337
0.176,0.056,0.266,-5.337
0.246,0.058,0.266,-5.337
0.203,0.057,0.262,-5.337
0.121,0.056,0.261,-5.337
0.155,0.054,0.264,-5.337
0.150,0.055,0.267,-5.337
0.134,0.053,0.268,-5.337
0.175,0.053,0.267,-5.337
0.191,0.051,0.267,-5.337
0.222,0.052,0.267,-5.337
0.241,0.056,0.265,-5.337
0.209,0.054,0.258,-5.337
0.218,0.051,0.258,-5.337
0.203,0.054,0.260,-5.337
0.154,0.056,0.266,-5.337
0.184,0.056,0.269,-5.337
0.202,0.055,0.272,-5.337
0.239,0.053,0.273,-5.337
0.262,0.053,0.271,-5.337
0.177,0.058,0.268,-5.337
0.158,0.060,0.265,-5.337
0.220,0.060,0.262,-5.337
0.186,0.060,0.262,-5.337
0.177,0.059,0.264,-5.337
0.188,0.053,0.266,-5.337
0.218,0.052,0.269,-5.337
0.246,0.054,0.267,-5.337
0.230,0.060,0.264,-5.337
0.175,0.061,0.263,-5.337
0.154,0.059,0.267,-5.337
0.178,0.058,0.268,-5.337
0.186,0.059,0.267,-5.337
0.199,0.062,0.265,-5.337
0.222,0.065,0.267,-5.337
0.208,0.064,0.266,-5.337
0.141,0.064,0.261,-5.337
0.066,0.062,0.259,-5.337
0.086,0.061,0.265,-5.337
0.146,0.058,0.268,-5.337
0.198,0.060,0.268,-5.337
0.220,0.064,0.263,-5.337
0.185,0.066,0.260,-5.337
0.224,0.061,0.264,-5.337
0.223,0.062,0.269,-5.337
0.165,0.064,0.267,-5.337
0.209,0.064,0.264,-5.337
0.239,0.066,0.262,-5.337
0.210,0.066,0.264,-5.337
0.216,0.066,0.269,-5.337
0.213,0.066,0.270,-5.337
0.254,0.067,0.265,-5.337
0.235,0.067,0.263,-5.337
0.203,0.065,0.262,-5.337
0.236,0.062,0.264,-5.337
0.246,0.063,0.266,-5.337
0.255,0.064,0.266,-5.337
0.202,0.065,0.269,-5.337
0.183,0.064,0.270,-5.337
0.215,0.065,0.269,-5.337
0.228,0.061,0.265,-5.337
0.186,0.066,0.263,-5.337
0.096,0.070,0.263,-5.337
0.122,0.069,0.266,-5.337
0.211,0.065,0.268,-5.337
0.227,0.066,0.269,-5.337
0.193,0.065,0.264,-5.337
0.181,0.063,0.262,-5.337
0.245,0.061,0.265,-5.337
0.234,0.065,0.265,-5.337
0.214,0.064,0.266,-5.337
0.198,0.062,0.263,-5.337
0.208,0.066,0.261,-5.337
0.184,0.066,0.259,-5.337
0.207,0.062,0.263,-5.337
0.219,0.066,0.266,-5.337
0.221,0.066,0.271,-5.337
0.163,0.065,0.272,-5.337
0.167,0.067,0.271,-5.337
0.185,0.068,0.267,-5.337
0.158,0.069,0.265,-5.337
0.163,0.067,0.265,-5.337
0.153,0.069,0.268,-5.337
0.141,0.071,0.272,-5.337
0.239,0.067,0.273,-5.337
0.248,0.065,0.269,-5.337
0.218,0.066,0.265,-5.337
0.153,0.069,0.262,-5.337
0.111,0.070,0.262,-5.337
0.191,0.065,0.267,-5.337
0.313,0.062,0.269,-5.337
0.265,0.065,0.269,-5.337
0.229,0.064,0.266,-5.337
0.243,0.063,0.265,-5.337
0.176,0.069,0.265,-5.337
0.129,0.073,0.265,-5.337
0.239,0.069,0.265,-5.337
0.306,0.066,0.268,-5.337
0.371,0.063,0.267,-5.337
0.352,0.069,0.266,-5.337
0.292,0.070,0.265,-5.337
0.199,0.073,0.264,-5.337
0.183,0.074,0.259,-5.337
0.246,0.072,0.261,-5.337
0.247,0.068,0.262,-5.337
0.226,0.068,0.265,-5.337
0.222,0.069,0.269,-5.337
0.241,0.071,0.270,-5.337
0.152,0.074,0.267,-5.337
0.127,0.071,0.266,-5.337
0.211,0.071,0.266,-5.337
0.237,0.071,0.265,-5.337
0.128,0.075,0.268,-5.337
0.070,0.073,0.268,-5.337
0.158,0.071,0.267,-5.337
0.244,0.069,0.265,-5.337
0.198,0.072,0.265,-5.337
0.198,0.071,0.265,-5.337
0.217,0.071,0.265,-5.337
0.193,0.071,0.264,-5.337
0.236,0.071,0.266,-5.337
0.248,0.071,0.266,-5.337
0.213,0.071,0.266,-5.337
0.170,0.070,0.267,-5.337
0.125,0.069,0.265,-5.337
0.169,0.067,0.262,-5.337
0.187,0.071,0.264,-5.337
0.177,0.071,0.264,-5.337
0.185,0.069,0.266,-5.337
0.240,0.067,0.271,-5.337
0.269,0.068,0.271,-5.337
0.284,0.067,0.267,-5.337
0.274,0.069,0.264,-5.337
0.253,0.069,0.265,-5.337
0.207,0.071,0.269,-5.337
0.189,0.071,0.273,-5.337
0.170,0.071,0.268,-5.337
0.196,0.071,0.267,-5.337
0.210,0.073,0.266,-5.337
0.205,0.072,0.265,-5.337
0.199,0.071,0.265,-5.337
0.180,0.070,0.266,-5.337
0.175,0.068,0.265,-5.337
0.177,0.071,0.263,-5.337
0.198,0.074,0.262,-5.337
0.245,0.071,0.265,-5.337
0.276,0.067,0.267,-5.337
0.274,0.067,0.270,-5.337
0.240,0.068,0.270,-5.337
0.210,0.072,0.269,-5.337
0.202,0.070,0.266,-5.337
0.218,0.067,0.266,-5.337
0.232,0.062,0.267,-5.337
0.255,0.063,0.268,-5.337
0.280,0.066,0.267,-5.337
0.317,0.068,0.264,-5.337
0.299,0.068,0.263,-5.337
0.269,0.069,0.266,-5.337
0.284,0.067,0.265,-5.337
0.284,0.068,0.262,-5.337
0.211,0.072,0.264,-5.337
0.180,0.076,0.267,-5.337
0.210,0.075,0.274,-5.337
0.249,0.071,0.274,-5.337
0.219,0.070,0.268,-5.337
0.154,0.067,0.265,-5.337
0.169,0.069,0.263,-5.337
0.180,0.071,0.263,-5.337
0.195,0.071,0.266,-5.337
0.182,0.072,0.271,-5.337
0.134,0.071,0.269,-5.337
0.102,0.071,0.265,-5.337
0.149,0.068,0.263,-5.337
0.214,0.067,0.264,-5.337
0.245,0.066,0.266,-5.337
0.226,0.067,0.269,-5.337
0.217,0.070,0.266,-5.337
0.262,0.071,0.263,-5.337
0.263,0.064,0.262,-5.337
0.193,0.063,0.267,-5.337
0.160,0.064,0.268,-5.337
0.218,0.060,0.268,-5.337
0.272,0.057,0.269,-5.337
0.286,0.061,0.269,-5.337
0.252,0.064,0.267,-5.337
0.272,0.062,0.264,-5.337
0.257,0.063,0.262,-5.337
0.224,0.066,0.263,-5.337
0.207,0.066,0.266,-5.337
0.214,0.068,0.266,-5.337
0.198,0.064,0.267,-5.337
0.161,0.063,0.268,-5.337
0.195,0.066,0.270,-5.337
0.220,0.068,0.268,-5.337
0.217,0.067,0.265,-5.337
0.187,0.067,0.263,-5.337
0.166,0.066,0.266,-5.337
0.217,0.063,0.270,-5.337
0.241,0.057,0.276,-5.337
0.224,0.056,0.274,-5.337
0.197,0.061,0.272,-5.337
0.172,0.061,0.267,-5.337
0.182,0.061,0.265,-5.337
0.273,0.056,0.267,-5.337
0.289,0.060,0.268,-5.337
0.300,0.059,0.268,-5.337
0.239,0.060,0.267,-5.337
0.234,0.056,0.268,-5.337
0.242,0.056,0.269,-5.337
0.219,0.055,0.266,-5.337
0.272,0.055,0.263,-5.337
0.299,0.054,0.264,-5.337
0.276,0.056,0.266,-5.337
0.233,0.056,0.269,-5.337
0.198,0.057,0.271,-5.337
0.196,0.058,0.272,-5.337
0.251,0.062,0.269,-5.337
0.273,0.061,0.266,-5.337
0.226,0.060,0.264,-5.337
0.175,0.057,0.267,-5.337
0.231,0.055,0.270,-5.337
0.252,0.056,0.273,-5.337
0.206,0.056,0.271,-5.337
0.162,0.057,0.268,-5.337
0.118,0.054,0.264,-5.337
0.123,0.053,0.264,-5.337
0.170,0.049,0.264,-5.337
0.187,0.052,0.263,-5.337
0.187,0.052,0.260,-5.337
0.121,0.055,0.263,-5.337
0.109,0.056,0.266,-5.337
0.255,0.055,0.265,-5.337
0.256,0.057,0.264,-5.337
0.160,0.062,0.265,-5.337
0.115,0.059,0.269,-5.337
0.144,0.057,0.270,-5.337
0.115,0.056,0.270,-5.337
0.122,0.057,0.269,-5.337
0.145,0.057,0.266,-5.337
0.190,0.055,0.267,-5.337
0.254,0.054,0.271,-5.337
0.226,0.050,0.271,-5.337
0.257,0.049,0.269,-5.337
0.289,0.045,0.267,-5.337
0.242,0.050,0.268,-5.337
0.188,0.050,0.268,-5.337
0.146,0.051,0.267,-5.337
0.188,0.045,0.265,-5.337
0.266,0.043,0.264,-5.337
0.221,0.047,0.264,-5.337
0.164,0.053,0.262,-5.337
0.145,0.053,0.262,-5.337
0.229,0.049,0.267,-5.337
0.272,0.046,0.269,-5.337
0.231,0.044,0.266,-5.337
0.219,0.047,0.262,-5.337
0.180,0.051,0.263,-5.337
0.132,0.048,0.267,-5.337
0.163,0.047,0.274,-5.337
0.163,0.044,0.275,-5.337
0.188,0.045,0.269,-5.337
0.162,0.047,0.268,-5.337
0.167,0.046,0.269,-5.337
0.228,0.043,0.269,-5.337
0.227,0.047,0.268,-5.337
0.184,0.048,0.271,-5.337
0.197,0.044,0.271,-5.337
0.181,0.043,0.269,-5.337
0.195,0.041,0.265,-5.337
0.176,0.045,0.262,-5.337
0.128,0.047,0.262,-5.337
0.204,0.046,0.263,-5.337
0.282,0.044,0.262,-5.337
0.255,0.046,0.262,-5.337
0.218,0.045,0.261,-5.337
0.166,0.051,0.262,-5.337
0.111,0.055,0.265,-5.337
0.128,0.053,0.265,-5.337
0.204,0.045,0.265,-5.337
0.240,0.044,0.267,-5.337
0.168,0.047,0.269,-5.337
0.194,0.048,0.267,-5.337
0.288,0.044,0.267,-5.337
0.284,0.047,0.267,-5.337
0.213,0.049,0.270,-5.337
0.173,0.049,0.271,-5.337
0.217,0.049,0.271,-5.337
0.216,0.049,0.268,-5.337
0.153,0.051,0.270,-5.337
0.171,0.047,0.270,-5.337
0.183,0.048,0.265,-5.337
0.203,0.046,0.263,-5.337
0.195,0.046,0.269,-5.337
0.177,0.045,0.269,-5.337
0.144,0.051,0.271,-5.337
0.027,0.055,0.268,-5.337
0.037,0.051,0.265,-5.337
0.167,0.047,0.264,-5.337
0.237,0.047,0.267,-5.337
0.171,0.052,0.267,-5.337
0.131,0.052,0.265,-5.337
0.135,0.049,0.266,-5.337
0.169,0.047,0.265,-5.337
0.209,0.049,0.266,-5.337
0.238,0.048,0.265,-5.337
0.178,0.052,0.267,-5.337
0.146,0.049,0.266,-5.337
0.127,0.048,0.267,-5.337
0.152,0.048,0.270,-5.337
0.206,0.048,0.269,-5.337
0.231,0.045,0.267,-5.337
0.264,0.042,0.266,-5.337
0.290,0.044,0.266,-5.337
0.230,0.048,0.267,-5.337
0.179,0.045,0.267,-5.337
0.143,0.047,0.263,-5.337
0.107,0.047,0.259,-5.337
0.173,0.048,0.259,-5.337
0.232,0.046,0.260,-5.337
0.216,0.046,0.263,-5.337
0.178,0.051,0.266,-5.337
0.141,0.055,0.266,-5.337
0.130,0.053,0.266,-5.337
0.133,0.053,0.266,-5.337
0.184,0.054,0.271,-5.337
0.160,0.054,0.274,-5.337
0.151,0.053,0.274,-5.337
0.180,0.053,0.270,-5.337
0.167,0.053,0.266,-5.337
0.130,0.053,0.265,-5.337
0.137,0.050,0.266,-5.337
0.147,0.046,0.268,-5.337
0.170,0.046,0.270,-5.337
0.142,0.051,0.271,-5.337
0.133,0.055,0.270,-5.337
0.132,0.054,0.268,-5.337
0.143,0.053,0.265,-5.337
0.176,0.052,0.266,-5.337
0.217,0.049,0.265,-5.337
0.193,0.049,0.268,-5.337
0.144,0.050,0.271,-5.337
0.158,0.051,0.273,-5.337
0.246,0.051,0.269,-5.337
0.230,0.050,0.267,-5.337
0.211,0.047,0.265,-5.337
0.217,0.045,0.265,-5.337
0.138,0.049,0.265,-5.337
0.112,0.053,0.267,-5.337
0.186,0.048,0.267,-5.337
0.247,0.042,0.267,-5.337
0.216,0.041,0.269,-5.337
0.208,0.044,0.272,-5.337
0.227,0.045,0.269,-5.337
0.178,0.047,0.267,-5.337
0.203,0.045,0.265,-5.337
0.231,0.045,0.264,-5.337
0.209,0.041,0.264,-5.337
0.215,0.042,0.265,-5.337
0.222,0.042,0.268,-5.337
0.193,0.045,0.270,-5.337
0.148,0.047,0.269,-5.337
0.177,0.044,0.267,-5.337
0.212,0.044,0.270,-5.337
0.198,0.045,0.269,-5.337
0.192,0.041,0.266,-5.337
0.150,0.041,0.264,-5.337
0.141,0.042,0.266,-5.337
0.186,0.041,0.268,-5.337
0.230,0.042,0.271,-5.337
0.245,0.045,0.266,-5.337
0.251,0.044,0.262,-5.337
0.277,0.046,0.263,-5.337
0.323,0.045,0.269,-5.337
0.264,0.042,0.272,-5.337
0.174,0.041,0.273,-5.337
0.202,0.043,0.268,-5.337
0.224,0.045,0.266,-5.337
0.182,0.050,0.266,-5.337
0.117,0.050,0.270,-5.337
0.075,0.048,0.271,-5.337
0.168,0.044,0.268,-5.337
0.230,0.043,0.265,-5.337
0.207,0.046,0.265,-5.337
0.155,0.052,0.265,-5.337
0.198,0.047,0.267,-5.337
0.247,0.047,0.271,-5.337
0.183,0.051,0.269,-5.337
0.146,0.054,0.269,-5.337
0.121,0.056,0.268,-5.337
0.094,0.052,0.267,-5.337
0.169,0.052,0.263,-5.337
0.173,0.053,0.263,-5.337
0.191,0.047,0.265,-5.337
0.189,0.050,0.265,-5.337
0.173,0.046,0.265,-5.337
0.109,0.046,0.265,-5.337
0.096,0.047,0.267,-5.337
0.114,0.046,0.268,-5.337
0.127,0.045,0.267,-5.337
0.139,0.047,0.266,-5.337
0.125,0.049,0.263,-5.337
0.133,0.053,0.262,-5.337
0.124,0.054,0.263,-5.337
0.094,0.052,0.265,-5.337
0.048,0.052,0.267,-5.337
0.089,0.048,0.268,-5.337
0.209,0.044,0.269,-5.337
0.197,0.047,0.270,-5.337
0.244,0.046,0.271,-5.337
0.278,0.046,0.267,-5.337
0.214,0.049,0.266,-5.337
0.210,0.046,0.266,-5.337
0.184,0.048,0.269,-5.337
0.117,0.046,0.268,-5.337
0.095,0.048,0.263,-5.337
0.125,0.047,0.264,-5.337
0.183,0.044,0.268,-5.337
0.214,0.044,0.267,-5.337
0.220,0.045,0.265,-5.337
0.231,0.043,0.261,-5.337
0.205,0.044,0.257,-5.337
0.240,0.040,0.259,-5.337
0.235,0.040,0.263,-5.337
0.210,0.044,0.268,-5.337
0.162,0.042,0.274,-5.337
0.146,0.042,0.277,-5.337
0.118,0.044,0.273,-5.337
0.110,0.043,0.268,-5.337
0.137,0.043,0.262,-5.337
0.155,0.047,0.264,-5.337
0.122,0.048,0.266,-5.337
0.105,0.047,0.268,-5.337
0.179,0.042,0.265,-5.337
0.154,0.043,0.266,-5.337
0.129,0.046,0.264,-5.337
0.149,0.047,0.263,-5.337
0.194,0.042,0.267,-5.337
0.212,0.042,0.269,-5.337
0.116,0.045,0.267,-5.337
0.107,0.042,0.267,-5.337
0.150,0.040,0.268,-5.337
0.166,0.039,0.269,-5.337
0.196,0.043,0.270,-5.337
0.148,0.049,0.272,-5.337
0.140,0.047,0.274,-5.337
0.195,0.045,0.270,-5.337
0.270,0.041,0.266,-5.337
0.202,0.043,0.264,-5.337
0.184,0.046,0.264,-5.337
0.250,0.047,0.263,-5.337
0.255,0.050,0.264,-5.337
0.206,0.049,0.266,-5.337
0.213,0.049,0.271,-5.337
0.209,0.046,0.273,-5.337
0.219,0.046,0.267,-5.337
0.215,0.049,0.264,-5.337
0.239,0.051,0.269,-5.337
0.235,0.050,0.268,-5.337
0.210,0.051,0.268,-5.337
0.225,0.049,0.266,-5.337
0.175,0.053,0.261,-5.337
0.092,0.058,0.259,-5.337
0.089,0.054,0.260,-5.337
0.181,0.049,0.265,-5.337
0.188,0.048,0.270,-5.337
0.144,0.049,0.273,-5.337
0.068,0.054,0.269,-5.337
0.082,0.055,0.270,-5.337
0.178,0.051,0.268,-5.337
0.182,0.049,0.270,-5.337
0.136,0.052,0.274,-5.337
0.130,0.056,0.278,-5.337
0.210,0.050,0.273,-5.337
0.187,0.052,0.266,-5.337
0.150,0.052,0.260,-5.337
0.154,0.055,0.261,-5.337
0.191,0.053,0.265,-5.337
0.199,0.052,0.267,-5.337
0.235,0.053,0.271,-5.337
0.228,0.055,0.270,-5.337
0.206,0.054,0.267,-5.337
0.241,0.052,0.269,-5.337
0.235,0.051,0.266,-5.337
0.241,0.052,0.264,-5.337
0.165,0.052,0.264,-5.337
0.121,0.055,0.262,-5.337
0.175,0.049,0.267,-5.337
0.239,0.050,0.269,-5.337
0.246,0.055,0.271,-5.337
0.311,0.056,0.269,-5.337
0.317,0.055,0.267,-5.337
0.185,0.057,0.266,-5.337
0.078,0.058,0.265,-5.337
0.060,0.057,0.260,-5.337
0.095,0.054,0.263,-5.337
0.126,0.054,0.266,-5.337
0.124,0.054,0.266,-5.337
0.103,0.052,0.265,-5.337
0.136,0.052,0.265,-5.337
0.165,0.054,0.266,-5.337
0.169,0.054,0.269,-5.337
0.176,0.054,0.270,-5.337
0.212,0.054,0.267,-5.337
0.221,0.052,0.264,-5.337
0.238,0.054,0.264,-5.337
0.238,0.051,0.265,-5.337
0.264,0.048,0.265,-5.337
0.173,0.054,0.270,-5.337
0.152,0.055,0.271,-5.337
0.217,0.054,0.269,-5.337
0.255,0.052,0.265,-5.337
0.194,0.051,0.265,-5.337
0.135,0.051,0.263,-5.337
0.162,0.051,0.263,-5.337
0.209,0.053,0.264,-5.337
0.148,0.058,0.266,-5.337
0.129,0.059,0.265,-5.337
0.092,0.063,0.266,-5.337
0.155,0.059,0.269,-5.337
0.233,0.057,0.272,-5.337
0.202,0.060,0.272,-5.337
0.187,0.062,0.267,-5.337
0.241,0.061,0.262,-5.337
0.243,0.060,0.261,-5.337
0.212,0.062,0.263,-5.337
0.172,0.063,0.266,-5.337
0.169,0.063,0.269,-5.337
0.222,0.062,0.273,-5.337
0.248,0.060,0.272,-5.337
0.220,0.061,0.268,-5.337
0.228,0.060,0.268,-5.337
0.258,0.058,0.266,-5.337
0.265,0.059,0.263,-5.337
0.206,0.063,0.264,-5.337
0.155,0.062,0.265,-5.337
0.170,0.059,0.263,-5.337
0.147,0.060,0.266,-5.337
0.168,0.060,0.270,-5.337
0.165,0.062,0.268,-5.337
0.174,0.060,0.266,-5.337
0.229,0.058,0.268,-5.337
0.259,0.057,0.268,-5.337
0.201,0.062,0.263,-5.337
0.164,0.064,0.263,-5.337
0.181,0.060,0.262,-5.337
0.184,0.062,0.263,-5.337
0.150,0.063,0.267,-5.337
0.198,0.056,0.268,-5.337
0.264,0.052,0.266,-5.337
0.248,0.055,0.269,-5.337
0.200,0.056,0.265,-5.337
0.133,0.057,0.268,-5.337
0.188,0.055,0.268,-5.337
0.258,0.055,0.269,-5.337
0.272,0.054,0.267,-5.337
0.208,0.055,0.268,-5.337
0.165,0.054,0.264,-5.337
0.170,0.056,0.263,-5.337
0.143,0.054,0.265,-5.337
0.125,0.056,0.267,-5.337
0.193,0.055,0.267,-5.337
0.140,0.056,0.266,-5.337
0.135,0.055,0.268,-5.337
0.175,0.054,0.269,-5.337
0.126,0.059,0.268,-5.337
0.163,0.063,0.265,-5.337
0.221,0.060,0.265,-5.337
0.207,0.060,0.265,-5.337
0.144,0.063,0.266,-5.337
0.140,0.065,0.265,-5.337
0.185,0.063,0.268,-5.337
0.224,0.061,0.266,-5.337
0.233,0.062,0.263,-5.337
0.233,0.063,0.263,-5.337
0.239,0.064,0.265,-5.337
0.218,0.063,0.267,-5.337
0.236,0.064,0.266,-5.337
0.274,0.062,0.268,-5.337
0.279,0.061,0.268,-5.337
0.184,0.063,0.266,-5.337
0.171,0.059,0.265,-5.337
0.210,0.057,0.268,-5.337
0.209,0.060,0.270,-5.337
0.190,0.063,0.271,-5.337
0.226,0.065,0.271,-5.337
0.195,0.066,0.270,-5.337
0.167,0.066,0.267,-5.337
0.235,0.063,0.266,-5.337
0.264,0.064,0.265,-5.337
0.268,0.063,0.267,-5.337
0.210,0.066,0.266,-5.337
0.130,0.067,0.264,-5.337
0.186,0.064,0.261,-5.337
0.234,0.067,0.260,-5.337
0.182,0.067,0.263,-5.337
0.163,0.068,0.267,-5.337
0.178,0.065,0.272,-5.337
0.177,0.064,0.273,-5.337
0.175,0.063,0.271,-5.337
0.187,0.064,0.269,-5.337
0.181,0.065,0.265,-5.337
0.144,0.066,0.264,-5.337
0.180,0.065,0.267,-5.337
0.156,0.064,0.272,-5.337
0.145,0.068,0.270,-5.337
0.189,0.066,0.266,-5.337
0.252,0.059,0.267,-5.337
0.275,0.059,0.268,-5.337
0.242,0.060,0.269,-5.337
0.224,0.064,0.265,-5.337
0.257,0.063,0.266,-5.337
0.194,0.063,0.266,-5.337
0.172,0.063,0.268,-5.337
0.241,0.062,0.267,-5.337
0.182,0.063,0.269,-5.337
0.136,0.064,0.271,-5.337
0.226,0.063,0.272,-5.337
0.223,0.057,0.271,-5.337
0.205,0.057,0.269,-5.337
0.207,0.059,0.267,-5.337
0.201,0.063,0.263,-5.337
0.153,0.065,0.264,-5.337
0.162,0.066,0.270,-5.337
0.193,0.062,0.274,-5.337
0.283,0.062,0.272,-5.337
0.257,0.061,0.269,-5.337
0.146,0.066,0.269,-5.337
0.198,0.065,0.274,-5.337
0.281,0.068,0.270,-5.337
0.298,0.065,0.265,-5.337
0.303,0.062,0.267,-5.337
0.327,0.061,0.267,-5.337
0.286,0.063,0.267,-5.337
0.179,0.063,0.266,-5.337
0.176,0.062,0.265,-5.337
0.204,0.065,0.266,-5.337
0.175,0.067,0.267,-5.337
0.111,0.065,0.270,-5.337
0.124,0.063,0.270,-5.337
0.222,0.062,0.266,-5.337
0.289,0.064,0.265,-5.337
0.246,0.068,0.267,-5.337
0.213,0.067,0.269,-5.337
0.167,0.068,0.274,-5.337
0.147,0.069,0.276,-5.337
0.224,0.067,0.273,-5.337
0.192,0.071,0.273,-5.337
0.114,0.072,0.272,-5.337
0.122,0.070,0.269,-5.337
0.139,0.069,0.267,-5.337
0.153,0.067,0.265,-5.337
0.205,0.064,0.265,-5.337
0.276,0.062,0.265,-5.337
0.244,0.063,0.266,-5.337
0.168,0.062,0.269,-5.337
0.210,0.060,0.272,-5.337
0.237,0.057,0.272,-5.337
0.279,0.058,0.267,-5.337
0.261,0.059,0.265,-5.337
0.238,0.061,0.264,-5.337
0.156,0.066,0.269,-5.337
0.181,0.064,0.271,-5.337
0.210,0.064,0.268,-5.337
0.191,0.065,0.263,-5.337
0.220,0.065,0.262,-5.337
0.245,0.065,0.268,-5.337
0.274,0.058,0.269,-5.337
0.274,0.053,0.268,-5.337
0.212,0.055,0.268,-5.337
0.190,0.060,0.270,-5.337
0.202,0.065,0.270,-5.337
0.175,0.061,0.267,-5.337
0.212,0.056,0.264,-5.337
0.260,0.055,0.267,-5.337
0.238,0.059,0.270,-5.337
0.166,0.059,0.267,-5.337
0.183,0.062,0.261,-5.337
0.129,0.066,0.264,-5.337
0.101,0.062,0.266,-5.337
0.169,0.059,0.267,-5.337
0.168,0.059,0.269,-5.337
0.182,0.062,0.272,-5.337
0.216,0.059,0.269,-5.337
0.194,0.058,0.264,-5.337
0.228,0.056,0.266,-5.337
0.337,0.052,0.268,-5.337
0.288,0.054,0.268,-5.337
0.272,0.056,0.268,-5.337
0.297,0.055,0.266,-5.337
0.236,0.056,0.267,-5.337
0.204,0.059,0.269,-5.337
0.222,0.058,0.267,-5.337
0.182,0.055,0.265,-5.337
0.184,0.054,0.263,-5.337
0.237,0.056,0.265,-5.337
0.179,0.058,0.264,-5.337
0.217,0.055,0.268,-5.337
0.192,0.054,0.268,-5.337
0.162,0.054,0.267,-5.337
0.226,0.053,0.266,-5.337
0.284,0.052,0.267,-5.337
0.285,0.053,0.268,-5.337
0.235,0.054,0.269,-5.337
0.168,0.055,0.269,-5.337
0.127,0.055,0.268,-5.337
0.121,0.053,0.266,-5.337
0.194,0.050,0.267,-5.337
0.278,0.049,0.267,-5.337
0.314,0.049,0.270,-5.337
0.263,0.051,0.272,-5.337
0.264,0.049,0.273,-5.337
0.239,0.052,0.271,-5.337
0.174,0.056,0.269,-5.337
0.183,0.055,0.265,-5.337
0.206,0.053,0.263,-5.337
0.271,0.050,0.264,-5.337
0.170,0.053,0.266,-5.337
0.066,0.055,0.267,-5.337
0.092,0.053,0.264,-5.337
0.195,0.053,0.263,-5.337
0.229,0.055,0.264,-5.337
0.197,0.057,0.271,-5.337
0.229,0.055,0.276,-5.337
0.235,0.054,0.275,-5.337
0.210,0.051,0.272,-5.337
0.218,0.058,0.271,-5.337
0.140,0.057,0.270,-5.337
0.154,0.054,0.267,-5.337
0.152,0.055,0.266,-5.337
0.148,0.055,0.266,-5.337
0.172,0.056,0.265,-5.337
0.204,0.055,0.263,-5.337
0.188,0.054,0.264,-5.337
0.182,0.051,0.266,-5.337
0.214,0.051,0.271,-5.337
0.258,0.047,0.268,-5.337
0.272,0.047,0.265,-5.337
0.252,0.048,0.265,-5.337
0.213,0.053,0.269,-5.337
0.177,0.050,0.270,-5.337
0.222,0.049,0.272,-5.337
0.283,0.051,0.274,-5.337
0.196,0.057,0.274,-5.337
0.162,0.054,0.271,-5.337
0.222,0.050,0.268,-5.337
0.234,0.052,0.263,-5.337
0.247,0.052,0.261,-5.337
0.271,0.054,0.262,-5.337
0.252,0.054,0.267,-5.337
0.190,0.055,0.267,-5.337
0.185,0.055,0.267,-5.337
0.168,0.054,0.267,-5.337
0.171,0.054,0.266,-5.337
0.173,0.051,0.266,-5.337
0.217,0.047,0.265,-5.337
0.234,0.049,0.266,-5.337
0.188,0.050,0.267,-5.337
0.135,0.053,0.268,-5.337
0.157,0.052,0.266,-5.337
0.157,0.053,0.263,-5.337
0.134,0.054,0.261,-5.337
0.211,0.051,0.262,-5.337
0.242,0.048,0.265,-5.337
0.158,0.052,0.268,-5.337
0.110,0.050,0.269,-5.337
0.143,0.049,0.272,-5.337
0.194,0.045,0.276,-5.337
0.247,0.047,0.273,-5.337
0.195,0.050,0.269,-5.337
0.134,0.051,0.267,-5.337
0.110,0.047,0.266,-5.337
0.185,0.045,0.268,-5.337
0.242,0.045,0.266,-5.337
0.251,0.043,0.259,-5.337
0.194,0.047,0.261,-5.337
0.150,0.050,0.263,-5.337
0.213,0.046,0.268,-5.337
0.284,0.045,0.268,-5.337
0.242,0.047,0.267,-5.337
0.190,0.044,0.265,-5.337
0.153,0.049,0.267,-5.337
0.110,0.049,0.266,-5.337
0.100,0.052,0.265,-5.337
0.187,0.052,0.265,-5.337
0.215,0.050,0.264,-5.337
0.196,0.046,0.266,-5.337
0.166,0.050,0.272,-5.337
0.204,0.047,0.272,-5.337
0.240,0.050,0.270,-5.337
0.198,0.051,0.268,-5.337
0.183,0.051,0.265,-5.337
0.249,0.045,0.263,-5.337
0.258,0.048,0.263,-5.337
0.147,0.054,0.263,-5.337
0.132,0.051,0.263,-5.337
0.164,0.045,0.264,-5.337
0.155,0.042,0.264,-5.337
0.131,0.044,0.265,-5.337
0.093,0.044,0.269,-5.337
0.143,0.039,0.269,-5.337
0.189,0.040,0.268,-5.337
0.187,0.043,0.268,-5.337
0.119,0.043,0.267,-5.337
0.066,0.045,0.268,-5.337
0.077,0.043,0.268,-5.337
0.120,0.044,0.267,-5.337
0.155,0.040,0.266,-5.337
0.205,0.038,0.267,-5.337
0.198,0.043,0.268,-5.337
0.227,0.045,0.271,-5.337
0.177,0.046,0.267,-5.337
0.139,0.048,0.263,-5.337
0.161,0.050,0.259,-5.337
0.177,0.045,0.258,-5.337
0.197,0.041,0.260,-5.337
0.251,0.039,0.264,-5.337
0.193,0.040,0.268,-5.337
0.157,0.041,0.269,-5.337
0.160,0.045,0.267,-5.337
0.147,0.042,0.268,-5.337
0.173,0.045,0.271,-5.337
0.182,0.046,0.267,-5.337
0.210,0.047,0.266,-5.337
0.146,0.046,0.265,-5.337
0.096,0.042,0.265,-5.337
0.131,0.040,0.266,-5.337
0.109,0.045,0.267,-5.337
0.106,0.042,0.267,-5.337
0.125,0.042,0.267,-5.337
0.138,0.040,0.263,-5.337
0.153,0.041,0.260,-5.337
0.122,0.045,0.267,-5.337
0.127,0.048,0.274,-5.337
0.143,0.047,0.272,-5.337
0.129,0.045,0.266,-5.337
0.129,0.044,0.264,-5.337
0.193,0.044,0.265,-5.337
0.256,0.042,0.265,-5.337
0.209,0.043,0.267,-5.337
0.142,0.043,0.265,-5.337
0.234,0.042,0.262,-5.337
0.237,0.044,0.264,-5.337
0.204,0.043,0.266,-5.337
0.184,0.042,0.270,-5.337
0.190,0.038,0.270,-5.337
0.175,0.038,0.269,-5.337
0.156,0.040,0.269,-5.337
0.104,0.045,0.271,-5.337
0.091,0.042,0.269,-5.337
0.049,0.044,0.266,-5.337
0.109,0.042,0.265,-5.337
0.111,0.044,0.266,-5.337
0.140,0.038,0.267,-5.337
0.152,0.037,0.266,-5.337
0.188,0.040,0.262,-5.337
0.203,0.040,0.261,-5.337
0.132,0.041,0.262,-5.337
0.160,0.039,0.267,-5.337
0.198,0.041,0.270,-5.337
0.135,0.040,0.265,-5.337
0.119,0.037,0.263,-5.337
0.104,0.038,0.265,-5.337
0.092,0.042,0.271,-5.337
0.134,0.043,0.274,-5.337
0.219,0.045,0.272,-5.337
0.206,0.044,0.264,-5.337
0.166,0.050,0.262,-5.337
0.191,0.046,0.260,-5.337
0.152,0.045,0.262,-5.337
0.128,0.046,0.266,-5.337
0.159,0.047,0.271,-5.337
0.181,0.047,0.270,-5.337
0.174,0.047,0.267,-5.337
0.182,0.046,0.266,-5.337
0.165,0.049,0.267,-5.337
0.144,0.047,0.269,-5.337
0.198,0.047,0.270,-5.337
0.130,0.052,0.269,-5.337
0.117,0.051,0.266,-5.337
0.150,0.051,0.266,-5.337
0.155,0.050,0.263,-5.337
0.136,0.047,0.263,-5.337
0.138,0.048,0.262,-5.337
0.120,0.048,0.264,-5.337
0.141,0.047,0.263,-5.337
0.150,0.049,0.267,-5.337
0.181,0.047,0.267,-5.337
0.207,0.047,0.267,-5.337
0.265,0.047,0.267,-5.337
0.208,0.047,0.271,-5.337
0.191,0.042,0.270,-5.337
0.233,0.043,0.266,-5.337
0.235,0.043,0.266,-5.337
0.233,0.040,0.273,-5.337
0.162,0.043,0.276,-5.337
0.151,0.042,0.272,-5.337
0.170,0.045,0.269,-5.337
0.143,0.049,0.268,-5.337
0.130,0.048,0.266,-5.337
0.149,0.044,0.265,-5.337
0.198,0.042,0.265,-5.337
0.218,0.042,0.265,-5.337
0.194,0.040,0.268,-5.337
0.183,0.041,0.271,-5.337
0.191,0.045,0.271,-5.337
0.193,0.044,0.267,-5.337
0.153,0.047,0.263,-5.337
0.123,0.045,0.263,-5.337
0.169,0.046,0.266,-5.337
0.189,0.047,0.269,-5.337
0.200,0.053,0.270,-5.337
0.166,0.050,0.270,-5.337
0.118,0.046,0.272,-5.337
0.121,0.045,0.267,-5.337
0.173,0.046,0.262,-5.337
0.194,0.048,0.261,-5.337
0.170,0.049,0.264,-5.337
0.121,0.047,0.269,-5.337
0.131,0.047,0.274,-5.337
0.224,0.043,0.275,-5.337
0.247,0.045,0.271,-5.337
0.139,0.051,0.269,-5.337
0.163,0.051,0.262,-5.337
0.163,0.055,0.261,-5.337
0.187,0.053,0.261,-5.337
0.205,0.050,0.266,-5.337
0.241,0.046,0.267,-5.337
0.231,0.047,0.269,-5.337
0.148,0.051,0.266,-5.337
0.114,0.057,0.269,-5.337
0.119,0.055,0.268,-5.337
0.179,0.051,0.267,-5.337
0.141,0.053,0.267,-5.337
0.096,0.053,0.270,-5.337
0.101,0.055,0.270,-5.337
0.169,0.052,0.266,-5.337
0.182,0.049,0.266,-5.337
0.166,0.051,0.270,-5.337
0.106,0.052,0.271,-5.337
0.146,0.053,0.267,-5.337
0.212,0.053,0.266,-5.337
0.179,0.056,0.263,-5.337
0.175,0.056,0.262,-5.337
0.247,0.052,0.264,-5.337
0.237,0.052,0.267,-5.337
0.186,0.051,0.266,-5.337
0.164,0.053,0.266,-5.337
0.188,0.054,0.265,-5.337
0.222,0.057,0.266,-5.337
0.200,0.056,0.268,-5.337
0.180,0.052,0.268,-5.337
0.177,0.048,0.267,-5.337
0.148,0.050,0.269,-5.337
0.091,0.055,0.270,-5.337
0.062,0.059,0.268,-5.337
0.124,0.056,0.265,-5.337
0.159,0.059,0.265,-5.337
0.133,0.057,0.265,-5.337
0.195,0.052,0.263,-5.337
0.214,0.053,0.262,-5.337
0.233,0.053,0.263,-5.337
0.249,0.052,0.265,-5.337
0.225,0.051,0.268,-5.337
0.169,0.049,0.270,-5.337
0.130,0.051,0.269,-5.337
0.141,0.053,0.269,-5.337
0.150,0.050,0.269,-5.337
0.126,0.053,0.272,-5.337
0.057,0.057,0.268,-5.337
0.102,0.055,0.267,-5.337
0.135,0.056,0.268,-5.337
0.092,0.057,0.267,-5.337
0.058,0.056,0.263,-5.337
0.090,0.056,0.264,-5.337
0.091,0.053,0.268,-5.337
0.123,0.053,0.270,-5.337
0.153,0.053,0.271,-5.337
0.124,0.053,0.272,-5.337
0.183,0.048,0.269,-5.337
0.189,0.050,0.267,-5.337
0.209,0.051,0.265,-5.337
0.267,0.053,0.267,-5.337
0.212,0.057,0.267,-5.337
0.133,0.057,0.268,-5.337
0.148,0.055,0.271,-5.337
0.181,0.057,0.267,-5.337
0.156,0.059,0.264,-5.337
0.183,0.059,0.259,-5.337
0.146,0.059,0.260,-5.337
0.096,0.060,0.265,-5.337
0.098,0.061,0.270,-5.337
0.148,0.056,0.268,-5.337
0.186,0.056,0.269,-5.337
0.177,0.059,0.269,-5.337
0.159,0.059,0.271,-5.337
0.172,0.058,0.273,-5.337
0.192,0.061,0.275,-5.337
0.178,0.058,0.272,-5.337
0.168,0.058,0.268,-5.337
0.147,0.059,0.264,-5.337
0.109,0.062,0.263,-5.337
0.137,0.059,0.267,-5.337
0.121,0.057,0.271,-5.337
0.107,0.056,0.273,-5.337
0.154,0.054,0.270,-5.337
0.199,0.055,0.266,-5.337
0.151,0.058,0.262,-5.337
0.182,0.055,0.263,-5.337
0.220,0.058,0.261,-5.337
0.171,0.059,0.261,-5.337
0.159,0.056,0.261,-5.337
0.239,0.054,0.264,-5.337
0.292,0.054,0.266,-5.337
0.267,0.060,0.268,-5.337
0.214,0.059,0.270,-5.337
0.229,0.059,0.272,-5.337
0.238,0.062,0.273,-5.337
0.170,0.060,0.268,-5.337
0.116,0.062,0.264,-5.337
0.102,0.063,0.264,-5.337
0.165,0.062,0.262,-5.337
0.203,0.062,0.267,-5.337
0.158,0.065,0.271,-5.337
0.175,0.058,0.266,-5.337
0.228,0.056,0.264,-5.337
0.200,0.060,0.265,-5.337
0.163,0.068,0.268,-5.337
0.103,0.066,0.267,-5.337
0.113,0.065,0.270,-5.337
0.141,0.062,0.270,-5.337
0.182,0.061,0.271,-5.337
0.161,0.064,0.267,-5.337
0.124,0.067,0.265,-5.337
0.208,0.061,0.264,-5.337
0.247,0.062,0.265,-5.337
0.217,0.064,0.267,-5.337
0.252,0.064,0.269,-5.337
0.297,0.061,0.268,-5.337
0.234,0.062,0.271,-5.337
0.168,0.063,0.268,-5.337
0.146,0.062,0.265,-5.337
0.118,0.060,0.264,-5.337
0.176,0.059,0.263,-5.337
0.187,0.063,0.261,-5.337
0.222,0.062,0.260,-5.337
0.265,0.060,0.262,-5.337
0.238,0.064,0.266,-5.337
0.190,0.066,0.268,-5.337
0.165,0.066,0.267,-5.337
0.214,0.064,0.268,-5.337
0.191,0.066,0.267,-5.337
0.213,0.063,0.266,-5.337
0.239,0.064,0.266,-5.337
0.220,0.064,0.269,-5.337
0.183,0.062,0.271,-5.337
0.174,0.059,0.267,-5.337
0.177,0.057,0.265,-5.337
0.198,0.058,0.265,-5.337
0.140,0.066,0.266,-5.337
0.149,0.065,0.267,-5.337
0.210,0.063,0.267,-5.337
0.160,0.068,0.271,-5.337
0.174,0.067,0.270,-5.337
0.257,0.067,0.267,-5.337
0.242,0.071,0.265,-5.337
0.161,0.074,0.265,-5.337
0.179,0.071,0.270,-5.337
0.233,0.068,0.266,-5.337
0.215,0.068,0.264,-5.337
0.225,0.067,0.261,-5.337
0.278,0.070,0.260,-5.337
0.220,0.070,0.263,-5.337
0.183,0.074,0.267,-5.337
0.217,0.070,0.267,-5.337
0.226,0.068,0.266,-5.337
0.264,0.064,0.266,-5.337
0.318,0.065,0.265,-5.337
0.249,0.068,0.264,-5.337
0.107,0.069,0.266,-5.337
0.093,0.068,0.272,-5.337
0.158,0.069,0.274,-5.337
0.201,0.068,0.269,-5.337
0.204,0.068,0.261,-5.337
0.177,0.068,0.264,-5.337
0.172,0.067,0.270,-5.337
0.234,0.066,0.273,-5.337
0.268,0.064,0.270,-5.337
0.205,0.065,0.267,-5.337
0.167,0.069,0.263,-5.337
0.139,0.069,0.263,-5.337
0.135,0.070,0.265,-5.337
0.204,0.069,0.267,-5.337
0.237,0.070,0.269,-5.337
0.212,0.070,0.270,-5.337
0.159,0.072,0.268,-5.337
0.134,0.073,0.266,-5.337
0.217,0.072,0.264,-5.337
0.287,0.067,0.264,-5.337
0.327,0.064,0.268,-5.337
0.297,0.064,0.267,-5.337
0.242,0.067,0.267,-5.337
0.190,0.069,0.266,-5.337
0.188,0.073,0.265,-5.337
0.188,0.074,0.263,-5.337
0.239,0.073,0.261,-5.337
0.276,0.072,0.265,-5.337
0.227,0.073,0.270,-5.337
0.229,0.071,0.271,-5.337
0.266,0.071,0.271,-5.337
0.223,0.075,0.270,-5.337
0.169,0.075,0.273,-5.337
0.252,0.066,0.269,-5.337
0.270,0.068,0.265,-5.337
0.169,0.071,0.262,-5.337
0.154,0.071,0.265,-5.337
0.196,0.069,0.266,-5.337
0.233,0.067,0.266,-5.337
0.267,0.069,0.267,-5.337
0.294,0.069,0.269,-5.337
0.273,0.069,0.268,-5.337
0.268,0.069,0.265,-5.337
0.263,0.067,0.262,-5.337
0.223,0.067,0.265,-5.337
0.195,0.067,0.269,-5.337
0.257,0.068,0.268,-5.337
0.230,0.072,0.268,-5.337
0.234,0.068,0.269,-5.337
0.244,0.066,0.269,-5.337
0.176,0.069,0.268,-5.337
0.195,0.068,0.268,-5.337
0.226,0.071,0.266,-5.337
0.249,0.073,0.265,-5.337
0.267,0.072,0.265,-5.337
0.238,0.073,0.268,-5.337
0.218,0.070,0.271,-5.337
0.190,0.073,0.271,-5.337
0.170,0.072,0.268,-5.337
0.227,0.069,0.266,-5.337
0.283,0.068,0.266,-5.337
0.259,0.071,0.269,-5.337
0.175,0.070,0.274,-5.337
0.150,0.070,0.273,-5.337
0.185,0.073,0.267,-5.337
0.238,0.074,0.264,-5.337
0.184,0.072,0.263,-5.337
0.209,0.068,0.262,-5.337
0.253,0.070,0.266,-5.337
0.301,0.068,0.268,-5.337
0.274,0.067,0.270,-5.337
0.315,0.067,0.271,-5.337
0.275,0.069,0.270,-5.337
0.184,0.070,0.269,-5.337
0.129,0.073,0.269,-5.337
0.164,0.072,0.268,-5.337
0.180,0.073,0.267,-5.337
0.181,0.070,0.265,-5.337
0.218,0.071,0.264,-5.337
0.204,0.070,0.269,-5.337
0.156,0.071,0.271,-5.337
0.176,0.070,0.272,-5.337
0.239,0.066,0.269,-5.337
0.267,0.062,0.266,-5.337
0.231,0.066,0.270,-5.337
0.233,0.069,0.273,-5.337
0.125,0.072,0.274,-5.337
0.094,0.070,0.274,-5.337
0.228,0.067,0.272,-5.337
0.280,0.066,0.269,-5.337
0.244,0.069,0.264,-5.337
0.161,0.070,0.263,-5.337
0.134,0.067,0.263,-5.337
0.131,0.064,0.267,-5.337
0.149,0.065,0.266,-5.337
0.174,0.070,0.268,-5.337
0.145,0.071,0.269,-5.337
0.135,0.071,0.269,-5.337
0.194,0.068,0.267,-5.337
0.246,0.067,0.267,-5.337
0.209,0.065,0.269,-5.337
0.193,0.064,0.273,-5.337
0.203,0.064,0.275,-5.337
0.202,0.064,0.276,-5.337
0.218,0.064,0.272,-5.337
0.306,0.062,0.267,-5.337
0.290,0.063,0.267,-5.337
0.243,0.062,0.268,-5.337
0.179,0.060,0.269,-5.337
0.233,0.059,0.265,-5.337
0.338,0.058,0.266,-5.337
0.353,0.056,0.268,-5.337
0.282,0.060,0.270,-5.337
0.220,0.059,0.270,-5.337
0.262,0.056,0.269,-5.337
0.242,0.058,0.268,-5.337
0.231,0.060,0.267,-5.337
0.243,0.062,0.268,-5.337
0.264,0.065,0.270,-5.337
0.235,0.063,0.273,-5.337
0.221,0.063,0.273,-5.337
0.239,0.061,0.269,-5.337
0.253,0.061,0.267,-5.337
0.263,0.066,0.266,-5.337
0.226,0.067,0.266,-5.337
0.244,0.064,0.266,-5.337
0.283,0.061,0.268,-5.337
0.219,0.062,0.268,-5.337
0.158,0.065,0.272,-5.337
0.199,0.063,0.276,-5.337
0.183,0.061,0.274,-5.337
0.219,0.058,0.269,-5.337
0.201,0.059,0.264,-5.337
0.190,0.060,0.264,-5.337
0.172,0.059,0.267,-5.337
0.190,0.056,0.272,-5.337
0.220,0.055,0.271,-5.337
0.241,0.053,0.268,-5.337
0.251,0.053,0.265,-5.337
0.217,0.055,0.266,-5.337
0.195,0.055,0.265,-5.337
0.213,0.058,0.267,-5.337
0.201,0.056,0.269,-5.337
0.169,0.057,0.273,-5.337
0.122,0.056,0.274,-5.337
0.172,0.054,0.273,-5.337
0.209,0.054,0.268,-5.337
0.163,0.058,0.266,-5.337
0.153,0.057,0.269,-5.337
0.193,0.055,0.271,-5.337
0.200,0.057,0.269,-5.337
0.143,0.060,0.267,-5.337
0.163,0.057,0.267,-5.337
0.195,0.056,0.270,-5.337
0.143,0.056,0.270,-5.337
0.165,0.054,0.270,-5.337
0.270,0.048,0.267,-5.337
0.286,0.046,0.266,-5.337
0.246,0.046,0.270,-5.337
0.183,0.050,0.271,-5.337
0.124,0.054,0.270,-5.337
0.111,0.055,0.269,-5.337
0.156,0.055,0.269,-5.337
0.185,0.054,0.273,-5.337
0.170,0.055,0.274,-5.337
0.181,0.050,0.274,-5.337
0.219,0.050,0.270,-5.337
0.189,0.052,0.266,-5.337
0.185,0.053,0.265,-5.337
0.222,0.053,0.268,-5.337
0.198,0.060,0.268,-5.337
0.183,0.057,0.267,-5.337
0.165,0.055,0.269,-5.337
0.154,0.054,0.273,-5.337
0.203,0.052,0.273,-5.337
0.298,0.049,0.271,-5.337
0.250,0.051,0.270,-5.337
0.165,0.055,0.270,-5.337
0.178,0.053,0.268,-5.337
0.213,0.054,0.270,-5.337
0.249,0.051,0.268,-5.337
0.242,0.050,0.266,-5.337
0.195,0.055,0.265,-5.337
0.198,0.055,0.266,-5.337
0.235,0.053,0.268,-5.337
0.228,0.051,0.273,-5.337
0.237,0.049,0.274,-5.337
0.207,0.049,0.273,-5.337
0.117,0.052,0.272,-5.337
0.125,0.051,0.271,-5.337
0.148,0.052,0.267,-5.337
0.141,0.052,0.266,-5.337
0.191,0.048,0.268,-5.337
0.192,0.052,0.271,-5.337
0.182,0.052,0.272,-5.337
0.199,0.049,0.267,-5.337
0.168,0.049,0.264,-5.337
0.163,0.049,0.262,-5.337
0.218,0.047,0.263,-5.337
0.285,0.046,0.264,-5.337
0.217,0.052,0.269,-5.337
0.126,0.051,0.274,-5.337
0.167,0.049,0.277,-5.337
0.258,0.047,0.273,-5.337
0.260,0.046,0.262,-5.337
0.308,0.042,0.256,-5.337
0.333,0.046,0.259,-5.337
0.305,0.049,0.267,-5.337
0.177,0.048,0.269,-5.337
0.088,0.049,0.272,-5.337
0.115,0.052,0.272,-5.337
0.142,0.054,0.271,-5.337
0.187,0.053,0.268,-5.337
0.173,0.053,0.266,-5.337
0.096,0.053,0.267,-5.337
0.160,0.050,0.271,-5.337
0.180,0.052,0.271,-5.337
0.182,0.051,0.270,-5.337
0.234,0.052,0.268,-5.337
0.246,0.055,0.271,-5.337
0.232,0.054,0.271,-5.337
0.190,0.057,0.271,-5.337
0.185,0.058,0.268,-5.337
0.171,0.056,0.267,-5.337
0.175,0.055,0.265,-5.337
0.159,0.057,0.265,-5.337
0.172,0.055,0.265,-5.337
0.180,0.054,0.268,-5.337
0.184,0.049,0.267,-5.337
0.207,0.044,0.267,-5.337
0.192,0.050,0.268,-5.337
0.148,0.050,0.271,-5.337
0.104,0.049,0.270,-5.337
0.158,0.047,0.267,-5.337
0.216,0.049,0.266,-5.337
0.168,0.046,0.266,-5.337
0.099,0.048,0.267,-5.337
0.117,0.048,0.265,-5.337
0.152,0.047,0.267,-5.337
0.170,0.048,0.268,-5.337
0.136,0.051,0.268,-5.337
0.024,0.053,0.266,-5.337
0.042,0.052,0.268,-5.337
0.078,0.053,0.267,-5.337
0.175,0.054,0.267,-5.337
0.213,0.052,0.270,-5.337
0.176,0.054,0.269,-5.337
0.143,0.055,0.266,-5.337
0.156,0.052,0.264,-5.337
0.179,0.047,0.265,-5.337
0.199,0.045,0.269,-5.337
0.207,0.048,0.270,-5.337
0.187,0.049,0.269,-5.337
0.234,0.049,0.270,-5.337
0.346,0.046,0.269,-5.337
0.262,0.049,0.268,-5.337
0.133,0.053,0.265,-5.337
0.119,0.049,0.264,-5.337
0.162,0.047,0.263,-5.337
0.140,0.049,0.268,-5.337
0.149,0.052,0.270,-5.337
0.182,0.052,0.268,-5.337
0.178,0.051,0.268,-5.337
0.241,0.050,0.266,-5.337
0.267,0.050,0.264,-5.337
0.203,0.049,0.268,-5.337
0.185,0.048,0.273,-5.337
0.114,0.053,0.270,-5.337
0.070,0.050,0.267,-5.337
0.169,0.049,0.269,-5.337
0.180,0.049,0.271,-5.337
0.130,0.051,0.270,-5.337
0.170,0.051,0.265,-5.337
0.155,0.051,0.264,-5.337
0.136,0.049,0.265,-5.337
0.212,0.048,0.264,-5.337
0.280,0.045,0.265,-5.337
0.219,0.045,0.268,-5.337
0.147,0.046,0.269,-5.337
0.159,0.050,0.267,-5.337
0.195,0.047,0.269,-5.337
0.263,0.045,0.270,-5.337
0.270,0.043,0.271,-5.337
0.230,0.045,0.267,-5.337
0.189,0.045,0.265,-5.337
0.130,0.048,0.264,-5.337
0.084,0.050,0.264,-5.337
0.179,0.048,0.266,-5.337
0.245,0.046,0.269,-5.337
0.188,0.051,0.269,-5.337
0.173,0.049,0.269,-5.337
0.231,0.044,0.271,-5.337
0.246,0.041,0.272,-5.337
0.197,0.043,0.268,-5.337
0.204,0.043,0.264,-5.337
0.220,0.045,0.265,-5.337
0.225,0.045,0.269,-5.337
0.235,0.042,0.271,-5.337
0.186,0.045,0.268,-5.337
0.116,0.048,0.265,-5.337
0.114,0.048,0.265,-5.337
0.071,0.051,0.271,-5.337
0.063,0.049,0.273,-5.337
0.125,0.050,0.269,-5.337
0.154,0.050,0.262,-5.337
0.163,0.051,0.265,-5.337
0.170,0.048,0.271,-5.337
0.167,0.047,0.274,-5.337
0.131,0.050,0.272,-5.337
0.122,0.051,0.270,-5.337
0.111,0.051,0.268,-5.337
0.168,0.045,0.268,-5.337
0.241,0.043,0.267,-5.337
0.228,0.046,0.267,-5.337
0.174,0.048,0.266,-5.337
0.146,0.047,0.266,-5.337
0.148,0.047,0.264,-5.337
0.145,0.048,0.263,-5.337
0.192,0.047,0.267,-5.337
0.156,0.048,0.270,-5.337
0.117,0.048,0.269,-5.337
0.147,0.046,0.266,-5.337
0.188,0.047,0.268,-5.337
0.215,0.046,0.269,-5.337
0.179,0.046,0.267,-5.337
0.095,0.045,0.265,-5.337
0.087,0.043,0.267,-5.337
0.156,0.044,0.270,-5.337
0.196,0.046,0.267,-5.337
0.167,0.050,0.267,-5.337
0.153,0.050,0.270,-5.337
0.104,0.049,0.270,-5.337
0.097,0.046,0.270,-5.337
0.164,0.046,0.270,-5.337
0.205,0.048,0.269,-5.337
0.215,0.047,0.272,-5.337
0.215,0.044,0.273,-5.337
0.182,0.045,0.268,-5.337
0.202,0.046,0.265,-5.337
0.202,0.048,0.269,-5.337
0.172,0.047,0.271,-5.337
0.174,0.047,0.274,-5.337
0.142,0.046,0.270,-5.337
0.135,0.047,0.267,-5.337
0.147,0.053,0.262,-5.337
0.155,0.054,0.263,-5.337
0.153,0.052,0.268,-5.337
0.151,0.056,0.273,-5.337
0.125,0.055,0.271,-5.337
0.169,0.051,0.267,-5.337
0.149,0.052,0.265,-5.337
0.163,0.051,0.265,-5.337
0.234,0.050,0.266,-5.337
0.238,0.051,0.269,-5.337
0.138,0.049,0.268,-5.337
0.090,0.048,0.269,-5.337
0.139,0.048,0.270,-5.337
0.156,0.049,0.271,-5.337
0.131,0.052,0.270,-5.337
0.153,0.050,0.268,-5.337
0.218,0.048,0.268,-5.337
0.220,0.047,0.272,-5.337
0.153,0.048,0.277,-5.337
0.138,0.052,0.275,-5.337
0.138,0.053,0.270,-5.337
0.113,0.053,0.266,-5.337
0.085,0.053,0.265,-5.337
0.108,0.052,0.263,-5.337
0.148,0.051,0.264,-5.337
0.171,0.051,0.270,-5.337
0.161,0.055,0.275,-5.337
0.146,0.057,0.272,-5.337
0.202,0.053,0.267,-5.337
0.210,0.047,0.269,-5.337
0.241,0.049,0.275,-5.337
0.216,0.055,0.274,-5.337
0.180,0.056,0.267,-5.337
0.158,0.057,0.264,-5.337
0.093,0.056,0.264,-5.337
0.078,0.060,0.265,-5.337
0.119,0.061,0.269,-5.337
0.167,0.057,0.270,-5.337
0.218,0.054,0.266,-5.337
0.210,0.055,0.268,-5.337
0.197,0.055,0.273,-5.337
0.220,0.055,0.275,-5.337
0.238,0.053,0.271,-5.337
0.170,0.056,0.270,-5.337
0.118,0.058,0.268,-5.337
0.164,0.057,0.267,-5.337
0.201,0.057,0.267,-5.337
0.188,0.056,0.269,-5.337
0.098,0.057,0.270,-5.337
0.095,0.058,0.272,-5.337
0.149,0.059,0.273,-5.337
0.143,0.063,0.273,-5.337
0.114,0.062,0.269,-5.337
0.090,0.061,0.267,-5.337
0.110,0.058,0.266,-5.337
0.168,0.061,0.268,-5.337
0.184,0.061,0.267,-5.337
0.203,0.063,0.267,-5.337
0.099,0.064,0.268,-5.337
0.090,0.063,0.268,-5.337
0.163,0.060,0.269,-5.337
0.172,0.060,0.269,-5.337
0.180,0.060,0.267,-5.337
0.209,0.062,0.263,-5.337
0.204,0.062,0.265,-5.337
0.180,0.064,0.267,-5.337
0.158,0.062,0.269,-5.337
0.162,0.064,0.271,-5.337
0.161,0.069,0.268,-5.337
0.158,0.066,0.265,-5.337
0.169,0.065,0.267,-5.337
0.116,0.065,0.269,-5.337
0.113,0.064,0.270,-5.337
0.140,0.067,0.271,-5.337
0.146,0.071,0.267,-5.337
0.116,0.070,0.260,-5.337
0.138,0.065,0.258,-5.337
0.219,0.068,0.267,-5.337
0.184,0.069,0.274,-5.337
0.136,0.067,0.276,-5.337
0.098,0.061,0.272,-5.337
0.192,0.061,0.271,-5.337
0.203,0.065,0.270,-5.337
0.177,0.064,0.268,-5.337
0.152,0.064,0.265,-5.337
0.093,0.066,0.264,-5.337
0.108,0.068,0.263,-5.337
0.130,0.073,0.263,-5.337
0.113,0.073,0.263,-5.337
0.141,0.070,0.268,-5.337
0.218,0.068,0.268,-5.337
0.270,0.066,0.269,-5.337
0.270,0.068,0.272,-5.337
0.263,0.067,0.270,-5.337
0.253,0.068,0.266,-5.337
0.187,0.069,0.268,-5.337
0.197,0.069,0.270,-5.337
0.196,0.071,0.270,-5.337
0.206,0.075,0.267,-5.337
0.230,0.073,0.263,-5.337
0.302,0.068,0.265,-5.337
0.250,0.067,0.268,-5.337
0.189,0.067,0.268,-5.337
0.230,0.064,0.260,-5.337
0.229,0.068,0.259,-5.337
0.144,0.070,0.266,-5.337
0.127,0.072,0.275,-5.337
0.152,0.072,0.275,-5.337
0.137,0.072,0.269,-5.337
0.118,0.070,0.270,-5.337
0.134,0.072,0.275,-5.337
0.181,0.067,0.271,-5.337
0.155,0.067,0.264,-5.337
0.198,0.066,0.263,-5.337
0.227,0.071,0.267,-5.337
0.263,0.069,0.267,-5.337
0.237,0.067,0.266,-5.337
0.194,0.068,0.272,-5.337
0.163,0.069,0.277,-5.337
0.190,0.069,0.279,-5.337
0.237,0.069,0.272,-5.337
0.203,0.069,0.264,-5.337
0.062,0.073,0.261,-5.337
0.031,0.074,0.266,-5.337
0.079,0.071,0.265,-5.337
0.153,0.073,0.261,-5.337
0.153,0.074,0.259,-5.337
0.135,0.075,0.266,-5.337
0.194,0.072,0.270,-5.337
0.235,0.067,0.267,-5.337
0.179,0.067,0.265,-5.337
0.176,0.068,0.266,-5.337
0.243,0.064,0.269,-5.337
0.245,0.065,0.272,-5.337
0.210,0.068,0.270,-5.337
0.178,0.068,0.268,-5.337
0.218,0.068,0.268,-5.337
0.261,0.070,0.267,-5.337
0.199,0.070,0.264,-5.337
0.183,0.069,0.261,-5.337
0.203,0.069,0.259,-5.337
0.176,0.070,0.263,-5.337
0.187,0.068,0.271,-5.337
0.220,0.063,0.272,-5.337
0.241,0.065,0.272,-5.337
0.199,0.068,0.269,-5.337
0.187,0.068,0.265,-5.337
0.157,0.070,0.265,-5.337
0.224,0.067,0.266,-5.337
0.281,0.067,0.266,-5.337
0.219,0.069,0.269,-5.337
0.134,0.068,0.272,-5.337
0.079,0.068,0.267,-5.337
0.098,0.069,0.260,-5.337
0.187,0.070,0.260,-5.337
0.212,0.072,0.268,-5.337
0.216,0.072,0.270,-5.337
0.255,0.073,0.266,-5.337
0.252,0.072,0.264,-5.337
0.238,0.070,0.265,-5.337
0.257,0.069,0.266,-5.337
0.224,0.071,0.268,-5.337
0.172,0.072,0.267,-5.337
0.150,0.073,0.275,-5.337
0.180,0.074,0.276,-5.337
0.146,0.072,0.270,-5.337
0.130,0.070,0.265,-5.337
0.125,0.072,0.265,-5.337
0.167,0.072,0.262,-5.337
0.238,0.072,0.260,-5.337
0.198,0.074,0.262,-5.337
0.169,0.074,0.265,-5.337
0.237,0.072,0.267,-5.337
0.249,0.072,0.268,-5.337
0.247,0.072,0.267,-5.337
0.258,0.070,0.266,-5.337
0.243,0.070,0.268,-5.337
0.281,0.068,0.272,-5.337
0.220,0.071,0.274,-5.337
0.180,0.072,0.272,-5.337
0.151,0.075,0.269,-5.337
0.178,0.075,0.269,-5.337
0.180,0.075,0.269,-5.337
0.136,0.077,0.265,-5.337
0.068,0.075,0.260,-5.337
0.094,0.074,0.258,-5.337
0.205,0.075,0.265,-5.337
0.239,0.078,0.266,-5.337
0.182,0.079,0.266,-5.337
0.140,0.076,0.263,-5.337
0.139,0.077,0.262,-5.337
0.139,0.075,0.266,-5.337
0.089,0.076,0.270,-5.337
0.159,0.074,0.272,-5.337
0.223,0.074,0.267,-5.337
0.254,0.069,0.267,-5.337
0.270,0.065,0.268,-5.337
0.243,0.073,0.269,-5.337
0.230,0.075,0.269,-5.337
0.219,0.078,0.268,-5.337
0.194,0.077,0.266,-5.337
0.209,0.073,0.266,-5.337
0.206,0.068,0.264,-5.337
0.198,0.070,0.266,-5.337
0.142,0.075,0.269,-5.337
0.146,0.073,0.270,-5.337
0.228,0.064,0.268,-5.337
0.236,0.066,0.271,-5.337
0.253,0.068,0.271,-5.337
0.221,0.070,0.268,-5.337
0.228,0.069,0.263,-5.337
0.261,0.071,0.261,-5.337
0.269,0.074,0.264,-5.337
0.302,0.076,0.269,-5.337
0.298,0.075,0.272,-5.337
0.247,0.073,0.271,-5.337
0.262,0.071,0.266,-5.337
0.234,0.073,0.263,-5.337
0.221,0.074,0.263,-5.337
0.228,0.076,0.268,-5.337
0.164,0.077,0.269,-5.337
0.199,0.078,0.264,-5.337
0.250,0.071,0.265,-5.337
0.229,0.072,0.268,-5.337
0.180,0.073,0.272,-5.337
0.265,0.070,0.271,-5.337
0.242,0.073,0.267,-5.337
0.157,0.074,0.263,-5.337
0.202,0.071,0.266,-5.337
0.230,0.068,0.269,-5.337
0.214,0.069,0.267,-5.337
0.224,0.069,0.265,-5.337
0.230,0.068,0.266,-5.337
0.188,0.072,0.267,-5.337
0.228,0.072,0.266,-5.337
0.241,0.072,0.260,-5.337
0.195,0.073,0.260,-5.337
0.198,0.072,0.265,-5.337
0.229,0.068,0.266,-5.337
0.192,0.069,0.266,-5.337
0.207,0.069,0.267,-5.337
0.206,0.070,0.271,-5.337
0.178,0.067,0.272,-5.337
0.258,0.067,0.269,-5.337
0.257,0.066,0.264,-5.337
0.239,0.067,0.266,-5.337
0.264,0.068,0.268,-5.337
0.261,0.070,0.269,-5.337
0.240,0.072,0.267,-5.337
0.213,0.070,0.266,-5.337
0.203,0.071,0.262,-5.337
0.188,0.071,0.264,-5.337
0.170,0.071,0.267,-5.337
0.160,0.067,0.267,-5.337
0.123,0.069,0.268,-5.337
0.117,0.073,0.268,-5.337
0.204,0.067,0.267,-5.337
0.286,0.065,0.262,-5.337
0.291,0.065,0.263,-5.337
0.219,0.068,0.263,-5.337
0.138,0.071,0.265,-5.337
0.149,0.071,0.268,-5.337
0.176,0.069,0.268,-5.337
0.217,0.069,0.266,-5.337
0.228,0.069,0.264,-5.337
0.143,0.067,0.265,-5.337
0.167,0.065,0.266,-5.337
0.276,0.063,0.265,-5.337
0.324,0.062,0.266,-5.337
0.288,0.061,0.267,-5.337
0.268,0.061,0.268,-5.337
0.190,0.065,0.268,-5.337
0.140,0.067,0.267,-5.337
0.181,0.064,0.267,-5.337
0.207,0.060,0.269,-5.337
0.280,0.053,0.269,-5.337
0.217,0.059,0.272,-5.337
0.110,0.061,0.270,-5.337
0.132,0.061,0.266,-5.337
0.209,0.063,0.264,-5.337
0.278,0.063,0.266,-5.337
0.222,0.062,0.267,-5.337
0.138,0.061,0.268,-5.337
0.059,0.064,0.269,-5.337
0.103,0.058,0.266,-5.337
0.166,0.058,0.265,-5.337
0.199,0.058,0.263,-5.337
0.253,0.058,0.265,-5.337
0.211,0.059,0.268,-5.337
0.182,0.058,0.272,-5.337
0.207,0.060,0.270,-5.337
0.241,0.060,0.269,-5.337
0.142,0.060,0.267,-5.337
0.121,0.057,0.266,-5.337
0.210,0.051,0.268,-5.337
0.208,0.057,0.270,-5.337
0.197,0.058,0.268,-5.337
0.170,0.058,0.266,-5.337
0.131,0.055,0.269,-5.337
0.119,0.056,0.267,-5.337
0.153,0.057,0.268,-5.337
0.145,0.059,0.271,-5.337
0.093,0.057,0.269,-5.337
0.092,0.057,0.265,-5.337
0.180,0.054,0.266,-5.337
0.248,0.053,0.268,-5.337
0.224,0.051,0.269,-5.337
0.185,0.053,0.267,-5.337
0.134,0.057,0.267,-5.337
0.143,0.058,0.267,-5.337
0.176,0.057,0.268,-5.337
0.150,0.055,0.268,-5.337
0.198,0.051,0.268,-5.337
0.241,0.047,0.266,-5.337
0.223,0.048,0.266,-5.337
0.210,0.049,0.267,-5.337
0.170,0.051,0.268,-5.337
0.154,0.051,0.267,-5.337
0.180,0.053,0.267,-5.337
0.233,0.051,0.268,-5.337
0.253,0.052,0.266,-5.337
0.201,0.053,0.260,-5.337
0.194,0.052,0.263,-5.337
0.247,0.051,0.266,-5.337
0.294,0.051,0.264,-5.337
0.247,0.054,0.261,-5.337
0.184,0.056,0.262,-5.337
0.164,0.057,0.265,-5.337
0.166,0.056,0.267,-5.337
0.113,0.056,0.265,-5.337
0.122,0.056,0.267,-5.337
0.188,0.055,0.272,-5.337
0.189,0.053,0.272,-5.337
0.165,0.055,0.270,-5.337
0.110,0.058,0.265,-5.337
0.086,0.058,0.264,-5.337
0.120,0.054,0.262,-5.337
0.178,0.056,0.264,-5.337
0.146,0.056,0.268,-5.337
0.147,0.052,0.267,-5.337
0.245,0.045,0.266,-5.337
0.323,0.050,0.268,-5.337
0.302,0.051,0.268,-5.337
0.268,0.051,0.267,-5.337
0.234,0.051,0.264,-5.337
0.209,0.052,0.261,-5.337
0.177,0.053,0.263,-5.337
0.236,0.051,0.265,-5.337
0.213,0.053,0.268,-5.337
0.193,0.051,0.268,-5.337
0.236,0.050,0.267,-5.337
0.214,0.050,0.259,-5.337
0.129,0.057,0.260,-5.337
0.105,0.052,0.263,-5.337
0.188,0.051,0.267,-5.337
0.145,0.055,0.268,-5.337
0.129,0.060,0.270,-5.337
0.171,0.055,0.272,-5.337
0.193,0.051,0.272,-5.337
0.233,0.049,0.270,-5.337
0.216,0.050,0.271,-5.337
0.231,0.048,0.270,-5.337
0.182,0.051,0.266,-5.337
0.126,0.053,0.266,-5.337
0.120,0.055,0.266,-5.337
0.147,0.053,0.262,-5.337
0.176,0.052,0.262,-5.337
0.156,0.050,0.264,-5.337
0.188,0.054,0.264,-5.337
0.252,0.050,0.269,-5.337
0.253,0.053,0.270,-5.337
0.205,0.053,0.271,-5.337
0.170,0.057,0.269,-5.337
0.098,0.058,0.267,-5.337
0.097,0.054,0.267,-5.337
0.187,0.056,0.268,-5.337
0.171,0.057,0.265,-5.337
0.118,0.054,0.264,-5.337
0.091,0.052,0.265,-5.337
0.168,0.050,0.267,-5.337
0.195,0.054,0.272,-5.337
0.200,0.053,0.273,-5.337
0.182,0.052,0.267,-5.337
0.202,0.050,0.264,-5.337
0.236,0.049,0.267,-5.337
0.161,0.048,0.269,-5.337
0.228,0.046,0.266,-5.337
0.295,0.046,0.263,-5.337
0.223,0.051,0.268,-5.337
0.109,0.050,0.271,-5.337
0.155,0.046,0.272,-5.337
0.204,0.044,0.269,-5.337
0.207,0.045,0.270,-5.337
0.138,0.048,0.268,-5.337
0.087,0.052,0.268,-5.337
0.126,0.049,0.263,-5.337
0.182,0.046,0.260,-5.337
0.162,0.048,0.261,-5.337
0.156,0.049,0.263,-5.337
0.124,0.045,0.265,-5.337
0.121,0.043,0.269,-5.337
0.122,0.046,0.270,-5.337
0.168,0.045,0.268,-5.337
0.255,0.042,0.269,-5.337
0.216,0.043,0.266,-5.337
0.154,0.047,0.265,-5.337
0.147,0.048,0.266,-5.337
0.152,0.048,0.270,-5.337
0.200,0.048,0.267,-5.337
0.180,0.044,0.263,-5.337
0.124,0.047,0.262,-5.337
0.198,0.051,0.266,-5.337
0.200,0.051,0.266,-5.337
0.171,0.047,0.267,-5.337
0.134,0.048,0.266,-5.337
0.145,0.047,0.267,-5.337
0.145,0.046,0.267,-5.337
0.209,0.045,0.264,-5.337
0.234,0.045,0.264,-5.337
0.180,0.049,0.265,-5.337
0.120,0.051,0.267,-5.337
0.079,0.048,0.267,-5.337
0.104,0.048,0.266,-5.337
0.155,0.046,0.264,-5.337
0.161,0.049,0.262,-5.337
0.204,0.048,0.265,-5.337
0.240,0.047,0.270,-5.337
0.191,0.048,0.273,-5.337
0.150,0.048,0.271,-5.337
0.170,0.049,0.266,-5.337
0.210,0.052,0.265,-5.337
0.208,0.050,0.263,-5.337
0.164,0.049,0.266,-5.337
0.161,0.047,0.265,-5.337
0.135,0.050,0.267,-5.337
0.180,0.045,0.266,-5.337
0.217,0.045,0.265,-5.337
0.136,0.044,0.266,-5.337
0.125,0.041,0.268,-5.337
0.128,0.041,0.265,-5.337
0.115,0.040,0.262,-5.337
0.136,0.039,0.267,-5.337
0.149,0.042,0.268,-5.337
0.137,0.045,0.267,-5.337
0.141,0.047,0.266,-5.337
0.138,0.045,0.267,-5.337
0.182,0.042,0.266,-5.337
0.203,0.044,0.266,-5.337
0.209,0.047,0.266,-5.337
0.237,0.046,0.269,-5.337
0.207,0.046,0.272,-5.337
0.191,0.045,0.271,-5.337
0.166,0.046,0.267,-5.337
0.153,0.047,0.266,-5.337
0.161,0.049,0.265,-5.337
0.153,0.050,0.263,-5.337
0.149,0.051,0.262,-5.337
0.170,0.052,0.268,-5.337
0.172,0.053,0.269,-5.337
0.165,0.048,0.267,-5.337
0.177,0.047,0.267,-5.337
0.140,0.048,0.268,-5.337
0.115,0.048,0.269,-5.337
0.215,0.045,0.269,-5.337
0.245,0.045,0.266,-5.337
0.239,0.049,0.266,-5.337
0.179,0.052,0.267,-5.337
0.091,0.054,0.266,-5.337
0.032,0.058,0.267,-5.337
0.086,0.054,0.267,-5.337
0.105,0.051,0.266,-5.337
0.079,0.051,0.267,-5.337
0.118,0.051,0.270,-5.337
0.110,0.052,0.270,-5.337
0.069,0.053,0.267,-5.337
0.112,0.052,0.261,-5.337
0.187,0.049,0.262,-5.337
0.192,0.048,0.264,-5.337
0.176,0.050,0.265,-5.337
0.150,0.052,0.265,-5.337
0.151,0.049,0.269,-5.337
0.185,0.049,0.269,-5.337
0.183,0.052,0.266,-5.337
0.198,0.050,0.266,-5.337
0.137,0.052,0.270,-5.337
0.061,0.051,0.273,-5.337
0.132,0.045,0.272,-5.337
0.212,0.045,0.269,-5.337
0.174,0.047,0.264,-5.337
0.188,0.044,0.258,-5.337
0.260,0.040,0.259,-5.337
0.252,0.042,0.266,-5.337
0.205,0.042,0.271,-5.337
0.209,0.042,0.270,-5.337
0.144,0.047,0.266,-5.337
0.091,0.053,0.265,-5.337
0.167,0.048,0.266,-5.337
0.238,0.046,0.270,-5.337
0.230,0.046,0.269,-5.337
0.171,0.047,0.267,-5.337
0.163,0.050,0.268,-5.337
0.160,0.050,0.267,-5.337
0.161,0.046,0.262,-5.337
0.132,0.046,0.262,-5.337
0.159,0.043,0.262,-5.337
0.210,0.045,0.265,-5.337
0.163,0.049,0.267,-5.337
0.117,0.051,0.266,-5.337
0.128,0.047,0.266,-5.337
0.136,0.048,0.268,-5.337
0.166,0.051,0.270,-5.337
0.176,0.054,0.269,-5.337
0.187,0.050,0.263,-5.337
0.231,0.050,0.261,-5.337
0.212,0.057,0.266,-5.337
0.164,0.058,0.268,-5.337
0.205,0.055,0.269,-5.337
0.175,0.055,0.265,-5.337
0.093,0.055,0.263,-5.337
0.107,0.057,0.263,-5.337
0.124,0.056,0.265,-5.337
0.173,0.056,0.268,-5.337
0.164,0.060,0.269,-5.337
0.146,0.057,0.266,-5.337
0.180,0.053,0.263,-5.337
0.256,0.049,0.266,-5.337
0.290,0.053,0.267,-5.337
0.203,0.056,0.267,-5.337
0.148,0.058,0.270,-5.337
0.179,0.057,0.270,-5.337
0.226,0.060,0.268,-5.337
0.215,0.058,0.262,-5.337
0.173,0.057,0.260,-5.337
0.198,0.055,0.264,-5.337
0.172,0.054,0.265,-5.337
0.173,0.054,0.269,-5.337
0.133,0.055,0.271,-5.337
0.077,0.056,0.270,-5.337
0.019,0.056,0.266,-5.337
0.072,0.056,0.264,-5.337
0.193,0.054,0.261,-5.337
0.191,0.057,0.264,-5.337
0.151,0.056,0.267,-5.337
0.137,0.055,0.269,-5.337
0.151,0.056,0.273,-5.337
0.200,0.056,0.272,-5.337
0.167,0.056,0.267,-5.337
0.110,0.058,0.267,-5.337
0.136,0.056,0.265,-5.337
0.194,0.056,0.263,-5.337
0.133,0.060,0.263,-5.337
0.105,0.058,0.263,-5.337
0.171,0.057,0.261,-5.337
0.182,0.059,0.260,-5.337
0.158,0.061,0.264,-5.337
0.137,0.062,0.266,-5.337
0.170,0.060,0.269,-5.337
0.112,0.059,0.271,-5.337
0.097,0.060,0.270,-5.337
0.143,0.058,0.265,-5.337
0.167,0.062,0.264,-5.337
0.144,0.067,0.265,-5.337
0.119,0.066,0.267,-5.337
0.148,0.063,0.269,-5.337
0.187,0.063,0.269,-5.337
0.233,0.057,0.269,-5.337
0.189,0.061,0.267,-5.337
0.145,0.062,0.267,-5.337
0.178,0.062,0.267,-5.337
0.266,0.060,0.268,-5.337
0.205,0.061,0.271,-5.337
0.159,0.062,0.270,-5.337
0.166,0.065,0.267,-5.337
0.090,0.065,0.268,-5.337
0.116,0.062,0.269,-5.337
0.220,0.063,0.269,-5.337
0.258,0.067,0.265,-5.337
0.202,0.065,0.265,-5.337
0.148,0.067,0.264,-5.337
0.170,0.066,0.265,-5.337
0.112,0.065,0.266,-5.337
0.043,0.069,0.267,-5.337
0.066,0.069,0.265,-5.337
0.167,0.066,0.264,-5.337
0.208,0.065,0.264,-5.337
0.193,0.065,0.266,-5.337
0.188,0.064,0.265,-5.337
0.198,0.065,0.266,-5.337
0.209,0.063,0.268,-5.337
0.316,0.062,0.269,-5.337
0.344,0.057,0.267,-5.337
0.292,0.058,0.264,-5.337
0.230,0.060,0.265,-5.337
0.182,0.061,0.267,-5.337
0.085,0.066,0.265,-5.337
0.122,0.065,0.263,-5.337
0.163,0.065,0.263,-5.337
0.120,0.066,0.264,-5.337
0.082,0.069,0.264,-5.337
0.117,0.069,0.264,-5.337
0.199,0.067,0.266,-5.337
0.225,0.065,0.267,-5.337
0.220,0.067,0.266,-5.337
0.183,0.069,0.261,-5.337
0.174,0.068,0.260,-5.337
0.236,0.067,0.266,-5.337
0.321,0.066,0.268,-5.337
0.326,0.068,0.265,-5.337
0.258,0.068,0.266,-5.337
0.235,0.067,0.267,-5.337
0.202,0.065,0.269,-5.337
0.204,0.065,0.266,-5.337
0.240,0.063,0.262,-5.337
0.213,0.063,0.261,-5.337
0.175,0.069,0.266,-5.337
0.169,0.070,0.269,-5.337
0.231,0.067,0.271,-5.337
0.234,0.065,0.269,-5.337
0.168,0.062,0.265,-5.337
0.206,0.065,0.261,-5.337
0.208,0.067,0.260,-5.337
0.172,0.069,0.263,-5.337
0.191,0.067,0.267,-5.337
0.212,0.068,0.272,-5.337
0.184,0.068,0.274,-5.337
0.150,0.072,0.274,-5.337
0.091,0.072,0.273,-5.337
0.104,0.069,0.270,-5.337
0.174,0.065,0.266,-5.337
0.215,0.066,0.262,-5.337
0.196,0.068,0.264,-5.337
0.230,0.071,0.269,-5.337
0.197,0.071,0.272,-5.337
0.174,0.072,0.271,-5.337
0.194,0.073,0.266,-5.337
0.215,0.074,0.260,-5.337
0.220,0.072,0.262,-5.337
0.166,0.072,0.266,-5.337
0.189,0.069,0.269,-5.337
0.166,0.070,0.265,-5.337
0.126,0.071,0.263,-5.337
0.151,0.070,0.261,-5.337
0.180,0.070,0.266,-5.337
0.184,0.069,0.269,-5.337
0.193,0.067,0.268,-5.337
0.183,0.068,0.263,-5.337
0.145,0.070,0.262,-5.337
0.116,0.076,0.262,-5.337
0.142,0.076,0.261,-5.337
0.225,0.071,0.263,-5.337
0.240,0.070,0.267,-5.337
0.217,0.070,0.269,-5.337
0.237,0.067,0.272,-5.337
0.241,0.069,0.272,-5.337
0.247,0.066,0.270,-5.337
0.241,0.065,0.268,-5.337
0.242,0.066,0.267,-5.337
0.218,0.069,0.267,-5.337
0.177,0.072,0.269,-5.337
0.182,0.071,0.267,-5.337
0.203,0.067,0.266,-5.337
0.189,0.066,0.268,-5.337
0.153,0.067,0.271,-5.337
0.137,0.070,0.270,-5.337
0.105,0.067,0.264,-5.337
0.126,0.066,0.260,-5.337
0.173,0.067,0.261,-5.337
0.097,0.069,0.266,-5.337
0.118,0.068,0.265,-5.337
0.156,0.066,0.264,-5.337
0.200,0.066,0.264,-5.337
0.186,0.065,0.265,-5.337
0.247,0.062,0.266,-5.337
0.288,0.066,0.266,-5.337
0.155,0.069,0.265,-5.337
0.172,0.070,0.270,-5.337
0.294,0.065,0.274,-5.337
0.289,0.064,0.267,-5.337
0.224,0.067,0.263,-5.337
0.140,0.067,0.262,-5.337
0.151,0.065,0.266,-5.337
0.170,0.066,0.268,-5.337
0.161,0.066,0.270,-5.337
0.208,0.065,0.264,-5.337
0.204,0.063,0.260,-5.337
0.229,0.063,0.261,-5.337
0.283,0.064,0.263,-5.337
0.288,0.065,0.265,-5.337
0.209,0.062,0.268,-5.337
0.185,0.063,0.268,-5.337
0.216,0.063,0.271,-5.337
0.251,0.063,0.270,-5.337
0.240,0.065,0.265,-5.337
0.228,0.067,0.266,-5.337
0.176,0.070,0.268,-5.337
0.151,0.072,0.265,-5.337
0.210,0.068,0.264,-5.337
0.257,0.065,0.267,-5.337
0.191,0.067,0.264,-5.337
0.190,0.071,0.265,-5.337
0.240,0.068,0.266,-5.337
0.216,0.067,0.268,-5.337
0.226,0.065,0.268,-5.337
0.245,0.063,0.270,-5.337
0.275,0.062,0.268,-5.337
0.310,0.066,0.263,-5.337
0.278,0.067,0.261,-5.337
0.209,0.068,0.261,-5.337
0.171,0.066,0.263,-5.337
0.184,0.066,0.266,-5.337
0.226,0.067,0.264,-5.337
0.228,0.067,0.262,-5.337
0.189,0.068,0.261,-5.337
0.148,0.070,0.263,-5.337
0.106,0.068,0.265,-5.337
0.117,0.067,0.267,-5.337
0.144,0.066,0.267,-5.337
0.213,0.063,0.268,-5.337
0.201,0.067,0.266,-5.337
0.122,0.070,0.267,-5.337
0.093,0.071,0.270,-5.337
0.149,0.070,0.268,-5.337
0.126,0.072,0.267,-5.337
0.093,0.071,0.265,-5.337
0.183,0.070,0.264,-5.337
0.256,0.067,0.264,-5.337
0.212,0.067,0.266,-5.337
0.154,0.069,0.265,-5.337
0.169,0.074,0.268,-5.337
0.200,0.073,0.267,-5.337
0.236,0.071,0.267,-5.337
0.225,0.070,0.271,-5.337
0.219,0.070,0.274,-5.337
0.218,0.068,0.268,-5.337
0.202,0.065,0.262,-5.337
0.247,0.063,0.261,-5.337
0.261,0.066,0.262,-5.337
0.124,0.074,0.265,-5.337
0.099,0.077,0.265,-5.337
0.103,0.073,0.266,-5.337
0.095,0.069,0.264,-5.337
0.104,0.068,0.266,-5.337
0.165,0.065,0.266,-5.337
0.220,0.066,0.267,-5.337
0.205,0.065,0.268,-5.337
0.210,0.065,0.271,-5.337
0.250,0.066,0.266,-5.337
0.251,0.066,0.267,-5.337
0.234,0.062,0.267,-5.337
0.172,0.064,0.267,-5.337
0.184,0.062,0.266,-5.337
0.264,0.065,0.266,-5.337
0.243,0.065,0.265,-5.337
0.191,0.063,0.264,-5.337
0.179,0.060,0.261,-5.337
0.181,0.058,0.259,-5.337
0.202,0.056,0.263,-5.337
0.193,0.057,0.267,-5.337
0.180,0.058,0.269,-5.337
0.138,0.061,0.266,-5.337
0.159,0.060,0.265,-5.337
0.228,0.059,0.267,-5.337
0.242,0.064,0.269,-5.337
0.243,0.062,0.267,-5.337
0.328,0.059,0.270,-5.337
0.269,0.063,0.271,-5.337
0.202,0.063,0.271,-5.337
0.200,0.060,0.270,-5.337
0.152,0.058,0.268,-5.337
0.146,0.057,0.266,-5.337
0.220,0.054,0.265,-5.337
0.219,0.052,0.261,-5.337
0.232,0.055,0.262,-5.337
0.193,0.056,0.267,-5.337
0.191,0.058,0.272,-5.337
0.209,0.056,0.268,-5.337
0.177,0.056,0.266,-5.337
0.190,0.058,0.265,-5.337
0.243,0.056,0.267,-5.337
0.228,0.056,0.266,-5.337
0.229,0.056,0.266,-5.337
0.287,0.057,0.264,-5.337
0.258,0.063,0.263,-5.337
0.171,0.065,0.265,-5.337
0.065,0.065,0.268,-5.337
0.099,0.064,0.271,-5.337
0.215,0.060,0.270,-5.337
0.214,0.062,0.269,-5.337
0.142,0.058,0.264,-5.337
0.084,0.057,0.263,-5.337
0.117,0.058,0.267,-5.337
0.138,0.060,0.269,-5.337
0.101,0.057,0.266,-5.337
0.134,0.053,0.263,-5.337
0.132,0.052,0.265,-5.337
0.165,0.050,0.267,-5.337
0.244,0.051,0.267,-5.337
0.268,0.051,0.267,-5.337
0.262,0.051,0.266,-5.337
0.193,0.058,0.265,-5.337
0.223,0.058,0.264,-5.337
0.313,0.052,0.264,-5.337
0.319,0.052,0.265,-5.337
0.229,0.056,0.264,-5.337
0.142,0.060,0.267,-5.337
0.134,0.062,0.267,-5.337
0.106,0.060,0.269,-5.337
0.121,0.058,0.268,-5.337
0.223,0.056,0.265,-5.337
0.217,0.056,0.265,-5.337
0.211,0.057,0.268,-5.337
0.244,0.054,0.270,-5.337
0.225,0.053,0.271,-5.337
0.181,0.054,0.272,-5.337
0.213,0.052,0.270,-5.337
0.228,0.051,0.265,-5.337
0.160,0.054,0.264,-5.337
0.134,0.055,0.265,-5.337
0.209,0.053,0.267,-5.337
0.216,0.057,0.267,-5.337
0.172,0.054,0.264,-5.337
0.169,0.050,0.269,-5.337
0.223,0.048,0.274,-5.337
0.269,0.048,0.276,-5.337
0.236,0.049,0.270,-5.337
0.159,0.050,0.264,-5.337
0.184,0.049,0.259,-5.337
0.205,0.051,0.262,-5.337
0.181,0.055,0.264,-5.337
0.193,0.050,0.265,-5.337
0.195,0.045,0.267,-5.337
0.230,0.047,0.273,-5.337
0.246,0.049,0.274,-5.337
0.230,0.050,0.272,-5.337
0.148,0.050,0.266,-5.337
0.176,0.048,0.262,-5.337
0.208,0.047,0.262,-5.337
0.209,0.049,0.266,-5.337
0.185,0.049,0.271,-5.337
0.184,0.050,0.272,-5.337
0.126,0.052,0.270,-5.337
0.123,0.050,0.266,-5.337
0.125,0.051,0.267,-5.337
0.139,0.054,0.269,-5.337
0.124,0.055,0.265,-5.337
0.062,0.050,0.262,-5.337
0.097,0.046,0.264,-5.337
0.179,0.045,0.267,-5.337
0.173,0.047,0.269,-5.337
0.214,0.049,0.267,-5.337
0.190,0.051,0.266,-5.337
0.197,0.050,0.267,-5.337
0.240,0.050,0.270,-5.337
0.247,0.050,0.268,-5.337
0.240,0.051,0.263,-5.337
0.205,0.053,0.264,-5.337
0.185,0.057,0.267,-5.337
0.185,0.056,0.268,-5.337
0.215,0.054,0.267,-5.337
0.221,0.055,0.266,-5.337
0.136,0.058,0.267,-5.337
0.137,0.056,0.271,-5.337
0.148,0.056,0.272,-5.337
0.192,0.059,0.266,-5.337
0.216,0.061,0.260,-5.337
0.227,0.061,0.265,-5.337
0.210,0.057,0.267,-5.337
0.194,0.057,0.269,-5.337
0.133,0.057,0.269,-5.337
0.140,0.055,0.270,-5.337
0.200,0.051,0.267,-5.337
0.184,0.054,0.267,-5.337
0.165,0.052,0.266,-5.337
0.114,0.052,0.269,-5.337
0.139,0.050,0.269,-5.337
0.193,0.050,0.268,-5.337
0.199,0.051,0.265,-5.337
0.231,0.055,0.263,-5.337
0.198,0.057,0.264,-5.337
0.193,0.054,0.262,-5.337
0.191,0.054,0.261,-5.337
0.240,0.051,0.264,-5.337
0.186,0.051,0.269,-5.337
0.111,0.054,0.269,-5.337
0.174,0.055,0.265,-5.337
0.185,0.055,0.267,-5.337
0.197,0.053,0.272,-5.337
0.186,0.052,0.271,-5.337
0.188,0.052,0.269,-5.337
0.187,0.054,0.265,-5.337
0.158,0.055,0.265,-5.337
0.148,0.059,0.262,-5.337
0.105,0.056,0.267,-5.337
0.118,0.051,0.270,-5.337
0.132,0.055,0.270,-5.337
0.182,0.051,0.267,-5.337
0.237,0.052,0.268,-5.337
0.300,0.049,0.266,-5.337
0.289,0.049,0.266,-5.337
0.211,0.053,0.269,-5.337
0.183,0.050,0.273,-5.337
0.202,0.046,0.273,-5.337
0.195,0.048,0.265,-5.337
0.212,0.049,0.259,-5.337
0.172,0.050,0.263,-5.337
0.194,0.046,0.271,-5.337
0.226,0.043,0.271,-5.337
0.285,0.046,0.271,-5.337
0.316,0.048,0.268,-5.337
0.206,0.049,0.269,-5.337
0.112,0.048,0.267,-5.337
0.215,0.047,0.265,-5.337
0.300,0.051,0.267,-5.337
0.216,0.053,0.270,-5.337
0.156,0.049,0.267,-5.337
0.177,0.048,0.265,-5.337
0.175,0.050,0.263,-5.337
0.120,0.055,0.265,-5.337
0.108,0.051,0.270,-5.337
0.190,0.048,0.272,-5.337
0.184,0.053,0.269,-5.337
0.153,0.056,0.264,-5.337
0.097,0.055,0.263,-5.337
0.049,0.056,0.267,-5.337
0.081,0.053,0.270,-5.337
0.146,0.051,0.271,-5.337
0.203,0.049,0.272,-5.337
0.153,0.052,0.267,-5.337
0.120,0.053,0.266,-5.337
0.110,0.055,0.268,-5.337
0.137,0.054,0.271,-5.337
0.172,0.051,0.273,-5.337
0.135,0.055,0.275,-5.337
0.054,0.054,0.275,-5.337
0.088,0.055,0.268,-5.337
0.150,0.054,0.262,-5.337
0.182,0.055,0.260,-5.337
0.148,0.057,0.264,-5.337
0.121,0.054,0.268,-5.337
0.158,0.048,0.268,-5.337
0.160,0.049,0.266,-5.337
0.161,0.050,0.266,-5.337
0.136,0.052,0.268,-5.337
0.121,0.053,0.267,-5.337
0.197,0.049,0.269,-5.337
0.231,0.048,0.267,-5.337
0.245,0.050,0.264,-5.337
0.165,0.051,0.266,-5.337
0.123,0.050,0.267,-5.337
0.178,0.049,0.268,-5.337
0.210,0.050,0.270,-5.337
0.194,0.050,0.274,-5.337
0.183,0.046,0.274,-5.337
0.149,0.048,0.269,-5.337
0.137,0.049,0.262,-5.337
0.164,0.047,0.260,-5.337
0.154,0.047,0.264,-5.337
0.144,0.042,0.263,-5.337
0.168,0.041,0.261,-5.337
0.146,0.045,0.266,-5.337
0.159,0.045,0.267,-5.337
0.198,0.044,0.267,-5.337
0.200,0.046,0.265,-5.337
0.158,0.045,0.267,-5.337
0.124,0.045,0.271,-5.337
0.117,0.049,0.271,-5.337
0.132,0.049,0.268,-5.337
0.155,0.051,0.265,-5.337
0.077,0.052,0.264,-5.337
0.041,0.049,0.263,-5.337
0.105,0.049,0.265,-5.337
0.204,0.048,0.267,-5.337
0.232,0.049,0.269,-5.337
0.157,0.046,0.267,-5.337
0.136,0.047,0.264,-5.337
0.106,0.048,0.263,-5.337
0.040,0.046,0.266,-5.337
0.107,0.043,0.267,-5.337
0.189,0.046,0.267,-5.337
0.142,0.049,0.269,-5.337
0.101,0.049,0.270,-5.337
0.178,0.048,0.267,-5.337
0.215,0.048,0.269,-5.337
0.126,0.051,0.270,-5.337
0.138,0.050,0.268,-5.337
0.194,0.048,0.264,-5.337
0.200,0.048,0.262,-5.337
0.155,0.047,0.264,-5.337
0.147,0.047,0.267,-5.337
0.149,0.049,0.269,-5.337
0.170,0.048,0.266,-5.337
0.174,0.045,0.263,-5.337
0.126,0.047,0.266,-5.337
0.179,0.048,0.268,-5.337
0.208,0.047,0.269,-5.337
0.213,0.051,0.267,-5.337
0.180,0.050,0.263,-5.337
0.185,0.054,0.262,-5.337
0.160,0.056,0.263,-5.337
0.177,0.054,0.266,-5.337
0.192,0.055,0.267,-5.337
0.148,0.056,0.266,-5.337
0.166,0.054,0.266,-5.337
0.151,0.055,0.267,-5.337
0.067,0.058,0.268,-5.337
0.066,0.061,0.269,-5.337
0.103,0.061,0.270,-5.337
0.126,0.058,0.269,-5.337
0.113,0.059,0.266,-5.337
0.093,0.055,0.266,-5.337
0.092,0.057,0.266,-5.337
0.114,0.059,0.265,-5.337
0.132,0.057,0.267,-5.337
0.162,0.055,0.269,-5.337
0.166,0.055,0.269,-5.337
0.181,0.058,0.268,-5.337
0.146,0.058,0.268,-5.337
0.139,0.057,0.268,-5.337
0.133,0.058,0.268,-5.337
0.129,0.059,0.266,-5.337
0.161,0.058,0.267,-5.337
0.235,0.055,0.268,-5.337
0.174,0.058,0.267,-5.337
0.129,0.056,0.264,-5.337
0.181,0.055,0.264,-5.337
0.223,0.055,0.265,-5.337
0.200,0.057,0.264,-5.337
0.191,0.055,0.264,-5.337
0.196,0.055,0.263,-5.337
0.161,0.055,0.263,-5.337
0.140,0.055,0.266,-5.337
0.150,0.054,0.269,-5.337
0.208,0.055,0.270,-5.337
0.192,0.059,0.268,-5.337
0.134,0.057,0.267,-5.337
0.168,0.054,0.268,-5.337
0.245,0.050,0.268,-5.337
0.252,0.051,0.265,-5.337
0.165,0.057,0.263,-5.337
0.048,0.062,0.267,-5.337
0.026,0.060,0.266,-5.337
0.122,0.057,0.266,-5.337
0.176,0.054,0.268,-5.337
0.217,0.052,0.267,-5.337
0.220,0.054,0.262,-5.337
0.217,0.057,0.257,-5.337
0.172,0.057,0.256,-5.337
0.182,0.059,0.261,-5.337
0.196,0.054,0.268,-5.337
0.222,0.054,0.272,-5.337
0.221,0.059,0.274,-5.337
0.161,0.059,0.271,-5.337
0.137,0.058,0.267,-5.337
0.122,0.057,0.264,-5.337
0.159,0.054,0.264,-5.337
0.151,0.058,0.264,-5.337
0.118,0.060,0.269,-5.337
0.127,0.058,0.269,-5.337
0.155,0.055,0.269,-5.337
0.187,0.051,0.266,-5.337
0.126,0.055,0.266,-5.337
0.096,0.054,0.264,-5.337
0.153,0.054,0.261,-5.337
0.225,0.054,0.260,-5.337
0.222,0.058,0.263,-5.337
0.092,0.063,0.264,-5.337
0.092,0.062,0.267,-5.337
0.136,0.061,0.268,-5.337
0.120,0.060,0.267,-5.337
0.138,0.061,0.270,-5.337
0.084,0.061,0.268,-5.337
0.057,0.060,0.270,-5.337
0.143,0.060,0.270,-5.337
0.247,0.060,0.271,-5.337
0.238,0.059,0.268,-5.337
0.147,0.063,0.266,-5.337
0.117,0.064,0.265,-5.337
0.151,0.064,0.267,-5.337
0.175,0.062,0.264,-5.337
0.246,0.059,0.264,-5.337
0.286,0.059,0.267,-5.337
0.256,0.060,0.270,-5.337
0.255,0.060,0.267,-5.337
0.219,0.060,0.263,-5.337
0.193,0.059,0.262,-5.337
0.201,0.056,0.265,-5.337
0.176,0.056,0.265,-5.337
0.196,0.060,0.268,-5.337
0.180,0.060,0.271,-5.337
0.162,0.061,0.270,-5.337
0.145,0.058,0.269,-5.337
0.155,0.057,0.267,-5.337
0.189,0.058,0.268,-5.337
0.166,0.063,0.266,-5.337
0.162,0.061,0.264,-5.337
0.151,0.060,0.262,-5.337
0.202,0.060,0.266,-5.337
0.244,0.059,0.266,-5.337
0.235,0.062,0.263,-5.337
0.178,0.064,0.262,-5.337
0.106,0.065,0.267,-5.337
0.137,0.065,0.270,-5.337
0.161,0.069,0.267,-5.337
0.201,0.064,0.266,-5.337
0.228,0.065,0.268,-5.337
0.197,0.065,0.269,-5.337
0.158,0.063,0.271,-5.337
0.109,0.063,0.269,-5.337
0.100,0.063,0.264,-5.337
0.113,0.061,0.261,-5.337
0.136,0.058,0.263,-5.337
0.123,0.059,0.266,-5.337
0.150,0.061,0.268,-5.337
0.188,0.059,0.272,-5.337
0.256,0.056,0.273,-5.337
0.208,0.054,0.270,-5.337
0.191,0.056,0.266,-5.337
0.179,0.058,0.265,-5.337
0.206,0.055,0.266,-5.337
0.224,0.060,0.268,-5.337
0.160,0.061,0.266,-5.337
0.119,0.065,0.263,-5.337
0.179,0.060,0.263,-5.337
0.243,0.060,0.265,-5.337
0.209,0.061,0.270,-5.337
0.181,0.062,0.275,-5.337
0.245,0.059,0.274,-5.337
0.274,0.058,0.270,-5.337
0.227,0.058,0.267,-5.337
0.232,0.059,0.269,-5.337
0.229,0.061,0.268,-5.337
0.214,0.062,0.267,-5.337
0.245,0.060,0.269,-5.337
0.260,0.056,0.269,-5.337
0.181,0.061,0.270,-5.337
0.147,0.063,0.266,-5.337
0.170,0.062,0.259,-5.337
0.233,0.062,0.258,-5.337
0.154,0.067,0.265,-5.337
0.145,0.069,0.266,-5.337
0.158,0.067,0.265,-5.337
0.153,0.064,0.266,-5.337
0.161,0.063,0.269,-5.337
0.179,0.067,0.268,-5.337
0.172,0.068,0.266,-5.337
0.181,0.064,0.265,-5.337
0.165,0.069,0.267,-5.337
0.162,0.070,0.270,-5.337
0.200,0.072,0.269,-5.337
0.195,0.071,0.267,-5.337
0.141,0.069,0.266,-5.337
0.114,0.069,0.265,-5.337
0.133,0.070,0.266,-5.337
0.083,0.071,0.267,-5.337
0.139,0.067,0.269,-5.337
0.279,0.062,0.268,-5.337
0.298,0.062,0.265,-5.337
0.256,0.066,0.268,-5.337
0.229,0.070,0.270,-5.337
0.184,0.070,0.273,-5.337
0.160,0.070,0.267,-5.337
0.148,0.072,0.265,-5.337
0.234,0.071,0.266,-5.337
0.248,0.072,0.268,-5.337
0.177,0.072,0.269,-5.337
0.130,0.074,0.269,-5.337
0.165,0.072,0.270,-5.337
0.214,0.070,0.271,-5.337
0.295,0.067,0.270,-5.337
0.328,0.067,0.269,-5.337
0.273,0.067,0.268,-5.337
0.156,0.069,0.269,-5.337
0.104,0.070,0.267,-5.337
0.090,0.070,0.267,-5.337
0.116,0.071,0.268,-5.337
0.178,0.068,0.271,-5.337
0.256,0.065,0.271,-5.337
0.244,0.064,0.268,-5.337
0.213,0.059,0.268,-5.337
0.230,0.057,0.268,-5.337
0.267,0.062,0.267,-5.337
0.275,0.064,0.267,-5.337
0.234,0.064,0.267,-5.337
0.141,0.065,0.265,-5.337
0.153,0.065,0.266,-5.337
0.261,0.062,0.267,-5.337
0.262,0.069,0.266,-5.337
0.143,0.069,0.269,-5.337
0.129,0.066,0.272,-5.337
0.214,0.067,0.278,-5.337
0.170,0.071,0.278,-5.337
0.153,0.068,0.268,-5.337
0.173,0.069,0.261,-5.337
0.176,0.067,0.265,-5.337
0.142,0.068,0.271,-5.337
0.170,0.069,0.273,-5.337
0.212,0.068,0.267,-5.337
0.239,0.067,0.268,-5.337
0.294,0.063,0.266,-5.337
0.327,0.064,0.266,-5.337
0.326,0.063,0.263,-5.337
0.296,0.067,0.263,-5.337
0.255,0.066,0.263,-5.337
0.278,0.063,0.267,-5.337
0.261,0.062,0.269,-5.337
0.236,0.070,0.271,-5.337
0.146,0.071,0.269,-5.337
0.160,0.069,0.264,-5.337
0.237,0.068,0.264,-5.337
0.297,0.070,0.267,-5.337
0.223,0.071,0.266,-5.337
0.134,0.071,0.265,-5.337
0.137,0.070,0.267,-5.337
0.178,0.068,0.267,-5.337
0.152,0.067,0.264,-5.337
0.082,0.069,0.262,-5.337
0.148,0.065,0.265,-5.337
0.192,0.066,0.270,-5.337
0.182,0.066,0.272,-5.337
0.181,0.065,0.268,-5.337
0.154,0.065,0.270,-5.337
0.197,0.067,0.271,-5.337
0.187,0.067,0.272,-5.337
0.151,0.067,0.270,-5.337
0.188,0.068,0.265,-5.337
0.234,0.066,0.264,-5.337
0.230,0.064,0.266,-5.337
0.274,0.063,0.266,-5.337
0.304,0.061,0.265,-5.337
0.264,0.065,0.264,-5.337
0.247,0.065,0.263,-5.337
0.258,0.066,0.265,-5.337
0.241,0.067,0.264,-5.337
0.197,0.069,0.262,-5.337
0.176,0.070,0.262,-5.337
0.185,0.069,0.262,-5.337
0.171,0.065,0.263,-5.337
0.130,0.067,0.265,-5.337
0.136,0.069,0.262,-5.337
0.186,0.066,0.264,-5.337
0.276,0.059,0.265,-5.337
0.304,0.062,0.267,-5.337
0.219,0.065,0.267,-5.337
0.186,0.064,0.270,-5.337
0.246,0.061,0.270,-5.337
0.272,0.060,0.270,-5.337
0.192,0.057,0.267,-5.337
0.178,0.059,0.267,-5.337
0.211,0.060,0.269,-5.337
0.253,0.063,0.271,-5.337
0.162,0.064,0.272,-5.337
0.150,0.062,0.272,-5.337
0.140,0.061,0.273,-5.337
0.183,0.060,0.271,-5.337
0.181,0.060,0.266,-5.337
0.176,0.059,0.261,-5.337
0.236,0.062,0.261,-5.337
0.212,0.062,0.262,-5.337
0.198,0.061,0.264,-5.337
0.228,0.057,0.265,-5.337
0.239,0.056,0.266,-5.337
0.225,0.051,0.265,-5.337
0.223,0.050,0.263,-5.337
0.237,0.049,0.265,-5.337
0.227,0.050,0.271,-5.337
0.163,0.052,0.267,-5.337
0.110,0.056,0.265,-5.337
0.143,0.055,0.266,-5.337
0.217,0.053,0.272,-5.337
0.247,0.052,0.274,-5.337
0.253,0.053,0.266,-5.337
0.218,0.055,0.261,-5.337
0.193,0.057,0.260,-5.337
0.186,0.055,0.263,-5.337
0.233,0.051,0.263,-5.337
0.199,0.051,0.265,-5.337
0.173,0.051,0.266,-5.337
0.244,0.052,0.267,-5.337
0.267,0.052,0.267,-5.337
0.183,0.051,0.269,-5.337
0.108,0.055,0.266,-5.337
0.128,0.052,0.267,-5.337
0.216,0.047,0.267,-5.337
0.244,0.046,0.270,-5.337
0.208,0.047,0.269,-5.337
0.141,0.051,0.269,-5.337
0.189,0.054,0.267,-5.337
0.188,0.055,0.269,-5.337
0.220,0.050,0.267,-5.337
0.259,0.052,0.266,-5.337
0.188,0.056,0.267,-5.337
0.153,0.062,0.267,-5.337
0.234,0.056,0.263,-5.337
0.221,0.058,0.264,-5.337
0.160,0.058,0.268,-5.337
0.163,0.058,0.272,-5.337
0.141,0.056,0.271,-5.337
0.131,0.055,0.269,-5.337
0.176,0.053,0.266,-5.337
0.200,0.054,0.269,-5.337
0.147,0.053,0.272,-5.337
0.217,0.049,0.270,-5.337
0.220,0.050,0.267,-5.337
0.191,0.053,0.260,-5.337
0.244,0.050,0.260,-5.337
0.247,0.052,0.266,-5.337
0.211,0.053,0.270,-5.337
0.265,0.049,0.271,-5.337
0.274,0.049,0.269,-5.337
0.262,0.044,0.267,-5.337
0.273,0.048,0.266,-5.337
0.185,0.050,0.267,-5.337
0.127,0.050,0.268,-5.337
0.175,0.051,0.268,-5.337
0.196,0.050,0.267,-5.337
0.137,0.052,0.263,-5.337
0.070,0.055,0.260,-5.337
0.133,0.051,0.261,-5.337
0.242,0.051,0.264,-5.337
0.289,0.050,0.269,-5.337
0.189,0.052,0.269,-5.337
0.147,0.050,0.271,-5.337
0.193,0.048,0.271,-5.337
0.201,0.047,0.271,-5.337
0.142,0.048,0.267,-5.337
0.192,0.049,0.264,-5.337
0.232,0.048,0.261,-5.337
0.187,0.051,0.264,-5.337
0.155,0.051,0.266,-5.337
0.183,0.046,0.267,-5.337
0.224,0.044,0.268,-5.337
0.264,0.042,0.269,-5.337
0.263,0.042,0.270,-5.337
0.207,0.049,0.270,-5.337
0.136,0.050,0.268,-5.337
0.172,0.046,0.270,-5.337
0.227,0.041,0.272,-5.337
0.213,0.043,0.268,-5.337
0.166,0.050,0.266,-5.337
0.206,0.047,0.264,-5.337
0.273,0.043,0.268,-5.337
0.220,0.043,0.266,-5.337
0.190,0.049,0.264,-5.337
0.178,0.047,0.261,-5.337
0.134,0.048,0.263,-5.337
0.109,0.044,0.263,-5.337
0.136,0.041,0.263,-5.337
0.144,0.041,0.266,-5.337
0.149,0.043,0.267,-5.337
0.190,0.042,0.266,-5.337
0.159,0.043,0.264,-5.337
0.159,0.041,0.262,-5.337
0.191,0.041,0.266,-5.337
0.239,0.041,0.267,-5.337
0.235,0.040,0.267,-5.337
0.172,0.047,0.267,-5.337
0.177,0.048,0.271,-5.337
0.161,0.050,0.273,-5.337
0.151,0.047,0.271,-5.337
0.140,0.044,0.268,-5.337
0.187,0.045,0.271,-5.337
0.208,0.047,0.274,-5.337
0.185,0.049,0.270,-5.337
0.145,0.047,0.265,-5.337
0.138,0.049,0.264,-5.337
0.186,0.047,0.265,-5.337
0.190,0.050,0.266,-5.337
0.178,0.051,0.272,-5.337
0.152,0.050,0.272,-5.337
0.156,0.048,0.269,-5.337
0.145,0.048,0.268,-5.337
0.142,0.051,0.264,-5.337
0.192,0.048,0.262,-5.337
0.217,0.050,0.264,-5.337
0.157,0.052,0.265,-5.337
0.148,0.051,0.267,-5.337
0.170,0.052,0.269,-5.337
0.155,0.051,0.270,-5.337
0.169,0.051,0.266,-5.337
0.223,0.045,0.263,-5.337
0.268,0.042,0.264,-5.337
0.247,0.043,0.267,-5.337
0.229,0.047,0.269,-5.337
0.165,0.047,0.269,-5.337
0.093,0.047,0.268,-5.337
0.114,0.049,0.264,-5.337
0.095,0.049,0.266,-5.337
0.089,0.046,0.268,-5.337
0.115,0.044,0.270,-5.337
0.171,0.042,0.270,-5.337
0.195,0.048,0.273,-5.337
0.178,0.044,0.274,-5.337
0.175,0.042,0.273,-5.337
0.179,0.045,0.271,-5.337
0.211,0.043,0.267,-5.337
0.240,0.038,0.266,-5.337
0.207,0.038,0.269,-5.337
0.137,0.041,0.270,-5.337
0.113,0.043,0.269,-5.337
0.178,0.040,0.264,-5.337
0.201,0.040,0.262,-5.337
0.180,0.043,0.263,-5.337
0.217,0.042,0.266,-5.337
0.235,0.042,0.270,-5.337
0.142,0.046,0.270,-5.337
0.134,0.042,0.270,-5.337
0.162,0.042,0.272,-5.337
0.183,0.045,0.274,-5.337
0.177,0.046,0.266,-5.337
0.193,0.046,0.262,-5.337
0.221,0.044,0.261,-5.337
