[Parameters]
Operating Mode, Feedback
Subject  AA..ZZ, WT
Session  0..99, 45
No. Trials (1..9999), 500
Mouse Number, 1
Pressure Probe Serial Port, \00\00\00\04COM4
Save additional csv file, TRUE
Save using mouse number, FALSE
A/D Monitor Rate (Hz), 30000.000000
A/D Stimulate Rate (Hz), 30000.000000
A/D input range (+/- V), 5
No. Channels to acquire (N), 2
Pre-Stim Acq. time (ms), 100.000000
Post-Stim Acq. time (ms), 900.000000
Analysis window parameters.M-response Start (ms), 1.100000
Analysis window parameters.M-response Duration (ms), 5.500000
Analysis window parameters.H-response Duration (ms), 6.000000
Analysis window parameters.H-response Start (ms), 6.500000
Feedback window, H response
Proportional gain, 0.100000
Target value, 6.700000
Feedback Ch., 1
Stim Channel to Control (1-4), 4
Trial, 65
Wait for EMG Conditions, FALSE
Channel to monitor (0 - N-1), 1
EMG Hi Limit, 2.000000
EMG Lo Limit, 0.001000
Inter-Stim delay (sec), 10.000000
EMG Monitor Mode, Mean
Time to run Long Stim.(sec), 30
Save Long Stim Data?, OFF
BURST Save time (ms), 1000
BURST Save Interval (x above), 10
Long-Stim. Rep. Rate (Hz), 10.000000
Stim type cluster array.<size(s)>, 4
Stim type cluster array 0.Stimulus Output, Electrical
Stim type cluster array 1.Stimulus Output, OFF
Stim type cluster array 2.Stimulus Output, OFF
Stim type cluster array 3.Stimulus Output, Motor Length
Stim specs cluster array.<size(s)>, 4
Stim specs cluster array 0.Initial Stimulus ampl., 0.300000
Stim specs cluster array 0.Maximum Stimulus, 1.120000
Stim specs cluster array 0.#Pulses in train, 4
Stim specs cluster array 0.Peak Level time (ms), 1.000000
Stim specs cluster array 0.Total pulse period (ms), 150.000000
Stim specs cluster array 0.Start Delay (ms), -50.000000
Stim specs cluster array 0.Pulse Shape, Square
Stim specs cluster array 0.Ramp/Rel. time (ms), 0.100000
Stim specs cluster array 0.Peak Amplitude (V), 0.120000
Stim specs cluster array 1.Initial Stimulus ampl., 0.000000
Stim specs cluster array 1.Maximum Stimulus, 0.000000
Stim specs cluster array 1.#Pulses in train, 3
Stim specs cluster array 1.Peak Level time (ms), 29.000000
Stim specs cluster array 1.Total pulse period (ms), 200.000000
Stim specs cluster array 1.Start Delay (ms), 0.000000
Stim specs cluster array 1.Pulse Shape, Square
Stim specs cluster array 1.Ramp/Rel. time (ms), 0.000000
Stim specs cluster array 1.Peak Amplitude (V), 2.000000
Stim specs cluster array 2.Initial Stimulus ampl., 0.000000
Stim specs cluster array 2.Maximum Stimulus, 0.000000
Stim specs cluster array 2.#Pulses in train, 1
Stim specs cluster array 2.Peak Level time (ms), 25.000000
Stim specs cluster array 2.Total pulse period (ms), 200.000000
Stim specs cluster array 2.Start Delay (ms), 0.000000
Stim specs cluster array 2.Pulse Shape, Square
Stim specs cluster array 2.Ramp/Rel. time (ms), 20.000000
Stim specs cluster array 2.Peak Amplitude (V), 10.000000
Stim specs cluster array 3.Initial Stimulus ampl., 0.000000
Stim specs cluster array 3.Maximum Stimulus, 20.000000
Stim specs cluster array 3.#Pulses in train, 25
Stim specs cluster array 3.Peak Level time (ms), 0.100000
Stim specs cluster array 3.Total pulse period (ms), 4.000000
Stim specs cluster array 3.Start Delay (ms), 205.000000
Stim specs cluster array 3.Pulse Shape, Triangle
Stim specs cluster array 3.Ramp/Rel. time (ms), 3.000000
Stim specs cluster array 3.Peak Amplitude (V), 0.500000
Force cal. (mN/Volt), 100.000000
Force Range (mN), 100.000000
Length cal. (mm/Volt), 10.000000
Length Range (mm), 10.000000
Stim. 1, 0.300000
Stim. 2, 0.000000
Stim. 3, 0.000000
Stim. 4, 0.000000
Monitor acquire time (ms), 100.000000
EMG graph Ymax, 0.100000
Travel limit (mm), 20.000000
Use Pressure Probe, FALSE
Pressure goal (g), 100
Speed (mm/sec), 5.000000
Dwell time (ms), 100.000000
Pressure limit (g), 500.000000
Channel amplitude offset, 0.000000

[DATA]

0.121,0.042,0.391,-5.337
0.264,0.038,0.388,-5.337
1.159,0.031,0.384,-5.337
2.156,0.023,0.382,-5.337
2.494,0.021,0.384,-5.337
2.459,0.024,0.386,-5.337
2.368,0.026,0.383,-5.337
2.320,0.022,0.381,-5.337
2.194,0.023,0.381,-5.337
2.123,0.024,0.384,-5.337
2.094,0.025,0.387,-5.337
1.986,0.027,0.390,-5.337
1.863,0.027,0.387,-5.337
1.812,0.025,0.385,-5.337
1.671,0.026,0.383,-5.337
1.551,0.027,0.382,-5.337
1.507,0.030,0.382,-5.337
1.461,0.035,0.381,-5.337
1.469,0.032,0.377,-5.337
1.398,0.031,0.381,-5.337
1.325,0.028,0.385,-5.337
1.244,0.033,0.388,-5.337
1.174,0.038,0.390,-5.337
1.123,0.040,0.384,-5.337
1.039,0.041,0.381,-5.337
1.044,0.042,0.386,-5.337
1.084,0.037,0.386,-5.337
1.044,0.037,0.384,-5.337
0.976,0.041,0.381,-5.337
0.982,0.043,0.378,-5.337
0.950,0.048,0.378,-5.337
0.906,0.046,0.381,-5.337
0.895,0.042,0.381,-5.337
0.938,0.044,0.379,-5.337
0.952,0.045,0.382,-5.337
0.837,0.049,0.382,-5.337
0.762,0.049,0.382,-5.337
0.722,0.048,0.380,-5.337
0.700,0.048,0.379,-5.337
0.728,0.047,0.376,-5.337
0.750,0.047,0.375,-5.337
0.768,0.046,0.376,-5.337
0.722,0.048,0.382,-5.337
0.714,0.049,0.383,-5.337
0.754,0.048,0.382,-5.337
0.713,0.048,0.378,-5.337
0.703,0.050,0.374,-5.337
0.737,0.047,0.375,-5.337
0.713,0.047,0.378,-5.337
0.628,0.049,0.379,-5.337
0.572,0.053,0.377,-5.337
0.621,0.055,0.376,-5.337
0.697,0.050,0.377,-5.337
0.672,0.050,0.379,-5.337
0.623,0.049,0.376,-5.337
0.607,0.049,0.371,-5.337
0.622,0.040,0.370,-5.337
0.607,0.031,0.373,-5.337
0.551,0.029,0.374,-5.337
0.556,0.023,0.375,-5.337
0.640,0.014,0.374,-5.337
0.577,0.010,0.380,-5.337
0.468,0.006,0.381,-5.337
0.547,0.003,0.380,-5.337
0.644,-0.000,0.372,-5.337
0.640,-0.002,0.366,-5.337
0.538,-0.002,0.366,-5.337
0.492,-0.001,0.369,-5.337
0.537,-0.002,0.371,-5.337
0.570,0.002,0.370,-5.337
0.532,0.006,0.371,-5.337
0.527,0.011,0.374,-5.337
0.464,0.015,0.373,-5.337
0.412,0.024,0.373,-5.337
0.425,0.036,0.375,-5.337
0.384,0.045,0.376,-5.337
0.435,0.052,0.371,-5.337
0.447,0.060,0.366,-5.337
0.429,0.064,0.364,-5.337
0.384,0.073,0.369,-5.337
0.348,0.082,0.375,-5.337
0.378,0.086,0.375,-5.337
0.370,0.088,0.372,-5.337
0.399,0.088,0.367,-5.337
0.439,0.088,0.370,-5.337
0.422,0.088,0.373,-5.337
0.349,0.086,0.376,-5.337
0.371,0.084,0.373,-5.337
0.420,0.086,0.371,-5.337
0.417,0.080,0.369,-5.337
0.365,0.073,0.367,-5.337
0.328,0.071,0.365,-5.337
0.313,0.071,0.369,-5.337
0.311,0.066,0.369,-5.337
0.317,0.063,0.369,-5.337
0.313,0.060,0.366,-5.337
0.362,0.062,0.363,-5.337
0.364,0.060,0.361,-5.337
0.307,0.061,0.361,-5.337
0.310,0.056,0.367,-5.337
0.329,0.057,0.371,-5.337
0.358,0.057,0.373,-5.337
0.328,0.055,0.369,-5.337
0.287,0.055,0.367,-5.337
0.324,0.053,0.364,-5.337
0.347,0.053,0.365,-5.337
0.347,0.055,0.366,-5.337
0.357,0.054,0.367,-5.337
0.387,0.054,0.365,-5.337
0.305,0.056,0.366,-5.337
0.233,0.057,0.365,-5.337
0.271,0.058,0.365,-5.337
0.316,0.055,0.363,-5.337
0.325,0.054,0.365,-5.337
0.306,0.053,0.368,-5.337
0.326,0.053,0.369,-5.337
0.299,0.054,0.364,-5.337
0.269,0.055,0.363,-5.337
0.279,0.052,0.363,-5.337
0.302,0.051,0.365,-5.337
0.223,0.051,0.366,-5.337
0.212,0.053,0.366,-5.337
0.291,0.050,0.365,-5.337
0.360,0.047,0.368,-5.337
0.323,0.047,0.369,-5.337
0.294,0.045,0.365,-5.337
0.276,0.049,0.362,-5.337
0.341,0.052,0.361,-5.337
0.293,0.052,0.361,-5.337
0.240,0.047,0.359,-5.337
0.244,0.046,0.360,-5.337
0.238,0.049,0.359,-5.337
0.218,0.051,0.358,-5.337
0.196,0.050,0.359,-5.337
0.230,0.050,0.364,-5.337
0.201,0.048,0.366,-5.337
0.202,0.051,0.366,-5.337
0.185,0.046,0.364,-5.337
0.169,0.046,0.361,-5.337
0.180,0.045,0.359,-5.337
0.292,0.047,0.359,-5.337
0.338,0.043,0.360,-5.337
0.210,0.046,0.362,-5.337
0.216,0.049,0.362,-5.337
0.229,0.048,0.364,-5.337
0.233,0.045,0.360,-5.337
0.195,0.045,0.358,-5.337
0.128,0.046,0.360,-5.337
0.122,0.047,0.358,-5.337
0.151,0.048,0.357,-5.337
0.136,0.047,0.355,-5.337
0.140,0.042,0.358,-5.337
0.210,0.039,0.358,-5.337
0.208,0.040,0.359,-5.337
0.199,0.044,0.360,-5.337
0.145,0.046,0.362,-5.337
0.109,0.044,0.359,-5.337
0.178,0.043,0.359,-5.337
0.226,0.043,0.362,-5.337
0.187,0.044,0.363,-5.337
0.208,0.045,0.362,-5.337
0.200,0.045,0.363,-5.337
0.165,0.048,0.363,-5.337
0.147,0.046,0.362,-5.337
0.147,0.045,0.357,-5.337
0.093,0.047,0.354,-5.337
0.055,0.049,0.357,-5.337
0.126,0.049,0.361,-5.337
0.144,0.051,0.362,-5.337
0.143,0.052,0.357,-5.337
0.215,0.049,0.354,-5.337
0.220,0.047,0.356,-5.337
0.202,0.047,0.357,-5.337
0.165,0.048,0.358,-5.337
0.174,0.049,0.359,-5.337
0.165,0.048,0.355,-5.337
0.141,0.045,0.356,-5.337
0.076,0.045,0.357,-5.337
0.088,0.045,0.360,-5.337
0.193,0.041,0.357,-5.337
0.216,0.040,0.352,-5.337
0.141,0.043,0.352,-5.337
0.109,0.044,0.359,-5.337
0.134,0.044,0.362,-5.337
0.104,0.045,0.360,-5.337
0.059,0.046,0.354,-5.337
0.042,0.046,0.351,-5.337
0.026,0.044,0.349,-5.337
0.045,0.042,0.353,-5.337
0.021,0.043,0.354,-5.337
0.038,0.044,0.355,-5.337
0.101,0.043,0.355,-5.337
0.149,0.045,0.355,-5.337
0.177,0.040,0.355,-5.337
0.174,0.041,0.358,-5.337
0.166,0.041,0.358,-5.337
0.191,0.044,0.355,-5.337
0.170,0.042,0.354,-5.337
0.116,0.038,0.353,-5.337
0.115,0.041,0.355,-5.337
0.152,0.041,0.355,-5.337
0.179,0.046,0.352,-5.337
0.163,0.047,0.346,-5.337
0.098,0.043,0.348,-5.337
0.126,0.041,0.352,-5.337
0.168,0.043,0.357,-5.337
0.143,0.045,0.360,-5.337
0.136,0.046,0.357,-5.337
0.057,0.043,0.356,-5.337
0.084,0.043,0.352,-5.337
0.129,0.047,0.349,-5.337
0.134,0.045,0.351,-5.337
0.122,0.045,0.355,-5.337
0.152,0.046,0.355,-5.337
0.078,0.046,0.351,-5.337
0.074,0.045,0.350,-5.337
0.074,0.042,0.354,-5.337
0.078,0.041,0.352,-5.337
0.082,0.037,0.352,-5.337
0.050,0.039,0.350,-5.337
0.064,0.041,0.350,-5.337
0.113,0.044,0.347,-5.337
0.151,0.044,0.347,-5.337
0.156,0.039,0.346,-5.337
0.131,0.040,0.349,-5.337
0.094,0.040,0.349,-5.337
0.063,0.036,0.350,-5.337
0.065,0.035,0.352,-5.337
0.092,0.040,0.354,-5.337
0.124,0.041,0.352,-5.337
0.156,0.039,0.346,-5.337
0.168,0.039,0.346,-5.337
0.162,0.041,0.349,-5.337
0.125,0.039,0.349,-5.337
0.060,0.041,0.347,-5.337
0.057,0.038,0.346,-5.337
0.037,0.033,0.346,-5.337
0.063,0.036,0.346,-5.337
0.074,0.036,0.344,-5.337
0.070,0.037,0.344,-5.337
0.035,0.035,0.347,-5.337
0.042,0.036,0.350,-5.337
0.070,0.036,0.344,-5.337
0.084,0.036,0.342,-5.337
0.119,0.035,0.343,-5.337
0.126,0.037,0.347,-5.337
0.122,0.038,0.349,-5.337
0.131,0.038,0.351,-5.337
0.181,0.033,0.349,-5.337
0.189,0.031,0.350,-5.337
0.206,0.035,0.343,-5.337
0.164,0.039,0.341,-5.337
0.090,0.040,0.344,-5.337
0.078,0.043,0.345,-5.337
0.083,0.041,0.347,-5.337
0.074,0.040,0.352,-5.337
0.050,0.042,0.352,-5.337
-0.005,0.044,0.352,-5.337
0.004,0.042,0.348,-5.337
0.081,0.041,0.343,-5.337
0.088,0.042,0.339,-5.337
0.017,0.043,0.338,-5.337
0.033,0.042,0.342,-5.337
0.110,0.042,0.343,-5.337
0.124,0.041,0.346,-5.337
0.074,0.041,0.349,-5.337
0.032,0.046,0.348,-5.337
0.088,0.045,0.345,-5.337
0.138,0.043,0.343,-5.337
0.182,0.042,0.344,-5.337
0.126,0.042,0.345,-5.337
0.087,0.044,0.344,-5.337
0.096,0.046,0.345,-5.337
0.108,0.047,0.347,-5.337
0.096,0.043,0.348,-5.337
0.113,0.042,0.346,-5.337
0.053,0.043,0.345,-5.337
0.068,0.043,0.344,-5.337
0.099,0.042,0.344,-5.337
0.090,0.042,0.342,-5.337
0.075,0.043,0.342,-5.337
0.111,0.039,0.342,-5.337
0.108,0.039,0.341,-5.337
0.127,0.039,0.343,-5.337
0.073,0.042,0.343,-5.337
0.027,0.045,0.347,-5.337
0.101,0.045,0.346,-5.337
0.156,0.044,0.343,-5.337
0.088,0.043,0.339,-5.337
0.076,0.043,0.338,-5.337
0.104,0.041,0.341,-5.337
0.133,0.047,0.347,-5.337
0.201,0.047,0.346,-5.337
0.230,0.048,0.345,-5.337
0.147,0.047,0.347,-5.337
0.062,0.048,0.345,-5.337
0.083,0.047,0.339,-5.337
0.079,0.045,0.337,-5.337
0.081,0.045,0.338,-5.337
0.088,0.043,0.338,-5.337
0.037,0.039,0.339,-5.337
0.005,0.041,0.341,-5.337
-0.041,0.042,0.344,-5.337
-0.091,0.046,0.344,-5.337
-0.047,0.045,0.344,-5.337
0.041,0.044,0.342,-5.337
0.052,0.043,0.341,-5.337
0.087,0.038,0.340,-5.337
0.036,0.039,0.343,-5.337
0.003,0.041,0.344,-5.337
0.059,0.045,0.346,-5.337
0.122,0.041,0.344,-5.337
0.126,0.040,0.340,-5.337
0.132,0.037,0.334,-5.337
0.126,0.038,0.336,-5.337
0.182,0.037,0.338,-5.337
0.154,0.040,0.342,-5.337
0.103,0.040,0.340,-5.337
0.056,0.040,0.339,-5.337
0.070,0.040,0.338,-5.337
0.065,0.041,0.338,-5.337
0.114,0.038,0.338,-5.337
0.130,0.039,0.338,-5.337
0.088,0.041,0.334,-5.337
0.085,0.042,0.332,-5.337
0.114,0.043,0.333,-5.337
0.110,0.042,0.334,-5.337
0.055,0.043,0.336,-5.337
0.036,0.042,0.336,-5.337
0.042,0.038,0.334,-5.337
-0.005,0.041,0.333,-5.337
0.020,0.041,0.332,-5.337
0.049,0.040,0.336,-5.337
0.081,0.038,0.341,-5.337
0.089,0.037,0.338,-5.337
0.063,0.041,0.334,-5.337
0.063,0.041,0.331,-5.337
0.095,0.037,0.334,-5.337
0.158,0.036,0.335,-5.337
0.195,0.038,0.336,-5.337
0.174,0.039,0.337,-5.337
0.079,0.045,0.339,-5.337
0.078,0.048,0.335,-5.337
0.121,0.047,0.333,-5.337
0.102,0.045,0.333,-5.337
0.137,0.044,0.332,-5.337
0.110,0.043,0.333,-5.337
0.108,0.044,0.334,-5.337
0.152,0.041,0.332,-5.337
0.147,0.038,0.334,-5.337
0.139,0.041,0.336,-5.337
0.130,0.045,0.334,-5.337
0.106,0.046,0.332,-5.337
0.090,0.041,0.331,-5.337
0.089,0.039,0.332,-5.337
0.099,0.041,0.330,-5.337
0.052,0.042,0.334,-5.337
0.030,0.044,0.334,-5.337
0.047,0.044,0.335,-5.337
0.079,0.045,0.330,-5.337
0.079,0.047,0.328,-5.337
0.085,0.046,0.327,-5.337
0.083,0.047,0.327,-5.337
0.054,0.043,0.326,-5.337
0.077,0.041,0.328,-5.337
0.088,0.040,0.330,-5.337
0.083,0.045,0.331,-5.337
0.092,0.043,0.334,-5.337
0.133,0.041,0.333,-5.337
0.081,0.037,0.329,-5.337
0.077,0.037,0.326,-5.337
0.090,0.040,0.328,-5.337
0.110,0.043,0.330,-5.337
0.136,0.047,0.330,-5.337
0.159,0.049,0.330,-5.337
0.107,0.045,0.331,-5.337
0.037,0.043,0.333,-5.337
0.118,0.041,0.334,-5.337
0.173,0.042,0.332,-5.337
0.121,0.046,0.331,-5.337
0.032,0.046,0.325,-5.337
0.043,0.044,0.324,-5.337
0.063,0.042,0.327,-5.337
0.078,0.043,0.331,-5.337
0.122,0.044,0.331,-5.337
0.173,0.042,0.331,-5.337
0.179,0.040,0.330,-5.337
0.146,0.041,0.326,-5.337
0.102,0.041,0.326,-5.337
0.068,0.042,0.328,-5.337
0.035,0.043,0.329,-5.337
0.017,0.045,0.332,-5.337
0.073,0.045,0.335,-5.337
0.085,0.042,0.333,-5.337
0.054,0.042,0.330,-5.337
0.045,0.043,0.329,-5.337
0.056,0.044,0.328,-5.337
0.118,0.044,0.325,-5.337
0.113,0.043,0.326,-5.337
0.128,0.038,0.329,-5.337
0.123,0.036,0.331,-5.337
0.067,0.039,0.329,-5.337
0.065,0.042,0.328,-5.337
0.139,0.043,0.327,-5.337
0.149,0.045,0.328,-5.337
0.063,0.044,0.331,-5.337
0.077,0.045,0.329,-5.337
0.073,0.041,0.325,-5.337
0.075,0.040,0.321,-5.337
0.136,0.039,0.321,-5.337
0.163,0.040,0.325,-5.337
0.145,0.043,0.331,-5.337
0.095,0.044,0.335,-5.337
0.100,0.046,0.335,-5.337
0.161,0.044,0.336,-5.337
0.203,0.041,0.335,-5.337
0.195,0.039,0.329,-5.337
0.169,0.039,0.327,-5.337
0.171,0.042,0.329,-5.337
0.119,0.046,0.329,-5.337
0.117,0.043,0.325,-5.337
0.174,0.041,0.326,-5.337
0.195,0.038,0.325,-5.337
0.166,0.043,0.329,-5.337
0.168,0.044,0.332,-5.337
0.156,0.043,0.333,-5.337
0.134,0.042,0.328,-5.337
0.117,0.042,0.324,-5.337
0.081,0.039,0.326,-5.337
0.090,0.040,0.332,-5.337
0.096,0.036,0.329,-5.337
0.087,0.036,0.325,-5.337
0.126,0.039,0.327,-5.337
0.210,0.042,0.332,-5.337
0.180,0.038,0.332,-5.337
0.122,0.037,0.330,-5.337
0.138,0.038,0.329,-5.337
0.127,0.042,0.329,-5.337
0.132,0.042,0.332,-5.337
0.070,0.043,0.333,-5.337
0.022,0.044,0.332,-5.337
0.024,0.046,0.330,-5.337
0.056,0.043,0.328,-5.337
0.098,0.042,0.329,-5.337
0.077,0.041,0.331,-5.337
0.090,0.039,0.331,-5.337
0.128,0.038,0.330,-5.337
0.161,0.041,0.329,-5.337
0.129,0.041,0.334,-5.337
0.150,0.041,0.336,-5.337
0.164,0.036,0.334,-5.337
0.118,0.037,0.331,-5.337
0.109,0.039,0.333,-5.337
0.103,0.043,0.332,-5.337
0.091,0.048,0.330,-5.337
0.114,0.049,0.330,-5.337
0.131,0.047,0.328,-5.337
0.153,0.046,0.329,-5.337
0.121,0.045,0.332,-5.337
0.097,0.043,0.334,-5.337
0.143,0.045,0.335,-5.337
0.109,0.047,0.334,-5.337
0.094,0.045,0.330,-5.337
0.160,0.042,0.332,-5.337
0.129,0.045,0.334,-5.337
0.107,0.046,0.334,-5.337
0.112,0.043,0.332,-5.337
0.107,0.042,0.333,-5.337
0.126,0.041,0.332,-5.337
0.163,0.041,0.333,-5.337
0.171,0.045,0.332,-5.337
0.103,0.043,0.332,-5.337
0.125,0.045,0.331,-5.337
0.176,0.049,0.334,-5.337
0.067,0.047,0.334,-5.337
0.066,0.048,0.336,-5.337
0.149,0.046,0.334,-5.337
0.157,0.047,0.334,-5.337
0.146,0.049,0.334,-5.337
0.114,0.052,0.332,-5.337
0.149,0.049,0.329,-5.337
0.167,0.049,0.331,-5.337
0.122,0.050,0.334,-5.337
0.046,0.050,0.336,-5.337
0.068,0.050,0.337,-5.337
0.132,0.051,0.337,-5.337
0.112,0.053,0.338,-5.337
0.079,0.051,0.340,-5.337
0.104,0.048,0.338,-5.337
0.219,0.049,0.335,-5.337
0.266,0.050,0.333,-5.337
0.215,0.052,0.335,-5.337
0.119,0.054,0.335,-5.337
0.076,0.055,0.332,-5.337
0.131,0.054,0.333,-5.337
0.173,0.053,0.332,-5.337
0.136,0.054,0.333,-5.337
0.119,0.051,0.336,-5.337
0.180,0.051,0.335,-5.337
0.232,0.050,0.336,-5.337
0.218,0.053,0.335,-5.337
0.204,0.052,0.331,-5.337
0.170,0.052,0.331,-5.337
0.152,0.053,0.339,-5.337
0.190,0.053,0.344,-5.337
0.183,0.048,0.343,-5.337
0.131,0.049,0.341,-5.337
0.122,0.047,0.338,-5.337
0.149,0.047,0.335,-5.337
0.177,0.053,0.333,-5.337
0.153,0.052,0.333,-5.337
0.123,0.050,0.332,-5.337
0.134,0.053,0.333,-5.337
0.119,0.054,0.336,-5.337
0.155,0.052,0.335,-5.337
0.154,0.052,0.338,-5.337
0.086,0.053,0.338,-5.337
0.120,0.054,0.338,-5.337
0.166,0.054,0.336,-5.337
0.172,0.055,0.337,-5.337
0.199,0.056,0.339,-5.337
0.177,0.059,0.340,-5.337
0.151,0.055,0.335,-5.337
0.146,0.053,0.335,-5.337
0.158,0.050,0.339,-5.337
0.135,0.052,0.339,-5.337
0.124,0.049,0.341,-5.337
0.183,0.051,0.344,-5.337
0.184,0.051,0.344,-5.337
0.151,0.050,0.342,-5.337
0.168,0.049,0.337,-5.337
0.173,0.047,0.336,-5.337
0.144,0.049,0.342,-5.337
0.108,0.052,0.344,-5.337
0.139,0.053,0.344,-5.337
0.175,0.056,0.344,-5.337
0.164,0.054,0.343,-5.337
0.184,0.054,0.337,-5.337
0.220,0.054,0.336,-5.337
0.184,0.056,0.336,-5.337
0.162,0.057,0.341,-5.337
0.177,0.054,0.340,-5.337
0.220,0.050,0.338,-5.337
0.217,0.051,0.342,-5.337
0.188,0.053,0.347,-5.337
0.172,0.055,0.345,-5.337
0.134,0.056,0.341,-5.337
0.148,0.052,0.341,-5.337
0.198,0.053,0.343,-5.337
0.242,0.054,0.344,-5.337
0.194,0.051,0.346,-5.337
0.147,0.049,0.347,-5.337
0.166,0.050,0.346,-5.337
0.157,0.049,0.344,-5.337
0.097,0.054,0.344,-5.337
0.139,0.056,0.344,-5.337
0.182,0.055,0.342,-5.337
0.182,0.052,0.342,-5.337
0.192,0.052,0.338,-5.337
0.177,0.054,0.340,-5.337
0.170,0.054,0.344,-5.337
0.158,0.053,0.346,-5.337
0.228,0.051,0.346,-5.337
0.225,0.053,0.347,-5.337
0.136,0.051,0.343,-5.337
0.150,0.056,0.341,-5.337
0.180,0.057,0.341,-5.337
0.156,0.060,0.345,-5.337
0.145,0.060,0.348,-5.337
0.146,0.062,0.346,-5.337
0.170,0.063,0.345,-5.337
0.219,0.061,0.347,-5.337
0.200,0.061,0.347,-5.337
0.121,0.062,0.346,-5.337
0.158,0.058,0.346,-5.337
0.232,0.057,0.347,-5.337
0.242,0.058,0.347,-5.337
0.214,0.057,0.343,-5.337
0.205,0.056,0.341,-5.337
0.226,0.057,0.339,-5.337
0.228,0.057,0.342,-5.337
0.223,0.055,0.345,-5.337
0.205,0.055,0.350,-5.337
0.144,0.054,0.349,-5.337
0.097,0.055,0.348,-5.337
0.118,0.056,0.348,-5.337
0.042,0.063,0.346,-5.337
0.082,0.062,0.348,-5.337
0.184,0.060,0.349,-5.337
0.195,0.059,0.345,-5.337
0.160,0.063,0.342,-5.337
0.138,0.061,0.341,-5.337
0.159,0.058,0.344,-5.337
0.179,0.058,0.347,-5.337
0.195,0.061,0.349,-5.337
0.169,0.061,0.348,-5.337
0.146,0.062,0.347,-5.337
0.136,0.060,0.346,-5.337
0.111,0.062,0.345,-5.337
0.140,0.062,0.341,-5.337
0.214,0.060,0.341,-5.337
0.247,0.059,0.342,-5.337
0.155,0.061,0.344,-5.337
0.095,0.061,0.344,-5.337
0.134,0.061,0.345,-5.337
0.193,0.061,0.345,-5.337
0.153,0.064,0.347,-5.337
0.134,0.068,0.350,-5.337
0.149,0.069,0.349,-5.337
0.151,0.066,0.350,-5.337
0.149,0.066,0.347,-5.337
0.205,0.066,0.346,-5.337
0.224,0.066,0.344,-5.337
0.194,0.066,0.343,-5.337
0.150,0.064,0.343,-5.337
0.163,0.066,0.346,-5.337
0.136,0.067,0.346,-5.337
0.147,0.061,0.344,-5.337
0.204,0.055,0.343,-5.337
0.186,0.059,0.344,-5.337
0.186,0.066,0.347,-5.337
0.106,0.069,0.348,-5.337
0.118,0.063,0.344,-5.337
0.166,0.062,0.344,-5.337
0.209,0.063,0.344,-5.337
0.254,0.062,0.343,-5.337
0.175,0.061,0.346,-5.337
0.093,0.061,0.348,-5.337
0.144,0.059,0.349,-5.337
0.196,0.057,0.348,-5.337
0.172,0.060,0.341,-5.337
0.199,0.059,0.339,-5.337
0.176,0.059,0.342,-5.337
0.221,0.058,0.342,-5.337
0.234,0.060,0.349,-5.337
0.177,0.065,0.350,-5.337
0.172,0.064,0.345,-5.337
0.226,0.062,0.344,-5.337
0.294,0.061,0.347,-5.337
0.238,0.060,0.347,-5.337
0.139,0.060,0.343,-5.337
0.140,0.055,0.340,-5.337
0.204,0.056,0.342,-5.337
0.201,0.061,0.350,-5.337
0.192,0.062,0.355,-5.337
0.144,0.059,0.352,-5.337
0.155,0.058,0.346,-5.337
0.191,0.058,0.342,-5.337
0.255,0.055,0.342,-5.337
0.258,0.054,0.346,-5.337
0.155,0.054,0.346,-5.337
0.096,0.053,0.347,-5.337
0.145,0.055,0.345,-5.337
0.153,0.054,0.346,-5.337
0.149,0.055,0.346,-5.337
0.127,0.055,0.344,-5.337
0.122,0.056,0.342,-5.337
0.118,0.056,0.344,-5.337
0.196,0.052,0.346,-5.337
0.185,0.055,0.346,-5.337
0.135,0.056,0.345,-5.337
0.103,0.057,0.343,-5.337
0.113,0.058,0.343,-5.337
0.111,0.059,0.347,-5.337
0.085,0.065,0.347,-5.337
0.100,0.065,0.344,-5.337
0.138,0.062,0.341,-5.337
0.134,0.061,0.343,-5.337
0.157,0.063,0.344,-5.337
0.207,0.060,0.346,-5.337
0.222,0.057,0.351,-5.337
0.198,0.058,0.354,-5.337
0.157,0.059,0.353,-5.337
0.154,0.062,0.343,-5.337
0.165,0.063,0.339,-5.337
0.110,0.062,0.335,-5.337
0.170,0.061,0.341,-5.337
0.229,0.055,0.343,-5.337
0.212,0.058,0.346,-5.337
0.152,0.060,0.347,-5.337
0.182,0.059,0.346,-5.337
0.206,0.057,0.343,-5.337
0.221,0.059,0.343,-5.337
0.183,0.061,0.345,-5.337
0.165,0.059,0.345,-5.337
0.162,0.057,0.344,-5.337
0.148,0.059,0.344,-5.337
0.162,0.058,0.346,-5.337
0.182,0.054,0.343,-5.337
0.227,0.056,0.342,-5.337
0.184,0.062,0.347,-5.337
0.118,0.062,0.347,-5.337
0.143,0.061,0.343,-5.337
0.178,0.060,0.338,-5.337
0.215,0.062,0.337,-5.337
0.169,0.063,0.342,-5.337
0.082,0.065,0.346,-5.337
0.019,0.062,0.349,-5.337
0.039,0.058,0.351,-5.337
0.050,0.058,0.353,-5.337
0.090,0.057,0.349,-5.337
0.105,0.061,0.343,-5.337
0.116,0.060,0.342,-5.337
0.160,0.061,0.346,-5.337
0.145,0.059,0.348,-5.337
0.108,0.061,0.347,-5.337
0.122,0.062,0.346,-5.337
0.179,0.061,0.348,-5.337
0.186,0.059,0.349,-5.337
0.132,0.060,0.344,-5.337
0.099,0.060,0.342,-5.337
0.144,0.059,0.344,-5.337
0.111,0.056,0.346,-5.337
0.070,0.058,0.348,-5.337
0.063,0.057,0.347,-5.337
0.110,0.058,0.345,-5.337
0.145,0.057,0.346,-5.337
0.167,0.056,0.348,-5.337
0.105,0.054,0.349,-5.337
0.077,0.059,0.347,-5.337
0.095,0.058,0.344,-5.337
0.153,0.051,0.342,-5.337
0.179,0.051,0.343,-5.337
0.181,0.057,0.344,-5.337
0.149,0.063,0.344,-5.337
0.086,0.059,0.341,-5.337
0.106,0.056,0.339,-5.337
0.181,0.051,0.339,-5.337
0.190,0.052,0.343,-5.337
0.179,0.055,0.345,-5.337
0.165,0.062,0.343,-5.337
0.178,0.060,0.342,-5.337
0.186,0.060,0.344,-5.337
0.225,0.056,0.348,-5.337
0.225,0.058,0.348,-5.337
0.137,0.058,0.345,-5.337
0.074,0.056,0.344,-5.337
0.091,0.056,0.342,-5.337
0.078,0.055,0.342,-5.337
0.124,0.054,0.342,-5.337
0.193,0.055,0.345,-5.337
0.168,0.054,0.345,-5.337
0.162,0.055,0.341,-5.337
0.190,0.052,0.341,-5.337
0.181,0.049,0.341,-5.337
0.108,0.053,0.342,-5.337
0.085,0.058,0.342,-5.337
0.136,0.059,0.343,-5.337
0.128,0.056,0.343,-5.337
0.132,0.057,0.345,-5.337
0.121,0.059,0.346,-5.337
0.112,0.059,0.343,-5.337
0.102,0.057,0.345,-5.337
0.126,0.059,0.348,-5.337
0.176,0.057,0.342,-5.337
0.184,0.056,0.338,-5.337
0.145,0.055,0.337,-5.337
0.195,0.057,0.338,-5.337
0.238,0.057,0.341,-5.337
0.206,0.060,0.345,-5.337
0.131,0.060,0.342,-5.337
0.049,0.060,0.341,-5.337
0.059,0.062,0.341,-5.337
0.133,0.061,0.341,-5.337
0.163,0.055,0.340,-5.337
0.169,0.055,0.340,-5.337
0.087,0.057,0.339,-5.337
0.060,0.057,0.337,-5.337
0.118,0.057,0.339,-5.337
0.167,0.057,0.342,-5.337
0.214,0.053,0.343,-5.337
0.193,0.050,0.341,-5.337
0.124,0.050,0.339,-5.337
0.134,0.050,0.340,-5.337
0.197,0.050,0.340,-5.337
0.181,0.050,0.339,-5.337
0.185,0.052,0.340,-5.337
0.158,0.056,0.341,-5.337
0.152,0.055,0.339,-5.337
0.097,0.051,0.337,-5.337
0.061,0.051,0.339,-5.337
0.069,0.051,0.342,-5.337
0.109,0.051,0.347,-5.337
0.161,0.051,0.349,-5.337
0.180,0.054,0.345,-5.337
0.176,0.060,0.339,-5.337
0.154,0.058,0.336,-5.337
0.102,0.058,0.340,-5.337
0.131,0.057,0.345,-5.337
0.124,0.058,0.346,-5.337
0.170,0.057,0.344,-5.337
0.193,0.060,0.340,-5.337
0.180,0.059,0.337,-5.337
0.179,0.061,0.342,-5.337
0.193,0.059,0.346,-5.337
0.188,0.059,0.347,-5.337
0.144,0.062,0.346,-5.337
0.147,0.060,0.342,-5.337
0.154,0.058,0.336,-5.337
0.162,0.057,0.335,-5.337
0.167,0.055,0.340,-5.337
0.174,0.056,0.344,-5.337
0.125,0.059,0.344,-5.337
0.152,0.057,0.342,-5.337
0.142,0.055,0.341,-5.337
0.117,0.055,0.340,-5.337
0.086,0.059,0.342,-5.337
0.089,0.060,0.343,-5.337
0.107,0.060,0.343,-5.337
0.157,0.058,0.345,-5.337
0.227,0.057,0.342,-5.337
0.211,0.060,0.336,-5.337
0.115,0.062,0.337,-5.337
0.106,0.059,0.342,-5.337
0.105,0.058,0.347,-5.337
0.131,0.060,0.347,-5.337
0.126,0.063,0.345,-5.337
0.083,0.061,0.343,-5.337
0.074,0.060,0.342,-5.337
0.069,0.059,0.343,-5.337
0.103,0.055,0.343,-5.337
0.139,0.054,0.340,-5.337
0.161,0.054,0.338,-5.337
0.163,0.053,0.339,-5.337
0.157,0.054,0.339,-5.337
0.172,0.052,0.341,-5.337
0.153,0.051,0.342,-5.337
0.141,0.052,0.341,-5.337
0.159,0.053,0.340,-5.337
0.140,0.056,0.343,-5.337
0.111,0.056,0.344,-5.337
0.132,0.054,0.342,-5.337
0.136,0.055,0.341,-5.337
0.141,0.057,0.346,-5.337
0.143,0.055,0.342,-5.337
0.162,0.055,0.340,-5.337
0.174,0.057,0.340,-5.337
0.182,0.059,0.345,-5.337
0.160,0.061,0.342,-5.337
0.179,0.061,0.338,-5.337
0.120,0.060,0.338,-5.337
0.103,0.064,0.339,-5.337
0.093,0.065,0.338,-5.337
0.058,0.069,0.337,-5.337
0.095,0.067,0.338,-5.337
0.124,0.066,0.342,-5.337
0.124,0.063,0.346,-5.337
0.111,0.060,0.343,-5.337
0.182,0.062,0.341,-5.337
0.227,0.060,0.340,-5.337
0.142,0.065,0.337,-5.337
0.073,0.062,0.336,-5.337
0.085,0.060,0.339,-5.337
0.111,0.065,0.342,-5.337
0.068,0.067,0.341,-5.337
0.086,0.067,0.335,-5.337
0.167,0.066,0.336,-5.337
0.137,0.067,0.339,-5.337
0.098,0.067,0.343,-5.337
0.103,0.066,0.341,-5.337
0.072,0.064,0.337,-5.337
0.131,0.060,0.334,-5.337
0.152,0.063,0.335,-5.337
0.107,0.063,0.336,-5.337
0.089,0.061,0.340,-5.337
0.084,0.062,0.341,-5.337
0.137,0.062,0.341,-5.337
0.228,0.064,0.342,-5.337
0.237,0.063,0.343,-5.337
0.190,0.062,0.338,-5.337
0.181,0.063,0.334,-5.337
0.169,0.065,0.333,-5.337
0.138,0.066,0.334,-5.337
0.163,0.063,0.334,-5.337
0.188,0.064,0.334,-5.337
0.126,0.063,0.337,-5.337
0.107,0.063,0.338,-5.337
0.128,0.062,0.337,-5.337
0.125,0.064,0.337,-5.337
0.077,0.063,0.339,-5.337
0.089,0.059,0.339,-5.337
0.126,0.061,0.338,-5.337
0.093,0.066,0.335,-5.337
0.008,0.069,0.336,-5.337
0.011,0.065,0.336,-5.337
0.092,0.064,0.338,-5.337
0.125,0.062,0.338,-5.337
0.191,0.061,0.337,-5.337
0.246,0.059,0.334,-5.337
0.229,0.058,0.330,-5.337
0.219,0.063,0.329,-5.337
0.208,0.063,0.331,-5.337
0.179,0.060,0.332,-5.337
0.115,0.063,0.336,-5.337
0.051,0.065,0.336,-5.337
0.046,0.066,0.334,-5.337
0.079,0.067,0.335,-5.337
0.148,0.066,0.336,-5.337
0.169,0.064,0.335,-5.337
0.139,0.066,0.333,-5.337
0.109,0.067,0.332,-5.337
0.121,0.065,0.332,-5.337
0.206,0.063,0.335,-5.337
0.244,0.063,0.334,-5.337
0.188,0.066,0.334,-5.337
0.135,0.067,0.334,-5.337
0.116,0.065,0.335,-5.337
0.148,0.065,0.335,-5.337
0.179,0.066,0.335,-5.337
0.184,0.065,0.334,-5.337
0.207,0.060,0.336,-5.337
0.182,0.062,0.338,-5.337
0.198,0.064,0.336,-5.337
0.199,0.060,0.332,-5.337
0.149,0.059,0.334,-5.337
0.123,0.058,0.334,-5.337
0.160,0.059,0.332,-5.337
0.166,0.060,0.330,-5.337
0.130,0.067,0.334,-5.337
0.122,0.069,0.333,-5.337
0.139,0.070,0.329,-5.337
0.202,0.067,0.329,-5.337
0.258,0.063,0.330,-5.337
0.243,0.064,0.333,-5.337
0.199,0.062,0.331,-5.337
0.177,0.064,0.330,-5.337
0.175,0.065,0.329,-5.337
0.174,0.066,0.334,-5.337
0.081,0.067,0.335,-5.337
0.070,0.069,0.334,-5.337
0.148,0.067,0.332,-5.337
0.214,0.067,0.333,-5.337
0.219,0.070,0.330,-5.337
0.176,0.074,0.330,-5.337
0.161,0.071,0.333,-5.337
0.131,0.071,0.332,-5.337
0.117,0.067,0.328,-5.337
0.195,0.069,0.328,-5.337
0.212,0.070,0.334,-5.337
0.152,0.069,0.339,-5.337
0.180,0.068,0.336,-5.337
0.160,0.068,0.332,-5.337
0.135,0.070,0.331,-5.337
0.160,0.074,0.331,-5.337
0.224,0.071,0.331,-5.337
0.246,0.071,0.331,-5.337
0.149,0.069,0.333,-5.337
0.151,0.067,0.334,-5.337
0.170,0.072,0.333,-5.337
0.130,0.072,0.327,-5.337
0.108,0.073,0.327,-5.337
0.121,0.075,0.330,-5.337
0.174,0.074,0.333,-5.337
0.214,0.071,0.335,-5.337
0.165,0.073,0.336,-5.337
0.165,0.073,0.333,-5.337
0.180,0.075,0.329,-5.337
0.220,0.071,0.324,-5.337
0.192,0.070,0.326,-5.337
0.138,0.069,0.327,-5.337
0.125,0.071,0.328,-5.337
0.130,0.071,0.332,-5.337
0.153,0.071,0.332,-5.337
0.096,0.075,0.328,-5.337
0.135,0.076,0.328,-5.337
0.216,0.075,0.331,-5.337
0.182,0.078,0.329,-5.337
0.182,0.074,0.328,-5.337
0.210,0.072,0.329,-5.337
0.191,0.073,0.330,-5.337
0.190,0.074,0.329,-5.337
0.168,0.074,0.331,-5.337
0.138,0.075,0.330,-5.337
0.152,0.072,0.328,-5.337
0.150,0.072,0.328,-5.337
0.144,0.073,0.330,-5.337
0.145,0.072,0.327,-5.337
0.142,0.074,0.324,-5.337
0.157,0.075,0.326,-5.337
0.200,0.074,0.329,-5.337
0.221,0.068,0.328,-5.337
0.216,0.069,0.325,-5.337
0.187,0.072,0.327,-5.337
0.195,0.071,0.327,-5.337
0.186,0.072,0.326,-5.337
0.131,0.070,0.325,-5.337
0.104,0.072,0.328,-5.337
0.107,0.072,0.329,-5.337
0.142,0.071,0.329,-5.337
0.099,0.074,0.326,-5.337
0.104,0.074,0.328,-5.337
0.152,0.073,0.329,-5.337
0.191,0.072,0.328,-5.337
0.220,0.072,0.329,-5.337
0.232,0.071,0.332,-5.337
0.186,0.073,0.330,-5.337
0.177,0.072,0.327,-5.337
0.185,0.072,0.323,-5.337
0.225,0.072,0.323,-5.337
0.200,0.073,0.323,-5.337
0.123,0.075,0.325,-5.337
0.075,0.070,0.327,-5.337
0.085,0.071,0.333,-5.337
0.134,0.069,0.331,-5.337
0.167,0.067,0.326,-5.337
0.215,0.066,0.324,-5.337
0.151,0.070,0.322,-5.337
0.052,0.066,0.320,-5.337
0.087,0.067,0.322,-5.337
0.150,0.068,0.322,-5.337
0.128,0.068,0.323,-5.337
0.141,0.068,0.324,-5.337
0.172,0.067,0.323,-5.337
0.203,0.065,0.326,-5.337
0.176,0.068,0.329,-5.337
0.194,0.068,0.328,-5.337
0.162,0.070,0.325,-5.337
0.172,0.071,0.327,-5.337
0.148,0.071,0.324,-5.337
0.115,0.066,0.325,-5.337
0.157,0.063,0.326,-5.337
0.187,0.067,0.324,-5.337
0.184,0.067,0.321,-5.337
0.192,0.068,0.319,-5.337
0.153,0.075,0.319,-5.337
0.108,0.076,0.322,-5.337
0.148,0.071,0.323,-5.337
0.232,0.066,0.325,-5.337
0.224,0.070,0.324,-5.337
0.180,0.074,0.321,-5.337
0.176,0.074,0.317,-5.337
0.176,0.074,0.322,-5.337
0.216,0.072,0.325,-5.337
0.221,0.073,0.319,-5.337
0.177,0.074,0.315,-5.337
0.095,0.079,0.317,-5.337
0.102,0.076,0.324,-5.337
0.136,0.075,0.330,-5.337
0.168,0.076,0.331,-5.337
0.203,0.073,0.326,-5.337
0.164,0.073,0.321,-5.337
0.103,0.072,0.318,-5.337
0.103,0.072,0.321,-5.337
0.103,0.077,0.324,-5.337
0.144,0.075,0.325,-5.337
0.184,0.073,0.324,-5.337
0.177,0.078,0.325,-5.337
0.152,0.081,0.323,-5.337
0.232,0.078,0.321,-5.337
0.293,0.074,0.318,-5.337
0.254,0.073,0.319,-5.337
0.215,0.073,0.321,-5.337
0.197,0.074,0.320,-5.337
0.188,0.072,0.317,-5.337
0.207,0.070,0.319,-5.337
0.209,0.071,0.319,-5.337
0.205,0.072,0.319,-5.337
0.224,0.068,0.320,-5.337
0.197,0.069,0.322,-5.337
0.139,0.071,0.326,-5.337
0.149,0.070,0.321,-5.337
0.159,0.072,0.317,-5.337
0.176,0.074,0.319,-5.337
0.191,0.076,0.326,-5.337
0.167,0.076,0.325,-5.337
0.176,0.078,0.324,-5.337
0.178,0.079,0.322,-5.337
0.222,0.077,0.319,-5.337
0.264,0.072,0.318,-5.337
0.211,0.074,0.321,-5.337
0.156,0.074,0.322,-5.337
0.173,0.075,0.320,-5.337
0.240,0.073,0.321,-5.337
0.209,0.073,0.321,-5.337
0.165,0.070,0.319,-5.337
0.158,0.070,0.319,-5.337
0.158,0.068,0.319,-5.337
0.166,0.071,0.320,-5.337
0.164,0.075,0.322,-5.337
0.127,0.076,0.323,-5.337
0.149,0.078,0.321,-5.337
0.168,0.077,0.321,-5.337
0.184,0.074,0.321,-5.337
0.204,0.075,0.322,-5.337
0.240,0.076,0.322,-5.337
0.270,0.076,0.320,-5.337
0.204,0.077,0.319,-5.337
0.175,0.079,0.315,-5.337
0.201,0.077,0.316,-5.337
0.171,0.080,0.317,-5.337
0.176,0.081,0.321,-5.337
0.238,0.076,0.322,-5.337
0.281,0.075,0.320,-5.337
0.264,0.075,0.318,-5.337
0.236,0.079,0.321,-5.337
0.217,0.076,0.323,-5.337
0.211,0.074,0.322,-5.337
0.129,0.077,0.320,-5.337
0.118,0.076,0.318,-5.337
0.149,0.075,0.318,-5.337
0.218,0.075,0.320,-5.337
0.259,0.072,0.319,-5.337
0.246,0.074,0.318,-5.337
0.198,0.076,0.317,-5.337
0.235,0.073,0.309,-5.337
0.257,0.068,0.310,-5.337
0.164,0.068,0.314,-5.337
0.102,0.069,0.315,-5.337
0.162,0.070,0.315,-5.337
0.227,0.073,0.319,-5.337
0.244,0.072,0.320,-5.337
0.245,0.075,0.321,-5.337
0.142,0.075,0.317,-5.337
0.116,0.073,0.318,-5.337
0.151,0.068,0.317,-5.337
0.198,0.068,0.318,-5.337
0.195,0.069,0.317,-5.337
0.219,0.072,0.316,-5.337
0.280,0.067,0.314,-5.337
0.262,0.069,0.314,-5.337
0.168,0.066,0.314,-5.337
0.125,0.066,0.317,-5.337
0.171,0.066,0.319,-5.337
0.208,0.066,0.320,-5.337
0.207,0.065,0.322,-5.337
0.162,0.069,0.321,-5.337
0.142,0.068,0.317,-5.337
0.178,0.065,0.312,-5.337
0.231,0.065,0.312,-5.337
0.167,0.069,0.310,-5.337
0.175,0.064,0.312,-5.337
0.220,0.063,0.314,-5.337
0.230,0.066,0.318,-5.337
0.186,0.066,0.318,-5.337
0.199,0.068,0.316,-5.337
0.200,0.068,0.314,-5.337
0.214,0.067,0.312,-5.337
0.238,0.066,0.310,-5.337
0.192,0.065,0.312,-5.337
0.194,0.063,0.312,-5.337
0.149,0.063,0.313,-5.337
0.182,0.066,0.315,-5.337
0.240,0.070,0.314,-5.337
0.242,0.069,0.316,-5.337
0.164,0.070,0.314,-5.337
0.106,0.067,0.315,-5.337
0.167,0.066,0.316,-5.337
0.213,0.065,0.313,-5.337
0.162,0.065,0.312,-5.337
0.183,0.063,0.316,-5.337
0.233,0.063,0.315,-5.337
0.167,0.065,0.311,-5.337
0.086,0.067,0.307,-5.337
0.082,0.068,0.308,-5.337
0.154,0.069,0.307,-5.337
0.136,0.069,0.308,-5.337
0.128,0.063,0.308,-5.337
0.189,0.061,0.312,-5.337
0.226,0.062,0.315,-5.337
0.217,0.061,0.318,-5.337
0.224,0.057,0.316,-5.337
0.226,0.055,0.313,-5.337
0.169,0.056,0.308,-5.337
0.168,0.060,0.309,-5.337
0.226,0.057,0.311,-5.337
0.237,0.054,0.313,-5.337
0.197,0.052,0.311,-5.337
0.141,0.055,0.311,-5.337
0.163,0.057,0.313,-5.337
0.195,0.060,0.310,-5.337
0.162,0.057,0.305,-5.337
0.141,0.054,0.307,-5.337
0.169,0.052,0.314,-5.337
0.250,0.052,0.318,-5.337
0.284,0.054,0.315,-5.337
0.228,0.051,0.309,-5.337
0.163,0.050,0.306,-5.337
0.167,0.055,0.304,-5.337
0.200,0.055,0.308,-5.337
0.180,0.054,0.308,-5.337
0.148,0.055,0.309,-5.337
0.149,0.056,0.308,-5.337
0.165,0.058,0.310,-5.337
0.173,0.057,0.310,-5.337
0.131,0.053,0.313,-5.337
0.128,0.049,0.313,-5.337
0.123,0.054,0.312,-5.337
0.099,0.056,0.309,-5.337
0.097,0.054,0.305,-5.337
0.120,0.050,0.305,-5.337
0.184,0.053,0.311,-5.337
0.178,0.055,0.313,-5.337
0.161,0.055,0.311,-5.337
0.161,0.055,0.306,-5.337
0.112,0.058,0.305,-5.337
0.160,0.059,0.307,-5.337
0.175,0.058,0.307,-5.337
0.159,0.056,0.306,-5.337
0.144,0.056,0.309,-5.337
0.141,0.053,0.312,-5.337
0.137,0.055,0.311,-5.337
0.113,0.054,0.309,-5.337
0.124,0.053,0.307,-5.337
0.171,0.054,0.307,-5.337
0.173,0.055,0.308,-5.337
0.113,0.059,0.308,-5.337
0.143,0.054,0.308,-5.337
0.217,0.052,0.307,-5.337
0.187,0.048,0.307,-5.337
0.120,0.049,0.305,-5.337
0.133,0.052,0.306,-5.337
0.163,0.052,0.307,-5.337
0.143,0.052,0.309,-5.337
0.169,0.049,0.308,-5.337
0.220,0.049,0.307,-5.337
0.183,0.049,0.305,-5.337
0.151,0.051,0.307,-5.337
0.141,0.053,0.308,-5.337
0.090,0.055,0.309,-5.337
0.145,0.051,0.308,-5.337
0.217,0.049,0.306,-5.337
0.191,0.051,0.306,-5.337
0.149,0.052,0.305,-5.337
0.083,0.051,0.304,-5.337
0.106,0.047,0.305,-5.337
0.177,0.047,0.306,-5.337
0.205,0.049,0.308,-5.337
0.141,0.048,0.306,-5.337
0.122,0.044,0.305,-5.337
0.190,0.040,0.305,-5.337
0.186,0.042,0.304,-5.337
0.115,0.043,0.303,-5.337
0.064,0.043,0.305,-5.337
0.101,0.040,0.306,-5.337
0.120,0.040,0.309,-5.337
0.158,0.039,0.308,-5.337
0.169,0.040,0.305,-5.337
0.146,0.042,0.305,-5.337
0.150,0.042,0.307,-5.337
0.125,0.041,0.307,-5.337
0.101,0.041,0.304,-5.337
0.117,0.043,0.303,-5.337
0.171,0.043,0.304,-5.337
0.146,0.042,0.307,-5.337
0.076,0.043,0.305,-5.337
0.127,0.042,0.305,-5.337
0.179,0.046,0.305,-5.337
0.127,0.048,0.305,-5.337
0.067,0.048,0.306,-5.337
0.048,0.045,0.308,-5.337
0.082,0.046,0.305,-5.337
0.170,0.048,0.302,-5.337
0.182,0.045,0.301,-5.337
0.149,0.042,0.303,-5.337
0.086,0.041,0.306,-5.337
0.100,0.042,0.306,-5.337
0.136,0.043,0.304,-5.337
0.162,0.040,0.302,-5.337
0.143,0.038,0.300,-5.337
0.134,0.042,0.302,-5.337
0.077,0.045,0.306,-5.337
0.117,0.043,0.311,-5.337
0.063,0.042,0.308,-5.337
0.097,0.042,0.307,-5.337
0.158,0.044,0.307,-5.337
0.105,0.042,0.306,-5.337
0.036,0.043,0.304,-5.337
0.052,0.039,0.304,-5.337
0.143,0.036,0.302,-5.337
0.130,0.039,0.299,-5.337
0.164,0.043,0.302,-5.337
0.120,0.043,0.306,-5.337
0.137,0.043,0.310,-5.337
0.136,0.040,0.306,-5.337
0.109,0.042,0.303,-5.337
0.132,0.041,0.299,-5.337
0.190,0.038,0.298,-5.337
0.192,0.040,0.300,-5.337
0.132,0.043,0.302,-5.337
0.119,0.042,0.303,-5.337
0.166,0.039,0.302,-5.337
0.158,0.037,0.301,-5.337
0.086,0.037,0.305,-5.337
0.045,0.040,0.308,-5.337
0.137,0.037,0.305,-5.337
0.204,0.036,0.301,-5.337
0.147,0.037,0.300,-5.337
0.064,0.036,0.298,-5.337
0.056,0.035,0.297,-5.337
0.102,0.035,0.301,-5.337
0.093,0.035,0.304,-5.337
0.104,0.036,0.304,-5.337
0.087,0.040,0.302,-5.337
0.077,0.039,0.300,-5.337
0.099,0.037,0.303,-5.337
0.131,0.039,0.307,-5.337
0.166,0.037,0.303,-5.337
0.134,0.040,0.297,-5.337
0.101,0.040,0.295,-5.337
0.106,0.041,0.296,-5.337
0.135,0.040,0.305,-5.337
0.167,0.039,0.307,-5.337
0.179,0.037,0.303,-5.337
0.179,0.037,0.302,-5.337
0.160,0.038,0.304,-5.337
0.193,0.037,0.302,-5.337
0.154,0.036,0.298,-5.337
0.113,0.033,0.298,-5.337
0.145,0.030,0.299,-5.337
0.229,0.030,0.303,-5.337
0.243,0.029,0.304,-5.337
0.221,0.031,0.303,-5.337
0.140,0.035,0.306,-5.337
0.177,0.036,0.301,-5.337
0.218,0.035,0.296,-5.337
0.150,0.032,0.294,-5.337
0.104,0.030,0.295,-5.337
0.159,0.031,0.296,-5.337
0.169,0.031,0.300,-5.337
0.139,0.034,0.303,-5.337
0.112,0.035,0.304,-5.337
0.065,0.031,0.303,-5.337
0.061,0.031,0.303,-5.337
0.085,0.033,0.302,-5.337
0.180,0.034,0.301,-5.337
0.201,0.035,0.301,-5.337
0.142,0.037,0.303,-5.337
0.091,0.041,0.298,-5.337
0.094,0.041,0.297,-5.337
0.148,0.036,0.301,-5.337
0.209,0.033,0.304,-5.337
0.157,0.033,0.305,-5.337
0.123,0.035,0.303,-5.337
0.198,0.038,0.309,-5.337
0.187,0.040,0.309,-5.337
0.133,0.039,0.306,-5.337
0.097,0.037,0.303,-5.337
0.164,0.032,0.300,-5.337
0.180,0.032,0.298,-5.337
0.115,0.038,0.303,-5.337
0.068,0.040,0.304,-5.337
0.123,0.036,0.302,-5.337
0.135,0.034,0.300,-5.337
0.142,0.032,0.302,-5.337
0.178,0.031,0.302,-5.337
0.127,0.032,0.303,-5.337
0.065,0.031,0.301,-5.337
0.101,0.034,0.300,-5.337
0.168,0.032,0.299,-5.337
0.225,0.034,0.300,-5.337
0.167,0.040,0.302,-5.337
0.184,0.037,0.304,-5.337
0.184,0.035,0.304,-5.337
0.114,0.042,0.300,-5.337
0.097,0.043,0.296,-5.337
0.134,0.042,0.295,-5.337
0.144,0.038,0.299,-5.337
0.164,0.034,0.298,-5.337
0.192,0.033,0.302,-5.337
0.157,0.032,0.302,-5.337
0.101,0.032,0.304,-5.337
0.108,0.031,0.306,-5.337
0.083,0.028,0.306,-5.337
-0.007,0.026,0.303,-5.337
0.044,0.029,0.305,-5.337
0.134,0.029,0.304,-5.337
0.155,0.031,0.301,-5.337
0.118,0.029,0.298,-5.337
0.167,0.029,0.297,-5.337
0.175,0.032,0.299,-5.337
0.171,0.035,0.300,-5.337
0.145,0.030,0.301,-5.337
0.085,0.035,0.304,-5.337
0.047,0.038,0.309,-5.337
0.104,0.035,0.310,-5.337
0.115,0.033,0.305,-5.337
0.050,0.036,0.302,-5.337
0.043,0.035,0.301,-5.337
0.080,0.030,0.299,-5.337
0.167,0.029,0.299,-5.337
0.226,0.031,0.299,-5.337
0.206,0.030,0.299,-5.337
0.147,0.029,0.299,-5.337
0.147,0.027,0.301,-5.337
0.176,0.024,0.303,-5.337
0.118,0.029,0.306,-5.337
0.103,0.029,0.302,-5.337
0.094,0.032,0.300,-5.337
0.115,0.034,0.300,-5.337
0.125,0.036,0.301,-5.337
0.177,0.033,0.300,-5.337
0.156,0.034,0.301,-5.337
0.110,0.036,0.300,-5.337
0.141,0.036,0.301,-5.337
0.265,0.034,0.302,-5.337
0.300,0.035,0.299,-5.337
0.240,0.035,0.296,-5.337
0.244,0.035,0.302,-5.337
0.276,0.033,0.304,-5.337
0.165,0.038,0.305,-5.337
0.083,0.040,0.305,-5.337
0.128,0.040,0.301,-5.337
0.222,0.038,0.301,-5.337
0.146,0.038,0.304,-5.337
0.157,0.038,0.307,-5.337
0.172,0.038,0.305,-5.337
0.148,0.040,0.304,-5.337
0.157,0.038,0.302,-5.337
0.184,0.036,0.302,-5.337
0.177,0.041,0.299,-5.337
0.182,0.042,0.299,-5.337
0.184,0.041,0.300,-5.337
0.184,0.042,0.299,-5.337
0.167,0.043,0.299,-5.337
0.140,0.043,0.300,-5.337
0.176,0.042,0.303,-5.337
0.242,0.041,0.304,-5.337
0.201,0.042,0.305,-5.337
0.118,0.044,0.306,-5.337
0.111,0.046,0.305,-5.337
0.151,0.045,0.303,-5.337
0.145,0.045,0.300,-5.337
0.117,0.047,0.297,-5.337
0.109,0.044,0.296,-5.337
0.130,0.040,0.297,-5.337
0.212,0.039,0.303,-5.337
0.201,0.043,0.305,-5.337
0.158,0.045,0.304,-5.337
0.116,0.045,0.300,-5.337
0.096,0.042,0.300,-5.337
0.146,0.038,0.300,-5.337
0.174,0.040,0.300,-5.337
0.212,0.042,0.299,-5.337
0.227,0.045,0.301,-5.337
0.147,0.046,0.301,-5.337
0.128,0.043,0.302,-5.337
0.116,0.041,0.300,-5.337
0.130,0.039,0.297,-5.337
0.172,0.038,0.299,-5.337
0.123,0.038,0.303,-5.337
0.083,0.039,0.304,-5.337
0.118,0.041,0.306,-5.337
0.137,0.041,0.305,-5.337
0.147,0.043,0.301,-5.337
0.186,0.039,0.296,-5.337
0.231,0.039,0.297,-5.337
0.182,0.039,0.301,-5.337
0.087,0.046,0.303,-5.337
0.097,0.049,0.303,-5.337
0.122,0.048,0.301,-5.337
0.136,0.048,0.300,-5.337
0.186,0.045,0.298,-5.337
0.213,0.046,0.298,-5.337
0.202,0.046,0.299,-5.337
0.181,0.049,0.303,-5.337
0.103,0.051,0.302,-5.337
0.118,0.049,0.299,-5.337
0.174,0.046,0.298,-5.337
0.118,0.049,0.297,-5.337
0.074,0.048,0.297,-5.337
0.125,0.046,0.298,-5.337
0.186,0.047,0.300,-5.337
0.182,0.047,0.303,-5.337
0.167,0.042,0.302,-5.337
0.185,0.043,0.303,-5.337
0.184,0.045,0.302,-5.337
0.195,0.046,0.301,-5.337
0.281,0.042,0.305,-5.337
0.287,0.043,0.306,-5.337
0.255,0.038,0.308,-5.337
0.199,0.035,0.302,-5.337
0.161,0.037,0.298,-5.337
0.178,0.040,0.297,-5.337
0.183,0.038,0.299,-5.337
0.228,0.037,0.297,-5.337
0.239,0.037,0.297,-5.337
0.232,0.038,0.295,-5.337
0.169,0.044,0.299,-5.337
0.149,0.044,0.300,-5.337
0.122,0.045,0.298,-5.337
0.079,0.046,0.300,-5.337
0.114,0.046,0.305,-5.337
0.199,0.044,0.306,-5.337
0.211,0.042,0.305,-5.337
0.196,0.046,0.302,-5.337
0.164,0.048,0.298,-5.337
0.160,0.050,0.298,-5.337
0.207,0.050,0.298,-5.337
0.245,0.050,0.301,-5.337
0.241,0.049,0.304,-5.337
0.232,0.049,0.304,-5.337
0.222,0.047,0.301,-5.337
0.202,0.048,0.302,-5.337
0.269,0.046,0.299,-5.337
0.333,0.047,0.299,-5.337
0.292,0.050,0.301,-5.337
0.203,0.050,0.300,-5.337
0.194,0.045,0.299,-5.337
0.171,0.045,0.299,-5.337
0.143,0.048,0.303,-5.337
0.176,0.049,0.300,-5.337
0.130,0.051,0.298,-5.337
0.140,0.050,0.303,-5.337
0.149,0.049,0.305,-5.337
0.195,0.051,0.306,-5.337
0.217,0.049,0.306,-5.337
0.217,0.051,0.301,-5.337
0.183,0.047,0.297,-5.337
0.224,0.044,0.297,-5.337
0.275,0.046,0.299,-5.337
0.240,0.050,0.302,-5.337
0.202,0.052,0.300,-5.337
0.207,0.053,0.298,-5.337
0.181,0.050,0.301,-5.337
0.143,0.048,0.301,-5.337
0.172,0.046,0.299,-5.337
0.212,0.044,0.301,-5.337
0.187,0.040,0.306,-5.337
0.206,0.041,0.304,-5.337
0.242,0.045,0.301,-5.337
0.211,0.048,0.298,-5.337
0.207,0.046,0.303,-5.337
0.254,0.045,0.305,-5.337
0.267,0.044,0.303,-5.337
0.315,0.044,0.299,-5.337
0.274,0.049,0.297,-5.337
0.220,0.049,0.294,-5.337
0.213,0.048,0.293,-5.337
0.217,0.050,0.295,-5.337
0.241,0.050,0.300,-5.337
0.287,0.048,0.304,-5.337
0.249,0.048,0.301,-5.337
0.161,0.049,0.299,-5.337
0.157,0.051,0.301,-5.337
0.170,0.052,0.304,-5.337
0.187,0.051,0.305,-5.337
0.186,0.052,0.305,-5.337
0.166,0.052,0.302,-5.337
0.110,0.053,0.301,-5.337
0.099,0.054,0.300,-5.337
0.191,0.053,0.300,-5.337
0.231,0.053,0.298,-5.337
0.238,0.047,0.298,-5.337
0.226,0.045,0.300,-5.337
0.159,0.051,0.302,-5.337
0.153,0.051,0.298,-5.337
0.233,0.052,0.297,-5.337
0.243,0.055,0.295,-5.337
0.192,0.055,0.295,-5.337
0.213,0.052,0.298,-5.337
0.255,0.049,0.301,-5.337
0.273,0.047,0.301,-5.337
0.210,0.048,0.302,-5.337
0.195,0.048,0.304,-5.337
0.224,0.047,0.302,-5.337
0.230,0.049,0.301,-5.337
0.262,0.050,0.300,-5.337
0.273,0.046,0.299,-5.337
0.223,0.047,0.304,-5.337
0.156,0.050,0.304,-5.337
0.195,0.048,0.298,-5.337
0.168,0.050,0.297,-5.337
0.176,0.045,0.300,-5.337
0.224,0.044,0.304,-5.337
0.200,0.047,0.304,-5.337
0.200,0.047,0.301,-5.337
0.237,0.048,0.299,-5.337
0.213,0.047,0.301,-5.337
0.192,0.051,0.299,-5.337
0.191,0.051,0.298,-5.337
0.280,0.044,0.298,-5.337
0.360,0.046,0.297,-5.337
0.314,0.047,0.301,-5.337
0.247,0.048,0.302,-5.337
0.167,0.053,0.301,-5.337
0.120,0.054,0.300,-5.337
0.180,0.053,0.300,-5.337
0.248,0.053,0.301,-5.337
0.250,0.052,0.303,-5.337
0.193,0.054,0.304,-5.337
0.198,0.051,0.303,-5.337
0.231,0.045,0.301,-5.337
0.201,0.046,0.301,-5.337
0.161,0.050,0.301,-5.337
0.172,0.049,0.301,-5.337
0.142,0.047,0.302,-5.337
0.149,0.047,0.304,-5.337
0.168,0.047,0.301,-5.337
0.150,0.050,0.303,-5.337
0.174,0.049,0.298,-5.337
0.236,0.051,0.296,-5.337
0.228,0.055,0.297,-5.337
0.228,0.055,0.299,-5.337
0.259,0.053,0.301,-5.337
0.218,0.054,0.301,-5.337
0.245,0.047,0.298,-5.337
0.237,0.049,0.297,-5.337
0.171,0.055,0.300,-5.337
0.155,0.057,0.305,-5.337
0.205,0.055,0.310,-5.337
0.191,0.053,0.310,-5.337
0.159,0.056,0.305,-5.337
0.185,0.058,0.301,-5.337
0.172,0.057,0.298,-5.337
0.126,0.054,0.296,-5.337
0.084,0.054,0.297,-5.337
0.089,0.056,0.302,-5.337
0.195,0.057,0.310,-5.337
0.263,0.056,0.314,-5.337
0.241,0.054,0.312,-5.337
0.237,0.056,0.307,-5.337
0.195,0.057,0.303,-5.337
0.200,0.056,0.298,-5.337
0.222,0.057,0.295,-5.337
0.284,0.056,0.294,-5.337
0.217,0.056,0.294,-5.337
0.138,0.055,0.297,-5.337
0.152,0.056,0.302,-5.337
0.217,0.057,0.301,-5.337
0.253,0.056,0.300,-5.337
0.187,0.055,0.304,-5.337
0.167,0.055,0.306,-5.337
0.199,0.054,0.304,-5.337
0.258,0.053,0.301,-5.337
0.248,0.057,0.300,-5.337
0.169,0.059,0.301,-5.337
0.176,0.056,0.302,-5.337
0.199,0.059,0.304,-5.337
0.189,0.058,0.305,-5.337
0.173,0.055,0.302,-5.337
0.187,0.053,0.299,-5.337
0.230,0.055,0.298,-5.337
0.188,0.060,0.300,-5.337
0.109,0.059,0.297,-5.337
0.120,0.055,0.300,-5.337
0.159,0.052,0.302,-5.337
0.220,0.050,0.304,-5.337
0.227,0.051,0.301,-5.337
0.221,0.052,0.300,-5.337
0.206,0.055,0.300,-5.337
0.185,0.053,0.304,-5.337
0.216,0.048,0.309,-5.337
0.250,0.048,0.308,-5.337
0.224,0.051,0.304,-5.337
0.197,0.047,0.303,-5.337
0.234,0.043,0.302,-5.337
0.222,0.048,0.300,-5.337
0.206,0.047,0.299,-5.337
0.207,0.047,0.303,-5.337
0.222,0.045,0.304,-5.337
0.200,0.045,0.302,-5.337
0.181,0.048,0.299,-5.337
0.235,0.047,0.301,-5.337
0.243,0.048,0.307,-5.337
0.151,0.053,0.307,-5.337
0.141,0.057,0.304,-5.337
0.163,0.049,0.304,-5.337
0.184,0.043,0.305,-5.337
0.208,0.041,0.301,-5.337
0.136,0.044,0.297,-5.337
0.181,0.047,0.297,-5.337
0.237,0.048,0.303,-5.337
0.204,0.047,0.302,-5.337
0.209,0.047,0.301,-5.337
0.244,0.046,0.300,-5.337
0.202,0.052,0.298,-5.337
0.143,0.054,0.296,-5.337
0.118,0.051,0.301,-5.337
0.167,0.052,0.303,-5.337
0.198,0.055,0.305,-5.337
0.197,0.050,0.305,-5.337
0.284,0.044,0.303,-5.337
0.297,0.047,0.299,-5.337
0.189,0.050,0.300,-5.337
0.108,0.053,0.302,-5.337
0.179,0.051,0.300,-5.337
0.224,0.049,0.299,-5.337
0.223,0.049,0.300,-5.337
0.207,0.048,0.303,-5.337
0.240,0.044,0.304,-5.337
0.221,0.046,0.303,-5.337
0.156,0.046,0.300,-5.337
0.223,0.046,0.302,-5.337
0.283,0.047,0.302,-5.337
0.247,0.048,0.303,-5.337
0.171,0.051,0.302,-5.337
0.176,0.051,0.298,-5.337
0.141,0.051,0.297,-5.337
0.117,0.052,0.301,-5.337
0.152,0.050,0.300,-5.337
0.212,0.047,0.300,-5.337
0.218,0.047,0.302,-5.337
0.178,0.049,0.304,-5.337
0.107,0.050,0.304,-5.337
0.132,0.048,0.302,-5.337
0.226,0.050,0.298,-5.337
0.212,0.054,0.301,-5.337
0.187,0.052,0.303,-5.337
0.152,0.052,0.302,-5.337
0.138,0.049,0.301,-5.337
0.159,0.050,0.300,-5.337
0.212,0.049,0.302,-5.337
0.196,0.048,0.302,-5.337
0.167,0.048,0.303,-5.337
0.149,0.047,0.304,-5.337
0.167,0.046,0.302,-5.337
0.144,0.047,0.296,-5.337
0.169,0.047,0.298,-5.337
0.245,0.047,0.303,-5.337
0.228,0.049,0.304,-5.337
0.176,0.049,0.304,-5.337
0.159,0.048,0.300,-5.337
0.173,0.046,0.298,-5.337
0.180,0.049,0.297,-5.337
0.179,0.051,0.298,-5.337
0.205,0.051,0.302,-5.337
0.177,0.049,0.303,-5.337
0.208,0.048,0.303,-5.337
0.260,0.045,0.302,-5.337
0.234,0.048,0.300,-5.337
0.162,0.050,0.302,-5.337
0.168,0.050,0.301,-5.337
0.163,0.049,0.299,-5.337
0.136,0.052,0.297,-5.337
0.137,0.050,0.302,-5.337
0.225,0.046,0.301,-5.337
0.239,0.044,0.301,-5.337
0.224,0.044,0.299,-5.337
0.224,0.045,0.304,-5.337
0.205,0.045,0.304,-5.337
0.186,0.044,0.306,-5.337
0.241,0.041,0.304,-5.337
0.231,0.043,0.305,-5.337
0.163,0.042,0.303,-5.337
0.139,0.043,0.299,-5.337
0.145,0.041,0.298,-5.337
0.212,0.042,0.298,-5.337
0.164,0.048,0.297,-5.337
0.143,0.048,0.298,-5.337
0.121,0.050,0.298,-5.337
0.138,0.045,0.295,-5.337
0.180,0.045,0.299,-5.337
0.161,0.045,0.302,-5.337
0.111,0.044,0.303,-5.337
0.085,0.044,0.299,-5.337
0.101,0.045,0.298,-5.337
0.163,0.043,0.299,-5.337
0.192,0.042,0.302,-5.337
0.169,0.041,0.304,-5.337
0.134,0.043,0.301,-5.337
0.136,0.045,0.294,-5.337
0.140,0.045,0.293,-5.337
0.157,0.042,0.298,-5.337
0.188,0.042,0.303,-5.337
0.149,0.044,0.305,-5.337
0.090,0.042,0.307,-5.337
0.077,0.042,0.305,-5.337
0.077,0.044,0.302,-5.337
0.108,0.043,0.300,-5.337
0.111,0.043,0.299,-5.337
0.096,0.045,0.296,-5.337
0.061,0.044,0.298,-5.337
0.140,0.039,0.302,-5.337
0.211,0.036,0.305,-5.337
0.216,0.036,0.304,-5.337
0.243,0.041,0.302,-5.337
0.171,0.044,0.299,-5.337
0.143,0.040,0.296,-5.337
0.141,0.039,0.300,-5.337
0.139,0.040,0.303,-5.337
0.176,0.038,0.303,-5.337
0.222,0.037,0.297,-5.337
0.167,0.041,0.295,-5.337
0.120,0.039,0.296,-5.337
0.148,0.044,0.297,-5.337
0.124,0.042,0.298,-5.337
0.079,0.041,0.302,-5.337
0.149,0.041,0.304,-5.337
0.232,0.040,0.307,-5.337
0.182,0.041,0.307,-5.337
0.097,0.042,0.304,-5.337
0.077,0.042,0.301,-5.337
0.145,0.044,0.299,-5.337
0.148,0.045,0.298,-5.337
0.137,0.041,0.298,-5.337
0.184,0.039,0.299,-5.337
0.184,0.043,0.302,-5.337
0.139,0.043,0.305,-5.337
0.166,0.044,0.306,-5.337
0.183,0.045,0.302,-5.337
0.126,0.049,0.300,-5.337
0.110,0.049,0.304,-5.337
0.147,0.047,0.304,-5.337
0.197,0.046,0.302,-5.337
0.177,0.045,0.300,-5.337
0.179,0.047,0.296,-5.337
0.151,0.049,0.295,-5.337
0.134,0.047,0.300,-5.337
0.204,0.040,0.303,-5.337
0.294,0.037,0.300,-5.337
0.262,0.039,0.298,-5.337
0.146,0.045,0.298,-5.337
0.145,0.046,0.299,-5.337
0.172,0.044,0.300,-5.337
0.166,0.043,0.298,-5.337
0.179,0.043,0.298,-5.337
0.176,0.040,0.299,-5.337
0.166,0.038,0.300,-5.337
0.195,0.040,0.303,-5.337
0.213,0.044,0.303,-5.337
0.195,0.043,0.300,-5.337
0.165,0.042,0.296,-5.337
0.125,0.042,0.300,-5.337
0.175,0.042,0.305,-5.337
0.214,0.040,0.305,-5.337
0.173,0.043,0.299,-5.337
0.124,0.046,0.301,-5.337
0.138,0.042,0.303,-5.337
0.173,0.040,0.304,-5.337
0.197,0.042,0.299,-5.337
0.160,0.043,0.298,-5.337
0.088,0.045,0.298,-5.337
0.090,0.047,0.299,-5.337
0.153,0.044,0.297,-5.337
0.185,0.042,0.296,-5.337
0.189,0.039,0.297,-5.337
0.162,0.039,0.300,-5.337
0.187,0.038,0.301,-5.337
0.218,0.038,0.297,-5.337
0.195,0.042,0.297,-5.337
0.175,0.043,0.300,-5.337
0.175,0.041,0.300,-5.337
0.151,0.041,0.298,-5.337
0.100,0.043,0.297,-5.337
0.095,0.042,0.296,-5.337
0.079,0.046,0.294,-5.337
0.096,0.047,0.295,-5.337
0.149,0.043,0.300,-5.337
0.191,0.039,0.304,-5.337
0.193,0.040,0.303,-5.337
0.219,0.040,0.300,-5.337
0.229,0.042,0.301,-5.337
0.224,0.042,0.300,-5.337
0.209,0.042,0.300,-5.337
0.154,0.044,0.303,-5.337
0.144,0.044,0.308,-5.337
0.122,0.043,0.305,-5.337
0.117,0.043,0.298,-5.337
0.215,0.035,0.294,-5.337
0.293,0.036,0.297,-5.337
0.198,0.042,0.302,-5.337
0.137,0.042,0.305,-5.337
0.210,0.040,0.304,-5.337
0.222,0.041,0.300,-5.337
0.229,0.041,0.298,-5.337
0.182,0.044,0.298,-5.337
0.140,0.046,0.300,-5.337
0.142,0.048,0.299,-5.337
0.137,0.047,0.299,-5.337
0.128,0.046,0.301,-5.337
0.175,0.045,0.300,-5.337
0.186,0.048,0.296,-5.337
0.142,0.049,0.299,-5.337
0.154,0.048,0.297,-5.337
0.209,0.043,0.296,-5.337
0.195,0.041,0.295,-5.337
0.197,0.047,0.294,-5.337
0.205,0.049,0.297,-5.337
0.168,0.053,0.303,-5.337
0.153,0.053,0.305,-5.337
0.184,0.049,0.306,-5.337
0.185,0.046,0.306,-5.337
0.204,0.044,0.304,-5.337
0.192,0.045,0.301,-5.337
0.223,0.044,0.302,-5.337
0.234,0.045,0.303,-5.337
0.259,0.047,0.304,-5.337
0.254,0.048,0.301,-5.337
0.208,0.048,0.297,-5.337
0.189,0.044,0.297,-5.337
0.209,0.042,0.297,-5.337
0.225,0.041,0.300,-5.337
0.187,0.043,0.301,-5.337
0.180,0.044,0.301,-5.337
0.210,0.044,0.299,-5.337
0.204,0.047,0.297,-5.337
0.117,0.050,0.294,-5.337
0.124,0.053,0.297,-5.337
0.157,0.051,0.298,-5.337
0.128,0.050,0.298,-5.337
0.117,0.051,0.298,-5.337
0.135,0.051,0.300,-5.337
0.101,0.051,0.304,-5.337
0.150,0.050,0.302,-5.337
0.149,0.052,0.296,-5.337
0.148,0.051,0.296,-5.337
0.106,0.048,0.298,-5.337
0.085,0.047,0.303,-5.337
0.133,0.049,0.304,-5.337
0.168,0.052,0.302,-5.337
0.152,0.051,0.304,-5.337
0.147,0.050,0.304,-5.337
0.184,0.047,0.298,-5.337
0.173,0.050,0.297,-5.337
0.146,0.050,0.301,-5.337
0.197,0.045,0.300,-5.337
0.199,0.044,0.297,-5.337
0.189,0.046,0.295,-5.337
0.134,0.051,0.297,-5.337
0.087,0.051,0.302,-5.337
0.135,0.049,0.301,-5.337
0.146,0.050,0.300,-5.337
0.196,0.051,0.299,-5.337
0.231,0.049,0.300,-5.337
0.220,0.049,0.302,-5.337
0.237,0.051,0.300,-5.337
0.217,0.053,0.295,-5.337
0.230,0.053,0.295,-5.337
0.207,0.052,0.296,-5.337
0.232,0.051,0.298,-5.337
0.224,0.054,0.301,-5.337
0.206,0.054,0.301,-5.337
0.234,0.054,0.301,-5.337
0.175,0.055,0.303,-5.337
0.112,0.054,0.300,-5.337
0.094,0.054,0.300,-5.337
0.117,0.052,0.301,-5.337
0.185,0.051,0.301,-5.337
0.172,0.053,0.301,-5.337
0.172,0.053,0.303,-5.337
0.221,0.051,0.302,-5.337
0.272,0.050,0.303,-5.337
0.231,0.053,0.301,-5.337
0.155,0.059,0.300,-5.337
0.137,0.057,0.299,-5.337
0.167,0.056,0.302,-5.337
0.179,0.056,0.305,-5.337
0.191,0.057,0.303,-5.337
0.231,0.056,0.300,-5.337
0.218,0.058,0.296,-5.337
0.163,0.057,0.296,-5.337
0.180,0.058,0.298,-5.337
0.182,0.058,0.298,-5.337
0.157,0.056,0.301,-5.337
0.209,0.054,0.302,-5.337
0.247,0.056,0.300,-5.337
0.266,0.057,0.296,-5.337
0.248,0.055,0.297,-5.337
0.179,0.056,0.297,-5.337
0.146,0.058,0.300,-5.337
0.180,0.055,0.304,-5.337
0.255,0.057,0.302,-5.337
0.221,0.060,0.304,-5.337
0.211,0.060,0.300,-5.337
0.234,0.061,0.297,-5.337
0.243,0.060,0.296,-5.337
0.269,0.060,0.299,-5.337
0.233,0.062,0.302,-5.337
0.124,0.063,0.306,-5.337
0.140,0.057,0.307,-5.337
0.280,0.055,0.306,-5.337
0.271,0.057,0.304,-5.337
0.207,0.059,0.303,-5.337
0.204,0.056,0.301,-5.337
0.284,0.057,0.296,-5.337
0.280,0.055,0.295,-5.337
0.168,0.058,0.299,-5.337
0.106,0.060,0.302,-5.337
0.151,0.056,0.303,-5.337
0.172,0.059,0.303,-5.337
0.210,0.058,0.305,-5.337
0.237,0.058,0.303,-5.337
0.234,0.058,0.296,-5.337
0.151,0.059,0.295,-5.337
0.126,0.056,0.299,-5.337
0.191,0.055,0.299,-5.337
0.215,0.055,0.298,-5.337
0.237,0.058,0.300,-5.337
0.255,0.058,0.302,-5.337
0.230,0.057,0.303,-5.337
0.175,0.060,0.299,-5.337
0.175,0.062,0.295,-5.337
0.245,0.059,0.293,-5.337
0.263,0.060,0.295,-5.337
0.244,0.060,0.297,-5.337
0.186,0.062,0.296,-5.337
0.119,0.061,0.296,-5.337
0.126,0.065,0.297,-5.337
0.142,0.065,0.300,-5.337
0.200,0.064,0.301,-5.337
0.227,0.060,0.300,-5.337
0.246,0.061,0.299,-5.337
0.246,0.059,0.299,-5.337
0.246,0.058,0.300,-5.337
0.202,0.060,0.300,-5.337
0.164,0.060,0.297,-5.337
0.176,0.059,0.296,-5.337
0.181,0.059,0.293,-5.337
0.163,0.059,0.296,-5.337
0.209,0.054,0.302,-5.337
0.262,0.053,0.307,-5.337
0.229,0.056,0.302,-5.337
0.255,0.059,0.299,-5.337
0.235,0.060,0.296,-5.337
0.238,0.059,0.295,-5.337
0.242,0.054,0.298,-5.337
0.226,0.056,0.298,-5.337
0.219,0.056,0.295,-5.337
0.293,0.056,0.294,-5.337
0.314,0.057,0.298,-5.337
0.254,0.061,0.301,-5.337
0.184,0.062,0.301,-5.337
0.162,0.059,0.301,-5.337
0.200,0.059,0.301,-5.337
0.174,0.061,0.298,-5.337
0.151,0.063,0.296,-5.337
0.231,0.060,0.298,-5.337
0.312,0.057,0.297,-5.337
0.294,0.060,0.296,-5.337
0.232,0.062,0.297,-5.337
0.243,0.059,0.299,-5.337
0.269,0.057,0.302,-5.337
0.251,0.059,0.301,-5.337
0.252,0.060,0.301,-5.337
0.276,0.058,0.299,-5.337
0.241,0.059,0.298,-5.337
0.192,0.058,0.297,-5.337
0.250,0.059,0.297,-5.337
0.315,0.057,0.297,-5.337
0.294,0.059,0.299,-5.337
0.216,0.059,0.300,-5.337
0.178,0.063,0.303,-5.337
0.171,0.065,0.302,-5.337
0.160,0.063,0.301,-5.337
0.159,0.060,0.300,-5.337
0.184,0.062,0.296,-5.337
0.182,0.061,0.297,-5.337
0.223,0.061,0.300,-5.337
0.256,0.060,0.300,-5.337
0.220,0.063,0.300,-5.337
0.196,0.061,0.302,-5.337
0.176,0.061,0.300,-5.337
0.188,0.063,0.298,-5.337
0.246,0.062,0.294,-5.337
0.209,0.061,0.297,-5.337
0.190,0.060,0.300,-5.337
0.262,0.064,0.301,-5.337
0.303,0.062,0.302,-5.337
0.355,0.059,0.302,-5.337
0.321,0.061,0.299,-5.337
0.258,0.060,0.297,-5.337
0.178,0.063,0.298,-5.337
0.176,0.067,0.299,-5.337
0.230,0.067,0.300,-5.337
0.215,0.064,0.299,-5.337
0.216,0.060,0.298,-5.337
0.244,0.067,0.296,-5.337
0.188,0.073,0.295,-5.337
0.180,0.069,0.295,-5.337
0.199,0.065,0.299,-5.337
0.147,0.069,0.301,-5.337
0.130,0.072,0.299,-5.337
0.133,0.070,0.296,-5.337
0.174,0.063,0.295,-5.337
0.237,0.065,0.295,-5.337
0.296,0.068,0.303,-5.337
0.281,0.067,0.307,-5.337
0.245,0.065,0.307,-5.337
0.243,0.066,0.301,-5.337
0.191,0.069,0.296,-5.337
0.145,0.071,0.296,-5.337
0.204,0.072,0.298,-5.337
0.320,0.066,0.298,-5.337
0.261,0.068,0.301,-5.337
0.164,0.068,0.298,-5.337
0.151,0.070,0.292,-5.337
0.178,0.067,0.293,-5.337
0.283,0.065,0.297,-5.337
0.315,0.063,0.300,-5.337
0.255,0.066,0.301,-5.337
0.241,0.065,0.300,-5.337
0.256,0.065,0.302,-5.337
0.268,0.063,0.302,-5.337
0.229,0.063,0.297,-5.337
0.150,0.064,0.296,-5.337
0.139,0.064,0.296,-5.337
0.189,0.064,0.299,-5.337
0.239,0.059,0.298,-5.337
0.246,0.061,0.295,-5.337
0.226,0.061,0.294,-5.337
0.268,0.059,0.296,-5.337
0.253,0.059,0.298,-5.337
0.281,0.059,0.300,-5.337
0.281,0.060,0.298,-5.337
0.276,0.060,0.296,-5.337
0.289,0.061,0.296,-5.337
0.217,0.063,0.300,-5.337
0.177,0.063,0.302,-5.337
0.249,0.061,0.301,-5.337
0.294,0.062,0.295,-5.337
0.234,0.066,0.290,-5.337
0.253,0.063,0.292,-5.337
0.284,0.062,0.299,-5.337
0.245,0.066,0.303,-5.337
0.255,0.071,0.304,-5.337
0.212,0.069,0.304,-5.337
0.207,0.065,0.299,-5.337
0.206,0.064,0.296,-5.337
0.254,0.066,0.296,-5.337
0.297,0.067,0.299,-5.337
0.206,0.069,0.299,-5.337
0.137,0.068,0.300,-5.337
0.148,0.068,0.299,-5.337
0.192,0.066,0.294,-5.337
0.200,0.067,0.293,-5.337
0.229,0.064,0.297,-5.337
0.219,0.066,0.297,-5.337
0.192,0.068,0.296,-5.337
0.198,0.064,0.295,-5.337
0.227,0.064,0.296,-5.337
0.180,0.065,0.298,-5.337
0.172,0.069,0.297,-5.337
0.191,0.069,0.296,-5.337
0.196,0.067,0.299,-5.337
0.220,0.062,0.301,-5.337
0.214,0.064,0.301,-5.337
0.192,0.064,0.297,-5.337
0.229,0.060,0.298,-5.337
0.236,0.060,0.300,-5.337
0.202,0.063,0.299,-5.337
0.185,0.061,0.297,-5.337
0.189,0.060,0.297,-5.337
0.223,0.060,0.299,-5.337
0.195,0.065,0.301,-5.337
0.183,0.067,0.303,-5.337
0.217,0.065,0.299,-5.337
0.256,0.065,0.300,-5.337
0.196,0.067,0.298,-5.337
0.160,0.064,0.296,-5.337
0.167,0.065,0.294,-5.337
0.207,0.066,0.299,-5.337
0.228,0.067,0.304,-5.337
0.205,0.068,0.305,-5.337
0.234,0.063,0.301,-5.337
0.203,0.061,0.300,-5.337
0.159,0.065,0.298,-5.337
0.168,0.064,0.293,-5.337
0.198,0.063,0.290,-5.337
0.259,0.060,0.293,-5.337
0.277,0.059,0.297,-5.337
0.261,0.063,0.302,-5.337
0.301,0.066,0.302,-5.337
0.271,0.065,0.298,-5.337
0.291,0.062,0.297,-5.337
0.214,0.066,0.296,-5.337
0.169,0.066,0.297,-5.337
0.196,0.065,0.296,-5.337
0.189,0.063,0.295,-5.337
0.192,0.061,0.295,-5.337
0.158,0.061,0.300,-5.337
0.124,0.063,0.301,-5.337
0.125,0.066,0.301,-5.337
0.150,0.063,0.298,-5.337
0.161,0.059,0.296,-5.337
0.145,0.060,0.296,-5.337
0.099,0.062,0.301,-5.337
0.107,0.059,0.306,-5.337
0.218,0.056,0.303,-5.337
0.244,0.057,0.299,-5.337
0.229,0.059,0.300,-5.337
0.195,0.061,0.300,-5.337
0.224,0.061,0.300,-5.337
0.222,0.061,0.300,-5.337
0.172,0.061,0.300,-5.337
0.172,0.060,0.301,-5.337
0.219,0.061,0.304,-5.337
0.320,0.055,0.299,-5.337
0.319,0.056,0.291,-5.337
0.217,0.059,0.292,-5.337
0.172,0.057,0.296,-5.337
0.170,0.055,0.299,-5.337
0.185,0.055,0.300,-5.337
0.153,0.058,0.299,-5.337
0.169,0.056,0.296,-5.337
0.210,0.057,0.302,-5.337
0.230,0.056,0.303,-5.337
0.252,0.055,0.302,-5.337
0.215,0.055,0.299,-5.337
0.212,0.054,0.299,-5.337
0.201,0.056,0.298,-5.337
0.186,0.056,0.297,-5.337
0.233,0.056,0.293,-5.337
0.232,0.056,0.291,-5.337
0.143,0.057,0.294,-5.337
0.159,0.052,0.301,-5.337
0.184,0.050,0.302,-5.337
0.166,0.055,0.299,-5.337
0.187,0.056,0.299,-5.337
0.216,0.056,0.299,-5.337
0.202,0.056,0.300,-5.337
0.147,0.054,0.302,-5.337
0.066,0.057,0.302,-5.337
0.067,0.055,0.299,-5.337
0.050,0.056,0.299,-5.337
0.085,0.054,0.297,-5.337
0.115,0.054,0.297,-5.337
0.076,0.055,0.298,-5.337
0.105,0.059,0.298,-5.337
0.210,0.054,0.295,-5.337
0.259,0.050,0.296,-5.337
0.270,0.049,0.298,-5.337
0.232,0.052,0.301,-5.337
0.149,0.053,0.302,-5.337
0.152,0.051,0.298,-5.337
0.180,0.050,0.298,-5.337
0.186,0.051,0.300,-5.337
0.145,0.053,0.300,-5.337
0.145,0.053,0.298,-5.337
0.196,0.048,0.300,-5.337
0.194,0.049,0.300,-5.337
0.152,0.048,0.301,-5.337
0.078,0.054,0.300,-5.337
0.048,0.050,0.301,-5.337
0.135,0.044,0.300,-5.337
0.215,0.049,0.301,-5.337
0.214,0.053,0.299,-5.337
0.130,0.054,0.296,-5.337
0.054,0.055,0.299,-5.337
0.100,0.054,0.302,-5.337
0.184,0.054,0.301,-5.337
0.203,0.054,0.301,-5.337
0.169,0.055,0.298,-5.337
0.163,0.053,0.296,-5.337
0.137,0.050,0.300,-5.337
0.131,0.051,0.305,-5.337
0.078,0.051,0.307,-5.337
0.110,0.048,0.305,-5.337
0.117,0.051,0.302,-5.337
0.180,0.048,0.300,-5.337
0.205,0.048,0.299,-5.337
0.176,0.050,0.299,-5.337
0.116,0.055,0.299,-5.337
0.055,0.057,0.299,-5.337
0.082,0.055,0.299,-5.337
0.116,0.055,0.297,-5.337
0.157,0.051,0.297,-5.337
0.184,0.051,0.297,-5.337
0.186,0.051,0.296,-5.337
0.205,0.046,0.293,-5.337
0.230,0.045,0.294,-5.337
0.217,0.044,0.294,-5.337
0.190,0.043,0.298,-5.337
0.132,0.044,0.300,-5.337
0.133,0.045,0.304,-5.337
0.154,0.044,0.303,-5.337
0.194,0.045,0.303,-5.337
0.272,0.044,0.300,-5.337
0.178,0.047,0.298,-5.337
0.112,0.043,0.295,-5.337
0.167,0.042,0.294,-5.337
0.230,0.041,0.295,-5.337
0.225,0.045,0.296,-5.337
0.081,0.050,0.297,-5.337
0.118,0.049,0.299,-5.337
0.215,0.049,0.297,-5.337
0.194,0.047,0.294,-5.337
0.192,0.044,0.295,-5.337
0.240,0.041,0.297,-5.337
0.224,0.042,0.298,-5.337
0.211,0.044,0.299,-5.337
0.172,0.043,0.300,-5.337
0.138,0.042,0.302,-5.337
0.126,0.043,0.303,-5.337
0.163,0.041,0.304,-5.337
0.202,0.041,0.305,-5.337
0.120,0.043,0.303,-5.337
0.114,0.042,0.303,-5.337
0.151,0.042,0.300,-5.337
0.099,0.042,0.296,-5.337
0.089,0.046,0.291,-5.337
0.101,0.042,0.292,-5.337
0.188,0.037,0.295,-5.337
0.252,0.036,0.300,-5.337
0.210,0.039,0.304,-5.337
0.209,0.041,0.304,-5.337
0.217,0.036,0.302,-5.337
0.208,0.037,0.295,-5.337
0.121,0.047,0.292,-5.337
0.069,0.047,0.293,-5.337
0.121,0.040,0.295,-5.337
0.162,0.038,0.297,-5.337
0.136,0.042,0.301,-5.337
0.134,0.045,0.301,-5.337
0.145,0.043,0.299,-5.337
0.191,0.041,0.297,-5.337
0.162,0.044,0.298,-5.337
0.134,0.047,0.299,-5.337
0.143,0.044,0.301,-5.337
0.172,0.043,0.303,-5.337
0.169,0.044,0.303,-5.337
0.161,0.046,0.300,-5.337
0.174,0.049,0.299,-5.337
0.173,0.046,0.299,-5.337
0.152,0.047,0.300,-5.337
0.150,0.050,0.300,-5.337
0.195,0.047,0.297,-5.337
0.182,0.044,0.299,-5.337
0.155,0.044,0.301,-5.337
0.185,0.045,0.302,-5.337
0.214,0.043,0.301,-5.337
0.206,0.040,0.301,-5.337
0.139,0.039,0.299,-5.337
0.081,0.042,0.298,-5.337
0.096,0.045,0.302,-5.337
0.063,0.047,0.302,-5.337
0.028,0.050,0.298,-5.337
0.098,0.045,0.293,-5.337
0.215,0.043,0.293,-5.337
0.272,0.041,0.298,-5.337
0.161,0.043,0.300,-5.337
0.073,0.045,0.300,-5.337
0.120,0.041,0.299,-5.337
0.194,0.041,0.300,-5.337
0.157,0.041,0.298,-5.337
0.183,0.038,0.295,-5.337
0.162,0.037,0.294,-5.337
0.134,0.042,0.294,-5.337
0.155,0.043,0.294,-5.337
0.170,0.043,0.301,-5.337
0.196,0.042,0.306,-5.337
0.196,0.040,0.305,-5.337
0.140,0.042,0.301,-5.337
0.113,0.043,0.299,-5.337
0.106,0.044,0.296,-5.337
0.158,0.044,0.295,-5.337
0.246,0.041,0.301,-5.337
0.234,0.039,0.303,-5.337
0.150,0.039,0.299,-5.337
0.134,0.041,0.296,-5.337
0.134,0.044,0.296,-5.337
0.109,0.045,0.298,-5.337
0.153,0.042,0.301,-5.337
0.182,0.038,0.304,-5.337
0.146,0.039,0.302,-5.337
0.083,0.043,0.296,-5.337
0.066,0.046,0.294,-5.337
0.134,0.042,0.292,-5.337
0.147,0.042,0.293,-5.337
0.131,0.045,0.296,-5.337
0.079,0.047,0.298,-5.337
0.107,0.042,0.300,-5.337
0.160,0.040,0.298,-5.337
0.138,0.041,0.292,-5.337
0.169,0.037,0.294,-5.337
0.164,0.039,0.297,-5.337
0.120,0.042,0.299,-5.337
0.151,0.037,0.300,-5.337
0.237,0.035,0.300,-5.337
0.206,0.034,0.297,-5.337
0.188,0.037,0.298,-5.337
0.197,0.041,0.298,-5.337
0.151,0.038,0.299,-5.337
0.177,0.033,0.305,-5.337
0.211,0.033,0.303,-5.337
0.197,0.034,0.298,-5.337
0.186,0.036,0.296,-5.337
0.197,0.038,0.299,-5.337
0.182,0.037,0.301,-5.337
0.180,0.037,0.300,-5.337
0.172,0.036,0.296,-5.337
0.134,0.036,0.295,-5.337
0.137,0.035,0.296,-5.337
0.223,0.035,0.295,-5.337
0.278,0.037,0.295,-5.337
0.241,0.036,0.296,-5.337
0.217,0.035,0.296,-5.337
0.192,0.040,0.296,-5.337
0.152,0.043,0.294,-5.337
0.157,0.044,0.293,-5.337
0.107,0.046,0.292,-5.337
0.107,0.043,0.294,-5.337
0.127,0.042,0.301,-5.337
0.180,0.039,0.301,-5.337
0.207,0.044,0.299,-5.337
0.189,0.044,0.298,-5.337
0.161,0.044,0.298,-5.337
0.140,0.043,0.300,-5.337
0.184,0.044,0.302,-5.337
0.158,0.042,0.299,-5.337
0.181,0.040,0.299,-5.337
0.262,0.039,0.295,-5.337
0.220,0.041,0.292,-5.337
0.099,0.042,0.296,-5.337
0.022,0.045,0.300,-5.337
0.085,0.043,0.298,-5.337
0.168,0.043,0.298,-5.337
0.161,0.042,0.302,-5.337
0.126,0.044,0.301,-5.337
0.120,0.047,0.297,-5.337
0.168,0.044,0.295,-5.337
0.203,0.042,0.298,-5.337
0.179,0.043,0.302,-5.337
0.166,0.041,0.302,-5.337
0.180,0.041,0.302,-5.337
0.227,0.040,0.303,-5.337
0.193,0.043,0.300,-5.337
0.159,0.039,0.296,-5.337
0.210,0.039,0.298,-5.337
0.219,0.040,0.299,-5.337
0.195,0.040,0.294,-5.337
0.198,0.035,0.294,-5.337
0.157,0.037,0.299,-5.337
0.101,0.039,0.301,-5.337
0.095,0.039,0.302,-5.337
0.166,0.039,0.300,-5.337
0.251,0.039,0.296,-5.337
0.249,0.041,0.297,-5.337
0.266,0.041,0.299,-5.337
0.262,0.044,0.300,-5.337
0.215,0.046,0.300,-5.337
0.139,0.043,0.300,-5.337
0.130,0.040,0.300,-5.337
0.211,0.037,0.299,-5.337
0.238,0.041,0.299,-5.337
0.235,0.043,0.300,-5.337
0.218,0.044,0.299,-5.337
0.234,0.041,0.301,-5.337
0.197,0.039,0.303,-5.337
0.165,0.042,0.301,-5.337
0.148,0.042,0.298,-5.337
0.145,0.041,0.297,-5.337
0.179,0.039,0.302,-5.337
0.159,0.039,0.304,-5.337
0.117,0.043,0.305,-5.337
0.112,0.041,0.303,-5.337
0.171,0.041,0.302,-5.337
0.238,0.039,0.297,-5.337
0.243,0.039,0.295,-5.337
0.181,0.040,0.295,-5.337
0.123,0.042,0.296,-5.337
0.116,0.041,0.299,-5.337
0.189,0.040,0.296,-5.337
0.242,0.043,0.294,-5.337
0.222,0.043,0.294,-5.337
0.273,0.041,0.295,-5.337
0.270,0.043,0.295,-5.337
0.246,0.039,0.300,-5.337
0.269,0.039,0.302,-5.337
0.234,0.042,0.300,-5.337
0.174,0.044,0.299,-5.337
0.208,0.043,0.299,-5.337
0.240,0.043,0.298,-5.337
0.229,0.043,0.299,-5.337
0.213,0.045,0.296,-5.337
0.225,0.044,0.297,-5.337
0.207,0.041,0.303,-5.337
0.205,0.043,0.304,-5.337
0.273,0.043,0.298,-5.337
0.268,0.046,0.293,-5.337
0.187,0.048,0.296,-5.337
0.161,0.047,0.298,-5.337
0.149,0.048,0.301,-5.337
0.185,0.049,0.302,-5.337
0.196,0.050,0.303,-5.337
0.231,0.047,0.300,-5.337
0.211,0.049,0.297,-5.337
0.187,0.052,0.298,-5.337
0.235,0.048,0.299,-5.337
0.281,0.050,0.299,-5.337
0.213,0.054,0.298,-5.337
0.230,0.053,0.300,-5.337
0.231,0.051,0.301,-5.337
0.225,0.048,0.300,-5.337
0.272,0.046,0.301,-5.337
0.213,0.046,0.300,-5.337
0.155,0.049,0.299,-5.337
0.183,0.048,0.296,-5.337
0.206,0.043,0.297,-5.337
0.236,0.042,0.295,-5.337
0.223,0.044,0.297,-5.337
0.225,0.046,0.295,-5.337
0.227,0.048,0.296,-5.337
0.229,0.046,0.299,-5.337
0.288,0.048,0.302,-5.337
0.271,0.049,0.296,-5.337
0.242,0.051,0.296,-5.337
0.234,0.048,0.299,-5.337
0.209,0.049,0.302,-5.337
0.157,0.047,0.301,-5.337
0.190,0.047,0.296,-5.337
0.239,0.048,0.295,-5.337
0.243,0.050,0.301,-5.337
0.213,0.055,0.302,-5.337
0.158,0.053,0.300,-5.337
0.164,0.047,0.299,-5.337
0.196,0.048,0.300,-5.337
0.176,0.053,0.296,-5.337
0.162,0.051,0.294,-5.337
0.186,0.049,0.300,-5.337
0.245,0.047,0.300,-5.337
0.200,0.051,0.299,-5.337
0.105,0.056,0.302,-5.337
0.098,0.057,0.301,-5.337
0.155,0.055,0.296,-5.337
0.167,0.051,0.297,-5.337
0.229,0.049,0.300,-5.337
0.316,0.050,0.300,-5.337
0.300,0.054,0.296,-5.337
0.222,0.057,0.295,-5.337
0.153,0.058,0.294,-5.337
0.138,0.059,0.295,-5.337
0.171,0.058,0.298,-5.337
0.248,0.054,0.303,-5.337
0.244,0.053,0.304,-5.337
0.214,0.056,0.302,-5.337
0.226,0.055,0.296,-5.337
0.217,0.056,0.297,-5.337
0.245,0.057,0.299,-5.337
0.327,0.058,0.301,-5.337
0.316,0.059,0.300,-5.337
0.192,0.061,0.297,-5.337
0.136,0.062,0.299,-5.337
0.148,0.066,0.300,-5.337
0.217,0.061,0.299,-5.337
0.282,0.059,0.296,-5.337
0.247,0.059,0.296,-5.337
0.161,0.063,0.296,-5.337
0.142,0.066,0.299,-5.337
0.228,0.064,0.301,-5.337
0.273,0.064,0.300,-5.337
0.262,0.064,0.294,-5.337
0.198,0.063,0.294,-5.337
0.140,0.061,0.296,-5.337
0.200,0.063,0.297,-5.337
0.254,0.060,0.295,-5.337
0.322,0.058,0.298,-5.337
0.317,0.059,0.301,-5.337
0.270,0.061,0.303,-5.337
0.281,0.061,0.303,-5.337
0.281,0.060,0.298,-5.337
0.289,0.058,0.300,-5.337
0.281,0.063,0.304,-5.337
0.172,0.067,0.304,-5.337
0.139,0.064,0.299,-5.337
0.156,0.064,0.297,-5.337
0.149,0.064,0.299,-5.337
0.208,0.065,0.301,-5.337
0.233,0.064,0.297,-5.337
0.237,0.064,0.296,-5.337
0.214,0.064,0.294,-5.337
0.179,0.066,0.294,-5.337
0.273,0.062,0.296,-5.337
0.311,0.064,0.299,-5.337
0.236,0.066,0.297,-5.337
0.123,0.067,0.297,-5.337
0.146,0.066,0.298,-5.337
0.263,0.065,0.297,-5.337
0.257,0.067,0.294,-5.337
0.190,0.070,0.294,-5.337
0.178,0.070,0.296,-5.337
0.230,0.066,0.298,-5.337
0.306,0.064,0.299,-5.337
0.293,0.064,0.296,-5.337
0.270,0.066,0.298,-5.337
0.230,0.065,0.302,-5.337
0.189,0.065,0.303,-5.337
0.167,0.065,0.301,-5.337
0.199,0.064,0.299,-5.337
0.223,0.067,0.297,-5.337
0.234,0.069,0.298,-5.337
0.239,0.069,0.296,-5.337
0.242,0.069,0.299,-5.337
0.273,0.070,0.302,-5.337
0.281,0.069,0.302,-5.337
0.213,0.073,0.296,-5.337
0.187,0.076,0.298,-5.337
0.156,0.072,0.302,-5.337
0.158,0.070,0.299,-5.337
0.171,0.073,0.293,-5.337
0.209,0.072,0.293,-5.337
0.275,0.068,0.298,-5.337
0.266,0.071,0.298,-5.337
0.143,0.071,0.294,-5.337
0.139,0.068,0.298,-5.337
0.198,0.069,0.302,-5.337
0.230,0.068,0.300,-5.337
0.288,0.066,0.296,-5.337
0.297,0.064,0.294,-5.337
0.233,0.066,0.294,-5.337
0.209,0.066,0.293,-5.337
0.234,0.065,0.296,-5.337
0.224,0.069,0.300,-5.337
0.262,0.069,0.303,-5.337
0.221,0.071,0.300,-5.337
0.236,0.067,0.301,-5.337
0.292,0.066,0.296,-5.337
0.240,0.070,0.293,-5.337
0.191,0.072,0.293,-5.337
0.242,0.067,0.295,-5.337
0.242,0.069,0.297,-5.337
0.214,0.070,0.297,-5.337
0.177,0.070,0.299,-5.337
0.180,0.068,0.302,-5.337
0.243,0.067,0.302,-5.337
0.248,0.071,0.303,-5.337
0.289,0.073,0.300,-5.337
0.287,0.070,0.297,-5.337
0.259,0.069,0.296,-5.337
0.245,0.072,0.293,-5.337
0.247,0.070,0.295,-5.337
0.191,0.071,0.301,-5.337
0.193,0.071,0.302,-5.337
0.257,0.068,0.301,-5.337
0.277,0.067,0.299,-5.337
0.244,0.071,0.294,-5.337
0.213,0.073,0.295,-5.337
0.228,0.070,0.297,-5.337
0.234,0.070,0.296,-5.337
0.252,0.071,0.294,-5.337
0.259,0.074,0.296,-5.337
0.212,0.075,0.297,-5.337
0.181,0.075,0.298,-5.337
0.143,0.072,0.297,-5.337
0.151,0.073,0.298,-5.337
0.194,0.070,0.297,-5.337
0.258,0.068,0.296,-5.337
0.267,0.067,0.298,-5.337
0.290,0.065,0.299,-5.337
0.276,0.062,0.296,-5.337
0.283,0.066,0.292,-5.337
0.261,0.069,0.291,-5.337
0.221,0.067,0.292,-5.337
0.166,0.064,0.296,-5.337
0.198,0.068,0.296,-5.337
0.249,0.068,0.295,-5.337
0.248,0.067,0.298,-5.337
0.150,0.068,0.302,-5.337
0.150,0.067,0.302,-5.337
0.172,0.070,0.301,-5.337
0.214,0.067,0.296,-5.337
0.288,0.063,0.294,-5.337
0.248,0.064,0.294,-5.337
0.230,0.065,0.295,-5.337
0.260,0.065,0.293,-5.337
0.318,0.063,0.293,-5.337
0.317,0.062,0.296,-5.337
0.271,0.062,0.300,-5.337
0.303,0.063,0.297,-5.337
0.301,0.065,0.291,-5.337
0.215,0.065,0.291,-5.337
0.176,0.065,0.292,-5.337
0.182,0.065,0.292,-5.337
0.195,0.066,0.296,-5.337
0.149,0.065,0.297,-5.337
0.101,0.065,0.296,-5.337
0.163,0.066,0.293,-5.337
0.222,0.065,0.298,-5.337
0.198,0.067,0.301,-5.337
0.233,0.069,0.297,-5.337
0.205,0.070,0.295,-5.337
0.171,0.068,0.294,-5.337
0.191,0.067,0.298,-5.337
0.187,0.067,0.297,-5.337
0.152,0.070,0.297,-5.337
0.138,0.068,0.296,-5.337
0.176,0.067,0.296,-5.337
0.239,0.063,0.296,-5.337
0.238,0.062,0.295,-5.337
0.223,0.057,0.292,-5.337
0.216,0.055,0.294,-5.337
0.215,0.059,0.301,-5.337
0.214,0.065,0.304,-5.337
0.240,0.062,0.301,-5.337
0.268,0.061,0.298,-5.337
0.172,0.063,0.298,-5.337
0.200,0.064,0.293,-5.337
0.264,0.062,0.291,-5.337
0.306,0.061,0.299,-5.337
0.273,0.061,0.301,-5.337
0.182,0.065,0.295,-5.337
0.239,0.064,0.292,-5.337
0.288,0.060,0.296,-5.337
0.205,0.060,0.302,-5.337
0.185,0.062,0.299,-5.337
0.156,0.066,0.294,-5.337
0.148,0.065,0.294,-5.337
0.126,0.065,0.296,-5.337
0.168,0.059,0.297,-5.337
0.212,0.061,0.297,-5.337
0.151,0.062,0.294,-5.337
0.139,0.064,0.293,-5.337
0.132,0.062,0.295,-5.337
0.101,0.061,0.297,-5.337
0.065,0.063,0.300,-5.337
0.120,0.063,0.300,-5.337
0.172,0.063,0.298,-5.337
0.196,0.063,0.297,-5.337
0.157,0.063,0.298,-5.337
0.106,0.064,0.301,-5.337
0.162,0.065,0.302,-5.337
0.226,0.062,0.302,-5.337
0.256,0.060,0.301,-5.337
0.246,0.063,0.298,-5.337
0.190,0.061,0.297,-5.337
0.183,0.056,0.296,-5.337
0.131,0.055,0.294,-5.337
0.056,0.056,0.291,-5.337
0.156,0.055,0.294,-5.337
0.197,0.055,0.298,-5.337
0.169,0.052,0.301,-5.337
0.212,0.048,0.299,-5.337
0.225,0.049,0.297,-5.337
0.227,0.048,0.294,-5.337
0.193,0.051,0.295,-5.337
0.152,0.050,0.298,-5.337
0.146,0.054,0.299,-5.337
0.139,0.057,0.297,-5.337
0.178,0.058,0.295,-5.337
0.182,0.056,0.298,-5.337
0.184,0.054,0.300,-5.337
0.240,0.054,0.298,-5.337
0.207,0.054,0.298,-5.337
0.174,0.053,0.301,-5.337
0.162,0.053,0.304,-5.337
0.119,0.055,0.303,-5.337
0.100,0.054,0.299,-5.337
0.177,0.052,0.295,-5.337
0.176,0.052,0.294,-5.337
0.125,0.052,0.294,-5.337
0.145,0.052,0.292,-5.337
0.175,0.050,0.295,-5.337
0.243,0.046,0.295,-5.337
0.288,0.045,0.300,-5.337
0.239,0.050,0.298,-5.337
0.141,0.056,0.296,-5.337
0.132,0.053,0.291,-5.337
0.157,0.051,0.293,-5.337
0.165,0.048,0.298,-5.337
0.186,0.050,0.300,-5.337
0.127,0.050,0.299,-5.337
0.111,0.047,0.297,-5.337
0.108,0.041,0.297,-5.337
0.168,0.047,0.299,-5.337
0.176,0.052,0.301,-5.337
0.165,0.054,0.298,-5.337
0.179,0.053,0.292,-5.337
0.202,0.054,0.294,-5.337
0.216,0.052,0.296,-5.337
0.187,0.052,0.294,-5.337
0.167,0.052,0.296,-5.337
0.137,0.046,0.300,-5.337
0.161,0.044,0.302,-5.337
0.179,0.047,0.302,-5.337
0.168,0.051,0.305,-5.337
0.148,0.055,0.299,-5.337
0.098,0.055,0.298,-5.337
0.097,0.050,0.298,-5.337
0.136,0.049,0.299,-5.337
0.156,0.048,0.297,-5.337
0.180,0.051,0.298,-5.337
0.107,0.054,0.296,-5.337
0.078,0.053,0.294,-5.337
0.193,0.052,0.297,-5.337
0.225,0.055,0.302,-5.337
0.155,0.055,0.306,-5.337
0.103,0.052,0.305,-5.337
0.118,0.049,0.300,-5.337
0.135,0.049,0.295,-5.337
0.163,0.051,0.296,-5.337
0.240,0.048,0.298,-5.337
0.301,0.051,0.299,-5.337
0.245,0.056,0.298,-5.337
0.163,0.054,0.301,-5.337
0.180,0.051,0.303,-5.337
0.203,0.053,0.303,-5.337
0.193,0.050,0.300,-5.337
0.229,0.047,0.299,-5.337
0.207,0.045,0.299,-5.337
0.180,0.046,0.300,-5.337
0.205,0.050,0.298,-5.337
0.182,0.052,0.297,-5.337
0.121,0.053,0.295,-5.337
0.137,0.049,0.297,-5.337
0.202,0.043,0.299,-5.337
0.181,0.045,0.301,-5.337
0.143,0.045,0.303,-5.337
0.146,0.047,0.301,-5.337
0.156,0.045,0.300,-5.337
0.149,0.047,0.301,-5.337
0.153,0.047,0.299,-5.337
0.200,0.047,0.297,-5.337
0.236,0.047,0.297,-5.337
0.179,0.048,0.297,-5.337
0.146,0.048,0.296,-5.337
0.119,0.051,0.296,-5.337
0.088,0.049,0.298,-5.337
0.115,0.048,0.301,-5.337
0.122,0.050,0.304,-5.337
0.088,0.050,0.298,-5.337
0.074,0.052,0.293,-5.337
0.104,0.048,0.291,-5.337
0.127,0.045,0.294,-5.337
0.142,0.046,0.303,-5.337
0.191,0.047,0.308,-5.337
0.276,0.044,0.303,-5.337
0.290,0.044,0.297,-5.337
0.238,0.046,0.297,-5.337
0.243,0.048,0.301,-5.337
0.232,0.047,0.303,-5.337
0.185,0.049,0.304,-5.337
0.163,0.049,0.305,-5.337
0.173,0.048,0.302,-5.337
0.144,0.050,0.299,-5.337
0.064,0.051,0.296,-5.337
0.112,0.047,0.299,-5.337
0.111,0.049,0.302,-5.337
0.061,0.050,0.300,-5.337
0.096,0.048,0.295,-5.337
0.215,0.046,0.296,-5.337
0.281,0.045,0.297,-5.337
0.159,0.048,0.299,-5.337
0.063,0.050,0.299,-5.337
0.117,0.048,0.300,-5.337
0.186,0.046,0.298,-5.337
0.147,0.046,0.297,-5.337
0.129,0.044,0.295,-5.337
0.104,0.048,0.295,-5.337
0.137,0.050,0.295,-5.337
0.205,0.043,0.297,-5.337
0.189,0.041,0.302,-5.337
0.119,0.044,0.301,-5.337
0.096,0.043,0.299,-5.337
0.097,0.041,0.299,-5.337
0.110,0.041,0.299,-5.337
0.124,0.043,0.299,-5.337
0.114,0.043,0.302,-5.337
0.165,0.040,0.302,-5.337
0.197,0.039,0.302,-5.337
0.167,0.041,0.301,-5.337
0.092,0.044,0.299,-5.337
0.118,0.041,0.299,-5.337
0.257,0.034,0.302,-5.337
0.284,0.035,0.300,-5.337
0.183,0.040,0.297,-5.337
0.158,0.041,0.295,-5.337
0.218,0.040,0.302,-5.337
0.168,0.043,0.306,-5.337
0.116,0.045,0.306,-5.337
0.145,0.046,0.300,-5.337
0.170,0.046,0.300,-5.337
0.197,0.041,0.301,-5.337
0.177,0.044,0.304,-5.337
0.123,0.045,0.303,-5.337
0.137,0.045,0.299,-5.337
0.204,0.042,0.295,-5.337
0.236,0.042,0.296,-5.337
0.193,0.045,0.298,-5.337
0.178,0.046,0.298,-5.337
0.165,0.048,0.297,-5.337
0.128,0.047,0.299,-5.337
0.170,0.048,0.302,-5.337
0.151,0.045,0.302,-5.337
0.155,0.045,0.301,-5.337
0.197,0.046,0.298,-5.337
0.192,0.044,0.298,-5.337
0.232,0.042,0.297,-5.337
0.242,0.043,0.296,-5.337
0.175,0.042,0.295,-5.337
0.141,0.045,0.299,-5.337
0.155,0.046,0.302,-5.337
0.130,0.046,0.305,-5.337
0.137,0.044,0.304,-5.337
0.194,0.042,0.299,-5.337
0.249,0.040,0.297,-5.337
0.228,0.042,0.297,-5.337
0.167,0.043,0.297,-5.337
0.155,0.042,0.297,-5.337
0.218,0.036,0.297,-5.337
0.208,0.037,0.299,-5.337
0.156,0.042,0.299,-5.337
0.127,0.045,0.301,-5.337
0.119,0.046,0.297,-5.337
0.139,0.045,0.297,-5.337
0.136,0.043,0.298,-5.337
0.116,0.041,0.299,-5.337
0.094,0.041,0.300,-5.337
0.098,0.044,0.295,-5.337
0.185,0.043,0.295,-5.337
0.145,0.046,0.296,-5.337
0.106,0.047,0.301,-5.337
0.137,0.044,0.301,-5.337
0.183,0.042,0.301,-5.337
0.202,0.040,0.300,-5.337
0.220,0.040,0.299,-5.337
0.134,0.041,0.298,-5.337
0.138,0.042,0.298,-5.337
0.239,0.042,0.299,-5.337
0.219,0.047,0.300,-5.337
0.123,0.048,0.299,-5.337
0.098,0.046,0.299,-5.337
0.148,0.044,0.297,-5.337
0.204,0.042,0.296,-5.337
0.254,0.042,0.297,-5.337
0.251,0.043,0.301,-5.337
0.198,0.041,0.303,-5.337
0.193,0.038,0.305,-5.337
0.231,0.038,0.302,-5.337
0.223,0.039,0.300,-5.337
0.207,0.042,0.302,-5.337
0.190,0.043,0.300,-5.337
0.212,0.042,0.298,-5.337
0.239,0.043,0.299,-5.337
0.168,0.045,0.303,-5.337
0.141,0.044,0.299,-5.337
0.093,0.049,0.297,-5.337
0.101,0.048,0.297,-5.337
0.190,0.046,0.296,-5.337
0.170,0.043,0.295,-5.337
0.213,0.041,0.296,-5.337
0.303,0.039,0.298,-5.337
0.260,0.043,0.301,-5.337
0.203,0.048,0.302,-5.337
0.172,0.050,0.303,-5.337
0.159,0.044,0.302,-5.337
0.159,0.046,0.299,-5.337
0.118,0.047,0.298,-5.337
0.126,0.047,0.298,-5.337
0.209,0.042,0.297,-5.337
0.205,0.045,0.296,-5.337
0.171,0.047,0.300,-5.337
0.175,0.046,0.302,-5.337
0.163,0.045,0.304,-5.337
0.158,0.049,0.304,-5.337
0.260,0.047,0.303,-5.337
0.287,0.045,0.303,-5.337
0.223,0.046,0.302,-5.337
0.216,0.047,0.300,-5.337
0.213,0.050,0.299,-5.337
0.126,0.053,0.297,-5.337
0.077,0.052,0.296,-5.337
0.124,0.048,0.297,-5.337
0.154,0.052,0.299,-5.337
0.175,0.053,0.301,-5.337
0.218,0.050,0.304,-5.337
0.217,0.048,0.302,-5.337
0.266,0.045,0.301,-5.337
0.287,0.046,0.301,-5.337
0.239,0.045,0.301,-5.337
0.224,0.043,0.301,-5.337
0.173,0.046,0.299,-5.337
0.190,0.046,0.300,-5.337
0.241,0.044,0.302,-5.337
0.264,0.042,0.303,-5.337
0.247,0.037,0.302,-5.337
0.250,0.038,0.301,-5.337
0.222,0.038,0.299,-5.337
0.149,0.042,0.299,-5.337
0.122,0.039,0.302,-5.337
0.230,0.035,0.301,-5.337
0.261,0.037,0.303,-5.337
0.230,0.042,0.308,-5.337
0.163,0.046,0.309,-5.337
0.169,0.046,0.308,-5.337
0.226,0.042,0.306,-5.337
0.298,0.041,0.304,-5.337
0.294,0.040,0.299,-5.337
0.271,0.043,0.300,-5.337
0.252,0.044,0.302,-5.337
0.212,0.045,0.303,-5.337
0.179,0.044,0.301,-5.337
0.239,0.046,0.303,-5.337
0.283,0.046,0.300,-5.337
0.203,0.051,0.299,-5.337
0.118,0.051,0.298,-5.337
0.203,0.047,0.298,-5.337
0.222,0.051,0.303,-5.337
0.204,0.052,0.302,-5.337
0.255,0.048,0.300,-5.337
0.210,0.051,0.301,-5.337
0.106,0.056,0.305,-5.337
0.063,0.055,0.302,-5.337
0.139,0.052,0.296,-5.337
0.223,0.052,0.292,-5.337
0.217,0.054,0.294,-5.337
0.222,0.054,0.298,-5.337
0.250,0.056,0.302,-5.337
0.207,0.054,0.303,-5.337
0.258,0.055,0.301,-5.337
0.270,0.052,0.301,-5.337
0.241,0.048,0.305,-5.337
0.254,0.048,0.305,-5.337
0.234,0.048,0.301,-5.337
0.191,0.050,0.298,-5.337
0.184,0.054,0.296,-5.337
0.213,0.055,0.298,-5.337
0.255,0.055,0.304,-5.337
0.253,0.055,0.306,-5.337
0.249,0.055,0.303,-5.337
0.239,0.059,0.300,-5.337
0.193,0.055,0.297,-5.337
0.207,0.056,0.299,-5.337
0.282,0.054,0.301,-5.337
0.308,0.054,0.305,-5.337
0.271,0.053,0.304,-5.337
0.213,0.057,0.303,-5.337
0.171,0.058,0.296,-5.337
0.196,0.054,0.297,-5.337
0.246,0.051,0.298,-5.337
0.289,0.052,0.299,-5.337
0.269,0.055,0.297,-5.337
0.259,0.055,0.297,-5.337
0.264,0.050,0.296,-5.337
0.263,0.051,0.300,-5.337
0.291,0.052,0.303,-5.337
0.330,0.051,0.304,-5.337
0.312,0.053,0.304,-5.337
0.217,0.059,0.302,-5.337
0.135,0.060,0.299,-5.337
0.215,0.056,0.297,-5.337
0.229,0.058,0.301,-5.337
0.199,0.060,0.305,-5.337
0.174,0.060,0.305,-5.337
0.151,0.059,0.304,-5.337
0.148,0.060,0.299,-5.337
0.193,0.060,0.296,-5.337
0.240,0.059,0.297,-5.337
0.246,0.057,0.298,-5.337
0.214,0.059,0.301,-5.337
0.255,0.057,0.302,-5.337
0.297,0.056,0.304,-5.337
0.311,0.060,0.305,-5.337
0.281,0.062,0.303,-5.337
0.241,0.064,0.299,-5.337
0.252,0.064,0.298,-5.337
0.245,0.060,0.299,-5.337
0.224,0.062,0.303,-5.337
0.194,0.062,0.303,-5.337
0.180,0.063,0.302,-5.337
0.157,0.063,0.301,-5.337
0.185,0.062,0.302,-5.337
0.207,0.064,0.304,-5.337
0.190,0.067,0.306,-5.337
0.167,0.064,0.305,-5.337
0.126,0.065,0.305,-5.337
0.201,0.064,0.303,-5.337
0.226,0.062,0.303,-5.337
0.236,0.061,0.305,-5.337
0.231,0.064,0.305,-5.337
0.236,0.061,0.303,-5.337
0.262,0.061,0.301,-5.337
0.264,0.062,0.301,-5.337
0.226,0.063,0.304,-5.337
0.220,0.063,0.308,-5.337
0.255,0.061,0.306,-5.337
0.252,0.059,0.304,-5.337
0.216,0.059,0.301,-5.337
0.239,0.061,0.300,-5.337
0.256,0.062,0.300,-5.337
0.266,0.062,0.302,-5.337
0.226,0.061,0.304,-5.337
0.171,0.066,0.306,-5.337
0.206,0.067,0.303,-5.337
0.232,0.066,0.304,-5.337
0.254,0.063,0.303,-5.337
0.200,0.066,0.301,-5.337
0.134,0.065,0.302,-5.337
0.145,0.062,0.300,-5.337
0.208,0.059,0.298,-5.337
0.219,0.064,0.300,-5.337
0.198,0.069,0.304,-5.337
0.308,0.064,0.304,-5.337
0.326,0.063,0.303,-5.337
0.250,0.059,0.303,-5.337
0.272,0.063,0.301,-5.337
0.260,0.069,0.297,-5.337
0.264,0.069,0.300,-5.337
0.296,0.069,0.302,-5.337
0.366,0.068,0.303,-5.337
0.342,0.069,0.303,-5.337
0.344,0.067,0.305,-5.337
0.325,0.065,0.305,-5.337
0.237,0.069,0.303,-5.337
0.195,0.070,0.299,-5.337
0.262,0.068,0.299,-5.337
0.288,0.065,0.298,-5.337
0.252,0.065,0.300,-5.337
0.239,0.064,0.300,-5.337
0.269,0.064,0.302,-5.337
0.239,0.065,0.303,-5.337
0.198,0.066,0.305,-5.337
0.170,0.067,0.306,-5.337
0.240,0.067,0.302,-5.337
0.267,0.068,0.299,-5.337
0.293,0.063,0.299,-5.337
0.256,0.061,0.300,-5.337
0.184,0.066,0.300,-5.337
0.196,0.067,0.301,-5.337
0.215,0.067,0.301,-5.337
0.188,0.066,0.306,-5.337
0.193,0.063,0.304,-5.337
0.218,0.067,0.302,-5.337
0.203,0.069,0.304,-5.337
0.228,0.067,0.305,-5.337
0.158,0.065,0.304,-5.337
0.178,0.065,0.302,-5.337
0.256,0.063,0.300,-5.337
0.290,0.063,0.301,-5.337
0.270,0.063,0.304,-5.337
0.149,0.064,0.307,-5.337
0.167,0.067,0.308,-5.337
0.167,0.069,0.305,-5.337
0.198,0.063,0.302,-5.337
0.247,0.063,0.298,-5.337
0.190,0.068,0.300,-5.337
0.244,0.067,0.302,-5.337
0.247,0.068,0.302,-5.337
0.200,0.068,0.298,-5.337
0.208,0.069,0.299,-5.337
0.249,0.068,0.301,-5.337
0.293,0.065,0.303,-5.337
0.256,0.067,0.302,-5.337
0.285,0.069,0.304,-5.337
0.298,0.069,0.303,-5.337
0.255,0.070,0.300,-5.337
0.213,0.066,0.298,-5.337
0.182,0.064,0.298,-5.337
0.167,0.063,0.298,-5.337
0.201,0.065,0.296,-5.337
0.230,0.065,0.300,-5.337
0.210,0.068,0.305,-5.337
0.243,0.067,0.302,-5.337
0.242,0.066,0.296,-5.337
0.190,0.067,0.297,-5.337
0.184,0.066,0.301,-5.337
0.187,0.067,0.305,-5.337
0.196,0.062,0.307,-5.337
0.203,0.062,0.307,-5.337
0.204,0.063,0.305,-5.337
0.190,0.063,0.302,-5.337
0.200,0.064,0.300,-5.337
0.258,0.063,0.302,-5.337
0.261,0.064,0.302,-5.337
0.258,0.062,0.304,-5.337
0.339,0.058,0.302,-5.337
0.298,0.065,0.303,-5.337
0.209,0.066,0.303,-5.337
0.240,0.061,0.299,-5.337
0.260,0.062,0.294,-5.337
0.238,0.063,0.296,-5.337
0.250,0.062,0.297,-5.337
0.249,0.063,0.301,-5.337
0.229,0.058,0.306,-5.337
0.252,0.052,0.308,-5.337
0.283,0.052,0.305,-5.337
0.281,0.053,0.298,-5.337
0.267,0.055,0.290,-5.337
0.201,0.059,0.292,-5.337
0.182,0.056,0.294,-5.337
0.194,0.057,0.297,-5.337
0.200,0.056,0.304,-5.337
0.224,0.060,0.306,-5.337
0.267,0.062,0.304,-5.337
0.182,0.064,0.302,-5.337
0.142,0.058,0.303,-5.337
0.114,0.059,0.303,-5.337
0.142,0.057,0.302,-5.337
0.164,0.057,0.301,-5.337
0.112,0.061,0.301,-5.337
0.142,0.060,0.300,-5.337
0.220,0.054,0.296,-5.337
0.265,0.052,0.294,-5.337
0.191,0.055,0.297,-5.337
0.241,0.053,0.303,-5.337
0.321,0.057,0.302,-5.337
0.319,0.060,0.302,-5.337
0.252,0.056,0.305,-5.337
0.234,0.052,0.303,-5.337
0.234,0.051,0.301,-5.337
0.237,0.054,0.299,-5.337
0.205,0.056,0.298,-5.337
0.190,0.055,0.297,-5.337
0.226,0.054,0.302,-5.337
0.215,0.058,0.302,-5.337
0.186,0.058,0.299,-5.337
0.199,0.054,0.297,-5.337
0.200,0.053,0.297,-5.337
0.183,0.057,0.298,-5.337
0.222,0.055,0.300,-5.337
0.265,0.052,0.302,-5.337
0.201,0.055,0.302,-5.337
0.184,0.057,0.305,-5.337
0.171,0.055,0.303,-5.337
0.181,0.055,0.301,-5.337
0.219,0.053,0.299,-5.337
0.266,0.049,0.297,-5.337
0.257,0.046,0.296,-5.337
0.208,0.046,0.298,-5.337
0.211,0.043,0.302,-5.337
0.211,0.047,0.306,-5.337
0.110,0.052,0.304,-5.337
0.146,0.050,0.305,-5.337
0.216,0.046,0.303,-5.337
0.203,0.047,0.299,-5.337
0.132,0.047,0.294,-5.337
0.173,0.044,0.291,-5.337
0.251,0.042,0.293,-5.337
0.193,0.042,0.299,-5.337
0.161,0.043,0.306,-5.337
0.208,0.044,0.309,-5.337
0.210,0.047,0.311,-5.337
0.136,0.050,0.308,-5.337
0.095,0.050,0.302,-5.337
0.095,0.048,0.297,-5.337
0.112,0.052,0.301,-5.337
0.207,0.047,0.307,-5.337
0.261,0.048,0.311,-5.337
0.214,0.050,0.308,-5.337
0.149,0.049,0.299,-5.337
0.191,0.045,0.297,-5.337
0.187,0.048,0.302,-5.337
0.172,0.048,0.303,-5.337
0.198,0.045,0.302,-5.337
0.263,0.043,0.302,-5.337
0.274,0.045,0.299,-5.337
0.209,0.042,0.294,-5.337
0.176,0.045,0.293,-5.337
0.126,0.046,0.296,-5.337
0.152,0.045,0.301,-5.337
0.197,0.043,0.302,-5.337
0.198,0.045,0.299,-5.337
0.204,0.043,0.301,-5.337
0.207,0.043,0.298,-5.337
0.150,0.044,0.299,-5.337
0.102,0.044,0.300,-5.337
0.154,0.048,0.302,-5.337
0.195,0.047,0.305,-5.337
0.167,0.048,0.305,-5.337
0.185,0.046,0.301,-5.337
0.144,0.049,0.297,-5.337
0.127,0.044,0.295,-5.337
0.196,0.044,0.297,-5.337
0.128,0.046,0.301,-5.337
0.056,0.050,0.300,-5.337
0.024,0.053,0.302,-5.337
0.074,0.053,0.303,-5.337
0.090,0.047,0.302,-5.337
0.126,0.046,0.300,-5.337
0.128,0.046,0.300,-5.337
0.147,0.046,0.302,-5.337
0.177,0.047,0.302,-5.337
0.217,0.044,0.301,-5.337
0.200,0.043,0.305,-5.337
0.238,0.044,0.305,-5.337
0.199,0.050,0.302,-5.337
0.195,0.047,0.298,-5.337
0.179,0.044,0.301,-5.337
0.194,0.043,0.301,-5.337
0.190,0.040,0.305,-5.337
0.231,0.037,0.305,-5.337
0.225,0.042,0.301,-5.337
0.191,0.042,0.297,-5.337
0.258,0.040,0.297,-5.337
0.289,0.042,0.299,-5.337
0.230,0.042,0.303,-5.337
0.176,0.040,0.305,-5.337
0.148,0.043,0.300,-5.337
0.122,0.045,0.293,-5.337
0.105,0.048,0.292,-5.337
0.089,0.048,0.294,-5.337
0.067,0.049,0.299,-5.337
0.077,0.049,0.302,-5.337
0.105,0.049,0.300,-5.337
0.157,0.047,0.299,-5.337
0.159,0.050,0.301,-5.337
0.170,0.046,0.305,-5.337
0.209,0.042,0.303,-5.337
0.220,0.044,0.301,-5.337
0.217,0.044,0.300,-5.337
0.193,0.043,0.302,-5.337
0.188,0.043,0.303,-5.337
0.199,0.043,0.301,-5.337
0.146,0.044,0.297,-5.337
0.167,0.045,0.295,-5.337
0.174,0.042,0.293,-5.337
0.240,0.038,0.298,-5.337
0.270,0.040,0.304,-5.337
0.226,0.039,0.308,-5.337
0.197,0.036,0.309,-5.337
0.149,0.037,0.306,-5.337
0.176,0.036,0.300,-5.337
0.184,0.040,0.296,-5.337
0.131,0.042,0.293,-5.337
0.155,0.040,0.294,-5.337
0.175,0.040,0.301,-5.337
0.214,0.039,0.306,-5.337
0.197,0.039,0.306,-5.337
0.175,0.039,0.299,-5.337
0.159,0.042,0.295,-5.337
0.168,0.044,0.296,-5.337
0.152,0.042,0.300,-5.337
0.091,0.043,0.300,-5.337
0.096,0.041,0.298,-5.337
0.168,0.042,0.297,-5.337
0.192,0.044,0.301,-5.337
0.160,0.047,0.307,-5.337
0.123,0.048,0.307,-5.337
0.067,0.047,0.304,-5.337
0.146,0.046,0.302,-5.337
0.250,0.044,0.302,-5.337
0.205,0.046,0.304,-5.337
0.114,0.044,0.303,-5.337
0.158,0.042,0.302,-5.337
0.184,0.043,0.300,-5.337
0.168,0.042,0.298,-5.337
0.120,0.045,0.297,-5.337
0.079,0.048,0.299,-5.337
0.141,0.044,0.302,-5.337
0.197,0.044,0.305,-5.337
0.132,0.047,0.304,-5.337
0.127,0.047,0.299,-5.337
0.186,0.042,0.295,-5.337
0.211,0.040,0.297,-5.337
0.122,0.042,0.301,-5.337
0.156,0.042,0.301,-5.337
0.180,0.043,0.304,-5.337
0.159,0.041,0.308,-5.337
0.150,0.043,0.307,-5.337
0.203,0.040,0.303,-5.337
0.230,0.041,0.302,-5.337
0.153,0.045,0.301,-5.337
0.188,0.046,0.299,-5.337
0.194,0.046,0.299,-5.337
0.151,0.042,0.297,-5.337
0.139,0.042,0.300,-5.337
0.184,0.042,0.305,-5.337
0.177,0.044,0.306,-5.337
0.196,0.045,0.303,-5.337
0.207,0.047,0.302,-5.337
0.211,0.045,0.302,-5.337
0.143,0.043,0.306,-5.337
0.101,0.043,0.308,-5.337
0.142,0.043,0.306,-5.337
0.124,0.045,0.304,-5.337
0.072,0.044,0.303,-5.337
0.121,0.040,0.297,-5.337
0.145,0.045,0.299,-5.337
0.104,0.047,0.301,-5.337
0.138,0.045,0.303,-5.337
0.171,0.044,0.304,-5.337
0.188,0.042,0.301,-5.337
0.246,0.039,0.296,-5.337
0.282,0.040,0.294,-5.337
0.192,0.043,0.298,-5.337
0.160,0.041,0.299,-5.337
0.198,0.039,0.297,-5.337
0.196,0.039,0.298,-5.337
0.151,0.039,0.303,-5.337
0.157,0.041,0.308,-5.337
0.158,0.043,0.305,-5.337
0.144,0.044,0.299,-5.337
0.137,0.040,0.294,-5.337
0.103,0.038,0.296,-5.337
0.081,0.040,0.302,-5.337
0.121,0.042,0.305,-5.337
0.224,0.043,0.306,-5.337
0.228,0.042,0.300,-5.337
0.171,0.037,0.300,-5.337
0.162,0.038,0.299,-5.337
0.257,0.038,0.299,-5.337
0.258,0.038,0.298,-5.337
0.207,0.041,0.301,-5.337
0.154,0.039,0.303,-5.337
0.148,0.039,0.308,-5.337
0.166,0.037,0.309,-5.337
0.200,0.039,0.307,-5.337
0.107,0.044,0.300,-5.337
0.092,0.045,0.298,-5.337
0.186,0.041,0.299,-5.337
0.222,0.041,0.302,-5.337
0.176,0.043,0.302,-5.337
0.182,0.041,0.303,-5.337
0.186,0.038,0.303,-5.337
0.200,0.037,0.302,-5.337
0.156,0.039,0.301,-5.337
0.105,0.044,0.299,-5.337
0.124,0.044,0.298,-5.337
0.156,0.044,0.299,-5.337
0.191,0.039,0.303,-5.337
0.187,0.038,0.305,-5.337
0.174,0.043,0.307,-5.337
0.207,0.044,0.304,-5.337
0.285,0.044,0.301,-5.337
0.246,0.046,0.302,-5.337
0.187,0.047,0.301,-5.337
0.166,0.047,0.299,-5.337
0.173,0.044,0.302,-5.337
0.177,0.044,0.304,-5.337
0.177,0.043,0.304,-5.337
0.217,0.045,0.302,-5.337
0.221,0.047,0.299,-5.337
0.219,0.044,0.299,-5.337
0.212,0.041,0.303,-5.337
0.161,0.040,0.309,-5.337
0.115,0.045,0.309,-5.337
0.150,0.046,0.305,-5.337
0.202,0.043,0.301,-5.337
0.157,0.042,0.300,-5.337
0.095,0.047,0.298,-5.337
0.114,0.050,0.298,-5.337
0.144,0.046,0.299,-5.337
0.185,0.042,0.300,-5.337
0.186,0.047,0.301,-5.337
0.228,0.049,0.302,-5.337
0.200,0.050,0.301,-5.337
0.146,0.049,0.300,-5.337
0.221,0.049,0.298,-5.337
0.240,0.049,0.303,-5.337
0.157,0.049,0.303,-5.337
0.167,0.046,0.299,-5.337
0.264,0.043,0.297,-5.337
0.270,0.049,0.301,-5.337
0.166,0.050,0.304,-5.337
0.136,0.050,0.304,-5.337
0.175,0.044,0.305,-5.337
0.190,0.045,0.305,-5.337
0.255,0.044,0.302,-5.337
0.264,0.048,0.300,-5.337
0.196,0.051,0.296,-5.337
0.181,0.051,0.294,-5.337
0.230,0.053,0.300,-5.337
0.190,0.052,0.306,-5.337
0.204,0.053,0.307,-5.337
0.204,0.051,0.305,-5.337
0.216,0.052,0.303,-5.337
0.216,0.054,0.301,-5.337
0.216,0.052,0.301,-5.337
0.233,0.051,0.300,-5.337
0.227,0.053,0.300,-5.337
0.264,0.050,0.300,-5.337
0.240,0.052,0.300,-5.337
0.185,0.053,0.299,-5.337
0.144,0.052,0.300,-5.337
0.173,0.046,0.301,-5.337
0.229,0.048,0.302,-5.337
0.253,0.050,0.304,-5.337
0.164,0.057,0.305,-5.337
0.079,0.053,0.305,-5.337
0.156,0.050,0.302,-5.337
0.200,0.052,0.299,-5.337
0.137,0.052,0.295,-5.337
0.174,0.047,0.296,-5.337
0.255,0.043,0.300,-5.337
0.306,0.045,0.301,-5.337
0.313,0.049,0.306,-5.337
0.243,0.049,0.311,-5.337
0.226,0.049,0.308,-5.337
0.255,0.048,0.303,-5.337
0.221,0.051,0.300,-5.337
0.171,0.054,0.297,-5.337
0.135,0.055,0.298,-5.337
0.122,0.052,0.301,-5.337
0.126,0.052,0.301,-5.337
0.191,0.052,0.301,-5.337
0.208,0.050,0.301,-5.337
0.199,0.051,0.300,-5.337
0.130,0.052,0.300,-5.337
0.132,0.052,0.299,-5.337
0.223,0.050,0.301,-5.337
0.235,0.049,0.301,-5.337
0.201,0.051,0.303,-5.337
0.223,0.053,0.304,-5.337
0.235,0.052,0.301,-5.337
0.255,0.051,0.299,-5.337
0.264,0.050,0.298,-5.337
0.205,0.053,0.298,-5.337
0.153,0.057,0.300,-5.337
0.222,0.053,0.303,-5.337
0.250,0.049,0.307,-5.337
0.289,0.049,0.306,-5.337
0.285,0.049,0.305,-5.337
0.234,0.054,0.303,-5.337
0.150,0.055,0.304,-5.337
0.163,0.052,0.305,-5.337
0.192,0.051,0.305,-5.337
0.229,0.051,0.303,-5.337
0.220,0.051,0.303,-5.337
0.176,0.053,0.299,-5.337
0.172,0.054,0.297,-5.337
0.156,0.056,0.301,-5.337
0.188,0.060,0.307,-5.337
0.226,0.058,0.305,-5.337
0.248,0.057,0.303,-5.337
0.235,0.055,0.303,-5.337
0.271,0.053,0.301,-5.337
0.310,0.052,0.298,-5.337
0.282,0.055,0.299,-5.337
0.228,0.053,0.307,-5.337
0.184,0.050,0.312,-5.337
0.256,0.049,0.311,-5.337
0.309,0.051,0.307,-5.337
0.277,0.052,0.305,-5.337
0.192,0.055,0.302,-5.337
0.157,0.057,0.299,-5.337
0.219,0.055,0.295,-5.337
0.297,0.056,0.298,-5.337
0.220,0.058,0.299,-5.337
0.142,0.060,0.299,-5.337
0.169,0.059,0.299,-5.337
0.213,0.060,0.301,-5.337
0.196,0.061,0.304,-5.337
0.162,0.061,0.306,-5.337
0.213,0.056,0.302,-5.337
0.253,0.054,0.299,-5.337
0.238,0.056,0.299,-5.337
0.218,0.058,0.300,-5.337
0.218,0.055,0.302,-5.337
0.217,0.057,0.304,-5.337
0.244,0.054,0.302,-5.337
0.246,0.053,0.300,-5.337
0.216,0.059,0.302,-5.337
0.212,0.061,0.301,-5.337
0.261,0.059,0.301,-5.337
0.277,0.055,0.301,-5.337
0.259,0.054,0.299,-5.337
0.224,0.056,0.299,-5.337
0.216,0.055,0.301,-5.337
0.235,0.056,0.302,-5.337
0.200,0.056,0.305,-5.337
0.236,0.056,0.307,-5.337
0.271,0.058,0.306,-5.337
0.197,0.060,0.303,-5.337
0.222,0.063,0.301,-5.337
0.228,0.063,0.300,-5.337
0.265,0.061,0.300,-5.337
0.292,0.059,0.299,-5.337
0.235,0.060,0.303,-5.337
0.190,0.060,0.302,-5.337
0.245,0.063,0.301,-5.337
0.252,0.064,0.302,-5.337
0.235,0.063,0.303,-5.337
0.225,0.064,0.301,-5.337
0.201,0.063,0.302,-5.337
0.214,0.060,0.303,-5.337
0.206,0.060,0.303,-5.337
0.157,0.060,0.301,-5.337
0.194,0.060,0.297,-5.337
0.221,0.065,0.298,-5.337
0.198,0.066,0.299,-5.337
0.152,0.065,0.303,-5.337
0.154,0.062,0.304,-5.337
0.199,0.063,0.304,-5.337
0.196,0.064,0.305,-5.337
0.214,0.061,0.303,-5.337
0.207,0.065,0.299,-5.337
0.170,0.064,0.299,-5.337
0.174,0.067,0.300,-5.337
0.181,0.067,0.300,-5.337
0.175,0.062,0.297,-5.337
0.220,0.059,0.295,-5.337
0.270,0.058,0.298,-5.337
0.276,0.060,0.303,-5.337
0.211,0.058,0.306,-5.337
0.168,0.056,0.302,-5.337
0.220,0.057,0.297,-5.337
0.222,0.061,0.296,-5.337
0.198,0.058,0.297,-5.337
0.240,0.054,0.302,-5.337
0.226,0.056,0.307,-5.337
0.177,0.058,0.306,-5.337
0.191,0.059,0.306,-5.337
0.264,0.059,0.304,-5.337
0.261,0.060,0.305,-5.337
0.269,0.059,0.305,-5.337
0.235,0.058,0.305,-5.337
0.214,0.054,0.305,-5.337
0.315,0.052,0.307,-5.337
0.372,0.053,0.304,-5.337
0.283,0.053,0.302,-5.337
0.231,0.055,0.301,-5.337
0.224,0.054,0.301,-5.337
0.260,0.056,0.301,-5.337
0.222,0.061,0.304,-5.337
0.207,0.060,0.305,-5.337
0.220,0.061,0.306,-5.337
0.206,0.063,0.301,-5.337
0.214,0.062,0.299,-5.337
0.222,0.062,0.299,-5.337
0.189,0.066,0.305,-5.337
0.164,0.062,0.308,-5.337
0.267,0.058,0.308,-5.337
0.292,0.059,0.305,-5.337
0.193,0.064,0.300,-5.337
0.120,0.064,0.297,-5.337
0.198,0.063,0.300,-5.337
0.229,0.063,0.306,-5.337
0.214,0.063,0.304,-5.337
0.253,0.061,0.301,-5.337
0.248,0.061,0.299,-5.337
0.245,0.062,0.299,-5.337
0.245,0.063,0.299,-5.337
0.263,0.062,0.303,-5.337
0.263,0.062,0.305,-5.337
0.266,0.065,0.306,-5.337
0.285,0.062,0.304,-5.337
0.283,0.061,0.303,-5.337
0.249,0.063,0.305,-5.337
0.247,0.065,0.305,-5.337
0.161,0.067,0.302,-5.337
0.138,0.068,0.304,-5.337
0.201,0.069,0.302,-5.337
0.196,0.065,0.304,-5.337
0.197,0.065,0.305,-5.337
0.243,0.065,0.307,-5.337
0.230,0.065,0.308,-5.337
0.197,0.062,0.306,-5.337
0.220,0.062,0.305,-5.337
0.274,0.062,0.304,-5.337
0.297,0.065,0.302,-5.337
0.272,0.063,0.302,-5.337
0.235,0.064,0.303,-5.337
0.232,0.063,0.300,-5.337
0.259,0.064,0.303,-5.337
0.244,0.064,0.304,-5.337
0.195,0.066,0.305,-5.337
0.182,0.066,0.304,-5.337
0.228,0.063,0.304,-5.337
0.306,0.058,0.302,-5.337
0.334,0.059,0.300,-5.337
0.261,0.062,0.301,-5.337
0.204,0.063,0.306,-5.337
0.211,0.062,0.307,-5.337
0.198,0.064,0.307,-5.337
0.197,0.065,0.307,-5.337
0.140,0.066,0.305,-5.337
0.181,0.061,0.302,-5.337
0.259,0.059,0.301,-5.337
0.299,0.059,0.301,-5.337
0.258,0.059,0.300,-5.337
0.216,0.059,0.302,-5.337
0.247,0.058,0.307,-5.337
0.289,0.060,0.308,-5.337
0.243,0.064,0.305,-5.337
0.195,0.063,0.303,-5.337
0.191,0.060,0.303,-5.337
0.184,0.060,0.304,-5.337
0.219,0.059,0.303,-5.337
0.235,0.058,0.301,-5.337
0.191,0.059,0.299,-5.337
0.172,0.061,0.301,-5.337
0.229,0.063,0.299,-5.337
0.236,0.061,0.299,-5.337
0.196,0.059,0.303,-5.337
0.174,0.060,0.307,-5.337
0.206,0.056,0.311,-5.337
0.264,0.055,0.309,-5.337
0.186,0.057,0.303,-5.337
0.186,0.059,0.303,-5.337
0.200,0.061,0.307,-5.337
0.157,0.059,0.308,-5.337
0.159,0.055,0.305,-5.337
0.210,0.055,0.301,-5.337
0.263,0.053,0.301,-5.337
0.230,0.053,0.303,-5.337
0.241,0.053,0.308,-5.337
0.230,0.054,0.306,-5.337
0.163,0.055,0.306,-5.337
0.128,0.055,0.303,-5.337
0.185,0.052,0.299,-5.337
0.223,0.052,0.297,-5.337
0.221,0.053,0.298,-5.337
0.176,0.050,0.299,-5.337
0.170,0.052,0.305,-5.337
0.201,0.050,0.307,-5.337
0.245,0.049,0.304,-5.337
0.209,0.049,0.305,-5.337
0.149,0.050,0.304,-5.337
0.189,0.049,0.303,-5.337
0.268,0.051,0.302,-5.337
0.291,0.049,0.302,-5.337
0.182,0.054,0.304,-5.337
0.198,0.052,0.301,-5.337
0.247,0.050,0.297,-5.337
0.233,0.055,0.298,-5.337
0.218,0.052,0.302,-5.337
0.230,0.046,0.303,-5.337
0.282,0.044,0.304,-5.337
0.274,0.047,0.308,-5.337
0.229,0.048,0.306,-5.337
0.238,0.047,0.305,-5.337
0.259,0.047,0.304,-5.337
0.235,0.049,0.307,-5.337
0.173,0.055,0.303,-5.337
0.172,0.055,0.302,-5.337
0.205,0.049,0.302,-5.337
0.190,0.052,0.303,-5.337
0.156,0.049,0.301,-5.337
0.160,0.050,0.301,-5.337
0.174,0.045,0.303,-5.337
0.209,0.043,0.310,-5.337
0.199,0.044,0.311,-5.337
0.188,0.044,0.307,-5.337
0.223,0.043,0.300,-5.337
0.218,0.049,0.297,-5.337
0.229,0.050,0.297,-5.337
0.193,0.048,0.302,-5.337
0.203,0.046,0.306,-5.337
0.203,0.048,0.305,-5.337
0.150,0.049,0.303,-5.337
0.114,0.048,0.305,-5.337
0.203,0.047,0.305,-5.337
0.249,0.048,0.301,-5.337
0.180,0.049,0.300,-5.337
0.142,0.048,0.300,-5.337
0.180,0.049,0.303,-5.337
0.175,0.049,0.303,-5.337
0.106,0.048,0.306,-5.337
0.083,0.044,0.307,-5.337
0.127,0.046,0.306,-5.337
0.161,0.049,0.303,-5.337
0.206,0.046,0.299,-5.337
0.230,0.042,0.299,-5.337
0.161,0.043,0.302,-5.337
0.158,0.046,0.307,-5.337
0.180,0.046,0.312,-5.337
0.174,0.045,0.311,-5.337
0.140,0.046,0.306,-5.337
0.143,0.046,0.303,-5.337
0.202,0.045,0.301,-5.337
0.180,0.047,0.297,-5.337
0.158,0.047,0.294,-5.337
0.158,0.048,0.295,-5.337
0.143,0.048,0.299,-5.337
0.139,0.050,0.303,-5.337
0.151,0.046,0.306,-5.337
0.186,0.042,0.307,-5.337
0.223,0.041,0.305,-5.337
0.189,0.040,0.303,-5.337
0.194,0.040,0.298,-5.337
0.204,0.040,0.301,-5.337
0.193,0.041,0.303,-5.337
0.234,0.040,0.302,-5.337
0.210,0.041,0.305,-5.337
0.223,0.038,0.305,-5.337
0.245,0.041,0.302,-5.337
0.209,0.045,0.304,-5.337
0.225,0.043,0.304,-5.337
0.267,0.048,0.304,-5.337
0.230,0.047,0.303,-5.337
0.205,0.046,0.300,-5.337
0.207,0.043,0.298,-5.337
0.197,0.046,0.299,-5.337
0.161,0.047,0.305,-5.337
0.163,0.047,0.309,-5.337
0.144,0.044,0.309,-5.337
0.189,0.043,0.307,-5.337
0.202,0.043,0.304,-5.337
0.175,0.045,0.300,-5.337
0.182,0.045,0.301,-5.337
0.165,0.044,0.300,-5.337
0.105,0.047,0.303,-5.337
0.084,0.045,0.303,-5.337
0.125,0.043,0.305,-5.337
0.177,0.042,0.306,-5.337
0.195,0.044,0.304,-5.337
0.172,0.043,0.302,-5.337
0.164,0.041,0.304,-5.337
0.094,0.044,0.306,-5.337
0.101,0.043,0.306,-5.337
0.170,0.041,0.308,-5.337
0.184,0.041,0.306,-5.337
0.139,0.042,0.304,-5.337
0.142,0.042,0.305,-5.337
0.133,0.046,0.303,-5.337
0.126,0.046,0.300,-5.337
0.144,0.044,0.302,-5.337
0.242,0.043,0.306,-5.337
0.257,0.041,0.306,-5.337
0.212,0.044,0.304,-5.337
0.122,0.046,0.306,-5.337
0.130,0.044,0.306,-5.337
0.123,0.046,0.304,-5.337
0.170,0.044,0.302,-5.337
0.188,0.044,0.301,-5.337
0.167,0.043,0.303,-5.337
0.177,0.040,0.303,-5.337
0.181,0.039,0.298,-5.337
0.136,0.044,0.296,-5.337
0.101,0.046,0.301,-5.337
0.136,0.045,0.305,-5.337
0.119,0.044,0.307,-5.337
0.042,0.048,0.307,-5.337
0.076,0.052,0.307,-5.337
0.109,0.050,0.305,-5.337
0.178,0.045,0.300,-5.337
0.187,0.045,0.302,-5.337
0.163,0.048,0.305,-5.337
0.183,0.046,0.306,-5.337
0.255,0.043,0.306,-5.337
0.226,0.043,0.304,-5.337
0.253,0.042,0.307,-5.337
0.235,0.044,0.307,-5.337
0.116,0.048,0.303,-5.337
0.098,0.048,0.298,-5.337
0.191,0.043,0.298,-5.337
0.276,0.037,0.302,-5.337
0.270,0.038,0.305,-5.337
0.184,0.039,0.303,-5.337
0.141,0.039,0.304,-5.337
0.131,0.040,0.305,-5.337
0.124,0.041,0.303,-5.337
0.128,0.044,0.301,-5.337
0.083,0.044,0.300,-5.337
0.091,0.041,0.304,-5.337
0.115,0.044,0.309,-5.337
0.080,0.045,0.310,-5.337
0.053,0.046,0.306,-5.337
0.129,0.042,0.300,-5.337
0.200,0.041,0.299,-5.337
0.153,0.044,0.303,-5.337
0.127,0.039,0.301,-5.337
0.127,0.035,0.300,-5.337
0.146,0.034,0.302,-5.337
0.175,0.038,0.300,-5.337
0.135,0.044,0.297,-5.337
0.127,0.048,0.299,-5.337
0.168,0.044,0.303,-5.337
0.184,0.043,0.307,-5.337
0.144,0.043,0.305,-5.337
0.113,0.044,0.302,-5.337
0.155,0.042,0.301,-5.337
0.259,0.041,0.301,-5.337
0.239,0.042,0.304,-5.337
0.190,0.046,0.308,-5.337
0.154,0.045,0.305,-5.337
0.175,0.040,0.303,-5.337
0.155,0.038,0.302,-5.337
0.110,0.043,0.303,-5.337
0.193,0.043,0.302,-5.337
0.169,0.044,0.302,-5.337
0.086,0.044,0.306,-5.337
0.055,0.044,0.309,-5.337
0.090,0.046,0.309,-5.337
0.112,0.042,0.308,-5.337
0.180,0.044,0.304,-5.337
0.213,0.044,0.302,-5.337
0.204,0.039,0.302,-5.337
0.204,0.037,0.305,-5.337
0.184,0.041,0.308,-5.337
0.163,0.045,0.308,-5.337
0.183,0.044,0.307,-5.337
0.245,0.040,0.301,-5.337
0.260,0.039,0.300,-5.337
0.250,0.038,0.301,-5.337
0.189,0.042,0.299,-5.337
0.137,0.041,0.298,-5.337
0.173,0.041,0.302,-5.337
0.249,0.039,0.303,-5.337
0.195,0.042,0.302,-5.337
0.158,0.044,0.306,-5.337
0.155,0.047,0.310,-5.337
0.126,0.046,0.309,-5.337
0.075,0.042,0.307,-5.337
0.106,0.043,0.304,-5.337
0.174,0.042,0.303,-5.337
0.183,0.042,0.304,-5.337
0.138,0.045,0.306,-5.337
0.129,0.045,0.306,-5.337
0.125,0.043,0.305,-5.337
0.144,0.040,0.308,-5.337
0.117,0.044,0.308,-5.337
0.139,0.045,0.307,-5.337
0.148,0.045,0.304,-5.337
0.140,0.043,0.305,-5.337
0.116,0.043,0.303,-5.337
0.147,0.045,0.302,-5.337
0.152,0.045,0.306,-5.337
0.158,0.048,0.310,-5.337
0.176,0.047,0.310,-5.337
0.191,0.045,0.305,-5.337
0.148,0.046,0.303,-5.337
0.155,0.046,0.302,-5.337
0.234,0.046,0.299,-5.337
0.271,0.047,0.301,-5.337
0.289,0.051,0.304,-5.337
0.180,0.057,0.307,-5.337
0.130,0.057,0.305,-5.337
0.198,0.051,0.299,-5.337
0.270,0.043,0.302,-5.337
0.254,0.045,0.306,-5.337
0.153,0.048,0.307,-5.337
0.140,0.050,0.305,-5.337
0.172,0.051,0.304,-5.337
0.157,0.053,0.302,-5.337
0.150,0.054,0.306,-5.337
0.157,0.048,0.304,-5.337
0.138,0.050,0.306,-5.337
0.142,0.052,0.308,-5.337
0.206,0.052,0.309,-5.337
0.233,0.047,0.309,-5.337
0.235,0.051,0.307,-5.337
0.217,0.050,0.304,-5.337
0.180,0.050,0.302,-5.337
0.217,0.045,0.303,-5.337
0.196,0.051,0.303,-5.337
0.168,0.057,0.300,-5.337
0.163,0.059,0.301,-5.337
0.155,0.054,0.306,-5.337
0.163,0.053,0.310,-5.337
0.220,0.051,0.309,-5.337
0.215,0.059,0.307,-5.337
0.180,0.059,0.305,-5.337
0.224,0.052,0.300,-5.337
0.264,0.050,0.299,-5.337
0.237,0.050,0.300,-5.337
0.208,0.052,0.304,-5.337
0.158,0.055,0.304,-5.337
0.224,0.054,0.306,-5.337
0.228,0.052,0.307,-5.337
0.137,0.055,0.306,-5.337
0.095,0.055,0.303,-5.337
0.090,0.054,0.303,-5.337
0.116,0.053,0.304,-5.337
0.167,0.050,0.307,-5.337
0.214,0.048,0.311,-5.337
0.238,0.049,0.310,-5.337
0.233,0.051,0.306,-5.337
0.233,0.052,0.309,-5.337
0.210,0.055,0.306,-5.337
0.136,0.056,0.304,-5.337
0.131,0.054,0.303,-5.337
0.178,0.050,0.302,-5.337
0.170,0.047,0.303,-5.337
0.184,0.048,0.302,-5.337
0.215,0.048,0.300,-5.337
0.233,0.049,0.298,-5.337
0.241,0.048,0.297,-5.337
0.220,0.049,0.300,-5.337
0.213,0.054,0.307,-5.337
0.166,0.058,0.309,-5.337
0.146,0.057,0.311,-5.337
0.170,0.056,0.309,-5.337
0.214,0.053,0.310,-5.337
0.156,0.055,0.307,-5.337
0.138,0.054,0.301,-5.337
0.073,0.055,0.297,-5.337
0.069,0.059,0.302,-5.337
0.120,0.057,0.307,-5.337
0.215,0.056,0.309,-5.337
0.267,0.056,0.306,-5.337
0.225,0.058,0.304,-5.337
0.139,0.062,0.305,-5.337
0.104,0.061,0.304,-5.337
0.160,0.055,0.303,-5.337
0.238,0.054,0.305,-5.337
0.247,0.055,0.303,-5.337
0.222,0.055,0.301,-5.337
0.223,0.057,0.301,-5.337
0.197,0.057,0.301,-5.337
0.168,0.057,0.305,-5.337
0.162,0.058,0.305,-5.337
0.148,0.059,0.306,-5.337
0.182,0.056,0.308,-5.337
0.186,0.054,0.308,-5.337
0.154,0.057,0.303,-5.337
0.166,0.059,0.303,-5.337
0.183,0.061,0.299,-5.337
0.187,0.059,0.296,-5.337
0.187,0.055,0.297,-5.337
0.187,0.057,0.302,-5.337
0.160,0.056,0.304,-5.337
0.218,0.054,0.304,-5.337
0.242,0.054,0.303,-5.337
0.206,0.056,0.305,-5.337
0.184,0.055,0.305,-5.337
0.132,0.058,0.304,-5.337
0.136,0.057,0.304,-5.337
0.208,0.058,0.304,-5.337
0.182,0.060,0.306,-5.337
0.198,0.060,0.307,-5.337
0.200,0.060,0.304,-5.337
0.233,0.058,0.300,-5.337
0.292,0.057,0.301,-5.337
0.273,0.060,0.304,-5.337
0.182,0.065,0.307,-5.337
0.184,0.062,0.307,-5.337
0.196,0.057,0.303,-5.337
0.175,0.061,0.297,-5.337
0.156,0.069,0.295,-5.337
0.189,0.071,0.296,-5.337
0.182,0.068,0.297,-5.337
0.182,0.066,0.302,-5.337
0.203,0.065,0.309,-5.337
0.217,0.065,0.308,-5.337
0.275,0.061,0.305,-5.337
0.296,0.063,0.302,-5.337
0.253,0.065,0.305,-5.337
0.190,0.068,0.304,-5.337
0.211,0.066,0.303,-5.337
0.222,0.064,0.300,-5.337
0.229,0.064,0.303,-5.337
0.225,0.063,0.310,-5.337
0.219,0.063,0.311,-5.337
0.238,0.063,0.308,-5.337
0.288,0.062,0.305,-5.337
0.271,0.058,0.303,-5.337
0.271,0.061,0.298,-5.337
0.243,0.062,0.297,-5.337
0.185,0.063,0.299,-5.337
0.141,0.062,0.300,-5.337
0.215,0.058,0.297,-5.337
0.223,0.060,0.300,-5.337
0.201,0.061,0.302,-5.337
0.209,0.063,0.305,-5.337
0.210,0.065,0.306,-5.337
0.202,0.069,0.305,-5.337
0.179,0.070,0.305,-5.337
0.171,0.069,0.304,-5.337
0.159,0.068,0.305,-5.337
0.138,0.068,0.311,-5.337
0.158,0.069,0.308,-5.337
0.179,0.070,0.303,-5.337
0.149,0.069,0.300,-5.337
0.205,0.070,0.300,-5.337
0.267,0.071,0.302,-5.337
0.264,0.071,0.303,-5.337
0.285,0.066,0.305,-5.337
0.252,0.069,0.304,-5.337
0.160,0.072,0.303,-5.337
0.136,0.070,0.301,-5.337
0.207,0.066,0.305,-5.337
0.239,0.064,0.305,-5.337
0.220,0.066,0.303,-5.337
0.166,0.067,0.304,-5.337
0.176,0.066,0.306,-5.337
0.248,0.064,0.306,-5.337
0.249,0.067,0.304,-5.337
0.222,0.065,0.302,-5.337
0.193,0.067,0.302,-5.337
0.154,0.067,0.301,-5.337
0.148,0.068,0.299,-5.337
0.186,0.069,0.302,-5.337
0.188,0.070,0.307,-5.337
0.210,0.072,0.306,-5.337
0.250,0.069,0.303,-5.337
0.243,0.069,0.302,-5.337
0.270,0.071,0.305,-5.337
0.286,0.068,0.306,-5.337
0.267,0.070,0.304,-5.337
0.243,0.074,0.300,-5.337
0.204,0.073,0.303,-5.337
0.249,0.069,0.308,-5.337
0.319,0.066,0.309,-5.337
0.342,0.066,0.307,-5.337
0.253,0.069,0.305,-5.337
0.142,0.069,0.302,-5.337
0.167,0.068,0.299,-5.337
0.215,0.068,0.299,-5.337
0.240,0.065,0.300,-5.337
0.233,0.062,0.303,-5.337
0.242,0.062,0.302,-5.337
0.192,0.065,0.303,-5.337
0.173,0.068,0.301,-5.337
0.191,0.069,0.301,-5.337
0.186,0.069,0.301,-5.337
0.175,0.070,0.306,-5.337
0.158,0.066,0.306,-5.337
0.152,0.067,0.300,-5.337
0.157,0.067,0.300,-5.337
0.146,0.067,0.302,-5.337
0.134,0.068,0.306,-5.337
0.195,0.068,0.305,-5.337
0.271,0.067,0.305,-5.337
0.285,0.064,0.304,-5.337
0.271,0.065,0.306,-5.337
0.206,0.067,0.304,-5.337
0.213,0.069,0.301,-5.337
0.274,0.064,0.300,-5.337
0.317,0.060,0.303,-5.337
0.263,0.065,0.303,-5.337
0.250,0.067,0.305,-5.337
0.296,0.068,0.303,-5.337
0.287,0.068,0.302,-5.337
0.319,0.065,0.299,-5.337
0.376,0.063,0.301,-5.337
0.325,0.062,0.301,-5.337
0.200,0.069,0.300,-5.337
0.183,0.069,0.299,-5.337
0.202,0.068,0.301,-5.337
0.182,0.068,0.302,-5.337
0.208,0.067,0.303,-5.337
0.266,0.065,0.300,-5.337
0.294,0.067,0.300,-5.337
0.254,0.069,0.300,-5.337
0.239,0.067,0.306,-5.337
0.245,0.068,0.311,-5.337
0.236,0.069,0.307,-5.337
0.191,0.068,0.302,-5.337
0.226,0.068,0.298,-5.337
0.257,0.066,0.299,-5.337
0.251,0.065,0.299,-5.337
0.204,0.066,0.302,-5.337
0.169,0.069,0.307,-5.337
0.185,0.073,0.311,-5.337
0.204,0.070,0.306,-5.337
0.201,0.068,0.301,-5.337
0.201,0.068,0.298,-5.337
0.247,0.068,0.297,-5.337
0.231,0.067,0.300,-5.337
0.215,0.069,0.305,-5.337
0.250,0.066,0.306,-5.337
0.207,0.065,0.301,-5.337
0.180,0.068,0.298,-5.337
0.227,0.067,0.301,-5.337
0.288,0.065,0.301,-5.337
0.225,0.066,0.302,-5.337
0.138,0.065,0.305,-5.337
0.180,0.067,0.301,-5.337
0.247,0.064,0.299,-5.337
0.207,0.063,0.302,-5.337
0.175,0.064,0.305,-5.337
0.206,0.065,0.300,-5.337
0.211,0.066,0.298,-5.337
0.244,0.065,0.304,-5.337
0.254,0.068,0.309,-5.337
0.278,0.066,0.309,-5.337
0.293,0.065,0.305,-5.337
0.289,0.067,0.303,-5.337
0.266,0.065,0.302,-5.337
0.261,0.065,0.303,-5.337
0.273,0.065,0.305,-5.337
0.280,0.064,0.301,-5.337
0.248,0.063,0.299,-5.337
0.152,0.066,0.299,-5.337
0.191,0.065,0.302,-5.337
0.245,0.062,0.305,-5.337
0.237,0.062,0.312,-5.337
0.183,0.063,0.310,-5.337
0.164,0.064,0.309,-5.337
0.239,0.064,0.307,-5.337
0.249,0.062,0.304,-5.337
0.244,0.063,0.305,-5.337
0.225,0.068,0.304,-5.337
0.216,0.067,0.305,-5.337
0.297,0.063,0.302,-5.337
0.293,0.066,0.300,-5.337
0.239,0.067,0.299,-5.337
0.218,0.065,0.304,-5.337
0.217,0.060,0.305,-5.337
0.197,0.061,0.305,-5.337
0.185,0.061,0.302,-5.337
0.227,0.058,0.298,-5.337
0.208,0.058,0.297,-5.337
0.138,0.065,0.302,-5.337
0.156,0.061,0.309,-5.337
0.200,0.062,0.313,-5.337
0.213,0.058,0.310,-5.337
0.233,0.059,0.307,-5.337
0.216,0.058,0.304,-5.337
0.190,0.057,0.301,-5.337
0.169,0.060,0.301,-5.337
0.148,0.063,0.303,-5.337
0.135,0.059,0.306,-5.337
0.213,0.055,0.308,-5.337
0.223,0.056,0.311,-5.337
0.232,0.058,0.313,-5.337
0.255,0.059,0.310,-5.337
0.247,0.059,0.303,-5.337
0.226,0.058,0.300,-5.337
0.181,0.061,0.300,-5.337
0.192,0.061,0.303,-5.337
0.206,0.057,0.302,-5.337
0.194,0.057,0.300,-5.337
0.206,0.060,0.302,-5.337
0.223,0.060,0.305,-5.337
0.309,0.053,0.307,-5.337
0.307,0.053,0.306,-5.337
0.240,0.056,0.304,-5.337
0.186,0.058,0.302,-5.337
0.173,0.056,0.301,-5.337
0.206,0.056,0.305,-5.337
0.191,0.057,0.309,-5.337
0.140,0.059,0.308,-5.337
0.138,0.059,0.303,-5.337
0.121,0.060,0.301,-5.337
0.146,0.059,0.302,-5.337
0.161,0.055,0.305,-5.337
0.222,0.053,0.306,-5.337
0.237,0.052,0.310,-5.337
0.267,0.055,0.311,-5.337
0.231,0.055,0.310,-5.337
0.233,0.052,0.309,-5.337
0.179,0.056,0.304,-5.337
0.121,0.057,0.300,-5.337
0.112,0.059,0.299,-5.337
0.134,0.055,0.303,-5.337
0.230,0.052,0.304,-5.337
0.161,0.054,0.306,-5.337
0.049,0.054,0.304,-5.337
0.062,0.055,0.303,-5.337
0.157,0.053,0.301,-5.337
0.239,0.053,0.297,-5.337
0.260,0.053,0.298,-5.337
0.172,0.055,0.304,-5.337
0.164,0.053,0.307,-5.337
0.215,0.049,0.306,-5.337
0.209,0.048,0.305,-5.337
0.193,0.049,0.303,-5.337
0.213,0.054,0.303,-5.337
0.221,0.054,0.302,-5.337
0.245,0.051,0.301,-5.337
0.235,0.051,0.300,-5.337
0.223,0.052,0.303,-5.337
0.197,0.054,0.303,-5.337
0.180,0.054,0.304,-5.337
0.135,0.052,0.302,-5.337
0.142,0.053,0.306,-5.337
0.164,0.054,0.307,-5.337
0.219,0.051,0.306,-5.337
0.225,0.053,0.301,-5.337
0.204,0.054,0.303,-5.337
0.134,0.053,0.305,-5.337
0.155,0.049,0.307,-5.337
0.193,0.044,0.305,-5.337
0.222,0.047,0.304,-5.337
0.187,0.049,0.301,-5.337
0.178,0.050,0.301,-5.337
0.162,0.050,0.300,-5.337
0.157,0.051,0.301,-5.337
0.143,0.051,0.302,-5.337
0.135,0.052,0.304,-5.337
0.101,0.053,0.303,-5.337
0.161,0.050,0.302,-5.337
0.236,0.049,0.306,-5.337
0.262,0.050,0.305,-5.337
0.262,0.048,0.302,-5.337
0.206,0.046,0.302,-5.337
0.183,0.050,0.300,-5.337
0.169,0.050,0.303,-5.337
0.193,0.048,0.305,-5.337
0.192,0.051,0.308,-5.337
0.180,0.052,0.309,-5.337
0.138,0.052,0.305,-5.337
0.141,0.049,0.304,-5.337
0.168,0.048,0.302,-5.337
0.190,0.049,0.302,-5.337
0.157,0.050,0.301,-5.337
0.123,0.046,0.300,-5.337
0.161,0.046,0.304,-5.337
0.154,0.046,0.311,-5.337
0.102,0.048,0.311,-5.337
0.091,0.049,0.310,-5.337
0.055,0.048,0.308,-5.337
0.111,0.046,0.304,-5.337
0.161,0.047,0.303,-5.337
0.165,0.045,0.298,-5.337
0.170,0.044,0.296,-5.337
0.242,0.049,0.301,-5.337
0.203,0.052,0.307,-5.337
0.135,0.049,0.305,-5.337
0.096,0.048,0.302,-5.337
0.109,0.043,0.297,-5.337
0.191,0.042,0.298,-5.337
0.174,0.043,0.301,-5.337
0.110,0.047,0.304,-5.337
0.064,0.049,0.303,-5.337
0.137,0.051,0.302,-5.337
0.208,0.049,0.304,-5.337
0.212,0.047,0.304,-5.337
0.201,0.047,0.301,-5.337
0.173,0.046,0.303,-5.337
0.177,0.045,0.305,-5.337
0.257,0.047,0.305,-5.337
0.221,0.049,0.303,-5.337
0.147,0.048,0.303,-5.337
0.146,0.044,0.302,-5.337
0.186,0.042,0.302,-5.337
0.259,0.039,0.305,-5.337
0.269,0.041,0.305,-5.337
0.232,0.042,0.309,-5.337
0.148,0.049,0.307,-5.337
0.113,0.050,0.305,-5.337
0.152,0.044,0.305,-5.337
0.173,0.044,0.308,-5.337
0.126,0.043,0.310,-5.337
0.149,0.044,0.309,-5.337
0.180,0.044,0.304,-5.337
0.160,0.042,0.300,-5.337
0.086,0.046,0.305,-5.337
0.045,0.051,0.307,-5.337
0.099,0.045,0.305,-5.337
0.161,0.043,0.303,-5.337
0.139,0.042,0.301,-5.337
0.110,0.043,0.302,-5.337
0.135,0.045,0.300,-5.337
0.153,0.044,0.300,-5.337
0.134,0.041,0.301,-5.337
0.156,0.042,0.304,-5.337
0.128,0.039,0.304,-5.337
0.126,0.038,0.308,-5.337
0.152,0.038,0.309,-5.337
0.177,0.037,0.305,-5.337
0.175,0.039,0.301,-5.337
0.184,0.037,0.298,-5.337
0.146,0.039,0.303,-5.337
0.116,0.037,0.308,-5.337
0.160,0.037,0.307,-5.337
0.206,0.041,0.306,-5.337
0.133,0.047,0.306,-5.337
0.116,0.045,0.307,-5.337
0.157,0.043,0.308,-5.337
0.146,0.043,0.306,-5.337
0.131,0.047,0.301,-5.337
0.113,0.047,0.300,-5.337
0.136,0.045,0.301,-5.337
0.161,0.044,0.303,-5.337
0.149,0.045,0.308,-5.337
0.165,0.044,0.308,-5.337
0.135,0.042,0.305,-5.337
0.125,0.038,0.306,-5.337
0.140,0.035,0.304,-5.337
0.137,0.037,0.301,-5.337
0.111,0.042,0.301,-5.337
0.079,0.044,0.302,-5.337
0.099,0.043,0.305,-5.337
0.139,0.043,0.305,-5.337
0.140,0.044,0.302,-5.337
0.230,0.039,0.304,-5.337
0.246,0.040,0.303,-5.337
0.167,0.045,0.301,-5.337
0.124,0.042,0.304,-5.337
0.136,0.040,0.311,-5.337
0.149,0.041,0.310,-5.337
0.187,0.043,0.307,-5.337
0.232,0.042,0.307,-5.337
0.201,0.042,0.308,-5.337
0.119,0.038,0.305,-5.337
0.135,0.041,0.302,-5.337
0.171,0.041,0.301,-5.337
0.166,0.041,0.301,-5.337
0.153,0.037,0.304,-5.337
0.152,0.039,0.305,-5.337
0.150,0.040,0.303,-5.337
0.117,0.044,0.300,-5.337
0.159,0.047,0.299,-5.337
0.142,0.043,0.296,-5.337
0.149,0.040,0.299,-5.337
0.099,0.042,0.301,-5.337
0.061,0.040,0.302,-5.337
0.133,0.035,0.304,-5.337
0.211,0.035,0.306,-5.337
0.226,0.037,0.305,-5.337
0.135,0.040,0.307,-5.337
0.091,0.041,0.310,-5.337
0.124,0.040,0.309,-5.337
0.189,0.038,0.305,-5.337
0.153,0.037,0.299,-5.337
0.136,0.035,0.298,-5.337
0.224,0.032,0.297,-5.337
0.248,0.032,0.299,-5.337
0.242,0.033,0.300,-5.337
0.181,0.031,0.301,-5.337
0.165,0.030,0.303,-5.337
0.176,0.033,0.306,-5.337
0.127,0.037,0.306,-5.337
0.148,0.037,0.306,-5.337
0.170,0.034,0.303,-5.337
0.151,0.034,0.298,-5.337
0.145,0.036,0.298,-5.337
0.181,0.040,0.304,-5.337
0.149,0.039,0.309,-5.337
0.149,0.035,0.311,-5.337
0.169,0.035,0.305,-5.337
0.133,0.039,0.303,-5.337
0.096,0.044,0.303,-5.337
0.149,0.039,0.306,-5.337
0.173,0.033,0.305,-5.337
0.199,0.035,0.308,-5.337
0.236,0.032,0.305,-5.337
0.248,0.031,0.304,-5.337
0.255,0.033,0.303,-5.337
0.215,0.035,0.301,-5.337
0.190,0.032,0.303,-5.337
0.167,0.035,0.302,-5.337
0.135,0.039,0.302,-5.337
0.145,0.041,0.304,-5.337
0.132,0.041,0.304,-5.337
0.100,0.040,0.304,-5.337
0.167,0.041,0.305,-5.337
0.268,0.036,0.305,-5.337
0.258,0.038,0.306,-5.337
0.101,0.046,0.308,-5.337
0.078,0.045,0.308,-5.337
0.191,0.044,0.306,-5.337
0.216,0.041,0.307,-5.337
0.161,0.039,0.304,-5.337
0.121,0.041,0.304,-5.337
0.113,0.040,0.305,-5.337
0.114,0.042,0.307,-5.337
0.192,0.042,0.305,-5.337
0.269,0.041,0.301,-5.337
0.224,0.044,0.298,-5.337
0.166,0.047,0.302,-5.337
0.150,0.048,0.306,-5.337
0.190,0.044,0.308,-5.337
0.180,0.044,0.305,-5.337
0.126,0.043,0.304,-5.337
0.126,0.044,0.306,-5.337
0.197,0.043,0.307,-5.337
0.237,0.042,0.306,-5.337
0.171,0.042,0.305,-5.337
0.185,0.042,0.302,-5.337
0.232,0.045,0.304,-5.337
0.161,0.047,0.308,-5.337
0.163,0.044,0.304,-5.337
0.255,0.039,0.306,-5.337
0.287,0.041,0.305,-5.337
0.216,0.046,0.306,-5.337
0.213,0.046,0.306,-5.337
0.233,0.042,0.307,-5.337
0.231,0.037,0.307,-5.337
0.175,0.041,0.306,-5.337
0.152,0.043,0.301,-5.337
0.144,0.042,0.301,-5.337
0.180,0.040,0.308,-5.337
0.218,0.036,0.312,-5.337
0.203,0.038,0.309,-5.337
0.157,0.040,0.303,-5.337
0.139,0.037,0.301,-5.337
0.165,0.036,0.306,-5.337
0.194,0.037,0.308,-5.337
0.209,0.041,0.307,-5.337
0.193,0.043,0.305,-5.337
0.231,0.042,0.307,-5.337
0.229,0.043,0.307,-5.337
0.163,0.045,0.304,-5.337
0.150,0.045,0.305,-5.337
0.172,0.046,0.302,-5.337
0.200,0.048,0.302,-5.337
0.260,0.048,0.306,-5.337
0.206,0.052,0.311,-5.337
0.143,0.050,0.310,-5.337
0.141,0.052,0.311,-5.337
0.123,0.052,0.306,-5.337
0.154,0.046,0.303,-5.337
0.187,0.045,0.301,-5.337
0.161,0.050,0.302,-5.337
0.185,0.049,0.306,-5.337
0.231,0.051,0.310,-5.337
0.202,0.052,0.309,-5.337
0.127,0.053,0.308,-5.337
0.132,0.049,0.308,-5.337
0.179,0.048,0.306,-5.337
0.268,0.048,0.304,-5.337
0.207,0.053,0.304,-5.337
0.176,0.054,0.304,-5.337
0.177,0.055,0.305,-5.337
0.192,0.054,0.306,-5.337
0.160,0.055,0.307,-5.337
0.138,0.054,0.308,-5.337
0.185,0.051,0.309,-5.337
0.151,0.053,0.308,-5.337
0.126,0.055,0.306,-5.337
0.168,0.054,0.304,-5.337
0.142,0.055,0.304,-5.337
0.117,0.058,0.305,-5.337
0.170,0.056,0.308,-5.337
0.248,0.050,0.307,-5.337
0.281,0.050,0.302,-5.337
0.225,0.055,0.300,-5.337
0.203,0.054,0.301,-5.337
0.275,0.048,0.305,-5.337
0.268,0.053,0.308,-5.337
0.189,0.053,0.308,-5.337
0.193,0.050,0.306,-5.337
0.286,0.052,0.306,-5.337
0.248,0.054,0.305,-5.337
0.196,0.052,0.302,-5.337
0.215,0.049,0.304,-5.337
0.185,0.052,0.305,-5.337
0.128,0.054,0.303,-5.337
0.117,0.057,0.301,-5.337
0.175,0.058,0.303,-5.337
0.204,0.055,0.309,-5.337
0.210,0.055,0.310,-5.337
0.170,0.058,0.307,-5.337
0.224,0.054,0.310,-5.337
0.292,0.052,0.310,-5.337
0.224,0.056,0.306,-5.337
0.246,0.057,0.299,-5.337
0.246,0.059,0.298,-5.337
0.157,0.061,0.299,-5.337
0.160,0.061,0.303,-5.337
0.158,0.061,0.303,-5.337
0.155,0.058,0.302,-5.337
0.110,0.060,0.301,-5.337
0.156,0.062,0.305,-5.337
0.251,0.060,0.309,-5.337
0.290,0.057,0.310,-5.337
0.213,0.062,0.305,-5.337
0.150,0.062,0.299,-5.337
0.136,0.063,0.298,-5.337
0.179,0.063,0.301,-5.337
0.284,0.060,0.304,-5.337
0.262,0.060,0.305,-5.337
0.223,0.061,0.307,-5.337
0.183,0.062,0.306,-5.337
0.179,0.063,0.304,-5.337
0.104,0.064,0.301,-5.337
0.083,0.064,0.301,-5.337
0.174,0.061,0.300,-5.337
0.216,0.060,0.301,-5.337
0.203,0.061,0.302,-5.337
0.258,0.060,0.306,-5.337
0.273,0.057,0.308,-5.337
0.210,0.063,0.308,-5.337
0.178,0.061,0.307,-5.337
0.243,0.060,0.304,-5.337
0.289,0.059,0.301,-5.337
0.188,0.067,0.300,-5.337
0.128,0.068,0.305,-5.337
0.113,0.066,0.306,-5.337
0.152,0.062,0.304,-5.337
0.184,0.059,0.303,-5.337
0.199,0.061,0.303,-5.337
0.245,0.061,0.302,-5.337
0.277,0.061,0.304,-5.337
0.242,0.060,0.305,-5.337
0.206,0.063,0.307,-5.337
0.172,0.066,0.306,-5.337
0.257,0.061,0.304,-5.337
0.343,0.060,0.301,-5.337
0.279,0.062,0.303,-5.337
0.251,0.063,0.301,-5.337
0.227,0.065,0.304,-5.337
0.177,0.067,0.307,-5.337
0.166,0.066,0.310,-5.337
0.094,0.065,0.307,-5.337
0.119,0.065,0.302,-5.337
0.155,0.061,0.298,-5.337
0.204,0.058,0.298,-5.337
0.146,0.059,0.304,-5.337
0.203,0.063,0.307,-5.337
0.330,0.059,0.305,-5.337
0.270,0.062,0.302,-5.337
0.199,0.062,0.302,-5.337
0.200,0.062,0.301,-5.337
0.205,0.065,0.299,-5.337
0.211,0.067,0.301,-5.337
0.247,0.065,0.304,-5.337
0.255,0.066,0.306,-5.337
0.240,0.068,0.307,-5.337
0.287,0.066,0.306,-5.337
0.318,0.065,0.308,-5.337
0.268,0.065,0.304,-5.337
0.259,0.064,0.304,-5.337
0.239,0.063,0.304,-5.337
0.182,0.063,0.305,-5.337
0.172,0.064,0.303,-5.337
0.162,0.067,0.301,-5.337
0.151,0.070,0.301,-5.337
0.110,0.070,0.304,-5.337
0.120,0.069,0.304,-5.337
0.172,0.069,0.303,-5.337
0.227,0.069,0.304,-5.337
0.187,0.073,0.308,-5.337
0.145,0.073,0.308,-5.337
0.153,0.071,0.306,-5.337
0.220,0.070,0.299,-5.337
0.283,0.069,0.296,-5.337
0.323,0.066,0.301,-5.337
0.273,0.065,0.306,-5.337
0.213,0.065,0.307,-5.337
0.229,0.067,0.308,-5.337
0.244,0.068,0.309,-5.337
0.215,0.068,0.305,-5.337
0.207,0.070,0.301,-5.337
0.216,0.072,0.296,-5.337
0.215,0.072,0.300,-5.337
0.231,0.071,0.302,-5.337
0.197,0.075,0.305,-5.337
0.191,0.077,0.304,-5.337
0.208,0.073,0.304,-5.337
0.267,0.068,0.303,-5.337
0.217,0.071,0.303,-5.337
0.154,0.072,0.303,-5.337
0.223,0.067,0.305,-5.337
0.281,0.064,0.303,-5.337
0.280,0.066,0.298,-5.337
0.251,0.066,0.294,-5.337
0.253,0.068,0.297,-5.337
0.258,0.065,0.303,-5.337
0.277,0.067,0.305,-5.337
0.247,0.067,0.305,-5.337
0.230,0.069,0.302,-5.337
0.256,0.074,0.303,-5.337
0.255,0.075,0.303,-5.337
0.235,0.075,0.304,-5.337
0.239,0.071,0.303,-5.337
0.221,0.071,0.303,-5.337
0.230,0.073,0.302,-5.337
0.208,0.072,0.302,-5.337
0.252,0.070,0.304,-5.337
0.272,0.069,0.304,-5.337
0.277,0.073,0.302,-5.337
0.283,0.067,0.305,-5.337
0.272,0.064,0.307,-5.337
0.198,0.066,0.308,-5.337
0.157,0.065,0.304,-5.337
0.147,0.064,0.300,-5.337
0.155,0.064,0.298,-5.337
0.193,0.064,0.299,-5.337
0.163,0.067,0.297,-5.337
0.108,0.066,0.298,-5.337
0.143,0.066,0.301,-5.337
0.149,0.071,0.303,-5.337
0.155,0.070,0.302,-5.337
0.147,0.069,0.300,-5.337
0.198,0.066,0.298,-5.337
0.233,0.064,0.296,-5.337
0.217,0.065,0.297,-5.337
0.194,0.067,0.299,-5.337
0.174,0.066,0.300,-5.337
0.175,0.064,0.301,-5.337
0.159,0.068,0.305,-5.337
0.129,0.070,0.307,-5.337
0.202,0.066,0.305,-5.337
0.275,0.066,0.301,-5.337
0.290,0.070,0.303,-5.337
0.192,0.074,0.302,-5.337
0.219,0.070,0.300,-5.337
0.276,0.067,0.298,-5.337
0.262,0.067,0.300,-5.337
0.246,0.067,0.300,-5.337
0.293,0.067,0.303,-5.337
0.255,0.068,0.305,-5.337
0.246,0.068,0.305,-5.337
0.233,0.068,0.303,-5.337
0.187,0.069,0.304,-5.337
0.167,0.072,0.302,-5.337
0.182,0.071,0.299,-5.337
0.192,0.067,0.297,-5.337
0.235,0.065,0.296,-5.337
0.307,0.061,0.297,-5.337
0.306,0.061,0.300,-5.337
