[Parameters]
Operating Mode, Feedback
Subject  AA..ZZ, WT
Session  0..99, 45
No. Trials (1..9999), 500
Mouse Number, 1
Pressure Probe Serial Port, \00\00\00\04COM4
Save additional csv file, TRUE
Save using mouse number, FALSE
A/D Monitor Rate (Hz), 30000.000000
A/D Stimulate Rate (Hz), 30000.000000
A/D input range (+/- V), 5
No. Channels to acquire (N), 2
Pre-Stim Acq. time (ms), 100.000000
Post-Stim Acq. time (ms), 900.000000
Analysis window parameters.M-response Start (ms), 1.100000
Analysis window parameters.M-response Duration (ms), 5.500000
Analysis window parameters.H-response Duration (ms), 6.000000
Analysis window parameters.H-response Start (ms), 6.500000
Feedback window, H response
Proportional gain, 0.100000
Target value, 6.700000
Feedback Ch., 1
Stim Channel to Control (1-4), 4
Trial, 65
Wait for EMG Conditions, FALSE
Channel to monitor (0 - N-1), 1
EMG Hi Limit, 2.000000
EMG Lo Limit, 0.001000
Inter-Stim delay (sec), 10.000000
EMG Monitor Mode, Mean
Time to run Long Stim.(sec), 30
Save Long Stim Data?, OFF
BURST Save time (ms), 1000
BURST Save Interval (x above), 10
Long-Stim. Rep. Rate (Hz), 10.000000
Stim type cluster array.<size(s)>, 4
Stim type cluster array 0.Stimulus Output, Electrical
Stim type cluster array 1.Stimulus Output, OFF
Stim type cluster array 2.Stimulus Output, OFF
Stim type cluster array 3.Stimulus Output, Motor Length
Stim specs cluster array.<size(s)>, 4
Stim specs cluster array 0.Initial Stimulus ampl., 0.300000
Stim specs cluster array 0.Maximum Stimulus, 1.120000
Stim specs cluster array 0.#Pulses in train, 4
Stim specs cluster array 0.Peak Level time (ms), 1.000000
Stim specs cluster array 0.Total pulse period (ms), 150.000000
Stim specs cluster array 0.Start Delay (ms), -50.000000
Stim specs cluster array 0.Pulse Shape, Square
Stim specs cluster array 0.Ramp/Rel. time (ms), 0.100000
Stim specs cluster array 0.Peak Amplitude (V), 0.120000
Stim specs cluster array 1.Initial Stimulus ampl., 0.000000
Stim specs cluster array 1.Maximum Stimulus, 0.000000
Stim specs cluster array 1.#Pulses in train, 3
Stim specs cluster array 1.Peak Level time (ms), 29.000000
Stim specs cluster array 1.Total pulse period (ms), 200.000000
Stim specs cluster array 1.Start Delay (ms), 0.000000
Stim specs cluster array 1.Pulse Shape, Square
Stim specs cluster array 1.Ramp/Rel. time (ms), 0.000000
Stim specs cluster array 1.Peak Amplitude (V), 2.000000
Stim specs cluster array 2.Initial Stimulus ampl., 0.000000
Stim specs cluster array 2.Maximum Stimulus, 0.000000
Stim specs cluster array 2.#Pulses in train, 1
Stim specs cluster array 2.Peak Level time (ms), 25.000000
Stim specs cluster array 2.Total pulse period (ms), 200.000000
Stim specs cluster array 2.Start Delay (ms), 0.000000
Stim specs cluster array 2.Pulse Shape, Square
Stim specs cluster array 2.Ramp/Rel. time (ms), 20.000000
Stim specs cluster array 2.Peak Amplitude (V), 10.000000
Stim specs cluster array 3.Initial Stimulus ampl., 0.000000
Stim specs cluster array 3.Maximum Stimulus, 20.000000
Stim specs cluster array 3.#Pulses in train, 25
Stim specs cluster array 3.Peak Level time (ms), 0.100000
Stim specs cluster array 3.Total pulse period (ms), 4.000000
Stim specs cluster array 3.Start Delay (ms), 205.000000
Stim specs cluster array 3.Pulse Shape, Triangle
Stim specs cluster array 3.Ramp/Rel. time (ms), 3.000000
Stim specs cluster array 3.Peak Amplitude (V), 0.500000
Force cal. (mN/Volt), 100.000000
Force Range (mN), 100.000000
Length cal. (mm/Volt), 10.000000
Length Range (mm), 10.000000
Stim. 1, 0.300000
Stim. 2, 0.000000
Stim. 3, 0.000000
Stim. 4, 0.000000
Monitor acquire time (ms), 100.000000
EMG graph Ymax, 0.100000
Travel limit (mm), 20.000000
Use Pressure Probe, FALSE
Pressure goal (g), 100
Speed (mm/sec), 5.000000
Dwell time (ms), 100.000000
Pressure limit (g), 500.000000
Channel amplitude offset, 0.000000

[DATA]

0.194,0.048,0.257,-5.337
0.203,0.051,0.259,-5.337
0.230,0.049,0.252,-5.337
0.253,0.047,0.248,-5.337
0.284,0.047,0.249,-5.337
0.186,0.048,0.251,-5.337
0.195,0.048,0.253,-5.337
0.224,0.047,0.252,-5.337
0.179,0.050,0.249,-5.337
0.119,0.049,0.248,-5.337
0.111,0.050,0.246,-5.337
0.148,0.046,0.247,-5.337
0.160,0.044,0.250,-5.337
0.175,0.049,0.249,-5.337
0.185,0.047,0.251,-5.337
0.165,0.049,0.251,-5.337
0.108,0.047,0.251,-5.337
0.169,0.046,0.247,-5.337
0.234,0.051,0.245,-5.337
0.204,0.051,0.245,-5.337
0.167,0.052,0.245,-5.337
0.139,0.050,0.242,-5.337
0.125,0.051,0.245,-5.337
0.147,0.051,0.248,-5.337
0.160,0.051,0.248,-5.337
0.211,0.047,0.248,-5.337
0.206,0.047,0.248,-5.337
0.200,0.049,0.248,-5.337
0.184,0.051,0.250,-5.337
0.213,0.048,0.250,-5.337
0.235,0.047,0.250,-5.337
0.212,0.051,0.254,-5.337
0.223,0.052,0.251,-5.337
0.223,0.054,0.249,-5.337
0.143,0.055,0.247,-5.337
0.152,0.052,0.246,-5.337
0.163,0.051,0.246,-5.337
0.153,0.052,0.248,-5.337
0.142,0.054,0.254,-5.337
0.207,0.055,0.254,-5.337
0.255,0.051,0.247,-5.337
0.244,0.052,0.240,-5.337
0.211,0.054,0.241,-5.337
0.212,0.056,0.247,-5.337
0.257,0.055,0.251,-5.337
0.267,0.054,0.254,-5.337
0.187,0.053,0.252,-5.337
0.141,0.053,0.247,-5.337
0.164,0.052,0.245,-5.337
0.205,0.054,0.246,-5.337
0.215,0.053,0.249,-5.337
0.192,0.054,0.249,-5.337
0.195,0.053,0.246,-5.337
0.230,0.053,0.245,-5.337
0.201,0.055,0.244,-5.337
0.152,0.057,0.245,-5.337
0.216,0.057,0.247,-5.337
0.234,0.059,0.248,-5.337
0.249,0.057,0.245,-5.337
0.265,0.053,0.244,-5.337
0.202,0.054,0.246,-5.337
0.148,0.054,0.249,-5.337
0.204,0.053,0.251,-5.337
0.170,0.055,0.250,-5.337
0.169,0.054,0.248,-5.337
0.227,0.057,0.244,-5.337
0.234,0.057,0.247,-5.337
0.216,0.055,0.247,-5.337
0.221,0.058,0.248,-5.337
0.205,0.061,0.251,-5.337
0.185,0.058,0.251,-5.337
0.246,0.056,0.248,-5.337
0.293,0.058,0.248,-5.337
0.272,0.056,0.250,-5.337
0.236,0.058,0.248,-5.337
0.167,0.057,0.247,-5.337
0.132,0.056,0.252,-5.337
0.185,0.057,0.249,-5.337
0.226,0.054,0.245,-5.337
0.178,0.057,0.244,-5.337
0.136,0.059,0.246,-5.337
0.141,0.058,0.247,-5.337
0.181,0.059,0.247,-5.337
0.247,0.057,0.254,-5.337
0.230,0.056,0.253,-5.337
0.226,0.060,0.251,-5.337
0.255,0.061,0.245,-5.337
0.242,0.062,0.246,-5.337
0.278,0.059,0.244,-5.337
0.275,0.059,0.248,-5.337
0.213,0.056,0.250,-5.337
0.208,0.058,0.250,-5.337
0.190,0.059,0.247,-5.337
0.203,0.058,0.247,-5.337
0.206,0.055,0.245,-5.337
0.239,0.054,0.245,-5.337
0.281,0.054,0.244,-5.337
0.246,0.057,0.244,-5.337
0.214,0.058,0.248,-5.337
0.221,0.058,0.245,-5.337
0.199,0.057,0.243,-5.337
0.216,0.060,0.246,-5.337
0.206,0.060,0.248,-5.337
0.218,0.056,0.247,-5.337
0.218,0.055,0.246,-5.337
0.180,0.058,0.244,-5.337
0.168,0.058,0.243,-5.337
0.174,0.057,0.243,-5.337
0.204,0.055,0.246,-5.337
0.250,0.055,0.250,-5.337
0.208,0.058,0.250,-5.337
0.198,0.061,0.248,-5.337
0.170,0.062,0.249,-5.337
0.182,0.060,0.249,-5.337
0.277,0.055,0.249,-5.337
0.366,0.052,0.246,-5.337
0.312,0.056,0.245,-5.337
0.189,0.062,0.245,-5.337
0.179,0.063,0.247,-5.337
0.194,0.060,0.249,-5.337
0.233,0.060,0.250,-5.337
0.262,0.058,0.250,-5.337
0.244,0.061,0.248,-5.337
0.214,0.061,0.249,-5.337
0.223,0.060,0.246,-5.337
0.204,0.061,0.245,-5.337
0.183,0.062,0.245,-5.337
0.151,0.062,0.246,-5.337
0.178,0.059,0.247,-5.337
0.232,0.062,0.250,-5.337
0.219,0.061,0.254,-5.337
0.142,0.062,0.250,-5.337
0.135,0.062,0.247,-5.337
0.142,0.061,0.247,-5.337
0.172,0.060,0.250,-5.337
0.169,0.058,0.252,-5.337
0.177,0.057,0.251,-5.337
0.266,0.057,0.250,-5.337
0.295,0.058,0.247,-5.337
0.183,0.058,0.249,-5.337
0.168,0.056,0.249,-5.337
0.185,0.057,0.247,-5.337
0.191,0.056,0.246,-5.337
0.203,0.057,0.246,-5.337
0.258,0.059,0.246,-5.337
0.266,0.060,0.245,-5.337
0.179,0.061,0.245,-5.337
0.116,0.061,0.244,-5.337
0.144,0.056,0.244,-5.337
0.221,0.056,0.241,-5.337
0.184,0.062,0.243,-5.337
0.151,0.060,0.249,-5.337
0.212,0.054,0.249,-5.337
0.240,0.053,0.250,-5.337
0.247,0.057,0.251,-5.337
0.213,0.061,0.252,-5.337
0.173,0.059,0.249,-5.337
0.164,0.056,0.247,-5.337
0.178,0.057,0.245,-5.337
0.175,0.056,0.243,-5.337
0.149,0.057,0.245,-5.337
0.180,0.058,0.247,-5.337
0.230,0.058,0.250,-5.337
0.273,0.054,0.249,-5.337
0.288,0.054,0.247,-5.337
0.270,0.055,0.242,-5.337
0.204,0.056,0.245,-5.337
0.149,0.058,0.242,-5.337
0.170,0.059,0.243,-5.337
0.207,0.060,0.246,-5.337
0.242,0.057,0.247,-5.337
0.262,0.051,0.245,-5.337
0.231,0.051,0.246,-5.337
0.193,0.054,0.250,-5.337
0.198,0.058,0.251,-5.337
0.203,0.056,0.247,-5.337
0.207,0.055,0.247,-5.337
0.244,0.055,0.246,-5.337
0.228,0.057,0.244,-5.337
0.151,0.057,0.244,-5.337
0.180,0.056,0.247,-5.337
0.197,0.058,0.245,-5.337
0.200,0.059,0.245,-5.337
0.104,0.060,0.247,-5.337
0.013,0.061,0.249,-5.337
0.050,0.059,0.249,-5.337
0.109,0.059,0.247,-5.337
0.159,0.054,0.243,-5.337
0.223,0.053,0.239,-5.337
0.284,0.052,0.242,-5.337
0.302,0.054,0.244,-5.337
0.251,0.053,0.244,-5.337
0.266,0.052,0.244,-5.337
0.197,0.055,0.247,-5.337
0.167,0.053,0.250,-5.337
0.217,0.055,0.247,-5.337
0.222,0.059,0.246,-5.337
0.141,0.059,0.247,-5.337
0.125,0.056,0.248,-5.337
0.155,0.055,0.247,-5.337
0.212,0.054,0.246,-5.337
0.199,0.056,0.246,-5.337
0.178,0.056,0.246,-5.337
0.236,0.054,0.247,-5.337
0.246,0.052,0.249,-5.337
0.212,0.055,0.246,-5.337
0.216,0.055,0.241,-5.337
0.202,0.057,0.241,-5.337
0.151,0.054,0.247,-5.337
0.170,0.051,0.253,-5.337
0.223,0.050,0.251,-5.337
0.221,0.050,0.246,-5.337
0.209,0.051,0.244,-5.337
0.221,0.052,0.245,-5.337
0.191,0.051,0.245,-5.337
0.195,0.048,0.244,-5.337
0.232,0.051,0.247,-5.337
0.184,0.052,0.246,-5.337
0.186,0.052,0.246,-5.337
0.199,0.050,0.248,-5.337
0.180,0.052,0.250,-5.337
0.259,0.052,0.247,-5.337
0.288,0.054,0.242,-5.337
0.142,0.054,0.238,-5.337
0.091,0.054,0.242,-5.337
0.141,0.056,0.247,-5.337
0.138,0.056,0.250,-5.337
0.184,0.051,0.251,-5.337
0.255,0.048,0.249,-5.337
0.188,0.046,0.248,-5.337
0.126,0.049,0.244,-5.337
0.108,0.053,0.243,-5.337
0.176,0.052,0.244,-5.337
0.176,0.052,0.245,-5.337
0.172,0.052,0.248,-5.337
0.180,0.048,0.249,-5.337
0.231,0.047,0.245,-5.337
0.198,0.048,0.244,-5.337
0.177,0.047,0.244,-5.337
0.229,0.045,0.250,-5.337
0.207,0.047,0.251,-5.337
0.166,0.046,0.252,-5.337
0.202,0.042,0.247,-5.337
0.196,0.044,0.241,-5.337
0.197,0.042,0.241,-5.337
0.257,0.044,0.245,-5.337
0.268,0.044,0.244,-5.337
0.177,0.045,0.245,-5.337
0.132,0.045,0.245,-5.337
0.151,0.045,0.247,-5.337
0.140,0.044,0.248,-5.337
0.219,0.043,0.248,-5.337
0.207,0.045,0.249,-5.337
0.120,0.046,0.252,-5.337
0.134,0.047,0.251,-5.337
0.201,0.045,0.249,-5.337
0.236,0.040,0.251,-5.337
0.246,0.043,0.250,-5.337
0.204,0.047,0.247,-5.337
0.200,0.045,0.244,-5.337
0.242,0.039,0.243,-5.337
0.197,0.040,0.245,-5.337
0.174,0.043,0.248,-5.337
0.208,0.045,0.246,-5.337
0.232,0.041,0.244,-5.337
0.213,0.038,0.247,-5.337
0.196,0.040,0.252,-5.337
0.179,0.041,0.252,-5.337
0.141,0.044,0.252,-5.337
0.189,0.043,0.252,-5.337
0.170,0.044,0.246,-5.337
0.154,0.039,0.242,-5.337
0.215,0.039,0.243,-5.337
0.190,0.042,0.247,-5.337
0.125,0.041,0.249,-5.337
0.125,0.046,0.245,-5.337
0.168,0.044,0.245,-5.337
0.167,0.041,0.248,-5.337
0.102,0.041,0.248,-5.337
0.067,0.041,0.248,-5.337
0.097,0.045,0.245,-5.337
0.175,0.043,0.246,-5.337
0.293,0.039,0.249,-5.337
0.306,0.038,0.251,-5.337
0.268,0.038,0.249,-5.337
0.223,0.041,0.248,-5.337
0.127,0.042,0.245,-5.337
0.131,0.038,0.245,-5.337
0.256,0.032,0.245,-5.337
0.323,0.029,0.248,-5.337
0.231,0.034,0.247,-5.337
0.166,0.036,0.245,-5.337
0.206,0.034,0.246,-5.337
0.261,0.037,0.247,-5.337
0.226,0.038,0.249,-5.337
0.194,0.036,0.250,-5.337
0.257,0.033,0.246,-5.337
0.269,0.034,0.244,-5.337
0.171,0.038,0.246,-5.337
0.146,0.040,0.249,-5.337
0.181,0.040,0.247,-5.337
0.187,0.040,0.245,-5.337
0.183,0.038,0.245,-5.337
0.201,0.038,0.242,-5.337
0.184,0.039,0.241,-5.337
0.153,0.042,0.246,-5.337
0.180,0.043,0.248,-5.337
0.209,0.041,0.245,-5.337
0.224,0.041,0.247,-5.337
0.177,0.038,0.245,-5.337
0.178,0.035,0.246,-5.337
0.173,0.037,0.246,-5.337
0.124,0.040,0.250,-5.337
0.123,0.043,0.248,-5.337
0.178,0.041,0.245,-5.337
0.279,0.035,0.246,-5.337
0.266,0.040,0.247,-5.337
0.217,0.039,0.245,-5.337
0.261,0.040,0.244,-5.337
0.247,0.040,0.245,-5.337
0.227,0.036,0.248,-5.337
0.232,0.036,0.249,-5.337
0.210,0.036,0.248,-5.337
0.175,0.036,0.248,-5.337
0.140,0.035,0.247,-5.337
0.190,0.037,0.244,-5.337
0.223,0.037,0.244,-5.337
0.255,0.040,0.244,-5.337
0.197,0.043,0.242,-5.337
0.229,0.041,0.244,-5.337
0.281,0.042,0.248,-5.337
0.239,0.041,0.251,-5.337
0.191,0.043,0.248,-5.337
0.217,0.043,0.247,-5.337
0.225,0.040,0.246,-5.337
0.202,0.040,0.247,-5.337
0.151,0.039,0.247,-5.337
0.184,0.040,0.246,-5.337
0.155,0.040,0.242,-5.337
0.134,0.038,0.240,-5.337
0.215,0.035,0.241,-5.337
0.270,0.038,0.247,-5.337
0.208,0.042,0.253,-5.337
0.168,0.040,0.255,-5.337
0.178,0.038,0.248,-5.337
0.201,0.039,0.244,-5.337
0.208,0.042,0.241,-5.337
0.161,0.040,0.241,-5.337
0.195,0.039,0.243,-5.337
0.194,0.038,0.244,-5.337
0.069,0.040,0.247,-5.337
0.042,0.041,0.251,-5.337
0.186,0.037,0.249,-5.337
0.238,0.036,0.248,-5.337
0.204,0.037,0.249,-5.337
0.254,0.037,0.248,-5.337
0.260,0.041,0.248,-5.337
0.209,0.042,0.245,-5.337
0.185,0.042,0.243,-5.337
0.225,0.038,0.243,-5.337
0.292,0.037,0.245,-5.337
0.284,0.038,0.244,-5.337
0.182,0.039,0.243,-5.337
0.154,0.037,0.243,-5.337
0.125,0.043,0.247,-5.337
0.133,0.046,0.251,-5.337
0.165,0.044,0.255,-5.337
0.154,0.041,0.252,-5.337
0.136,0.042,0.247,-5.337
0.102,0.039,0.243,-5.337
0.140,0.040,0.245,-5.337
0.196,0.038,0.249,-5.337
0.159,0.039,0.249,-5.337
0.132,0.039,0.248,-5.337
0.200,0.037,0.247,-5.337
0.186,0.039,0.245,-5.337
0.150,0.039,0.243,-5.337
0.209,0.037,0.244,-5.337
0.212,0.040,0.247,-5.337
0.221,0.041,0.247,-5.337
0.174,0.040,0.247,-5.337
0.148,0.039,0.248,-5.337
0.192,0.036,0.244,-5.337
0.208,0.035,0.245,-5.337
0.225,0.037,0.248,-5.337
0.236,0.038,0.250,-5.337
0.263,0.039,0.249,-5.337
0.307,0.042,0.246,-5.337
0.250,0.042,0.244,-5.337
0.154,0.044,0.244,-5.337
0.167,0.042,0.245,-5.337
0.178,0.038,0.249,-5.337
0.181,0.038,0.252,-5.337
0.251,0.038,0.248,-5.337
0.233,0.037,0.243,-5.337
0.181,0.037,0.245,-5.337
0.157,0.037,0.249,-5.337
0.146,0.037,0.250,-5.337
0.141,0.039,0.247,-5.337
0.142,0.037,0.243,-5.337
0.144,0.035,0.242,-5.337
0.244,0.034,0.242,-5.337
0.229,0.038,0.244,-5.337
0.213,0.039,0.246,-5.337
0.209,0.035,0.247,-5.337
0.191,0.038,0.249,-5.337
0.124,0.039,0.249,-5.337
0.195,0.035,0.247,-5.337
0.273,0.035,0.247,-5.337
0.257,0.034,0.247,-5.337
0.209,0.036,0.246,-5.337
0.201,0.037,0.244,-5.337
0.129,0.036,0.242,-5.337
0.089,0.035,0.240,-5.337
0.135,0.036,0.238,-5.337
0.134,0.033,0.240,-5.337
0.144,0.034,0.244,-5.337
0.194,0.034,0.245,-5.337
0.249,0.035,0.245,-5.337
0.221,0.033,0.245,-5.337
0.211,0.034,0.248,-5.337
0.185,0.039,0.251,-5.337
0.189,0.045,0.252,-5.337
0.195,0.044,0.250,-5.337
0.183,0.040,0.245,-5.337
0.209,0.039,0.242,-5.337
0.197,0.041,0.242,-5.337
0.145,0.043,0.242,-5.337
0.183,0.042,0.244,-5.337
0.216,0.038,0.246,-5.337
0.176,0.038,0.245,-5.337
0.139,0.036,0.245,-5.337
0.197,0.038,0.243,-5.337
0.188,0.045,0.238,-5.337
0.108,0.044,0.235,-5.337
0.062,0.046,0.238,-5.337
0.142,0.043,0.240,-5.337
0.242,0.043,0.243,-5.337
0.250,0.042,0.246,-5.337
0.197,0.046,0.244,-5.337
0.140,0.047,0.242,-5.337
0.156,0.046,0.242,-5.337
0.263,0.041,0.238,-5.337
0.285,0.042,0.238,-5.337
0.218,0.041,0.237,-5.337
0.128,0.047,0.238,-5.337
0.123,0.051,0.239,-5.337
0.221,0.048,0.242,-5.337
0.235,0.047,0.245,-5.337
0.192,0.049,0.247,-5.337
0.188,0.046,0.250,-5.337
0.241,0.047,0.248,-5.337
0.303,0.042,0.242,-5.337
0.269,0.045,0.241,-5.337
0.170,0.050,0.245,-5.337
0.148,0.047,0.244,-5.337
0.172,0.048,0.241,-5.337
0.160,0.050,0.237,-5.337
0.202,0.045,0.239,-5.337
0.298,0.041,0.243,-5.337
0.315,0.043,0.245,-5.337
0.245,0.043,0.245,-5.337
0.315,0.040,0.243,-5.337
0.293,0.042,0.237,-5.337
0.229,0.040,0.237,-5.337
0.234,0.039,0.244,-5.337
0.130,0.044,0.250,-5.337
0.047,0.047,0.251,-5.337
0.052,0.046,0.248,-5.337
0.200,0.040,0.241,-5.337
0.337,0.041,0.239,-5.337
0.259,0.044,0.240,-5.337
0.174,0.042,0.243,-5.337
0.190,0.043,0.246,-5.337
0.197,0.042,0.245,-5.337
0.210,0.044,0.244,-5.337
0.255,0.044,0.239,-5.337
0.241,0.047,0.238,-5.337
0.165,0.050,0.242,-5.337
0.147,0.047,0.244,-5.337
0.242,0.044,0.241,-5.337
0.254,0.045,0.237,-5.337
0.224,0.045,0.235,-5.337
0.130,0.048,0.238,-5.337
0.125,0.048,0.240,-5.337
0.193,0.048,0.242,-5.337
0.199,0.044,0.241,-5.337
0.158,0.047,0.240,-5.337
0.091,0.051,0.244,-5.337
0.113,0.051,0.244,-5.337
0.185,0.048,0.243,-5.337
0.186,0.047,0.244,-5.337
0.216,0.045,0.247,-5.337
0.174,0.045,0.249,-5.337
0.186,0.045,0.244,-5.337
0.224,0.047,0.242,-5.337
0.199,0.047,0.241,-5.337
0.147,0.047,0.240,-5.337
0.156,0.050,0.237,-5.337
0.171,0.048,0.237,-5.337
0.237,0.046,0.242,-5.337
0.252,0.045,0.244,-5.337
0.241,0.044,0.244,-5.337
0.202,0.046,0.246,-5.337
0.225,0.044,0.244,-5.337
0.214,0.047,0.240,-5.337
0.174,0.052,0.243,-5.337
0.181,0.050,0.244,-5.337
0.247,0.047,0.247,-5.337
0.240,0.048,0.245,-5.337
0.181,0.051,0.247,-5.337
0.195,0.046,0.247,-5.337
0.227,0.045,0.242,-5.337
0.219,0.046,0.238,-5.337
0.198,0.051,0.237,-5.337
0.163,0.052,0.239,-5.337
0.243,0.051,0.241,-5.337
0.225,0.053,0.244,-5.337
0.169,0.052,0.244,-5.337
0.209,0.052,0.242,-5.337
0.312,0.051,0.240,-5.337
0.305,0.056,0.238,-5.337
0.185,0.056,0.240,-5.337
0.156,0.052,0.239,-5.337
0.152,0.054,0.243,-5.337
0.195,0.058,0.248,-5.337
0.219,0.058,0.247,-5.337
0.204,0.056,0.246,-5.337
0.144,0.058,0.244,-5.337
0.165,0.060,0.244,-5.337
0.179,0.057,0.245,-5.337
0.239,0.051,0.246,-5.337
0.264,0.050,0.243,-5.337
0.201,0.050,0.243,-5.337
0.205,0.051,0.244,-5.337
0.224,0.053,0.246,-5.337
0.198,0.053,0.245,-5.337
0.150,0.051,0.246,-5.337
0.180,0.050,0.243,-5.337
0.178,0.049,0.239,-5.337
0.091,0.050,0.240,-5.337
0.063,0.051,0.243,-5.337
0.167,0.050,0.244,-5.337
0.212,0.053,0.244,-5.337
0.231,0.053,0.244,-5.337
0.216,0.055,0.244,-5.337
0.209,0.056,0.242,-5.337
0.228,0.056,0.238,-5.337
0.170,0.060,0.236,-5.337
0.192,0.061,0.237,-5.337
0.223,0.062,0.242,-5.337
0.196,0.063,0.247,-5.337
0.168,0.065,0.248,-5.337
0.166,0.059,0.244,-5.337
0.141,0.058,0.242,-5.337
0.157,0.057,0.240,-5.337
0.198,0.054,0.243,-5.337
0.245,0.057,0.244,-5.337
0.274,0.056,0.244,-5.337
0.230,0.053,0.245,-5.337
0.241,0.053,0.243,-5.337
0.263,0.051,0.237,-5.337
0.243,0.052,0.239,-5.337
0.166,0.055,0.245,-5.337
0.181,0.057,0.246,-5.337
0.192,0.057,0.245,-5.337
0.221,0.055,0.246,-5.337
0.209,0.057,0.243,-5.337
0.171,0.056,0.240,-5.337
0.172,0.054,0.238,-5.337
0.150,0.058,0.241,-5.337
0.183,0.060,0.242,-5.337
0.175,0.062,0.243,-5.337
0.200,0.062,0.245,-5.337
0.150,0.064,0.247,-5.337
0.204,0.062,0.245,-5.337
0.276,0.059,0.241,-5.337
0.257,0.059,0.239,-5.337
0.260,0.060,0.238,-5.337
0.294,0.059,0.238,-5.337
0.265,0.062,0.239,-5.337
0.267,0.063,0.241,-5.337
0.305,0.060,0.244,-5.337
0.271,0.062,0.247,-5.337
0.214,0.064,0.246,-5.337
0.235,0.061,0.242,-5.337
0.220,0.060,0.239,-5.337
0.174,0.061,0.238,-5.337
0.138,0.058,0.240,-5.337
0.168,0.057,0.241,-5.337
0.153,0.059,0.240,-5.337
0.173,0.063,0.238,-5.337
0.242,0.062,0.237,-5.337
0.230,0.062,0.242,-5.337
0.193,0.067,0.243,-5.337
0.198,0.067,0.241,-5.337
0.183,0.063,0.240,-5.337
0.241,0.062,0.242,-5.337
0.249,0.063,0.249,-5.337
0.178,0.063,0.249,-5.337
0.129,0.062,0.248,-5.337
0.169,0.063,0.246,-5.337
0.247,0.064,0.245,-5.337
0.177,0.067,0.241,-5.337
0.113,0.065,0.238,-5.337
0.179,0.061,0.234,-5.337
0.194,0.059,0.234,-5.337
0.157,0.059,0.235,-5.337
0.199,0.060,0.239,-5.337
0.220,0.058,0.242,-5.337
0.184,0.060,0.242,-5.337
0.208,0.062,0.243,-5.337
0.256,0.064,0.242,-5.337
0.326,0.062,0.240,-5.337
0.351,0.062,0.239,-5.337
0.291,0.064,0.236,-5.337
0.220,0.063,0.239,-5.337
0.255,0.062,0.242,-5.337
0.254,0.064,0.242,-5.337
0.165,0.062,0.239,-5.337
0.179,0.059,0.239,-5.337
0.203,0.061,0.243,-5.337
0.235,0.060,0.243,-5.337
0.338,0.061,0.243,-5.337
0.310,0.063,0.240,-5.337
0.100,0.067,0.242,-5.337
0.067,0.066,0.243,-5.337
0.168,0.062,0.245,-5.337
0.226,0.060,0.244,-5.337
0.219,0.060,0.247,-5.337
0.180,0.062,0.246,-5.337
0.172,0.062,0.248,-5.337
0.175,0.061,0.242,-5.337
0.183,0.058,0.240,-5.337
0.185,0.056,0.238,-5.337
0.200,0.061,0.238,-5.337
0.199,0.063,0.241,-5.337
0.141,0.065,0.242,-5.337
0.157,0.063,0.239,-5.337
0.191,0.063,0.241,-5.337
0.211,0.065,0.242,-5.337
0.244,0.062,0.245,-5.337
0.251,0.062,0.243,-5.337
0.212,0.064,0.242,-5.337
0.154,0.062,0.242,-5.337
0.129,0.062,0.239,-5.337
0.164,0.060,0.243,-5.337
0.195,0.061,0.245,-5.337
0.170,0.060,0.243,-5.337
0.133,0.062,0.240,-5.337
0.115,0.063,0.241,-5.337
0.159,0.059,0.242,-5.337
0.199,0.060,0.242,-5.337
0.228,0.065,0.239,-5.337
0.215,0.065,0.243,-5.337
0.212,0.062,0.247,-5.337
0.182,0.062,0.248,-5.337
0.166,0.063,0.243,-5.337
0.180,0.064,0.242,-5.337
0.170,0.062,0.243,-5.337
0.158,0.064,0.242,-5.337
0.216,0.064,0.239,-5.337
0.246,0.063,0.240,-5.337
0.161,0.062,0.241,-5.337
0.190,0.061,0.238,-5.337
0.184,0.059,0.239,-5.337
0.175,0.059,0.244,-5.337
0.279,0.058,0.245,-5.337
0.261,0.056,0.247,-5.337
0.200,0.056,0.250,-5.337
0.166,0.055,0.251,-5.337
0.229,0.054,0.246,-5.337
0.262,0.058,0.242,-5.337
0.173,0.059,0.241,-5.337
0.225,0.057,0.238,-5.337
0.263,0.054,0.240,-5.337
0.247,0.054,0.243,-5.337
0.260,0.056,0.245,-5.337
0.237,0.057,0.243,-5.337
0.139,0.055,0.245,-5.337
0.104,0.054,0.245,-5.337
0.140,0.054,0.241,-5.337
0.198,0.051,0.235,-5.337
0.188,0.054,0.235,-5.337
0.134,0.054,0.237,-5.337
0.134,0.055,0.239,-5.337
0.176,0.054,0.240,-5.337
0.186,0.052,0.238,-5.337
0.243,0.049,0.239,-5.337
0.245,0.051,0.242,-5.337
0.244,0.051,0.243,-5.337
0.216,0.052,0.243,-5.337
0.196,0.051,0.243,-5.337
0.229,0.049,0.240,-5.337
0.265,0.050,0.240,-5.337
0.263,0.054,0.242,-5.337
0.286,0.052,0.244,-5.337
0.274,0.051,0.245,-5.337
0.234,0.055,0.242,-5.337
0.225,0.058,0.239,-5.337
0.188,0.058,0.241,-5.337
0.203,0.057,0.241,-5.337
0.228,0.056,0.238,-5.337
0.193,0.057,0.235,-5.337
0.165,0.057,0.238,-5.337
0.217,0.055,0.240,-5.337
0.239,0.053,0.245,-5.337
0.167,0.055,0.246,-5.337
0.108,0.055,0.242,-5.337
0.162,0.055,0.237,-5.337
0.189,0.054,0.236,-5.337
0.212,0.052,0.237,-5.337
0.194,0.056,0.237,-5.337
0.177,0.054,0.239,-5.337
0.250,0.054,0.244,-5.337
0.237,0.054,0.248,-5.337
0.230,0.050,0.247,-5.337
0.263,0.047,0.243,-5.337
0.205,0.050,0.240,-5.337
0.222,0.050,0.238,-5.337
0.215,0.047,0.237,-5.337
0.203,0.047,0.236,-5.337
0.170,0.050,0.238,-5.337
0.139,0.053,0.241,-5.337
0.237,0.049,0.240,-5.337
0.292,0.046,0.242,-5.337
0.209,0.047,0.242,-5.337
0.143,0.047,0.240,-5.337
0.142,0.049,0.238,-5.337
0.148,0.050,0.242,-5.337
0.159,0.047,0.241,-5.337
0.174,0.047,0.243,-5.337
0.159,0.049,0.246,-5.337
0.122,0.053,0.244,-5.337
0.149,0.051,0.240,-5.337
0.221,0.049,0.242,-5.337
0.247,0.050,0.246,-5.337
0.199,0.053,0.244,-5.337
0.135,0.049,0.243,-5.337
0.149,0.045,0.244,-5.337
0.245,0.044,0.241,-5.337
0.256,0.046,0.241,-5.337
0.226,0.045,0.242,-5.337
0.212,0.048,0.240,-5.337
0.194,0.050,0.237,-5.337
0.228,0.050,0.236,-5.337
0.225,0.044,0.243,-5.337
0.220,0.042,0.244,-5.337
0.220,0.044,0.240,-5.337
0.176,0.047,0.237,-5.337
0.183,0.049,0.240,-5.337
0.217,0.049,0.241,-5.337
0.167,0.049,0.243,-5.337
0.171,0.044,0.242,-5.337
0.223,0.046,0.242,-5.337
0.202,0.048,0.243,-5.337
0.205,0.048,0.245,-5.337
0.276,0.043,0.242,-5.337
0.236,0.047,0.238,-5.337
0.166,0.051,0.236,-5.337
0.236,0.048,0.239,-5.337
0.256,0.045,0.243,-5.337
0.239,0.043,0.246,-5.337
0.234,0.042,0.241,-5.337
0.200,0.041,0.238,-5.337
0.178,0.040,0.235,-5.337
0.219,0.041,0.237,-5.337
0.215,0.043,0.240,-5.337
0.193,0.043,0.243,-5.337
0.167,0.045,0.243,-5.337
0.159,0.045,0.242,-5.337
0.177,0.044,0.242,-5.337
0.207,0.045,0.240,-5.337
0.244,0.046,0.241,-5.337
0.247,0.043,0.241,-5.337
0.232,0.042,0.241,-5.337
0.233,0.042,0.236,-5.337
0.238,0.044,0.239,-5.337
0.145,0.042,0.241,-5.337
0.164,0.041,0.242,-5.337
0.117,0.041,0.247,-5.337
0.068,0.043,0.250,-5.337
0.036,0.042,0.246,-5.337
0.064,0.041,0.241,-5.337
0.069,0.038,0.237,-5.337
0.099,0.040,0.241,-5.337
0.183,0.042,0.244,-5.337
0.215,0.044,0.244,-5.337
0.198,0.039,0.239,-5.337
0.163,0.040,0.238,-5.337
0.131,0.042,0.239,-5.337
0.198,0.042,0.240,-5.337
0.233,0.040,0.242,-5.337
0.187,0.042,0.246,-5.337
0.173,0.040,0.243,-5.337
0.223,0.040,0.241,-5.337
0.241,0.039,0.242,-5.337
0.204,0.040,0.243,-5.337
0.182,0.036,0.246,-5.337
0.183,0.040,0.246,-5.337
0.203,0.043,0.242,-5.337
0.193,0.044,0.242,-5.337
0.194,0.041,0.245,-5.337
0.158,0.042,0.242,-5.337
0.151,0.044,0.241,-5.337
0.135,0.044,0.242,-5.337
0.188,0.043,0.243,-5.337
0.222,0.041,0.244,-5.337
0.234,0.041,0.244,-5.337
0.242,0.039,0.239,-5.337
0.247,0.038,0.236,-5.337
0.207,0.037,0.237,-5.337
0.202,0.040,0.241,-5.337
0.192,0.038,0.243,-5.337
0.165,0.035,0.243,-5.337
0.144,0.033,0.243,-5.337
0.090,0.034,0.245,-5.337
0.061,0.035,0.248,-5.337
0.157,0.034,0.246,-5.337
0.280,0.036,0.245,-5.337
0.318,0.036,0.243,-5.337
0.284,0.035,0.242,-5.337
0.295,0.036,0.241,-5.337
0.281,0.033,0.242,-5.337
0.244,0.037,0.242,-5.337
0.237,0.034,0.243,-5.337
0.218,0.035,0.240,-5.337
0.179,0.037,0.241,-5.337
0.171,0.041,0.242,-5.337
0.168,0.044,0.243,-5.337
0.163,0.042,0.246,-5.337
0.143,0.044,0.245,-5.337
0.132,0.045,0.244,-5.337
0.154,0.047,0.243,-5.337
0.143,0.046,0.240,-5.337
0.090,0.042,0.240,-5.337
0.198,0.040,0.239,-5.337
0.302,0.039,0.239,-5.337
0.234,0.042,0.240,-5.337
0.258,0.041,0.244,-5.337
0.202,0.040,0.248,-5.337
0.217,0.040,0.248,-5.337
0.232,0.040,0.245,-5.337
0.238,0.034,0.242,-5.337
0.217,0.034,0.241,-5.337
0.125,0.038,0.241,-5.337
0.124,0.042,0.244,-5.337
0.111,0.043,0.245,-5.337
0.136,0.041,0.247,-5.337
0.207,0.040,0.247,-5.337
0.195,0.040,0.244,-5.337
0.190,0.038,0.238,-5.337
0.244,0.039,0.240,-5.337
0.226,0.042,0.240,-5.337
0.194,0.043,0.244,-5.337
0.201,0.041,0.244,-5.337
0.255,0.039,0.242,-5.337
0.261,0.040,0.240,-5.337
0.281,0.039,0.244,-5.337
0.230,0.037,0.248,-5.337
0.177,0.036,0.249,-5.337
0.255,0.035,0.246,-5.337
0.211,0.038,0.240,-5.337
0.102,0.041,0.238,-5.337
0.083,0.041,0.238,-5.337
0.114,0.042,0.241,-5.337
0.145,0.042,0.243,-5.337
0.188,0.041,0.244,-5.337
0.230,0.038,0.243,-5.337
0.185,0.036,0.241,-5.337
0.108,0.037,0.238,-5.337
0.098,0.037,0.239,-5.337
0.179,0.035,0.240,-5.337
0.260,0.036,0.242,-5.337
0.256,0.037,0.245,-5.337
0.211,0.037,0.248,-5.337
0.235,0.033,0.247,-5.337
0.263,0.035,0.247,-5.337
0.260,0.035,0.243,-5.337
0.226,0.034,0.238,-5.337
0.235,0.029,0.238,-5.337
0.225,0.035,0.241,-5.337
0.180,0.038,0.240,-5.337
0.148,0.038,0.236,-5.337
0.145,0.037,0.240,-5.337
0.227,0.037,0.248,-5.337
0.248,0.035,0.248,-5.337
0.186,0.035,0.246,-5.337
0.191,0.037,0.244,-5.337
0.172,0.035,0.243,-5.337
0.122,0.036,0.246,-5.337
0.159,0.037,0.244,-5.337
0.182,0.039,0.242,-5.337
0.174,0.040,0.238,-5.337
0.192,0.038,0.241,-5.337
0.192,0.038,0.242,-5.337
0.147,0.040,0.243,-5.337
0.169,0.041,0.244,-5.337
0.180,0.043,0.245,-5.337
0.150,0.040,0.244,-5.337
0.145,0.037,0.246,-5.337
0.179,0.035,0.245,-5.337
0.270,0.038,0.243,-5.337
0.276,0.043,0.245,-5.337
0.214,0.044,0.247,-5.337
0.226,0.040,0.246,-5.337
0.204,0.041,0.241,-5.337
0.177,0.038,0.240,-5.337
0.189,0.040,0.239,-5.337
0.251,0.040,0.238,-5.337
0.306,0.042,0.239,-5.337
0.263,0.043,0.242,-5.337
0.258,0.044,0.246,-5.337
0.253,0.043,0.245,-5.337
0.184,0.046,0.243,-5.337
0.154,0.043,0.241,-5.337
0.217,0.041,0.242,-5.337
0.235,0.041,0.244,-5.337
0.251,0.038,0.249,-5.337
0.197,0.039,0.251,-5.337
0.141,0.041,0.250,-5.337
0.132,0.041,0.250,-5.337
0.149,0.037,0.246,-5.337
0.195,0.037,0.242,-5.337
0.138,0.037,0.240,-5.337
0.087,0.043,0.241,-5.337
0.157,0.039,0.239,-5.337
0.230,0.038,0.243,-5.337
0.172,0.038,0.244,-5.337
0.159,0.040,0.242,-5.337
0.130,0.042,0.243,-5.337
0.123,0.045,0.244,-5.337
0.132,0.041,0.241,-5.337
0.210,0.043,0.241,-5.337
0.232,0.043,0.245,-5.337
0.179,0.043,0.246,-5.337
0.175,0.041,0.245,-5.337
0.201,0.038,0.242,-5.337
0.247,0.038,0.241,-5.337
0.239,0.042,0.244,-5.337
0.216,0.038,0.246,-5.337
0.141,0.042,0.244,-5.337
0.114,0.038,0.240,-5.337
0.129,0.040,0.241,-5.337
0.126,0.041,0.246,-5.337
0.152,0.041,0.245,-5.337
0.165,0.042,0.244,-5.337
0.166,0.043,0.243,-5.337
0.221,0.043,0.243,-5.337
0.200,0.042,0.244,-5.337
0.124,0.046,0.245,-5.337
0.145,0.044,0.243,-5.337
0.141,0.045,0.243,-5.337
0.109,0.042,0.242,-5.337
0.141,0.039,0.242,-5.337
0.218,0.038,0.241,-5.337
0.226,0.042,0.243,-5.337
0.217,0.042,0.247,-5.337
0.233,0.042,0.245,-5.337
0.162,0.043,0.244,-5.337
0.141,0.046,0.246,-5.337
0.157,0.046,0.247,-5.337
0.214,0.046,0.244,-5.337
0.147,0.044,0.242,-5.337
0.125,0.042,0.240,-5.337
0.259,0.040,0.239,-5.337
0.319,0.040,0.238,-5.337
0.326,0.035,0.239,-5.337
0.333,0.039,0.241,-5.337
0.245,0.044,0.243,-5.337
0.220,0.045,0.243,-5.337
0.242,0.044,0.246,-5.337
0.208,0.042,0.243,-5.337
0.210,0.042,0.239,-5.337
0.244,0.042,0.236,-5.337
0.265,0.043,0.237,-5.337
0.238,0.046,0.239,-5.337
0.233,0.050,0.244,-5.337
0.184,0.045,0.249,-5.337
0.160,0.047,0.253,-5.337
0.116,0.046,0.250,-5.337
0.099,0.047,0.240,-5.337
0.144,0.050,0.237,-5.337
0.176,0.050,0.239,-5.337
0.180,0.050,0.243,-5.337
0.146,0.051,0.245,-5.337
0.105,0.049,0.245,-5.337
0.135,0.046,0.243,-5.337
0.185,0.045,0.241,-5.337
0.180,0.045,0.241,-5.337
0.238,0.047,0.241,-5.337
0.227,0.049,0.240,-5.337
0.237,0.048,0.243,-5.337
0.225,0.047,0.245,-5.337
0.218,0.046,0.245,-5.337
0.169,0.050,0.241,-5.337
0.160,0.049,0.239,-5.337
0.209,0.048,0.239,-5.337
0.240,0.047,0.240,-5.337
0.231,0.046,0.239,-5.337
0.198,0.050,0.242,-5.337
0.165,0.050,0.246,-5.337
0.219,0.049,0.249,-5.337
0.222,0.045,0.252,-5.337
0.143,0.048,0.250,-5.337
0.140,0.049,0.247,-5.337
0.197,0.047,0.243,-5.337
0.163,0.048,0.239,-5.337
0.143,0.050,0.238,-5.337
0.161,0.048,0.239,-5.337
0.160,0.046,0.244,-5.337
0.168,0.044,0.245,-5.337
0.205,0.043,0.242,-5.337
0.208,0.044,0.241,-5.337
0.184,0.048,0.247,-5.337
0.223,0.045,0.251,-5.337
0.267,0.045,0.247,-5.337
0.248,0.045,0.242,-5.337
0.174,0.047,0.237,-5.337
0.146,0.047,0.239,-5.337
0.182,0.047,0.242,-5.337
0.189,0.045,0.239,-5.337
0.189,0.046,0.237,-5.337
0.189,0.045,0.240,-5.337
0.178,0.045,0.241,-5.337
0.110,0.051,0.242,-5.337
0.182,0.053,0.245,-5.337
0.238,0.053,0.243,-5.337
0.246,0.051,0.245,-5.337
0.232,0.053,0.249,-5.337
0.236,0.051,0.248,-5.337
0.209,0.050,0.245,-5.337
0.142,0.050,0.244,-5.337
0.114,0.050,0.241,-5.337
0.173,0.050,0.238,-5.337
0.200,0.057,0.242,-5.337
0.125,0.056,0.244,-5.337
0.090,0.056,0.243,-5.337
0.144,0.055,0.242,-5.337
0.197,0.054,0.242,-5.337
0.213,0.051,0.241,-5.337
0.169,0.051,0.242,-5.337
0.188,0.051,0.246,-5.337
0.197,0.051,0.244,-5.337
0.199,0.054,0.242,-5.337
0.142,0.054,0.243,-5.337
0.172,0.056,0.245,-5.337
0.194,0.058,0.245,-5.337
0.186,0.056,0.243,-5.337
0.188,0.051,0.238,-5.337
0.198,0.053,0.238,-5.337
0.198,0.055,0.242,-5.337
0.199,0.054,0.245,-5.337
0.204,0.052,0.242,-5.337
0.221,0.052,0.242,-5.337
0.283,0.051,0.245,-5.337
0.255,0.053,0.248,-5.337
0.254,0.050,0.241,-5.337
0.288,0.049,0.242,-5.337
0.223,0.053,0.245,-5.337
0.169,0.058,0.243,-5.337
0.174,0.059,0.242,-5.337
0.153,0.056,0.245,-5.337
0.188,0.054,0.245,-5.337
0.276,0.053,0.245,-5.337
0.232,0.055,0.246,-5.337
0.183,0.055,0.246,-5.337
0.163,0.057,0.246,-5.337
0.182,0.056,0.247,-5.337
0.234,0.052,0.244,-5.337
0.194,0.055,0.242,-5.337
0.137,0.058,0.245,-5.337
0.234,0.057,0.247,-5.337
0.249,0.059,0.244,-5.337
0.186,0.058,0.240,-5.337
0.156,0.060,0.241,-5.337
0.135,0.059,0.241,-5.337
0.160,0.058,0.240,-5.337
0.127,0.057,0.239,-5.337
0.122,0.055,0.242,-5.337
0.256,0.055,0.247,-5.337
0.263,0.059,0.249,-5.337
0.245,0.054,0.247,-5.337
0.278,0.054,0.246,-5.337
0.232,0.057,0.245,-5.337
0.141,0.059,0.244,-5.337
0.130,0.061,0.242,-5.337
0.173,0.059,0.242,-5.337
0.193,0.058,0.244,-5.337
0.146,0.060,0.244,-5.337
0.160,0.055,0.245,-5.337
0.224,0.058,0.243,-5.337
0.284,0.060,0.245,-5.337
0.320,0.062,0.248,-5.337
0.246,0.065,0.249,-5.337
0.239,0.061,0.245,-5.337
0.192,0.059,0.242,-5.337
0.136,0.057,0.243,-5.337
0.148,0.058,0.244,-5.337
0.155,0.058,0.244,-5.337
0.219,0.059,0.244,-5.337
0.234,0.061,0.242,-5.337
0.219,0.056,0.244,-5.337
0.255,0.057,0.247,-5.337
0.228,0.059,0.248,-5.337
0.130,0.062,0.245,-5.337
0.107,0.060,0.244,-5.337
0.203,0.056,0.244,-5.337
0.277,0.056,0.243,-5.337
0.210,0.058,0.242,-5.337
0.155,0.057,0.241,-5.337
0.134,0.059,0.240,-5.337
0.146,0.059,0.239,-5.337
0.199,0.057,0.242,-5.337
0.233,0.058,0.243,-5.337
0.229,0.061,0.243,-5.337
0.163,0.061,0.242,-5.337
0.162,0.056,0.245,-5.337
0.277,0.054,0.244,-5.337
0.290,0.057,0.244,-5.337
0.179,0.058,0.241,-5.337
0.143,0.058,0.241,-5.337
0.202,0.060,0.237,-5.337
0.215,0.062,0.238,-5.337
0.164,0.064,0.240,-5.337
0.138,0.064,0.241,-5.337
0.180,0.060,0.242,-5.337
0.197,0.064,0.244,-5.337
0.117,0.067,0.245,-5.337
0.122,0.065,0.242,-5.337
0.206,0.062,0.242,-5.337
0.217,0.063,0.243,-5.337
0.192,0.063,0.243,-5.337
0.159,0.064,0.244,-5.337
0.137,0.064,0.242,-5.337
0.137,0.064,0.242,-5.337
0.168,0.059,0.244,-5.337
0.215,0.059,0.243,-5.337
0.227,0.059,0.244,-5.337
0.255,0.056,0.242,-5.337
0.242,0.059,0.244,-5.337
0.235,0.059,0.244,-5.337
0.223,0.061,0.246,-5.337
0.182,0.063,0.248,-5.337
0.166,0.062,0.248,-5.337
0.232,0.061,0.240,-5.337
0.231,0.062,0.238,-5.337
0.201,0.058,0.238,-5.337
0.203,0.062,0.243,-5.337
0.192,0.061,0.247,-5.337
0.206,0.059,0.246,-5.337
0.168,0.060,0.243,-5.337
0.182,0.062,0.242,-5.337
0.193,0.062,0.244,-5.337
0.172,0.061,0.244,-5.337
0.199,0.061,0.243,-5.337
0.192,0.063,0.246,-5.337
0.157,0.064,0.244,-5.337
0.187,0.060,0.240,-5.337
0.200,0.061,0.244,-5.337
0.212,0.064,0.250,-5.337
0.265,0.061,0.251,-5.337
0.276,0.059,0.246,-5.337
0.222,0.064,0.242,-5.337
0.185,0.061,0.243,-5.337
0.157,0.058,0.245,-5.337
0.198,0.059,0.240,-5.337
0.226,0.061,0.237,-5.337
0.214,0.063,0.238,-5.337
0.209,0.061,0.244,-5.337
0.161,0.063,0.243,-5.337
0.147,0.065,0.242,-5.337
0.162,0.064,0.238,-5.337
0.195,0.059,0.236,-5.337
0.251,0.059,0.239,-5.337
0.200,0.057,0.246,-5.337
0.214,0.056,0.251,-5.337
0.188,0.056,0.252,-5.337
0.222,0.050,0.245,-5.337
0.232,0.050,0.239,-5.337
0.231,0.052,0.238,-5.337
0.173,0.055,0.242,-5.337
0.154,0.056,0.244,-5.337
0.172,0.055,0.245,-5.337
0.191,0.055,0.244,-5.337
0.187,0.056,0.242,-5.337
0.171,0.057,0.244,-5.337
0.206,0.057,0.245,-5.337
0.273,0.056,0.245,-5.337
0.211,0.057,0.243,-5.337
0.153,0.055,0.244,-5.337
0.168,0.054,0.243,-5.337
0.104,0.056,0.244,-5.337
0.079,0.056,0.242,-5.337
0.148,0.054,0.247,-5.337
0.203,0.054,0.249,-5.337
0.158,0.057,0.250,-5.337
0.079,0.058,0.246,-5.337
0.142,0.056,0.244,-5.337
0.180,0.059,0.241,-5.337
0.142,0.063,0.242,-5.337
0.201,0.056,0.241,-5.337
0.204,0.053,0.242,-5.337
0.187,0.051,0.245,-5.337
0.206,0.055,0.247,-5.337
0.184,0.058,0.247,-5.337
0.120,0.057,0.247,-5.337
0.133,0.056,0.242,-5.337
0.175,0.053,0.244,-5.337
0.217,0.051,0.247,-5.337
0.199,0.052,0.244,-5.337
0.170,0.052,0.240,-5.337
0.162,0.053,0.238,-5.337
0.188,0.054,0.242,-5.337
0.215,0.054,0.242,-5.337
0.287,0.050,0.244,-5.337
0.267,0.048,0.244,-5.337
0.203,0.050,0.243,-5.337
0.195,0.053,0.244,-5.337
0.181,0.055,0.246,-5.337
0.173,0.054,0.245,-5.337
0.226,0.052,0.251,-5.337
0.311,0.050,0.249,-5.337
0.248,0.056,0.245,-5.337
0.121,0.057,0.242,-5.337
0.203,0.054,0.241,-5.337
0.195,0.054,0.238,-5.337
0.168,0.056,0.237,-5.337
0.142,0.055,0.240,-5.337
0.206,0.050,0.242,-5.337
0.218,0.047,0.242,-5.337
0.198,0.049,0.241,-5.337
0.211,0.052,0.243,-5.337
0.169,0.052,0.245,-5.337
0.190,0.050,0.245,-5.337
0.205,0.049,0.241,-5.337
0.243,0.046,0.238,-5.337
0.253,0.049,0.243,-5.337
0.249,0.052,0.246,-5.337
0.257,0.048,0.245,-5.337
0.258,0.044,0.245,-5.337
0.227,0.047,0.245,-5.337
0.187,0.053,0.246,-5.337
0.152,0.055,0.243,-5.337
0.146,0.050,0.243,-5.337
0.136,0.048,0.242,-5.337
0.155,0.046,0.243,-5.337
0.246,0.041,0.239,-5.337
0.303,0.041,0.239,-5.337
0.223,0.043,0.239,-5.337
0.155,0.044,0.240,-5.337
0.164,0.044,0.242,-5.337
0.173,0.047,0.244,-5.337
0.135,0.047,0.240,-5.337
0.139,0.043,0.239,-5.337
0.297,0.043,0.242,-5.337
0.219,0.046,0.242,-5.337
0.142,0.049,0.242,-5.337
0.183,0.046,0.244,-5.337
0.245,0.043,0.241,-5.337
0.193,0.047,0.243,-5.337
0.099,0.054,0.246,-5.337
0.164,0.050,0.244,-5.337
0.241,0.045,0.242,-5.337
0.283,0.046,0.242,-5.337
0.260,0.047,0.243,-5.337
0.240,0.045,0.244,-5.337
0.173,0.047,0.247,-5.337
0.238,0.043,0.245,-5.337
0.290,0.044,0.244,-5.337
0.308,0.043,0.242,-5.337
0.265,0.045,0.243,-5.337
0.206,0.043,0.244,-5.337
0.228,0.042,0.245,-5.337
0.241,0.041,0.244,-5.337
0.214,0.042,0.243,-5.337
0.180,0.042,0.240,-5.337
0.181,0.042,0.240,-5.337
0.228,0.040,0.242,-5.337
0.207,0.042,0.243,-5.337
0.164,0.039,0.242,-5.337
0.227,0.040,0.241,-5.337
0.193,0.043,0.242,-5.337
0.209,0.044,0.241,-5.337
0.161,0.042,0.240,-5.337
0.103,0.040,0.243,-5.337
0.181,0.038,0.245,-5.337
0.242,0.036,0.244,-5.337
0.217,0.037,0.242,-5.337
0.168,0.035,0.242,-5.337
0.207,0.033,0.246,-5.337
0.251,0.036,0.246,-5.337
0.243,0.039,0.246,-5.337
0.208,0.038,0.241,-5.337
0.196,0.036,0.238,-5.337
0.176,0.035,0.239,-5.337
0.209,0.035,0.243,-5.337
0.189,0.037,0.247,-5.337
0.167,0.041,0.247,-5.337
0.187,0.040,0.246,-5.337
0.230,0.037,0.245,-5.337
0.234,0.035,0.242,-5.337
0.241,0.036,0.244,-5.337
0.177,0.038,0.245,-5.337
0.104,0.042,0.242,-5.337
0.070,0.042,0.241,-5.337
0.158,0.040,0.238,-5.337
0.175,0.038,0.236,-5.337
0.130,0.039,0.238,-5.337
0.157,0.039,0.243,-5.337
0.236,0.040,0.245,-5.337
0.242,0.039,0.245,-5.337
0.215,0.035,0.244,-5.337
0.262,0.036,0.243,-5.337
0.254,0.035,0.241,-5.337
0.225,0.034,0.242,-5.337
0.240,0.036,0.242,-5.337
0.223,0.038,0.242,-5.337
0.177,0.037,0.239,-5.337
0.188,0.035,0.238,-5.337
0.168,0.038,0.240,-5.337
0.118,0.042,0.245,-5.337
0.172,0.038,0.247,-5.337
0.243,0.039,0.245,-5.337
0.163,0.039,0.242,-5.337
0.067,0.040,0.241,-5.337
0.099,0.038,0.243,-5.337
0.180,0.034,0.246,-5.337
0.193,0.039,0.246,-5.337
0.237,0.034,0.246,-5.337
0.307,0.032,0.243,-5.337
0.295,0.035,0.244,-5.337
0.194,0.037,0.243,-5.337
0.175,0.033,0.238,-5.337
0.216,0.033,0.237,-5.337
0.212,0.033,0.242,-5.337
0.175,0.035,0.250,-5.337
0.122,0.040,0.248,-5.337
0.102,0.038,0.246,-5.337
0.173,0.037,0.242,-5.337
0.244,0.034,0.242,-5.337
0.255,0.034,0.242,-5.337
0.208,0.040,0.242,-5.337
0.148,0.041,0.241,-5.337
0.170,0.042,0.244,-5.337
0.189,0.037,0.246,-5.337
0.218,0.035,0.244,-5.337
0.218,0.035,0.238,-5.337
0.220,0.037,0.237,-5.337
0.235,0.034,0.241,-5.337
0.245,0.036,0.246,-5.337
0.230,0.037,0.244,-5.337
0.249,0.039,0.240,-5.337
0.268,0.038,0.238,-5.337
0.166,0.036,0.241,-5.337
0.182,0.036,0.246,-5.337
0.210,0.041,0.249,-5.337
0.188,0.042,0.250,-5.337
0.182,0.042,0.250,-5.337
0.150,0.039,0.245,-5.337
0.124,0.036,0.240,-5.337
0.093,0.041,0.242,-5.337
0.116,0.038,0.243,-5.337
0.175,0.039,0.245,-5.337
0.193,0.040,0.245,-5.337
0.201,0.043,0.244,-5.337
0.205,0.043,0.244,-5.337
0.188,0.042,0.245,-5.337
0.186,0.039,0.245,-5.337
0.203,0.038,0.244,-5.337
0.140,0.040,0.244,-5.337
0.190,0.039,0.246,-5.337
0.219,0.038,0.249,-5.337
0.230,0.038,0.248,-5.337
0.222,0.035,0.245,-5.337
0.147,0.039,0.242,-5.337
0.123,0.039,0.242,-5.337
0.190,0.038,0.241,-5.337
0.166,0.039,0.238,-5.337
0.199,0.037,0.242,-5.337
0.219,0.038,0.247,-5.337
0.230,0.039,0.249,-5.337
0.336,0.038,0.245,-5.337
0.298,0.038,0.241,-5.337
0.209,0.034,0.241,-5.337
0.198,0.037,0.245,-5.337
0.188,0.037,0.249,-5.337
0.256,0.032,0.250,-5.337
0.231,0.033,0.246,-5.337
0.161,0.035,0.242,-5.337
0.183,0.037,0.245,-5.337
0.235,0.037,0.245,-5.337
0.239,0.034,0.240,-5.337
0.274,0.032,0.240,-5.337
0.305,0.033,0.243,-5.337
0.243,0.037,0.241,-5.337
0.273,0.039,0.241,-5.337
0.294,0.038,0.241,-5.337
0.217,0.042,0.237,-5.337
0.168,0.043,0.237,-5.337
0.219,0.041,0.245,-5.337
0.194,0.042,0.248,-5.337
0.122,0.044,0.248,-5.337
0.135,0.043,0.245,-5.337
0.203,0.042,0.243,-5.337
0.236,0.038,0.240,-5.337
0.202,0.037,0.240,-5.337
0.149,0.037,0.242,-5.337
0.229,0.037,0.242,-5.337
0.217,0.039,0.247,-5.337
0.171,0.038,0.246,-5.337
0.198,0.034,0.243,-5.337
0.260,0.035,0.242,-5.337
0.254,0.041,0.241,-5.337
0.212,0.038,0.235,-5.337
0.178,0.039,0.238,-5.337
0.164,0.041,0.240,-5.337
0.215,0.041,0.243,-5.337
0.206,0.040,0.244,-5.337
0.184,0.040,0.244,-5.337
0.123,0.041,0.244,-5.337
0.154,0.037,0.244,-5.337
0.156,0.034,0.241,-5.337
0.194,0.038,0.244,-5.337
0.251,0.040,0.247,-5.337
0.219,0.039,0.247,-5.337
0.197,0.038,0.246,-5.337
0.248,0.040,0.246,-5.337
0.324,0.036,0.244,-5.337
0.290,0.040,0.244,-5.337
0.261,0.039,0.244,-5.337
0.169,0.042,0.245,-5.337
0.093,0.041,0.244,-5.337
0.139,0.039,0.241,-5.337
0.125,0.039,0.238,-5.337
0.149,0.041,0.240,-5.337
0.173,0.042,0.246,-5.337
0.179,0.044,0.248,-5.337
0.187,0.043,0.246,-5.337
0.199,0.044,0.243,-5.337
0.202,0.043,0.245,-5.337
0.151,0.045,0.248,-5.337
0.159,0.046,0.247,-5.337
0.232,0.044,0.245,-5.337
0.271,0.043,0.243,-5.337
0.213,0.042,0.242,-5.337
0.185,0.043,0.241,-5.337
0.206,0.043,0.243,-5.337
0.214,0.044,0.247,-5.337
0.180,0.047,0.247,-5.337
0.170,0.046,0.247,-5.337
0.199,0.043,0.244,-5.337
0.216,0.045,0.244,-5.337
0.218,0.047,0.245,-5.337
0.166,0.047,0.244,-5.337
0.106,0.050,0.243,-5.337
0.098,0.049,0.241,-5.337
0.200,0.046,0.244,-5.337
0.282,0.048,0.246,-5.337
0.265,0.048,0.245,-5.337
0.225,0.048,0.243,-5.337
0.233,0.047,0.245,-5.337
0.166,0.047,0.245,-5.337
0.166,0.047,0.245,-5.337
0.211,0.046,0.242,-5.337
0.257,0.048,0.243,-5.337
0.299,0.045,0.244,-5.337
0.284,0.045,0.243,-5.337
0.185,0.046,0.242,-5.337
0.169,0.049,0.244,-5.337
0.182,0.047,0.247,-5.337
0.161,0.045,0.247,-5.337
0.169,0.047,0.246,-5.337
0.163,0.047,0.246,-5.337
0.125,0.046,0.249,-5.337
0.100,0.045,0.251,-5.337
0.145,0.041,0.251,-5.337
0.258,0.042,0.251,-5.337
0.237,0.045,0.248,-5.337
0.162,0.047,0.243,-5.337
0.191,0.046,0.240,-5.337
0.254,0.044,0.238,-5.337
0.294,0.046,0.241,-5.337
0.266,0.046,0.246,-5.337
0.247,0.045,0.248,-5.337
0.216,0.044,0.244,-5.337
0.151,0.045,0.242,-5.337
0.073,0.045,0.242,-5.337
0.068,0.047,0.245,-5.337
0.155,0.045,0.242,-5.337
0.214,0.045,0.241,-5.337
0.275,0.043,0.239,-5.337
0.268,0.044,0.244,-5.337
0.137,0.046,0.245,-5.337
0.126,0.045,0.246,-5.337
0.187,0.041,0.243,-5.337
0.242,0.044,0.241,-5.337
0.233,0.046,0.238,-5.337
0.248,0.047,0.239,-5.337
0.253,0.047,0.244,-5.337
0.250,0.050,0.250,-5.337
0.253,0.048,0.248,-5.337
0.250,0.046,0.247,-5.337
0.196,0.047,0.247,-5.337
0.173,0.049,0.242,-5.337
0.207,0.049,0.239,-5.337
0.201,0.050,0.241,-5.337
0.198,0.048,0.246,-5.337
0.223,0.048,0.249,-5.337
0.213,0.051,0.249,-5.337
0.096,0.054,0.245,-5.337
0.109,0.050,0.247,-5.337
0.110,0.054,0.244,-5.337
0.194,0.052,0.244,-5.337
0.191,0.052,0.243,-5.337
0.167,0.054,0.242,-5.337
0.207,0.054,0.240,-5.337
0.235,0.054,0.242,-5.337
0.198,0.051,0.242,-5.337
0.141,0.053,0.245,-5.337
0.170,0.050,0.246,-5.337
0.219,0.051,0.245,-5.337
0.224,0.050,0.240,-5.337
0.225,0.048,0.239,-5.337
0.224,0.049,0.241,-5.337
0.231,0.052,0.247,-5.337
0.244,0.055,0.247,-5.337
0.256,0.057,0.241,-5.337
0.220,0.056,0.241,-5.337
0.242,0.052,0.244,-5.337
0.303,0.048,0.244,-5.337
0.260,0.047,0.245,-5.337
0.188,0.052,0.243,-5.337
0.128,0.055,0.241,-5.337
0.129,0.052,0.241,-5.337
0.152,0.053,0.243,-5.337
0.153,0.054,0.242,-5.337
0.192,0.053,0.239,-5.337
0.224,0.052,0.239,-5.337
0.214,0.049,0.240,-5.337
0.198,0.047,0.242,-5.337
0.185,0.050,0.246,-5.337
0.252,0.051,0.246,-5.337
0.233,0.050,0.245,-5.337
0.212,0.053,0.242,-5.337
0.201,0.052,0.239,-5.337
0.174,0.053,0.238,-5.337
0.135,0.053,0.242,-5.337
0.181,0.054,0.246,-5.337
0.272,0.052,0.246,-5.337
0.268,0.054,0.243,-5.337
0.213,0.054,0.243,-5.337
0.209,0.055,0.246,-5.337
0.227,0.054,0.246,-5.337
0.213,0.054,0.241,-5.337
0.184,0.054,0.236,-5.337
0.146,0.052,0.237,-5.337
0.109,0.056,0.241,-5.337
0.087,0.059,0.244,-5.337
0.098,0.059,0.244,-5.337
0.157,0.060,0.243,-5.337
0.214,0.058,0.246,-5.337
0.177,0.060,0.245,-5.337
0.110,0.059,0.243,-5.337
0.199,0.058,0.239,-5.337
0.279,0.054,0.242,-5.337
0.216,0.052,0.243,-5.337
0.180,0.056,0.246,-5.337
0.209,0.057,0.247,-5.337
0.260,0.060,0.245,-5.337
0.241,0.056,0.241,-5.337
0.199,0.053,0.239,-5.337
0.232,0.057,0.240,-5.337
0.280,0.059,0.238,-5.337
0.274,0.057,0.236,-5.337
0.229,0.058,0.242,-5.337
0.195,0.060,0.251,-5.337
0.249,0.058,0.254,-5.337
0.269,0.058,0.250,-5.337
0.283,0.055,0.245,-5.337
0.302,0.055,0.243,-5.337
0.322,0.058,0.241,-5.337
0.288,0.060,0.242,-5.337
0.266,0.061,0.243,-5.337
0.220,0.060,0.244,-5.337
0.120,0.065,0.242,-5.337
0.090,0.066,0.244,-5.337
0.166,0.061,0.243,-5.337
0.187,0.063,0.244,-5.337
0.197,0.067,0.244,-5.337
0.220,0.066,0.245,-5.337
0.195,0.066,0.244,-5.337
0.217,0.062,0.242,-5.337
0.285,0.058,0.238,-5.337
0.299,0.057,0.236,-5.337
0.297,0.057,0.237,-5.337
0.279,0.059,0.242,-5.337
0.214,0.064,0.242,-5.337
0.213,0.063,0.239,-5.337
0.209,0.061,0.241,-5.337
0.180,0.060,0.241,-5.337
0.219,0.059,0.244,-5.337
0.150,0.061,0.246,-5.337
0.098,0.064,0.245,-5.337
0.120,0.064,0.240,-5.337
0.127,0.063,0.241,-5.337
0.079,0.063,0.244,-5.337
0.060,0.068,0.248,-5.337
0.134,0.064,0.245,-5.337
0.217,0.060,0.246,-5.337
0.256,0.059,0.249,-5.337
0.254,0.058,0.248,-5.337
0.230,0.060,0.246,-5.337
0.241,0.064,0.246,-5.337
0.224,0.064,0.244,-5.337
0.251,0.066,0.243,-5.337
0.272,0.066,0.243,-5.337
0.270,0.064,0.245,-5.337
0.211,0.061,0.247,-5.337
0.232,0.062,0.245,-5.337
0.260,0.061,0.244,-5.337
0.206,0.062,0.241,-5.337
0.213,0.057,0.239,-5.337
0.271,0.055,0.243,-5.337
0.230,0.059,0.246,-5.337
0.160,0.061,0.246,-5.337
0.206,0.060,0.244,-5.337
0.233,0.061,0.243,-5.337
0.182,0.059,0.243,-5.337
0.163,0.060,0.242,-5.337
0.148,0.060,0.245,-5.337
0.137,0.060,0.248,-5.337
0.143,0.059,0.248,-5.337
0.090,0.057,0.246,-5.337
0.105,0.059,0.247,-5.337
0.191,0.061,0.248,-5.337
0.195,0.060,0.248,-5.337
0.218,0.059,0.245,-5.337
0.281,0.056,0.244,-5.337
0.251,0.057,0.241,-5.337
0.229,0.059,0.242,-5.337
0.244,0.060,0.245,-5.337
0.215,0.063,0.247,-5.337
0.223,0.065,0.247,-5.337
0.216,0.067,0.245,-5.337
0.117,0.069,0.243,-5.337
0.150,0.066,0.241,-5.337
0.262,0.063,0.240,-5.337
0.292,0.063,0.245,-5.337
0.219,0.062,0.247,-5.337
0.178,0.064,0.246,-5.337
0.152,0.064,0.245,-5.337
0.167,0.062,0.244,-5.337
0.162,0.062,0.243,-5.337
0.196,0.060,0.244,-5.337
0.283,0.057,0.245,-5.337
0.273,0.062,0.243,-5.337
0.210,0.063,0.244,-5.337
0.227,0.061,0.244,-5.337
0.278,0.060,0.244,-5.337
0.214,0.063,0.239,-5.337
0.174,0.067,0.240,-5.337
0.247,0.066,0.239,-5.337
0.264,0.065,0.242,-5.337
0.214,0.065,0.241,-5.337
0.238,0.062,0.240,-5.337
0.268,0.056,0.242,-5.337
0.273,0.056,0.244,-5.337
0.313,0.055,0.243,-5.337
0.262,0.060,0.239,-5.337
0.157,0.062,0.240,-5.337
0.107,0.061,0.242,-5.337
0.143,0.060,0.245,-5.337
0.205,0.060,0.242,-5.337
0.267,0.059,0.244,-5.337
0.247,0.059,0.244,-5.337
0.175,0.058,0.244,-5.337
0.156,0.058,0.244,-5.337
0.216,0.057,0.243,-5.337
0.232,0.056,0.245,-5.337
0.219,0.053,0.249,-5.337
0.237,0.051,0.247,-5.337
0.267,0.050,0.244,-5.337
0.259,0.049,0.242,-5.337
0.281,0.053,0.240,-5.337
0.234,0.058,0.238,-5.337
0.151,0.060,0.241,-5.337
0.127,0.056,0.242,-5.337
0.182,0.056,0.240,-5.337
0.203,0.056,0.239,-5.337
0.122,0.059,0.241,-5.337
0.121,0.059,0.244,-5.337
0.158,0.058,0.246,-5.337
0.186,0.055,0.244,-5.337
0.179,0.058,0.244,-5.337
0.135,0.059,0.244,-5.337
0.157,0.055,0.244,-5.337
0.189,0.051,0.243,-5.337
0.231,0.050,0.242,-5.337
0.244,0.052,0.242,-5.337
0.182,0.056,0.240,-5.337
0.156,0.054,0.241,-5.337
0.224,0.053,0.242,-5.337
0.261,0.052,0.243,-5.337
0.177,0.053,0.244,-5.337
0.121,0.055,0.245,-5.337
0.140,0.050,0.246,-5.337
0.227,0.049,0.247,-5.337
0.267,0.051,0.245,-5.337
0.267,0.053,0.241,-5.337
0.233,0.056,0.243,-5.337
0.141,0.056,0.244,-5.337
0.153,0.053,0.241,-5.337
0.213,0.053,0.239,-5.337
0.236,0.050,0.237,-5.337
0.228,0.050,0.237,-5.337
0.204,0.055,0.240,-5.337
0.085,0.057,0.245,-5.337
0.085,0.056,0.245,-5.337
0.201,0.053,0.242,-5.337
0.250,0.053,0.242,-5.337
0.225,0.055,0.247,-5.337
0.174,0.051,0.249,-5.337
0.170,0.050,0.248,-5.337
0.161,0.052,0.248,-5.337
0.196,0.047,0.247,-5.337
0.215,0.050,0.243,-5.337
0.172,0.049,0.241,-5.337
0.170,0.045,0.245,-5.337
0.157,0.047,0.249,-5.337
0.236,0.049,0.248,-5.337
0.269,0.051,0.244,-5.337
0.199,0.049,0.242,-5.337
0.102,0.049,0.242,-5.337
0.135,0.050,0.244,-5.337
0.169,0.054,0.247,-5.337
0.207,0.054,0.251,-5.337
0.200,0.052,0.251,-5.337
0.146,0.051,0.248,-5.337
0.190,0.049,0.242,-5.337
0.185,0.052,0.239,-5.337
0.161,0.053,0.239,-5.337
0.215,0.053,0.240,-5.337
0.249,0.052,0.244,-5.337
0.267,0.047,0.247,-5.337
0.265,0.049,0.246,-5.337
0.176,0.052,0.245,-5.337
0.146,0.052,0.244,-5.337
0.208,0.050,0.242,-5.337
0.212,0.051,0.242,-5.337
0.213,0.048,0.246,-5.337
0.238,0.046,0.249,-5.337
0.244,0.048,0.248,-5.337
0.223,0.046,0.244,-5.337
0.194,0.048,0.240,-5.337
0.198,0.046,0.242,-5.337
0.226,0.048,0.241,-5.337
0.237,0.050,0.239,-5.337
0.215,0.050,0.236,-5.337
0.229,0.052,0.239,-5.337
0.220,0.051,0.240,-5.337
0.187,0.051,0.242,-5.337
0.190,0.048,0.244,-5.337
0.186,0.048,0.247,-5.337
0.170,0.044,0.250,-5.337
0.223,0.043,0.249,-5.337
0.242,0.045,0.242,-5.337
0.122,0.044,0.236,-5.337
0.119,0.040,0.235,-5.337
0.198,0.038,0.238,-5.337
0.259,0.039,0.243,-5.337
0.239,0.042,0.246,-5.337
0.207,0.040,0.245,-5.337
0.201,0.041,0.248,-5.337
0.159,0.045,0.245,-5.337
0.153,0.040,0.243,-5.337
0.262,0.037,0.243,-5.337
0.269,0.041,0.242,-5.337
0.132,0.041,0.241,-5.337
0.063,0.043,0.242,-5.337
0.078,0.044,0.246,-5.337
0.118,0.043,0.248,-5.337
0.159,0.042,0.251,-5.337
0.201,0.044,0.244,-5.337
0.168,0.042,0.242,-5.337
0.129,0.041,0.244,-5.337
0.204,0.041,0.245,-5.337
0.193,0.042,0.239,-5.337
0.119,0.046,0.238,-5.337
0.154,0.048,0.239,-5.337
0.174,0.046,0.243,-5.337
0.140,0.045,0.246,-5.337
0.146,0.044,0.244,-5.337
0.142,0.043,0.237,-5.337
0.198,0.041,0.239,-5.337
0.233,0.039,0.244,-5.337
0.190,0.042,0.245,-5.337
0.201,0.042,0.245,-5.337
0.240,0.043,0.244,-5.337
0.191,0.045,0.244,-5.337
0.236,0.041,0.242,-5.337
0.247,0.040,0.239,-5.337
0.193,0.040,0.234,-5.337
0.176,0.043,0.237,-5.337
0.210,0.043,0.242,-5.337
0.194,0.042,0.245,-5.337
0.142,0.044,0.243,-5.337
0.146,0.045,0.247,-5.337
0.199,0.043,0.245,-5.337
0.194,0.040,0.244,-5.337
0.162,0.038,0.245,-5.337
0.145,0.041,0.247,-5.337
0.177,0.045,0.244,-5.337
0.150,0.047,0.242,-5.337
0.149,0.042,0.246,-5.337
0.161,0.041,0.246,-5.337
0.176,0.040,0.242,-5.337
0.232,0.040,0.241,-5.337
0.213,0.038,0.240,-5.337
0.175,0.040,0.244,-5.337
0.143,0.042,0.247,-5.337
0.139,0.042,0.246,-5.337
0.194,0.041,0.238,-5.337
0.243,0.040,0.236,-5.337
0.270,0.037,0.238,-5.337
0.257,0.039,0.240,-5.337
0.210,0.042,0.242,-5.337
0.144,0.045,0.244,-5.337
0.114,0.046,0.252,-5.337
0.168,0.044,0.252,-5.337
0.244,0.042,0.246,-5.337
0.249,0.040,0.238,-5.337
0.195,0.042,0.237,-5.337
0.090,0.039,0.236,-5.337
0.162,0.036,0.235,-5.337
0.294,0.032,0.240,-5.337
0.304,0.035,0.244,-5.337
0.207,0.039,0.244,-5.337
0.171,0.040,0.242,-5.337
0.156,0.038,0.244,-5.337
0.135,0.038,0.242,-5.337
0.133,0.040,0.241,-5.337
0.131,0.042,0.243,-5.337
0.185,0.039,0.243,-5.337
0.198,0.040,0.243,-5.337
0.139,0.041,0.243,-5.337
0.113,0.042,0.242,-5.337
0.198,0.036,0.239,-5.337
0.257,0.039,0.238,-5.337
0.146,0.043,0.240,-5.337
0.146,0.043,0.243,-5.337
0.245,0.045,0.245,-5.337
0.300,0.042,0.246,-5.337
0.226,0.040,0.249,-5.337
0.194,0.042,0.248,-5.337
0.173,0.046,0.245,-5.337
0.143,0.044,0.241,-5.337
0.199,0.042,0.243,-5.337
0.211,0.042,0.240,-5.337
0.151,0.043,0.239,-5.337
0.194,0.041,0.240,-5.337
0.165,0.041,0.241,-5.337
0.093,0.040,0.243,-5.337
0.137,0.039,0.246,-5.337
0.219,0.036,0.243,-5.337
0.214,0.036,0.241,-5.337
0.148,0.035,0.242,-5.337
0.183,0.031,0.238,-5.337
0.198,0.031,0.237,-5.337
0.172,0.036,0.241,-5.337
0.144,0.040,0.246,-5.337
0.209,0.038,0.249,-5.337
0.300,0.035,0.247,-5.337
0.209,0.039,0.247,-5.337
0.117,0.042,0.247,-5.337
0.180,0.037,0.246,-5.337
0.261,0.033,0.245,-5.337
0.232,0.035,0.243,-5.337
0.239,0.037,0.245,-5.337
0.229,0.040,0.245,-5.337
0.233,0.038,0.242,-5.337
0.198,0.037,0.241,-5.337
0.215,0.041,0.244,-5.337
0.213,0.041,0.245,-5.337
0.220,0.042,0.245,-5.337
0.202,0.039,0.243,-5.337
0.197,0.042,0.242,-5.337
0.212,0.042,0.242,-5.337
0.169,0.043,0.245,-5.337
0.122,0.038,0.241,-5.337
0.103,0.038,0.241,-5.337
0.177,0.037,0.241,-5.337
0.275,0.036,0.240,-5.337
0.338,0.036,0.240,-5.337
0.326,0.037,0.241,-5.337
0.295,0.038,0.242,-5.337
0.272,0.036,0.242,-5.337
0.292,0.034,0.242,-5.337
0.255,0.035,0.244,-5.337
0.144,0.035,0.244,-5.337
0.159,0.036,0.244,-5.337
0.185,0.041,0.246,-5.337
0.148,0.040,0.246,-5.337
0.179,0.037,0.245,-5.337
0.251,0.037,0.245,-5.337
0.191,0.040,0.247,-5.337
0.070,0.040,0.247,-5.337
0.130,0.042,0.249,-5.337
0.168,0.040,0.248,-5.337
0.150,0.040,0.246,-5.337
0.055,0.041,0.245,-5.337
0.109,0.039,0.244,-5.337
0.223,0.037,0.244,-5.337
0.240,0.035,0.247,-5.337
0.279,0.031,0.247,-5.337
0.225,0.035,0.246,-5.337
0.138,0.032,0.241,-5.337
0.214,0.033,0.236,-5.337
0.283,0.034,0.239,-5.337
0.188,0.039,0.243,-5.337
0.137,0.041,0.245,-5.337
0.213,0.038,0.244,-5.337
0.239,0.039,0.244,-5.337
0.158,0.042,0.246,-5.337
0.118,0.041,0.249,-5.337
0.135,0.043,0.244,-5.337
0.146,0.040,0.244,-5.337
0.162,0.037,0.246,-5.337
0.196,0.037,0.245,-5.337
0.198,0.038,0.241,-5.337
0.187,0.040,0.242,-5.337
0.172,0.039,0.242,-5.337
0.155,0.036,0.247,-5.337
0.163,0.034,0.253,-5.337
0.177,0.032,0.254,-5.337
0.248,0.029,0.250,-5.337
0.305,0.030,0.244,-5.337
0.266,0.030,0.240,-5.337
0.177,0.031,0.233,-5.337
0.159,0.036,0.233,-5.337
0.158,0.033,0.240,-5.337
0.211,0.032,0.245,-5.337
0.244,0.035,0.248,-5.337
0.180,0.039,0.248,-5.337
0.178,0.039,0.247,-5.337
0.275,0.041,0.245,-5.337
0.269,0.042,0.243,-5.337
0.222,0.038,0.244,-5.337
0.188,0.039,0.241,-5.337
0.162,0.039,0.243,-5.337
0.157,0.041,0.242,-5.337
0.193,0.040,0.242,-5.337
0.170,0.040,0.242,-5.337
0.163,0.043,0.245,-5.337
0.180,0.038,0.242,-5.337
0.216,0.041,0.241,-5.337
0.171,0.040,0.244,-5.337
0.158,0.040,0.246,-5.337
0.157,0.040,0.246,-5.337
0.179,0.042,0.246,-5.337
0.225,0.039,0.246,-5.337
0.279,0.035,0.243,-5.337
0.241,0.037,0.237,-5.337
0.197,0.041,0.235,-5.337
0.180,0.039,0.239,-5.337
0.156,0.040,0.243,-5.337
0.157,0.041,0.246,-5.337
0.186,0.040,0.249,-5.337
0.205,0.040,0.247,-5.337
0.231,0.041,0.244,-5.337
0.238,0.040,0.242,-5.337
0.206,0.039,0.244,-5.337
0.231,0.039,0.246,-5.337
0.207,0.040,0.243,-5.337
0.215,0.044,0.247,-5.337
0.177,0.046,0.248,-5.337
0.147,0.042,0.248,-5.337
0.205,0.041,0.244,-5.337
0.220,0.041,0.244,-5.337
0.189,0.042,0.243,-5.337
0.243,0.042,0.243,-5.337
0.315,0.040,0.244,-5.337
0.279,0.041,0.248,-5.337
0.167,0.041,0.252,-5.337
0.130,0.041,0.251,-5.337
0.173,0.040,0.247,-5.337
0.202,0.042,0.246,-5.337
0.102,0.046,0.246,-5.337
0.034,0.046,0.243,-5.337
0.097,0.046,0.244,-5.337
0.197,0.042,0.245,-5.337
0.263,0.040,0.242,-5.337
0.270,0.039,0.243,-5.337
0.215,0.044,0.248,-5.337
0.194,0.044,0.246,-5.337
0.185,0.045,0.244,-5.337
0.205,0.046,0.245,-5.337
0.206,0.046,0.245,-5.337
0.213,0.046,0.244,-5.337
0.258,0.042,0.245,-5.337
0.226,0.039,0.246,-5.337
0.198,0.038,0.248,-5.337
0.194,0.042,0.246,-5.337
0.186,0.044,0.244,-5.337
0.177,0.045,0.243,-5.337
0.244,0.044,0.245,-5.337
0.246,0.041,0.243,-5.337
0.243,0.042,0.244,-5.337
0.324,0.040,0.242,-5.337
0.267,0.043,0.243,-5.337
0.106,0.043,0.246,-5.337
0.109,0.045,0.246,-5.337
0.181,0.045,0.244,-5.337
0.233,0.042,0.245,-5.337
0.296,0.039,0.247,-5.337
0.303,0.045,0.246,-5.337
0.175,0.049,0.244,-5.337
0.096,0.049,0.245,-5.337
0.121,0.047,0.247,-5.337
0.173,0.044,0.246,-5.337
0.212,0.048,0.242,-5.337
0.261,0.052,0.238,-5.337
0.237,0.052,0.243,-5.337
0.202,0.052,0.248,-5.337
0.179,0.050,0.248,-5.337
0.181,0.047,0.242,-5.337
0.161,0.048,0.242,-5.337
0.192,0.041,0.242,-5.337
0.194,0.045,0.243,-5.337
0.148,0.051,0.239,-5.337
0.149,0.051,0.237,-5.337
0.132,0.051,0.239,-5.337
0.200,0.051,0.244,-5.337
0.253,0.050,0.244,-5.337
0.198,0.050,0.246,-5.337
0.161,0.046,0.243,-5.337
0.198,0.051,0.242,-5.337
0.229,0.053,0.243,-5.337
0.284,0.056,0.244,-5.337
0.255,0.054,0.245,-5.337
0.246,0.052,0.246,-5.337
0.233,0.052,0.246,-5.337
0.202,0.052,0.241,-5.337
0.174,0.051,0.238,-5.337
0.218,0.050,0.244,-5.337
0.225,0.050,0.249,-5.337
0.180,0.050,0.249,-5.337
0.198,0.050,0.248,-5.337
0.237,0.052,0.245,-5.337
0.189,0.054,0.239,-5.337
0.158,0.055,0.236,-5.337
0.173,0.057,0.238,-5.337
0.198,0.059,0.241,-5.337
0.196,0.058,0.244,-5.337
0.206,0.056,0.245,-5.337
0.189,0.054,0.248,-5.337
0.155,0.052,0.248,-5.337
0.221,0.053,0.242,-5.337
0.229,0.056,0.238,-5.337
0.200,0.057,0.241,-5.337
0.160,0.057,0.243,-5.337
0.199,0.056,0.246,-5.337
0.189,0.058,0.250,-5.337
0.142,0.058,0.248,-5.337
0.143,0.059,0.239,-5.337
0.159,0.059,0.234,-5.337
0.182,0.062,0.238,-5.337
0.188,0.063,0.243,-5.337
0.227,0.061,0.244,-5.337
0.211,0.058,0.246,-5.337
0.176,0.060,0.245,-5.337
0.253,0.056,0.242,-5.337
0.279,0.057,0.244,-5.337
0.193,0.057,0.247,-5.337
0.167,0.054,0.249,-5.337
0.255,0.054,0.245,-5.337
0.304,0.054,0.243,-5.337
0.289,0.051,0.239,-5.337
0.187,0.057,0.241,-5.337
0.115,0.060,0.241,-5.337
0.099,0.060,0.243,-5.337
0.143,0.055,0.245,-5.337
0.247,0.055,0.247,-5.337
0.213,0.055,0.245,-5.337
0.193,0.055,0.244,-5.337
0.288,0.051,0.244,-5.337
0.391,0.053,0.244,-5.337
0.365,0.055,0.243,-5.337
0.251,0.055,0.244,-5.337
0.213,0.057,0.239,-5.337
0.247,0.059,0.238,-5.337
0.192,0.057,0.242,-5.337
0.145,0.056,0.243,-5.337
0.146,0.055,0.244,-5.337
0.145,0.056,0.244,-5.337
0.167,0.056,0.244,-5.337
0.176,0.055,0.244,-5.337
0.155,0.058,0.245,-5.337
0.115,0.059,0.242,-5.337
0.167,0.058,0.238,-5.337
0.184,0.056,0.238,-5.337
0.178,0.059,0.240,-5.337
0.187,0.060,0.242,-5.337
0.203,0.056,0.244,-5.337
0.201,0.051,0.246,-5.337
0.212,0.054,0.244,-5.337
0.213,0.055,0.239,-5.337
0.148,0.056,0.241,-5.337
0.151,0.055,0.245,-5.337
0.230,0.054,0.249,-5.337
0.292,0.053,0.247,-5.337
0.255,0.053,0.243,-5.337
0.225,0.055,0.238,-5.337
0.217,0.060,0.239,-5.337
0.213,0.059,0.242,-5.337
0.252,0.058,0.248,-5.337
0.241,0.059,0.247,-5.337
0.222,0.057,0.245,-5.337
0.217,0.057,0.245,-5.337
0.208,0.061,0.246,-5.337
0.220,0.060,0.247,-5.337
0.227,0.055,0.247,-5.337
0.242,0.055,0.247,-5.337
0.229,0.058,0.245,-5.337
0.211,0.055,0.244,-5.337
0.268,0.055,0.239,-5.337
0.292,0.055,0.243,-5.337
0.215,0.057,0.242,-5.337
0.171,0.058,0.238,-5.337
0.229,0.059,0.238,-5.337
0.237,0.059,0.243,-5.337
0.290,0.057,0.246,-5.337
0.234,0.062,0.247,-5.337
0.129,0.062,0.244,-5.337
0.064,0.064,0.240,-5.337
0.153,0.058,0.240,-5.337
0.268,0.054,0.241,-5.337
0.264,0.056,0.243,-5.337
0.209,0.058,0.245,-5.337
0.224,0.058,0.247,-5.337
0.221,0.061,0.247,-5.337
0.164,0.063,0.243,-5.337
0.131,0.060,0.242,-5.337
0.189,0.060,0.243,-5.337
0.232,0.058,0.241,-5.337
0.262,0.056,0.238,-5.337
0.245,0.057,0.237,-5.337
0.193,0.056,0.241,-5.337
0.178,0.056,0.242,-5.337
0.186,0.052,0.244,-5.337
0.199,0.050,0.247,-5.337
0.215,0.054,0.246,-5.337
0.216,0.052,0.241,-5.337
0.204,0.049,0.242,-5.337
0.199,0.049,0.243,-5.337
0.218,0.049,0.242,-5.337
0.277,0.052,0.238,-5.337
0.285,0.055,0.237,-5.337
0.247,0.054,0.240,-5.337
0.200,0.056,0.247,-5.337
0.147,0.056,0.252,-5.337
0.219,0.055,0.251,-5.337
0.311,0.054,0.243,-5.337
0.288,0.059,0.237,-5.337
0.198,0.062,0.238,-5.337
0.146,0.061,0.244,-5.337
0.175,0.058,0.247,-5.337
0.151,0.060,0.246,-5.337
0.170,0.062,0.244,-5.337
0.195,0.063,0.244,-5.337
0.161,0.062,0.246,-5.337
0.151,0.061,0.244,-5.337
0.143,0.060,0.245,-5.337
0.166,0.060,0.244,-5.337
0.232,0.056,0.245,-5.337
0.268,0.058,0.248,-5.337
0.253,0.057,0.246,-5.337
0.280,0.055,0.241,-5.337
0.230,0.057,0.241,-5.337
0.270,0.054,0.243,-5.337
0.193,0.059,0.246,-5.337
0.134,0.060,0.243,-5.337
0.189,0.059,0.239,-5.337
0.183,0.056,0.242,-5.337
0.146,0.059,0.246,-5.337
0.156,0.055,0.248,-5.337
0.165,0.054,0.247,-5.337
0.187,0.055,0.245,-5.337
0.246,0.054,0.240,-5.337
0.224,0.054,0.241,-5.337
0.177,0.055,0.244,-5.337
0.155,0.051,0.246,-5.337
0.229,0.049,0.245,-5.337
0.248,0.051,0.243,-5.337
0.211,0.052,0.242,-5.337
0.174,0.050,0.244,-5.337
0.195,0.046,0.247,-5.337
0.278,0.046,0.248,-5.337
0.312,0.046,0.245,-5.337
0.253,0.050,0.243,-5.337
0.246,0.049,0.239,-5.337
0.226,0.049,0.238,-5.337
0.195,0.050,0.242,-5.337
0.220,0.050,0.248,-5.337
0.184,0.051,0.248,-5.337
0.190,0.054,0.245,-5.337
0.143,0.056,0.240,-5.337
0.139,0.058,0.239,-5.337
0.152,0.054,0.242,-5.337
0.143,0.049,0.245,-5.337
0.213,0.047,0.244,-5.337
0.302,0.050,0.247,-5.337
0.258,0.051,0.251,-5.337
0.233,0.052,0.249,-5.337
0.257,0.053,0.243,-5.337
0.219,0.053,0.240,-5.337
0.202,0.050,0.239,-5.337
0.181,0.051,0.236,-5.337
0.127,0.049,0.237,-5.337
0.115,0.050,0.238,-5.337
0.165,0.049,0.240,-5.337
0.175,0.054,0.245,-5.337
0.209,0.055,0.249,-5.337
0.207,0.053,0.246,-5.337
0.244,0.050,0.249,-5.337
0.233,0.049,0.247,-5.337
0.186,0.049,0.244,-5.337
0.206,0.051,0.238,-5.337
0.213,0.052,0.237,-5.337
0.183,0.051,0.239,-5.337
0.168,0.049,0.247,-5.337
0.188,0.046,0.246,-5.337
0.182,0.047,0.243,-5.337
0.173,0.046,0.244,-5.337
0.180,0.046,0.246,-5.337
0.193,0.047,0.247,-5.337
0.231,0.047,0.246,-5.337
0.253,0.047,0.242,-5.337
0.225,0.047,0.243,-5.337
0.211,0.047,0.243,-5.337
0.202,0.049,0.240,-5.337
0.130,0.050,0.238,-5.337
0.136,0.050,0.236,-5.337
0.229,0.046,0.240,-5.337
0.232,0.044,0.247,-5.337
0.194,0.046,0.253,-5.337
0.189,0.045,0.246,-5.337
0.243,0.043,0.241,-5.337
0.230,0.043,0.239,-5.337
0.237,0.046,0.242,-5.337
0.201,0.045,0.245,-5.337
0.160,0.046,0.248,-5.337
0.148,0.047,0.248,-5.337
0.210,0.047,0.247,-5.337
0.254,0.047,0.248,-5.337
0.158,0.051,0.249,-5.337
0.133,0.053,0.250,-5.337
0.191,0.051,0.250,-5.337
0.254,0.052,0.249,-5.337
0.205,0.055,0.245,-5.337
0.205,0.052,0.240,-5.337
0.225,0.048,0.241,-5.337
0.194,0.045,0.245,-5.337
0.205,0.044,0.245,-5.337
0.199,0.047,0.245,-5.337
0.189,0.044,0.244,-5.337
0.170,0.046,0.242,-5.337
0.222,0.046,0.244,-5.337
0.250,0.046,0.247,-5.337
0.236,0.047,0.246,-5.337
0.228,0.042,0.249,-5.337
0.295,0.039,0.249,-5.337
0.283,0.038,0.246,-5.337
0.204,0.044,0.240,-5.337
0.134,0.045,0.241,-5.337
0.151,0.043,0.241,-5.337
0.211,0.047,0.242,-5.337
0.222,0.048,0.242,-5.337
0.220,0.050,0.245,-5.337
0.191,0.046,0.246,-5.337
0.186,0.047,0.244,-5.337
0.178,0.046,0.244,-5.337
0.204,0.050,0.247,-5.337
0.183,0.049,0.247,-5.337
0.170,0.048,0.244,-5.337
0.240,0.045,0.240,-5.337
0.219,0.050,0.242,-5.337
0.123,0.048,0.243,-5.337
0.116,0.047,0.243,-5.337
0.182,0.045,0.243,-5.337
0.216,0.042,0.245,-5.337
0.254,0.042,0.244,-5.337
0.202,0.045,0.243,-5.337
0.192,0.042,0.242,-5.337
0.194,0.042,0.242,-5.337
0.189,0.042,0.245,-5.337
0.248,0.041,0.246,-5.337
0.198,0.045,0.244,-5.337
0.130,0.046,0.239,-5.337
0.152,0.043,0.238,-5.337
0.129,0.045,0.241,-5.337
0.107,0.045,0.246,-5.337
0.120,0.044,0.244,-5.337
0.166,0.044,0.238,-5.337
0.217,0.044,0.238,-5.337
0.261,0.043,0.242,-5.337
0.225,0.044,0.245,-5.337
0.211,0.044,0.242,-5.337
0.169,0.044,0.238,-5.337
0.132,0.043,0.240,-5.337
0.161,0.040,0.240,-5.337
0.172,0.040,0.241,-5.337
0.195,0.042,0.245,-5.337
0.169,0.042,0.249,-5.337
0.194,0.042,0.248,-5.337
0.250,0.042,0.248,-5.337
0.220,0.046,0.247,-5.337
0.190,0.045,0.243,-5.337
0.236,0.042,0.242,-5.337
0.215,0.043,0.246,-5.337
0.234,0.044,0.248,-5.337
0.169,0.044,0.243,-5.337
0.113,0.044,0.238,-5.337
0.164,0.046,0.239,-5.337
0.158,0.046,0.244,-5.337
0.142,0.043,0.246,-5.337
0.169,0.040,0.250,-5.337
0.226,0.040,0.250,-5.337
0.235,0.046,0.244,-5.337
0.181,0.048,0.238,-5.337
0.122,0.048,0.232,-5.337
0.135,0.045,0.234,-5.337
0.205,0.042,0.240,-5.337
0.166,0.046,0.241,-5.337
0.153,0.046,0.243,-5.337
0.202,0.045,0.244,-5.337
0.232,0.047,0.242,-5.337
0.242,0.044,0.242,-5.337
0.237,0.041,0.245,-5.337
0.230,0.042,0.246,-5.337
0.225,0.042,0.242,-5.337
0.203,0.039,0.239,-5.337
0.218,0.039,0.239,-5.337
0.243,0.040,0.238,-5.337
0.303,0.037,0.239,-5.337
0.291,0.039,0.243,-5.337
0.206,0.043,0.243,-5.337
0.166,0.042,0.246,-5.337
0.175,0.040,0.245,-5.337
0.179,0.043,0.244,-5.337
0.149,0.042,0.245,-5.337
0.150,0.042,0.244,-5.337
0.154,0.042,0.245,-5.337
0.170,0.041,0.247,-5.337
0.229,0.036,0.246,-5.337
0.261,0.036,0.245,-5.337
0.213,0.039,0.243,-5.337
0.260,0.040,0.242,-5.337
0.259,0.039,0.240,-5.337
0.205,0.039,0.239,-5.337
0.182,0.038,0.239,-5.337
0.196,0.039,0.242,-5.337
0.202,0.042,0.247,-5.337
0.223,0.043,0.244,-5.337
0.250,0.042,0.241,-5.337
0.184,0.043,0.238,-5.337
0.182,0.042,0.240,-5.337
0.236,0.040,0.240,-5.337
0.174,0.042,0.243,-5.337
0.130,0.043,0.246,-5.337
0.119,0.043,0.249,-5.337
0.143,0.042,0.244,-5.337
0.151,0.040,0.238,-5.337
0.151,0.035,0.234,-5.337
0.196,0.037,0.237,-5.337
0.198,0.039,0.244,-5.337
0.211,0.038,0.247,-5.337
0.212,0.039,0.249,-5.337
0.160,0.040,0.248,-5.337
0.148,0.042,0.247,-5.337
0.120,0.047,0.245,-5.337
0.173,0.044,0.242,-5.337
0.264,0.041,0.242,-5.337
0.279,0.043,0.243,-5.337
0.215,0.044,0.240,-5.337
0.192,0.042,0.235,-5.337
0.127,0.042,0.237,-5.337
0.102,0.040,0.243,-5.337
0.164,0.039,0.246,-5.337
0.196,0.036,0.245,-5.337
0.238,0.039,0.240,-5.337
0.262,0.038,0.242,-5.337
0.213,0.037,0.245,-5.337
0.210,0.038,0.250,-5.337
0.210,0.041,0.246,-5.337
0.167,0.042,0.245,-5.337
0.190,0.037,0.243,-5.337
0.273,0.034,0.245,-5.337
0.213,0.033,0.243,-5.337
0.175,0.035,0.242,-5.337
0.200,0.034,0.239,-5.337
0.173,0.037,0.239,-5.337
0.127,0.039,0.240,-5.337
0.110,0.039,0.243,-5.337
0.149,0.039,0.244,-5.337
0.195,0.039,0.243,-5.337
0.163,0.040,0.242,-5.337
0.180,0.039,0.242,-5.337
0.228,0.036,0.244,-5.337
0.231,0.039,0.247,-5.337
0.202,0.043,0.244,-5.337
0.187,0.043,0.242,-5.337
0.173,0.044,0.239,-5.337
0.254,0.046,0.239,-5.337
0.280,0.043,0.242,-5.337
0.234,0.043,0.248,-5.337
0.206,0.044,0.251,-5.337
0.205,0.042,0.246,-5.337
0.183,0.041,0.244,-5.337
0.149,0.041,0.241,-5.337
0.188,0.043,0.242,-5.337
0.225,0.042,0.243,-5.337
0.224,0.041,0.242,-5.337
0.207,0.038,0.240,-5.337
0.217,0.038,0.243,-5.337
0.217,0.039,0.241,-5.337
0.203,0.040,0.237,-5.337
0.237,0.034,0.236,-5.337
0.213,0.037,0.242,-5.337
0.172,0.038,0.247,-5.337
0.167,0.036,0.248,-5.337
0.153,0.033,0.248,-5.337
0.151,0.040,0.250,-5.337
0.138,0.042,0.250,-5.337
0.157,0.046,0.247,-5.337
0.177,0.045,0.242,-5.337
0.194,0.046,0.240,-5.337
0.184,0.047,0.242,-5.337
0.176,0.047,0.243,-5.337
0.229,0.046,0.245,-5.337
0.259,0.044,0.246,-5.337
0.235,0.041,0.245,-5.337
0.250,0.042,0.242,-5.337
0.253,0.043,0.246,-5.337
0.201,0.042,0.250,-5.337
0.175,0.040,0.248,-5.337
0.122,0.038,0.242,-5.337
0.125,0.037,0.239,-5.337
0.186,0.037,0.239,-5.337
0.208,0.037,0.243,-5.337
0.218,0.037,0.246,-5.337
0.167,0.040,0.248,-5.337
0.124,0.038,0.244,-5.337
0.238,0.035,0.242,-5.337
0.296,0.035,0.241,-5.337
0.239,0.040,0.243,-5.337
0.190,0.044,0.247,-5.337
0.170,0.042,0.246,-5.337
0.172,0.038,0.246,-5.337
0.237,0.039,0.247,-5.337
0.252,0.038,0.247,-5.337
0.190,0.039,0.243,-5.337
0.181,0.041,0.243,-5.337
0.217,0.044,0.244,-5.337
0.220,0.044,0.248,-5.337
0.188,0.044,0.246,-5.337
0.145,0.042,0.244,-5.337
0.155,0.043,0.243,-5.337
0.175,0.045,0.245,-5.337
0.208,0.046,0.245,-5.337
0.209,0.043,0.247,-5.337
0.227,0.042,0.247,-5.337
0.140,0.043,0.247,-5.337
0.155,0.040,0.246,-5.337
0.167,0.040,0.243,-5.337
0.202,0.046,0.241,-5.337
0.246,0.048,0.242,-5.337
0.214,0.046,0.245,-5.337
0.218,0.043,0.246,-5.337
0.205,0.043,0.247,-5.337
0.192,0.046,0.249,-5.337
0.209,0.043,0.248,-5.337
0.205,0.046,0.248,-5.337
0.228,0.049,0.247,-5.337
0.235,0.045,0.245,-5.337
0.208,0.045,0.244,-5.337
0.188,0.046,0.241,-5.337
0.217,0.045,0.239,-5.337
0.147,0.044,0.239,-5.337
0.076,0.046,0.239,-5.337
0.115,0.044,0.242,-5.337
0.160,0.045,0.251,-5.337
0.173,0.044,0.250,-5.337
0.159,0.044,0.246,-5.337
0.139,0.045,0.243,-5.337
0.162,0.047,0.243,-5.337
0.219,0.048,0.242,-5.337
0.180,0.052,0.244,-5.337
0.180,0.051,0.243,-5.337
0.151,0.052,0.242,-5.337
0.160,0.047,0.245,-5.337
0.188,0.047,0.245,-5.337
0.211,0.052,0.246,-5.337
0.181,0.053,0.249,-5.337
0.213,0.047,0.250,-5.337
0.285,0.040,0.247,-5.337
0.241,0.040,0.244,-5.337
0.250,0.043,0.244,-5.337
0.201,0.045,0.244,-5.337
0.196,0.046,0.244,-5.337
0.177,0.044,0.246,-5.337
0.137,0.045,0.247,-5.337
0.154,0.048,0.247,-5.337
0.236,0.043,0.246,-5.337
0.263,0.042,0.243,-5.337
0.225,0.044,0.244,-5.337
0.192,0.045,0.245,-5.337
0.152,0.048,0.245,-5.337
0.116,0.047,0.246,-5.337
0.134,0.046,0.243,-5.337
0.166,0.044,0.243,-5.337
0.223,0.045,0.243,-5.337
0.222,0.050,0.244,-5.337
0.211,0.052,0.244,-5.337
0.204,0.054,0.250,-5.337
0.218,0.052,0.251,-5.337
0.231,0.050,0.246,-5.337
0.242,0.049,0.244,-5.337
0.213,0.051,0.244,-5.337
0.240,0.049,0.246,-5.337
0.281,0.048,0.248,-5.337
0.246,0.049,0.247,-5.337
0.149,0.052,0.242,-5.337
0.110,0.053,0.241,-5.337
0.176,0.052,0.239,-5.337
0.198,0.053,0.244,-5.337
0.196,0.054,0.248,-5.337
0.152,0.056,0.248,-5.337
0.194,0.052,0.244,-5.337
0.188,0.054,0.243,-5.337
0.173,0.051,0.246,-5.337
0.190,0.048,0.251,-5.337
0.203,0.052,0.251,-5.337
0.182,0.052,0.248,-5.337
0.128,0.048,0.244,-5.337
0.094,0.048,0.243,-5.337
0.129,0.045,0.241,-5.337
0.197,0.047,0.243,-5.337
0.263,0.050,0.245,-5.337
0.221,0.054,0.247,-5.337
0.165,0.050,0.249,-5.337
0.198,0.049,0.249,-5.337
0.261,0.048,0.246,-5.337
0.241,0.050,0.243,-5.337
0.234,0.049,0.239,-5.337
0.253,0.050,0.237,-5.337
0.203,0.053,0.238,-5.337
0.180,0.053,0.240,-5.337
0.234,0.052,0.239,-5.337
0.285,0.053,0.241,-5.337
0.233,0.055,0.244,-5.337
0.226,0.053,0.244,-5.337
0.182,0.053,0.243,-5.337
0.242,0.055,0.243,-5.337
0.237,0.059,0.243,-5.337
0.164,0.059,0.241,-5.337
0.164,0.057,0.242,-5.337
0.236,0.057,0.244,-5.337
0.305,0.057,0.246,-5.337
0.271,0.054,0.243,-5.337
0.209,0.058,0.244,-5.337
0.226,0.059,0.244,-5.337
0.250,0.057,0.246,-5.337
0.183,0.056,0.247,-5.337
0.188,0.054,0.245,-5.337
0.264,0.054,0.245,-5.337
0.272,0.053,0.246,-5.337
0.243,0.050,0.244,-5.337
0.286,0.048,0.242,-5.337
0.308,0.048,0.240,-5.337
0.217,0.053,0.241,-5.337
0.144,0.055,0.242,-5.337
0.181,0.053,0.242,-5.337
0.179,0.051,0.242,-5.337
0.151,0.052,0.243,-5.337
0.180,0.053,0.244,-5.337
0.221,0.055,0.243,-5.337
0.240,0.054,0.244,-5.337
0.132,0.056,0.245,-5.337
0.066,0.054,0.245,-5.337
0.136,0.053,0.240,-5.337
0.168,0.054,0.240,-5.337
0.211,0.054,0.246,-5.337
0.208,0.056,0.247,-5.337
0.186,0.057,0.244,-5.337
0.156,0.054,0.243,-5.337
0.239,0.048,0.242,-5.337
0.294,0.051,0.242,-5.337
0.233,0.054,0.241,-5.337
0.217,0.054,0.244,-5.337
0.203,0.053,0.244,-5.337
0.206,0.056,0.244,-5.337
0.185,0.058,0.245,-5.337
0.214,0.057,0.246,-5.337
0.263,0.054,0.243,-5.337
0.254,0.053,0.243,-5.337
0.205,0.056,0.242,-5.337
0.184,0.055,0.240,-5.337
0.202,0.056,0.241,-5.337
0.228,0.059,0.244,-5.337
0.147,0.062,0.247,-5.337
0.104,0.057,0.243,-5.337
0.167,0.056,0.241,-5.337
0.191,0.057,0.239,-5.337
0.229,0.057,0.245,-5.337
0.218,0.056,0.247,-5.337
0.207,0.053,0.247,-5.337
0.233,0.053,0.244,-5.337
0.225,0.058,0.247,-5.337
0.242,0.057,0.248,-5.337
0.305,0.052,0.247,-5.337
0.229,0.055,0.243,-5.337
0.138,0.061,0.240,-5.337
0.180,0.059,0.239,-5.337
0.207,0.056,0.239,-5.337
0.226,0.054,0.240,-5.337
0.262,0.061,0.241,-5.337
0.228,0.066,0.246,-5.337
0.168,0.067,0.249,-5.337
0.210,0.064,0.245,-5.337
0.242,0.062,0.241,-5.337
0.244,0.059,0.237,-5.337
0.219,0.058,0.236,-5.337
0.207,0.059,0.237,-5.337
0.281,0.062,0.241,-5.337
0.257,0.063,0.244,-5.337
0.229,0.061,0.245,-5.337
0.244,0.059,0.243,-5.337
0.277,0.063,0.240,-5.337
0.258,0.067,0.243,-5.337
0.259,0.068,0.247,-5.337
0.298,0.064,0.252,-5.337
0.282,0.061,0.251,-5.337
0.254,0.061,0.247,-5.337
0.208,0.060,0.241,-5.337
0.172,0.060,0.241,-5.337
0.182,0.061,0.243,-5.337
0.191,0.059,0.245,-5.337
0.191,0.057,0.244,-5.337
0.274,0.058,0.242,-5.337
0.355,0.057,0.239,-5.337
0.278,0.062,0.236,-5.337
0.149,0.063,0.237,-5.337
0.118,0.061,0.242,-5.337
0.127,0.061,0.245,-5.337
0.173,0.062,0.246,-5.337
0.263,0.061,0.247,-5.337
0.259,0.061,0.248,-5.337
0.193,0.062,0.249,-5.337
0.118,0.061,0.245,-5.337
0.097,0.063,0.243,-5.337
0.057,0.066,0.240,-5.337
0.102,0.067,0.241,-5.337
0.179,0.062,0.244,-5.337
0.231,0.060,0.244,-5.337
0.181,0.061,0.242,-5.337
0.111,0.066,0.247,-5.337
0.151,0.061,0.245,-5.337
0.209,0.061,0.241,-5.337
0.239,0.063,0.233,-5.337
0.266,0.062,0.237,-5.337
0.159,0.059,0.242,-5.337
0.117,0.057,0.244,-5.337
0.169,0.057,0.247,-5.337
0.213,0.061,0.246,-5.337
0.207,0.059,0.243,-5.337
0.205,0.058,0.242,-5.337
0.152,0.057,0.244,-5.337
0.155,0.055,0.244,-5.337
0.203,0.053,0.242,-5.337
0.268,0.054,0.242,-5.337
0.235,0.057,0.244,-5.337
0.198,0.058,0.245,-5.337
0.181,0.056,0.244,-5.337
0.147,0.054,0.241,-5.337
0.104,0.058,0.240,-5.337
0.206,0.059,0.240,-5.337
0.274,0.057,0.241,-5.337
0.197,0.056,0.243,-5.337
0.110,0.061,0.246,-5.337
0.111,0.059,0.245,-5.337
0.204,0.054,0.244,-5.337
0.250,0.054,0.243,-5.337
0.211,0.058,0.244,-5.337
0.226,0.056,0.243,-5.337
0.241,0.057,0.242,-5.337
0.216,0.058,0.244,-5.337
0.228,0.060,0.246,-5.337
0.246,0.059,0.246,-5.337
0.211,0.062,0.244,-5.337
0.197,0.063,0.241,-5.337
0.245,0.060,0.241,-5.337
0.218,0.059,0.244,-5.337
0.234,0.060,0.246,-5.337
0.228,0.058,0.246,-5.337
0.135,0.061,0.244,-5.337
0.154,0.060,0.241,-5.337
0.221,0.057,0.243,-5.337
0.252,0.057,0.245,-5.337
0.177,0.058,0.244,-5.337
0.138,0.058,0.245,-5.337
0.099,0.055,0.242,-5.337
0.131,0.055,0.240,-5.337
0.147,0.056,0.242,-5.337
0.195,0.054,0.243,-5.337
0.243,0.053,0.244,-5.337
0.214,0.052,0.250,-5.337
0.179,0.054,0.247,-5.337
0.199,0.053,0.239,-5.337
0.221,0.056,0.235,-5.337
0.146,0.059,0.241,-5.337
0.062,0.059,0.245,-5.337
0.096,0.060,0.249,-5.337
0.150,0.058,0.249,-5.337
0.100,0.060,0.249,-5.337
0.146,0.057,0.247,-5.337
0.198,0.055,0.243,-5.337
0.162,0.056,0.242,-5.337
0.170,0.056,0.243,-5.337
0.204,0.052,0.245,-5.337
0.223,0.053,0.245,-5.337
0.179,0.054,0.245,-5.337
0.129,0.051,0.244,-5.337
0.223,0.047,0.242,-5.337
0.333,0.045,0.238,-5.337
0.267,0.049,0.240,-5.337
0.215,0.044,0.245,-5.337
0.227,0.043,0.246,-5.337
0.252,0.042,0.242,-5.337
0.232,0.045,0.242,-5.337
0.207,0.048,0.241,-5.337
0.189,0.048,0.243,-5.337
0.210,0.050,0.247,-5.337
0.199,0.050,0.250,-5.337
0.147,0.052,0.248,-5.337
0.146,0.053,0.247,-5.337
0.185,0.049,0.244,-5.337
0.222,0.050,0.244,-5.337
0.274,0.049,0.246,-5.337
0.213,0.050,0.246,-5.337
0.170,0.049,0.244,-5.337
0.120,0.051,0.244,-5.337
0.099,0.051,0.243,-5.337
0.168,0.046,0.241,-5.337
0.152,0.047,0.240,-5.337
0.146,0.049,0.241,-5.337
0.240,0.050,0.243,-5.337
0.223,0.051,0.246,-5.337
0.239,0.047,0.246,-5.337
0.307,0.044,0.246,-5.337
0.248,0.044,0.246,-5.337
0.187,0.042,0.243,-5.337
0.168,0.042,0.247,-5.337
0.171,0.041,0.247,-5.337
0.186,0.042,0.244,-5.337
0.132,0.046,0.241,-5.337
0.112,0.048,0.243,-5.337
0.173,0.049,0.244,-5.337
0.214,0.047,0.242,-5.337
0.212,0.044,0.242,-5.337
0.172,0.044,0.246,-5.337
0.118,0.045,0.250,-5.337
0.117,0.043,0.250,-5.337
0.174,0.040,0.248,-5.337
0.173,0.043,0.244,-5.337
0.165,0.042,0.241,-5.337
0.184,0.041,0.241,-5.337
0.198,0.041,0.241,-5.337
0.183,0.042,0.241,-5.337
0.138,0.043,0.242,-5.337
0.145,0.042,0.247,-5.337
0.143,0.041,0.250,-5.337
0.178,0.039,0.249,-5.337
0.244,0.036,0.246,-5.337
0.264,0.036,0.245,-5.337
0.180,0.037,0.246,-5.337
0.102,0.040,0.245,-5.337
0.144,0.040,0.242,-5.337
0.193,0.039,0.242,-5.337
0.184,0.039,0.243,-5.337
0.148,0.042,0.243,-5.337
0.107,0.042,0.245,-5.337
0.143,0.042,0.246,-5.337
0.234,0.039,0.244,-5.337
0.250,0.041,0.242,-5.337
0.151,0.044,0.246,-5.337
0.155,0.044,0.250,-5.337
0.233,0.044,0.248,-5.337
0.200,0.047,0.245,-5.337
0.143,0.048,0.246,-5.337
0.176,0.045,0.245,-5.337
0.251,0.043,0.244,-5.337
0.266,0.044,0.239,-5.337
0.223,0.045,0.241,-5.337
0.171,0.045,0.245,-5.337
0.167,0.042,0.247,-5.337
0.156,0.042,0.245,-5.337
0.203,0.038,0.244,-5.337
0.288,0.038,0.244,-5.337
0.274,0.040,0.248,-5.337
0.171,0.043,0.250,-5.337
0.081,0.044,0.248,-5.337
0.091,0.040,0.247,-5.337
0.151,0.036,0.243,-5.337
0.153,0.039,0.241,-5.337
0.119,0.044,0.241,-5.337
0.133,0.042,0.249,-5.337
0.208,0.039,0.249,-5.337
0.235,0.042,0.248,-5.337
0.196,0.041,0.246,-5.337
0.131,0.046,0.244,-5.337
0.115,0.045,0.243,-5.337
0.145,0.043,0.241,-5.337
0.187,0.041,0.241,-5.337
0.219,0.042,0.241,-5.337
0.225,0.042,0.242,-5.337
0.209,0.043,0.245,-5.337
0.164,0.043,0.244,-5.337
0.134,0.045,0.242,-5.337
0.131,0.046,0.241,-5.337
0.184,0.045,0.238,-5.337
0.202,0.046,0.239,-5.337
0.168,0.044,0.245,-5.337
0.223,0.039,0.247,-5.337
0.178,0.044,0.244,-5.337
0.134,0.047,0.243,-5.337
0.116,0.046,0.246,-5.337
0.088,0.044,0.251,-5.337
0.182,0.038,0.253,-5.337
0.280,0.040,0.249,-5.337
0.195,0.041,0.238,-5.337
0.129,0.043,0.236,-5.337
0.145,0.044,0.240,-5.337
0.160,0.044,0.244,-5.337
0.194,0.042,0.245,-5.337
0.237,0.043,0.246,-5.337
0.233,0.040,0.246,-5.337
0.212,0.042,0.242,-5.337
0.172,0.049,0.242,-5.337
0.160,0.046,0.241,-5.337
0.185,0.041,0.243,-5.337
0.128,0.043,0.250,-5.337
0.120,0.043,0.249,-5.337
0.179,0.041,0.243,-5.337
0.270,0.037,0.240,-5.337
0.271,0.037,0.240,-5.337
0.267,0.037,0.242,-5.337
0.217,0.039,0.241,-5.337
0.154,0.040,0.237,-5.337
0.189,0.039,0.238,-5.337
0.245,0.039,0.242,-5.337
0.192,0.040,0.244,-5.337
0.198,0.037,0.244,-5.337
0.210,0.037,0.247,-5.337
0.218,0.034,0.247,-5.337
0.106,0.036,0.242,-5.337
0.062,0.040,0.242,-5.337
0.114,0.042,0.242,-5.337
0.141,0.044,0.243,-5.337
0.153,0.041,0.244,-5.337
0.165,0.039,0.242,-5.337
0.197,0.039,0.238,-5.337
0.194,0.042,0.239,-5.337
0.170,0.041,0.243,-5.337
0.141,0.038,0.245,-5.337
0.190,0.037,0.243,-5.337
0.241,0.039,0.239,-5.337
0.201,0.044,0.239,-5.337
0.205,0.046,0.242,-5.337
0.217,0.042,0.244,-5.337
0.234,0.039,0.246,-5.337
0.180,0.044,0.248,-5.337
0.150,0.045,0.246,-5.337
0.177,0.041,0.241,-5.337
0.233,0.038,0.239,-5.337
0.194,0.042,0.245,-5.337
0.159,0.048,0.249,-5.337
0.192,0.045,0.252,-5.337
0.207,0.040,0.246,-5.337
0.147,0.043,0.240,-5.337
0.173,0.041,0.240,-5.337
0.261,0.041,0.244,-5.337
0.273,0.043,0.245,-5.337
0.198,0.041,0.246,-5.337
0.202,0.039,0.245,-5.337
0.182,0.042,0.242,-5.337
0.146,0.042,0.241,-5.337
0.178,0.042,0.244,-5.337
0.212,0.041,0.244,-5.337
0.234,0.042,0.242,-5.337
0.211,0.042,0.238,-5.337
0.228,0.041,0.233,-5.337
0.225,0.039,0.234,-5.337
0.235,0.039,0.235,-5.337
0.226,0.039,0.239,-5.337
0.235,0.041,0.243,-5.337
0.171,0.045,0.249,-5.337
0.159,0.043,0.244,-5.337
0.204,0.043,0.240,-5.337
0.225,0.042,0.237,-5.337
0.161,0.042,0.242,-5.337
0.137,0.041,0.243,-5.337
0.231,0.042,0.243,-5.337
0.252,0.043,0.245,-5.337
0.175,0.044,0.245,-5.337
0.152,0.045,0.245,-5.337
0.154,0.043,0.248,-5.337
0.131,0.045,0.247,-5.337
0.100,0.047,0.243,-5.337
0.049,0.048,0.242,-5.337
0.119,0.045,0.243,-5.337
0.182,0.047,0.242,-5.337
0.088,0.051,0.243,-5.337
0.062,0.048,0.244,-5.337
0.094,0.045,0.243,-5.337
0.134,0.047,0.245,-5.337
0.171,0.048,0.247,-5.337
0.194,0.047,0.245,-5.337
0.126,0.047,0.244,-5.337
0.142,0.049,0.240,-5.337
0.193,0.047,0.238,-5.337
0.170,0.043,0.242,-5.337
0.147,0.042,0.244,-5.337
0.173,0.041,0.244,-5.337
0.211,0.043,0.242,-5.337
0.141,0.048,0.247,-5.337
0.100,0.047,0.245,-5.337
0.166,0.045,0.243,-5.337
0.215,0.042,0.242,-5.337
0.230,0.043,0.242,-5.337
0.233,0.042,0.240,-5.337
0.219,0.046,0.238,-5.337
0.232,0.047,0.238,-5.337
0.273,0.045,0.240,-5.337
0.239,0.042,0.242,-5.337
0.166,0.040,0.240,-5.337
0.185,0.040,0.242,-5.337
0.199,0.044,0.247,-5.337
0.254,0.043,0.249,-5.337
0.226,0.042,0.249,-5.337
0.224,0.042,0.248,-5.337
0.187,0.047,0.245,-5.337
0.132,0.047,0.242,-5.337
0.155,0.047,0.242,-5.337
0.155,0.044,0.241,-5.337
0.150,0.042,0.241,-5.337
0.118,0.047,0.245,-5.337
0.141,0.050,0.248,-5.337
0.193,0.047,0.247,-5.337
0.179,0.048,0.245,-5.337
0.166,0.050,0.245,-5.337
0.167,0.050,0.246,-5.337
0.178,0.049,0.245,-5.337
0.180,0.047,0.240,-5.337
0.199,0.045,0.240,-5.337
0.207,0.044,0.243,-5.337
0.205,0.046,0.244,-5.337
0.195,0.046,0.245,-5.337
0.250,0.049,0.246,-5.337
0.263,0.047,0.247,-5.337
0.188,0.049,0.248,-5.337
0.162,0.046,0.247,-5.337
0.177,0.051,0.245,-5.337
0.205,0.050,0.241,-5.337
0.224,0.047,0.242,-5.337
0.214,0.049,0.246,-5.337
0.128,0.052,0.248,-5.337
0.124,0.049,0.244,-5.337
0.216,0.046,0.240,-5.337
0.210,0.046,0.239,-5.337
0.161,0.047,0.243,-5.337
0.113,0.049,0.246,-5.337
0.128,0.045,0.247,-5.337
0.217,0.043,0.247,-5.337
0.267,0.044,0.247,-5.337
0.173,0.047,0.248,-5.337
0.093,0.050,0.245,-5.337
0.161,0.048,0.243,-5.337
0.156,0.049,0.243,-5.337
0.157,0.048,0.242,-5.337
0.184,0.044,0.240,-5.337
0.186,0.045,0.242,-5.337
0.172,0.047,0.244,-5.337
0.132,0.050,0.245,-5.337
0.143,0.052,0.246,-5.337
0.162,0.052,0.247,-5.337
0.250,0.047,0.246,-5.337
0.245,0.050,0.244,-5.337
0.093,0.055,0.242,-5.337
0.105,0.053,0.242,-5.337
0.231,0.051,0.242,-5.337
0.268,0.050,0.242,-5.337
0.179,0.051,0.241,-5.337
0.164,0.048,0.241,-5.337
0.159,0.048,0.246,-5.337
0.166,0.049,0.248,-5.337
0.146,0.050,0.250,-5.337
0.123,0.052,0.248,-5.337
0.201,0.050,0.250,-5.337
0.280,0.050,0.247,-5.337
0.189,0.051,0.246,-5.337
0.111,0.051,0.244,-5.337
0.082,0.055,0.245,-5.337
0.076,0.057,0.243,-5.337
0.109,0.054,0.244,-5.337
0.168,0.049,0.247,-5.337
0.180,0.049,0.250,-5.337
0.148,0.049,0.247,-5.337
0.186,0.050,0.243,-5.337
0.240,0.051,0.244,-5.337
0.267,0.050,0.245,-5.337
0.265,0.048,0.248,-5.337
0.191,0.050,0.248,-5.337
0.117,0.055,0.246,-5.337
0.124,0.056,0.248,-5.337
0.125,0.056,0.247,-5.337
0.214,0.053,0.244,-5.337
0.259,0.054,0.245,-5.337
0.275,0.053,0.244,-5.337
0.241,0.054,0.247,-5.337
0.161,0.054,0.247,-5.337
0.198,0.053,0.244,-5.337
0.236,0.050,0.242,-5.337
0.204,0.053,0.242,-5.337
0.149,0.054,0.241,-5.337
0.225,0.050,0.242,-5.337
0.237,0.049,0.243,-5.337
0.202,0.053,0.247,-5.337
0.188,0.051,0.249,-5.337
0.230,0.049,0.246,-5.337
0.240,0.049,0.240,-5.337
0.239,0.049,0.241,-5.337
0.267,0.053,0.247,-5.337
0.201,0.056,0.251,-5.337
0.193,0.055,0.247,-5.337
0.233,0.054,0.243,-5.337
0.186,0.053,0.242,-5.337
0.188,0.057,0.241,-5.337
0.146,0.063,0.245,-5.337
0.097,0.062,0.247,-5.337
0.094,0.058,0.242,-5.337
0.113,0.057,0.240,-5.337
0.134,0.059,0.243,-5.337
0.193,0.056,0.247,-5.337
0.244,0.059,0.248,-5.337
0.227,0.061,0.248,-5.337
0.301,0.055,0.248,-5.337
0.297,0.051,0.247,-5.337
0.239,0.048,0.244,-5.337
0.261,0.048,0.242,-5.337
0.280,0.050,0.244,-5.337
0.221,0.052,0.247,-5.337
0.169,0.055,0.247,-5.337
0.199,0.056,0.247,-5.337
0.237,0.051,0.246,-5.337
0.228,0.051,0.247,-5.337
0.204,0.054,0.249,-5.337
0.203,0.054,0.248,-5.337
0.222,0.057,0.249,-5.337
0.182,0.058,0.250,-5.337
0.163,0.057,0.247,-5.337
0.232,0.060,0.242,-5.337
0.174,0.063,0.242,-5.337
0.097,0.062,0.240,-5.337
0.227,0.058,0.240,-5.337
0.322,0.054,0.242,-5.337
0.236,0.055,0.245,-5.337
0.195,0.056,0.246,-5.337
0.176,0.056,0.244,-5.337
0.201,0.053,0.241,-5.337
0.157,0.057,0.242,-5.337
0.183,0.057,0.247,-5.337
0.190,0.060,0.245,-5.337
0.130,0.059,0.245,-5.337
0.166,0.057,0.245,-5.337
0.212,0.061,0.246,-5.337
0.196,0.060,0.245,-5.337
0.171,0.062,0.247,-5.337
0.143,0.061,0.248,-5.337
0.168,0.061,0.249,-5.337
0.169,0.056,0.247,-5.337
0.180,0.055,0.246,-5.337
0.181,0.054,0.244,-5.337
0.146,0.059,0.242,-5.337
0.128,0.061,0.237,-5.337
0.142,0.063,0.243,-5.337
0.143,0.061,0.247,-5.337
0.177,0.058,0.246,-5.337
0.216,0.058,0.243,-5.337
0.215,0.060,0.240,-5.337
0.160,0.061,0.240,-5.337
0.169,0.058,0.244,-5.337
0.214,0.057,0.247,-5.337
0.228,0.060,0.245,-5.337
0.286,0.061,0.244,-5.337
0.279,0.063,0.244,-5.337
0.234,0.063,0.247,-5.337
0.200,0.064,0.246,-5.337
0.157,0.060,0.247,-5.337
0.142,0.059,0.246,-5.337
0.146,0.063,0.248,-5.337
0.162,0.068,0.246,-5.337
0.155,0.068,0.243,-5.337
0.142,0.063,0.241,-5.337
0.249,0.060,0.241,-5.337
0.241,0.061,0.242,-5.337
0.179,0.065,0.243,-5.337
0.181,0.062,0.243,-5.337
0.214,0.061,0.244,-5.337
0.193,0.061,0.245,-5.337
0.157,0.065,0.240,-5.337
0.149,0.063,0.238,-5.337
0.205,0.064,0.240,-5.337
0.170,0.065,0.241,-5.337
0.142,0.066,0.242,-5.337
0.113,0.068,0.244,-5.337
0.194,0.065,0.245,-5.337
0.235,0.062,0.244,-5.337
0.251,0.063,0.241,-5.337
0.256,0.063,0.244,-5.337
0.283,0.064,0.247,-5.337
0.295,0.060,0.249,-5.337
0.274,0.060,0.247,-5.337
0.195,0.063,0.246,-5.337
0.210,0.064,0.242,-5.337
0.213,0.061,0.243,-5.337
0.175,0.060,0.243,-5.337
0.162,0.066,0.243,-5.337
0.185,0.064,0.244,-5.337
0.192,0.065,0.244,-5.337
0.210,0.063,0.243,-5.337
0.253,0.063,0.243,-5.337
0.225,0.066,0.242,-5.337
0.168,0.063,0.242,-5.337
0.208,0.062,0.242,-5.337
0.197,0.064,0.244,-5.337
0.183,0.063,0.244,-5.337
0.184,0.062,0.246,-5.337
0.168,0.061,0.248,-5.337
0.210,0.058,0.246,-5.337
0.149,0.060,0.244,-5.337
0.156,0.059,0.242,-5.337
0.278,0.056,0.242,-5.337
0.301,0.060,0.243,-5.337
0.212,0.059,0.245,-5.337
0.208,0.059,0.246,-5.337
0.203,0.061,0.249,-5.337
0.160,0.059,0.243,-5.337
0.159,0.060,0.237,-5.337
0.236,0.056,0.235,-5.337
0.274,0.054,0.242,-5.337
0.268,0.053,0.247,-5.337
0.234,0.054,0.246,-5.337
0.228,0.057,0.243,-5.337
0.258,0.056,0.242,-5.337
0.291,0.053,0.238,-5.337
0.309,0.054,0.241,-5.337
0.221,0.056,0.244,-5.337
0.184,0.058,0.245,-5.337
0.204,0.056,0.245,-5.337
0.272,0.053,0.245,-5.337
0.276,0.054,0.243,-5.337
0.262,0.061,0.240,-5.337
0.200,0.059,0.240,-5.337
0.134,0.061,0.241,-5.337
0.070,0.062,0.240,-5.337
0.129,0.059,0.242,-5.337
0.209,0.060,0.244,-5.337
0.224,0.062,0.242,-5.337
0.161,0.058,0.243,-5.337
0.103,0.058,0.245,-5.337
0.167,0.055,0.246,-5.337
0.233,0.056,0.245,-5.337
0.218,0.060,0.243,-5.337
0.175,0.058,0.244,-5.337
0.294,0.054,0.246,-5.337
0.322,0.054,0.243,-5.337
0.218,0.055,0.243,-5.337
0.138,0.056,0.240,-5.337
0.140,0.056,0.236,-5.337
0.175,0.057,0.239,-5.337
0.213,0.058,0.245,-5.337
0.229,0.055,0.251,-5.337
0.201,0.057,0.250,-5.337
0.172,0.059,0.247,-5.337
0.194,0.057,0.243,-5.337
0.206,0.059,0.241,-5.337
0.229,0.056,0.241,-5.337
0.250,0.053,0.244,-5.337
0.254,0.053,0.246,-5.337
0.226,0.052,0.246,-5.337
0.119,0.055,0.243,-5.337
0.044,0.060,0.243,-5.337
0.113,0.060,0.243,-5.337
0.230,0.055,0.247,-5.337
0.273,0.049,0.247,-5.337
0.206,0.052,0.245,-5.337
0.140,0.053,0.241,-5.337
0.140,0.054,0.242,-5.337
0.150,0.054,0.244,-5.337
0.148,0.055,0.243,-5.337
0.104,0.054,0.243,-5.337
0.154,0.054,0.247,-5.337
0.212,0.053,0.246,-5.337
0.195,0.054,0.241,-5.337
0.175,0.055,0.239,-5.337
0.132,0.056,0.239,-5.337
0.127,0.052,0.242,-5.337
0.189,0.052,0.246,-5.337
0.199,0.053,0.246,-5.337
0.171,0.053,0.246,-5.337
0.163,0.055,0.244,-5.337
0.121,0.055,0.243,-5.337
0.144,0.055,0.246,-5.337
0.178,0.052,0.245,-5.337
0.200,0.054,0.244,-5.337
0.229,0.052,0.242,-5.337
0.216,0.049,0.239,-5.337
0.207,0.048,0.239,-5.337
0.179,0.052,0.245,-5.337
0.148,0.050,0.247,-5.337
0.182,0.045,0.246,-5.337
0.155,0.045,0.243,-5.337
0.209,0.047,0.245,-5.337
0.266,0.049,0.244,-5.337
0.263,0.049,0.243,-5.337
0.227,0.047,0.242,-5.337
0.187,0.049,0.242,-5.337
0.156,0.049,0.242,-5.337
0.169,0.052,0.240,-5.337
0.146,0.053,0.242,-5.337
0.181,0.051,0.246,-5.337
0.233,0.050,0.248,-5.337
0.190,0.051,0.247,-5.337
0.155,0.049,0.246,-5.337
0.191,0.048,0.243,-5.337
0.172,0.049,0.239,-5.337
0.209,0.047,0.241,-5.337
0.164,0.047,0.243,-5.337
0.135,0.048,0.246,-5.337
0.212,0.046,0.245,-5.337
0.200,0.047,0.246,-5.337
0.167,0.047,0.249,-5.337
0.096,0.048,0.249,-5.337
0.077,0.048,0.250,-5.337
0.074,0.048,0.244,-5.337
0.096,0.045,0.241,-5.337
0.140,0.046,0.243,-5.337
0.181,0.047,0.246,-5.337
0.283,0.046,0.246,-5.337
0.252,0.046,0.246,-5.337
0.225,0.044,0.246,-5.337
0.265,0.045,0.242,-5.337
0.251,0.046,0.241,-5.337
0.204,0.046,0.241,-5.337
0.117,0.044,0.244,-5.337
0.088,0.042,0.247,-5.337
0.112,0.044,0.246,-5.337
0.168,0.045,0.245,-5.337
0.234,0.043,0.243,-5.337
0.226,0.045,0.243,-5.337
0.190,0.047,0.241,-5.337
0.176,0.049,0.244,-5.337
0.111,0.051,0.247,-5.337
0.077,0.051,0.247,-5.337
0.118,0.051,0.246,-5.337
0.185,0.051,0.239,-5.337
0.182,0.049,0.238,-5.337
0.162,0.047,0.242,-5.337
0.239,0.046,0.247,-5.337
0.200,0.045,0.247,-5.337
0.213,0.047,0.249,-5.337
0.242,0.050,0.249,-5.337
0.196,0.048,0.251,-5.337
0.149,0.046,0.246,-5.337
0.218,0.045,0.243,-5.337
0.230,0.044,0.243,-5.337
0.230,0.046,0.246,-5.337
0.227,0.046,0.244,-5.337
0.231,0.045,0.242,-5.337
0.299,0.044,0.242,-5.337
0.253,0.046,0.246,-5.337
0.175,0.048,0.247,-5.337
0.228,0.044,0.246,-5.337
0.286,0.045,0.240,-5.337
0.282,0.044,0.238,-5.337
0.281,0.043,0.244,-5.337
0.227,0.048,0.251,-5.337
0.200,0.047,0.251,-5.337
0.162,0.046,0.247,-5.337
0.115,0.046,0.248,-5.337
0.070,0.047,0.250,-5.337
0.089,0.044,0.249,-5.337
0.155,0.043,0.245,-5.337
0.140,0.043,0.244,-5.337
0.124,0.040,0.244,-5.337
0.162,0.039,0.244,-5.337
0.221,0.040,0.243,-5.337
0.234,0.042,0.246,-5.337
0.159,0.045,0.243,-5.337
0.145,0.045,0.245,-5.337
0.199,0.045,0.250,-5.337
0.214,0.046,0.252,-5.337
0.160,0.047,0.253,-5.337
0.130,0.045,0.249,-5.337
0.096,0.044,0.241,-5.337
0.151,0.042,0.239,-5.337
0.195,0.044,0.241,-5.337
0.151,0.044,0.246,-5.337
0.200,0.041,0.251,-5.337
0.215,0.041,0.249,-5.337
0.197,0.040,0.247,-5.337
0.206,0.040,0.246,-5.337
0.146,0.042,0.244,-5.337
0.182,0.042,0.239,-5.337
0.162,0.045,0.239,-5.337
0.120,0.046,0.243,-5.337
0.115,0.044,0.246,-5.337
0.145,0.038,0.244,-5.337
0.190,0.036,0.245,-5.337
0.132,0.038,0.244,-5.337
0.181,0.043,0.248,-5.337
0.159,0.044,0.248,-5.337
0.170,0.042,0.250,-5.337
0.154,0.040,0.249,-5.337
0.097,0.044,0.250,-5.337
0.088,0.044,0.250,-5.337
0.142,0.042,0.250,-5.337
0.179,0.040,0.251,-5.337
0.211,0.040,0.252,-5.337
0.120,0.037,0.249,-5.337
0.097,0.035,0.245,-5.337
0.180,0.036,0.239,-5.337
0.196,0.042,0.239,-5.337
0.217,0.042,0.243,-5.337
0.180,0.039,0.245,-5.337
0.161,0.038,0.246,-5.337
0.207,0.041,0.244,-5.337
0.230,0.040,0.244,-5.337
0.197,0.040,0.245,-5.337
0.190,0.041,0.245,-5.337
0.185,0.041,0.243,-5.337
0.193,0.044,0.244,-5.337
0.192,0.044,0.245,-5.337
0.183,0.042,0.244,-5.337
0.096,0.042,0.243,-5.337
0.100,0.041,0.244,-5.337
0.169,0.039,0.242,-5.337
0.236,0.040,0.241,-5.337
0.211,0.039,0.243,-5.337
0.152,0.038,0.249,-5.337
0.177,0.039,0.250,-5.337
0.182,0.038,0.249,-5.337
0.133,0.040,0.246,-5.337
0.063,0.042,0.243,-5.337
0.120,0.041,0.242,-5.337
0.183,0.041,0.242,-5.337
0.198,0.041,0.244,-5.337
0.192,0.042,0.246,-5.337
0.180,0.043,0.245,-5.337
0.164,0.042,0.242,-5.337
0.102,0.041,0.242,-5.337
0.179,0.038,0.246,-5.337
0.220,0.037,0.249,-5.337
0.223,0.040,0.247,-5.337
0.238,0.040,0.244,-5.337
0.217,0.037,0.244,-5.337
0.184,0.033,0.247,-5.337
0.179,0.034,0.247,-5.337
0.226,0.034,0.247,-5.337
0.170,0.037,0.242,-5.337
0.108,0.038,0.238,-5.337
0.094,0.037,0.239,-5.337
0.099,0.040,0.242,-5.337
0.120,0.038,0.241,-5.337
0.099,0.039,0.238,-5.337
0.113,0.040,0.240,-5.337
0.194,0.040,0.244,-5.337
0.194,0.041,0.247,-5.337
0.175,0.038,0.246,-5.337
0.219,0.032,0.246,-5.337
0.239,0.032,0.247,-5.337
0.187,0.038,0.245,-5.337
0.129,0.038,0.241,-5.337
0.140,0.037,0.238,-5.337
0.187,0.038,0.236,-5.337
0.201,0.042,0.238,-5.337
0.183,0.039,0.244,-5.337
0.097,0.036,0.249,-5.337
0.072,0.036,0.247,-5.337
0.183,0.035,0.245,-5.337
0.293,0.033,0.244,-5.337
0.243,0.034,0.245,-5.337
0.241,0.034,0.247,-5.337
0.271,0.035,0.247,-5.337
0.203,0.038,0.244,-5.337
0.125,0.045,0.244,-5.337
0.151,0.045,0.242,-5.337
0.255,0.040,0.245,-5.337
0.291,0.035,0.246,-5.337
0.329,0.036,0.245,-5.337
0.311,0.037,0.244,-5.337
0.221,0.039,0.244,-5.337
0.209,0.040,0.242,-5.337
0.170,0.044,0.241,-5.337
0.126,0.043,0.241,-5.337
0.158,0.038,0.243,-5.337
0.194,0.035,0.244,-5.337
0.148,0.040,0.244,-5.337
0.109,0.042,0.242,-5.337
0.170,0.040,0.239,-5.337
0.203,0.038,0.242,-5.337
0.219,0.037,0.242,-5.337
0.204,0.039,0.244,-5.337
0.157,0.039,0.245,-5.337
0.154,0.040,0.246,-5.337
0.166,0.035,0.245,-5.337
0.183,0.037,0.245,-5.337
0.184,0.039,0.242,-5.337
0.081,0.043,0.240,-5.337
0.069,0.042,0.242,-5.337
0.169,0.041,0.243,-5.337
0.176,0.040,0.245,-5.337
0.175,0.041,0.246,-5.337
0.229,0.041,0.245,-5.337
0.254,0.042,0.243,-5.337
0.232,0.040,0.241,-5.337
0.159,0.040,0.244,-5.337
0.152,0.040,0.245,-5.337
0.207,0.043,0.247,-5.337
0.215,0.043,0.245,-5.337
0.231,0.039,0.241,-5.337
0.141,0.041,0.239,-5.337
0.123,0.039,0.241,-5.337
0.215,0.037,0.244,-5.337
0.322,0.037,0.247,-5.337
0.270,0.038,0.248,-5.337
0.210,0.041,0.244,-5.337
0.149,0.043,0.245,-5.337
0.153,0.041,0.246,-5.337
0.231,0.038,0.244,-5.337
0.234,0.038,0.239,-5.337
0.141,0.046,0.240,-5.337
0.038,0.048,0.242,-5.337
0.078,0.045,0.242,-5.337
0.127,0.046,0.245,-5.337
0.106,0.050,0.247,-5.337
0.088,0.045,0.248,-5.337
0.125,0.047,0.245,-5.337
0.157,0.044,0.242,-5.337
0.234,0.042,0.240,-5.337
0.249,0.042,0.241,-5.337
0.210,0.042,0.247,-5.337
0.213,0.044,0.250,-5.337
0.183,0.045,0.250,-5.337
0.184,0.048,0.249,-5.337
0.192,0.047,0.247,-5.337
0.153,0.044,0.244,-5.337
0.199,0.042,0.241,-5.337
0.240,0.039,0.242,-5.337
0.172,0.039,0.242,-5.337
0.149,0.039,0.244,-5.337
0.178,0.043,0.242,-5.337
0.163,0.046,0.243,-5.337
0.243,0.041,0.242,-5.337
0.269,0.037,0.244,-5.337
0.202,0.042,0.246,-5.337
0.104,0.049,0.246,-5.337
0.095,0.047,0.241,-5.337
0.196,0.043,0.241,-5.337
0.233,0.042,0.241,-5.337
0.236,0.044,0.243,-5.337
0.235,0.045,0.245,-5.337
0.272,0.044,0.244,-5.337
0.262,0.040,0.246,-5.337
0.217,0.042,0.246,-5.337
0.192,0.044,0.243,-5.337
0.186,0.047,0.241,-5.337
0.217,0.045,0.241,-5.337
0.275,0.045,0.245,-5.337
0.217,0.047,0.248,-5.337
0.168,0.047,0.248,-5.337
0.188,0.044,0.245,-5.337
0.226,0.043,0.244,-5.337
0.194,0.042,0.248,-5.337
0.197,0.041,0.247,-5.337
0.210,0.042,0.244,-5.337
0.188,0.047,0.240,-5.337
0.163,0.046,0.241,-5.337
0.171,0.043,0.242,-5.337
0.235,0.041,0.243,-5.337
0.294,0.045,0.244,-5.337
0.246,0.047,0.248,-5.337
0.181,0.047,0.249,-5.337
0.124,0.049,0.247,-5.337
0.185,0.048,0.244,-5.337
0.195,0.052,0.246,-5.337
0.202,0.052,0.246,-5.337
0.240,0.055,0.248,-5.337
0.180,0.053,0.246,-5.337
0.148,0.049,0.242,-5.337
0.184,0.047,0.242,-5.337
0.256,0.047,0.244,-5.337
0.225,0.048,0.246,-5.337
0.207,0.049,0.245,-5.337
0.201,0.046,0.242,-5.337
0.202,0.045,0.242,-5.337
0.145,0.049,0.243,-5.337
0.060,0.053,0.248,-5.337
0.085,0.054,0.250,-5.337
0.138,0.053,0.248,-5.337
0.141,0.050,0.245,-5.337
0.111,0.050,0.241,-5.337
0.125,0.050,0.240,-5.337
0.130,0.050,0.240,-5.337
0.141,0.051,0.242,-5.337
0.150,0.054,0.245,-5.337
0.158,0.053,0.246,-5.337
0.186,0.053,0.246,-5.337
0.185,0.051,0.247,-5.337
0.176,0.049,0.246,-5.337
0.171,0.051,0.244,-5.337
0.152,0.052,0.238,-5.337
0.182,0.050,0.240,-5.337
0.268,0.046,0.247,-5.337
0.231,0.048,0.248,-5.337
0.226,0.050,0.246,-5.337
0.235,0.047,0.247,-5.337
0.171,0.043,0.246,-5.337
0.136,0.044,0.245,-5.337
0.200,0.044,0.242,-5.337
0.250,0.049,0.244,-5.337
0.194,0.053,0.243,-5.337
0.166,0.054,0.243,-5.337
0.163,0.052,0.246,-5.337
0.121,0.050,0.245,-5.337
0.151,0.051,0.244,-5.337
0.157,0.055,0.242,-5.337
0.152,0.056,0.242,-5.337
0.212,0.054,0.244,-5.337
0.210,0.060,0.250,-5.337
0.120,0.062,0.249,-5.337
0.067,0.061,0.244,-5.337
0.076,0.057,0.242,-5.337
0.219,0.052,0.244,-5.337
0.286,0.055,0.247,-5.337
0.203,0.057,0.246,-5.337
0.207,0.056,0.242,-5.337
0.254,0.057,0.241,-5.337
0.261,0.054,0.242,-5.337
0.291,0.057,0.242,-5.337
0.317,0.057,0.243,-5.337
0.293,0.057,0.245,-5.337
0.278,0.056,0.245,-5.337
0.213,0.060,0.243,-5.337
0.146,0.057,0.241,-5.337
0.180,0.053,0.240,-5.337
0.146,0.053,0.243,-5.337
0.107,0.054,0.246,-5.337
0.205,0.051,0.249,-5.337
0.271,0.050,0.248,-5.337
0.193,0.053,0.249,-5.337
0.090,0.057,0.249,-5.337
0.092,0.051,0.249,-5.337
0.170,0.048,0.247,-5.337
0.178,0.054,0.244,-5.337
0.138,0.058,0.241,-5.337
0.137,0.054,0.243,-5.337
0.180,0.053,0.244,-5.337
0.224,0.055,0.244,-5.337
0.217,0.053,0.248,-5.337
0.220,0.053,0.249,-5.337
0.251,0.049,0.248,-5.337
0.212,0.053,0.250,-5.337
0.095,0.057,0.251,-5.337
0.068,0.058,0.248,-5.337
0.168,0.054,0.246,-5.337
0.197,0.053,0.247,-5.337
0.221,0.051,0.242,-5.337
0.214,0.055,0.240,-5.337
0.180,0.054,0.245,-5.337
0.230,0.056,0.249,-5.337
0.278,0.053,0.248,-5.337
0.260,0.051,0.247,-5.337
0.235,0.049,0.248,-5.337
0.233,0.049,0.246,-5.337
0.247,0.052,0.246,-5.337
0.219,0.053,0.243,-5.337
0.173,0.054,0.244,-5.337
0.180,0.054,0.244,-5.337
0.267,0.055,0.246,-5.337
0.272,0.055,0.247,-5.337
0.224,0.055,0.248,-5.337
0.155,0.055,0.248,-5.337
0.150,0.057,0.249,-5.337
0.110,0.057,0.251,-5.337
0.080,0.057,0.250,-5.337
0.071,0.059,0.248,-5.337
0.126,0.059,0.246,-5.337
0.157,0.059,0.246,-5.337
0.204,0.057,0.250,-5.337
0.197,0.058,0.251,-5.337
0.185,0.059,0.250,-5.337
0.195,0.057,0.246,-5.337
0.183,0.059,0.245,-5.337
0.137,0.061,0.249,-5.337
0.113,0.061,0.248,-5.337
0.148,0.058,0.244,-5.337
0.173,0.057,0.240,-5.337
0.211,0.054,0.241,-5.337
0.237,0.051,0.243,-5.337
0.223,0.051,0.246,-5.337
0.228,0.053,0.247,-5.337
0.173,0.054,0.247,-5.337
0.153,0.055,0.246,-5.337
0.249,0.051,0.247,-5.337
0.296,0.052,0.248,-5.337
0.234,0.054,0.248,-5.337
0.260,0.052,0.244,-5.337
0.262,0.056,0.241,-5.337
0.238,0.055,0.240,-5.337
0.192,0.056,0.244,-5.337
0.153,0.057,0.247,-5.337
0.192,0.058,0.246,-5.337
0.236,0.057,0.243,-5.337
0.216,0.057,0.242,-5.337
0.187,0.059,0.242,-5.337
0.141,0.063,0.244,-5.337
0.145,0.061,0.246,-5.337
0.225,0.056,0.248,-5.337
0.181,0.057,0.248,-5.337
0.137,0.055,0.242,-5.337
0.169,0.058,0.234,-5.337
0.210,0.059,0.238,-5.337
0.242,0.059,0.247,-5.337
0.267,0.058,0.248,-5.337
0.345,0.056,0.246,-5.337
0.310,0.061,0.248,-5.337
0.170,0.066,0.249,-5.337
0.132,0.063,0.245,-5.337
0.196,0.060,0.243,-5.337
0.201,0.063,0.240,-5.337
0.162,0.067,0.241,-5.337
0.107,0.067,0.242,-5.337
0.113,0.067,0.241,-5.337
0.107,0.064,0.242,-5.337
0.155,0.064,0.247,-5.337
0.227,0.063,0.247,-5.337
0.242,0.063,0.242,-5.337
0.205,0.063,0.239,-5.337
0.237,0.061,0.239,-5.337
0.279,0.061,0.239,-5.337
0.314,0.061,0.241,-5.337
0.261,0.061,0.244,-5.337
0.161,0.064,0.245,-5.337
0.134,0.063,0.244,-5.337
0.145,0.060,0.243,-5.337
0.215,0.057,0.242,-5.337
0.235,0.058,0.242,-5.337
0.157,0.062,0.244,-5.337
0.146,0.061,0.242,-5.337
0.200,0.057,0.243,-5.337
0.189,0.055,0.242,-5.337
0.128,0.059,0.244,-5.337
0.141,0.060,0.244,-5.337
0.164,0.057,0.245,-5.337
0.199,0.056,0.244,-5.337
0.205,0.055,0.240,-5.337
0.194,0.057,0.239,-5.337
0.218,0.057,0.238,-5.337
0.244,0.057,0.240,-5.337
0.222,0.059,0.243,-5.337
0.170,0.062,0.247,-5.337
0.149,0.059,0.248,-5.337
0.252,0.056,0.246,-5.337
0.250,0.057,0.241,-5.337
0.143,0.058,0.239,-5.337
0.094,0.058,0.242,-5.337
0.099,0.058,0.247,-5.337
0.129,0.057,0.248,-5.337
0.162,0.057,0.245,-5.337
0.204,0.057,0.240,-5.337
0.236,0.060,0.242,-5.337
0.253,0.060,0.243,-5.337
0.264,0.057,0.243,-5.337
0.196,0.054,0.243,-5.337
0.185,0.055,0.246,-5.337
0.188,0.058,0.244,-5.337
0.175,0.061,0.245,-5.337
0.183,0.055,0.244,-5.337
0.173,0.055,0.245,-5.337
0.214,0.053,0.242,-5.337
0.186,0.057,0.242,-5.337
0.125,0.054,0.243,-5.337
0.180,0.054,0.241,-5.337
0.230,0.054,0.242,-5.337
0.222,0.055,0.244,-5.337
0.175,0.053,0.246,-5.337
0.187,0.054,0.245,-5.337
0.238,0.055,0.241,-5.337
0.271,0.054,0.238,-5.337
0.185,0.054,0.241,-5.337
0.121,0.054,0.244,-5.337
0.148,0.052,0.246,-5.337
0.140,0.053,0.244,-5.337
0.136,0.049,0.242,-5.337
0.160,0.052,0.239,-5.337
0.213,0.056,0.238,-5.337
0.242,0.055,0.238,-5.337
0.195,0.050,0.242,-5.337
0.215,0.048,0.240,-5.337
0.185,0.052,0.242,-5.337
0.146,0.051,0.243,-5.337
0.177,0.049,0.243,-5.337
0.252,0.048,0.240,-5.337
0.212,0.052,0.239,-5.337
0.128,0.049,0.240,-5.337
0.125,0.048,0.244,-5.337
0.168,0.048,0.245,-5.337
0.195,0.049,0.242,-5.337
0.163,0.049,0.236,-5.337
0.154,0.048,0.234,-5.337
0.230,0.044,0.238,-5.337
0.249,0.045,0.245,-5.337
0.142,0.049,0.250,-5.337
0.093,0.052,0.251,-5.337
0.134,0.051,0.245,-5.337
0.189,0.048,0.245,-5.337
0.244,0.046,0.246,-5.337
0.237,0.043,0.247,-5.337
0.178,0.047,0.246,-5.337
0.121,0.046,0.239,-5.337
0.135,0.045,0.237,-5.337
0.131,0.047,0.241,-5.337
0.097,0.048,0.244,-5.337
0.117,0.046,0.244,-5.337
0.166,0.042,0.246,-5.337
0.172,0.042,0.244,-5.337
0.190,0.042,0.240,-5.337
0.176,0.047,0.237,-5.337
0.177,0.050,0.243,-5.337
0.178,0.048,0.244,-5.337
0.175,0.046,0.243,-5.337
0.231,0.043,0.242,-5.337
0.239,0.047,0.240,-5.337
0.197,0.044,0.243,-5.337
0.186,0.045,0.247,-5.337
0.167,0.042,0.247,-5.337
0.140,0.046,0.245,-5.337
0.138,0.049,0.244,-5.337
0.141,0.048,0.242,-5.337
0.215,0.043,0.242,-5.337
0.238,0.042,0.241,-5.337
0.175,0.046,0.242,-5.337
0.115,0.046,0.245,-5.337
0.151,0.047,0.244,-5.337
0.183,0.044,0.243,-5.337
0.229,0.043,0.241,-5.337
0.169,0.042,0.239,-5.337
0.169,0.042,0.241,-5.337
0.200,0.041,0.243,-5.337
0.147,0.044,0.243,-5.337
0.087,0.047,0.242,-5.337
0.080,0.046,0.243,-5.337
0.197,0.042,0.242,-5.337
0.253,0.044,0.243,-5.337
0.212,0.046,0.242,-5.337
0.218,0.045,0.243,-5.337
0.224,0.042,0.242,-5.337
0.183,0.042,0.243,-5.337
0.127,0.040,0.242,-5.337
0.165,0.042,0.244,-5.337
0.156,0.039,0.243,-5.337
0.193,0.040,0.243,-5.337
0.208,0.040,0.247,-5.337
0.200,0.041,0.246,-5.337
0.195,0.041,0.243,-5.337
0.185,0.042,0.241,-5.337
0.194,0.039,0.244,-5.337
0.185,0.039,0.242,-5.337
0.164,0.036,0.237,-5.337
0.170,0.037,0.239,-5.337
0.198,0.035,0.245,-5.337
0.178,0.036,0.245,-5.337
0.171,0.040,0.246,-5.337
0.169,0.040,0.247,-5.337
0.175,0.038,0.246,-5.337
0.167,0.039,0.240,-5.337
0.184,0.040,0.237,-5.337
0.211,0.041,0.242,-5.337
0.194,0.042,0.246,-5.337
0.120,0.040,0.248,-5.337
0.103,0.038,0.246,-5.337
0.199,0.040,0.243,-5.337
0.233,0.039,0.243,-5.337
0.226,0.039,0.248,-5.337
0.139,0.042,0.251,-5.337
0.140,0.041,0.247,-5.337
0.153,0.040,0.243,-5.337
0.198,0.040,0.243,-5.337
0.195,0.042,0.242,-5.337
0.220,0.040,0.240,-5.337
0.263,0.039,0.240,-5.337
0.223,0.039,0.243,-5.337
0.221,0.041,0.243,-5.337
0.164,0.044,0.246,-5.337
0.067,0.045,0.246,-5.337
0.112,0.040,0.244,-5.337
0.188,0.038,0.241,-5.337
0.194,0.037,0.239,-5.337
0.185,0.039,0.240,-5.337
0.173,0.043,0.246,-5.337
0.151,0.042,0.248,-5.337
0.153,0.040,0.248,-5.337
0.159,0.037,0.244,-5.337
0.168,0.035,0.244,-5.337
0.162,0.037,0.243,-5.337
0.153,0.038,0.244,-5.337
0.147,0.033,0.249,-5.337
0.179,0.036,0.248,-5.337
0.231,0.036,0.244,-5.337
0.234,0.037,0.244,-5.337
0.156,0.035,0.242,-5.337
0.113,0.036,0.240,-5.337
0.126,0.040,0.241,-5.337
0.158,0.037,0.242,-5.337
0.155,0.039,0.244,-5.337
0.113,0.043,0.246,-5.337
0.097,0.042,0.248,-5.337
0.202,0.037,0.248,-5.337
0.247,0.037,0.248,-5.337
0.260,0.038,0.249,-5.337
0.177,0.039,0.247,-5.337
0.090,0.038,0.240,-5.337
0.117,0.039,0.237,-5.337
0.190,0.038,0.237,-5.337
0.237,0.038,0.241,-5.337
0.167,0.039,0.244,-5.337
0.163,0.045,0.246,-5.337
0.182,0.040,0.245,-5.337
0.157,0.040,0.248,-5.337
0.099,0.040,0.251,-5.337
0.141,0.036,0.248,-5.337
0.200,0.032,0.247,-5.337
0.195,0.036,0.248,-5.337
0.160,0.038,0.246,-5.337
0.198,0.034,0.244,-5.337
0.274,0.032,0.244,-5.337
0.255,0.032,0.245,-5.337
0.246,0.032,0.247,-5.337
0.265,0.031,0.247,-5.337
0.216,0.031,0.247,-5.337
0.180,0.034,0.247,-5.337
0.167,0.034,0.252,-5.337
0.217,0.031,0.251,-5.337
0.213,0.029,0.247,-5.337
0.132,0.033,0.241,-5.337
0.155,0.037,0.239,-5.337
0.181,0.035,0.240,-5.337
0.135,0.035,0.242,-5.337
0.143,0.038,0.246,-5.337
0.158,0.041,0.251,-5.337
0.120,0.043,0.253,-5.337
0.111,0.045,0.250,-5.337
0.172,0.040,0.243,-5.337
0.271,0.035,0.243,-5.337
0.223,0.035,0.245,-5.337
0.183,0.035,0.246,-5.337
0.211,0.034,0.248,-5.337
0.259,0.035,0.250,-5.337
0.237,0.036,0.249,-5.337
0.255,0.032,0.246,-5.337
0.275,0.032,0.240,-5.337
0.241,0.035,0.237,-5.337
0.178,0.033,0.237,-5.337
0.136,0.030,0.240,-5.337
0.150,0.032,0.245,-5.337
0.212,0.032,0.246,-5.337
0.251,0.033,0.247,-5.337
0.243,0.036,0.247,-5.337
0.252,0.036,0.242,-5.337
0.209,0.037,0.240,-5.337
0.133,0.040,0.245,-5.337
0.156,0.038,0.245,-5.337
0.152,0.036,0.245,-5.337
0.115,0.036,0.246,-5.337
0.050,0.040,0.247,-5.337
0.092,0.035,0.240,-5.337
0.185,0.034,0.238,-5.337
0.184,0.033,0.240,-5.337
0.189,0.035,0.245,-5.337
0.183,0.036,0.248,-5.337
0.232,0.036,0.249,-5.337
0.245,0.034,0.245,-5.337
0.179,0.032,0.242,-5.337
0.164,0.032,0.244,-5.337
0.166,0.035,0.247,-5.337
0.116,0.039,0.244,-5.337
0.113,0.043,0.243,-5.337
0.033,0.043,0.243,-5.337
0.082,0.038,0.243,-5.337
0.126,0.036,0.243,-5.337
0.131,0.036,0.243,-5.337
0.109,0.036,0.243,-5.337
0.068,0.036,0.243,-5.337
0.120,0.035,0.246,-5.337
0.120,0.037,0.245,-5.337
0.168,0.035,0.246,-5.337
0.248,0.036,0.245,-5.337
0.248,0.037,0.246,-5.337
0.187,0.037,0.245,-5.337
0.058,0.040,0.245,-5.337
0.027,0.039,0.241,-5.337
0.098,0.036,0.239,-5.337
0.170,0.036,0.240,-5.337
0.185,0.037,0.239,-5.337
0.221,0.038,0.241,-5.337
0.201,0.039,0.241,-5.337
0.212,0.033,0.238,-5.337
0.251,0.030,0.237,-5.337
0.267,0.029,0.244,-5.337
0.212,0.036,0.248,-5.337
0.169,0.038,0.244,-5.337
0.183,0.040,0.238,-5.337
0.215,0.040,0.240,-5.337
0.197,0.040,0.241,-5.337
0.133,0.040,0.243,-5.337
0.155,0.039,0.245,-5.337
0.267,0.035,0.245,-5.337
0.220,0.037,0.241,-5.337
0.118,0.041,0.241,-5.337
0.167,0.040,0.240,-5.337
0.226,0.040,0.244,-5.337
0.236,0.041,0.246,-5.337
0.214,0.043,0.246,-5.337
0.143,0.047,0.247,-5.337
0.087,0.047,0.247,-5.337
0.094,0.045,0.245,-5.337
0.147,0.044,0.243,-5.337
0.149,0.043,0.242,-5.337
0.145,0.042,0.238,-5.337
0.179,0.042,0.235,-5.337
0.193,0.042,0.241,-5.337
0.184,0.045,0.246,-5.337
0.109,0.047,0.250,-5.337
0.151,0.044,0.250,-5.337
0.252,0.038,0.247,-5.337
0.217,0.042,0.243,-5.337
0.188,0.045,0.240,-5.337
0.228,0.044,0.238,-5.337
0.205,0.044,0.237,-5.337
0.144,0.042,0.240,-5.337
0.080,0.039,0.244,-5.337
0.080,0.041,0.248,-5.337
0.134,0.041,0.248,-5.337
0.240,0.037,0.248,-5.337
0.280,0.035,0.245,-5.337
0.240,0.038,0.246,-5.337
0.247,0.040,0.243,-5.337
0.223,0.041,0.239,-5.337
0.205,0.037,0.235,-5.337
0.189,0.039,0.237,-5.337
0.076,0.044,0.242,-5.337
0.038,0.045,0.245,-5.337
0.099,0.041,0.245,-5.337
0.153,0.041,0.244,-5.337
0.204,0.039,0.242,-5.337
0.236,0.042,0.240,-5.337
0.235,0.044,0.243,-5.337
0.197,0.044,0.246,-5.337
0.165,0.042,0.247,-5.337
0.205,0.043,0.245,-5.337
0.231,0.043,0.245,-5.337
0.169,0.045,0.247,-5.337
0.058,0.049,0.248,-5.337
0.110,0.047,0.246,-5.337
0.200,0.046,0.244,-5.337
0.223,0.042,0.241,-5.337
0.189,0.047,0.240,-5.337
0.113,0.050,0.242,-5.337
0.169,0.048,0.245,-5.337
0.185,0.049,0.250,-5.337
0.259,0.049,0.248,-5.337
0.272,0.046,0.243,-5.337
0.181,0.044,0.243,-5.337
0.146,0.045,0.246,-5.337
0.177,0.047,0.244,-5.337
0.206,0.048,0.243,-5.337
0.188,0.050,0.242,-5.337
0.116,0.053,0.243,-5.337
0.126,0.050,0.245,-5.337
0.171,0.045,0.242,-5.337
0.244,0.041,0.242,-5.337
0.274,0.039,0.244,-5.337
0.218,0.041,0.246,-5.337
0.252,0.043,0.247,-5.337
0.237,0.048,0.244,-5.337
0.181,0.048,0.242,-5.337
0.204,0.047,0.239,-5.337
0.173,0.046,0.242,-5.337
0.195,0.046,0.243,-5.337
0.186,0.044,0.243,-5.337
0.199,0.043,0.243,-5.337
0.158,0.045,0.245,-5.337
0.133,0.045,0.245,-5.337
0.168,0.046,0.246,-5.337
0.230,0.047,0.243,-5.337
0.165,0.047,0.242,-5.337
0.131,0.046,0.241,-5.337
0.135,0.046,0.242,-5.337
0.106,0.045,0.242,-5.337
0.066,0.045,0.244,-5.337
0.128,0.048,0.244,-5.337
0.184,0.047,0.247,-5.337
0.257,0.047,0.246,-5.337
0.247,0.048,0.245,-5.337
0.217,0.050,0.244,-5.337
0.209,0.052,0.242,-5.337
0.196,0.054,0.239,-5.337
0.215,0.050,0.242,-5.337
0.207,0.051,0.245,-5.337
0.205,0.052,0.247,-5.337
0.223,0.051,0.246,-5.337
0.190,0.054,0.243,-5.337
0.137,0.054,0.238,-5.337
0.138,0.053,0.238,-5.337
0.214,0.054,0.247,-5.337
0.191,0.057,0.250,-5.337
0.198,0.053,0.248,-5.337
0.281,0.050,0.240,-5.337
0.208,0.055,0.242,-5.337
0.146,0.053,0.244,-5.337
0.127,0.053,0.244,-5.337
0.119,0.054,0.241,-5.337
0.143,0.054,0.242,-5.337
0.127,0.053,0.244,-5.337
0.218,0.051,0.247,-5.337
0.247,0.051,0.246,-5.337
0.198,0.056,0.242,-5.337
0.185,0.055,0.239,-5.337
0.185,0.052,0.240,-5.337
0.182,0.053,0.246,-5.337
0.200,0.055,0.249,-5.337
0.205,0.053,0.247,-5.337
0.180,0.053,0.246,-5.337
0.135,0.055,0.244,-5.337
0.204,0.052,0.243,-5.337
0.236,0.050,0.244,-5.337
0.213,0.054,0.244,-5.337
0.250,0.057,0.243,-5.337
0.181,0.058,0.241,-5.337
0.142,0.056,0.240,-5.337
0.178,0.057,0.241,-5.337
0.214,0.056,0.244,-5.337
0.199,0.052,0.242,-5.337
0.241,0.051,0.240,-5.337
0.273,0.050,0.239,-5.337
0.220,0.048,0.240,-5.337
0.149,0.048,0.243,-5.337
0.169,0.048,0.247,-5.337
0.225,0.052,0.245,-5.337
0.223,0.057,0.241,-5.337
0.158,0.057,0.239,-5.337
0.148,0.054,0.242,-5.337
0.184,0.054,0.246,-5.337
0.142,0.054,0.245,-5.337
0.180,0.054,0.246,-5.337
0.220,0.053,0.248,-5.337
0.216,0.051,0.246,-5.337
0.219,0.051,0.242,-5.337
0.231,0.052,0.241,-5.337
0.232,0.053,0.244,-5.337
0.198,0.057,0.247,-5.337
0.194,0.055,0.250,-5.337
0.201,0.055,0.253,-5.337
0.210,0.054,0.252,-5.337
0.195,0.054,0.246,-5.337
0.180,0.054,0.240,-5.337
0.163,0.058,0.241,-5.337
0.085,0.062,0.245,-5.337
0.063,0.059,0.246,-5.337
0.113,0.057,0.241,-5.337
0.164,0.056,0.240,-5.337
0.217,0.057,0.243,-5.337
0.254,0.056,0.248,-5.337
0.239,0.057,0.248,-5.337
0.186,0.059,0.246,-5.337
0.104,0.058,0.247,-5.337
0.144,0.056,0.248,-5.337
0.146,0.056,0.245,-5.337
0.094,0.060,0.242,-5.337
0.140,0.063,0.242,-5.337
0.164,0.063,0.245,-5.337
0.159,0.061,0.244,-5.337
0.138,0.058,0.244,-5.337
0.152,0.063,0.244,-5.337
0.248,0.064,0.243,-5.337
0.326,0.061,0.246,-5.337
0.250,0.063,0.250,-5.337
0.122,0.064,0.250,-5.337
0.086,0.060,0.247,-5.337
0.148,0.059,0.246,-5.337
0.188,0.060,0.246,-5.337
0.155,0.063,0.245,-5.337
0.169,0.060,0.244,-5.337
0.149,0.062,0.247,-5.337
0.160,0.063,0.247,-5.337
0.189,0.067,0.245,-5.337
0.208,0.061,0.242,-5.337
0.228,0.057,0.244,-5.337
0.237,0.058,0.249,-5.337
0.222,0.057,0.250,-5.337
0.160,0.059,0.247,-5.337
0.125,0.065,0.245,-5.337
0.123,0.062,0.245,-5.337
0.212,0.061,0.248,-5.337
0.260,0.062,0.247,-5.337
0.280,0.062,0.248,-5.337
0.277,0.060,0.247,-5.337
0.211,0.062,0.246,-5.337
0.158,0.064,0.243,-5.337
0.178,0.064,0.246,-5.337
0.244,0.059,0.247,-5.337
0.222,0.060,0.243,-5.337
0.127,0.062,0.243,-5.337
0.113,0.059,0.245,-5.337
0.160,0.062,0.246,-5.337
0.179,0.063,0.246,-5.337
0.208,0.063,0.247,-5.337
0.261,0.059,0.244,-5.337
0.231,0.061,0.245,-5.337
0.127,0.060,0.247,-5.337
0.155,0.057,0.249,-5.337
0.225,0.054,0.247,-5.337
0.282,0.058,0.247,-5.337
0.249,0.056,0.244,-5.337
0.254,0.058,0.244,-5.337
0.285,0.057,0.247,-5.337
0.290,0.057,0.249,-5.337
0.170,0.059,0.249,-5.337
0.133,0.060,0.248,-5.337
0.203,0.058,0.249,-5.337
0.217,0.060,0.249,-5.337
0.170,0.063,0.248,-5.337
0.121,0.063,0.246,-5.337
0.104,0.066,0.246,-5.337
0.169,0.066,0.247,-5.337
0.212,0.068,0.246,-5.337
0.173,0.068,0.245,-5.337
0.226,0.062,0.245,-5.337
0.227,0.061,0.245,-5.337
0.207,0.063,0.245,-5.337
0.214,0.063,0.243,-5.337
0.248,0.065,0.242,-5.337
0.223,0.064,0.242,-5.337
0.194,0.060,0.243,-5.337
0.179,0.062,0.242,-5.337
0.165,0.065,0.240,-5.337
0.136,0.063,0.242,-5.337
0.132,0.064,0.245,-5.337
0.156,0.064,0.245,-5.337
0.147,0.065,0.243,-5.337
0.214,0.059,0.244,-5.337
0.247,0.056,0.249,-5.337
0.289,0.057,0.250,-5.337
0.290,0.061,0.250,-5.337
0.258,0.058,0.246,-5.337
0.179,0.061,0.247,-5.337
0.048,0.063,0.247,-5.337
0.058,0.065,0.245,-5.337
0.155,0.061,0.244,-5.337
0.209,0.059,0.245,-5.337
0.225,0.059,0.248,-5.337
0.214,0.060,0.247,-5.337
0.217,0.056,0.246,-5.337
0.265,0.053,0.244,-5.337
0.271,0.055,0.240,-5.337
0.286,0.057,0.241,-5.337
0.304,0.058,0.242,-5.337
0.284,0.053,0.245,-5.337
0.212,0.052,0.246,-5.337
0.152,0.054,0.240,-5.337
0.183,0.055,0.242,-5.337
0.271,0.057,0.242,-5.337
0.286,0.056,0.241,-5.337
0.298,0.051,0.242,-5.337
0.233,0.056,0.243,-5.337
0.147,0.058,0.243,-5.337
0.112,0.060,0.241,-5.337
0.142,0.055,0.245,-5.337
0.181,0.051,0.245,-5.337
0.195,0.055,0.242,-5.337
0.145,0.057,0.241,-5.337
0.125,0.056,0.242,-5.337
0.170,0.057,0.244,-5.337
0.223,0.053,0.244,-5.337
0.196,0.054,0.246,-5.337
0.175,0.055,0.247,-5.337
0.205,0.056,0.245,-5.337
0.204,0.054,0.243,-5.337
0.143,0.052,0.242,-5.337
0.155,0.048,0.243,-5.337
0.202,0.050,0.242,-5.337
0.230,0.050,0.243,-5.337
0.159,0.052,0.244,-5.337
0.186,0.051,0.243,-5.337
0.216,0.047,0.243,-5.337
0.213,0.049,0.242,-5.337
0.199,0.049,0.240,-5.337
0.221,0.048,0.237,-5.337
0.190,0.051,0.240,-5.337
0.168,0.050,0.243,-5.337
0.217,0.049,0.246,-5.337
0.183,0.051,0.248,-5.337
0.116,0.050,0.249,-5.337
0.143,0.050,0.247,-5.337
0.198,0.054,0.245,-5.337
0.154,0.051,0.245,-5.337
0.104,0.048,0.246,-5.337
0.131,0.048,0.245,-5.337
0.174,0.044,0.240,-5.337
0.135,0.049,0.241,-5.337
0.087,0.049,0.244,-5.337
0.164,0.046,0.242,-5.337
0.276,0.046,0.242,-5.337
0.257,0.047,0.244,-5.337
0.197,0.050,0.248,-5.337
0.201,0.052,0.246,-5.337
0.198,0.049,0.243,-5.337
0.224,0.047,0.239,-5.337
0.221,0.051,0.241,-5.337
0.150,0.049,0.243,-5.337
0.090,0.046,0.245,-5.337
0.108,0.048,0.246,-5.337
0.152,0.049,0.245,-5.337
0.194,0.048,0.242,-5.337
0.215,0.044,0.238,-5.337
0.206,0.042,0.235,-5.337
0.229,0.043,0.237,-5.337
0.272,0.044,0.241,-5.337
0.257,0.044,0.245,-5.337
0.183,0.043,0.247,-5.337
0.174,0.044,0.250,-5.337
0.219,0.045,0.251,-5.337
0.169,0.047,0.249,-5.337
0.159,0.042,0.246,-5.337
0.213,0.044,0.242,-5.337
0.160,0.048,0.238,-5.337
0.123,0.050,0.232,-5.337
0.179,0.050,0.237,-5.337
0.171,0.047,0.242,-5.337
0.143,0.047,0.247,-5.337
0.157,0.045,0.245,-5.337
0.259,0.050,0.245,-5.337
0.205,0.052,0.246,-5.337
0.173,0.049,0.244,-5.337
0.184,0.047,0.243,-5.337
0.192,0.051,0.243,-5.337
0.152,0.053,0.245,-5.337
0.108,0.051,0.245,-5.337
0.169,0.045,0.243,-5.337
0.216,0.045,0.245,-5.337
0.158,0.046,0.247,-5.337
0.116,0.045,0.245,-5.337
0.180,0.043,0.242,-5.337
0.224,0.045,0.245,-5.337
0.194,0.048,0.246,-5.337
0.171,0.047,0.245,-5.337
0.159,0.047,0.243,-5.337
0.195,0.046,0.243,-5.337
0.217,0.045,0.242,-5.337
0.165,0.044,0.240,-5.337
0.099,0.042,0.242,-5.337
0.141,0.039,0.242,-5.337
0.173,0.042,0.238,-5.337
0.177,0.047,0.237,-5.337
0.204,0.047,0.246,-5.337
0.213,0.045,0.245,-5.337
0.143,0.046,0.245,-5.337
0.120,0.045,0.244,-5.337
0.155,0.046,0.243,-5.337
0.178,0.049,0.243,-5.337
0.174,0.047,0.243,-5.337
0.200,0.043,0.242,-5.337
0.217,0.044,0.242,-5.337
0.198,0.045,0.243,-5.337
0.211,0.042,0.242,-5.337
0.234,0.040,0.243,-5.337
0.180,0.036,0.247,-5.337
0.110,0.039,0.243,-5.337
0.188,0.039,0.242,-5.337
0.197,0.039,0.243,-5.337
0.188,0.040,0.241,-5.337
0.191,0.042,0.243,-5.337
0.158,0.042,0.247,-5.337
0.126,0.044,0.250,-5.337
0.195,0.039,0.247,-5.337
0.258,0.037,0.246,-5.337
0.239,0.043,0.240,-5.337
0.185,0.043,0.237,-5.337
0.138,0.043,0.236,-5.337
0.134,0.041,0.241,-5.337
0.195,0.039,0.241,-5.337
0.182,0.039,0.243,-5.337
0.129,0.042,0.245,-5.337
0.119,0.045,0.244,-5.337
0.152,0.042,0.244,-5.337
0.199,0.041,0.246,-5.337
0.189,0.038,0.243,-5.337
0.137,0.043,0.240,-5.337
0.100,0.045,0.243,-5.337
0.057,0.044,0.249,-5.337
0.071,0.045,0.250,-5.337
0.115,0.044,0.245,-5.337
0.224,0.042,0.241,-5.337
0.261,0.042,0.243,-5.337
0.216,0.045,0.243,-5.337
0.175,0.044,0.243,-5.337
0.176,0.046,0.241,-5.337
0.168,0.044,0.239,-5.337
0.165,0.042,0.244,-5.337
0.180,0.046,0.247,-5.337
0.168,0.049,0.247,-5.337
0.138,0.045,0.246,-5.337
0.128,0.045,0.246,-5.337
0.163,0.040,0.247,-5.337
0.232,0.042,0.246,-5.337
0.204,0.046,0.242,-5.337
0.147,0.044,0.242,-5.337
0.225,0.039,0.244,-5.337
0.259,0.040,0.243,-5.337
0.198,0.040,0.240,-5.337
0.185,0.042,0.240,-5.337
0.167,0.039,0.245,-5.337
0.195,0.040,0.246,-5.337
0.202,0.040,0.242,-5.337
0.182,0.041,0.242,-5.337
0.157,0.041,0.240,-5.337
0.184,0.041,0.241,-5.337
0.240,0.037,0.245,-5.337
0.296,0.036,0.248,-5.337
0.204,0.042,0.247,-5.337
0.130,0.042,0.242,-5.337
0.223,0.041,0.238,-5.337
0.287,0.042,0.239,-5.337
0.235,0.040,0.246,-5.337
0.164,0.040,0.248,-5.337
0.181,0.039,0.248,-5.337
0.139,0.042,0.242,-5.337
0.095,0.037,0.240,-5.337
0.103,0.041,0.239,-5.337
0.138,0.039,0.238,-5.337
0.176,0.037,0.239,-5.337
0.189,0.035,0.242,-5.337
0.191,0.034,0.247,-5.337
0.170,0.036,0.247,-5.337
0.228,0.037,0.247,-5.337
0.214,0.041,0.247,-5.337
0.130,0.041,0.249,-5.337
0.139,0.038,0.246,-5.337
0.168,0.037,0.241,-5.337
0.202,0.036,0.238,-5.337
0.174,0.038,0.239,-5.337
0.204,0.038,0.242,-5.337
0.212,0.040,0.242,-5.337
0.199,0.038,0.243,-5.337
0.211,0.038,0.245,-5.337
0.229,0.035,0.247,-5.337
0.234,0.034,0.248,-5.337
0.238,0.037,0.247,-5.337
0.227,0.037,0.248,-5.337
0.171,0.035,0.246,-5.337
0.129,0.035,0.246,-5.337
0.168,0.037,0.244,-5.337
0.165,0.038,0.246,-5.337
0.170,0.036,0.245,-5.337
0.163,0.034,0.243,-5.337
0.158,0.036,0.243,-5.337
0.225,0.037,0.245,-5.337
0.237,0.037,0.245,-5.337
0.180,0.038,0.250,-5.337
0.164,0.038,0.250,-5.337
0.235,0.040,0.248,-5.337
0.286,0.040,0.245,-5.337
0.287,0.039,0.243,-5.337
0.198,0.039,0.243,-5.337
0.172,0.038,0.243,-5.337
0.179,0.038,0.243,-5.337
0.178,0.040,0.246,-5.337
0.245,0.038,0.247,-5.337
0.244,0.037,0.246,-5.337
0.167,0.037,0.246,-5.337
0.131,0.035,0.248,-5.337
0.170,0.037,0.252,-5.337
0.176,0.037,0.249,-5.337
0.125,0.035,0.247,-5.337
0.112,0.032,0.245,-5.337
0.164,0.033,0.245,-5.337
0.165,0.033,0.247,-5.337
0.167,0.032,0.250,-5.337
0.170,0.032,0.246,-5.337
0.109,0.038,0.242,-5.337
0.129,0.039,0.242,-5.337
0.150,0.036,0.246,-5.337
0.181,0.032,0.247,-5.337
0.202,0.037,0.245,-5.337
0.192,0.040,0.246,-5.337
0.122,0.044,0.247,-5.337
0.140,0.041,0.245,-5.337
0.190,0.040,0.247,-5.337
0.207,0.041,0.247,-5.337
0.212,0.040,0.245,-5.337
0.146,0.042,0.240,-5.337
0.174,0.044,0.241,-5.337
0.122,0.047,0.243,-5.337
0.149,0.046,0.245,-5.337
0.241,0.041,0.244,-5.337
0.281,0.038,0.243,-5.337
0.226,0.040,0.243,-5.337
0.156,0.040,0.243,-5.337
0.129,0.046,0.245,-5.337
0.048,0.051,0.245,-5.337
0.135,0.043,0.246,-5.337
0.203,0.041,0.245,-5.337
0.184,0.039,0.245,-5.337
0.131,0.042,0.242,-5.337
0.154,0.047,0.245,-5.337
0.217,0.045,0.247,-5.337
0.269,0.046,0.244,-5.337
0.250,0.043,0.239,-5.337
0.223,0.039,0.241,-5.337
0.167,0.038,0.245,-5.337
0.096,0.039,0.249,-5.337
0.139,0.039,0.246,-5.337
0.206,0.040,0.239,-5.337
0.195,0.041,0.237,-5.337
0.150,0.044,0.241,-5.337
0.127,0.043,0.242,-5.337
0.096,0.045,0.241,-5.337
0.186,0.040,0.243,-5.337
0.283,0.035,0.247,-5.337
0.284,0.035,0.248,-5.337
0.217,0.038,0.245,-5.337
0.183,0.039,0.243,-5.337
0.220,0.039,0.245,-5.337
0.242,0.041,0.249,-5.337
0.249,0.043,0.245,-5.337
0.236,0.041,0.244,-5.337
0.289,0.038,0.242,-5.337
0.291,0.039,0.241,-5.337
0.220,0.042,0.241,-5.337
0.154,0.045,0.248,-5.337
0.115,0.047,0.249,-5.337
0.202,0.047,0.247,-5.337
0.232,0.047,0.241,-5.337
0.209,0.047,0.241,-5.337
0.199,0.043,0.243,-5.337
0.154,0.044,0.244,-5.337
0.195,0.045,0.245,-5.337
0.259,0.042,0.246,-5.337
0.256,0.040,0.248,-5.337
0.186,0.040,0.246,-5.337
0.138,0.040,0.238,-5.337
0.186,0.038,0.235,-5.337
0.187,0.044,0.240,-5.337
0.117,0.046,0.242,-5.337
0.175,0.041,0.244,-5.337
0.242,0.044,0.246,-5.337
0.225,0.043,0.251,-5.337
0.197,0.046,0.252,-5.337
0.195,0.044,0.247,-5.337
0.234,0.043,0.241,-5.337
0.262,0.045,0.241,-5.337
0.256,0.045,0.238,-5.337
0.161,0.047,0.236,-5.337
0.128,0.045,0.239,-5.337
0.199,0.045,0.243,-5.337
0.253,0.044,0.241,-5.337
0.241,0.048,0.241,-5.337
0.193,0.046,0.243,-5.337
0.174,0.045,0.246,-5.337
0.113,0.048,0.244,-5.337
0.182,0.047,0.244,-5.337
0.280,0.045,0.246,-5.337
0.251,0.048,0.245,-5.337
0.131,0.049,0.245,-5.337
0.181,0.048,0.245,-5.337
0.249,0.045,0.243,-5.337
0.170,0.045,0.242,-5.337
0.177,0.044,0.245,-5.337
0.225,0.047,0.246,-5.337
0.183,0.049,0.245,-5.337
0.135,0.048,0.242,-5.337
0.110,0.046,0.247,-5.337
0.079,0.047,0.246,-5.337
0.127,0.048,0.241,-5.337
0.148,0.044,0.237,-5.337
0.197,0.045,0.239,-5.337
0.179,0.045,0.243,-5.337
0.148,0.048,0.241,-5.337
0.152,0.048,0.241,-5.337
0.219,0.047,0.238,-5.337
0.271,0.045,0.240,-5.337
0.236,0.046,0.242,-5.337
0.244,0.045,0.242,-5.337
0.251,0.044,0.246,-5.337
0.218,0.047,0.248,-5.337
0.233,0.047,0.245,-5.337
0.248,0.048,0.243,-5.337
0.221,0.052,0.247,-5.337
0.222,0.053,0.247,-5.337
0.232,0.051,0.245,-5.337
0.196,0.053,0.240,-5.337
0.159,0.053,0.240,-5.337
0.141,0.050,0.243,-5.337
0.195,0.051,0.246,-5.337
0.188,0.051,0.247,-5.337
0.129,0.050,0.242,-5.337
0.122,0.048,0.241,-5.337
0.155,0.048,0.239,-5.337
0.228,0.046,0.242,-5.337
0.199,0.051,0.242,-5.337
0.118,0.052,0.243,-5.337
0.137,0.051,0.241,-5.337
0.147,0.053,0.240,-5.337
0.166,0.053,0.240,-5.337
0.226,0.048,0.241,-5.337
0.220,0.048,0.241,-5.337
0.186,0.054,0.245,-5.337
0.226,0.051,0.249,-5.337
0.291,0.045,0.248,-5.337
0.282,0.045,0.244,-5.337
0.282,0.046,0.243,-5.337
0.233,0.046,0.241,-5.337
0.190,0.046,0.237,-5.337
0.222,0.047,0.238,-5.337
0.180,0.051,0.241,-5.337
0.126,0.055,0.242,-5.337
0.161,0.053,0.242,-5.337
0.156,0.051,0.240,-5.337
0.156,0.051,0.237,-5.337
0.203,0.050,0.245,-5.337
0.219,0.048,0.247,-5.337
0.233,0.049,0.247,-5.337
0.248,0.046,0.247,-5.337
0.262,0.048,0.247,-5.337
0.209,0.051,0.244,-5.337
0.171,0.051,0.243,-5.337
0.212,0.047,0.242,-5.337
0.224,0.049,0.241,-5.337
0.157,0.054,0.239,-5.337
0.087,0.057,0.240,-5.337
0.082,0.051,0.241,-5.337
0.161,0.049,0.242,-5.337
0.244,0.048,0.243,-5.337
0.201,0.046,0.248,-5.337
0.112,0.048,0.248,-5.337
0.131,0.051,0.246,-5.337
0.154,0.049,0.242,-5.337
0.147,0.052,0.242,-5.337
0.178,0.050,0.242,-5.337
0.194,0.049,0.242,-5.337
0.151,0.052,0.239,-5.337
0.112,0.051,0.238,-5.337
0.123,0.053,0.242,-5.337
0.193,0.053,0.242,-5.337
0.244,0.049,0.241,-5.337
0.228,0.049,0.242,-5.337
0.177,0.053,0.246,-5.337
0.189,0.055,0.247,-5.337
0.223,0.053,0.242,-5.337
0.222,0.054,0.237,-5.337
0.217,0.054,0.239,-5.337
0.259,0.053,0.242,-5.337
0.199,0.056,0.244,-5.337
0.120,0.056,0.245,-5.337
0.183,0.054,0.245,-5.337
0.301,0.050,0.245,-5.337
0.296,0.053,0.244,-5.337
0.309,0.050,0.243,-5.337
0.277,0.054,0.242,-5.337
0.201,0.054,0.242,-5.337
0.165,0.055,0.240,-5.337
0.184,0.054,0.241,-5.337
0.225,0.054,0.242,-5.337
0.220,0.052,0.242,-5.337
0.174,0.052,0.240,-5.337
0.144,0.049,0.239,-5.337
0.178,0.049,0.240,-5.337
0.142,0.054,0.242,-5.337
0.142,0.052,0.241,-5.337
0.184,0.048,0.241,-5.337
0.229,0.049,0.242,-5.337
0.266,0.051,0.246,-5.337
0.242,0.053,0.245,-5.337
0.219,0.057,0.244,-5.337
0.128,0.061,0.242,-5.337
0.062,0.060,0.243,-5.337
0.088,0.056,0.246,-5.337
0.179,0.054,0.247,-5.337
0.179,0.053,0.247,-5.337
0.162,0.056,0.243,-5.337
0.231,0.059,0.241,-5.337
0.294,0.056,0.243,-5.337
0.337,0.054,0.245,-5.337
0.256,0.059,0.247,-5.337
0.160,0.056,0.245,-5.337
0.231,0.051,0.241,-5.337
0.329,0.056,0.236,-5.337
0.243,0.058,0.235,-5.337
0.177,0.054,0.237,-5.337
0.176,0.052,0.242,-5.337
0.103,0.054,0.242,-5.337
0.140,0.058,0.239,-5.337
0.186,0.058,0.240,-5.337
0.232,0.058,0.242,-5.337
0.216,0.055,0.243,-5.337
0.206,0.052,0.244,-5.337
0.188,0.052,0.244,-5.337
0.123,0.054,0.243,-5.337
0.156,0.053,0.247,-5.337
0.171,0.054,0.249,-5.337
0.183,0.056,0.250,-5.337
0.177,0.056,0.243,-5.337
0.185,0.057,0.236,-5.337
0.188,0.055,0.236,-5.337
0.176,0.056,0.239,-5.337
0.147,0.061,0.242,-5.337
0.176,0.061,0.240,-5.337
0.204,0.058,0.240,-5.337
0.185,0.056,0.242,-5.337
0.173,0.055,0.243,-5.337
0.142,0.060,0.243,-5.337
0.172,0.060,0.244,-5.337
0.176,0.061,0.247,-5.337
