[Parameters]
Operating Mode, Feedback
Subject  AA..ZZ, WT
Session  0..99, 45
No. Trials (1..9999), 500
Mouse Number, 1
Pressure Probe Serial Port, \00\00\00\04COM4
Save additional csv file, TRUE
Save using mouse number, FALSE
A/D Monitor Rate (Hz), 30000.000000
A/D Stimulate Rate (Hz), 30000.000000
A/D input range (+/- V), 5
No. Channels to acquire (N), 2
Pre-Stim Acq. time (ms), 100.000000
Post-Stim Acq. time (ms), 900.000000
Analysis window parameters.M-response Start (ms), 1.100000
Analysis window parameters.M-response Duration (ms), 5.500000
Analysis window parameters.H-response Duration (ms), 6.000000
Analysis window parameters.H-response Start (ms), 6.500000
Feedback window, H response
Proportional gain, 0.100000
Target value, 6.700000
Feedback Ch., 1
Stim Channel to Control (1-4), 4
Trial, 65
Wait for EMG Conditions, FALSE
Channel to monitor (0 - N-1), 1
EMG Hi Limit, 2.000000
EMG Lo Limit, 0.001000
Inter-Stim delay (sec), 10.000000
EMG Monitor Mode, Mean
Time to run Long Stim.(sec), 30
Save Long Stim Data?, OFF
BURST Save time (ms), 1000
BURST Save Interval (x above), 10
Long-Stim. Rep. Rate (Hz), 10.000000
Stim type cluster array.<size(s)>, 4
Stim type cluster array 0.Stimulus Output, Electrical
Stim type cluster array 1.Stimulus Output, OFF
Stim type cluster array 2.Stimulus Output, OFF
Stim type cluster array 3.Stimulus Output, Motor Length
Stim specs cluster array.<size(s)>, 4
Stim specs cluster array 0.Initial Stimulus ampl., 0.300000
Stim specs cluster array 0.Maximum Stimulus, 1.120000
Stim specs cluster array 0.#Pulses in train, 4
Stim specs cluster array 0.Peak Level time (ms), 1.000000
Stim specs cluster array 0.Total pulse period (ms), 150.000000
Stim specs cluster array 0.Start Delay (ms), -50.000000
Stim specs cluster array 0.Pulse Shape, Square
Stim specs cluster array 0.Ramp/Rel. time (ms), 0.100000
Stim specs cluster array 0.Peak Amplitude (V), 0.120000
Stim specs cluster array 1.Initial Stimulus ampl., 0.000000
Stim specs cluster array 1.Maximum Stimulus, 0.000000
Stim specs cluster array 1.#Pulses in train, 3
Stim specs cluster array 1.Peak Level time (ms), 29.000000
Stim specs cluster array 1.Total pulse period (ms), 200.000000
Stim specs cluster array 1.Start Delay (ms), 0.000000
Stim specs cluster array 1.Pulse Shape, Square
Stim specs cluster array 1.Ramp/Rel. time (ms), 0.000000
Stim specs cluster array 1.Peak Amplitude (V), 2.000000
Stim specs cluster array 2.Initial Stimulus ampl., 0.000000
Stim specs cluster array 2.Maximum Stimulus, 0.000000
Stim specs cluster array 2.#Pulses in train, 1
Stim specs cluster array 2.Peak Level time (ms), 25.000000
Stim specs cluster array 2.Total pulse period (ms), 200.000000
Stim specs cluster array 2.Start Delay (ms), 0.000000
Stim specs cluster array 2.Pulse Shape, Square
Stim specs cluster array 2.Ramp/Rel. time (ms), 20.000000
Stim specs cluster array 2.Peak Amplitude (V), 10.000000
Stim specs cluster array 3.Initial Stimulus ampl., 0.000000
Stim specs cluster array 3.Maximum Stimulus, 20.000000
Stim specs cluster array 3.#Pulses in train, 25
Stim specs cluster array 3.Peak Level time (ms), 0.100000
Stim specs cluster array 3.Total pulse period (ms), 4.000000
Stim specs cluster array 3.Start Delay (ms), 205.000000
Stim specs cluster array 3.Pulse Shape, Triangle
Stim specs cluster array 3.Ramp/Rel. time (ms), 3.000000
Stim specs cluster array 3.Peak Amplitude (V), 0.500000
Force cal. (mN/Volt), 100.000000
Force Range (mN), 100.000000
Length cal. (mm/Volt), 10.000000
Length Range (mm), 10.000000
Stim. 1, 0.300000
Stim. 2, 0.000000
Stim. 3, 0.000000
Stim. 4, 0.000000
Monitor acquire time (ms), 100.000000
EMG graph Ymax, 0.100000
Travel limit (mm), 20.000000
Use Pressure Probe, FALSE
Pressure goal (g), 100
Speed (mm/sec), 5.000000
Dwell time (ms), 100.000000
Pressure limit (g), 500.000000
Channel amplitude offset, 0.000000

[DATA]

0.178,0.048,0.260,-5.337
0.138,0.045,0.254,-5.337
0.161,0.044,0.253,-5.337
0.174,0.043,0.255,-5.337
0.131,0.042,0.258,-5.337
0.128,0.041,0.259,-5.337
0.186,0.041,0.258,-5.337
0.191,0.043,0.260,-5.337
0.130,0.049,0.261,-5.337
0.142,0.048,0.260,-5.337
0.183,0.044,0.258,-5.337
0.172,0.043,0.257,-5.337
0.178,0.044,0.256,-5.337
0.209,0.043,0.255,-5.337
0.206,0.045,0.256,-5.337
0.151,0.048,0.261,-5.337
0.158,0.043,0.263,-5.337
0.256,0.038,0.257,-5.337
0.298,0.038,0.251,-5.337
0.205,0.040,0.251,-5.337
0.202,0.044,0.250,-5.337
0.232,0.044,0.255,-5.337
0.232,0.044,0.259,-5.337
0.198,0.045,0.261,-5.337
0.160,0.046,0.257,-5.337
0.212,0.046,0.256,-5.337
0.233,0.045,0.252,-5.337
0.221,0.047,0.253,-5.337
0.191,0.044,0.256,-5.337
0.203,0.043,0.258,-5.337
0.131,0.044,0.258,-5.337
0.168,0.042,0.258,-5.337
0.204,0.039,0.257,-5.337
0.178,0.040,0.259,-5.337
0.181,0.038,0.260,-5.337
0.237,0.037,0.260,-5.337
0.148,0.037,0.256,-5.337
0.070,0.040,0.254,-5.337
0.116,0.038,0.255,-5.337
0.234,0.036,0.255,-5.337
0.204,0.038,0.252,-5.337
0.127,0.039,0.251,-5.337
0.191,0.038,0.251,-5.337
0.233,0.041,0.254,-5.337
0.164,0.041,0.254,-5.337
0.172,0.037,0.253,-5.337
0.171,0.040,0.255,-5.337
0.111,0.040,0.255,-5.337
0.181,0.040,0.258,-5.337
0.211,0.042,0.257,-5.337
0.190,0.041,0.259,-5.337
0.164,0.040,0.258,-5.337
0.235,0.040,0.258,-5.337
0.190,0.044,0.252,-5.337
0.143,0.047,0.251,-5.337
0.173,0.043,0.250,-5.337
0.169,0.047,0.254,-5.337
0.103,0.046,0.257,-5.337
0.142,0.045,0.257,-5.337
0.136,0.045,0.257,-5.337
0.131,0.048,0.258,-5.337
0.121,0.047,0.257,-5.337
0.136,0.048,0.255,-5.337
0.125,0.047,0.252,-5.337
0.088,0.047,0.249,-5.337
0.144,0.046,0.251,-5.337
0.172,0.049,0.258,-5.337
0.213,0.046,0.260,-5.337
0.211,0.047,0.256,-5.337
0.186,0.047,0.251,-5.337
0.146,0.048,0.249,-5.337
0.152,0.045,0.250,-5.337
0.117,0.047,0.254,-5.337
0.113,0.052,0.259,-5.337
0.130,0.051,0.259,-5.337
0.189,0.046,0.256,-5.337
0.210,0.043,0.255,-5.337
0.169,0.048,0.250,-5.337
0.137,0.051,0.251,-5.337
0.172,0.052,0.255,-5.337
0.133,0.048,0.258,-5.337
0.126,0.045,0.260,-5.337
0.192,0.042,0.259,-5.337
0.179,0.042,0.255,-5.337
0.139,0.040,0.255,-5.337
0.190,0.040,0.253,-5.337
0.228,0.043,0.250,-5.337
0.187,0.042,0.250,-5.337
0.192,0.038,0.255,-5.337
0.254,0.036,0.257,-5.337
0.186,0.041,0.258,-5.337
0.115,0.041,0.256,-5.337
0.131,0.041,0.256,-5.337
0.146,0.042,0.258,-5.337
0.161,0.044,0.258,-5.337
0.142,0.046,0.255,-5.337
0.166,0.044,0.254,-5.337
0.158,0.042,0.253,-5.337
0.121,0.045,0.254,-5.337
0.129,0.043,0.252,-5.337
0.121,0.042,0.254,-5.337
0.063,0.043,0.256,-5.337
0.084,0.043,0.256,-5.337
0.185,0.043,0.256,-5.337
0.179,0.046,0.256,-5.337
0.112,0.044,0.254,-5.337
0.147,0.042,0.257,-5.337
0.205,0.040,0.256,-5.337
0.169,0.039,0.256,-5.337
0.054,0.042,0.259,-5.337
0.064,0.042,0.258,-5.337
0.169,0.039,0.258,-5.337
0.226,0.039,0.256,-5.337
0.199,0.041,0.252,-5.337
0.130,0.043,0.250,-5.337
0.082,0.042,0.251,-5.337
0.126,0.041,0.257,-5.337
0.191,0.044,0.256,-5.337
0.203,0.044,0.252,-5.337
0.160,0.045,0.254,-5.337
0.177,0.048,0.254,-5.337
0.192,0.048,0.258,-5.337
0.227,0.049,0.261,-5.337
0.188,0.050,0.261,-5.337
0.147,0.050,0.258,-5.337
0.162,0.054,0.257,-5.337
0.111,0.054,0.258,-5.337
0.093,0.051,0.257,-5.337
0.156,0.049,0.253,-5.337
0.146,0.050,0.254,-5.337
0.088,0.051,0.256,-5.337
0.111,0.049,0.254,-5.337
0.149,0.044,0.255,-5.337
0.137,0.048,0.256,-5.337
0.097,0.048,0.256,-5.337
0.181,0.047,0.254,-5.337
0.228,0.043,0.253,-5.337
0.199,0.043,0.255,-5.337
0.197,0.042,0.255,-5.337
0.285,0.040,0.256,-5.337
0.223,0.043,0.256,-5.337
0.086,0.045,0.258,-5.337
0.146,0.043,0.257,-5.337
0.281,0.043,0.257,-5.337
0.238,0.045,0.254,-5.337
0.164,0.048,0.251,-5.337
0.181,0.049,0.251,-5.337
0.192,0.053,0.251,-5.337
0.142,0.055,0.253,-5.337
0.151,0.058,0.253,-5.337
0.254,0.054,0.256,-5.337
0.279,0.051,0.257,-5.337
0.179,0.051,0.260,-5.337
0.171,0.050,0.257,-5.337
0.191,0.051,0.253,-5.337
0.189,0.055,0.252,-5.337
0.157,0.052,0.252,-5.337
0.133,0.049,0.254,-5.337
0.070,0.050,0.256,-5.337
0.141,0.048,0.256,-5.337
0.225,0.046,0.256,-5.337
0.205,0.046,0.252,-5.337
0.181,0.050,0.253,-5.337
0.127,0.052,0.256,-5.337
0.106,0.050,0.255,-5.337
0.148,0.049,0.254,-5.337
0.227,0.048,0.254,-5.337
0.229,0.048,0.255,-5.337
0.187,0.050,0.256,-5.337
0.205,0.053,0.258,-5.337
0.135,0.057,0.257,-5.337
0.093,0.055,0.256,-5.337
0.147,0.053,0.254,-5.337
0.150,0.054,0.254,-5.337
0.174,0.053,0.249,-5.337
0.177,0.052,0.248,-5.337
0.148,0.052,0.251,-5.337
0.140,0.055,0.259,-5.337
0.159,0.051,0.258,-5.337
0.195,0.052,0.254,-5.337
0.244,0.050,0.251,-5.337
0.211,0.053,0.250,-5.337
0.169,0.056,0.253,-5.337
0.176,0.057,0.258,-5.337
0.139,0.057,0.258,-5.337
0.161,0.055,0.258,-5.337
0.191,0.055,0.259,-5.337
0.178,0.053,0.255,-5.337
0.148,0.055,0.249,-5.337
0.164,0.054,0.247,-5.337
0.229,0.053,0.250,-5.337
0.276,0.052,0.252,-5.337
0.268,0.052,0.250,-5.337
0.175,0.055,0.254,-5.337
0.113,0.054,0.256,-5.337
0.154,0.051,0.254,-5.337
0.167,0.052,0.254,-5.337
0.177,0.058,0.253,-5.337
0.223,0.059,0.255,-5.337
0.179,0.060,0.254,-5.337
0.129,0.060,0.257,-5.337
0.112,0.056,0.258,-5.337
0.149,0.054,0.256,-5.337
0.209,0.054,0.254,-5.337
0.226,0.055,0.258,-5.337
0.204,0.054,0.254,-5.337
0.221,0.059,0.253,-5.337
0.225,0.056,0.255,-5.337
0.254,0.054,0.253,-5.337
0.312,0.054,0.250,-5.337
0.234,0.056,0.253,-5.337
0.220,0.054,0.255,-5.337
0.258,0.055,0.256,-5.337
0.270,0.055,0.255,-5.337
0.213,0.055,0.254,-5.337
0.164,0.058,0.253,-5.337
0.188,0.058,0.255,-5.337
0.231,0.055,0.256,-5.337
0.221,0.056,0.253,-5.337
0.165,0.054,0.250,-5.337
0.165,0.057,0.250,-5.337
0.239,0.055,0.253,-5.337
0.305,0.059,0.254,-5.337
0.278,0.061,0.256,-5.337
0.149,0.061,0.256,-5.337
0.078,0.060,0.255,-5.337
0.067,0.061,0.255,-5.337
0.150,0.060,0.256,-5.337
0.161,0.061,0.252,-5.337
0.185,0.060,0.252,-5.337
0.163,0.058,0.255,-5.337
0.167,0.059,0.254,-5.337
0.172,0.057,0.255,-5.337
0.147,0.060,0.256,-5.337
0.158,0.060,0.258,-5.337
0.204,0.059,0.260,-5.337
0.193,0.060,0.259,-5.337
0.188,0.059,0.255,-5.337
0.227,0.056,0.256,-5.337
0.199,0.055,0.254,-5.337
0.178,0.052,0.251,-5.337
0.222,0.051,0.252,-5.337
0.235,0.054,0.253,-5.337
0.232,0.052,0.254,-5.337
0.214,0.054,0.255,-5.337
0.219,0.057,0.250,-5.337
0.209,0.056,0.249,-5.337
0.155,0.060,0.251,-5.337
0.149,0.059,0.255,-5.337
0.185,0.059,0.256,-5.337
0.143,0.063,0.258,-5.337
0.174,0.064,0.257,-5.337
0.171,0.064,0.256,-5.337
0.182,0.064,0.250,-5.337
0.182,0.064,0.250,-5.337
0.119,0.064,0.251,-5.337
0.109,0.064,0.252,-5.337
0.202,0.061,0.256,-5.337
0.232,0.066,0.259,-5.337
0.214,0.067,0.255,-5.337
0.180,0.066,0.252,-5.337
0.193,0.066,0.252,-5.337
0.241,0.063,0.250,-5.337
0.195,0.065,0.252,-5.337
0.162,0.063,0.254,-5.337
0.252,0.061,0.253,-5.337
0.276,0.065,0.251,-5.337
0.221,0.064,0.253,-5.337
0.224,0.061,0.259,-5.337
0.208,0.062,0.259,-5.337
0.225,0.061,0.252,-5.337
0.232,0.062,0.251,-5.337
0.248,0.065,0.250,-5.337
0.281,0.062,0.252,-5.337
0.246,0.062,0.255,-5.337
0.186,0.063,0.257,-5.337
0.167,0.060,0.258,-5.337
0.197,0.061,0.260,-5.337
0.140,0.063,0.255,-5.337
0.106,0.062,0.252,-5.337
0.129,0.062,0.253,-5.337
0.151,0.063,0.257,-5.337
0.219,0.062,0.259,-5.337
0.235,0.063,0.257,-5.337
0.177,0.062,0.256,-5.337
0.180,0.062,0.257,-5.337
0.153,0.064,0.256,-5.337
0.106,0.066,0.254,-5.337
0.139,0.066,0.252,-5.337
0.203,0.064,0.250,-5.337
0.168,0.065,0.251,-5.337
0.157,0.066,0.252,-5.337
0.185,0.064,0.253,-5.337
0.195,0.064,0.258,-5.337
0.182,0.068,0.259,-5.337
0.171,0.067,0.254,-5.337
0.198,0.063,0.255,-5.337
0.185,0.063,0.260,-5.337
0.168,0.061,0.258,-5.337
0.210,0.065,0.254,-5.337
0.199,0.065,0.253,-5.337
0.165,0.061,0.253,-5.337
0.197,0.058,0.256,-5.337
0.185,0.059,0.255,-5.337
0.216,0.057,0.256,-5.337
0.233,0.058,0.258,-5.337
0.171,0.061,0.261,-5.337
0.128,0.062,0.263,-5.337
0.120,0.061,0.260,-5.337
0.199,0.060,0.255,-5.337
0.233,0.056,0.251,-5.337
0.216,0.057,0.251,-5.337
0.233,0.060,0.253,-5.337
0.185,0.061,0.251,-5.337
0.215,0.056,0.249,-5.337
0.267,0.053,0.253,-5.337
0.268,0.056,0.255,-5.337
0.246,0.059,0.256,-5.337
0.182,0.061,0.255,-5.337
0.190,0.061,0.251,-5.337
0.188,0.059,0.252,-5.337
0.209,0.060,0.254,-5.337
0.171,0.058,0.252,-5.337
0.138,0.058,0.253,-5.337
0.166,0.064,0.251,-5.337
0.139,0.066,0.255,-5.337
0.175,0.063,0.260,-5.337
0.231,0.063,0.260,-5.337
0.131,0.067,0.256,-5.337
0.086,0.067,0.253,-5.337
0.191,0.067,0.252,-5.337
0.266,0.067,0.255,-5.337
0.201,0.067,0.256,-5.337
0.153,0.070,0.254,-5.337
0.199,0.068,0.252,-5.337
0.204,0.068,0.251,-5.337
0.177,0.067,0.251,-5.337
0.170,0.068,0.251,-5.337
0.219,0.064,0.252,-5.337
0.169,0.065,0.253,-5.337
0.143,0.067,0.254,-5.337
0.134,0.068,0.255,-5.337
0.156,0.069,0.257,-5.337
0.231,0.067,0.258,-5.337
0.262,0.062,0.261,-5.337
0.237,0.066,0.256,-5.337
0.287,0.065,0.253,-5.337
0.264,0.067,0.252,-5.337
0.231,0.069,0.254,-5.337
0.231,0.068,0.252,-5.337
0.165,0.069,0.253,-5.337
0.159,0.070,0.254,-5.337
0.170,0.071,0.255,-5.337
0.177,0.067,0.250,-5.337
0.217,0.062,0.250,-5.337
0.233,0.059,0.252,-5.337
0.194,0.062,0.254,-5.337
0.201,0.061,0.255,-5.337
0.212,0.065,0.256,-5.337
0.249,0.063,0.255,-5.337
0.269,0.064,0.253,-5.337
0.232,0.066,0.258,-5.337
0.208,0.062,0.258,-5.337
0.251,0.061,0.257,-5.337
0.284,0.061,0.257,-5.337
0.281,0.060,0.257,-5.337
0.231,0.064,0.255,-5.337
0.229,0.067,0.256,-5.337
0.196,0.063,0.257,-5.337
0.132,0.063,0.256,-5.337
0.132,0.064,0.255,-5.337
0.145,0.064,0.255,-5.337
0.148,0.064,0.255,-5.337
0.171,0.062,0.254,-5.337
0.238,0.058,0.250,-5.337
0.242,0.061,0.254,-5.337
0.213,0.062,0.257,-5.337
0.204,0.059,0.258,-5.337
0.187,0.062,0.253,-5.337
0.184,0.066,0.250,-5.337
0.148,0.064,0.249,-5.337
0.158,0.060,0.251,-5.337
0.233,0.055,0.255,-5.337
0.239,0.057,0.256,-5.337
0.207,0.056,0.252,-5.337
0.212,0.057,0.249,-5.337
0.141,0.059,0.251,-5.337
0.093,0.056,0.255,-5.337
0.133,0.058,0.252,-5.337
0.165,0.056,0.248,-5.337
0.214,0.053,0.249,-5.337
0.182,0.055,0.251,-5.337
0.150,0.058,0.251,-5.337
0.188,0.056,0.256,-5.337
0.195,0.056,0.255,-5.337
0.180,0.053,0.254,-5.337
0.242,0.049,0.253,-5.337
0.221,0.052,0.252,-5.337
0.182,0.053,0.256,-5.337
0.222,0.051,0.261,-5.337
0.263,0.053,0.259,-5.337
0.230,0.055,0.257,-5.337
0.263,0.054,0.257,-5.337
0.357,0.050,0.257,-5.337
0.337,0.050,0.254,-5.337
0.268,0.051,0.251,-5.337
0.133,0.054,0.252,-5.337
0.130,0.056,0.255,-5.337
0.194,0.055,0.252,-5.337
0.142,0.055,0.250,-5.337
0.121,0.052,0.250,-5.337
0.134,0.052,0.251,-5.337
0.183,0.053,0.249,-5.337
0.178,0.050,0.245,-5.337
0.178,0.052,0.247,-5.337
0.170,0.056,0.248,-5.337
0.167,0.056,0.247,-5.337
0.201,0.051,0.250,-5.337
0.214,0.051,0.252,-5.337
0.170,0.054,0.250,-5.337
0.175,0.055,0.247,-5.337
0.212,0.056,0.249,-5.337
0.157,0.057,0.252,-5.337
0.208,0.053,0.253,-5.337
0.235,0.049,0.252,-5.337
0.190,0.052,0.250,-5.337
0.167,0.055,0.249,-5.337
0.158,0.052,0.250,-5.337
0.236,0.049,0.251,-5.337
0.181,0.052,0.250,-5.337
0.155,0.052,0.252,-5.337
0.221,0.053,0.254,-5.337
0.237,0.052,0.251,-5.337
0.214,0.052,0.251,-5.337
0.198,0.051,0.251,-5.337
0.168,0.054,0.249,-5.337
0.146,0.053,0.247,-5.337
0.213,0.052,0.253,-5.337
0.196,0.050,0.255,-5.337
0.153,0.051,0.255,-5.337
0.144,0.052,0.253,-5.337
0.172,0.052,0.250,-5.337
0.208,0.051,0.249,-5.337
0.180,0.054,0.244,-5.337
0.139,0.055,0.240,-5.337
0.133,0.057,0.239,-5.337
0.166,0.056,0.245,-5.337
0.167,0.056,0.249,-5.337
0.152,0.057,0.250,-5.337
0.177,0.052,0.248,-5.337
0.203,0.051,0.247,-5.337
0.224,0.053,0.245,-5.337
0.217,0.056,0.247,-5.337
0.233,0.055,0.251,-5.337
0.222,0.055,0.257,-5.337
0.238,0.050,0.257,-5.337
0.201,0.050,0.255,-5.337
0.167,0.055,0.252,-5.337
0.192,0.056,0.254,-5.337
0.226,0.053,0.253,-5.337
0.184,0.058,0.251,-5.337
0.087,0.060,0.250,-5.337
0.137,0.057,0.249,-5.337
0.191,0.056,0.249,-5.337
0.205,0.056,0.246,-5.337
0.159,0.055,0.245,-5.337
0.155,0.054,0.249,-5.337
0.232,0.053,0.253,-5.337
0.202,0.051,0.254,-5.337
0.127,0.052,0.250,-5.337
0.175,0.050,0.246,-5.337
0.245,0.046,0.248,-5.337
0.285,0.044,0.248,-5.337
0.265,0.047,0.249,-5.337
0.217,0.047,0.248,-5.337
0.171,0.049,0.251,-5.337
0.155,0.048,0.250,-5.337
0.123,0.046,0.250,-5.337
0.105,0.047,0.249,-5.337
0.102,0.048,0.250,-5.337
0.095,0.049,0.248,-5.337
0.106,0.047,0.246,-5.337
0.172,0.043,0.246,-5.337
0.222,0.043,0.250,-5.337
0.255,0.043,0.249,-5.337
0.258,0.044,0.250,-5.337
0.235,0.043,0.250,-5.337
0.252,0.042,0.251,-5.337
0.234,0.046,0.248,-5.337
0.104,0.050,0.247,-5.337
0.104,0.049,0.247,-5.337
0.168,0.047,0.249,-5.337
0.152,0.051,0.249,-5.337
0.148,0.051,0.248,-5.337
0.186,0.052,0.251,-5.337
0.153,0.057,0.252,-5.337
0.193,0.053,0.250,-5.337
0.240,0.049,0.245,-5.337
0.195,0.050,0.246,-5.337
0.146,0.052,0.247,-5.337
0.088,0.050,0.251,-5.337
0.138,0.045,0.250,-5.337
0.224,0.045,0.250,-5.337
0.238,0.046,0.250,-5.337
0.216,0.046,0.248,-5.337
0.207,0.044,0.247,-5.337
0.214,0.043,0.247,-5.337
0.209,0.043,0.250,-5.337
0.112,0.045,0.250,-5.337
0.113,0.046,0.248,-5.337
0.220,0.046,0.249,-5.337
0.240,0.048,0.251,-5.337
0.187,0.048,0.247,-5.337
0.168,0.045,0.243,-5.337
0.233,0.044,0.246,-5.337
0.198,0.043,0.252,-5.337
0.154,0.042,0.251,-5.337
0.197,0.040,0.249,-5.337
0.247,0.037,0.247,-5.337
0.260,0.038,0.245,-5.337
0.226,0.039,0.246,-5.337
0.201,0.039,0.249,-5.337
0.206,0.041,0.251,-5.337
0.196,0.042,0.250,-5.337
0.159,0.041,0.250,-5.337
0.162,0.040,0.252,-5.337
0.152,0.041,0.250,-5.337
0.169,0.043,0.248,-5.337
0.191,0.045,0.245,-5.337
0.225,0.045,0.245,-5.337
0.289,0.041,0.250,-5.337
0.236,0.044,0.254,-5.337
0.218,0.044,0.250,-5.337
0.188,0.045,0.245,-5.337
0.184,0.042,0.246,-5.337
0.239,0.043,0.252,-5.337
0.265,0.044,0.251,-5.337
0.188,0.042,0.248,-5.337
0.105,0.044,0.248,-5.337
0.169,0.045,0.250,-5.337
0.211,0.043,0.247,-5.337
0.216,0.043,0.248,-5.337
0.212,0.041,0.250,-5.337
0.115,0.044,0.247,-5.337
0.031,0.044,0.249,-5.337
0.065,0.042,0.252,-5.337
0.183,0.042,0.254,-5.337
0.246,0.041,0.246,-5.337
0.198,0.039,0.245,-5.337
0.112,0.040,0.249,-5.337
0.119,0.043,0.255,-5.337
0.080,0.042,0.251,-5.337
0.130,0.043,0.250,-5.337
0.165,0.043,0.251,-5.337
0.180,0.044,0.252,-5.337
0.187,0.044,0.249,-5.337
0.220,0.042,0.250,-5.337
0.150,0.043,0.253,-5.337
0.122,0.042,0.255,-5.337
0.089,0.041,0.253,-5.337
0.075,0.043,0.252,-5.337
0.166,0.038,0.250,-5.337
0.203,0.039,0.248,-5.337
0.237,0.041,0.245,-5.337
0.209,0.040,0.241,-5.337
0.244,0.036,0.241,-5.337
0.281,0.034,0.248,-5.337
0.259,0.034,0.252,-5.337
0.198,0.037,0.251,-5.337
0.118,0.041,0.253,-5.337
0.166,0.038,0.257,-5.337
0.251,0.042,0.255,-5.337
0.248,0.043,0.251,-5.337
0.182,0.041,0.251,-5.337
0.113,0.041,0.251,-5.337
0.183,0.039,0.248,-5.337
0.217,0.041,0.246,-5.337
0.178,0.040,0.247,-5.337
0.099,0.038,0.250,-5.337
0.079,0.038,0.252,-5.337
0.176,0.037,0.252,-5.337
0.216,0.041,0.253,-5.337
0.194,0.039,0.250,-5.337
0.184,0.039,0.249,-5.337
0.144,0.042,0.248,-5.337
0.156,0.042,0.246,-5.337
0.169,0.038,0.249,-5.337
0.158,0.038,0.256,-5.337
0.214,0.041,0.254,-5.337
0.244,0.042,0.250,-5.337
0.158,0.044,0.247,-5.337
0.107,0.045,0.247,-5.337
0.111,0.047,0.247,-5.337
0.176,0.046,0.244,-5.337
0.202,0.043,0.246,-5.337
0.082,0.048,0.246,-5.337
0.147,0.046,0.246,-5.337
0.195,0.047,0.245,-5.337
0.164,0.046,0.249,-5.337
0.199,0.042,0.252,-5.337
0.218,0.042,0.254,-5.337
0.185,0.049,0.252,-5.337
0.149,0.049,0.249,-5.337
0.186,0.045,0.248,-5.337
0.206,0.043,0.249,-5.337
0.177,0.041,0.251,-5.337
0.161,0.042,0.255,-5.337
0.145,0.044,0.254,-5.337
0.123,0.045,0.255,-5.337
0.136,0.043,0.256,-5.337
0.178,0.040,0.255,-5.337
0.206,0.035,0.253,-5.337
0.283,0.035,0.250,-5.337
0.241,0.039,0.247,-5.337
0.260,0.040,0.249,-5.337
0.300,0.038,0.248,-5.337
0.273,0.038,0.247,-5.337
0.225,0.040,0.249,-5.337
0.196,0.042,0.250,-5.337
0.176,0.041,0.247,-5.337
0.206,0.039,0.241,-5.337
0.155,0.043,0.244,-5.337
0.117,0.044,0.251,-5.337
0.155,0.042,0.254,-5.337
0.176,0.040,0.252,-5.337
0.200,0.043,0.251,-5.337
0.228,0.042,0.251,-5.337
0.229,0.041,0.251,-5.337
0.190,0.042,0.249,-5.337
0.148,0.047,0.248,-5.337
0.077,0.050,0.250,-5.337
0.077,0.047,0.253,-5.337
0.143,0.043,0.252,-5.337
0.185,0.046,0.252,-5.337
0.162,0.047,0.254,-5.337
0.197,0.046,0.255,-5.337
0.210,0.043,0.253,-5.337
0.248,0.041,0.251,-5.337
0.243,0.042,0.251,-5.337
0.143,0.046,0.252,-5.337
0.122,0.044,0.252,-5.337
0.198,0.042,0.252,-5.337
0.205,0.040,0.251,-5.337
0.221,0.040,0.250,-5.337
0.206,0.037,0.254,-5.337
0.211,0.037,0.252,-5.337
0.219,0.040,0.255,-5.337
0.220,0.043,0.254,-5.337
0.176,0.043,0.253,-5.337
0.164,0.043,0.251,-5.337
0.181,0.047,0.248,-5.337
0.215,0.046,0.247,-5.337
0.223,0.048,0.248,-5.337
0.216,0.046,0.251,-5.337
0.189,0.044,0.249,-5.337
0.162,0.048,0.248,-5.337
0.217,0.046,0.246,-5.337
0.280,0.045,0.247,-5.337
0.242,0.045,0.250,-5.337
0.229,0.043,0.250,-5.337
0.254,0.045,0.252,-5.337
0.255,0.046,0.254,-5.337
0.224,0.045,0.253,-5.337
0.130,0.045,0.254,-5.337
0.125,0.048,0.253,-5.337
0.109,0.050,0.255,-5.337
0.169,0.049,0.253,-5.337
0.220,0.045,0.250,-5.337
0.211,0.047,0.248,-5.337
0.136,0.049,0.254,-5.337
0.113,0.051,0.252,-5.337
0.136,0.052,0.254,-5.337
0.197,0.048,0.254,-5.337
0.163,0.047,0.253,-5.337
0.217,0.048,0.249,-5.337
0.278,0.049,0.246,-5.337
0.225,0.052,0.245,-5.337
0.179,0.054,0.250,-5.337
0.189,0.053,0.252,-5.337
0.278,0.057,0.253,-5.337
0.315,0.055,0.252,-5.337
0.303,0.051,0.248,-5.337
0.231,0.051,0.248,-5.337
0.184,0.052,0.247,-5.337
0.219,0.048,0.249,-5.337
0.224,0.046,0.248,-5.337
0.168,0.050,0.247,-5.337
0.162,0.053,0.248,-5.337
0.192,0.052,0.251,-5.337
0.215,0.052,0.253,-5.337
0.248,0.054,0.254,-5.337
0.244,0.052,0.253,-5.337
0.175,0.053,0.251,-5.337
0.158,0.049,0.247,-5.337
0.220,0.048,0.248,-5.337
0.239,0.052,0.249,-5.337
0.237,0.051,0.250,-5.337
0.189,0.053,0.247,-5.337
0.176,0.054,0.243,-5.337
0.205,0.053,0.243,-5.337
0.293,0.052,0.250,-5.337
0.293,0.051,0.252,-5.337
0.197,0.057,0.252,-5.337
0.110,0.057,0.255,-5.337
0.149,0.053,0.256,-5.337
0.146,0.052,0.252,-5.337
0.116,0.057,0.247,-5.337
0.125,0.059,0.247,-5.337
0.181,0.063,0.249,-5.337
0.191,0.061,0.246,-5.337
0.168,0.059,0.244,-5.337
0.202,0.056,0.247,-5.337
0.232,0.056,0.252,-5.337
0.230,0.056,0.251,-5.337
0.207,0.059,0.251,-5.337
0.240,0.054,0.251,-5.337
0.274,0.055,0.251,-5.337
0.216,0.055,0.248,-5.337
0.192,0.055,0.247,-5.337
0.257,0.057,0.250,-5.337
0.277,0.057,0.254,-5.337
0.224,0.054,0.253,-5.337
0.242,0.051,0.248,-5.337
0.287,0.051,0.247,-5.337
0.239,0.052,0.251,-5.337
0.133,0.059,0.253,-5.337
0.189,0.055,0.250,-5.337
0.219,0.054,0.249,-5.337
0.145,0.052,0.248,-5.337
0.150,0.052,0.251,-5.337
0.186,0.052,0.252,-5.337
0.218,0.052,0.250,-5.337
0.239,0.054,0.250,-5.337
0.286,0.055,0.251,-5.337
0.271,0.057,0.250,-5.337
0.182,0.058,0.245,-5.337
0.127,0.060,0.245,-5.337
0.168,0.060,0.251,-5.337
0.180,0.061,0.251,-5.337
0.159,0.059,0.248,-5.337
0.169,0.059,0.247,-5.337
0.267,0.060,0.247,-5.337
0.248,0.062,0.245,-5.337
0.138,0.064,0.249,-5.337
0.109,0.060,0.252,-5.337
0.146,0.057,0.255,-5.337
0.157,0.059,0.251,-5.337
0.186,0.056,0.245,-5.337
0.244,0.057,0.242,-5.337
0.235,0.063,0.244,-5.337
0.202,0.065,0.249,-5.337
0.202,0.064,0.252,-5.337
0.184,0.063,0.253,-5.337
0.186,0.064,0.254,-5.337
0.156,0.066,0.255,-5.337
0.177,0.064,0.253,-5.337
0.184,0.058,0.252,-5.337
0.248,0.058,0.249,-5.337
0.336,0.057,0.247,-5.337
0.355,0.057,0.246,-5.337
0.356,0.057,0.245,-5.337
0.259,0.057,0.246,-5.337
0.162,0.061,0.254,-5.337
0.283,0.058,0.256,-5.337
0.334,0.058,0.255,-5.337
0.308,0.059,0.249,-5.337
0.243,0.058,0.247,-5.337
0.207,0.058,0.247,-5.337
0.174,0.060,0.250,-5.337
0.118,0.062,0.251,-5.337
0.125,0.060,0.249,-5.337
0.142,0.057,0.251,-5.337
0.230,0.055,0.252,-5.337
0.241,0.059,0.253,-5.337
0.221,0.060,0.252,-5.337
0.254,0.060,0.253,-5.337
0.253,0.063,0.250,-5.337
0.222,0.062,0.249,-5.337
0.178,0.062,0.247,-5.337
0.217,0.061,0.248,-5.337
0.243,0.059,0.249,-5.337
0.212,0.061,0.248,-5.337
0.214,0.060,0.250,-5.337
0.184,0.063,0.253,-5.337
0.109,0.066,0.253,-5.337
0.149,0.066,0.250,-5.337
0.232,0.065,0.249,-5.337
0.287,0.063,0.249,-5.337
0.247,0.063,0.250,-5.337
0.213,0.061,0.250,-5.337
0.261,0.059,0.251,-5.337
0.291,0.064,0.251,-5.337
0.228,0.064,0.251,-5.337
0.169,0.062,0.251,-5.337
0.146,0.062,0.250,-5.337
0.192,0.062,0.252,-5.337
0.204,0.065,0.253,-5.337
0.176,0.065,0.252,-5.337
0.138,0.063,0.249,-5.337
0.132,0.063,0.247,-5.337
0.218,0.061,0.248,-5.337
0.250,0.061,0.247,-5.337
0.178,0.063,0.247,-5.337
0.124,0.065,0.247,-5.337
0.207,0.068,0.247,-5.337
0.257,0.072,0.249,-5.337
0.233,0.069,0.249,-5.337
0.218,0.065,0.250,-5.337
0.209,0.063,0.249,-5.337
0.248,0.061,0.248,-5.337
0.217,0.064,0.250,-5.337
0.149,0.065,0.249,-5.337
0.143,0.066,0.251,-5.337
0.190,0.065,0.256,-5.337
0.194,0.064,0.255,-5.337
0.211,0.063,0.253,-5.337
0.240,0.062,0.251,-5.337
0.185,0.064,0.249,-5.337
0.229,0.061,0.250,-5.337
0.272,0.062,0.251,-5.337
0.231,0.065,0.251,-5.337
0.155,0.065,0.251,-5.337
0.156,0.065,0.247,-5.337
0.187,0.064,0.249,-5.337
0.179,0.063,0.249,-5.337
0.171,0.062,0.247,-5.337
0.242,0.062,0.244,-5.337
0.265,0.063,0.245,-5.337
0.220,0.063,0.245,-5.337
0.185,0.066,0.244,-5.337
0.169,0.068,0.248,-5.337
0.157,0.066,0.252,-5.337
0.178,0.063,0.254,-5.337
0.256,0.060,0.255,-5.337
0.306,0.058,0.255,-5.337
0.309,0.063,0.256,-5.337
0.177,0.068,0.254,-5.337
0.097,0.067,0.251,-5.337
0.132,0.065,0.250,-5.337
0.137,0.069,0.251,-5.337
0.126,0.066,0.251,-5.337
0.161,0.063,0.247,-5.337
0.205,0.062,0.250,-5.337
0.161,0.067,0.251,-5.337
0.178,0.067,0.247,-5.337
0.180,0.065,0.246,-5.337
0.195,0.066,0.254,-5.337
0.311,0.063,0.256,-5.337
0.372,0.062,0.254,-5.337
0.306,0.064,0.251,-5.337
0.239,0.066,0.252,-5.337
0.251,0.066,0.252,-5.337
0.230,0.067,0.252,-5.337
0.233,0.064,0.249,-5.337
0.240,0.059,0.250,-5.337
0.236,0.056,0.247,-5.337
0.219,0.060,0.250,-5.337
0.168,0.064,0.249,-5.337
0.188,0.063,0.247,-5.337
0.217,0.060,0.246,-5.337
0.283,0.060,0.247,-5.337
0.291,0.057,0.249,-5.337
0.286,0.058,0.251,-5.337
0.299,0.059,0.252,-5.337
0.216,0.062,0.252,-5.337
0.187,0.061,0.249,-5.337
0.171,0.060,0.248,-5.337
0.167,0.058,0.249,-5.337
0.266,0.059,0.253,-5.337
0.343,0.060,0.255,-5.337
0.299,0.058,0.255,-5.337
0.297,0.058,0.253,-5.337
0.222,0.066,0.250,-5.337
0.174,0.066,0.251,-5.337
0.144,0.065,0.250,-5.337
0.144,0.061,0.252,-5.337
0.163,0.060,0.251,-5.337
0.167,0.065,0.249,-5.337
0.161,0.069,0.244,-5.337
0.232,0.066,0.247,-5.337
0.297,0.061,0.250,-5.337
0.252,0.065,0.253,-5.337
0.182,0.065,0.254,-5.337
0.147,0.064,0.252,-5.337
0.189,0.063,0.249,-5.337
0.203,0.063,0.249,-5.337
0.079,0.063,0.248,-5.337
0.121,0.064,0.251,-5.337
0.176,0.059,0.254,-5.337
0.197,0.055,0.254,-5.337
0.193,0.057,0.250,-5.337
0.180,0.057,0.246,-5.337
0.147,0.059,0.245,-5.337
0.171,0.056,0.242,-5.337
0.218,0.053,0.245,-5.337
0.235,0.054,0.249,-5.337
0.182,0.055,0.255,-5.337
0.225,0.055,0.256,-5.337
0.255,0.056,0.253,-5.337
0.176,0.058,0.249,-5.337
0.090,0.061,0.250,-5.337
0.131,0.055,0.252,-5.337
0.198,0.054,0.256,-5.337
0.198,0.054,0.255,-5.337
0.238,0.052,0.254,-5.337
0.161,0.054,0.253,-5.337
0.082,0.057,0.254,-5.337
0.114,0.051,0.249,-5.337
0.181,0.052,0.247,-5.337
0.258,0.051,0.246,-5.337
0.268,0.052,0.247,-5.337
0.252,0.053,0.250,-5.337
0.270,0.055,0.250,-5.337
0.292,0.059,0.247,-5.337
0.235,0.058,0.245,-5.337
0.198,0.054,0.249,-5.337
0.233,0.054,0.253,-5.337
0.206,0.056,0.253,-5.337
0.180,0.055,0.248,-5.337
0.182,0.054,0.247,-5.337
0.266,0.051,0.250,-5.337
0.261,0.052,0.254,-5.337
0.129,0.056,0.254,-5.337
0.114,0.055,0.255,-5.337
0.207,0.053,0.254,-5.337
0.198,0.052,0.253,-5.337
0.112,0.053,0.249,-5.337
0.145,0.053,0.247,-5.337
0.237,0.056,0.247,-5.337
0.230,0.055,0.250,-5.337
0.208,0.052,0.253,-5.337
0.204,0.052,0.257,-5.337
0.242,0.051,0.257,-5.337
0.240,0.053,0.255,-5.337
0.204,0.052,0.250,-5.337
0.193,0.053,0.245,-5.337
0.217,0.053,0.243,-5.337
0.229,0.056,0.247,-5.337
0.185,0.057,0.250,-5.337
0.217,0.056,0.250,-5.337
0.252,0.055,0.252,-5.337
0.227,0.057,0.253,-5.337
0.223,0.057,0.250,-5.337
0.225,0.059,0.249,-5.337
0.216,0.054,0.251,-5.337
0.242,0.051,0.251,-5.337
0.223,0.052,0.251,-5.337
0.191,0.051,0.251,-5.337
0.192,0.050,0.252,-5.337
0.256,0.049,0.249,-5.337
0.249,0.049,0.247,-5.337
0.188,0.049,0.244,-5.337
0.230,0.047,0.244,-5.337
0.227,0.050,0.242,-5.337
0.124,0.054,0.246,-5.337
0.066,0.053,0.250,-5.337
0.101,0.053,0.254,-5.337
0.173,0.051,0.256,-5.337
0.168,0.052,0.251,-5.337
0.190,0.049,0.250,-5.337
0.208,0.047,0.250,-5.337
0.200,0.047,0.251,-5.337
0.234,0.044,0.248,-5.337
0.237,0.048,0.245,-5.337
0.195,0.048,0.248,-5.337
0.184,0.045,0.250,-5.337
0.192,0.046,0.249,-5.337
0.168,0.043,0.250,-5.337
0.198,0.040,0.251,-5.337
0.241,0.040,0.253,-5.337
0.196,0.043,0.251,-5.337
0.192,0.042,0.251,-5.337
0.192,0.046,0.251,-5.337
0.180,0.046,0.249,-5.337
0.158,0.045,0.245,-5.337
0.108,0.044,0.251,-5.337
0.162,0.041,0.253,-5.337
0.219,0.044,0.255,-5.337
0.168,0.047,0.252,-5.337
0.100,0.048,0.243,-5.337
0.050,0.047,0.237,-5.337
0.119,0.044,0.244,-5.337
0.159,0.043,0.252,-5.337
0.124,0.045,0.250,-5.337
0.107,0.046,0.247,-5.337
0.166,0.045,0.251,-5.337
0.183,0.042,0.254,-5.337
0.207,0.043,0.251,-5.337
0.194,0.043,0.247,-5.337
0.207,0.044,0.245,-5.337
0.229,0.044,0.246,-5.337
0.212,0.045,0.246,-5.337
0.177,0.044,0.248,-5.337
0.123,0.044,0.251,-5.337
0.162,0.038,0.256,-5.337
0.220,0.039,0.254,-5.337
0.180,0.043,0.252,-5.337
0.183,0.042,0.246,-5.337
0.184,0.042,0.245,-5.337
0.140,0.046,0.249,-5.337
0.143,0.049,0.251,-5.337
0.161,0.049,0.249,-5.337
0.140,0.047,0.249,-5.337
0.163,0.043,0.244,-5.337
0.214,0.048,0.245,-5.337
0.204,0.050,0.248,-5.337
0.164,0.049,0.249,-5.337
0.174,0.047,0.249,-5.337
0.241,0.043,0.251,-5.337
0.251,0.042,0.250,-5.337
0.190,0.047,0.251,-5.337
0.164,0.045,0.253,-5.337
0.205,0.043,0.248,-5.337
0.253,0.046,0.243,-5.337
0.235,0.043,0.245,-5.337
0.222,0.041,0.248,-5.337
0.217,0.044,0.253,-5.337
0.224,0.045,0.255,-5.337
0.176,0.049,0.251,-5.337
0.106,0.050,0.249,-5.337
0.142,0.048,0.250,-5.337
0.205,0.047,0.251,-5.337
0.193,0.048,0.247,-5.337
0.219,0.046,0.248,-5.337
0.179,0.049,0.250,-5.337
0.142,0.048,0.252,-5.337
0.121,0.050,0.252,-5.337
0.150,0.050,0.252,-5.337
0.173,0.048,0.250,-5.337
0.146,0.054,0.249,-5.337
0.134,0.050,0.253,-5.337
0.177,0.044,0.254,-5.337
0.199,0.042,0.250,-5.337
0.194,0.043,0.247,-5.337
0.150,0.044,0.244,-5.337
0.171,0.048,0.243,-5.337
0.144,0.044,0.248,-5.337
0.166,0.042,0.250,-5.337
0.169,0.043,0.248,-5.337
0.197,0.046,0.248,-5.337
0.215,0.043,0.252,-5.337
0.214,0.041,0.253,-5.337
0.196,0.040,0.254,-5.337
0.174,0.045,0.253,-5.337
0.164,0.046,0.254,-5.337
0.156,0.044,0.253,-5.337
0.145,0.045,0.252,-5.337
0.138,0.045,0.247,-5.337
0.149,0.043,0.248,-5.337
0.153,0.038,0.250,-5.337
0.184,0.040,0.250,-5.337
0.165,0.042,0.245,-5.337
0.163,0.042,0.243,-5.337
0.125,0.042,0.244,-5.337
0.099,0.045,0.247,-5.337
0.164,0.042,0.248,-5.337
0.248,0.042,0.253,-5.337
0.250,0.041,0.253,-5.337
0.203,0.043,0.253,-5.337
0.230,0.038,0.256,-5.337
0.290,0.037,0.256,-5.337
0.305,0.041,0.250,-5.337
0.228,0.044,0.244,-5.337
0.222,0.043,0.247,-5.337
0.162,0.043,0.251,-5.337
0.087,0.043,0.251,-5.337
0.131,0.042,0.251,-5.337
0.112,0.043,0.250,-5.337
0.099,0.040,0.248,-5.337
0.147,0.040,0.253,-5.337
0.198,0.042,0.254,-5.337
0.225,0.038,0.254,-5.337
0.251,0.037,0.252,-5.337
0.284,0.042,0.249,-5.337
0.283,0.041,0.247,-5.337
0.235,0.042,0.249,-5.337
0.171,0.043,0.253,-5.337
0.166,0.045,0.255,-5.337
0.143,0.041,0.254,-5.337
0.138,0.039,0.252,-5.337
0.172,0.039,0.248,-5.337
0.160,0.042,0.250,-5.337
0.155,0.041,0.251,-5.337
0.231,0.039,0.249,-5.337
0.280,0.039,0.249,-5.337
0.226,0.043,0.253,-5.337
0.167,0.044,0.254,-5.337
0.218,0.040,0.250,-5.337
0.193,0.041,0.246,-5.337
0.114,0.042,0.244,-5.337
0.160,0.044,0.244,-5.337
0.208,0.049,0.247,-5.337
0.123,0.048,0.249,-5.337
0.150,0.047,0.252,-5.337
0.193,0.046,0.252,-5.337
0.200,0.046,0.249,-5.337
0.246,0.042,0.251,-5.337
0.282,0.042,0.252,-5.337
0.214,0.044,0.251,-5.337
0.155,0.043,0.249,-5.337
0.138,0.043,0.251,-5.337
0.174,0.041,0.250,-5.337
0.226,0.043,0.252,-5.337
0.222,0.046,0.253,-5.337
0.200,0.048,0.253,-5.337
0.188,0.044,0.252,-5.337
0.225,0.041,0.250,-5.337
0.211,0.043,0.249,-5.337
0.164,0.043,0.250,-5.337
0.144,0.046,0.252,-5.337
0.132,0.049,0.250,-5.337
0.082,0.049,0.247,-5.337
0.154,0.045,0.250,-5.337
0.206,0.046,0.255,-5.337
0.237,0.045,0.255,-5.337
0.177,0.050,0.251,-5.337
0.066,0.050,0.251,-5.337
0.074,0.046,0.252,-5.337
0.157,0.045,0.251,-5.337
0.178,0.043,0.253,-5.337
0.166,0.043,0.254,-5.337
0.179,0.046,0.252,-5.337
0.211,0.045,0.249,-5.337
0.132,0.050,0.251,-5.337
0.132,0.050,0.249,-5.337
0.192,0.047,0.252,-5.337
0.140,0.048,0.254,-5.337
0.156,0.050,0.252,-5.337
0.203,0.052,0.249,-5.337
0.214,0.053,0.248,-5.337
0.195,0.050,0.245,-5.337
0.188,0.049,0.244,-5.337
0.205,0.050,0.248,-5.337
0.208,0.052,0.252,-5.337
0.173,0.056,0.254,-5.337
0.149,0.058,0.257,-5.337
0.159,0.055,0.256,-5.337
0.165,0.054,0.254,-5.337
0.148,0.053,0.247,-5.337
0.196,0.053,0.246,-5.337
0.252,0.050,0.247,-5.337
0.225,0.044,0.246,-5.337
0.108,0.046,0.248,-5.337
0.135,0.050,0.250,-5.337
0.263,0.049,0.252,-5.337
0.223,0.049,0.254,-5.337
0.173,0.052,0.254,-5.337
0.162,0.049,0.250,-5.337
0.199,0.048,0.246,-5.337
0.247,0.047,0.247,-5.337
0.277,0.046,0.253,-5.337
0.217,0.051,0.254,-5.337
0.176,0.051,0.254,-5.337
0.098,0.050,0.251,-5.337
0.075,0.054,0.249,-5.337
0.053,0.055,0.250,-5.337
0.107,0.054,0.250,-5.337
0.210,0.049,0.251,-5.337
0.217,0.049,0.254,-5.337
0.160,0.050,0.254,-5.337
0.172,0.053,0.249,-5.337
0.208,0.054,0.247,-5.337
0.231,0.055,0.250,-5.337
0.237,0.052,0.251,-5.337
0.256,0.053,0.250,-5.337
0.250,0.054,0.249,-5.337
0.261,0.055,0.250,-5.337
0.218,0.058,0.252,-5.337
0.222,0.056,0.254,-5.337
0.245,0.054,0.254,-5.337
0.264,0.055,0.249,-5.337
0.233,0.055,0.251,-5.337
0.163,0.058,0.255,-5.337
0.146,0.057,0.255,-5.337
0.160,0.053,0.252,-5.337
0.228,0.050,0.253,-5.337
0.298,0.050,0.253,-5.337
0.198,0.054,0.249,-5.337
0.123,0.056,0.249,-5.337
0.186,0.058,0.252,-5.337
0.252,0.057,0.255,-5.337
0.212,0.059,0.255,-5.337
0.160,0.054,0.253,-5.337
0.108,0.057,0.250,-5.337
0.129,0.059,0.249,-5.337
0.178,0.060,0.252,-5.337
0.134,0.061,0.254,-5.337
0.146,0.057,0.254,-5.337
0.212,0.057,0.250,-5.337
0.257,0.057,0.248,-5.337
0.207,0.058,0.252,-5.337
0.164,0.055,0.255,-5.337
0.175,0.052,0.256,-5.337
0.152,0.054,0.253,-5.337
0.114,0.059,0.253,-5.337
0.072,0.062,0.252,-5.337
0.181,0.059,0.251,-5.337
0.244,0.057,0.250,-5.337
0.222,0.057,0.252,-5.337
0.237,0.057,0.255,-5.337
0.189,0.060,0.254,-5.337
0.173,0.058,0.251,-5.337
0.232,0.057,0.252,-5.337
0.181,0.056,0.252,-5.337
0.179,0.055,0.250,-5.337
0.266,0.051,0.252,-5.337
0.307,0.055,0.253,-5.337
0.242,0.059,0.250,-5.337
0.249,0.060,0.247,-5.337
0.258,0.058,0.245,-5.337
0.231,0.059,0.245,-5.337
0.120,0.062,0.249,-5.337
0.101,0.062,0.256,-5.337
0.119,0.060,0.255,-5.337
0.191,0.057,0.251,-5.337
0.227,0.056,0.249,-5.337
0.188,0.058,0.248,-5.337
0.093,0.061,0.248,-5.337
0.111,0.058,0.250,-5.337
0.155,0.056,0.255,-5.337
0.200,0.059,0.255,-5.337
0.274,0.058,0.253,-5.337
0.249,0.060,0.249,-5.337
0.168,0.063,0.250,-5.337
0.136,0.064,0.253,-5.337
0.199,0.067,0.253,-5.337
0.243,0.063,0.249,-5.337
0.198,0.064,0.252,-5.337
0.111,0.064,0.254,-5.337
0.084,0.065,0.250,-5.337
0.187,0.059,0.246,-5.337
0.243,0.062,0.243,-5.337
0.168,0.064,0.246,-5.337
0.150,0.065,0.246,-5.337
0.145,0.068,0.247,-5.337
0.183,0.068,0.250,-5.337
0.273,0.062,0.251,-5.337
0.312,0.061,0.251,-5.337
0.235,0.061,0.254,-5.337
0.151,0.059,0.253,-5.337
0.165,0.056,0.250,-5.337
0.224,0.056,0.252,-5.337
0.185,0.057,0.252,-5.337
0.134,0.060,0.250,-5.337
0.154,0.062,0.249,-5.337
0.196,0.060,0.249,-5.337
0.187,0.058,0.248,-5.337
0.188,0.057,0.248,-5.337
0.241,0.058,0.250,-5.337
0.258,0.060,0.251,-5.337
0.196,0.059,0.254,-5.337
0.198,0.058,0.254,-5.337
0.222,0.062,0.251,-5.337
0.223,0.060,0.247,-5.337
0.208,0.062,0.249,-5.337
0.254,0.057,0.253,-5.337
0.257,0.058,0.253,-5.337
0.171,0.060,0.254,-5.337
0.114,0.059,0.252,-5.337
0.204,0.056,0.249,-5.337
0.300,0.057,0.247,-5.337
0.291,0.060,0.247,-5.337
0.214,0.063,0.249,-5.337
0.197,0.061,0.249,-5.337
0.212,0.059,0.249,-5.337
0.157,0.062,0.253,-5.337
0.073,0.065,0.252,-5.337
0.138,0.065,0.250,-5.337
0.179,0.068,0.248,-5.337
0.208,0.064,0.248,-5.337
0.275,0.061,0.247,-5.337
0.257,0.063,0.249,-5.337
0.167,0.066,0.251,-5.337
0.182,0.061,0.251,-5.337
0.241,0.056,0.249,-5.337
0.251,0.056,0.250,-5.337
0.217,0.062,0.250,-5.337
0.245,0.062,0.253,-5.337
0.276,0.056,0.251,-5.337
0.204,0.063,0.249,-5.337
0.217,0.064,0.249,-5.337
0.328,0.062,0.251,-5.337
0.295,0.061,0.251,-5.337
0.202,0.065,0.252,-5.337
0.197,0.068,0.254,-5.337
0.204,0.069,0.252,-5.337
0.182,0.065,0.250,-5.337
0.151,0.067,0.250,-5.337
0.189,0.066,0.251,-5.337
0.244,0.065,0.250,-5.337
0.235,0.063,0.248,-5.337
0.215,0.062,0.250,-5.337
0.186,0.065,0.250,-5.337
0.169,0.065,0.246,-5.337
0.173,0.062,0.244,-5.337
0.190,0.060,0.246,-5.337
0.193,0.062,0.249,-5.337
0.157,0.063,0.251,-5.337
0.187,0.063,0.249,-5.337
0.220,0.064,0.247,-5.337
0.210,0.065,0.249,-5.337
0.245,0.063,0.251,-5.337
0.270,0.062,0.252,-5.337
0.187,0.064,0.249,-5.337
0.163,0.066,0.249,-5.337
0.205,0.062,0.251,-5.337
0.237,0.062,0.250,-5.337
0.252,0.064,0.252,-5.337
0.233,0.066,0.253,-5.337
0.157,0.067,0.250,-5.337
0.158,0.064,0.248,-5.337
0.231,0.068,0.254,-5.337
0.218,0.069,0.257,-5.337
0.204,0.063,0.254,-5.337
0.200,0.062,0.250,-5.337
0.210,0.063,0.249,-5.337
0.217,0.067,0.246,-5.337
0.284,0.066,0.248,-5.337
0.292,0.065,0.250,-5.337
0.247,0.064,0.253,-5.337
0.231,0.066,0.253,-5.337
0.262,0.064,0.253,-5.337
0.267,0.063,0.252,-5.337
0.263,0.066,0.250,-5.337
0.266,0.067,0.244,-5.337
0.221,0.065,0.245,-5.337
0.154,0.064,0.245,-5.337
0.185,0.065,0.247,-5.337
0.167,0.064,0.252,-5.337
0.141,0.068,0.252,-5.337
0.182,0.070,0.252,-5.337
0.200,0.069,0.254,-5.337
0.240,0.063,0.253,-5.337
0.265,0.066,0.251,-5.337
0.261,0.066,0.251,-5.337
0.234,0.067,0.248,-5.337
0.181,0.068,0.245,-5.337
0.191,0.069,0.246,-5.337
0.193,0.071,0.251,-5.337
0.148,0.069,0.253,-5.337
0.169,0.067,0.253,-5.337
0.216,0.067,0.250,-5.337
0.192,0.069,0.250,-5.337
0.192,0.069,0.249,-5.337
0.185,0.072,0.252,-5.337
0.182,0.072,0.251,-5.337
0.232,0.071,0.249,-5.337
0.259,0.072,0.248,-5.337
0.252,0.069,0.252,-5.337
0.217,0.069,0.254,-5.337
0.165,0.068,0.255,-5.337
0.217,0.065,0.250,-5.337
0.276,0.066,0.246,-5.337
0.211,0.064,0.244,-5.337
0.133,0.065,0.247,-5.337
0.180,0.062,0.251,-5.337
0.246,0.061,0.253,-5.337
0.230,0.063,0.253,-5.337
0.192,0.062,0.251,-5.337
0.263,0.061,0.248,-5.337
0.254,0.065,0.251,-5.337
0.149,0.066,0.252,-5.337
0.115,0.065,0.255,-5.337
0.244,0.065,0.255,-5.337
0.263,0.065,0.252,-5.337
0.213,0.064,0.250,-5.337
0.254,0.061,0.249,-5.337
0.268,0.063,0.251,-5.337
0.175,0.069,0.253,-5.337
0.090,0.067,0.254,-5.337
0.151,0.066,0.251,-5.337
0.188,0.064,0.252,-5.337
0.180,0.061,0.254,-5.337
0.254,0.059,0.256,-5.337
0.296,0.060,0.252,-5.337
0.245,0.063,0.247,-5.337
0.173,0.062,0.249,-5.337
0.184,0.058,0.250,-5.337
0.260,0.056,0.248,-5.337
0.236,0.062,0.247,-5.337
0.175,0.064,0.249,-5.337
0.167,0.065,0.253,-5.337
0.210,0.059,0.254,-5.337
0.208,0.056,0.249,-5.337
0.165,0.060,0.245,-5.337
0.221,0.063,0.245,-5.337
0.220,0.060,0.246,-5.337
0.222,0.059,0.249,-5.337
0.217,0.062,0.251,-5.337
0.185,0.061,0.252,-5.337
0.232,0.060,0.252,-5.337
0.266,0.059,0.255,-5.337
0.250,0.060,0.255,-5.337
0.213,0.060,0.248,-5.337
0.143,0.060,0.244,-5.337
0.117,0.061,0.248,-5.337
0.164,0.061,0.249,-5.337
0.175,0.060,0.248,-5.337
0.190,0.059,0.249,-5.337
0.180,0.056,0.251,-5.337
0.184,0.057,0.254,-5.337
0.211,0.058,0.253,-5.337
0.176,0.055,0.255,-5.337
0.205,0.054,0.254,-5.337
0.245,0.055,0.253,-5.337
0.242,0.053,0.250,-5.337
0.209,0.053,0.249,-5.337
0.251,0.055,0.250,-5.337
0.279,0.055,0.250,-5.337
0.245,0.056,0.249,-5.337
0.202,0.057,0.252,-5.337
0.237,0.058,0.254,-5.337
0.220,0.060,0.257,-5.337
0.203,0.056,0.252,-5.337
0.197,0.055,0.247,-5.337
0.210,0.051,0.248,-5.337
0.167,0.055,0.253,-5.337
0.160,0.058,0.257,-5.337
0.214,0.059,0.254,-5.337
0.210,0.057,0.247,-5.337
0.201,0.055,0.244,-5.337
0.225,0.054,0.248,-5.337
0.192,0.052,0.252,-5.337
0.155,0.057,0.257,-5.337
0.138,0.059,0.257,-5.337
0.148,0.060,0.257,-5.337
0.132,0.059,0.253,-5.337
0.164,0.056,0.254,-5.337
0.184,0.052,0.255,-5.337
0.215,0.051,0.257,-5.337
0.273,0.049,0.256,-5.337
0.304,0.049,0.253,-5.337
0.242,0.048,0.248,-5.337
0.168,0.050,0.247,-5.337
0.146,0.051,0.248,-5.337
0.192,0.051,0.250,-5.337
0.158,0.053,0.249,-5.337
0.146,0.052,0.249,-5.337
0.162,0.051,0.250,-5.337
0.181,0.048,0.252,-5.337
0.189,0.048,0.255,-5.337
0.182,0.050,0.251,-5.337
0.217,0.047,0.249,-5.337
0.230,0.048,0.250,-5.337
0.172,0.050,0.254,-5.337
0.131,0.050,0.251,-5.337
0.154,0.048,0.250,-5.337
0.215,0.046,0.248,-5.337
0.224,0.044,0.253,-5.337
0.211,0.045,0.256,-5.337
0.205,0.046,0.256,-5.337
0.248,0.042,0.252,-5.337
0.328,0.043,0.250,-5.337
0.291,0.043,0.250,-5.337
0.202,0.046,0.249,-5.337
0.139,0.045,0.249,-5.337
0.128,0.045,0.251,-5.337
0.151,0.047,0.255,-5.337
0.152,0.048,0.254,-5.337
0.167,0.044,0.250,-5.337
0.231,0.040,0.252,-5.337
0.270,0.042,0.255,-5.337
0.207,0.046,0.255,-5.337
0.173,0.047,0.251,-5.337
0.142,0.048,0.248,-5.337
0.130,0.046,0.251,-5.337
0.193,0.042,0.255,-5.337
0.255,0.041,0.258,-5.337
0.213,0.044,0.253,-5.337
0.182,0.047,0.250,-5.337
0.161,0.047,0.247,-5.337
0.155,0.045,0.249,-5.337
0.169,0.042,0.250,-5.337
0.171,0.045,0.251,-5.337
0.089,0.051,0.252,-5.337
0.075,0.049,0.254,-5.337
0.177,0.041,0.249,-5.337
0.222,0.047,0.249,-5.337
0.196,0.049,0.249,-5.337
0.215,0.046,0.247,-5.337
0.185,0.043,0.246,-5.337
0.180,0.044,0.251,-5.337
0.201,0.043,0.255,-5.337
0.237,0.044,0.257,-5.337
0.206,0.042,0.255,-5.337
0.160,0.042,0.252,-5.337
0.162,0.041,0.252,-5.337
0.106,0.039,0.251,-5.337
0.079,0.042,0.248,-5.337
0.058,0.046,0.249,-5.337
0.050,0.046,0.248,-5.337
0.187,0.042,0.244,-5.337
0.211,0.043,0.244,-5.337
0.187,0.042,0.248,-5.337
0.199,0.039,0.254,-5.337
0.189,0.040,0.254,-5.337
0.128,0.038,0.253,-5.337
0.134,0.041,0.251,-5.337
0.173,0.045,0.249,-5.337
0.238,0.042,0.252,-5.337
0.188,0.043,0.256,-5.337
0.107,0.041,0.252,-5.337
0.216,0.039,0.248,-5.337
0.328,0.040,0.245,-5.337
0.347,0.037,0.247,-5.337
0.289,0.037,0.249,-5.337
0.243,0.038,0.249,-5.337
0.202,0.041,0.250,-5.337
0.120,0.045,0.250,-5.337
0.181,0.043,0.248,-5.337
0.283,0.039,0.250,-5.337
0.282,0.040,0.250,-5.337
0.220,0.041,0.249,-5.337
0.188,0.043,0.250,-5.337
0.128,0.048,0.249,-5.337
0.103,0.046,0.248,-5.337
0.119,0.048,0.250,-5.337
0.184,0.044,0.251,-5.337
0.171,0.044,0.251,-5.337
0.192,0.043,0.251,-5.337
0.198,0.044,0.250,-5.337
0.151,0.047,0.249,-5.337
0.114,0.049,0.250,-5.337
0.207,0.043,0.250,-5.337
0.268,0.044,0.249,-5.337
0.180,0.046,0.249,-5.337
0.155,0.047,0.247,-5.337
0.175,0.047,0.249,-5.337
0.148,0.047,0.252,-5.337
0.122,0.048,0.253,-5.337
0.173,0.046,0.252,-5.337
0.194,0.047,0.251,-5.337
0.219,0.047,0.249,-5.337
0.239,0.047,0.250,-5.337
0.224,0.045,0.249,-5.337
0.183,0.044,0.247,-5.337
0.175,0.045,0.249,-5.337
0.181,0.044,0.253,-5.337
0.155,0.043,0.254,-5.337
0.203,0.042,0.255,-5.337
0.201,0.042,0.252,-5.337
0.206,0.041,0.246,-5.337
0.255,0.041,0.246,-5.337
0.233,0.042,0.250,-5.337
0.188,0.043,0.254,-5.337
0.195,0.043,0.254,-5.337
0.199,0.042,0.253,-5.337
0.232,0.041,0.245,-5.337
0.273,0.039,0.245,-5.337
0.253,0.040,0.249,-5.337
0.177,0.042,0.253,-5.337
0.171,0.041,0.252,-5.337
0.172,0.041,0.252,-5.337
0.145,0.042,0.252,-5.337
0.162,0.045,0.253,-5.337
0.178,0.041,0.251,-5.337
0.171,0.037,0.249,-5.337
0.235,0.034,0.247,-5.337
0.247,0.036,0.246,-5.337
0.242,0.036,0.250,-5.337
0.249,0.036,0.252,-5.337
0.205,0.039,0.254,-5.337
0.187,0.039,0.256,-5.337
0.135,0.039,0.252,-5.337
0.120,0.042,0.246,-5.337
0.189,0.043,0.243,-5.337
0.155,0.043,0.247,-5.337
0.106,0.047,0.251,-5.337
0.092,0.048,0.249,-5.337
0.199,0.046,0.251,-5.337
0.233,0.045,0.253,-5.337
0.210,0.045,0.254,-5.337
0.170,0.045,0.253,-5.337
0.169,0.048,0.254,-5.337
0.130,0.044,0.254,-5.337
0.155,0.043,0.252,-5.337
0.276,0.038,0.248,-5.337
0.278,0.039,0.247,-5.337
0.178,0.042,0.250,-5.337
0.127,0.043,0.250,-5.337
0.188,0.038,0.248,-5.337
0.263,0.041,0.250,-5.337
0.256,0.041,0.254,-5.337
0.242,0.039,0.255,-5.337
0.204,0.040,0.252,-5.337
0.154,0.040,0.246,-5.337
0.159,0.039,0.246,-5.337
0.183,0.041,0.251,-5.337
0.174,0.041,0.253,-5.337
0.166,0.041,0.253,-5.337
0.176,0.043,0.251,-5.337
0.164,0.042,0.248,-5.337
0.145,0.043,0.251,-5.337
0.154,0.042,0.250,-5.337
0.135,0.043,0.249,-5.337
0.119,0.042,0.246,-5.337
0.149,0.040,0.247,-5.337
0.219,0.040,0.247,-5.337
0.263,0.042,0.251,-5.337
0.151,0.042,0.255,-5.337
0.052,0.044,0.255,-5.337
0.073,0.041,0.251,-5.337
0.153,0.041,0.250,-5.337
0.157,0.040,0.252,-5.337
0.088,0.043,0.251,-5.337
0.129,0.044,0.252,-5.337
0.197,0.042,0.252,-5.337
0.226,0.041,0.251,-5.337
0.163,0.043,0.254,-5.337
0.154,0.039,0.250,-5.337
0.211,0.039,0.246,-5.337
0.240,0.043,0.245,-5.337
0.201,0.044,0.246,-5.337
0.158,0.044,0.248,-5.337
0.189,0.042,0.248,-5.337
0.181,0.042,0.248,-5.337
0.162,0.044,0.250,-5.337
0.239,0.044,0.256,-5.337
0.265,0.045,0.255,-5.337
0.233,0.043,0.255,-5.337
0.227,0.040,0.253,-5.337
0.213,0.040,0.248,-5.337
0.244,0.038,0.243,-5.337
0.244,0.039,0.242,-5.337
0.211,0.040,0.245,-5.337
0.212,0.041,0.248,-5.337
0.168,0.042,0.252,-5.337
0.136,0.045,0.253,-5.337
0.103,0.046,0.249,-5.337
0.164,0.047,0.249,-5.337
0.256,0.048,0.253,-5.337
0.257,0.048,0.255,-5.337
0.217,0.048,0.252,-5.337
0.214,0.050,0.248,-5.337
0.187,0.046,0.248,-5.337
0.186,0.046,0.249,-5.337
0.190,0.048,0.248,-5.337
0.198,0.047,0.250,-5.337
0.197,0.048,0.254,-5.337
0.222,0.044,0.254,-5.337
0.212,0.043,0.252,-5.337
0.127,0.046,0.250,-5.337
0.022,0.048,0.251,-5.337
0.038,0.051,0.253,-5.337
0.116,0.047,0.250,-5.337
0.169,0.046,0.246,-5.337
0.204,0.046,0.248,-5.337
0.192,0.051,0.249,-5.337
0.221,0.051,0.250,-5.337
0.187,0.050,0.249,-5.337
0.135,0.052,0.251,-5.337
0.144,0.049,0.254,-5.337
0.234,0.045,0.255,-5.337
0.263,0.043,0.253,-5.337
0.208,0.046,0.252,-5.337
0.173,0.049,0.251,-5.337
0.190,0.049,0.251,-5.337
0.270,0.044,0.250,-5.337
0.262,0.040,0.249,-5.337
0.255,0.042,0.249,-5.337
0.210,0.047,0.252,-5.337
0.102,0.052,0.254,-5.337
0.139,0.050,0.254,-5.337
0.179,0.048,0.254,-5.337
0.191,0.049,0.256,-5.337
0.234,0.046,0.256,-5.337
0.256,0.045,0.252,-5.337
0.246,0.048,0.250,-5.337
0.203,0.052,0.249,-5.337
0.201,0.050,0.250,-5.337
0.268,0.048,0.249,-5.337
0.263,0.048,0.250,-5.337
0.248,0.049,0.249,-5.337
0.181,0.056,0.251,-5.337
0.158,0.052,0.252,-5.337
0.140,0.051,0.258,-5.337
0.129,0.053,0.257,-5.337
0.130,0.055,0.254,-5.337
0.145,0.054,0.249,-5.337
0.224,0.052,0.248,-5.337
0.216,0.050,0.249,-5.337
0.173,0.053,0.253,-5.337
0.192,0.054,0.254,-5.337
0.210,0.051,0.253,-5.337
0.199,0.051,0.253,-5.337
0.173,0.052,0.254,-5.337
0.174,0.051,0.252,-5.337
0.150,0.051,0.249,-5.337
0.133,0.053,0.248,-5.337
0.133,0.053,0.248,-5.337
0.143,0.050,0.250,-5.337
0.190,0.052,0.254,-5.337
0.208,0.051,0.257,-5.337
0.196,0.050,0.256,-5.337
0.183,0.054,0.254,-5.337
0.243,0.052,0.253,-5.337
0.178,0.051,0.255,-5.337
0.159,0.052,0.256,-5.337
0.205,0.054,0.255,-5.337
0.218,0.050,0.251,-5.337
0.182,0.055,0.249,-5.337
0.226,0.053,0.251,-5.337
0.246,0.054,0.253,-5.337
0.158,0.054,0.252,-5.337
0.116,0.055,0.251,-5.337
0.134,0.054,0.253,-5.337
0.181,0.052,0.255,-5.337
0.174,0.052,0.253,-5.337
0.167,0.054,0.251,-5.337
0.147,0.057,0.251,-5.337
0.137,0.056,0.253,-5.337
0.213,0.053,0.254,-5.337
0.208,0.053,0.252,-5.337
0.198,0.053,0.250,-5.337
0.155,0.054,0.250,-5.337
0.115,0.056,0.253,-5.337
0.135,0.056,0.253,-5.337
0.173,0.058,0.254,-5.337
0.159,0.058,0.252,-5.337
0.182,0.055,0.251,-5.337
0.173,0.055,0.252,-5.337
0.183,0.056,0.255,-5.337
0.196,0.055,0.254,-5.337
0.247,0.054,0.253,-5.337
0.223,0.054,0.253,-5.337
0.203,0.056,0.253,-5.337
0.223,0.054,0.250,-5.337
0.221,0.055,0.250,-5.337
0.194,0.051,0.252,-5.337
0.107,0.054,0.255,-5.337
0.126,0.051,0.259,-5.337
0.194,0.054,0.258,-5.337
0.223,0.054,0.255,-5.337
0.235,0.053,0.257,-5.337
0.257,0.057,0.256,-5.337
0.225,0.060,0.253,-5.337
0.204,0.062,0.248,-5.337
0.190,0.062,0.246,-5.337
0.167,0.063,0.247,-5.337
0.178,0.062,0.249,-5.337
0.206,0.061,0.254,-5.337
0.212,0.060,0.253,-5.337
0.222,0.060,0.248,-5.337
0.213,0.063,0.245,-5.337
0.170,0.062,0.250,-5.337
0.120,0.061,0.255,-5.337
0.175,0.060,0.255,-5.337
0.244,0.060,0.252,-5.337
0.254,0.064,0.252,-5.337
0.244,0.061,0.254,-5.337
0.284,0.060,0.255,-5.337
0.251,0.063,0.254,-5.337
0.201,0.063,0.253,-5.337
0.144,0.059,0.252,-5.337
0.192,0.058,0.250,-5.337
0.175,0.061,0.246,-5.337
0.183,0.061,0.246,-5.337
0.204,0.056,0.248,-5.337
0.194,0.058,0.250,-5.337
0.157,0.060,0.250,-5.337
0.121,0.063,0.251,-5.337
0.157,0.063,0.250,-5.337
0.225,0.061,0.248,-5.337
0.224,0.059,0.249,-5.337
0.193,0.057,0.251,-5.337
0.188,0.055,0.248,-5.337
0.230,0.054,0.247,-5.337
0.225,0.054,0.250,-5.337
0.257,0.053,0.253,-5.337
0.255,0.055,0.256,-5.337
0.270,0.054,0.258,-5.337
0.261,0.055,0.253,-5.337
0.194,0.064,0.246,-5.337
0.208,0.063,0.246,-5.337
0.232,0.059,0.250,-5.337
0.217,0.060,0.253,-5.337
0.194,0.063,0.250,-5.337
0.166,0.065,0.248,-5.337
0.167,0.065,0.247,-5.337
0.180,0.066,0.251,-5.337
0.212,0.063,0.255,-5.337
0.255,0.062,0.255,-5.337
0.193,0.065,0.252,-5.337
0.170,0.063,0.247,-5.337
0.194,0.059,0.246,-5.337
0.155,0.057,0.248,-5.337
0.159,0.058,0.252,-5.337
0.210,0.061,0.252,-5.337
0.205,0.067,0.252,-5.337
0.166,0.065,0.252,-5.337
0.228,0.057,0.250,-5.337
0.252,0.059,0.250,-5.337
0.225,0.065,0.251,-5.337
0.191,0.063,0.249,-5.337
0.131,0.062,0.245,-5.337
0.193,0.061,0.245,-5.337
0.278,0.063,0.253,-5.337
0.328,0.062,0.255,-5.337
0.278,0.061,0.254,-5.337
0.178,0.063,0.252,-5.337
0.161,0.063,0.251,-5.337
0.212,0.062,0.249,-5.337
0.177,0.066,0.251,-5.337
0.242,0.064,0.252,-5.337
0.305,0.063,0.250,-5.337
0.244,0.066,0.248,-5.337
0.155,0.069,0.250,-5.337
0.151,0.068,0.251,-5.337
0.222,0.063,0.253,-5.337
0.242,0.061,0.253,-5.337
0.200,0.062,0.251,-5.337
0.225,0.058,0.249,-5.337
0.223,0.059,0.250,-5.337
0.205,0.061,0.250,-5.337
0.191,0.062,0.248,-5.337
0.224,0.065,0.251,-5.337
0.238,0.064,0.252,-5.337
0.234,0.063,0.251,-5.337
0.142,0.064,0.250,-5.337
0.130,0.062,0.252,-5.337
0.148,0.062,0.253,-5.337
0.085,0.066,0.253,-5.337
0.110,0.066,0.249,-5.337
0.183,0.068,0.251,-5.337
0.165,0.068,0.251,-5.337
0.142,0.064,0.248,-5.337
0.138,0.065,0.243,-5.337
0.147,0.067,0.243,-5.337
0.217,0.065,0.243,-5.337
0.270,0.066,0.248,-5.337
0.228,0.066,0.255,-5.337
0.200,0.064,0.258,-5.337
0.253,0.063,0.256,-5.337
0.265,0.063,0.252,-5.337
0.302,0.062,0.248,-5.337
0.278,0.066,0.246,-5.337
0.199,0.064,0.247,-5.337
0.160,0.063,0.253,-5.337
0.228,0.060,0.253,-5.337
0.308,0.061,0.248,-5.337
0.229,0.062,0.250,-5.337
0.138,0.064,0.252,-5.337
0.140,0.063,0.252,-5.337
0.147,0.065,0.252,-5.337
0.128,0.064,0.251,-5.337
0.176,0.063,0.249,-5.337
0.210,0.060,0.252,-5.337
0.223,0.057,0.251,-5.337
0.197,0.060,0.249,-5.337
0.259,0.058,0.247,-5.337
0.270,0.057,0.251,-5.337
0.286,0.057,0.252,-5.337
0.249,0.060,0.251,-5.337
0.128,0.061,0.251,-5.337
0.138,0.061,0.246,-5.337
0.241,0.056,0.245,-5.337
0.271,0.058,0.247,-5.337
0.168,0.060,0.249,-5.337
0.101,0.058,0.253,-5.337
0.195,0.054,0.255,-5.337
0.224,0.053,0.252,-5.337
0.139,0.054,0.247,-5.337
0.129,0.052,0.244,-5.337
0.205,0.055,0.248,-5.337
0.199,0.063,0.251,-5.337
0.210,0.060,0.250,-5.337
0.228,0.054,0.250,-5.337
0.206,0.056,0.248,-5.337
0.195,0.056,0.249,-5.337
0.234,0.058,0.254,-5.337
0.271,0.056,0.254,-5.337
0.272,0.055,0.250,-5.337
0.239,0.055,0.247,-5.337
0.227,0.057,0.250,-5.337
0.219,0.055,0.253,-5.337
0.194,0.054,0.255,-5.337
0.217,0.052,0.251,-5.337
0.251,0.053,0.249,-5.337
0.230,0.050,0.246,-5.337
0.200,0.050,0.245,-5.337
0.182,0.053,0.246,-5.337
0.161,0.054,0.249,-5.337
0.111,0.052,0.250,-5.337
0.160,0.055,0.248,-5.337
0.214,0.052,0.249,-5.337
0.189,0.056,0.249,-5.337
0.127,0.059,0.248,-5.337
0.138,0.058,0.250,-5.337
0.169,0.056,0.252,-5.337
0.200,0.055,0.254,-5.337
0.223,0.056,0.253,-5.337
0.243,0.057,0.250,-5.337
0.239,0.056,0.250,-5.337
0.220,0.057,0.250,-5.337
0.181,0.057,0.253,-5.337
0.162,0.056,0.254,-5.337
0.192,0.055,0.251,-5.337
0.196,0.053,0.248,-5.337
0.068,0.058,0.250,-5.337
0.092,0.055,0.248,-5.337
0.177,0.053,0.249,-5.337
0.152,0.052,0.250,-5.337
0.143,0.056,0.247,-5.337
0.175,0.056,0.246,-5.337
0.142,0.056,0.250,-5.337
0.169,0.054,0.252,-5.337
0.197,0.054,0.251,-5.337
0.174,0.054,0.249,-5.337
0.210,0.056,0.249,-5.337
0.214,0.052,0.249,-5.337
0.175,0.053,0.252,-5.337
0.226,0.053,0.251,-5.337
0.238,0.054,0.250,-5.337
0.188,0.053,0.247,-5.337
0.178,0.053,0.246,-5.337
0.135,0.053,0.250,-5.337
0.132,0.054,0.248,-5.337
0.154,0.057,0.247,-5.337
0.186,0.057,0.251,-5.337
0.225,0.054,0.255,-5.337
0.195,0.054,0.256,-5.337
0.179,0.055,0.255,-5.337
0.134,0.054,0.248,-5.337
0.126,0.054,0.250,-5.337
0.149,0.053,0.253,-5.337
0.196,0.052,0.252,-5.337
0.210,0.051,0.247,-5.337
0.221,0.049,0.249,-5.337
0.270,0.047,0.249,-5.337
0.278,0.051,0.248,-5.337
0.209,0.051,0.252,-5.337
0.158,0.049,0.254,-5.337
0.173,0.048,0.256,-5.337
0.210,0.045,0.255,-5.337
0.179,0.045,0.253,-5.337
0.178,0.047,0.249,-5.337
0.194,0.045,0.245,-5.337
0.266,0.042,0.246,-5.337
0.277,0.046,0.252,-5.337
0.142,0.050,0.254,-5.337
0.105,0.051,0.252,-5.337
0.165,0.047,0.250,-5.337
0.239,0.047,0.251,-5.337
0.293,0.045,0.250,-5.337
0.233,0.045,0.249,-5.337
0.213,0.048,0.251,-5.337
0.181,0.047,0.253,-5.337
0.170,0.048,0.249,-5.337
0.131,0.052,0.248,-5.337
0.151,0.052,0.250,-5.337
0.229,0.051,0.255,-5.337
0.207,0.049,0.257,-5.337
0.099,0.050,0.259,-5.337
0.156,0.047,0.253,-5.337
0.250,0.043,0.247,-5.337
0.237,0.043,0.246,-5.337
0.196,0.047,0.248,-5.337
0.149,0.049,0.250,-5.337
0.144,0.050,0.258,-5.337
0.148,0.048,0.262,-5.337
0.146,0.046,0.258,-5.337
0.146,0.044,0.252,-5.337
0.201,0.044,0.249,-5.337
0.247,0.044,0.250,-5.337
0.238,0.048,0.249,-5.337
0.226,0.048,0.249,-5.337
0.189,0.048,0.248,-5.337
0.188,0.047,0.250,-5.337
0.150,0.047,0.251,-5.337
0.049,0.045,0.253,-5.337
0.086,0.041,0.255,-5.337
0.162,0.043,0.255,-5.337
0.213,0.047,0.253,-5.337
0.166,0.046,0.254,-5.337
0.173,0.042,0.253,-5.337
0.257,0.042,0.251,-5.337
0.209,0.045,0.249,-5.337
0.213,0.045,0.249,-5.337
0.199,0.042,0.249,-5.337
0.182,0.041,0.251,-5.337
0.179,0.044,0.253,-5.337
0.116,0.045,0.253,-5.337
0.113,0.041,0.253,-5.337
0.131,0.039,0.250,-5.337
0.102,0.043,0.250,-5.337
0.108,0.043,0.253,-5.337
0.139,0.038,0.255,-5.337
0.188,0.035,0.257,-5.337
0.239,0.034,0.257,-5.337
0.217,0.038,0.254,-5.337
0.200,0.038,0.253,-5.337
0.177,0.040,0.252,-5.337
0.179,0.041,0.256,-5.337
0.201,0.041,0.259,-5.337
0.251,0.037,0.259,-5.337
0.215,0.038,0.253,-5.337
0.136,0.043,0.249,-5.337
0.164,0.040,0.243,-5.337
0.240,0.040,0.243,-5.337
0.228,0.044,0.246,-5.337
0.219,0.044,0.253,-5.337
0.233,0.048,0.254,-5.337
0.159,0.042,0.252,-5.337
0.140,0.039,0.251,-5.337
0.102,0.041,0.254,-5.337
0.120,0.041,0.253,-5.337
0.126,0.040,0.250,-5.337
0.192,0.039,0.245,-5.337
0.227,0.040,0.245,-5.337
0.182,0.040,0.253,-5.337
0.149,0.042,0.257,-5.337
0.227,0.043,0.258,-5.337
0.233,0.044,0.258,-5.337
0.227,0.041,0.256,-5.337
0.257,0.038,0.252,-5.337
0.208,0.039,0.250,-5.337
0.137,0.042,0.248,-5.337
0.133,0.040,0.249,-5.337
0.177,0.038,0.253,-5.337
0.155,0.038,0.256,-5.337
0.176,0.039,0.253,-5.337
0.149,0.038,0.250,-5.337
0.189,0.038,0.253,-5.337
0.177,0.040,0.255,-5.337
0.142,0.041,0.251,-5.337
0.222,0.041,0.246,-5.337
0.262,0.039,0.244,-5.337
0.251,0.039,0.249,-5.337
0.215,0.037,0.251,-5.337
0.171,0.038,0.252,-5.337
0.128,0.041,0.253,-5.337
0.122,0.040,0.254,-5.337
0.170,0.035,0.253,-5.337
0.205,0.037,0.254,-5.337
0.240,0.038,0.253,-5.337
0.218,0.038,0.248,-5.337
0.219,0.040,0.243,-5.337
0.210,0.040,0.244,-5.337
0.173,0.042,0.248,-5.337
0.180,0.038,0.251,-5.337
0.208,0.034,0.253,-5.337
0.234,0.036,0.250,-5.337
0.220,0.041,0.251,-5.337
0.134,0.044,0.255,-5.337
0.041,0.040,0.257,-5.337
0.087,0.040,0.256,-5.337
0.170,0.040,0.254,-5.337
0.240,0.042,0.246,-5.337
0.176,0.043,0.244,-5.337
0.154,0.043,0.246,-5.337
0.198,0.042,0.250,-5.337
0.194,0.042,0.252,-5.337
0.248,0.041,0.254,-5.337
0.253,0.043,0.254,-5.337
0.210,0.039,0.252,-5.337
0.209,0.040,0.253,-5.337
0.217,0.040,0.254,-5.337
0.245,0.037,0.251,-5.337
0.211,0.040,0.249,-5.337
0.097,0.042,0.248,-5.337
0.104,0.043,0.250,-5.337
0.143,0.042,0.254,-5.337
0.255,0.041,0.252,-5.337
0.223,0.042,0.249,-5.337
0.172,0.044,0.248,-5.337
0.208,0.044,0.249,-5.337
0.203,0.041,0.252,-5.337
0.226,0.041,0.254,-5.337
0.242,0.039,0.249,-5.337
0.196,0.037,0.249,-5.337
0.140,0.036,0.251,-5.337
0.138,0.037,0.253,-5.337
0.185,0.037,0.252,-5.337
0.205,0.035,0.253,-5.337
0.186,0.038,0.250,-5.337
0.180,0.043,0.248,-5.337
0.250,0.044,0.250,-5.337
0.209,0.044,0.253,-5.337
0.170,0.040,0.252,-5.337
0.161,0.040,0.254,-5.337
0.192,0.038,0.256,-5.337
0.236,0.037,0.258,-5.337
0.218,0.039,0.255,-5.337
0.208,0.040,0.250,-5.337
0.239,0.035,0.247,-5.337
0.226,0.036,0.251,-5.337
0.203,0.040,0.254,-5.337
0.110,0.042,0.252,-5.337
0.079,0.040,0.249,-5.337
0.106,0.042,0.247,-5.337
0.204,0.042,0.247,-5.337
0.215,0.042,0.250,-5.337
0.152,0.040,0.253,-5.337
0.171,0.038,0.252,-5.337
0.191,0.043,0.249,-5.337
0.230,0.041,0.247,-5.337
0.229,0.042,0.247,-5.337
0.167,0.042,0.246,-5.337
0.147,0.040,0.247,-5.337
0.139,0.035,0.249,-5.337
0.140,0.037,0.251,-5.337
0.164,0.040,0.252,-5.337
0.100,0.046,0.253,-5.337
0.070,0.041,0.253,-5.337
0.189,0.037,0.252,-5.337
0.249,0.037,0.250,-5.337
0.249,0.038,0.246,-5.337
0.156,0.040,0.246,-5.337
0.190,0.043,0.249,-5.337
0.268,0.044,0.254,-5.337
0.250,0.042,0.256,-5.337
0.253,0.043,0.253,-5.337
0.251,0.048,0.250,-5.337
0.240,0.047,0.247,-5.337
0.183,0.046,0.245,-5.337
0.211,0.040,0.250,-5.337
0.233,0.041,0.253,-5.337
0.181,0.044,0.255,-5.337
0.111,0.044,0.251,-5.337
0.147,0.044,0.249,-5.337
0.164,0.047,0.249,-5.337
0.162,0.049,0.252,-5.337
0.109,0.046,0.249,-5.337
0.107,0.042,0.250,-5.337
0.136,0.042,0.250,-5.337
0.138,0.044,0.250,-5.337
0.186,0.042,0.248,-5.337
0.267,0.039,0.248,-5.337
0.222,0.040,0.251,-5.337
0.127,0.044,0.253,-5.337
0.151,0.044,0.255,-5.337
0.225,0.044,0.256,-5.337
0.224,0.043,0.256,-5.337
0.156,0.043,0.256,-5.337
0.096,0.045,0.253,-5.337
0.122,0.044,0.248,-5.337
0.176,0.044,0.249,-5.337
0.227,0.045,0.248,-5.337
0.163,0.046,0.250,-5.337
0.122,0.047,0.252,-5.337
0.158,0.050,0.252,-5.337
0.199,0.046,0.250,-5.337
0.241,0.043,0.253,-5.337
0.266,0.044,0.255,-5.337
0.289,0.042,0.253,-5.337
0.240,0.046,0.250,-5.337
0.106,0.049,0.250,-5.337
0.132,0.045,0.247,-5.337
0.182,0.042,0.245,-5.337
0.195,0.039,0.248,-5.337
0.206,0.040,0.252,-5.337
0.239,0.040,0.253,-5.337
0.249,0.041,0.253,-5.337
0.230,0.042,0.251,-5.337
0.265,0.043,0.248,-5.337
0.246,0.045,0.252,-5.337
0.167,0.050,0.257,-5.337
0.193,0.049,0.251,-5.337
0.170,0.044,0.246,-5.337
0.169,0.043,0.249,-5.337
0.126,0.047,0.253,-5.337
0.178,0.042,0.256,-5.337
0.225,0.043,0.254,-5.337
0.149,0.045,0.251,-5.337
0.149,0.046,0.251,-5.337
0.136,0.045,0.252,-5.337
0.125,0.045,0.252,-5.337
0.223,0.044,0.250,-5.337
0.282,0.044,0.249,-5.337
0.142,0.047,0.251,-5.337
0.093,0.047,0.250,-5.337
0.126,0.045,0.250,-5.337
0.142,0.042,0.253,-5.337
0.172,0.045,0.254,-5.337
0.155,0.050,0.251,-5.337
0.149,0.051,0.250,-5.337
0.177,0.047,0.251,-5.337
0.219,0.047,0.252,-5.337
0.199,0.047,0.249,-5.337
0.187,0.046,0.249,-5.337
0.201,0.044,0.253,-5.337
0.255,0.045,0.256,-5.337
0.270,0.045,0.255,-5.337
0.247,0.047,0.250,-5.337
0.214,0.049,0.246,-5.337
0.160,0.050,0.249,-5.337
0.214,0.049,0.253,-5.337
0.220,0.048,0.255,-5.337
0.168,0.046,0.255,-5.337
0.189,0.049,0.255,-5.337
0.147,0.052,0.252,-5.337
0.185,0.050,0.250,-5.337
0.170,0.048,0.253,-5.337
0.157,0.049,0.256,-5.337
0.247,0.048,0.254,-5.337
0.253,0.047,0.252,-5.337
0.199,0.047,0.252,-5.337
0.196,0.047,0.252,-5.337
0.217,0.047,0.253,-5.337
0.196,0.048,0.251,-5.337
0.252,0.051,0.249,-5.337
0.222,0.051,0.246,-5.337
0.118,0.052,0.251,-5.337
0.144,0.051,0.252,-5.337
0.201,0.056,0.252,-5.337
0.163,0.058,0.253,-5.337
0.151,0.055,0.253,-5.337
0.201,0.053,0.250,-5.337
0.235,0.058,0.253,-5.337
0.140,0.060,0.251,-5.337
0.144,0.055,0.249,-5.337
0.190,0.058,0.253,-5.337
0.210,0.058,0.255,-5.337
0.135,0.056,0.253,-5.337
0.081,0.057,0.249,-5.337
0.107,0.058,0.249,-5.337
0.231,0.056,0.247,-5.337
0.252,0.056,0.253,-5.337
0.171,0.058,0.253,-5.337
0.132,0.059,0.255,-5.337
0.182,0.054,0.259,-5.337
0.270,0.049,0.259,-5.337
0.249,0.049,0.255,-5.337
0.285,0.050,0.253,-5.337
0.288,0.050,0.253,-5.337
0.247,0.052,0.254,-5.337
0.203,0.054,0.253,-5.337
0.188,0.059,0.253,-5.337
0.142,0.057,0.256,-5.337
0.178,0.056,0.257,-5.337
0.237,0.056,0.256,-5.337
0.242,0.058,0.252,-5.337
0.215,0.058,0.248,-5.337
0.199,0.057,0.250,-5.337
0.220,0.053,0.251,-5.337
0.241,0.057,0.254,-5.337
0.236,0.057,0.255,-5.337
0.197,0.055,0.254,-5.337
0.167,0.056,0.256,-5.337
0.190,0.055,0.255,-5.337
0.183,0.057,0.257,-5.337
0.192,0.060,0.257,-5.337
0.221,0.059,0.260,-5.337
0.239,0.055,0.260,-5.337
0.235,0.054,0.258,-5.337
0.194,0.057,0.252,-5.337
0.201,0.057,0.250,-5.337
0.197,0.057,0.251,-5.337
0.209,0.056,0.257,-5.337
0.168,0.056,0.258,-5.337
0.149,0.059,0.256,-5.337
0.247,0.060,0.250,-5.337
0.271,0.061,0.249,-5.337
0.237,0.064,0.253,-5.337
0.158,0.065,0.257,-5.337
0.156,0.064,0.257,-5.337
0.154,0.062,0.256,-5.337
0.183,0.060,0.253,-5.337
0.213,0.060,0.249,-5.337
0.227,0.061,0.247,-5.337
0.174,0.062,0.250,-5.337
0.210,0.060,0.255,-5.337
0.254,0.058,0.256,-5.337
0.229,0.057,0.254,-5.337
0.164,0.060,0.249,-5.337
0.183,0.062,0.249,-5.337
0.315,0.059,0.247,-5.337
0.316,0.059,0.251,-5.337
0.196,0.063,0.255,-5.337
0.140,0.060,0.256,-5.337
0.187,0.059,0.250,-5.337
0.231,0.061,0.250,-5.337
0.221,0.061,0.251,-5.337
0.143,0.062,0.253,-5.337
0.132,0.065,0.256,-5.337
0.163,0.065,0.257,-5.337
0.246,0.063,0.258,-5.337
0.229,0.065,0.256,-5.337
0.145,0.065,0.255,-5.337
0.221,0.066,0.255,-5.337
0.278,0.062,0.258,-5.337
0.214,0.062,0.257,-5.337
0.154,0.061,0.253,-5.337
0.154,0.059,0.252,-5.337
0.185,0.059,0.253,-5.337
0.174,0.062,0.249,-5.337
0.195,0.065,0.245,-5.337
0.225,0.063,0.248,-5.337
0.272,0.061,0.250,-5.337
0.269,0.060,0.251,-5.337
0.196,0.063,0.253,-5.337
0.194,0.065,0.250,-5.337
0.201,0.065,0.253,-5.337
0.222,0.063,0.255,-5.337
0.282,0.061,0.251,-5.337
0.232,0.064,0.246,-5.337
0.166,0.068,0.247,-5.337
0.144,0.067,0.250,-5.337
0.188,0.068,0.253,-5.337
0.244,0.070,0.255,-5.337
0.174,0.070,0.254,-5.337
0.174,0.065,0.253,-5.337
0.229,0.060,0.254,-5.337
0.244,0.058,0.252,-5.337
0.243,0.061,0.252,-5.337
0.237,0.059,0.251,-5.337
0.257,0.061,0.251,-5.337
0.201,0.063,0.247,-5.337
0.140,0.063,0.247,-5.337
0.166,0.061,0.250,-5.337
0.204,0.058,0.255,-5.337
0.199,0.058,0.257,-5.337
0.188,0.063,0.258,-5.337
0.183,0.063,0.257,-5.337
0.222,0.060,0.255,-5.337
0.248,0.059,0.250,-5.337
0.279,0.059,0.248,-5.337
0.262,0.057,0.247,-5.337
0.243,0.055,0.245,-5.337
0.248,0.055,0.247,-5.337
0.276,0.056,0.253,-5.337
0.232,0.057,0.257,-5.337
0.211,0.057,0.254,-5.337
0.236,0.055,0.251,-5.337
0.245,0.056,0.248,-5.337
0.193,0.061,0.251,-5.337
0.226,0.063,0.252,-5.337
0.223,0.062,0.252,-5.337
0.185,0.061,0.253,-5.337
0.221,0.061,0.253,-5.337
0.284,0.059,0.250,-5.337
0.266,0.062,0.251,-5.337
0.215,0.062,0.254,-5.337
0.200,0.060,0.253,-5.337
0.208,0.061,0.250,-5.337
0.214,0.060,0.251,-5.337
0.242,0.063,0.255,-5.337
0.234,0.067,0.252,-5.337
0.227,0.066,0.249,-5.337
0.176,0.068,0.248,-5.337
0.099,0.067,0.250,-5.337
0.028,0.067,0.248,-5.337
0.160,0.061,0.247,-5.337
0.253,0.063,0.248,-5.337
0.212,0.065,0.252,-5.337
0.195,0.063,0.252,-5.337
0.211,0.063,0.251,-5.337
0.177,0.065,0.250,-5.337
0.141,0.062,0.250,-5.337
0.172,0.062,0.247,-5.337
0.198,0.060,0.248,-5.337
0.223,0.058,0.248,-5.337
0.248,0.058,0.247,-5.337
0.214,0.064,0.247,-5.337
0.187,0.064,0.251,-5.337
0.208,0.063,0.256,-5.337
0.173,0.063,0.256,-5.337
0.154,0.063,0.253,-5.337
0.216,0.062,0.252,-5.337
0.247,0.060,0.254,-5.337
0.251,0.063,0.259,-5.337
0.164,0.062,0.256,-5.337
0.129,0.060,0.250,-5.337
0.244,0.060,0.248,-5.337
0.256,0.061,0.249,-5.337
0.272,0.057,0.252,-5.337
0.257,0.059,0.255,-5.337
0.162,0.061,0.256,-5.337
0.128,0.060,0.256,-5.337
0.148,0.056,0.255,-5.337
0.209,0.056,0.250,-5.337
0.256,0.057,0.251,-5.337
0.287,0.055,0.250,-5.337
0.271,0.056,0.249,-5.337
0.232,0.056,0.243,-5.337
0.200,0.055,0.242,-5.337
0.235,0.052,0.245,-5.337
0.234,0.053,0.251,-5.337
0.186,0.054,0.254,-5.337
0.171,0.056,0.255,-5.337
0.192,0.053,0.252,-5.337
0.212,0.055,0.251,-5.337
0.175,0.053,0.252,-5.337
0.187,0.051,0.251,-5.337
0.205,0.053,0.248,-5.337
0.166,0.055,0.248,-5.337
0.196,0.053,0.250,-5.337
0.217,0.054,0.254,-5.337
0.212,0.055,0.254,-5.337
0.148,0.055,0.253,-5.337
0.107,0.051,0.254,-5.337
0.147,0.051,0.251,-5.337
0.209,0.048,0.249,-5.337
0.209,0.050,0.249,-5.337
0.156,0.047,0.252,-5.337
0.162,0.041,0.253,-5.337
0.221,0.041,0.252,-5.337
0.242,0.042,0.248,-5.337
0.184,0.045,0.247,-5.337
0.155,0.045,0.250,-5.337
0.265,0.045,0.250,-5.337
0.250,0.045,0.249,-5.337
0.223,0.045,0.247,-5.337
0.230,0.043,0.246,-5.337
0.228,0.043,0.246,-5.337
0.249,0.046,0.250,-5.337
0.138,0.052,0.255,-5.337
0.064,0.053,0.257,-5.337
0.178,0.049,0.257,-5.337
0.255,0.049,0.254,-5.337
0.237,0.050,0.253,-5.337
0.222,0.050,0.251,-5.337
0.233,0.049,0.249,-5.337
0.236,0.046,0.248,-5.337
0.265,0.046,0.246,-5.337
0.219,0.050,0.246,-5.337
0.180,0.047,0.248,-5.337
0.150,0.045,0.252,-5.337
0.154,0.047,0.254,-5.337
0.160,0.051,0.257,-5.337
0.178,0.052,0.255,-5.337
0.198,0.047,0.253,-5.337
0.137,0.046,0.253,-5.337
0.159,0.048,0.254,-5.337
0.160,0.047,0.254,-5.337
0.137,0.048,0.254,-5.337
0.136,0.051,0.252,-5.337
0.209,0.051,0.253,-5.337
0.210,0.047,0.254,-5.337
0.159,0.047,0.254,-5.337
0.169,0.044,0.254,-5.337
0.181,0.048,0.249,-5.337
0.211,0.046,0.242,-5.337
0.189,0.045,0.242,-5.337
0.192,0.047,0.248,-5.337
0.235,0.051,0.253,-5.337
0.227,0.050,0.255,-5.337
0.243,0.049,0.255,-5.337
0.182,0.049,0.254,-5.337
0.156,0.047,0.250,-5.337
0.172,0.045,0.247,-5.337
0.198,0.046,0.246,-5.337
0.233,0.045,0.245,-5.337
0.206,0.049,0.246,-5.337
0.182,0.048,0.248,-5.337
0.195,0.046,0.250,-5.337
0.224,0.043,0.256,-5.337
0.222,0.039,0.259,-5.337
0.212,0.039,0.258,-5.337
0.138,0.041,0.253,-5.337
0.157,0.039,0.252,-5.337
0.199,0.038,0.251,-5.337
0.224,0.040,0.250,-5.337
0.216,0.039,0.249,-5.337
0.200,0.041,0.248,-5.337
0.170,0.039,0.248,-5.337
0.238,0.040,0.250,-5.337
0.254,0.037,0.250,-5.337
0.262,0.039,0.250,-5.337
0.281,0.036,0.250,-5.337
0.262,0.041,0.250,-5.337
0.200,0.041,0.249,-5.337
0.222,0.041,0.250,-5.337
0.279,0.036,0.249,-5.337
0.212,0.040,0.249,-5.337
0.206,0.040,0.251,-5.337
0.241,0.041,0.248,-5.337
0.186,0.039,0.247,-5.337
0.174,0.037,0.248,-5.337
0.157,0.040,0.249,-5.337
0.077,0.045,0.248,-5.337
0.100,0.049,0.255,-5.337
0.114,0.049,0.261,-5.337
0.146,0.042,0.260,-5.337
0.101,0.042,0.253,-5.337
0.128,0.043,0.249,-5.337
0.192,0.041,0.249,-5.337
0.205,0.041,0.252,-5.337
0.208,0.041,0.253,-5.337
0.178,0.041,0.252,-5.337
0.190,0.040,0.253,-5.337
0.167,0.041,0.255,-5.337
0.134,0.043,0.252,-5.337
0.131,0.043,0.252,-5.337
0.133,0.042,0.253,-5.337
0.144,0.044,0.254,-5.337
0.187,0.044,0.254,-5.337
0.242,0.040,0.253,-5.337
0.292,0.037,0.250,-5.337
0.291,0.043,0.247,-5.337
0.193,0.044,0.251,-5.337
0.112,0.045,0.255,-5.337
0.136,0.039,0.257,-5.337
0.147,0.039,0.253,-5.337
0.093,0.044,0.252,-5.337
0.078,0.044,0.248,-5.337
0.158,0.041,0.250,-5.337
0.218,0.040,0.251,-5.337
0.227,0.044,0.252,-5.337
0.181,0.043,0.250,-5.337
0.110,0.045,0.249,-5.337
0.117,0.044,0.249,-5.337
0.214,0.042,0.253,-5.337
0.258,0.038,0.255,-5.337
0.250,0.038,0.256,-5.337
0.232,0.042,0.259,-5.337
0.195,0.044,0.258,-5.337
0.154,0.036,0.255,-5.337
0.191,0.037,0.252,-5.337
0.302,0.038,0.250,-5.337
0.248,0.037,0.253,-5.337
0.139,0.042,0.257,-5.337
0.106,0.043,0.254,-5.337
0.158,0.040,0.249,-5.337
0.180,0.039,0.251,-5.337
0.235,0.039,0.254,-5.337
0.226,0.040,0.255,-5.337
0.263,0.039,0.258,-5.337
0.248,0.037,0.256,-5.337
0.252,0.036,0.252,-5.337
0.205,0.037,0.251,-5.337
0.152,0.035,0.256,-5.337
0.147,0.035,0.259,-5.337
0.189,0.035,0.252,-5.337
0.161,0.035,0.253,-5.337
0.247,0.033,0.258,-5.337
0.247,0.033,0.258,-5.337
0.192,0.039,0.250,-5.337
0.131,0.042,0.247,-5.337
0.107,0.040,0.249,-5.337
0.168,0.037,0.255,-5.337
0.194,0.040,0.256,-5.337
0.171,0.041,0.255,-5.337
0.237,0.039,0.255,-5.337
0.217,0.038,0.253,-5.337
0.192,0.038,0.254,-5.337
0.233,0.038,0.254,-5.337
0.243,0.037,0.256,-5.337
0.193,0.037,0.258,-5.337
0.174,0.039,0.257,-5.337
0.174,0.038,0.254,-5.337
0.171,0.042,0.251,-5.337
0.216,0.042,0.252,-5.337
0.240,0.040,0.254,-5.337
0.127,0.042,0.253,-5.337
0.121,0.042,0.248,-5.337
0.215,0.042,0.252,-5.337
0.303,0.041,0.254,-5.337
0.221,0.037,0.260,-5.337
0.095,0.041,0.261,-5.337
0.060,0.042,0.257,-5.337
0.137,0.039,0.252,-5.337
0.181,0.041,0.249,-5.337
0.211,0.039,0.250,-5.337
0.195,0.040,0.248,-5.337
0.207,0.038,0.249,-5.337
0.217,0.040,0.252,-5.337
0.195,0.040,0.254,-5.337
0.080,0.041,0.250,-5.337
0.080,0.039,0.247,-5.337
0.155,0.035,0.248,-5.337
0.161,0.034,0.252,-5.337
0.179,0.036,0.255,-5.337
0.233,0.035,0.255,-5.337
0.242,0.034,0.258,-5.337
0.212,0.036,0.257,-5.337
0.211,0.037,0.253,-5.337
0.168,0.038,0.251,-5.337
0.062,0.038,0.250,-5.337
0.035,0.034,0.252,-5.337
0.119,0.032,0.252,-5.337
0.180,0.032,0.253,-5.337
0.198,0.030,0.253,-5.337
0.134,0.033,0.254,-5.337
0.155,0.031,0.254,-5.337
0.197,0.034,0.254,-5.337
0.146,0.036,0.253,-5.337
0.167,0.038,0.252,-5.337
0.237,0.038,0.254,-5.337
0.239,0.037,0.252,-5.337
0.243,0.035,0.251,-5.337
0.267,0.033,0.251,-5.337
0.273,0.034,0.249,-5.337
0.298,0.033,0.249,-5.337
0.265,0.036,0.250,-5.337
0.145,0.040,0.250,-5.337
0.087,0.042,0.253,-5.337
0.134,0.040,0.256,-5.337
0.183,0.038,0.258,-5.337
0.190,0.037,0.253,-5.337
0.171,0.037,0.249,-5.337
0.151,0.040,0.249,-5.337
0.094,0.041,0.249,-5.337
0.105,0.036,0.250,-5.337
0.193,0.033,0.254,-5.337
0.204,0.032,0.252,-5.337
0.175,0.033,0.249,-5.337
0.094,0.037,0.251,-5.337
0.149,0.036,0.253,-5.337
0.222,0.036,0.253,-5.337
0.199,0.037,0.252,-5.337
0.150,0.037,0.250,-5.337
0.192,0.037,0.251,-5.337
0.213,0.036,0.256,-5.337
0.207,0.040,0.257,-5.337
0.247,0.038,0.254,-5.337
0.217,0.038,0.249,-5.337
0.246,0.037,0.248,-5.337
0.277,0.035,0.247,-5.337
0.280,0.034,0.249,-5.337
0.194,0.037,0.254,-5.337
0.178,0.038,0.255,-5.337
0.168,0.035,0.255,-5.337
0.107,0.036,0.255,-5.337
0.036,0.039,0.254,-5.337
0.031,0.038,0.252,-5.337
0.153,0.036,0.250,-5.337
0.240,0.036,0.250,-5.337
0.199,0.038,0.251,-5.337
0.128,0.039,0.254,-5.337
0.185,0.043,0.254,-5.337
0.271,0.043,0.253,-5.337
0.242,0.044,0.248,-5.337
0.179,0.044,0.249,-5.337
0.136,0.043,0.251,-5.337
0.215,0.043,0.249,-5.337
0.261,0.042,0.250,-5.337
0.254,0.043,0.255,-5.337
0.254,0.040,0.258,-5.337
0.225,0.039,0.257,-5.337
0.173,0.041,0.255,-5.337
0.145,0.038,0.252,-5.337
0.195,0.035,0.249,-5.337
0.190,0.038,0.249,-5.337
0.204,0.039,0.250,-5.337
0.207,0.038,0.251,-5.337
0.207,0.038,0.253,-5.337
0.180,0.040,0.257,-5.337
0.178,0.039,0.259,-5.337
0.201,0.035,0.254,-5.337
0.201,0.034,0.251,-5.337
0.191,0.037,0.251,-5.337
0.184,0.041,0.251,-5.337
0.213,0.039,0.250,-5.337
0.209,0.042,0.249,-5.337
0.167,0.042,0.249,-5.337
0.161,0.043,0.253,-5.337
0.200,0.041,0.253,-5.337
0.196,0.040,0.252,-5.337
0.149,0.040,0.250,-5.337
0.255,0.038,0.254,-5.337
0.304,0.037,0.255,-5.337
0.199,0.042,0.251,-5.337
0.117,0.043,0.248,-5.337
0.167,0.045,0.251,-5.337
0.227,0.044,0.251,-5.337
0.224,0.040,0.251,-5.337
0.191,0.040,0.254,-5.337
0.142,0.043,0.255,-5.337
0.137,0.042,0.252,-5.337
0.122,0.043,0.253,-5.337
0.085,0.042,0.255,-5.337
0.164,0.040,0.252,-5.337
0.232,0.039,0.248,-5.337
0.172,0.040,0.246,-5.337
0.104,0.041,0.247,-5.337
0.172,0.037,0.251,-5.337
0.240,0.033,0.256,-5.337
0.196,0.038,0.255,-5.337
0.153,0.038,0.254,-5.337
0.194,0.039,0.254,-5.337
0.203,0.042,0.255,-5.337
0.197,0.043,0.251,-5.337
0.191,0.047,0.249,-5.337
0.185,0.044,0.251,-5.337
0.172,0.047,0.254,-5.337
0.150,0.045,0.253,-5.337
0.103,0.046,0.252,-5.337
0.139,0.046,0.255,-5.337
0.187,0.049,0.256,-5.337
0.124,0.049,0.255,-5.337
0.142,0.049,0.254,-5.337
0.226,0.046,0.255,-5.337
0.309,0.044,0.257,-5.337
0.205,0.046,0.255,-5.337
0.127,0.047,0.252,-5.337
0.192,0.051,0.250,-5.337
0.169,0.050,0.248,-5.337
0.088,0.049,0.248,-5.337
0.129,0.045,0.247,-5.337
0.234,0.042,0.251,-5.337
0.200,0.049,0.257,-5.337
0.074,0.054,0.253,-5.337
0.026,0.050,0.249,-5.337
0.119,0.048,0.252,-5.337
0.249,0.045,0.251,-5.337
0.284,0.045,0.251,-5.337
0.225,0.048,0.251,-5.337
0.229,0.048,0.252,-5.337
0.255,0.047,0.253,-5.337
0.168,0.047,0.254,-5.337
0.149,0.045,0.253,-5.337
0.213,0.045,0.254,-5.337
0.227,0.046,0.250,-5.337
0.151,0.049,0.249,-5.337
0.144,0.048,0.251,-5.337
0.163,0.049,0.251,-5.337
0.211,0.048,0.251,-5.337
0.223,0.046,0.255,-5.337
0.198,0.046,0.253,-5.337
0.210,0.044,0.253,-5.337
0.242,0.046,0.253,-5.337
0.272,0.046,0.253,-5.337
0.202,0.050,0.253,-5.337
0.194,0.050,0.255,-5.337
0.238,0.048,0.257,-5.337
0.219,0.050,0.255,-5.337
0.246,0.050,0.254,-5.337
0.223,0.049,0.251,-5.337
0.233,0.052,0.249,-5.337
0.196,0.057,0.250,-5.337
0.175,0.053,0.253,-5.337
0.171,0.053,0.252,-5.337
0.160,0.053,0.249,-5.337
0.093,0.054,0.251,-5.337
0.121,0.056,0.255,-5.337
0.185,0.053,0.250,-5.337
0.189,0.054,0.247,-5.337
0.263,0.051,0.244,-5.337
0.283,0.049,0.249,-5.337
0.239,0.047,0.256,-5.337
0.209,0.050,0.259,-5.337
0.185,0.048,0.255,-5.337
0.242,0.046,0.250,-5.337
0.248,0.048,0.249,-5.337
0.202,0.053,0.247,-5.337
0.204,0.053,0.248,-5.337
0.174,0.054,0.251,-5.337
0.140,0.053,0.254,-5.337
0.136,0.050,0.253,-5.337
0.131,0.046,0.251,-5.337
0.155,0.048,0.252,-5.337
0.217,0.050,0.253,-5.337
0.252,0.051,0.254,-5.337
0.241,0.050,0.256,-5.337
0.197,0.052,0.255,-5.337
0.189,0.049,0.253,-5.337
0.184,0.052,0.252,-5.337
0.186,0.053,0.254,-5.337
0.253,0.054,0.257,-5.337
0.262,0.056,0.257,-5.337
0.204,0.055,0.249,-5.337
0.147,0.056,0.247,-5.337
0.140,0.051,0.250,-5.337
0.139,0.052,0.254,-5.337
0.143,0.053,0.255,-5.337
0.226,0.054,0.256,-5.337
0.211,0.053,0.257,-5.337
0.137,0.053,0.258,-5.337
0.140,0.052,0.252,-5.337
0.218,0.053,0.252,-5.337
0.276,0.052,0.256,-5.337
0.222,0.054,0.254,-5.337
0.221,0.050,0.253,-5.337
0.200,0.051,0.250,-5.337
0.166,0.055,0.248,-5.337
0.182,0.053,0.248,-5.337
0.211,0.050,0.252,-5.337
0.230,0.048,0.255,-5.337
0.243,0.051,0.257,-5.337
0.266,0.051,0.257,-5.337
0.245,0.048,0.258,-5.337
0.250,0.049,0.256,-5.337
0.229,0.052,0.251,-5.337
0.215,0.050,0.251,-5.337
0.237,0.050,0.256,-5.337
0.185,0.054,0.257,-5.337
0.164,0.056,0.254,-5.337
0.160,0.054,0.254,-5.337
0.181,0.053,0.254,-5.337
0.234,0.052,0.254,-5.337
0.254,0.052,0.256,-5.337
0.280,0.052,0.256,-5.337
0.269,0.053,0.257,-5.337
0.195,0.055,0.254,-5.337
0.203,0.057,0.255,-5.337
0.175,0.060,0.255,-5.337
0.179,0.058,0.253,-5.337
0.191,0.056,0.253,-5.337
0.214,0.055,0.253,-5.337
0.223,0.054,0.258,-5.337
0.177,0.054,0.261,-5.337
0.156,0.054,0.259,-5.337
0.219,0.057,0.255,-5.337
0.247,0.059,0.253,-5.337
0.225,0.056,0.254,-5.337
0.200,0.057,0.258,-5.337
0.145,0.059,0.257,-5.337
0.140,0.059,0.256,-5.337
0.198,0.055,0.254,-5.337
0.226,0.056,0.254,-5.337
0.230,0.056,0.253,-5.337
0.234,0.056,0.256,-5.337
0.217,0.055,0.256,-5.337
0.249,0.057,0.253,-5.337
0.230,0.058,0.250,-5.337
0.238,0.056,0.253,-5.337
0.337,0.055,0.254,-5.337
0.286,0.054,0.255,-5.337
0.197,0.055,0.252,-5.337
0.170,0.054,0.254,-5.337
0.211,0.052,0.256,-5.337
0.240,0.052,0.255,-5.337
0.279,0.053,0.253,-5.337
0.260,0.053,0.251,-5.337
0.231,0.049,0.253,-5.337
0.247,0.046,0.254,-5.337
0.263,0.046,0.257,-5.337
0.267,0.051,0.256,-5.337
0.254,0.052,0.253,-5.337
0.231,0.053,0.250,-5.337
0.189,0.056,0.249,-5.337
0.172,0.055,0.250,-5.337
0.254,0.050,0.252,-5.337
0.339,0.049,0.253,-5.337
0.265,0.051,0.255,-5.337
0.176,0.054,0.258,-5.337
0.164,0.055,0.257,-5.337
0.197,0.054,0.253,-5.337
0.199,0.058,0.250,-5.337
0.153,0.056,0.251,-5.337
0.137,0.057,0.257,-5.337
0.144,0.054,0.256,-5.337
0.204,0.053,0.253,-5.337
0.241,0.049,0.254,-5.337
0.262,0.052,0.255,-5.337
0.232,0.051,0.252,-5.337
0.220,0.052,0.249,-5.337
0.195,0.055,0.249,-5.337
0.165,0.054,0.252,-5.337
0.142,0.053,0.255,-5.337
0.180,0.052,0.252,-5.337
0.177,0.054,0.251,-5.337
0.142,0.054,0.252,-5.337
0.145,0.051,0.253,-5.337
0.190,0.051,0.256,-5.337
0.228,0.048,0.255,-5.337
0.155,0.051,0.251,-5.337
0.139,0.049,0.253,-5.337
0.198,0.050,0.254,-5.337
0.231,0.053,0.254,-5.337
0.235,0.055,0.249,-5.337
0.201,0.053,0.250,-5.337
0.189,0.054,0.251,-5.337
0.209,0.053,0.250,-5.337
0.221,0.050,0.248,-5.337
0.181,0.054,0.250,-5.337
0.134,0.055,0.252,-5.337
0.204,0.052,0.254,-5.337
0.281,0.050,0.255,-5.337
0.234,0.049,0.252,-5.337
0.219,0.048,0.253,-5.337
0.266,0.046,0.252,-5.337
0.275,0.044,0.250,-5.337
0.267,0.046,0.248,-5.337
0.266,0.048,0.248,-5.337
0.266,0.050,0.250,-5.337
0.205,0.048,0.251,-5.337
0.191,0.051,0.253,-5.337
0.197,0.055,0.257,-5.337
0.187,0.053,0.256,-5.337
0.181,0.051,0.255,-5.337
0.132,0.051,0.250,-5.337
0.153,0.054,0.250,-5.337
0.183,0.053,0.253,-5.337
0.157,0.053,0.257,-5.337
0.198,0.048,0.257,-5.337
0.255,0.047,0.256,-5.337
0.221,0.050,0.257,-5.337
0.201,0.051,0.255,-5.337
0.214,0.049,0.251,-5.337
0.245,0.047,0.252,-5.337
0.205,0.046,0.253,-5.337
0.207,0.047,0.252,-5.337
0.241,0.046,0.250,-5.337
0.203,0.050,0.249,-5.337
0.121,0.052,0.248,-5.337
0.148,0.053,0.252,-5.337
0.158,0.054,0.252,-5.337
0.094,0.054,0.252,-5.337
0.129,0.052,0.251,-5.337
0.182,0.052,0.254,-5.337
0.197,0.049,0.256,-5.337
0.170,0.049,0.257,-5.337
0.116,0.055,0.255,-5.337
0.110,0.053,0.249,-5.337
0.156,0.047,0.248,-5.337
0.205,0.044,0.252,-5.337
0.255,0.046,0.257,-5.337
0.213,0.049,0.256,-5.337
0.187,0.052,0.256,-5.337
0.177,0.051,0.256,-5.337
0.211,0.052,0.255,-5.337
0.262,0.051,0.251,-5.337
0.259,0.048,0.248,-5.337
0.259,0.043,0.251,-5.337
0.228,0.045,0.253,-5.337
0.199,0.048,0.252,-5.337
0.282,0.047,0.253,-5.337
0.274,0.046,0.252,-5.337
0.255,0.046,0.250,-5.337
0.202,0.049,0.250,-5.337
0.137,0.052,0.253,-5.337
0.129,0.051,0.255,-5.337
0.149,0.050,0.256,-5.337
0.178,0.051,0.257,-5.337
0.178,0.050,0.258,-5.337
0.209,0.049,0.255,-5.337
0.193,0.052,0.250,-5.337
0.138,0.052,0.253,-5.337
0.166,0.050,0.255,-5.337
0.237,0.051,0.254,-5.337
0.229,0.052,0.252,-5.337
0.182,0.053,0.254,-5.337
0.151,0.051,0.256,-5.337
0.172,0.048,0.255,-5.337
0.223,0.050,0.250,-5.337
0.196,0.052,0.247,-5.337
0.146,0.049,0.247,-5.337
0.145,0.049,0.252,-5.337
0.170,0.049,0.254,-5.337
0.235,0.046,0.250,-5.337
0.248,0.046,0.250,-5.337
0.241,0.047,0.252,-5.337
0.196,0.045,0.252,-5.337
0.187,0.043,0.253,-5.337
0.196,0.042,0.251,-5.337
0.206,0.043,0.252,-5.337
0.180,0.046,0.255,-5.337
0.179,0.047,0.256,-5.337
0.126,0.051,0.254,-5.337
0.125,0.051,0.251,-5.337
0.189,0.047,0.252,-5.337
0.203,0.047,0.251,-5.337
0.236,0.050,0.254,-5.337
0.204,0.052,0.255,-5.337
0.155,0.049,0.255,-5.337
0.174,0.045,0.254,-5.337
0.236,0.046,0.252,-5.337
0.236,0.045,0.251,-5.337
0.159,0.046,0.251,-5.337
0.173,0.044,0.250,-5.337
0.193,0.045,0.251,-5.337
0.151,0.045,0.252,-5.337
0.193,0.044,0.254,-5.337
0.239,0.040,0.256,-5.337
0.191,0.041,0.256,-5.337
0.127,0.042,0.254,-5.337
0.146,0.043,0.251,-5.337
0.194,0.043,0.252,-5.337
0.217,0.042,0.256,-5.337
0.244,0.036,0.253,-5.337
0.258,0.041,0.251,-5.337
0.234,0.046,0.253,-5.337
0.191,0.046,0.255,-5.337
0.240,0.042,0.253,-5.337
0.270,0.041,0.249,-5.337
0.162,0.042,0.252,-5.337
0.139,0.043,0.251,-5.337
0.162,0.043,0.250,-5.337
0.198,0.044,0.251,-5.337
0.208,0.044,0.258,-5.337
0.165,0.045,0.261,-5.337
0.126,0.045,0.259,-5.337
0.187,0.043,0.252,-5.337
0.211,0.045,0.251,-5.337
0.184,0.040,0.252,-5.337
0.193,0.042,0.251,-5.337
0.185,0.042,0.250,-5.337
0.133,0.044,0.250,-5.337
0.183,0.042,0.251,-5.337
0.182,0.043,0.252,-5.337
0.136,0.041,0.251,-5.337
0.167,0.043,0.251,-5.337
0.173,0.044,0.251,-5.337
0.163,0.043,0.254,-5.337
0.237,0.040,0.254,-5.337
0.199,0.042,0.251,-5.337
0.124,0.045,0.250,-5.337
0.154,0.044,0.250,-5.337
0.097,0.050,0.250,-5.337
0.080,0.052,0.250,-5.337
0.124,0.050,0.253,-5.337
0.176,0.050,0.258,-5.337
0.230,0.044,0.260,-5.337
0.205,0.042,0.252,-5.337
0.183,0.042,0.247,-5.337
0.203,0.041,0.248,-5.337
0.252,0.040,0.255,-5.337
0.173,0.042,0.256,-5.337
0.062,0.046,0.253,-5.337
0.156,0.044,0.250,-5.337
0.212,0.043,0.250,-5.337
0.231,0.040,0.251,-5.337
0.252,0.041,0.249,-5.337
0.192,0.044,0.250,-5.337
0.140,0.040,0.257,-5.337
0.212,0.037,0.258,-5.337
0.264,0.036,0.251,-5.337
0.226,0.039,0.247,-5.337
0.182,0.040,0.250,-5.337
0.193,0.040,0.256,-5.337
0.218,0.042,0.256,-5.337
0.150,0.042,0.252,-5.337
0.069,0.041,0.252,-5.337
0.130,0.042,0.251,-5.337
0.235,0.041,0.248,-5.337
0.300,0.038,0.250,-5.337
0.274,0.036,0.250,-5.337
0.179,0.038,0.252,-5.337
0.176,0.039,0.253,-5.337
0.242,0.040,0.258,-5.337
0.264,0.041,0.259,-5.337
0.160,0.043,0.257,-5.337
0.064,0.042,0.253,-5.337
0.135,0.038,0.252,-5.337
0.234,0.036,0.252,-5.337
0.267,0.034,0.254,-5.337
0.203,0.031,0.252,-5.337
0.207,0.033,0.254,-5.337
0.205,0.035,0.255,-5.337
0.166,0.039,0.258,-5.337
0.092,0.038,0.261,-5.337
0.159,0.034,0.263,-5.337
0.241,0.030,0.259,-5.337
0.245,0.034,0.255,-5.337
0.200,0.035,0.256,-5.337
0.189,0.035,0.256,-5.337
0.243,0.031,0.253,-5.337
0.276,0.030,0.251,-5.337
0.231,0.033,0.253,-5.337
0.206,0.036,0.254,-5.337
0.162,0.039,0.255,-5.337
0.123,0.039,0.260,-5.337
0.113,0.039,0.263,-5.337
0.195,0.039,0.257,-5.337
0.188,0.043,0.255,-5.337
0.113,0.044,0.258,-5.337
0.118,0.041,0.260,-5.337
0.188,0.036,0.258,-5.337
0.191,0.036,0.259,-5.337
0.187,0.035,0.257,-5.337
0.138,0.037,0.252,-5.337
0.148,0.037,0.251,-5.337
0.177,0.037,0.253,-5.337
0.146,0.037,0.257,-5.337
0.112,0.036,0.259,-5.337
0.117,0.033,0.259,-5.337
0.187,0.035,0.260,-5.337
0.180,0.040,0.259,-5.337
0.176,0.040,0.257,-5.337
0.147,0.038,0.251,-5.337
0.206,0.038,0.251,-5.337
0.302,0.039,0.255,-5.337
0.218,0.040,0.261,-5.337
0.085,0.040,0.263,-5.337
0.080,0.041,0.256,-5.337
0.161,0.041,0.253,-5.337
0.184,0.040,0.253,-5.337
0.158,0.041,0.255,-5.337
0.154,0.038,0.255,-5.337
0.200,0.041,0.256,-5.337
0.236,0.042,0.251,-5.337
0.188,0.041,0.254,-5.337
0.175,0.040,0.258,-5.337
0.108,0.045,0.258,-5.337
0.064,0.044,0.257,-5.337
0.097,0.043,0.260,-5.337
0.201,0.042,0.257,-5.337
0.261,0.042,0.255,-5.337
0.248,0.039,0.253,-5.337
0.223,0.037,0.255,-5.337
0.244,0.037,0.255,-5.337
0.263,0.039,0.253,-5.337
0.252,0.037,0.256,-5.337
0.158,0.038,0.255,-5.337
0.072,0.039,0.250,-5.337
0.077,0.041,0.249,-5.337
0.152,0.036,0.256,-5.337
0.239,0.032,0.256,-5.337
0.206,0.034,0.256,-5.337
0.200,0.033,0.255,-5.337
0.171,0.034,0.255,-5.337
0.148,0.033,0.253,-5.337
0.189,0.032,0.255,-5.337
0.267,0.032,0.257,-5.337
0.254,0.034,0.254,-5.337
0.234,0.033,0.250,-5.337
0.178,0.038,0.255,-5.337
0.181,0.037,0.259,-5.337
0.223,0.035,0.257,-5.337
0.254,0.031,0.254,-5.337
0.284,0.030,0.253,-5.337
0.295,0.032,0.252,-5.337
0.219,0.037,0.253,-5.337
0.222,0.034,0.255,-5.337
0.196,0.038,0.258,-5.337
0.152,0.039,0.255,-5.337
0.170,0.037,0.254,-5.337
0.244,0.037,0.254,-5.337
0.310,0.038,0.254,-5.337
0.198,0.042,0.252,-5.337
0.120,0.043,0.252,-5.337
0.109,0.044,0.248,-5.337
0.112,0.045,0.249,-5.337
0.131,0.042,0.255,-5.337
0.145,0.042,0.259,-5.337
0.189,0.041,0.259,-5.337
0.256,0.044,0.256,-5.337
0.167,0.048,0.254,-5.337
0.042,0.046,0.253,-5.337
0.095,0.044,0.252,-5.337
0.215,0.040,0.253,-5.337
0.276,0.040,0.255,-5.337
0.237,0.041,0.252,-5.337
0.213,0.043,0.250,-5.337
0.199,0.044,0.247,-5.337
0.230,0.040,0.251,-5.337
0.261,0.038,0.258,-5.337
0.204,0.040,0.258,-5.337
0.120,0.038,0.256,-5.337
0.221,0.036,0.254,-5.337
0.238,0.038,0.254,-5.337
0.187,0.040,0.255,-5.337
0.162,0.038,0.252,-5.337
0.192,0.038,0.252,-5.337
0.202,0.037,0.256,-5.337
0.240,0.041,0.259,-5.337
0.259,0.042,0.259,-5.337
0.159,0.042,0.256,-5.337
0.163,0.038,0.253,-5.337
0.277,0.040,0.253,-5.337
0.300,0.042,0.251,-5.337
0.157,0.044,0.250,-5.337
0.168,0.039,0.252,-5.337
0.190,0.040,0.254,-5.337
0.189,0.041,0.253,-5.337
0.196,0.038,0.252,-5.337
0.227,0.036,0.253,-5.337
0.212,0.038,0.254,-5.337
0.143,0.040,0.259,-5.337
0.175,0.041,0.256,-5.337
0.236,0.040,0.250,-5.337
0.208,0.038,0.252,-5.337
0.150,0.041,0.257,-5.337
0.100,0.043,0.257,-5.337
0.116,0.043,0.253,-5.337
0.169,0.039,0.253,-5.337
0.220,0.040,0.254,-5.337
0.200,0.042,0.253,-5.337
0.244,0.041,0.254,-5.337
0.302,0.040,0.256,-5.337
0.224,0.042,0.255,-5.337
0.222,0.044,0.252,-5.337
0.272,0.042,0.251,-5.337
0.198,0.041,0.254,-5.337
0.184,0.041,0.256,-5.337
0.262,0.042,0.258,-5.337
0.235,0.040,0.256,-5.337
0.228,0.041,0.255,-5.337
0.214,0.039,0.254,-5.337
0.194,0.039,0.254,-5.337
0.134,0.039,0.252,-5.337
0.122,0.042,0.252,-5.337
0.150,0.039,0.247,-5.337
0.160,0.040,0.247,-5.337
0.186,0.038,0.254,-5.337
0.159,0.040,0.258,-5.337
0.233,0.037,0.260,-5.337
0.176,0.037,0.261,-5.337
0.128,0.039,0.257,-5.337
0.176,0.041,0.255,-5.337
0.222,0.042,0.255,-5.337
0.264,0.042,0.253,-5.337
0.272,0.041,0.251,-5.337
0.259,0.041,0.251,-5.337
0.302,0.043,0.254,-5.337
0.306,0.046,0.254,-5.337
0.257,0.044,0.254,-5.337
0.120,0.042,0.252,-5.337
0.129,0.039,0.253,-5.337
0.190,0.043,0.252,-5.337
0.147,0.047,0.256,-5.337
0.137,0.045,0.256,-5.337
0.209,0.045,0.256,-5.337
0.187,0.048,0.251,-5.337
0.157,0.048,0.250,-5.337
0.137,0.043,0.253,-5.337
0.211,0.043,0.258,-5.337
0.225,0.045,0.260,-5.337
0.194,0.047,0.258,-5.337
0.204,0.046,0.255,-5.337
0.301,0.045,0.251,-5.337
0.317,0.043,0.246,-5.337
0.230,0.046,0.247,-5.337
0.164,0.049,0.249,-5.337
0.180,0.047,0.253,-5.337
0.191,0.046,0.254,-5.337
0.147,0.048,0.257,-5.337
0.084,0.050,0.258,-5.337
0.148,0.049,0.255,-5.337
0.242,0.046,0.253,-5.337
0.208,0.048,0.254,-5.337
0.113,0.051,0.255,-5.337
0.138,0.051,0.254,-5.337
0.176,0.048,0.252,-5.337
0.205,0.050,0.252,-5.337
0.237,0.051,0.251,-5.337
0.250,0.049,0.247,-5.337
0.216,0.047,0.250,-5.337
0.136,0.055,0.252,-5.337
0.060,0.057,0.254,-5.337
0.123,0.051,0.255,-5.337
0.283,0.052,0.259,-5.337
0.282,0.051,0.260,-5.337
0.133,0.054,0.256,-5.337
0.114,0.051,0.257,-5.337
0.218,0.049,0.257,-5.337
0.236,0.049,0.254,-5.337
0.234,0.050,0.252,-5.337
0.263,0.047,0.249,-5.337
0.320,0.046,0.248,-5.337
0.281,0.047,0.245,-5.337
0.223,0.047,0.248,-5.337
0.226,0.045,0.252,-5.337
0.221,0.046,0.255,-5.337
0.190,0.049,0.255,-5.337
0.152,0.052,0.254,-5.337
0.130,0.056,0.254,-5.337
0.138,0.055,0.255,-5.337
0.182,0.053,0.255,-5.337
0.174,0.055,0.256,-5.337
0.192,0.056,0.257,-5.337
0.206,0.057,0.255,-5.337
0.165,0.062,0.255,-5.337
0.158,0.059,0.250,-5.337
0.214,0.055,0.250,-5.337
0.227,0.056,0.252,-5.337
0.187,0.058,0.253,-5.337
0.200,0.054,0.254,-5.337
0.209,0.053,0.254,-5.337
0.221,0.055,0.250,-5.337
0.248,0.057,0.249,-5.337
0.282,0.055,0.253,-5.337
0.266,0.057,0.255,-5.337
0.251,0.056,0.257,-5.337
0.229,0.058,0.258,-5.337
0.199,0.059,0.255,-5.337
0.165,0.057,0.253,-5.337
0.208,0.055,0.252,-5.337
0.180,0.054,0.251,-5.337
0.152,0.052,0.251,-5.337
0.169,0.053,0.254,-5.337
0.167,0.053,0.255,-5.337
0.171,0.053,0.253,-5.337
0.170,0.054,0.252,-5.337
0.199,0.057,0.248,-5.337
0.267,0.052,0.249,-5.337
0.295,0.054,0.254,-5.337
0.245,0.056,0.260,-5.337
0.252,0.058,0.258,-5.337
0.216,0.058,0.254,-5.337
0.197,0.057,0.251,-5.337
0.199,0.056,0.252,-5.337
0.189,0.059,0.257,-5.337
0.148,0.060,0.260,-5.337
0.157,0.061,0.254,-5.337
0.186,0.057,0.252,-5.337
0.333,0.052,0.254,-5.337
0.338,0.053,0.255,-5.337
0.225,0.057,0.253,-5.337
0.193,0.054,0.254,-5.337
0.230,0.052,0.253,-5.337
0.209,0.057,0.251,-5.337
0.168,0.060,0.251,-5.337
0.207,0.061,0.254,-5.337
0.189,0.057,0.255,-5.337
0.187,0.055,0.254,-5.337
0.146,0.059,0.258,-5.337
0.150,0.062,0.256,-5.337
0.131,0.061,0.252,-5.337
0.144,0.058,0.249,-5.337
0.142,0.058,0.253,-5.337
0.192,0.060,0.257,-5.337
0.190,0.058,0.258,-5.337
0.197,0.058,0.254,-5.337
0.238,0.059,0.253,-5.337
0.270,0.057,0.253,-5.337
0.261,0.058,0.253,-5.337
0.255,0.058,0.254,-5.337
0.226,0.055,0.255,-5.337
0.260,0.053,0.255,-5.337
0.265,0.055,0.257,-5.337
0.301,0.056,0.257,-5.337
0.242,0.058,0.256,-5.337
0.235,0.059,0.254,-5.337
0.270,0.058,0.256,-5.337
0.260,0.059,0.252,-5.337
0.192,0.058,0.250,-5.337
0.164,0.058,0.254,-5.337
0.123,0.059,0.256,-5.337
0.190,0.059,0.256,-5.337
0.285,0.055,0.259,-5.337
0.286,0.052,0.259,-5.337
0.220,0.055,0.257,-5.337
0.147,0.056,0.252,-5.337
0.174,0.055,0.250,-5.337
0.210,0.053,0.253,-5.337
0.197,0.054,0.249,-5.337
0.207,0.056,0.250,-5.337
0.187,0.053,0.255,-5.337
0.252,0.054,0.259,-5.337
0.254,0.054,0.257,-5.337
0.206,0.057,0.258,-5.337
0.086,0.058,0.257,-5.337
0.120,0.058,0.257,-5.337
0.229,0.057,0.257,-5.337
0.202,0.057,0.256,-5.337
0.172,0.058,0.257,-5.337
0.166,0.060,0.255,-5.337
0.199,0.058,0.255,-5.337
0.242,0.060,0.259,-5.337
0.218,0.058,0.260,-5.337
0.240,0.056,0.257,-5.337
0.285,0.055,0.253,-5.337
0.247,0.056,0.253,-5.337
0.255,0.054,0.258,-5.337
0.253,0.056,0.260,-5.337
0.200,0.054,0.258,-5.337
0.173,0.055,0.254,-5.337
0.177,0.056,0.256,-5.337
0.157,0.056,0.258,-5.337
0.167,0.055,0.256,-5.337
0.211,0.054,0.253,-5.337
0.290,0.053,0.257,-5.337
0.344,0.051,0.260,-5.337
0.297,0.055,0.259,-5.337
0.268,0.058,0.257,-5.337
0.232,0.059,0.259,-5.337
0.157,0.060,0.256,-5.337
0.160,0.062,0.256,-5.337
0.182,0.059,0.256,-5.337
0.203,0.054,0.254,-5.337
0.235,0.053,0.252,-5.337
0.262,0.054,0.248,-5.337
0.241,0.055,0.249,-5.337
0.195,0.057,0.254,-5.337
0.295,0.053,0.256,-5.337
0.295,0.054,0.257,-5.337
0.190,0.055,0.256,-5.337
0.202,0.049,0.255,-5.337
0.258,0.052,0.253,-5.337
0.217,0.058,0.251,-5.337
0.197,0.058,0.254,-5.337
0.196,0.059,0.255,-5.337
0.211,0.058,0.255,-5.337
0.140,0.060,0.257,-5.337
0.099,0.061,0.262,-5.337
0.157,0.063,0.261,-5.337
0.241,0.060,0.257,-5.337
0.276,0.056,0.251,-5.337
0.298,0.057,0.247,-5.337
0.265,0.059,0.244,-5.337
0.231,0.058,0.249,-5.337
0.218,0.052,0.252,-5.337
0.167,0.054,0.254,-5.337
0.225,0.050,0.252,-5.337
0.252,0.051,0.252,-5.337
0.223,0.054,0.255,-5.337
0.259,0.050,0.257,-5.337
0.252,0.051,0.255,-5.337
0.191,0.050,0.255,-5.337
0.212,0.050,0.255,-5.337
0.185,0.050,0.258,-5.337
0.202,0.050,0.258,-5.337
0.248,0.051,0.255,-5.337
0.222,0.054,0.254,-5.337
0.229,0.056,0.255,-5.337
0.283,0.054,0.252,-5.337
0.318,0.051,0.250,-5.337
0.256,0.052,0.250,-5.337
0.193,0.053,0.256,-5.337
0.177,0.056,0.259,-5.337
0.189,0.053,0.255,-5.337
0.100,0.051,0.252,-5.337
0.136,0.047,0.254,-5.337
0.275,0.045,0.257,-5.337
0.281,0.051,0.255,-5.337
0.195,0.053,0.250,-5.337
0.217,0.050,0.247,-5.337
0.214,0.051,0.252,-5.337
0.220,0.052,0.259,-5.337
0.209,0.054,0.259,-5.337
0.174,0.047,0.255,-5.337
0.174,0.046,0.256,-5.337
0.155,0.049,0.258,-5.337
0.192,0.046,0.256,-5.337
0.257,0.044,0.252,-5.337
0.146,0.051,0.250,-5.337
0.055,0.047,0.250,-5.337
0.099,0.044,0.253,-5.337
0.154,0.047,0.256,-5.337
0.195,0.046,0.258,-5.337
0.203,0.048,0.255,-5.337
0.222,0.047,0.250,-5.337
0.256,0.043,0.251,-5.337
0.219,0.045,0.254,-5.337
0.219,0.043,0.255,-5.337
0.243,0.044,0.254,-5.337
0.197,0.040,0.254,-5.337
0.168,0.041,0.253,-5.337
0.148,0.042,0.254,-5.337
0.160,0.042,0.254,-5.337
0.171,0.042,0.257,-5.337
0.161,0.040,0.258,-5.337
0.179,0.040,0.258,-5.337
0.155,0.039,0.257,-5.337
0.153,0.042,0.256,-5.337
0.163,0.041,0.252,-5.337
0.185,0.041,0.248,-5.337
0.172,0.038,0.247,-5.337
0.160,0.040,0.249,-5.337
0.202,0.037,0.254,-5.337
0.240,0.041,0.261,-5.337
0.141,0.043,0.261,-5.337
0.116,0.045,0.256,-5.337
0.167,0.044,0.256,-5.337
0.164,0.044,0.251,-5.337
0.175,0.041,0.246,-5.337
0.190,0.042,0.247,-5.337
0.220,0.044,0.252,-5.337
0.261,0.044,0.255,-5.337
0.276,0.044,0.256,-5.337
0.204,0.045,0.253,-5.337
0.202,0.042,0.252,-5.337
0.219,0.045,0.253,-5.337
0.193,0.043,0.256,-5.337
0.202,0.040,0.258,-5.337
0.201,0.041,0.261,-5.337
0.168,0.039,0.260,-5.337
0.182,0.043,0.258,-5.337
0.176,0.042,0.256,-5.337
0.166,0.042,0.253,-5.337
0.221,0.040,0.252,-5.337
0.271,0.040,0.252,-5.337
0.243,0.038,0.254,-5.337
0.209,0.038,0.260,-5.337
0.219,0.038,0.259,-5.337
0.207,0.039,0.256,-5.337
0.188,0.038,0.252,-5.337
0.152,0.037,0.249,-5.337
0.119,0.036,0.251,-5.337
0.128,0.039,0.252,-5.337
0.177,0.042,0.252,-5.337
0.194,0.041,0.250,-5.337
0.193,0.040,0.252,-5.337
0.213,0.034,0.251,-5.337
0.280,0.034,0.253,-5.337
0.302,0.034,0.250,-5.337
0.248,0.039,0.251,-5.337
0.273,0.036,0.253,-5.337
0.272,0.034,0.255,-5.337
0.180,0.037,0.254,-5.337
0.184,0.040,0.252,-5.337
0.207,0.039,0.250,-5.337
0.217,0.037,0.251,-5.337
0.217,0.033,0.251,-5.337
0.193,0.036,0.252,-5.337
0.212,0.037,0.254,-5.337
0.183,0.040,0.256,-5.337
0.159,0.035,0.254,-5.337
0.171,0.033,0.251,-5.337
0.204,0.033,0.250,-5.337
0.180,0.037,0.252,-5.337
0.142,0.039,0.257,-5.337
0.186,0.040,0.260,-5.337
0.171,0.043,0.259,-5.337
0.158,0.041,0.255,-5.337
0.161,0.036,0.253,-5.337
0.143,0.037,0.251,-5.337
0.169,0.038,0.249,-5.337
0.161,0.038,0.249,-5.337
0.157,0.036,0.252,-5.337
0.214,0.034,0.255,-5.337
0.192,0.038,0.256,-5.337
0.186,0.037,0.254,-5.337
0.186,0.034,0.254,-5.337
0.156,0.035,0.255,-5.337
0.206,0.038,0.258,-5.337
0.244,0.035,0.254,-5.337
0.219,0.034,0.251,-5.337
0.171,0.033,0.254,-5.337
0.188,0.036,0.256,-5.337
0.175,0.036,0.252,-5.337
0.200,0.035,0.251,-5.337
0.212,0.035,0.253,-5.337
0.225,0.035,0.256,-5.337
0.134,0.036,0.256,-5.337
0.117,0.034,0.255,-5.337
0.218,0.034,0.251,-5.337
0.154,0.037,0.251,-5.337
0.142,0.033,0.249,-5.337
0.188,0.034,0.251,-5.337
0.234,0.033,0.252,-5.337
0.236,0.036,0.252,-5.337
0.239,0.033,0.256,-5.337
0.220,0.034,0.254,-5.337
0.169,0.036,0.253,-5.337
0.189,0.035,0.252,-5.337
0.164,0.036,0.254,-5.337
0.117,0.038,0.253,-5.337
0.142,0.039,0.252,-5.337
0.216,0.038,0.253,-5.337
0.229,0.036,0.255,-5.337
0.226,0.032,0.253,-5.337
0.246,0.034,0.253,-5.337
0.227,0.033,0.254,-5.337
0.220,0.031,0.258,-5.337
0.241,0.028,0.258,-5.337
0.198,0.032,0.255,-5.337
0.143,0.035,0.255,-5.337
0.162,0.036,0.256,-5.337
0.210,0.036,0.255,-5.337
0.232,0.037,0.254,-5.337
0.232,0.036,0.253,-5.337
0.201,0.038,0.252,-5.337
0.158,0.041,0.252,-5.337
0.207,0.040,0.251,-5.337
0.271,0.041,0.253,-5.337
0.193,0.041,0.256,-5.337
0.178,0.038,0.253,-5.337
0.261,0.034,0.254,-5.337
0.262,0.040,0.258,-5.337
0.165,0.041,0.257,-5.337
0.173,0.039,0.252,-5.337
0.194,0.038,0.246,-5.337
0.167,0.034,0.248,-5.337
0.180,0.035,0.249,-5.337
0.178,0.038,0.253,-5.337
0.167,0.038,0.255,-5.337
0.201,0.037,0.258,-5.337
0.274,0.032,0.256,-5.337
0.267,0.032,0.252,-5.337
0.241,0.031,0.249,-5.337
0.274,0.032,0.249,-5.337
0.234,0.033,0.254,-5.337
0.083,0.037,0.259,-5.337
0.120,0.031,0.258,-5.337
0.209,0.034,0.257,-5.337
0.264,0.034,0.257,-5.337
0.211,0.038,0.255,-5.337
0.198,0.038,0.256,-5.337
0.174,0.036,0.258,-5.337
0.145,0.035,0.258,-5.337
0.173,0.037,0.254,-5.337
0.174,0.036,0.253,-5.337
0.203,0.037,0.253,-5.337
0.178,0.035,0.256,-5.337
0.224,0.032,0.259,-5.337
0.302,0.032,0.261,-5.337
0.261,0.034,0.255,-5.337
0.174,0.035,0.251,-5.337
0.047,0.037,0.250,-5.337
0.109,0.035,0.255,-5.337
0.157,0.037,0.257,-5.337
0.143,0.038,0.258,-5.337
0.151,0.035,0.258,-5.337
0.250,0.033,0.256,-5.337
0.285,0.032,0.252,-5.337
0.164,0.035,0.250,-5.337
0.126,0.034,0.252,-5.337
0.200,0.029,0.256,-5.337
0.153,0.030,0.258,-5.337
0.176,0.032,0.258,-5.337
0.278,0.031,0.256,-5.337
0.218,0.034,0.256,-5.337
0.153,0.032,0.259,-5.337
0.199,0.034,0.258,-5.337
0.225,0.034,0.257,-5.337
0.222,0.034,0.259,-5.337
0.177,0.034,0.260,-5.337
0.133,0.031,0.260,-5.337
0.153,0.029,0.259,-5.337
0.154,0.031,0.257,-5.337
0.099,0.034,0.258,-5.337
0.131,0.032,0.255,-5.337
0.137,0.029,0.254,-5.337
0.191,0.030,0.252,-5.337
0.194,0.032,0.255,-5.337
0.148,0.033,0.257,-5.337
0.137,0.034,0.254,-5.337
0.163,0.033,0.250,-5.337
0.169,0.033,0.253,-5.337
0.218,0.033,0.257,-5.337
0.273,0.035,0.258,-5.337
0.241,0.033,0.256,-5.337
0.177,0.032,0.256,-5.337
0.172,0.032,0.257,-5.337
0.168,0.034,0.255,-5.337
0.164,0.035,0.256,-5.337
0.170,0.032,0.256,-5.337
0.151,0.034,0.256,-5.337
0.132,0.034,0.255,-5.337
0.163,0.032,0.259,-5.337
0.196,0.031,0.260,-5.337
0.185,0.032,0.261,-5.337
0.194,0.032,0.261,-5.337
0.190,0.034,0.257,-5.337
0.177,0.033,0.254,-5.337
0.181,0.034,0.255,-5.337
0.218,0.036,0.258,-5.337
0.182,0.038,0.256,-5.337
0.146,0.037,0.255,-5.337
0.148,0.038,0.256,-5.337
0.192,0.032,0.255,-5.337
0.238,0.032,0.253,-5.337
0.185,0.036,0.255,-5.337
0.175,0.035,0.255,-5.337
0.217,0.032,0.255,-5.337
0.221,0.033,0.251,-5.337
0.226,0.035,0.250,-5.337
0.250,0.032,0.253,-5.337
0.265,0.031,0.256,-5.337
0.255,0.033,0.255,-5.337
0.240,0.035,0.252,-5.337
0.181,0.036,0.250,-5.337
0.120,0.034,0.253,-5.337
0.164,0.031,0.254,-5.337
0.242,0.030,0.255,-5.337
0.238,0.034,0.254,-5.337
0.182,0.040,0.254,-5.337
0.190,0.039,0.252,-5.337
0.229,0.036,0.255,-5.337
0.257,0.034,0.258,-5.337
0.197,0.039,0.259,-5.337
0.148,0.042,0.258,-5.337
0.177,0.042,0.257,-5.337
0.199,0.039,0.254,-5.337
0.180,0.039,0.254,-5.337
0.095,0.042,0.254,-5.337
0.073,0.042,0.254,-5.337
0.153,0.041,0.253,-5.337
0.187,0.042,0.254,-5.337
0.165,0.041,0.255,-5.337
0.202,0.039,0.254,-5.337
0.178,0.038,0.253,-5.337
0.148,0.038,0.251,-5.337
0.209,0.038,0.251,-5.337
0.249,0.036,0.254,-5.337
0.263,0.038,0.256,-5.337
0.232,0.040,0.256,-5.337
0.167,0.041,0.256,-5.337
0.171,0.038,0.258,-5.337
0.225,0.035,0.260,-5.337
0.238,0.037,0.259,-5.337
0.215,0.042,0.256,-5.337
0.253,0.037,0.253,-5.337
0.268,0.038,0.250,-5.337
0.190,0.038,0.250,-5.337
0.102,0.038,0.254,-5.337
0.143,0.040,0.255,-5.337
0.213,0.042,0.256,-5.337
0.314,0.037,0.255,-5.337
0.305,0.037,0.253,-5.337
0.210,0.038,0.252,-5.337
0.140,0.039,0.253,-5.337
0.138,0.038,0.255,-5.337
0.152,0.041,0.255,-5.337
0.194,0.045,0.253,-5.337
0.238,0.043,0.252,-5.337
0.250,0.041,0.254,-5.337
0.251,0.038,0.262,-5.337
0.196,0.038,0.266,-5.337
0.160,0.038,0.258,-5.337
0.211,0.040,0.248,-5.337
0.127,0.044,0.247,-5.337
0.139,0.042,0.251,-5.337
0.175,0.044,0.255,-5.337
0.231,0.045,0.259,-5.337
0.317,0.042,0.258,-5.337
0.291,0.042,0.257,-5.337
0.213,0.047,0.257,-5.337
0.124,0.050,0.258,-5.337
0.121,0.047,0.255,-5.337
0.206,0.046,0.255,-5.337
0.221,0.048,0.255,-5.337
0.192,0.050,0.255,-5.337
0.204,0.047,0.253,-5.337
0.184,0.047,0.254,-5.337
0.182,0.049,0.252,-5.337
0.186,0.048,0.254,-5.337
0.158,0.042,0.257,-5.337
0.155,0.043,0.257,-5.337
0.187,0.043,0.254,-5.337
0.237,0.044,0.255,-5.337
0.229,0.046,0.255,-5.337
0.159,0.049,0.257,-5.337
0.155,0.049,0.256,-5.337
0.170,0.049,0.255,-5.337
0.122,0.051,0.259,-5.337
0.113,0.049,0.258,-5.337
0.191,0.047,0.250,-5.337
0.259,0.046,0.248,-5.337
0.264,0.047,0.248,-5.337
0.190,0.051,0.248,-5.337
0.147,0.052,0.251,-5.337
0.208,0.049,0.254,-5.337
0.169,0.046,0.260,-5.337
0.173,0.047,0.261,-5.337
0.214,0.047,0.256,-5.337
0.246,0.051,0.254,-5.337
0.194,0.050,0.255,-5.337
0.205,0.048,0.257,-5.337
0.203,0.050,0.255,-5.337
0.177,0.052,0.257,-5.337
0.157,0.050,0.259,-5.337
0.207,0.046,0.256,-5.337
0.269,0.045,0.254,-5.337
0.301,0.045,0.250,-5.337
0.293,0.047,0.249,-5.337
0.216,0.047,0.251,-5.337
0.166,0.049,0.254,-5.337
0.159,0.051,0.256,-5.337
0.198,0.050,0.255,-5.337
0.218,0.048,0.255,-5.337
0.199,0.045,0.255,-5.337
0.195,0.047,0.256,-5.337
0.206,0.049,0.256,-5.337
0.369,0.047,0.255,-5.337
0.370,0.047,0.254,-5.337
0.213,0.049,0.255,-5.337
0.131,0.050,0.254,-5.337
0.164,0.052,0.253,-5.337
0.198,0.049,0.254,-5.337
0.200,0.051,0.256,-5.337
0.186,0.048,0.254,-5.337
0.257,0.049,0.253,-5.337
0.273,0.052,0.251,-5.337
0.239,0.054,0.251,-5.337
0.256,0.050,0.251,-5.337
0.198,0.051,0.255,-5.337
0.127,0.052,0.259,-5.337
0.163,0.052,0.259,-5.337
0.212,0.049,0.257,-5.337
0.308,0.048,0.255,-5.337
0.300,0.048,0.253,-5.337
0.276,0.050,0.255,-5.337
0.271,0.050,0.258,-5.337
0.355,0.046,0.260,-5.337
0.300,0.046,0.257,-5.337
0.266,0.047,0.254,-5.337
0.278,0.048,0.251,-5.337
0.205,0.048,0.252,-5.337
0.143,0.046,0.253,-5.337
0.170,0.046,0.255,-5.337
0.214,0.046,0.257,-5.337
0.211,0.049,0.257,-5.337
0.151,0.051,0.257,-5.337
0.146,0.049,0.253,-5.337
0.158,0.048,0.253,-5.337
0.212,0.047,0.255,-5.337
0.294,0.050,0.254,-5.337
0.282,0.050,0.251,-5.337
0.223,0.051,0.253,-5.337
0.254,0.045,0.255,-5.337
0.257,0.047,0.256,-5.337
0.229,0.051,0.255,-5.337
0.232,0.053,0.253,-5.337
0.232,0.054,0.252,-5.337
0.224,0.053,0.248,-5.337
0.196,0.053,0.250,-5.337
0.183,0.051,0.258,-5.337
0.224,0.047,0.262,-5.337
0.219,0.049,0.261,-5.337
0.213,0.050,0.257,-5.337
0.216,0.049,0.257,-5.337
0.267,0.051,0.255,-5.337
0.287,0.055,0.253,-5.337
0.231,0.056,0.255,-5.337
0.168,0.056,0.256,-5.337
0.143,0.056,0.252,-5.337
0.209,0.056,0.250,-5.337
0.226,0.054,0.253,-5.337
0.253,0.051,0.254,-5.337
0.228,0.050,0.256,-5.337
0.205,0.054,0.255,-5.337
0.206,0.056,0.255,-5.337
0.146,0.060,0.253,-5.337
0.183,0.059,0.253,-5.337
0.236,0.058,0.253,-5.337
0.208,0.057,0.254,-5.337
0.211,0.055,0.256,-5.337
0.259,0.054,0.256,-5.337
0.307,0.048,0.257,-5.337
0.276,0.051,0.256,-5.337
0.197,0.050,0.255,-5.337
0.216,0.047,0.254,-5.337
0.241,0.047,0.255,-5.337
0.203,0.048,0.255,-5.337
0.179,0.049,0.254,-5.337
0.127,0.052,0.254,-5.337
0.106,0.053,0.255,-5.337
0.167,0.052,0.257,-5.337
0.232,0.052,0.258,-5.337
0.256,0.052,0.259,-5.337
0.234,0.053,0.259,-5.337
0.244,0.056,0.255,-5.337
0.308,0.052,0.252,-5.337
0.316,0.054,0.250,-5.337
0.183,0.057,0.251,-5.337
0.158,0.054,0.253,-5.337
0.180,0.055,0.257,-5.337
0.179,0.057,0.255,-5.337
0.178,0.057,0.255,-5.337
0.213,0.055,0.255,-5.337
0.187,0.057,0.255,-5.337
0.150,0.058,0.253,-5.337
0.152,0.058,0.253,-5.337
0.221,0.058,0.255,-5.337
0.164,0.060,0.257,-5.337
0.163,0.055,0.256,-5.337
0.252,0.055,0.256,-5.337
0.259,0.056,0.257,-5.337
0.223,0.059,0.254,-5.337
0.235,0.058,0.251,-5.337
0.244,0.059,0.250,-5.337
0.238,0.058,0.252,-5.337
0.220,0.060,0.256,-5.337
0.212,0.060,0.258,-5.337
0.259,0.060,0.256,-5.337
0.258,0.060,0.255,-5.337
0.233,0.055,0.255,-5.337
0.231,0.052,0.255,-5.337
0.170,0.055,0.250,-5.337
0.167,0.057,0.253,-5.337
0.238,0.058,0.257,-5.337
0.241,0.059,0.260,-5.337
0.225,0.062,0.259,-5.337
0.210,0.061,0.258,-5.337
0.222,0.060,0.254,-5.337
0.285,0.060,0.255,-5.337
0.342,0.058,0.256,-5.337
0.270,0.059,0.257,-5.337
0.273,0.057,0.255,-5.337
0.261,0.057,0.254,-5.337
0.194,0.058,0.253,-5.337
0.194,0.057,0.253,-5.337
0.272,0.057,0.256,-5.337
0.278,0.059,0.262,-5.337
0.207,0.057,0.262,-5.337
0.192,0.054,0.258,-5.337
0.205,0.054,0.255,-5.337
0.205,0.056,0.255,-5.337
0.217,0.059,0.255,-5.337
0.228,0.057,0.254,-5.337
0.191,0.052,0.253,-5.337
0.199,0.053,0.257,-5.337
0.219,0.052,0.261,-5.337
0.221,0.053,0.260,-5.337
0.293,0.048,0.262,-5.337
0.292,0.049,0.260,-5.337
0.185,0.056,0.257,-5.337
0.161,0.055,0.256,-5.337
0.255,0.053,0.259,-5.337
0.240,0.054,0.262,-5.337
0.183,0.058,0.260,-5.337
0.154,0.055,0.257,-5.337
0.219,0.051,0.256,-5.337
0.263,0.052,0.255,-5.337
0.194,0.057,0.257,-5.337
0.126,0.058,0.258,-5.337
0.193,0.054,0.256,-5.337
0.228,0.052,0.255,-5.337
0.165,0.054,0.255,-5.337
0.143,0.054,0.256,-5.337
0.164,0.052,0.260,-5.337
0.152,0.051,0.261,-5.337
0.277,0.047,0.261,-5.337
0.380,0.045,0.259,-5.337
0.342,0.046,0.254,-5.337
0.184,0.051,0.252,-5.337
0.152,0.051,0.252,-5.337
0.201,0.046,0.252,-5.337
0.242,0.046,0.255,-5.337
0.257,0.048,0.258,-5.337
0.207,0.049,0.259,-5.337
0.244,0.051,0.262,-5.337
0.270,0.049,0.257,-5.337
0.227,0.047,0.254,-5.337
0.231,0.051,0.252,-5.337
0.202,0.056,0.255,-5.337
0.207,0.052,0.256,-5.337
0.214,0.051,0.260,-5.337
0.249,0.048,0.261,-5.337
0.225,0.050,0.260,-5.337
0.166,0.049,0.254,-5.337
0.145,0.048,0.247,-5.337
0.184,0.049,0.249,-5.337
0.283,0.050,0.253,-5.337
0.199,0.053,0.255,-5.337
0.157,0.052,0.258,-5.337
0.189,0.056,0.258,-5.337
0.172,0.060,0.257,-5.337
0.113,0.061,0.256,-5.337
0.104,0.056,0.256,-5.337
0.084,0.056,0.254,-5.337
0.067,0.056,0.255,-5.337
0.167,0.056,0.255,-5.337
0.288,0.054,0.251,-5.337
0.326,0.052,0.252,-5.337
0.255,0.050,0.255,-5.337
0.266,0.048,0.257,-5.337
0.314,0.045,0.256,-5.337
0.269,0.045,0.259,-5.337
0.245,0.045,0.260,-5.337
0.264,0.047,0.258,-5.337
0.256,0.047,0.257,-5.337
0.182,0.050,0.253,-5.337
0.198,0.052,0.249,-5.337
0.225,0.053,0.253,-5.337
0.186,0.049,0.257,-5.337
0.224,0.047,0.259,-5.337
0.250,0.049,0.258,-5.337
0.257,0.048,0.255,-5.337
0.298,0.045,0.253,-5.337
0.268,0.048,0.257,-5.337
0.187,0.051,0.254,-5.337
0.085,0.054,0.253,-5.337
0.086,0.052,0.254,-5.337
0.151,0.052,0.254,-5.337
0.249,0.050,0.253,-5.337
0.292,0.049,0.251,-5.337
0.258,0.047,0.252,-5.337
0.246,0.048,0.255,-5.337
0.166,0.053,0.262,-5.337
0.150,0.053,0.261,-5.337
0.164,0.053,0.258,-5.337
0.153,0.052,0.254,-5.337
0.180,0.052,0.252,-5.337
0.205,0.049,0.248,-5.337
0.228,0.052,0.252,-5.337
0.233,0.052,0.256,-5.337
0.200,0.052,0.257,-5.337
0.186,0.048,0.256,-5.337
0.189,0.048,0.255,-5.337
0.190,0.049,0.257,-5.337
0.219,0.049,0.256,-5.337
0.268,0.051,0.254,-5.337
0.203,0.051,0.255,-5.337
0.118,0.054,0.256,-5.337
0.110,0.053,0.254,-5.337
0.180,0.054,0.252,-5.337
0.174,0.054,0.254,-5.337
0.155,0.054,0.253,-5.337
0.145,0.050,0.252,-5.337
0.140,0.048,0.253,-5.337
0.206,0.046,0.253,-5.337
0.223,0.045,0.253,-5.337
0.235,0.045,0.253,-5.337
0.203,0.045,0.258,-5.337
0.209,0.048,0.260,-5.337
0.197,0.051,0.261,-5.337
0.206,0.047,0.257,-5.337
0.205,0.046,0.254,-5.337
0.145,0.048,0.253,-5.337
0.129,0.049,0.257,-5.337
0.170,0.044,0.258,-5.337
0.208,0.045,0.256,-5.337
0.243,0.042,0.254,-5.337
0.271,0.040,0.254,-5.337
0.245,0.043,0.253,-5.337
0.130,0.051,0.252,-5.337
0.152,0.049,0.251,-5.337
0.222,0.049,0.253,-5.337
0.195,0.051,0.254,-5.337
0.151,0.050,0.256,-5.337
0.248,0.048,0.256,-5.337
0.268,0.047,0.253,-5.337
0.146,0.049,0.254,-5.337
0.125,0.049,0.255,-5.337
0.227,0.047,0.254,-5.337
0.242,0.050,0.256,-5.337
0.112,0.052,0.260,-5.337
0.150,0.047,0.258,-5.337
0.230,0.045,0.259,-5.337
0.253,0.047,0.257,-5.337
0.176,0.049,0.255,-5.337
0.211,0.044,0.253,-5.337
0.261,0.044,0.252,-5.337
0.164,0.047,0.252,-5.337
0.163,0.052,0.256,-5.337
0.239,0.047,0.254,-5.337
0.269,0.043,0.247,-5.337
0.261,0.043,0.247,-5.337
0.219,0.043,0.253,-5.337
0.216,0.041,0.251,-5.337
0.209,0.042,0.252,-5.337
0.228,0.043,0.256,-5.337
0.318,0.040,0.258,-5.337
0.260,0.042,0.259,-5.337
0.176,0.047,0.262,-5.337
0.170,0.047,0.261,-5.337
0.160,0.048,0.257,-5.337
0.154,0.048,0.256,-5.337
0.215,0.050,0.254,-5.337
0.171,0.050,0.254,-5.337
0.203,0.047,0.258,-5.337
0.217,0.047,0.261,-5.337
0.216,0.046,0.254,-5.337
0.229,0.046,0.254,-5.337
0.176,0.047,0.252,-5.337
0.173,0.048,0.253,-5.337
0.210,0.047,0.256,-5.337
0.276,0.045,0.259,-5.337
0.230,0.042,0.256,-5.337
0.234,0.045,0.253,-5.337
0.199,0.043,0.254,-5.337
0.136,0.044,0.255,-5.337
0.129,0.046,0.255,-5.337
0.155,0.044,0.252,-5.337
0.142,0.042,0.251,-5.337
0.148,0.045,0.256,-5.337
0.140,0.045,0.258,-5.337
0.176,0.045,0.260,-5.337
0.164,0.043,0.258,-5.337
0.134,0.042,0.258,-5.337
0.127,0.041,0.259,-5.337
0.180,0.038,0.254,-5.337
0.209,0.038,0.250,-5.337
0.174,0.040,0.251,-5.337
0.154,0.040,0.254,-5.337
0.125,0.040,0.251,-5.337
0.122,0.039,0.253,-5.337
0.178,0.035,0.257,-5.337
0.169,0.037,0.256,-5.337
0.180,0.043,0.250,-5.337
0.151,0.049,0.247,-5.337
0.111,0.047,0.246,-5.337
0.197,0.044,0.254,-5.337
0.207,0.043,0.258,-5.337
0.200,0.043,0.255,-5.337
0.208,0.043,0.253,-5.337
0.260,0.043,0.254,-5.337
0.285,0.038,0.258,-5.337
0.213,0.041,0.261,-5.337
0.136,0.045,0.259,-5.337
0.135,0.043,0.257,-5.337
0.233,0.040,0.256,-5.337
0.257,0.043,0.254,-5.337
0.218,0.044,0.252,-5.337
0.164,0.045,0.254,-5.337
0.091,0.047,0.256,-5.337
0.063,0.047,0.256,-5.337
0.109,0.042,0.255,-5.337
0.148,0.039,0.255,-5.337
0.183,0.042,0.261,-5.337
0.178,0.046,0.264,-5.337
0.166,0.042,0.264,-5.337
0.204,0.038,0.257,-5.337
0.209,0.040,0.251,-5.337
0.160,0.038,0.250,-5.337
0.162,0.041,0.253,-5.337
0.186,0.042,0.255,-5.337
0.160,0.040,0.258,-5.337
0.212,0.036,0.259,-5.337
0.249,0.037,0.258,-5.337
0.238,0.039,0.254,-5.337
0.232,0.039,0.251,-5.337
0.233,0.033,0.250,-5.337
0.236,0.035,0.252,-5.337
0.217,0.037,0.256,-5.337
0.213,0.044,0.258,-5.337
0.183,0.044,0.257,-5.337
0.222,0.039,0.257,-5.337
0.242,0.038,0.255,-5.337
0.237,0.038,0.254,-5.337
0.203,0.033,0.255,-5.337
0.189,0.032,0.255,-5.337
0.173,0.037,0.253,-5.337
0.127,0.038,0.254,-5.337
0.171,0.036,0.255,-5.337
0.200,0.037,0.253,-5.337
0.245,0.034,0.254,-5.337
0.236,0.034,0.255,-5.337
0.165,0.034,0.257,-5.337
0.192,0.037,0.259,-5.337
0.187,0.038,0.261,-5.337
0.130,0.040,0.256,-5.337
0.127,0.043,0.254,-5.337
0.175,0.044,0.253,-5.337
0.171,0.042,0.250,-5.337
0.158,0.041,0.252,-5.337
0.182,0.042,0.254,-5.337
0.189,0.043,0.254,-5.337
0.178,0.044,0.254,-5.337
0.156,0.040,0.257,-5.337
0.142,0.039,0.258,-5.337
0.167,0.040,0.258,-5.337
0.219,0.040,0.259,-5.337
0.211,0.041,0.257,-5.337
0.212,0.040,0.254,-5.337
0.230,0.039,0.255,-5.337
0.231,0.036,0.259,-5.337
0.197,0.036,0.259,-5.337
0.151,0.039,0.258,-5.337
0.123,0.043,0.258,-5.337
0.103,0.047,0.255,-5.337
0.104,0.046,0.256,-5.337
0.154,0.042,0.256,-5.337
0.164,0.043,0.255,-5.337
0.208,0.040,0.255,-5.337
0.270,0.037,0.257,-5.337
0.284,0.039,0.259,-5.337
0.260,0.042,0.259,-5.337
0.237,0.040,0.257,-5.337
0.229,0.039,0.257,-5.337
0.236,0.035,0.255,-5.337
0.207,0.037,0.254,-5.337
0.158,0.038,0.255,-5.337
0.187,0.038,0.260,-5.337
0.231,0.036,0.263,-5.337
0.200,0.041,0.263,-5.337
0.139,0.044,0.261,-5.337
0.203,0.043,0.257,-5.337
0.253,0.042,0.255,-5.337
0.233,0.042,0.253,-5.337
0.171,0.045,0.255,-5.337
0.192,0.043,0.259,-5.337
0.239,0.042,0.261,-5.337
0.312,0.041,0.261,-5.337
0.283,0.043,0.262,-5.337
0.192,0.044,0.259,-5.337
0.097,0.046,0.257,-5.337
0.119,0.045,0.255,-5.337
0.185,0.043,0.254,-5.337
0.246,0.040,0.256,-5.337
0.255,0.040,0.261,-5.337
0.170,0.042,0.258,-5.337
0.098,0.043,0.256,-5.337
0.106,0.041,0.256,-5.337
0.154,0.043,0.261,-5.337
0.163,0.041,0.261,-5.337
0.117,0.043,0.260,-5.337
0.157,0.041,0.259,-5.337
0.234,0.041,0.260,-5.337
0.196,0.040,0.258,-5.337
0.136,0.038,0.255,-5.337
0.170,0.042,0.254,-5.337
0.161,0.044,0.255,-5.337
0.167,0.042,0.256,-5.337
0.187,0.044,0.259,-5.337
0.195,0.048,0.257,-5.337
0.249,0.044,0.254,-5.337
0.286,0.041,0.258,-5.337
0.256,0.043,0.260,-5.337
0.196,0.048,0.258,-5.337
0.160,0.049,0.256,-5.337
0.159,0.045,0.260,-5.337
0.242,0.040,0.258,-5.337
0.227,0.042,0.257,-5.337
0.155,0.041,0.258,-5.337
0.182,0.042,0.261,-5.337
0.249,0.043,0.256,-5.337
0.276,0.043,0.256,-5.337
0.141,0.047,0.258,-5.337
0.178,0.046,0.258,-5.337
0.175,0.044,0.257,-5.337
0.160,0.045,0.256,-5.337
0.186,0.044,0.256,-5.337
0.142,0.043,0.256,-5.337
0.167,0.046,0.256,-5.337
0.208,0.044,0.256,-5.337
0.204,0.042,0.256,-5.337
0.269,0.041,0.258,-5.337
0.295,0.039,0.256,-5.337
0.241,0.041,0.252,-5.337
0.227,0.042,0.250,-5.337
0.262,0.043,0.253,-5.337
0.243,0.042,0.256,-5.337
0.278,0.040,0.255,-5.337
0.264,0.040,0.256,-5.337
0.232,0.045,0.259,-5.337
0.177,0.049,0.258,-5.337
0.177,0.043,0.257,-5.337
0.274,0.040,0.258,-5.337
0.244,0.045,0.256,-5.337
0.116,0.049,0.257,-5.337
0.125,0.051,0.258,-5.337
0.182,0.050,0.255,-5.337
0.186,0.048,0.255,-5.337
0.167,0.050,0.257,-5.337
0.151,0.051,0.255,-5.337
0.110,0.050,0.253,-5.337
0.138,0.048,0.253,-5.337
0.233,0.044,0.254,-5.337
0.205,0.043,0.252,-5.337
0.096,0.047,0.253,-5.337
0.062,0.050,0.257,-5.337
0.148,0.046,0.260,-5.337
0.210,0.042,0.258,-5.337
0.243,0.045,0.255,-5.337
0.292,0.044,0.254,-5.337
0.249,0.045,0.253,-5.337
0.229,0.044,0.258,-5.337
0.237,0.047,0.259,-5.337
0.208,0.051,0.259,-5.337
0.244,0.046,0.258,-5.337
0.228,0.049,0.256,-5.337
0.225,0.048,0.254,-5.337
0.241,0.048,0.256,-5.337
0.267,0.046,0.257,-5.337
0.312,0.047,0.258,-5.337
0.299,0.046,0.257,-5.337
0.317,0.050,0.256,-5.337
0.226,0.054,0.256,-5.337
0.165,0.053,0.255,-5.337
0.230,0.049,0.252,-5.337
0.238,0.050,0.254,-5.337
0.192,0.051,0.260,-5.337
0.210,0.050,0.260,-5.337
0.251,0.048,0.256,-5.337
0.294,0.050,0.255,-5.337
0.219,0.053,0.256,-5.337
0.150,0.055,0.257,-5.337
0.149,0.052,0.253,-5.337
0.179,0.048,0.253,-5.337
0.192,0.048,0.252,-5.337
0.235,0.050,0.254,-5.337
0.265,0.049,0.256,-5.337
0.217,0.053,0.255,-5.337
0.212,0.053,0.258,-5.337
0.153,0.056,0.258,-5.337
0.114,0.060,0.256,-5.337
0.122,0.061,0.251,-5.337
0.190,0.059,0.253,-5.337
0.239,0.056,0.253,-5.337
0.263,0.053,0.255,-5.337
0.261,0.050,0.255,-5.337
0.305,0.052,0.258,-5.337
0.285,0.053,0.260,-5.337
0.234,0.048,0.261,-5.337
0.206,0.044,0.262,-5.337
0.212,0.045,0.259,-5.337
0.208,0.050,0.253,-5.337
0.175,0.051,0.250,-5.337
0.198,0.051,0.250,-5.337
0.210,0.052,0.255,-5.337
0.217,0.052,0.258,-5.337
0.190,0.053,0.256,-5.337
0.204,0.054,0.252,-5.337
0.304,0.053,0.250,-5.337
0.233,0.055,0.252,-5.337
0.177,0.055,0.255,-5.337
0.205,0.056,0.260,-5.337
0.199,0.054,0.263,-5.337
0.165,0.054,0.261,-5.337
0.183,0.052,0.256,-5.337
0.249,0.054,0.258,-5.337
0.244,0.054,0.256,-5.337
0.259,0.051,0.255,-5.337
0.185,0.052,0.253,-5.337
0.175,0.056,0.257,-5.337
0.249,0.055,0.254,-5.337
0.248,0.056,0.250,-5.337
0.182,0.055,0.247,-5.337
0.214,0.057,0.248,-5.337
0.237,0.057,0.253,-5.337
0.198,0.056,0.258,-5.337
0.179,0.057,0.260,-5.337
0.224,0.057,0.259,-5.337
0.205,0.060,0.256,-5.337
0.072,0.064,0.257,-5.337
0.116,0.057,0.255,-5.337
0.209,0.053,0.255,-5.337
0.256,0.056,0.256,-5.337
0.210,0.058,0.254,-5.337
0.222,0.055,0.253,-5.337
0.224,0.053,0.255,-5.337
0.259,0.054,0.256,-5.337
0.235,0.058,0.257,-5.337
0.233,0.055,0.260,-5.337
0.217,0.053,0.257,-5.337
0.208,0.051,0.252,-5.337
0.233,0.053,0.250,-5.337
0.220,0.055,0.253,-5.337
0.147,0.059,0.254,-5.337
0.193,0.057,0.256,-5.337
0.287,0.052,0.255,-5.337
0.246,0.053,0.254,-5.337
0.174,0.055,0.256,-5.337
0.171,0.059,0.259,-5.337
0.267,0.057,0.257,-5.337
0.233,0.058,0.255,-5.337
0.171,0.060,0.251,-5.337
0.177,0.059,0.253,-5.337
0.195,0.060,0.257,-5.337
0.186,0.061,0.255,-5.337
0.191,0.057,0.254,-5.337
0.183,0.057,0.258,-5.337
0.182,0.056,0.258,-5.337
0.162,0.059,0.253,-5.337
0.131,0.059,0.251,-5.337
0.161,0.055,0.252,-5.337
0.225,0.056,0.254,-5.337
0.220,0.058,0.254,-5.337
0.203,0.057,0.255,-5.337
0.239,0.056,0.255,-5.337
0.235,0.054,0.255,-5.337
0.198,0.053,0.258,-5.337
0.205,0.053,0.261,-5.337
0.257,0.055,0.260,-5.337
0.279,0.057,0.258,-5.337
0.204,0.054,0.254,-5.337
0.203,0.054,0.252,-5.337
0.195,0.054,0.252,-5.337
0.075,0.059,0.256,-5.337
0.013,0.058,0.258,-5.337
0.147,0.053,0.259,-5.337
0.265,0.051,0.257,-5.337
0.245,0.053,0.256,-5.337
0.209,0.053,0.256,-5.337
0.203,0.049,0.254,-5.337
0.260,0.046,0.254,-5.337
0.249,0.050,0.253,-5.337
0.196,0.053,0.251,-5.337
0.195,0.052,0.251,-5.337
0.247,0.049,0.255,-5.337
0.223,0.048,0.256,-5.337
0.225,0.050,0.253,-5.337
0.204,0.048,0.252,-5.337
0.210,0.045,0.254,-5.337
0.247,0.044,0.254,-5.337
0.245,0.049,0.258,-5.337
0.200,0.051,0.258,-5.337
0.240,0.044,0.255,-5.337
0.289,0.042,0.254,-5.337
0.265,0.044,0.254,-5.337
0.188,0.050,0.252,-5.337
0.155,0.052,0.253,-5.337
0.143,0.053,0.255,-5.337
0.121,0.053,0.257,-5.337
0.155,0.051,0.257,-5.337
0.175,0.051,0.258,-5.337
0.132,0.050,0.257,-5.337
0.166,0.049,0.257,-5.337
0.236,0.048,0.258,-5.337
0.203,0.051,0.260,-5.337
0.170,0.052,0.262,-5.337
0.188,0.054,0.260,-5.337
0.194,0.056,0.256,-5.337
0.136,0.053,0.253,-5.337
0.147,0.051,0.255,-5.337
0.230,0.051,0.257,-5.337
0.203,0.056,0.260,-5.337
0.186,0.058,0.261,-5.337
0.193,0.057,0.258,-5.337
0.246,0.053,0.252,-5.337
0.245,0.053,0.253,-5.337
0.238,0.052,0.252,-5.337
0.211,0.051,0.253,-5.337
0.223,0.048,0.256,-5.337
0.215,0.047,0.258,-5.337
0.213,0.049,0.255,-5.337
0.194,0.052,0.252,-5.337
0.196,0.052,0.250,-5.337
0.230,0.052,0.254,-5.337
0.132,0.048,0.256,-5.337
0.128,0.045,0.258,-5.337
0.225,0.044,0.257,-5.337
0.265,0.044,0.255,-5.337
0.295,0.044,0.255,-5.337
0.268,0.050,0.256,-5.337
0.227,0.052,0.256,-5.337
0.204,0.052,0.255,-5.337
0.299,0.049,0.255,-5.337
0.314,0.048,0.254,-5.337
0.218,0.049,0.254,-5.337
0.143,0.049,0.256,-5.337
0.130,0.048,0.258,-5.337
0.212,0.051,0.258,-5.337
0.283,0.045,0.259,-5.337
0.221,0.045,0.260,-5.337
0.178,0.047,0.259,-5.337
0.242,0.045,0.258,-5.337
0.290,0.043,0.260,-5.337
0.230,0.048,0.259,-5.337
0.232,0.051,0.255,-5.337
0.193,0.050,0.254,-5.337
0.114,0.049,0.257,-5.337
0.178,0.046,0.257,-5.337
0.232,0.048,0.256,-5.337
0.206,0.048,0.258,-5.337
0.164,0.048,0.259,-5.337
0.134,0.045,0.261,-5.337
0.184,0.046,0.258,-5.337
0.257,0.048,0.255,-5.337
0.293,0.047,0.253,-5.337
0.269,0.046,0.252,-5.337
0.200,0.047,0.257,-5.337
0.119,0.046,0.260,-5.337
0.161,0.047,0.261,-5.337
0.157,0.051,0.259,-5.337
0.159,0.053,0.256,-5.337
0.168,0.052,0.256,-5.337
0.222,0.050,0.257,-5.337
0.271,0.050,0.260,-5.337
0.245,0.050,0.264,-5.337
0.261,0.047,0.263,-5.337
0.313,0.048,0.258,-5.337
0.264,0.048,0.253,-5.337
0.243,0.046,0.252,-5.337
0.210,0.049,0.256,-5.337
0.111,0.054,0.262,-5.337
0.198,0.053,0.267,-5.337
0.270,0.054,0.265,-5.337
0.251,0.051,0.260,-5.337
0.195,0.051,0.258,-5.337
0.187,0.053,0.256,-5.337
0.188,0.050,0.253,-5.337
0.209,0.048,0.254,-5.337
0.235,0.047,0.253,-5.337
0.208,0.050,0.253,-5.337
0.219,0.048,0.254,-5.337
0.230,0.046,0.255,-5.337
0.171,0.044,0.255,-5.337
0.148,0.042,0.258,-5.337
0.228,0.042,0.259,-5.337
0.250,0.043,0.259,-5.337
0.200,0.043,0.259,-5.337
0.121,0.044,0.259,-5.337
0.108,0.045,0.259,-5.337
0.180,0.044,0.253,-5.337
0.147,0.047,0.254,-5.337
0.160,0.045,0.257,-5.337
0.213,0.040,0.258,-5.337
0.288,0.038,0.259,-5.337
0.311,0.041,0.256,-5.337
0.235,0.042,0.248,-5.337
0.153,0.044,0.248,-5.337
0.110,0.043,0.251,-5.337
0.144,0.040,0.253,-5.337
0.218,0.040,0.257,-5.337
0.247,0.040,0.261,-5.337
0.217,0.038,0.261,-5.337
0.223,0.042,0.259,-5.337
0.177,0.042,0.256,-5.337
0.137,0.039,0.258,-5.337
0.195,0.037,0.259,-5.337
0.248,0.038,0.257,-5.337
0.250,0.040,0.252,-5.337
0.253,0.040,0.250,-5.337
0.204,0.039,0.249,-5.337
0.145,0.039,0.250,-5.337
0.190,0.042,0.254,-5.337
0.261,0.045,0.255,-5.337
0.138,0.043,0.256,-5.337
0.148,0.040,0.258,-5.337
0.172,0.040,0.262,-5.337
0.203,0.041,0.261,-5.337
0.173,0.043,0.257,-5.337
0.112,0.041,0.253,-5.337
0.084,0.044,0.255,-5.337
0.175,0.041,0.256,-5.337
0.236,0.038,0.257,-5.337
0.198,0.036,0.257,-5.337
0.176,0.037,0.256,-5.337
0.169,0.041,0.255,-5.337
0.181,0.039,0.255,-5.337
0.222,0.035,0.255,-5.337
0.183,0.037,0.255,-5.337
0.164,0.038,0.251,-5.337
0.183,0.040,0.252,-5.337
0.224,0.039,0.256,-5.337
0.270,0.038,0.258,-5.337
0.283,0.038,0.258,-5.337
0.233,0.041,0.260,-5.337
0.207,0.039,0.262,-5.337
0.182,0.037,0.258,-5.337
0.137,0.039,0.253,-5.337
0.157,0.037,0.253,-5.337
0.271,0.035,0.257,-5.337
0.252,0.037,0.262,-5.337
0.184,0.036,0.262,-5.337
0.176,0.035,0.259,-5.337
0.227,0.035,0.259,-5.337
0.216,0.036,0.257,-5.337
0.260,0.038,0.254,-5.337
0.326,0.034,0.249,-5.337
0.318,0.034,0.252,-5.337
0.233,0.035,0.250,-5.337
0.206,0.037,0.248,-5.337
0.199,0.039,0.249,-5.337
0.203,0.042,0.255,-5.337
0.151,0.039,0.256,-5.337
0.122,0.037,0.259,-5.337
0.135,0.041,0.260,-5.337
0.143,0.042,0.258,-5.337
0.208,0.037,0.258,-5.337
0.208,0.039,0.256,-5.337
0.128,0.040,0.254,-5.337
0.151,0.037,0.255,-5.337
0.238,0.034,0.257,-5.337
0.274,0.035,0.257,-5.337
0.231,0.037,0.255,-5.337
0.181,0.038,0.253,-5.337
0.120,0.039,0.253,-5.337
0.100,0.039,0.255,-5.337
0.129,0.037,0.259,-5.337
0.169,0.035,0.257,-5.337
0.212,0.033,0.257,-5.337
0.176,0.035,0.254,-5.337
0.088,0.040,0.254,-5.337
0.082,0.042,0.251,-5.337
0.116,0.042,0.253,-5.337
0.185,0.036,0.255,-5.337
0.156,0.036,0.261,-5.337
0.118,0.037,0.263,-5.337
0.149,0.038,0.261,-5.337
0.183,0.037,0.259,-5.337
0.220,0.035,0.262,-5.337
0.271,0.031,0.258,-5.337
0.260,0.030,0.254,-5.337
0.255,0.032,0.251,-5.337
0.263,0.033,0.252,-5.337
0.267,0.035,0.255,-5.337
0.241,0.032,0.259,-5.337
0.225,0.032,0.259,-5.337
0.262,0.033,0.257,-5.337
0.289,0.034,0.255,-5.337
0.257,0.034,0.255,-5.337
0.215,0.032,0.256,-5.337
0.235,0.030,0.256,-5.337
0.235,0.033,0.253,-5.337
0.166,0.034,0.251,-5.337
0.137,0.031,0.255,-5.337
0.154,0.029,0.254,-5.337
0.234,0.031,0.254,-5.337
0.267,0.032,0.257,-5.337
0.184,0.037,0.260,-5.337
0.155,0.036,0.260,-5.337
0.149,0.037,0.258,-5.337
0.174,0.031,0.254,-5.337
0.169,0.026,0.253,-5.337
0.166,0.027,0.252,-5.337
0.144,0.033,0.250,-5.337
0.115,0.034,0.250,-5.337
0.154,0.033,0.253,-5.337
0.179,0.032,0.255,-5.337
0.139,0.035,0.256,-5.337
0.122,0.037,0.252,-5.337
0.104,0.038,0.250,-5.337
0.110,0.037,0.255,-5.337
0.157,0.035,0.259,-5.337
0.224,0.032,0.260,-5.337
0.195,0.029,0.259,-5.337
0.137,0.028,0.259,-5.337
0.087,0.031,0.256,-5.337
0.144,0.038,0.251,-5.337
0.215,0.037,0.253,-5.337
0.203,0.036,0.260,-5.337
0.175,0.035,0.258,-5.337
0.195,0.034,0.256,-5.337
0.245,0.037,0.255,-5.337
0.272,0.038,0.253,-5.337
0.194,0.040,0.251,-5.337
0.096,0.043,0.255,-5.337
0.120,0.041,0.260,-5.337
0.195,0.038,0.259,-5.337
0.248,0.036,0.256,-5.337
0.230,0.034,0.254,-5.337
0.194,0.032,0.254,-5.337
0.129,0.033,0.254,-5.337
0.172,0.030,0.256,-5.337
0.196,0.032,0.254,-5.337
0.176,0.032,0.251,-5.337
0.175,0.035,0.251,-5.337
0.152,0.037,0.255,-5.337
0.165,0.038,0.257,-5.337
0.224,0.037,0.257,-5.337
0.177,0.040,0.252,-5.337
0.064,0.039,0.253,-5.337
0.126,0.036,0.256,-5.337
0.218,0.035,0.255,-5.337
0.274,0.033,0.252,-5.337
0.264,0.035,0.257,-5.337
0.202,0.039,0.259,-5.337
0.181,0.037,0.259,-5.337
0.232,0.034,0.255,-5.337
0.270,0.035,0.253,-5.337
0.297,0.035,0.250,-5.337
0.311,0.037,0.252,-5.337
0.258,0.037,0.254,-5.337
0.201,0.037,0.255,-5.337
0.219,0.036,0.255,-5.337
0.244,0.037,0.255,-5.337
0.230,0.038,0.256,-5.337
0.186,0.037,0.260,-5.337
0.134,0.035,0.262,-5.337
0.179,0.033,0.260,-5.337
0.230,0.032,0.255,-5.337
0.212,0.035,0.254,-5.337
0.192,0.039,0.257,-5.337
0.181,0.039,0.254,-5.337
0.237,0.039,0.254,-5.337
0.233,0.037,0.257,-5.337
0.211,0.037,0.257,-5.337
0.218,0.036,0.256,-5.337
0.195,0.037,0.257,-5.337
0.171,0.035,0.256,-5.337
0.138,0.042,0.257,-5.337
0.178,0.040,0.257,-5.337
0.203,0.040,0.256,-5.337
0.151,0.042,0.252,-5.337
0.181,0.042,0.253,-5.337
0.257,0.042,0.255,-5.337
0.295,0.043,0.259,-5.337
0.256,0.040,0.262,-5.337
0.191,0.042,0.263,-5.337
0.180,0.044,0.258,-5.337
0.199,0.046,0.255,-5.337
0.243,0.044,0.254,-5.337
0.229,0.044,0.253,-5.337
0.226,0.044,0.252,-5.337
0.221,0.042,0.253,-5.337
0.167,0.041,0.257,-5.337
0.097,0.041,0.264,-5.337
0.181,0.044,0.263,-5.337
0.240,0.047,0.258,-5.337
0.220,0.047,0.255,-5.337
0.159,0.045,0.254,-5.337
0.155,0.044,0.257,-5.337
0.170,0.047,0.257,-5.337
0.123,0.044,0.260,-5.337
0.147,0.040,0.255,-5.337
0.298,0.035,0.253,-5.337
