[Parameters]
Operating Mode, Feedback
Subject  AA..ZZ, WT
Session  0..99, 45
No. Trials (1..9999), 500
Mouse Number, 1
Pressure Probe Serial Port, \00\00\00\04COM4
Save additional csv file, TRUE
Save using mouse number, FALSE
A/D Monitor Rate (Hz), 30000.000000
A/D Stimulate Rate (Hz), 30000.000000
A/D input range (+/- V), 5
No. Channels to acquire (N), 2
Pre-Stim Acq. time (ms), 100.000000
Post-Stim Acq. time (ms), 900.000000
Analysis window parameters.M-response Start (ms), 1.100000
Analysis window parameters.M-response Duration (ms), 5.500000
Analysis window parameters.H-response Duration (ms), 6.000000
Analysis window parameters.H-response Start (ms), 6.500000
Feedback window, H response
Proportional gain, 0.100000
Target value, 6.700000
Feedback Ch., 1
Stim Channel to Control (1-4), 4
Trial, 65
Wait for EMG Conditions, FALSE
Channel to monitor (0 - N-1), 1
EMG Hi Limit, 2.000000
EMG Lo Limit, 0.001000
Inter-Stim delay (sec), 10.000000
EMG Monitor Mode, Mean
Time to run Long Stim.(sec), 30
Save Long Stim Data?, OFF
BURST Save time (ms), 1000
BURST Save Interval (x above), 10
Long-Stim. Rep. Rate (Hz), 10.000000
Stim type cluster array.<size(s)>, 4
Stim type cluster array 0.Stimulus Output, Electrical
Stim type cluster array 1.Stimulus Output, OFF
Stim type cluster array 2.Stimulus Output, OFF
Stim type cluster array 3.Stimulus Output, Motor Length
Stim specs cluster array.<size(s)>, 4
Stim specs cluster array 0.Initial Stimulus ampl., 0.300000
Stim specs cluster array 0.Maximum Stimulus, 1.120000
Stim specs cluster array 0.#Pulses in train, 4
Stim specs cluster array 0.Peak Level time (ms), 1.000000
Stim specs cluster array 0.Total pulse period (ms), 150.000000
Stim specs cluster array 0.Start Delay (ms), -50.000000
Stim specs cluster array 0.Pulse Shape, Square
Stim specs cluster array 0.Ramp/Rel. time (ms), 0.100000
Stim specs cluster array 0.Peak Amplitude (V), 0.120000
Stim specs cluster array 1.Initial Stimulus ampl., 0.000000
Stim specs cluster array 1.Maximum Stimulus, 0.000000
Stim specs cluster array 1.#Pulses in train, 3
Stim specs cluster array 1.Peak Level time (ms), 29.000000
Stim specs cluster array 1.Total pulse period (ms), 200.000000
Stim specs cluster array 1.Start Delay (ms), 0.000000
Stim specs cluster array 1.Pulse Shape, Square
Stim specs cluster array 1.Ramp/Rel. time (ms), 0.000000
Stim specs cluster array 1.Peak Amplitude (V), 2.000000
Stim specs cluster array 2.Initial Stimulus ampl., 0.000000
Stim specs cluster array 2.Maximum Stimulus, 0.000000
Stim specs cluster array 2.#Pulses in train, 1
Stim specs cluster array 2.Peak Level time (ms), 25.000000
Stim specs cluster array 2.Total pulse period (ms), 200.000000
Stim specs cluster array 2.Start Delay (ms), 0.000000
Stim specs cluster array 2.Pulse Shape, Square
Stim specs cluster array 2.Ramp/Rel. time (ms), 20.000000
Stim specs cluster array 2.Peak Amplitude (V), 10.000000
Stim specs cluster array 3.Initial Stimulus ampl., 0.000000
Stim specs cluster array 3.Maximum Stimulus, 20.000000
Stim specs cluster array 3.#Pulses in train, 25
Stim specs cluster array 3.Peak Level time (ms), 0.100000
Stim specs cluster array 3.Total pulse period (ms), 4.000000
Stim specs cluster array 3.Start Delay (ms), 205.000000
Stim specs cluster array 3.Pulse Shape, Triangle
Stim specs cluster array 3.Ramp/Rel. time (ms), 3.000000
Stim specs cluster array 3.Peak Amplitude (V), 0.500000
Force cal. (mN/Volt), 100.000000
Force Range (mN), 100.000000
Length cal. (mm/Volt), 10.000000
Length Range (mm), 10.000000
Stim. 1, 0.300000
Stim. 2, 0.000000
Stim. 3, 0.000000
Stim. 4, 0.000000
Monitor acquire time (ms), 100.000000
EMG graph Ymax, 0.100000
Travel limit (mm), 20.000000
Use Pressure Probe, FALSE
Pressure goal (g), 100
Speed (mm/sec), 5.000000
Dwell time (ms), 100.000000
Pressure limit (g), 500.000000
Channel amplitude offset, 0.000000

[DATA]

0.182,0.048,0.264,-5.337
0.158,0.051,0.266,-5.337
0.200,0.047,0.265,-5.337
0.254,0.048,0.264,-5.337
0.249,0.045,0.264,-5.337
0.199,0.045,0.268,-5.337
0.140,0.047,0.267,-5.337
0.127,0.048,0.265,-5.337
0.209,0.048,0.265,-5.337
0.252,0.049,0.267,-5.337
0.174,0.051,0.265,-5.337
0.142,0.052,0.268,-5.337
0.155,0.053,0.271,-5.337
0.197,0.050,0.269,-5.337
0.239,0.049,0.265,-5.337
0.181,0.053,0.260,-5.337
0.133,0.055,0.262,-5.337
0.110,0.055,0.266,-5.337
0.181,0.051,0.267,-5.337
0.250,0.049,0.264,-5.337
0.230,0.048,0.264,-5.337
0.282,0.044,0.261,-5.337
0.284,0.046,0.265,-5.337
0.268,0.045,0.265,-5.337
0.300,0.047,0.265,-5.337
0.278,0.046,0.265,-5.337
0.261,0.044,0.264,-5.337
0.251,0.046,0.266,-5.337
0.242,0.048,0.269,-5.337
0.241,0.044,0.271,-5.337
0.221,0.046,0.269,-5.337
0.150,0.046,0.266,-5.337
0.126,0.045,0.263,-5.337
0.177,0.046,0.260,-5.337
0.155,0.050,0.262,-5.337
0.134,0.051,0.264,-5.337
0.140,0.052,0.269,-5.337
0.152,0.047,0.270,-5.337
0.135,0.046,0.269,-5.337
0.113,0.049,0.266,-5.337
0.135,0.048,0.266,-5.337
0.128,0.047,0.267,-5.337
0.082,0.049,0.268,-5.337
0.131,0.046,0.267,-5.337
0.190,0.044,0.267,-5.337
0.161,0.043,0.269,-5.337
0.148,0.042,0.268,-5.337
0.211,0.041,0.264,-5.337
0.204,0.041,0.261,-5.337
0.193,0.043,0.263,-5.337
0.176,0.042,0.264,-5.337
0.148,0.047,0.263,-5.337
0.175,0.045,0.261,-5.337
0.187,0.043,0.261,-5.337
0.178,0.045,0.265,-5.337
0.154,0.045,0.268,-5.337
0.161,0.043,0.268,-5.337
0.174,0.043,0.265,-5.337
0.174,0.042,0.264,-5.337
0.179,0.042,0.267,-5.337
0.164,0.044,0.266,-5.337
0.178,0.042,0.264,-5.337
0.187,0.040,0.264,-5.337
0.202,0.040,0.267,-5.337
0.206,0.043,0.269,-5.337
0.155,0.046,0.269,-5.337
0.139,0.044,0.264,-5.337
0.167,0.041,0.262,-5.337
0.211,0.040,0.265,-5.337
0.160,0.041,0.266,-5.337
0.088,0.040,0.265,-5.337
0.154,0.039,0.262,-5.337
0.280,0.037,0.265,-5.337
0.251,0.039,0.266,-5.337
0.149,0.042,0.267,-5.337
0.133,0.042,0.267,-5.337
0.199,0.042,0.266,-5.337
0.173,0.042,0.267,-5.337
0.132,0.040,0.267,-5.337
0.144,0.038,0.266,-5.337
0.136,0.037,0.268,-5.337
0.191,0.033,0.269,-5.337
0.220,0.035,0.271,-5.337
0.217,0.032,0.271,-5.337
0.148,0.034,0.269,-5.337
0.085,0.035,0.264,-5.337
0.059,0.035,0.262,-5.337
0.126,0.035,0.266,-5.337
0.212,0.034,0.268,-5.337
0.223,0.035,0.264,-5.337
0.195,0.036,0.264,-5.337
0.215,0.037,0.266,-5.337
0.227,0.035,0.266,-5.337
0.237,0.032,0.270,-5.337
0.157,0.038,0.266,-5.337
0.150,0.036,0.263,-5.337
0.151,0.035,0.263,-5.337
0.116,0.039,0.267,-5.337
0.059,0.040,0.268,-5.337
0.150,0.038,0.271,-5.337
0.224,0.034,0.270,-5.337
0.202,0.041,0.270,-5.337
0.186,0.042,0.267,-5.337
0.216,0.036,0.263,-5.337
0.201,0.036,0.265,-5.337
0.221,0.042,0.266,-5.337
0.180,0.042,0.269,-5.337
0.109,0.041,0.273,-5.337
0.156,0.038,0.269,-5.337
0.201,0.035,0.262,-5.337
0.148,0.034,0.260,-5.337
0.147,0.033,0.263,-5.337
0.186,0.032,0.263,-5.337
0.203,0.038,0.263,-5.337
0.162,0.039,0.264,-5.337
0.164,0.038,0.265,-5.337
0.144,0.036,0.264,-5.337
0.198,0.031,0.261,-5.337
0.248,0.033,0.262,-5.337
0.185,0.040,0.263,-5.337
0.162,0.041,0.266,-5.337
0.168,0.036,0.267,-5.337
0.189,0.035,0.271,-5.337
0.134,0.037,0.270,-5.337
0.102,0.039,0.265,-5.337
0.137,0.034,0.262,-5.337
0.137,0.035,0.264,-5.337
0.117,0.037,0.267,-5.337
0.122,0.039,0.269,-5.337
0.197,0.034,0.269,-5.337
0.241,0.034,0.271,-5.337
0.182,0.037,0.272,-5.337
0.114,0.040,0.268,-5.337
0.142,0.038,0.265,-5.337
0.227,0.036,0.266,-5.337
0.213,0.033,0.267,-5.337
0.137,0.035,0.264,-5.337
0.170,0.031,0.261,-5.337
0.251,0.033,0.262,-5.337
0.173,0.039,0.267,-5.337
0.108,0.041,0.268,-5.337
0.165,0.039,0.268,-5.337
0.212,0.037,0.265,-5.337
0.219,0.039,0.264,-5.337
0.262,0.037,0.265,-5.337
0.250,0.032,0.267,-5.337
0.184,0.034,0.265,-5.337
0.183,0.033,0.265,-5.337
0.142,0.036,0.266,-5.337
0.092,0.035,0.269,-5.337
0.094,0.034,0.265,-5.337
0.177,0.034,0.261,-5.337
0.231,0.031,0.264,-5.337
0.277,0.033,0.266,-5.337
0.226,0.035,0.266,-5.337
0.154,0.036,0.264,-5.337
0.169,0.035,0.263,-5.337
0.126,0.038,0.264,-5.337
0.092,0.040,0.264,-5.337
0.122,0.038,0.263,-5.337
0.150,0.037,0.264,-5.337
0.212,0.036,0.266,-5.337
0.191,0.037,0.266,-5.337
0.160,0.036,0.264,-5.337
0.160,0.032,0.265,-5.337
0.196,0.034,0.267,-5.337
0.259,0.036,0.266,-5.337
0.257,0.032,0.263,-5.337
0.184,0.035,0.267,-5.337
0.092,0.040,0.269,-5.337
0.127,0.040,0.271,-5.337
0.145,0.040,0.270,-5.337
0.164,0.037,0.268,-5.337
0.193,0.032,0.261,-5.337
0.230,0.030,0.258,-5.337
0.189,0.033,0.261,-5.337
0.089,0.037,0.265,-5.337
0.073,0.037,0.268,-5.337
0.147,0.036,0.267,-5.337
0.193,0.035,0.267,-5.337
0.229,0.036,0.268,-5.337
0.233,0.035,0.267,-5.337
0.204,0.036,0.263,-5.337
0.193,0.038,0.261,-5.337
0.246,0.039,0.262,-5.337
0.212,0.043,0.265,-5.337
0.228,0.040,0.265,-5.337
0.227,0.038,0.267,-5.337
0.250,0.038,0.266,-5.337
0.280,0.036,0.268,-5.337
0.269,0.037,0.269,-5.337
0.221,0.037,0.268,-5.337
0.211,0.039,0.266,-5.337
0.209,0.040,0.266,-5.337
0.167,0.037,0.266,-5.337
0.133,0.040,0.264,-5.337
0.204,0.036,0.263,-5.337
0.238,0.035,0.264,-5.337
0.178,0.037,0.262,-5.337
0.160,0.036,0.263,-5.337
0.194,0.033,0.264,-5.337
0.135,0.031,0.268,-5.337
0.129,0.030,0.269,-5.337
0.210,0.032,0.267,-5.337
0.187,0.037,0.265,-5.337
0.134,0.039,0.265,-5.337
0.138,0.036,0.265,-5.337
0.207,0.034,0.266,-5.337
0.200,0.039,0.270,-5.337
0.076,0.041,0.274,-5.337
0.048,0.038,0.276,-5.337
0.195,0.029,0.273,-5.337
0.260,0.029,0.265,-5.337
0.182,0.030,0.255,-5.337
0.150,0.033,0.259,-5.337
0.144,0.035,0.268,-5.337
0.156,0.033,0.275,-5.337
0.197,0.032,0.270,-5.337
0.183,0.030,0.266,-5.337
0.158,0.030,0.266,-5.337
0.206,0.031,0.268,-5.337
0.157,0.035,0.266,-5.337
0.116,0.035,0.266,-5.337
0.190,0.036,0.266,-5.337
0.172,0.041,0.268,-5.337
0.210,0.038,0.266,-5.337
0.182,0.038,0.262,-5.337
0.125,0.037,0.263,-5.337
0.176,0.037,0.265,-5.337
0.246,0.038,0.268,-5.337
0.210,0.038,0.268,-5.337
0.199,0.037,0.265,-5.337
0.179,0.036,0.266,-5.337
0.189,0.038,0.266,-5.337
0.229,0.037,0.264,-5.337
0.241,0.040,0.265,-5.337
0.195,0.037,0.269,-5.337
0.222,0.035,0.270,-5.337
0.229,0.038,0.267,-5.337
0.203,0.037,0.269,-5.337
0.199,0.037,0.272,-5.337
0.216,0.039,0.274,-5.337
0.129,0.041,0.268,-5.337
0.151,0.039,0.265,-5.337
0.188,0.033,0.265,-5.337
0.194,0.034,0.267,-5.337
0.140,0.035,0.266,-5.337
0.125,0.037,0.266,-5.337
0.196,0.037,0.266,-5.337
0.267,0.039,0.266,-5.337
0.190,0.041,0.268,-5.337
0.117,0.041,0.268,-5.337
0.143,0.038,0.267,-5.337
0.168,0.041,0.268,-5.337
0.102,0.041,0.267,-5.337
0.114,0.041,0.264,-5.337
0.198,0.035,0.263,-5.337
0.292,0.033,0.263,-5.337
0.230,0.035,0.261,-5.337
0.178,0.035,0.262,-5.337
0.161,0.039,0.265,-5.337
0.203,0.038,0.265,-5.337
0.242,0.039,0.265,-5.337
0.231,0.039,0.266,-5.337
0.214,0.038,0.267,-5.337
0.219,0.039,0.267,-5.337
0.203,0.041,0.265,-5.337
0.137,0.043,0.262,-5.337
0.154,0.041,0.265,-5.337
0.236,0.038,0.267,-5.337
0.228,0.038,0.267,-5.337
0.189,0.036,0.265,-5.337
0.181,0.040,0.265,-5.337
0.192,0.041,0.268,-5.337
0.292,0.042,0.268,-5.337
0.311,0.043,0.265,-5.337
0.284,0.041,0.264,-5.337
0.235,0.043,0.263,-5.337
0.183,0.044,0.264,-5.337
0.172,0.042,0.266,-5.337
0.183,0.044,0.267,-5.337
0.160,0.044,0.266,-5.337
0.216,0.042,0.267,-5.337
0.235,0.041,0.268,-5.337
0.261,0.041,0.268,-5.337
0.262,0.043,0.269,-5.337
0.209,0.044,0.267,-5.337
0.199,0.044,0.267,-5.337
0.180,0.045,0.265,-5.337
0.166,0.048,0.262,-5.337
0.205,0.045,0.267,-5.337
0.306,0.045,0.272,-5.337
0.260,0.050,0.269,-5.337
0.189,0.051,0.265,-5.337
0.178,0.052,0.263,-5.337
0.205,0.046,0.263,-5.337
0.193,0.041,0.263,-5.337
0.134,0.042,0.269,-5.337
0.173,0.042,0.271,-5.337
0.196,0.043,0.271,-5.337
0.169,0.041,0.269,-5.337
0.202,0.038,0.268,-5.337
0.226,0.042,0.265,-5.337
0.178,0.044,0.261,-5.337
0.115,0.044,0.259,-5.337
0.156,0.044,0.263,-5.337
0.187,0.046,0.268,-5.337
0.198,0.045,0.271,-5.337
0.265,0.044,0.270,-5.337
0.244,0.044,0.267,-5.337
0.193,0.044,0.266,-5.337
0.217,0.041,0.269,-5.337
0.206,0.045,0.269,-5.337
0.132,0.047,0.264,-5.337
0.159,0.047,0.261,-5.337
0.166,0.050,0.264,-5.337
0.203,0.046,0.265,-5.337
0.159,0.045,0.262,-5.337
0.133,0.045,0.262,-5.337
0.211,0.048,0.265,-5.337
0.233,0.051,0.268,-5.337
0.165,0.053,0.268,-5.337
0.159,0.049,0.265,-5.337
0.247,0.046,0.264,-5.337
0.220,0.049,0.264,-5.337
0.139,0.052,0.263,-5.337
0.152,0.053,0.264,-5.337
0.191,0.051,0.264,-5.337
0.227,0.048,0.267,-5.337
0.272,0.046,0.267,-5.337
0.275,0.045,0.266,-5.337
0.240,0.047,0.263,-5.337
0.193,0.052,0.264,-5.337
0.161,0.053,0.269,-5.337
0.236,0.050,0.270,-5.337
0.278,0.049,0.272,-5.337
0.198,0.053,0.269,-5.337
0.159,0.052,0.267,-5.337
0.189,0.050,0.266,-5.337
0.189,0.053,0.266,-5.337
0.221,0.048,0.264,-5.337
0.224,0.050,0.265,-5.337
0.138,0.051,0.264,-5.337
0.095,0.054,0.263,-5.337
0.128,0.053,0.264,-5.337
0.114,0.053,0.268,-5.337
0.174,0.051,0.271,-5.337
0.227,0.049,0.270,-5.337
0.170,0.053,0.272,-5.337
0.151,0.055,0.270,-5.337
0.211,0.054,0.265,-5.337
0.283,0.052,0.263,-5.337
0.319,0.052,0.262,-5.337
0.292,0.052,0.266,-5.337
0.228,0.052,0.270,-5.337
0.243,0.054,0.274,-5.337
0.253,0.053,0.273,-5.337
0.267,0.053,0.268,-5.337
0.233,0.051,0.265,-5.337
0.220,0.050,0.263,-5.337
0.189,0.055,0.265,-5.337
0.193,0.055,0.268,-5.337
0.246,0.053,0.271,-5.337
0.241,0.054,0.267,-5.337
0.198,0.057,0.261,-5.337
0.164,0.055,0.260,-5.337
0.198,0.054,0.267,-5.337
0.173,0.056,0.267,-5.337
0.182,0.055,0.268,-5.337
0.248,0.052,0.270,-5.337
0.232,0.052,0.271,-5.337
0.212,0.053,0.270,-5.337
0.242,0.058,0.268,-5.337
0.247,0.056,0.268,-5.337
0.247,0.055,0.267,-5.337
0.248,0.053,0.267,-5.337
0.241,0.059,0.266,-5.337
0.175,0.061,0.260,-5.337
0.198,0.057,0.263,-5.337
0.215,0.054,0.267,-5.337
0.232,0.054,0.268,-5.337
0.261,0.053,0.267,-5.337
0.250,0.052,0.266,-5.337
0.229,0.052,0.267,-5.337
0.186,0.053,0.269,-5.337
0.173,0.053,0.270,-5.337
0.246,0.050,0.267,-5.337
0.284,0.051,0.267,-5.337
0.269,0.055,0.266,-5.337
0.236,0.058,0.267,-5.337
0.222,0.054,0.265,-5.337
0.205,0.058,0.264,-5.337
0.149,0.059,0.263,-5.337
0.134,0.062,0.265,-5.337
0.154,0.060,0.269,-5.337
0.189,0.058,0.272,-5.337
0.197,0.054,0.272,-5.337
0.242,0.057,0.272,-5.337
0.199,0.059,0.271,-5.337
0.194,0.060,0.269,-5.337
0.193,0.062,0.264,-5.337
0.166,0.061,0.261,-5.337
0.167,0.061,0.262,-5.337
0.223,0.056,0.263,-5.337
0.289,0.057,0.262,-5.337
0.313,0.057,0.264,-5.337
0.240,0.055,0.263,-5.337
0.282,0.054,0.263,-5.337
0.328,0.056,0.268,-5.337
0.218,0.061,0.271,-5.337
0.226,0.060,0.272,-5.337
0.256,0.056,0.266,-5.337
0.264,0.054,0.263,-5.337
0.223,0.057,0.262,-5.337
0.187,0.062,0.263,-5.337
0.156,0.062,0.264,-5.337
0.175,0.060,0.264,-5.337
0.210,0.058,0.263,-5.337
0.219,0.057,0.265,-5.337
0.257,0.052,0.269,-5.337
0.215,0.054,0.272,-5.337
0.195,0.054,0.268,-5.337
0.200,0.053,0.266,-5.337
0.246,0.054,0.267,-5.337
0.247,0.058,0.266,-5.337
0.278,0.059,0.263,-5.337
0.249,0.057,0.259,-5.337
0.218,0.056,0.259,-5.337
0.188,0.060,0.263,-5.337
0.187,0.062,0.266,-5.337
0.211,0.060,0.265,-5.337
0.148,0.060,0.264,-5.337
0.123,0.059,0.263,-5.337
0.167,0.061,0.266,-5.337
0.229,0.060,0.266,-5.337
0.229,0.059,0.267,-5.337
0.266,0.057,0.267,-5.337
0.250,0.059,0.267,-5.337
0.218,0.056,0.267,-5.337
0.212,0.058,0.265,-5.337
0.257,0.055,0.258,-5.337
0.250,0.055,0.258,-5.337
0.232,0.058,0.263,-5.337
0.196,0.062,0.267,-5.337
0.230,0.059,0.264,-5.337
0.255,0.060,0.264,-5.337
0.187,0.060,0.263,-5.337
0.180,0.058,0.266,-5.337
0.236,0.060,0.264,-5.337
0.244,0.063,0.261,-5.337
0.215,0.063,0.265,-5.337
0.179,0.059,0.268,-5.337
0.181,0.055,0.266,-5.337
0.223,0.056,0.265,-5.337
0.240,0.053,0.267,-5.337
0.209,0.055,0.265,-5.337
0.199,0.059,0.264,-5.337
0.227,0.061,0.265,-5.337
0.225,0.060,0.265,-5.337
0.167,0.061,0.263,-5.337
0.126,0.061,0.265,-5.337
0.147,0.057,0.266,-5.337
0.200,0.055,0.265,-5.337
0.257,0.054,0.264,-5.337
0.292,0.055,0.265,-5.337
0.274,0.056,0.263,-5.337
0.229,0.058,0.262,-5.337
0.184,0.058,0.263,-5.337
0.198,0.058,0.262,-5.337
0.246,0.056,0.262,-5.337
0.225,0.059,0.260,-5.337
0.209,0.054,0.259,-5.337
0.225,0.052,0.261,-5.337
0.233,0.054,0.262,-5.337
0.196,0.057,0.263,-5.337
0.230,0.059,0.263,-5.337
0.224,0.058,0.261,-5.337
0.215,0.053,0.260,-5.337
0.202,0.056,0.262,-5.337
0.157,0.056,0.263,-5.337
0.211,0.053,0.267,-5.337
0.248,0.052,0.272,-5.337
0.230,0.054,0.273,-5.337
0.218,0.055,0.271,-5.337
0.262,0.052,0.262,-5.337
0.256,0.049,0.256,-5.337
0.170,0.050,0.258,-5.337
0.144,0.053,0.263,-5.337
0.167,0.057,0.265,-5.337
0.187,0.058,0.262,-5.337
0.178,0.059,0.260,-5.337
0.187,0.058,0.264,-5.337
0.123,0.056,0.264,-5.337
0.150,0.055,0.262,-5.337
0.197,0.056,0.264,-5.337
0.159,0.056,0.267,-5.337
0.153,0.052,0.267,-5.337
0.196,0.053,0.266,-5.337
0.232,0.053,0.267,-5.337
0.214,0.052,0.266,-5.337
0.217,0.049,0.264,-5.337
0.237,0.049,0.261,-5.337
0.280,0.051,0.259,-5.337
0.302,0.051,0.258,-5.337
0.258,0.052,0.263,-5.337
0.254,0.051,0.266,-5.337
0.223,0.052,0.270,-5.337
0.198,0.055,0.270,-5.337
0.173,0.054,0.267,-5.337
0.174,0.051,0.265,-5.337
0.184,0.050,0.263,-5.337
0.170,0.050,0.259,-5.337
0.177,0.052,0.257,-5.337
0.240,0.053,0.256,-5.337
0.244,0.055,0.258,-5.337
0.186,0.052,0.262,-5.337
0.199,0.049,0.265,-5.337
0.261,0.046,0.263,-5.337
0.212,0.050,0.259,-5.337
0.209,0.045,0.258,-5.337
0.246,0.045,0.263,-5.337
0.222,0.049,0.267,-5.337
0.169,0.052,0.266,-5.337
0.222,0.051,0.263,-5.337
0.248,0.052,0.259,-5.337
0.195,0.052,0.257,-5.337
0.187,0.054,0.260,-5.337
0.131,0.058,0.261,-5.337
0.158,0.056,0.260,-5.337
0.255,0.052,0.262,-5.337
0.241,0.052,0.261,-5.337
0.199,0.054,0.261,-5.337
0.135,0.059,0.265,-5.337
0.154,0.055,0.269,-5.337
0.171,0.053,0.263,-5.337
0.151,0.056,0.258,-5.337
0.137,0.053,0.256,-5.337
0.175,0.052,0.259,-5.337
0.253,0.050,0.262,-5.337
0.270,0.049,0.265,-5.337
0.211,0.050,0.264,-5.337
0.234,0.050,0.260,-5.337
0.248,0.049,0.261,-5.337
0.153,0.054,0.261,-5.337
0.162,0.052,0.262,-5.337
0.203,0.050,0.265,-5.337
0.221,0.050,0.265,-5.337
0.205,0.051,0.263,-5.337
0.176,0.051,0.260,-5.337
0.197,0.050,0.260,-5.337
0.143,0.054,0.262,-5.337
0.135,0.056,0.265,-5.337
0.184,0.050,0.267,-5.337
0.235,0.047,0.264,-5.337
0.237,0.046,0.264,-5.337
0.190,0.047,0.260,-5.337
0.129,0.047,0.258,-5.337
0.168,0.045,0.259,-5.337
0.213,0.046,0.262,-5.337
0.267,0.044,0.262,-5.337
0.313,0.046,0.261,-5.337
0.266,0.046,0.259,-5.337
0.173,0.048,0.261,-5.337
0.167,0.046,0.262,-5.337
0.233,0.046,0.262,-5.337
0.254,0.041,0.263,-5.337
0.221,0.042,0.263,-5.337
0.193,0.046,0.262,-5.337
0.177,0.047,0.262,-5.337
0.142,0.048,0.262,-5.337
0.132,0.045,0.265,-5.337
0.215,0.041,0.265,-5.337
0.217,0.041,0.260,-5.337
0.224,0.046,0.258,-5.337
0.282,0.042,0.262,-5.337
0.279,0.044,0.264,-5.337
0.199,0.048,0.264,-5.337
0.123,0.049,0.263,-5.337
0.139,0.045,0.262,-5.337
0.160,0.040,0.263,-5.337
0.128,0.043,0.261,-5.337
0.158,0.043,0.260,-5.337
0.186,0.042,0.260,-5.337
0.172,0.042,0.261,-5.337
0.211,0.040,0.261,-5.337
0.197,0.041,0.261,-5.337
0.123,0.042,0.262,-5.337
0.106,0.044,0.263,-5.337
0.156,0.043,0.260,-5.337
0.202,0.043,0.259,-5.337
0.190,0.044,0.261,-5.337
0.148,0.045,0.267,-5.337
0.127,0.044,0.271,-5.337
0.198,0.044,0.271,-5.337
0.230,0.041,0.268,-5.337
0.187,0.043,0.264,-5.337
0.192,0.042,0.260,-5.337
0.171,0.044,0.258,-5.337
0.136,0.048,0.261,-5.337
0.162,0.049,0.262,-5.337
0.198,0.045,0.261,-5.337
0.191,0.042,0.263,-5.337
0.224,0.040,0.265,-5.337
0.168,0.044,0.261,-5.337
0.129,0.048,0.262,-5.337
0.200,0.043,0.261,-5.337
0.242,0.043,0.262,-5.337
0.210,0.042,0.263,-5.337
0.198,0.041,0.265,-5.337
0.248,0.039,0.262,-5.337
0.256,0.042,0.259,-5.337
0.201,0.042,0.257,-5.337
0.128,0.045,0.260,-5.337
0.098,0.042,0.261,-5.337
0.146,0.041,0.262,-5.337
0.149,0.041,0.264,-5.337
0.151,0.042,0.264,-5.337
0.167,0.042,0.264,-5.337
0.193,0.044,0.262,-5.337
0.174,0.045,0.262,-5.337
0.197,0.041,0.266,-5.337
0.238,0.038,0.267,-5.337
0.204,0.040,0.262,-5.337
0.166,0.043,0.261,-5.337
0.192,0.044,0.261,-5.337
0.215,0.043,0.261,-5.337
0.193,0.042,0.262,-5.337
0.137,0.046,0.266,-5.337
0.133,0.046,0.266,-5.337
0.113,0.043,0.264,-5.337
0.142,0.046,0.258,-5.337
0.178,0.043,0.257,-5.337
0.186,0.041,0.263,-5.337
0.128,0.040,0.268,-5.337
0.180,0.040,0.265,-5.337
0.205,0.042,0.259,-5.337
0.152,0.040,0.262,-5.337
0.162,0.042,0.266,-5.337
0.181,0.042,0.267,-5.337
0.164,0.044,0.267,-5.337
0.145,0.046,0.269,-5.337
0.214,0.042,0.267,-5.337
0.274,0.039,0.265,-5.337
0.314,0.039,0.264,-5.337
0.225,0.047,0.261,-5.337
0.171,0.048,0.260,-5.337
0.236,0.044,0.262,-5.337
0.212,0.043,0.262,-5.337
0.204,0.042,0.258,-5.337
0.212,0.042,0.256,-5.337
0.267,0.042,0.262,-5.337
0.229,0.046,0.267,-5.337
0.160,0.048,0.269,-5.337
0.119,0.049,0.266,-5.337
0.149,0.046,0.265,-5.337
0.189,0.043,0.263,-5.337
0.175,0.044,0.266,-5.337
0.152,0.046,0.266,-5.337
0.213,0.047,0.268,-5.337
0.183,0.046,0.265,-5.337
0.114,0.045,0.262,-5.337
0.132,0.043,0.261,-5.337
0.189,0.046,0.262,-5.337
0.221,0.043,0.259,-5.337
0.213,0.040,0.261,-5.337
0.181,0.042,0.263,-5.337
0.164,0.042,0.263,-5.337
0.167,0.042,0.264,-5.337
0.167,0.043,0.268,-5.337
0.133,0.044,0.267,-5.337
0.090,0.045,0.261,-5.337
0.092,0.041,0.259,-5.337
0.176,0.038,0.259,-5.337
0.230,0.040,0.262,-5.337
0.184,0.038,0.263,-5.337
0.182,0.034,0.262,-5.337
0.250,0.031,0.260,-5.337
0.246,0.036,0.263,-5.337
0.207,0.039,0.265,-5.337
0.173,0.037,0.269,-5.337
0.166,0.035,0.266,-5.337
0.214,0.035,0.264,-5.337
0.219,0.037,0.262,-5.337
0.251,0.038,0.259,-5.337
0.261,0.037,0.261,-5.337
0.201,0.037,0.263,-5.337
0.190,0.036,0.265,-5.337
0.195,0.039,0.265,-5.337
0.172,0.038,0.265,-5.337
0.127,0.039,0.266,-5.337
0.124,0.042,0.266,-5.337
0.134,0.042,0.268,-5.337
0.113,0.046,0.265,-5.337
0.124,0.043,0.262,-5.337
0.161,0.040,0.258,-5.337
0.166,0.039,0.259,-5.337
0.180,0.038,0.262,-5.337
0.183,0.038,0.261,-5.337
0.208,0.039,0.260,-5.337
0.232,0.041,0.258,-5.337
0.230,0.042,0.259,-5.337
0.196,0.040,0.260,-5.337
0.220,0.040,0.260,-5.337
0.243,0.042,0.259,-5.337
0.221,0.047,0.265,-5.337
0.129,0.046,0.267,-5.337
0.130,0.046,0.267,-5.337
0.157,0.043,0.262,-5.337
0.154,0.041,0.260,-5.337
0.085,0.041,0.262,-5.337
0.127,0.043,0.265,-5.337
0.191,0.045,0.266,-5.337
0.157,0.044,0.267,-5.337
0.130,0.041,0.263,-5.337
0.099,0.042,0.262,-5.337
0.160,0.043,0.264,-5.337
0.241,0.040,0.267,-5.337
0.224,0.042,0.268,-5.337
0.196,0.044,0.266,-5.337
0.208,0.046,0.261,-5.337
0.189,0.045,0.258,-5.337
0.180,0.046,0.262,-5.337
0.151,0.044,0.265,-5.337
0.181,0.043,0.265,-5.337
0.180,0.041,0.261,-5.337
0.198,0.041,0.260,-5.337
0.215,0.041,0.260,-5.337
0.223,0.041,0.263,-5.337
0.172,0.041,0.265,-5.337
0.113,0.041,0.268,-5.337
0.115,0.040,0.266,-5.337
0.101,0.037,0.267,-5.337
0.111,0.035,0.265,-5.337
0.097,0.037,0.261,-5.337
0.103,0.039,0.258,-5.337
0.207,0.041,0.258,-5.337
0.241,0.039,0.258,-5.337
0.221,0.042,0.261,-5.337
0.166,0.042,0.264,-5.337
0.127,0.046,0.264,-5.337
0.129,0.043,0.263,-5.337
0.252,0.040,0.263,-5.337
0.337,0.037,0.263,-5.337
0.302,0.038,0.264,-5.337
0.206,0.038,0.263,-5.337
0.202,0.040,0.262,-5.337
0.206,0.044,0.264,-5.337
0.211,0.042,0.265,-5.337
0.214,0.041,0.267,-5.337
0.180,0.041,0.267,-5.337
0.161,0.045,0.268,-5.337
0.154,0.044,0.264,-5.337
0.187,0.043,0.265,-5.337
0.137,0.048,0.264,-5.337
0.104,0.047,0.263,-5.337
0.168,0.042,0.263,-5.337
0.216,0.041,0.262,-5.337
0.228,0.042,0.262,-5.337
0.207,0.043,0.262,-5.337
0.198,0.041,0.262,-5.337
0.140,0.043,0.263,-5.337
0.195,0.045,0.262,-5.337
0.235,0.044,0.262,-5.337
0.217,0.042,0.265,-5.337
0.207,0.044,0.268,-5.337
0.205,0.044,0.267,-5.337
0.218,0.041,0.262,-5.337
0.231,0.040,0.263,-5.337
0.216,0.042,0.265,-5.337
0.235,0.043,0.267,-5.337
0.231,0.042,0.267,-5.337
0.253,0.041,0.267,-5.337
0.174,0.042,0.264,-5.337
0.185,0.041,0.261,-5.337
0.254,0.041,0.260,-5.337
0.270,0.041,0.262,-5.337
0.268,0.038,0.266,-5.337
0.227,0.043,0.272,-5.337
0.239,0.046,0.271,-5.337
0.289,0.045,0.267,-5.337
0.240,0.044,0.261,-5.337
0.198,0.047,0.260,-5.337
0.176,0.047,0.260,-5.337
0.188,0.042,0.264,-5.337
0.170,0.042,0.266,-5.337
0.167,0.044,0.267,-5.337
0.227,0.041,0.266,-5.337
0.215,0.043,0.263,-5.337
0.172,0.044,0.259,-5.337
0.185,0.042,0.263,-5.337
0.253,0.040,0.266,-5.337
0.266,0.043,0.266,-5.337
0.190,0.047,0.264,-5.337
0.160,0.047,0.264,-5.337
0.165,0.046,0.264,-5.337
0.163,0.049,0.263,-5.337
0.146,0.047,0.263,-5.337
0.130,0.048,0.261,-5.337
0.181,0.052,0.261,-5.337
0.230,0.051,0.257,-5.337
0.241,0.049,0.258,-5.337
0.241,0.046,0.262,-5.337
0.209,0.049,0.264,-5.337
0.207,0.047,0.262,-5.337
0.188,0.052,0.261,-5.337
0.235,0.050,0.264,-5.337
0.309,0.048,0.266,-5.337
0.234,0.051,0.264,-5.337
0.208,0.049,0.265,-5.337
0.169,0.050,0.267,-5.337
0.107,0.051,0.267,-5.337
0.096,0.053,0.265,-5.337
0.101,0.049,0.262,-5.337
0.220,0.043,0.261,-5.337
0.314,0.043,0.259,-5.337
0.252,0.044,0.261,-5.337
0.153,0.045,0.267,-5.337
0.153,0.045,0.270,-5.337
0.199,0.049,0.268,-5.337
0.224,0.046,0.267,-5.337
0.230,0.046,0.265,-5.337
0.212,0.048,0.261,-5.337
0.211,0.050,0.257,-5.337
0.278,0.046,0.258,-5.337
0.280,0.046,0.255,-5.337
0.210,0.049,0.259,-5.337
0.217,0.047,0.265,-5.337
0.241,0.049,0.266,-5.337
0.249,0.053,0.262,-5.337
0.271,0.052,0.259,-5.337
0.272,0.047,0.258,-5.337
0.235,0.050,0.261,-5.337
0.171,0.054,0.262,-5.337
0.184,0.050,0.260,-5.337
0.266,0.049,0.261,-5.337
0.266,0.047,0.268,-5.337
0.294,0.045,0.267,-5.337
0.255,0.047,0.267,-5.337
0.228,0.050,0.266,-5.337
0.192,0.051,0.267,-5.337
0.150,0.051,0.265,-5.337
0.154,0.053,0.261,-5.337
0.170,0.052,0.260,-5.337
0.155,0.050,0.259,-5.337
0.160,0.050,0.262,-5.337
0.155,0.050,0.262,-5.337
0.168,0.051,0.263,-5.337
0.186,0.056,0.259,-5.337
0.179,0.059,0.260,-5.337
0.212,0.054,0.260,-5.337
0.274,0.052,0.263,-5.337
0.248,0.055,0.263,-5.337
0.165,0.058,0.260,-5.337
0.131,0.059,0.258,-5.337
0.142,0.059,0.260,-5.337
0.158,0.053,0.266,-5.337
0.160,0.055,0.270,-5.337
0.157,0.053,0.271,-5.337
0.163,0.053,0.268,-5.337
0.157,0.052,0.263,-5.337
0.195,0.045,0.259,-5.337
0.239,0.044,0.257,-5.337
0.259,0.048,0.261,-5.337
0.238,0.050,0.261,-5.337
0.263,0.050,0.260,-5.337
0.277,0.048,0.260,-5.337
0.228,0.050,0.261,-5.337
0.241,0.047,0.266,-5.337
0.275,0.052,0.267,-5.337
0.281,0.053,0.264,-5.337
0.263,0.055,0.262,-5.337
0.228,0.055,0.263,-5.337
0.165,0.056,0.262,-5.337
0.163,0.056,0.262,-5.337
0.222,0.055,0.261,-5.337
0.245,0.055,0.265,-5.337
0.246,0.054,0.265,-5.337
0.198,0.059,0.261,-5.337
0.162,0.059,0.261,-5.337
0.130,0.058,0.264,-5.337
0.195,0.054,0.265,-5.337
0.261,0.052,0.264,-5.337
0.253,0.050,0.263,-5.337
0.216,0.052,0.262,-5.337
0.214,0.055,0.261,-5.337
0.237,0.050,0.260,-5.337
0.257,0.049,0.261,-5.337
0.269,0.053,0.263,-5.337
0.269,0.053,0.263,-5.337
0.225,0.051,0.263,-5.337
0.212,0.052,0.260,-5.337
0.250,0.052,0.260,-5.337
0.294,0.051,0.262,-5.337
0.269,0.052,0.263,-5.337
0.239,0.052,0.265,-5.337
0.211,0.052,0.267,-5.337
0.224,0.051,0.268,-5.337
0.253,0.050,0.266,-5.337
0.175,0.055,0.265,-5.337
0.104,0.058,0.262,-5.337
0.203,0.055,0.263,-5.337
0.312,0.052,0.261,-5.337
0.290,0.049,0.260,-5.337
0.216,0.052,0.261,-5.337
0.179,0.058,0.266,-5.337
0.204,0.054,0.268,-5.337
0.229,0.051,0.267,-5.337
0.166,0.054,0.265,-5.337
0.164,0.056,0.264,-5.337
0.250,0.053,0.261,-5.337
0.259,0.051,0.259,-5.337
0.261,0.052,0.262,-5.337
0.219,0.058,0.263,-5.337
0.173,0.060,0.263,-5.337
0.215,0.058,0.264,-5.337
0.265,0.059,0.262,-5.337
0.289,0.059,0.262,-5.337
0.244,0.057,0.265,-5.337
0.216,0.055,0.264,-5.337
0.196,0.056,0.262,-5.337
0.247,0.055,0.260,-5.337
0.212,0.053,0.265,-5.337
0.182,0.052,0.266,-5.337
0.173,0.054,0.268,-5.337
0.172,0.054,0.267,-5.337
0.161,0.056,0.270,-5.337
0.192,0.054,0.270,-5.337
0.238,0.054,0.266,-5.337
0.195,0.054,0.261,-5.337
0.189,0.052,0.261,-5.337
0.248,0.050,0.264,-5.337
0.350,0.051,0.264,-5.337
0.318,0.050,0.259,-5.337
0.155,0.054,0.260,-5.337
0.165,0.052,0.263,-5.337
0.277,0.052,0.265,-5.337
0.275,0.053,0.263,-5.337
0.258,0.052,0.261,-5.337
0.285,0.052,0.261,-5.337
0.247,0.055,0.262,-5.337
0.234,0.051,0.263,-5.337
0.193,0.057,0.264,-5.337
0.158,0.057,0.266,-5.337
0.151,0.057,0.266,-5.337
0.179,0.056,0.264,-5.337
0.212,0.054,0.260,-5.337
0.231,0.055,0.262,-5.337
0.264,0.055,0.264,-5.337
0.230,0.058,0.265,-5.337
0.189,0.058,0.267,-5.337
0.241,0.056,0.269,-5.337
0.264,0.054,0.267,-5.337
0.250,0.057,0.262,-5.337
0.261,0.057,0.260,-5.337
0.222,0.054,0.265,-5.337
0.258,0.054,0.269,-5.337
0.310,0.053,0.267,-5.337
0.319,0.053,0.266,-5.337
0.276,0.056,0.263,-5.337
0.242,0.058,0.260,-5.337
0.246,0.061,0.260,-5.337
0.253,0.057,0.263,-5.337
0.227,0.057,0.267,-5.337
0.205,0.060,0.266,-5.337
0.189,0.061,0.263,-5.337
0.133,0.064,0.262,-5.337
0.167,0.063,0.262,-5.337
0.163,0.064,0.265,-5.337
0.163,0.060,0.267,-5.337
0.216,0.058,0.265,-5.337
0.315,0.056,0.260,-5.337
0.314,0.056,0.260,-5.337
0.265,0.058,0.258,-5.337
0.202,0.062,0.258,-5.337
0.193,0.061,0.259,-5.337
0.252,0.059,0.264,-5.337
0.308,0.059,0.262,-5.337
0.231,0.058,0.263,-5.337
0.250,0.054,0.268,-5.337
0.259,0.056,0.267,-5.337
0.174,0.061,0.263,-5.337
0.165,0.060,0.262,-5.337
0.180,0.057,0.265,-5.337
0.155,0.055,0.267,-5.337
0.240,0.051,0.263,-5.337
0.380,0.052,0.259,-5.337
0.292,0.055,0.259,-5.337
0.148,0.059,0.261,-5.337
0.203,0.055,0.261,-5.337
0.258,0.052,0.262,-5.337
0.268,0.050,0.264,-5.337
0.261,0.052,0.264,-5.337
0.247,0.055,0.266,-5.337
0.152,0.054,0.264,-5.337
0.102,0.054,0.262,-5.337
0.133,0.055,0.263,-5.337
0.193,0.054,0.266,-5.337
0.284,0.054,0.262,-5.337
0.253,0.058,0.261,-5.337
0.175,0.055,0.260,-5.337
0.206,0.050,0.262,-5.337
0.286,0.046,0.264,-5.337
0.302,0.051,0.264,-5.337
0.243,0.055,0.263,-5.337
0.194,0.054,0.264,-5.337
0.158,0.051,0.265,-5.337
0.168,0.054,0.268,-5.337
0.130,0.056,0.267,-5.337
0.083,0.058,0.266,-5.337
0.111,0.056,0.266,-5.337
0.173,0.052,0.259,-5.337
0.227,0.054,0.256,-5.337
0.266,0.054,0.259,-5.337
0.201,0.052,0.264,-5.337
0.150,0.054,0.265,-5.337
0.157,0.052,0.265,-5.337
0.177,0.053,0.267,-5.337
0.225,0.051,0.270,-5.337
0.247,0.050,0.269,-5.337
0.163,0.054,0.267,-5.337
0.130,0.055,0.266,-5.337
0.121,0.055,0.268,-5.337
0.205,0.050,0.265,-5.337
0.205,0.050,0.261,-5.337
0.107,0.051,0.259,-5.337
0.163,0.050,0.266,-5.337
0.210,0.048,0.268,-5.337
0.203,0.045,0.266,-5.337
0.175,0.045,0.262,-5.337
0.122,0.048,0.262,-5.337
0.129,0.047,0.261,-5.337
0.154,0.049,0.262,-5.337
0.148,0.048,0.263,-5.337
0.205,0.047,0.263,-5.337
0.202,0.044,0.264,-5.337
0.236,0.042,0.266,-5.337
0.270,0.045,0.268,-5.337
0.239,0.047,0.268,-5.337
0.153,0.048,0.265,-5.337
0.180,0.048,0.267,-5.337
0.207,0.047,0.269,-5.337
0.259,0.048,0.266,-5.337
0.232,0.046,0.268,-5.337
0.152,0.051,0.267,-5.337
0.163,0.052,0.265,-5.337
0.146,0.049,0.261,-5.337
0.160,0.044,0.262,-5.337
0.209,0.046,0.265,-5.337
0.209,0.050,0.266,-5.337
0.148,0.048,0.264,-5.337
0.194,0.047,0.260,-5.337
0.295,0.044,0.257,-5.337
0.323,0.046,0.257,-5.337
0.242,0.044,0.260,-5.337
0.131,0.043,0.263,-5.337
0.142,0.044,0.264,-5.337
0.198,0.044,0.266,-5.337
0.223,0.043,0.265,-5.337
0.213,0.045,0.266,-5.337
0.191,0.044,0.264,-5.337
0.160,0.042,0.263,-5.337
0.216,0.039,0.263,-5.337
0.249,0.044,0.261,-5.337
0.186,0.047,0.263,-5.337
0.209,0.044,0.265,-5.337
0.243,0.042,0.266,-5.337
0.208,0.042,0.263,-5.337
0.182,0.042,0.264,-5.337
0.198,0.040,0.266,-5.337
0.173,0.043,0.266,-5.337
0.160,0.041,0.261,-5.337
0.150,0.044,0.258,-5.337
0.112,0.047,0.257,-5.337
0.123,0.046,0.262,-5.337
0.218,0.040,0.264,-5.337
0.272,0.042,0.266,-5.337
0.223,0.040,0.263,-5.337
0.198,0.044,0.258,-5.337
0.194,0.043,0.259,-5.337
0.135,0.043,0.263,-5.337
0.178,0.041,0.263,-5.337
0.196,0.042,0.260,-5.337
0.140,0.045,0.259,-5.337
0.163,0.041,0.263,-5.337
0.193,0.042,0.267,-5.337
0.179,0.044,0.267,-5.337
0.202,0.044,0.265,-5.337
0.292,0.038,0.263,-5.337
0.247,0.041,0.264,-5.337
0.165,0.044,0.264,-5.337
0.201,0.044,0.263,-5.337
0.264,0.038,0.262,-5.337
0.274,0.041,0.264,-5.337
0.243,0.042,0.264,-5.337
0.237,0.043,0.260,-5.337
0.206,0.044,0.260,-5.337
0.154,0.042,0.262,-5.337
0.203,0.038,0.264,-5.337
0.198,0.041,0.264,-5.337
0.203,0.044,0.263,-5.337
0.152,0.043,0.261,-5.337
0.133,0.041,0.263,-5.337
0.142,0.043,0.265,-5.337
0.144,0.040,0.262,-5.337
0.171,0.038,0.263,-5.337
0.161,0.041,0.262,-5.337
0.202,0.040,0.262,-5.337
0.248,0.041,0.260,-5.337
0.232,0.042,0.259,-5.337
0.207,0.042,0.260,-5.337
0.174,0.039,0.262,-5.337
0.179,0.039,0.265,-5.337
0.257,0.039,0.267,-5.337
0.312,0.041,0.270,-5.337
0.237,0.041,0.268,-5.337
0.172,0.040,0.265,-5.337
0.240,0.039,0.262,-5.337
0.240,0.040,0.260,-5.337
0.221,0.040,0.259,-5.337
0.175,0.043,0.258,-5.337
0.117,0.045,0.257,-5.337
0.132,0.044,0.260,-5.337
0.117,0.045,0.263,-5.337
0.123,0.045,0.265,-5.337
0.133,0.043,0.262,-5.337
0.144,0.041,0.258,-5.337
0.188,0.040,0.258,-5.337
0.191,0.041,0.263,-5.337
0.188,0.038,0.266,-5.337
0.203,0.040,0.267,-5.337
0.175,0.040,0.265,-5.337
0.158,0.041,0.265,-5.337
0.100,0.045,0.267,-5.337
0.096,0.046,0.263,-5.337
0.163,0.040,0.261,-5.337
0.208,0.039,0.264,-5.337
0.243,0.040,0.266,-5.337
0.211,0.040,0.262,-5.337
0.154,0.044,0.261,-5.337
0.155,0.042,0.260,-5.337
0.122,0.043,0.263,-5.337
0.173,0.044,0.262,-5.337
0.216,0.040,0.261,-5.337
0.175,0.036,0.261,-5.337
0.144,0.040,0.262,-5.337
0.141,0.042,0.261,-5.337
0.149,0.045,0.260,-5.337
0.223,0.040,0.260,-5.337
0.213,0.039,0.266,-5.337
0.155,0.036,0.272,-5.337
0.159,0.038,0.273,-5.337
0.214,0.038,0.269,-5.337
0.149,0.042,0.265,-5.337
0.034,0.046,0.263,-5.337
0.126,0.045,0.265,-5.337
0.196,0.042,0.265,-5.337
0.217,0.041,0.263,-5.337
0.182,0.040,0.262,-5.337
0.192,0.041,0.260,-5.337
0.197,0.042,0.259,-5.337
0.184,0.041,0.258,-5.337
0.219,0.036,0.262,-5.337
0.207,0.033,0.265,-5.337
0.169,0.035,0.264,-5.337
0.178,0.035,0.262,-5.337
0.228,0.036,0.262,-5.337
0.212,0.039,0.265,-5.337
0.144,0.041,0.269,-5.337
0.151,0.039,0.265,-5.337
0.239,0.036,0.264,-5.337
0.230,0.037,0.264,-5.337
0.205,0.037,0.263,-5.337
0.242,0.037,0.264,-5.337
0.223,0.039,0.265,-5.337
0.208,0.040,0.264,-5.337
0.139,0.043,0.264,-5.337
0.104,0.042,0.264,-5.337
0.148,0.042,0.261,-5.337
0.208,0.042,0.260,-5.337
0.190,0.043,0.263,-5.337
0.145,0.043,0.263,-5.337
0.121,0.040,0.263,-5.337
0.184,0.038,0.263,-5.337
0.182,0.041,0.261,-5.337
0.131,0.047,0.262,-5.337
0.180,0.043,0.263,-5.337
0.252,0.041,0.266,-5.337
0.222,0.046,0.267,-5.337
0.190,0.045,0.267,-5.337
0.213,0.045,0.265,-5.337
0.207,0.046,0.262,-5.337
0.186,0.043,0.261,-5.337
0.156,0.040,0.265,-5.337
0.175,0.040,0.266,-5.337
0.166,0.041,0.267,-5.337
0.170,0.039,0.266,-5.337
0.204,0.038,0.263,-5.337
0.233,0.039,0.263,-5.337
0.226,0.041,0.263,-5.337
0.172,0.037,0.264,-5.337
0.166,0.034,0.262,-5.337
0.140,0.037,0.259,-5.337
0.161,0.036,0.258,-5.337
0.238,0.035,0.259,-5.337
0.247,0.036,0.262,-5.337
0.186,0.035,0.264,-5.337
0.154,0.039,0.267,-5.337
0.174,0.040,0.268,-5.337
0.158,0.043,0.268,-5.337
0.169,0.040,0.268,-5.337
0.159,0.040,0.265,-5.337
0.183,0.040,0.264,-5.337
0.204,0.039,0.261,-5.337
0.195,0.041,0.262,-5.337
0.185,0.042,0.266,-5.337
0.174,0.043,0.268,-5.337
0.187,0.040,0.268,-5.337
0.194,0.039,0.268,-5.337
0.248,0.038,0.267,-5.337
0.260,0.039,0.266,-5.337
0.226,0.038,0.268,-5.337
0.178,0.039,0.267,-5.337
0.158,0.042,0.263,-5.337
0.195,0.038,0.262,-5.337
0.220,0.037,0.261,-5.337
0.158,0.041,0.262,-5.337
0.132,0.039,0.261,-5.337
0.114,0.039,0.263,-5.337
0.117,0.040,0.263,-5.337
0.182,0.042,0.262,-5.337
0.239,0.041,0.263,-5.337
0.225,0.042,0.264,-5.337
0.176,0.045,0.264,-5.337
0.158,0.044,0.265,-5.337
0.226,0.041,0.265,-5.337
0.291,0.036,0.265,-5.337
0.286,0.038,0.264,-5.337
0.248,0.042,0.265,-5.337
0.199,0.043,0.265,-5.337
0.245,0.039,0.265,-5.337
0.299,0.038,0.265,-5.337
0.219,0.042,0.263,-5.337
0.177,0.045,0.262,-5.337
0.162,0.046,0.264,-5.337
0.144,0.043,0.267,-5.337
0.123,0.040,0.266,-5.337
0.115,0.042,0.260,-5.337
0.146,0.047,0.257,-5.337
0.121,0.050,0.261,-5.337
0.080,0.052,0.261,-5.337
0.177,0.050,0.262,-5.337
0.254,0.047,0.260,-5.337
0.242,0.046,0.262,-5.337
0.198,0.049,0.267,-5.337
0.199,0.046,0.269,-5.337
0.250,0.038,0.265,-5.337
0.276,0.039,0.262,-5.337
0.202,0.044,0.263,-5.337
0.210,0.045,0.265,-5.337
0.229,0.045,0.267,-5.337
0.221,0.044,0.268,-5.337
0.207,0.046,0.266,-5.337
0.126,0.049,0.263,-5.337
0.170,0.049,0.260,-5.337
0.267,0.048,0.261,-5.337
0.270,0.052,0.265,-5.337
0.230,0.047,0.269,-5.337
0.193,0.045,0.269,-5.337
0.166,0.046,0.265,-5.337
0.176,0.050,0.262,-5.337
0.203,0.048,0.260,-5.337
0.206,0.048,0.259,-5.337
0.203,0.045,0.259,-5.337
0.175,0.044,0.265,-5.337
0.178,0.044,0.267,-5.337
0.192,0.043,0.266,-5.337
0.163,0.047,0.261,-5.337
0.179,0.048,0.260,-5.337
0.245,0.047,0.263,-5.337
0.273,0.048,0.264,-5.337
0.288,0.049,0.265,-5.337
0.277,0.050,0.266,-5.337
0.196,0.049,0.268,-5.337
0.199,0.051,0.269,-5.337
0.191,0.049,0.268,-5.337
0.198,0.047,0.267,-5.337
0.187,0.050,0.267,-5.337
0.162,0.050,0.267,-5.337
0.215,0.047,0.266,-5.337
0.275,0.046,0.266,-5.337
0.218,0.048,0.267,-5.337
0.220,0.050,0.266,-5.337
0.241,0.053,0.267,-5.337
0.265,0.050,0.267,-5.337
0.273,0.047,0.267,-5.337
0.258,0.045,0.269,-5.337
0.216,0.048,0.268,-5.337
0.195,0.049,0.265,-5.337
0.240,0.049,0.266,-5.337
0.242,0.051,0.264,-5.337
0.242,0.050,0.264,-5.337
0.176,0.049,0.265,-5.337
0.152,0.051,0.266,-5.337
0.128,0.054,0.266,-5.337
0.140,0.053,0.266,-5.337
0.196,0.051,0.269,-5.337
0.153,0.053,0.269,-5.337
0.147,0.055,0.270,-5.337
0.211,0.054,0.268,-5.337
0.245,0.054,0.269,-5.337
0.241,0.052,0.265,-5.337
0.175,0.056,0.264,-5.337
0.142,0.057,0.262,-5.337
0.141,0.056,0.261,-5.337
0.194,0.055,0.262,-5.337
0.256,0.056,0.261,-5.337
0.213,0.056,0.257,-5.337
0.191,0.054,0.259,-5.337
0.255,0.054,0.265,-5.337
0.276,0.051,0.267,-5.337
0.250,0.052,0.265,-5.337
0.220,0.053,0.267,-5.337
0.200,0.054,0.267,-5.337
0.195,0.056,0.264,-5.337
0.213,0.061,0.262,-5.337
0.212,0.061,0.263,-5.337
0.269,0.056,0.265,-5.337
0.244,0.056,0.265,-5.337
0.246,0.059,0.265,-5.337
0.224,0.061,0.261,-5.337
0.224,0.057,0.261,-5.337
0.276,0.054,0.260,-5.337
0.274,0.055,0.261,-5.337
0.246,0.060,0.259,-5.337
0.282,0.057,0.263,-5.337
0.312,0.055,0.264,-5.337
0.285,0.054,0.266,-5.337
0.218,0.053,0.264,-5.337
0.203,0.054,0.265,-5.337
0.158,0.057,0.266,-5.337
0.090,0.061,0.270,-5.337
0.172,0.055,0.268,-5.337
0.268,0.054,0.264,-5.337
0.248,0.055,0.262,-5.337
0.196,0.058,0.265,-5.337
0.228,0.056,0.264,-5.337
0.226,0.057,0.261,-5.337
0.219,0.059,0.261,-5.337
0.216,0.059,0.265,-5.337
0.182,0.058,0.268,-5.337
0.169,0.055,0.267,-5.337
0.191,0.057,0.268,-5.337
0.181,0.059,0.268,-5.337
0.125,0.059,0.265,-5.337
0.129,0.058,0.261,-5.337
0.147,0.057,0.260,-5.337
0.179,0.053,0.260,-5.337
0.274,0.051,0.261,-5.337
0.306,0.053,0.255,-5.337
0.303,0.053,0.257,-5.337
0.315,0.055,0.265,-5.337
0.262,0.062,0.266,-5.337
0.285,0.057,0.264,-5.337
0.307,0.056,0.263,-5.337
0.252,0.054,0.261,-5.337
0.217,0.059,0.265,-5.337
0.207,0.059,0.268,-5.337
0.222,0.060,0.268,-5.337
0.269,0.056,0.267,-5.337
0.237,0.057,0.264,-5.337
0.141,0.059,0.261,-5.337
0.176,0.059,0.262,-5.337
0.233,0.057,0.264,-5.337
0.292,0.056,0.262,-5.337
0.266,0.057,0.262,-5.337
0.217,0.057,0.266,-5.337
0.223,0.059,0.270,-5.337
0.221,0.059,0.267,-5.337
0.226,0.062,0.263,-5.337
0.280,0.063,0.262,-5.337
0.295,0.063,0.262,-5.337
0.278,0.064,0.261,-5.337
0.254,0.062,0.262,-5.337
0.237,0.059,0.260,-5.337
0.227,0.057,0.259,-5.337
0.187,0.060,0.262,-5.337
0.165,0.059,0.264,-5.337
0.214,0.054,0.265,-5.337
0.259,0.054,0.267,-5.337
0.204,0.053,0.264,-5.337
0.203,0.054,0.261,-5.337
0.197,0.056,0.262,-5.337
0.189,0.059,0.267,-5.337
0.194,0.056,0.268,-5.337
0.199,0.056,0.269,-5.337
0.208,0.059,0.267,-5.337
0.222,0.060,0.262,-5.337
0.240,0.064,0.258,-5.337
0.207,0.064,0.258,-5.337
0.220,0.059,0.260,-5.337
0.258,0.059,0.265,-5.337
0.232,0.063,0.269,-5.337
0.225,0.063,0.270,-5.337
0.227,0.062,0.269,-5.337
0.201,0.057,0.266,-5.337
0.234,0.057,0.268,-5.337
0.260,0.061,0.266,-5.337
0.253,0.058,0.263,-5.337
0.239,0.054,0.259,-5.337
0.194,0.056,0.263,-5.337
0.233,0.054,0.264,-5.337
0.243,0.054,0.261,-5.337
0.281,0.052,0.260,-5.337
0.278,0.053,0.263,-5.337
0.231,0.051,0.264,-5.337
0.251,0.052,0.264,-5.337
0.261,0.055,0.261,-5.337
0.220,0.060,0.260,-5.337
0.225,0.056,0.259,-5.337
0.261,0.058,0.261,-5.337
0.288,0.055,0.266,-5.337
0.247,0.057,0.268,-5.337
0.179,0.059,0.266,-5.337
0.165,0.058,0.264,-5.337
0.188,0.057,0.265,-5.337
0.292,0.055,0.267,-5.337
0.291,0.052,0.264,-5.337
0.158,0.054,0.260,-5.337
0.153,0.054,0.262,-5.337
0.274,0.053,0.261,-5.337
0.327,0.053,0.263,-5.337
0.252,0.056,0.265,-5.337
0.210,0.056,0.269,-5.337
0.251,0.056,0.267,-5.337
0.197,0.058,0.264,-5.337
0.175,0.059,0.265,-5.337
0.164,0.059,0.267,-5.337
0.212,0.057,0.264,-5.337
0.240,0.054,0.261,-5.337
0.253,0.053,0.260,-5.337
0.267,0.056,0.264,-5.337
0.217,0.059,0.266,-5.337
0.156,0.060,0.264,-5.337
0.153,0.057,0.261,-5.337
0.180,0.054,0.259,-5.337
0.140,0.056,0.259,-5.337
0.168,0.055,0.261,-5.337
0.225,0.053,0.261,-5.337
0.232,0.055,0.261,-5.337
0.255,0.055,0.265,-5.337
0.232,0.052,0.268,-5.337
0.268,0.054,0.268,-5.337
0.227,0.059,0.267,-5.337
0.209,0.061,0.268,-5.337
0.165,0.060,0.269,-5.337
0.222,0.055,0.267,-5.337
0.269,0.052,0.265,-5.337
0.290,0.053,0.267,-5.337
0.272,0.055,0.264,-5.337
0.161,0.055,0.263,-5.337
0.216,0.054,0.264,-5.337
0.279,0.054,0.265,-5.337
0.272,0.057,0.262,-5.337
0.194,0.061,0.259,-5.337
0.159,0.056,0.258,-5.337
0.233,0.052,0.260,-5.337
0.262,0.053,0.265,-5.337
0.264,0.054,0.264,-5.337
0.283,0.055,0.262,-5.337
0.214,0.056,0.264,-5.337
0.226,0.055,0.266,-5.337
0.300,0.055,0.266,-5.337
0.270,0.052,0.262,-5.337
0.192,0.052,0.260,-5.337
0.172,0.054,0.261,-5.337
0.243,0.051,0.264,-5.337
0.198,0.056,0.267,-5.337
0.145,0.057,0.265,-5.337
0.176,0.053,0.264,-5.337
0.200,0.052,0.262,-5.337
0.208,0.057,0.264,-5.337
0.258,0.057,0.264,-5.337
0.276,0.055,0.269,-5.337
0.274,0.053,0.269,-5.337
0.269,0.051,0.266,-5.337
0.245,0.052,0.264,-5.337
0.211,0.054,0.264,-5.337
0.193,0.054,0.263,-5.337
0.217,0.058,0.261,-5.337
0.182,0.058,0.262,-5.337
0.142,0.054,0.265,-5.337
0.221,0.048,0.267,-5.337
0.177,0.052,0.268,-5.337
0.156,0.053,0.266,-5.337
0.216,0.051,0.262,-5.337
0.156,0.053,0.261,-5.337
0.192,0.052,0.263,-5.337
0.239,0.047,0.266,-5.337
0.258,0.048,0.264,-5.337
0.217,0.050,0.260,-5.337
0.184,0.051,0.259,-5.337
0.206,0.051,0.261,-5.337
0.257,0.049,0.262,-5.337
0.276,0.048,0.264,-5.337
0.257,0.046,0.265,-5.337
0.224,0.047,0.267,-5.337
0.244,0.047,0.263,-5.337
0.258,0.048,0.261,-5.337
0.249,0.048,0.262,-5.337
0.293,0.045,0.264,-5.337
0.261,0.044,0.266,-5.337
0.179,0.045,0.269,-5.337
0.169,0.048,0.268,-5.337
0.197,0.049,0.265,-5.337
0.179,0.047,0.262,-5.337
0.218,0.047,0.260,-5.337
0.271,0.046,0.259,-5.337
0.228,0.044,0.261,-5.337
0.193,0.042,0.263,-5.337
0.242,0.043,0.264,-5.337
0.280,0.046,0.264,-5.337
0.265,0.045,0.265,-5.337
0.191,0.044,0.265,-5.337
0.219,0.043,0.265,-5.337
0.251,0.044,0.263,-5.337
0.172,0.043,0.262,-5.337
0.106,0.044,0.265,-5.337
0.140,0.042,0.267,-5.337
0.157,0.044,0.268,-5.337
0.191,0.042,0.267,-5.337
0.200,0.041,0.269,-5.337
0.255,0.041,0.265,-5.337
0.238,0.044,0.263,-5.337
0.181,0.043,0.261,-5.337
0.178,0.050,0.261,-5.337
0.271,0.044,0.258,-5.337
0.286,0.042,0.263,-5.337
0.215,0.041,0.266,-5.337
0.198,0.044,0.269,-5.337
0.194,0.042,0.270,-5.337
0.205,0.042,0.267,-5.337
0.177,0.040,0.264,-5.337
0.146,0.040,0.266,-5.337
0.163,0.041,0.265,-5.337
0.205,0.039,0.263,-5.337
0.242,0.039,0.263,-5.337
0.181,0.042,0.265,-5.337
0.208,0.041,0.265,-5.337
0.249,0.039,0.264,-5.337
0.285,0.037,0.264,-5.337
0.256,0.038,0.264,-5.337
0.237,0.037,0.265,-5.337
0.209,0.039,0.263,-5.337
0.219,0.036,0.266,-5.337
0.193,0.039,0.270,-5.337
0.164,0.042,0.270,-5.337
0.153,0.042,0.263,-5.337
0.187,0.041,0.261,-5.337
0.204,0.044,0.262,-5.337
0.137,0.047,0.263,-5.337
0.181,0.042,0.265,-5.337
0.194,0.045,0.270,-5.337
0.218,0.042,0.269,-5.337
0.244,0.041,0.261,-5.337
0.240,0.040,0.258,-5.337
0.229,0.039,0.261,-5.337
0.240,0.038,0.263,-5.337
0.223,0.042,0.266,-5.337
0.205,0.040,0.269,-5.337
0.197,0.037,0.270,-5.337
0.203,0.039,0.270,-5.337
0.200,0.039,0.265,-5.337
0.219,0.039,0.266,-5.337
0.193,0.039,0.267,-5.337
0.166,0.038,0.267,-5.337
0.169,0.036,0.262,-5.337
0.170,0.038,0.261,-5.337
0.186,0.039,0.262,-5.337
0.190,0.038,0.266,-5.337
0.161,0.037,0.266,-5.337
0.117,0.039,0.267,-5.337
0.161,0.041,0.263,-5.337
0.270,0.039,0.265,-5.337
0.253,0.037,0.265,-5.337
0.149,0.041,0.265,-5.337
0.126,0.042,0.261,-5.337
0.178,0.043,0.259,-5.337
0.189,0.038,0.261,-5.337
0.203,0.035,0.265,-5.337
0.248,0.036,0.268,-5.337
0.241,0.037,0.270,-5.337
0.196,0.037,0.267,-5.337
0.190,0.040,0.259,-5.337
0.185,0.041,0.254,-5.337
0.159,0.042,0.254,-5.337
0.171,0.042,0.261,-5.337
0.139,0.042,0.266,-5.337
0.094,0.041,0.267,-5.337
0.097,0.042,0.268,-5.337
0.123,0.041,0.272,-5.337
0.174,0.041,0.270,-5.337
0.187,0.043,0.267,-5.337
0.223,0.042,0.258,-5.337
0.239,0.045,0.255,-5.337
0.181,0.042,0.255,-5.337
0.217,0.038,0.263,-5.337
0.254,0.040,0.271,-5.337
0.213,0.043,0.271,-5.337
0.243,0.042,0.264,-5.337
0.267,0.043,0.262,-5.337
0.223,0.042,0.262,-5.337
0.156,0.041,0.265,-5.337
0.162,0.033,0.266,-5.337
0.183,0.035,0.263,-5.337
0.163,0.039,0.261,-5.337
0.060,0.041,0.259,-5.337
0.048,0.036,0.262,-5.337
0.124,0.036,0.264,-5.337
0.198,0.036,0.265,-5.337
0.157,0.036,0.265,-5.337
0.192,0.035,0.266,-5.337
0.232,0.034,0.266,-5.337
0.255,0.038,0.266,-5.337
0.224,0.038,0.264,-5.337
0.118,0.036,0.262,-5.337
0.081,0.035,0.260,-5.337
0.134,0.034,0.261,-5.337
0.115,0.039,0.264,-5.337
0.154,0.040,0.268,-5.337
0.177,0.037,0.268,-5.337
0.216,0.036,0.265,-5.337
0.255,0.039,0.260,-5.337
0.209,0.041,0.259,-5.337
0.150,0.038,0.262,-5.337
0.151,0.038,0.263,-5.337
0.197,0.038,0.264,-5.337
0.235,0.042,0.264,-5.337
0.131,0.041,0.265,-5.337
0.094,0.040,0.270,-5.337
0.160,0.038,0.274,-5.337
0.276,0.032,0.271,-5.337
0.280,0.034,0.263,-5.337
0.260,0.038,0.257,-5.337
0.223,0.039,0.256,-5.337
0.158,0.038,0.256,-5.337
0.143,0.035,0.259,-5.337
0.195,0.037,0.256,-5.337
0.238,0.033,0.258,-5.337
0.213,0.032,0.264,-5.337
0.188,0.036,0.270,-5.337
0.193,0.034,0.268,-5.337
0.209,0.032,0.264,-5.337
0.167,0.035,0.260,-5.337
0.142,0.041,0.260,-5.337
0.146,0.036,0.262,-5.337
0.175,0.035,0.264,-5.337
0.174,0.032,0.262,-5.337
0.216,0.032,0.262,-5.337
0.210,0.036,0.262,-5.337
0.142,0.040,0.260,-5.337
0.105,0.038,0.262,-5.337
0.140,0.038,0.266,-5.337
0.142,0.038,0.264,-5.337
0.166,0.037,0.264,-5.337
0.230,0.036,0.266,-5.337
0.229,0.034,0.265,-5.337
0.174,0.035,0.263,-5.337
0.175,0.035,0.264,-5.337
0.180,0.036,0.266,-5.337
0.127,0.036,0.268,-5.337
0.144,0.031,0.270,-5.337
0.243,0.026,0.268,-5.337
0.235,0.028,0.266,-5.337
0.244,0.028,0.264,-5.337
0.252,0.030,0.263,-5.337
0.121,0.032,0.263,-5.337
0.096,0.035,0.263,-5.337
0.184,0.035,0.262,-5.337
0.232,0.036,0.262,-5.337
0.201,0.035,0.262,-5.337
0.122,0.037,0.262,-5.337
0.097,0.036,0.263,-5.337
0.146,0.031,0.266,-5.337
0.104,0.028,0.266,-5.337
0.120,0.027,0.267,-5.337
0.177,0.027,0.265,-5.337
0.158,0.029,0.260,-5.337
0.119,0.028,0.256,-5.337
0.146,0.031,0.257,-5.337
0.216,0.031,0.263,-5.337
0.182,0.031,0.268,-5.337
0.175,0.030,0.267,-5.337
0.251,0.031,0.266,-5.337
0.263,0.033,0.267,-5.337
0.267,0.035,0.268,-5.337
0.167,0.034,0.270,-5.337
0.135,0.031,0.269,-5.337
0.140,0.033,0.270,-5.337
0.159,0.036,0.268,-5.337
0.204,0.034,0.265,-5.337
0.196,0.033,0.262,-5.337
0.171,0.034,0.263,-5.337
0.142,0.035,0.262,-5.337
0.163,0.035,0.258,-5.337
0.148,0.036,0.259,-5.337
0.125,0.037,0.258,-5.337
0.126,0.035,0.260,-5.337
0.131,0.036,0.263,-5.337
0.110,0.037,0.260,-5.337
0.154,0.035,0.262,-5.337
0.197,0.033,0.267,-5.337
0.145,0.031,0.266,-5.337
0.187,0.031,0.261,-5.337
0.193,0.033,0.260,-5.337
0.166,0.033,0.260,-5.337
0.176,0.029,0.260,-5.337
0.169,0.029,0.262,-5.337
0.173,0.026,0.261,-5.337
0.210,0.028,0.261,-5.337
0.244,0.029,0.262,-5.337
0.206,0.025,0.266,-5.337
0.243,0.026,0.269,-5.337
0.265,0.030,0.273,-5.337
0.192,0.031,0.268,-5.337
0.209,0.031,0.262,-5.337
0.203,0.030,0.262,-5.337
0.208,0.032,0.265,-5.337
0.260,0.033,0.265,-5.337
0.216,0.038,0.262,-5.337
0.137,0.040,0.262,-5.337
0.120,0.038,0.263,-5.337
0.159,0.034,0.262,-5.337
0.195,0.035,0.261,-5.337
0.220,0.034,0.259,-5.337
0.225,0.032,0.259,-5.337
0.217,0.031,0.260,-5.337
0.185,0.029,0.263,-5.337
0.156,0.032,0.266,-5.337
0.203,0.035,0.267,-5.337
0.214,0.037,0.267,-5.337
0.249,0.034,0.266,-5.337
0.240,0.036,0.268,-5.337
0.182,0.036,0.269,-5.337
0.124,0.036,0.271,-5.337
0.221,0.032,0.267,-5.337
0.289,0.035,0.266,-5.337
0.217,0.038,0.265,-5.337
0.146,0.038,0.266,-5.337
0.187,0.035,0.267,-5.337
0.234,0.034,0.266,-5.337
0.228,0.034,0.268,-5.337
0.201,0.035,0.266,-5.337
0.163,0.035,0.262,-5.337
0.164,0.032,0.259,-5.337
0.226,0.033,0.260,-5.337
0.233,0.032,0.262,-5.337
0.219,0.033,0.263,-5.337
0.233,0.033,0.264,-5.337
0.218,0.035,0.264,-5.337
0.237,0.032,0.266,-5.337
0.262,0.032,0.267,-5.337
0.180,0.033,0.269,-5.337
0.164,0.034,0.270,-5.337
0.175,0.037,0.266,-5.337
0.130,0.039,0.264,-5.337
0.184,0.038,0.263,-5.337
0.209,0.037,0.265,-5.337
0.182,0.034,0.266,-5.337
0.204,0.034,0.267,-5.337
0.203,0.039,0.266,-5.337
0.219,0.038,0.264,-5.337
0.286,0.037,0.261,-5.337
0.331,0.038,0.262,-5.337
0.259,0.042,0.265,-5.337
0.178,0.042,0.265,-5.337
0.215,0.035,0.260,-5.337
0.214,0.035,0.261,-5.337
0.121,0.034,0.266,-5.337
0.149,0.036,0.270,-5.337
0.232,0.038,0.269,-5.337
0.226,0.038,0.267,-5.337
0.240,0.039,0.268,-5.337
0.286,0.039,0.267,-5.337
0.307,0.038,0.264,-5.337
0.291,0.036,0.263,-5.337
0.228,0.036,0.263,-5.337
0.210,0.036,0.262,-5.337
0.207,0.039,0.265,-5.337
0.171,0.039,0.271,-5.337
0.185,0.039,0.274,-5.337
0.186,0.038,0.270,-5.337
0.188,0.039,0.265,-5.337
0.177,0.039,0.258,-5.337
0.196,0.038,0.257,-5.337
0.185,0.039,0.261,-5.337
0.165,0.039,0.266,-5.337
0.142,0.039,0.267,-5.337
0.174,0.040,0.264,-5.337
0.201,0.037,0.262,-5.337
0.210,0.038,0.264,-5.337
0.227,0.040,0.265,-5.337
0.212,0.041,0.266,-5.337
0.212,0.038,0.265,-5.337
0.230,0.038,0.267,-5.337
0.167,0.041,0.265,-5.337
0.201,0.041,0.265,-5.337
0.252,0.036,0.265,-5.337
0.278,0.039,0.264,-5.337
0.253,0.039,0.262,-5.337
0.245,0.039,0.264,-5.337
0.199,0.044,0.266,-5.337
0.134,0.046,0.267,-5.337
0.168,0.046,0.267,-5.337
0.164,0.048,0.265,-5.337
0.150,0.050,0.264,-5.337
0.186,0.046,0.263,-5.337
0.202,0.041,0.266,-5.337
0.195,0.040,0.265,-5.337
0.168,0.038,0.265,-5.337
0.184,0.039,0.267,-5.337
0.228,0.040,0.269,-5.337
0.215,0.044,0.266,-5.337
0.127,0.048,0.266,-5.337
0.080,0.049,0.264,-5.337
0.144,0.044,0.263,-5.337
0.158,0.046,0.267,-5.337
0.137,0.046,0.269,-5.337
0.193,0.044,0.268,-5.337
0.254,0.042,0.264,-5.337
0.302,0.042,0.264,-5.337
0.290,0.042,0.265,-5.337
0.292,0.044,0.267,-5.337
0.318,0.043,0.267,-5.337
0.261,0.044,0.265,-5.337
0.192,0.044,0.266,-5.337
0.227,0.041,0.266,-5.337
0.218,0.042,0.265,-5.337
0.257,0.043,0.269,-5.337
0.228,0.046,0.270,-5.337
0.175,0.047,0.271,-5.337
0.212,0.047,0.268,-5.337
0.254,0.045,0.267,-5.337
0.189,0.046,0.264,-5.337
0.194,0.044,0.265,-5.337
0.277,0.043,0.265,-5.337
0.242,0.046,0.267,-5.337
0.177,0.050,0.267,-5.337
0.185,0.050,0.266,-5.337
0.214,0.045,0.264,-5.337
0.255,0.046,0.264,-5.337
0.253,0.046,0.261,-5.337
0.189,0.046,0.263,-5.337
0.128,0.044,0.266,-5.337
0.178,0.043,0.268,-5.337
0.192,0.045,0.267,-5.337
0.225,0.048,0.264,-5.337
0.258,0.045,0.262,-5.337
0.278,0.043,0.260,-5.337
0.198,0.049,0.263,-5.337
0.185,0.049,0.266,-5.337
0.234,0.049,0.265,-5.337
0.267,0.048,0.266,-5.337
0.221,0.049,0.267,-5.337
0.196,0.048,0.269,-5.337
0.180,0.047,0.267,-5.337
0.189,0.049,0.262,-5.337
0.201,0.048,0.261,-5.337
0.243,0.043,0.262,-5.337
0.334,0.040,0.264,-5.337
0.294,0.042,0.264,-5.337
0.222,0.047,0.266,-5.337
0.225,0.047,0.267,-5.337
0.248,0.051,0.268,-5.337
0.244,0.050,0.267,-5.337
0.184,0.051,0.265,-5.337
0.227,0.049,0.263,-5.337
0.320,0.050,0.264,-5.337
0.234,0.054,0.267,-5.337
0.194,0.053,0.267,-5.337
0.257,0.052,0.260,-5.337
0.226,0.054,0.259,-5.337
0.181,0.053,0.262,-5.337
0.238,0.047,0.265,-5.337
0.247,0.048,0.264,-5.337
0.274,0.049,0.264,-5.337
0.331,0.045,0.267,-5.337
0.304,0.049,0.263,-5.337
0.206,0.052,0.261,-5.337
0.195,0.054,0.262,-5.337
0.232,0.051,0.266,-5.337
0.277,0.049,0.269,-5.337
0.246,0.053,0.273,-5.337
0.201,0.055,0.270,-5.337
0.220,0.054,0.267,-5.337
0.197,0.052,0.266,-5.337
0.169,0.053,0.265,-5.337
0.175,0.054,0.263,-5.337
0.207,0.054,0.264,-5.337
0.252,0.053,0.265,-5.337
0.248,0.056,0.263,-5.337
0.193,0.057,0.262,-5.337
0.132,0.054,0.264,-5.337
0.137,0.059,0.264,-5.337
0.154,0.059,0.263,-5.337
0.226,0.052,0.263,-5.337
0.316,0.049,0.263,-5.337
0.226,0.055,0.263,-5.337
0.134,0.056,0.264,-5.337
0.205,0.052,0.268,-5.337
0.270,0.051,0.268,-5.337
0.238,0.055,0.262,-5.337
0.214,0.051,0.258,-5.337
0.216,0.053,0.263,-5.337
0.218,0.054,0.264,-5.337
0.232,0.052,0.264,-5.337
0.222,0.055,0.265,-5.337
0.199,0.053,0.266,-5.337
0.271,0.047,0.268,-5.337
0.286,0.048,0.270,-5.337
0.237,0.047,0.269,-5.337
0.239,0.050,0.264,-5.337
0.242,0.054,0.258,-5.337
0.218,0.056,0.257,-5.337
0.270,0.054,0.261,-5.337
0.301,0.052,0.266,-5.337
0.255,0.055,0.268,-5.337
0.254,0.055,0.269,-5.337
0.285,0.057,0.267,-5.337
0.193,0.060,0.266,-5.337
0.149,0.061,0.264,-5.337
0.163,0.059,0.261,-5.337
0.166,0.056,0.258,-5.337
0.210,0.055,0.261,-5.337
0.236,0.057,0.265,-5.337
0.224,0.062,0.269,-5.337
0.226,0.061,0.269,-5.337
0.287,0.057,0.264,-5.337
0.315,0.053,0.261,-5.337
0.279,0.056,0.259,-5.337
0.264,0.059,0.261,-5.337
0.245,0.059,0.263,-5.337
0.194,0.061,0.266,-5.337
0.195,0.061,0.266,-5.337
0.198,0.063,0.262,-5.337
0.162,0.061,0.260,-5.337
0.202,0.060,0.264,-5.337
0.264,0.058,0.266,-5.337
0.285,0.057,0.265,-5.337
0.275,0.054,0.264,-5.337
0.296,0.053,0.262,-5.337
0.308,0.052,0.262,-5.337
0.219,0.058,0.262,-5.337
0.139,0.061,0.262,-5.337
0.168,0.063,0.265,-5.337
0.225,0.060,0.265,-5.337
0.223,0.058,0.263,-5.337
0.251,0.060,0.267,-5.337
0.270,0.061,0.268,-5.337
0.261,0.058,0.265,-5.337
0.268,0.057,0.263,-5.337
0.257,0.053,0.264,-5.337
0.265,0.053,0.265,-5.337
0.209,0.059,0.265,-5.337
0.154,0.061,0.263,-5.337
0.159,0.063,0.266,-5.337
0.266,0.058,0.263,-5.337
0.266,0.058,0.264,-5.337
0.173,0.058,0.265,-5.337
0.167,0.057,0.265,-5.337
0.238,0.057,0.261,-5.337
0.264,0.056,0.259,-5.337
0.230,0.054,0.256,-5.337
0.258,0.052,0.256,-5.337
0.249,0.053,0.259,-5.337
0.201,0.057,0.262,-5.337
0.216,0.056,0.263,-5.337
0.248,0.058,0.262,-5.337
0.243,0.056,0.264,-5.337
0.246,0.055,0.266,-5.337
0.241,0.056,0.267,-5.337
0.180,0.057,0.267,-5.337
0.218,0.054,0.266,-5.337
0.251,0.052,0.265,-5.337
0.233,0.055,0.266,-5.337
0.132,0.058,0.266,-5.337
0.150,0.056,0.266,-5.337
0.238,0.054,0.266,-5.337
0.252,0.053,0.268,-5.337
0.258,0.055,0.265,-5.337
0.278,0.052,0.264,-5.337
0.263,0.048,0.263,-5.337
0.272,0.051,0.263,-5.337
0.196,0.057,0.261,-5.337
0.213,0.058,0.262,-5.337
0.264,0.055,0.262,-5.337
0.245,0.056,0.261,-5.337
0.247,0.054,0.259,-5.337
0.264,0.058,0.258,-5.337
0.177,0.059,0.261,-5.337
0.142,0.059,0.265,-5.337
0.158,0.057,0.266,-5.337
0.178,0.059,0.269,-5.337
0.226,0.058,0.269,-5.337
0.227,0.056,0.262,-5.337
0.134,0.058,0.259,-5.337
0.103,0.058,0.261,-5.337
0.165,0.053,0.266,-5.337
0.227,0.049,0.267,-5.337
0.176,0.050,0.268,-5.337
0.131,0.051,0.265,-5.337
0.168,0.049,0.262,-5.337
0.213,0.048,0.258,-5.337
0.307,0.044,0.265,-5.337
0.328,0.044,0.269,-5.337
0.297,0.046,0.268,-5.337
0.218,0.047,0.264,-5.337
0.136,0.051,0.265,-5.337
0.173,0.049,0.267,-5.337
0.203,0.048,0.267,-5.337
0.095,0.050,0.268,-5.337
0.152,0.046,0.271,-5.337
0.235,0.045,0.272,-5.337
0.198,0.049,0.268,-5.337
0.187,0.052,0.263,-5.337
0.227,0.049,0.262,-5.337
0.210,0.048,0.259,-5.337
0.201,0.049,0.258,-5.337
0.195,0.049,0.263,-5.337
0.146,0.050,0.265,-5.337
0.112,0.050,0.265,-5.337
0.148,0.053,0.266,-5.337
0.216,0.056,0.265,-5.337
0.231,0.057,0.266,-5.337
0.231,0.054,0.270,-5.337
0.263,0.052,0.272,-5.337
0.263,0.052,0.273,-5.337
0.193,0.052,0.269,-5.337
0.196,0.053,0.266,-5.337
0.165,0.053,0.262,-5.337
0.158,0.049,0.266,-5.337
0.165,0.049,0.265,-5.337
0.186,0.047,0.264,-5.337
0.232,0.047,0.262,-5.337
0.234,0.049,0.264,-5.337
0.179,0.050,0.267,-5.337
0.146,0.047,0.269,-5.337
0.174,0.047,0.269,-5.337
0.186,0.050,0.269,-5.337
0.213,0.048,0.269,-5.337
0.219,0.047,0.267,-5.337
0.196,0.046,0.262,-5.337
0.146,0.046,0.261,-5.337
0.125,0.051,0.263,-5.337
0.092,0.054,0.262,-5.337
0.161,0.048,0.261,-5.337
0.182,0.043,0.260,-5.337
0.148,0.047,0.265,-5.337
0.204,0.049,0.266,-5.337
0.245,0.048,0.265,-5.337
0.246,0.049,0.263,-5.337
0.215,0.047,0.264,-5.337
0.200,0.047,0.266,-5.337
0.230,0.047,0.268,-5.337
0.198,0.048,0.268,-5.337
0.134,0.048,0.265,-5.337
0.180,0.047,0.261,-5.337
0.180,0.046,0.260,-5.337
0.181,0.045,0.265,-5.337
0.156,0.047,0.268,-5.337
0.151,0.044,0.267,-5.337
0.143,0.042,0.268,-5.337
0.193,0.043,0.267,-5.337
0.212,0.046,0.269,-5.337
0.226,0.045,0.265,-5.337
0.193,0.042,0.262,-5.337
0.182,0.040,0.261,-5.337
0.204,0.042,0.265,-5.337
0.174,0.043,0.267,-5.337
0.164,0.045,0.265,-5.337
0.149,0.043,0.266,-5.337
0.140,0.044,0.264,-5.337
0.148,0.047,0.261,-5.337
0.152,0.046,0.261,-5.337
0.171,0.042,0.266,-5.337
0.170,0.039,0.267,-5.337
0.176,0.038,0.266,-5.337
0.192,0.042,0.262,-5.337
0.179,0.044,0.262,-5.337
0.218,0.043,0.265,-5.337
0.226,0.041,0.268,-5.337
0.198,0.039,0.268,-5.337
0.175,0.041,0.267,-5.337
0.188,0.040,0.267,-5.337
0.213,0.041,0.268,-5.337
0.189,0.042,0.267,-5.337
0.144,0.044,0.264,-5.337
0.181,0.046,0.263,-5.337
0.229,0.042,0.267,-5.337
0.187,0.040,0.269,-5.337
0.170,0.039,0.269,-5.337
0.210,0.041,0.269,-5.337
0.216,0.044,0.269,-5.337
0.217,0.040,0.269,-5.337
0.209,0.041,0.265,-5.337
0.176,0.043,0.264,-5.337
0.196,0.042,0.263,-5.337
0.213,0.042,0.263,-5.337
0.160,0.041,0.263,-5.337
0.173,0.039,0.264,-5.337
0.176,0.039,0.265,-5.337
0.138,0.043,0.267,-5.337
0.101,0.041,0.262,-5.337
0.157,0.042,0.263,-5.337
0.255,0.042,0.264,-5.337
0.302,0.044,0.265,-5.337
0.266,0.044,0.264,-5.337
0.174,0.043,0.265,-5.337
0.125,0.043,0.264,-5.337
0.157,0.041,0.261,-5.337
0.148,0.042,0.263,-5.337
0.185,0.045,0.266,-5.337
0.141,0.045,0.265,-5.337
0.088,0.044,0.264,-5.337
0.116,0.043,0.264,-5.337
0.184,0.037,0.265,-5.337
0.249,0.033,0.262,-5.337
0.199,0.039,0.263,-5.337
0.145,0.039,0.264,-5.337
0.148,0.035,0.263,-5.337
0.165,0.035,0.264,-5.337
0.209,0.035,0.265,-5.337
0.193,0.038,0.267,-5.337
0.164,0.040,0.267,-5.337
0.148,0.039,0.267,-5.337
0.208,0.037,0.263,-5.337
0.245,0.039,0.262,-5.337
0.214,0.040,0.261,-5.337
0.195,0.040,0.263,-5.337
0.233,0.039,0.263,-5.337
0.234,0.041,0.263,-5.337
0.187,0.041,0.264,-5.337
0.120,0.041,0.265,-5.337
0.119,0.038,0.265,-5.337
0.185,0.040,0.266,-5.337
0.176,0.044,0.266,-5.337
0.165,0.042,0.262,-5.337
0.149,0.040,0.260,-5.337
0.164,0.043,0.261,-5.337
0.142,0.048,0.263,-5.337
0.199,0.045,0.265,-5.337
0.223,0.044,0.267,-5.337
0.172,0.043,0.267,-5.337
0.176,0.044,0.265,-5.337
0.231,0.043,0.262,-5.337
0.222,0.046,0.261,-5.337
0.170,0.047,0.262,-5.337
0.193,0.045,0.263,-5.337
0.210,0.043,0.260,-5.337
0.197,0.042,0.261,-5.337
0.201,0.040,0.264,-5.337
0.217,0.040,0.268,-5.337
0.196,0.041,0.269,-5.337
0.143,0.043,0.265,-5.337
0.185,0.039,0.264,-5.337
0.240,0.039,0.263,-5.337
0.239,0.040,0.263,-5.337
0.191,0.041,0.265,-5.337
0.097,0.040,0.266,-5.337
0.095,0.039,0.264,-5.337
0.062,0.042,0.262,-5.337
0.106,0.041,0.264,-5.337
0.202,0.038,0.263,-5.337
0.220,0.039,0.267,-5.337
0.148,0.039,0.267,-5.337
0.118,0.041,0.262,-5.337
0.145,0.042,0.261,-5.337
0.164,0.044,0.263,-5.337
0.138,0.049,0.265,-5.337
0.097,0.046,0.261,-5.337
0.126,0.044,0.259,-5.337
0.161,0.044,0.262,-5.337
0.195,0.044,0.268,-5.337
0.218,0.043,0.269,-5.337
0.201,0.043,0.268,-5.337
0.175,0.039,0.266,-5.337
0.171,0.040,0.264,-5.337
0.240,0.039,0.265,-5.337
0.293,0.036,0.268,-5.337
0.256,0.038,0.265,-5.337
0.119,0.045,0.264,-5.337
0.151,0.042,0.267,-5.337
0.173,0.039,0.270,-5.337
0.157,0.035,0.266,-5.337
0.132,0.039,0.263,-5.337
0.210,0.041,0.261,-5.337
0.234,0.043,0.260,-5.337
0.203,0.043,0.261,-5.337
0.088,0.046,0.265,-5.337
0.056,0.042,0.268,-5.337
0.137,0.036,0.265,-5.337
0.161,0.040,0.261,-5.337
0.193,0.038,0.258,-5.337
0.255,0.034,0.262,-5.337
0.229,0.036,0.267,-5.337
0.252,0.033,0.269,-5.337
0.235,0.031,0.267,-5.337
0.178,0.031,0.264,-5.337
0.166,0.035,0.258,-5.337
0.162,0.038,0.258,-5.337
0.150,0.039,0.260,-5.337
0.132,0.042,0.265,-5.337
0.116,0.040,0.267,-5.337
0.113,0.035,0.266,-5.337
0.100,0.033,0.266,-5.337
0.074,0.034,0.266,-5.337
0.108,0.034,0.264,-5.337
0.165,0.036,0.262,-5.337
0.154,0.040,0.264,-5.337
0.196,0.038,0.267,-5.337
0.233,0.034,0.267,-5.337
0.219,0.035,0.264,-5.337
0.177,0.037,0.261,-5.337
0.164,0.041,0.264,-5.337
0.178,0.039,0.266,-5.337
0.162,0.040,0.266,-5.337
0.218,0.038,0.263,-5.337
0.186,0.042,0.265,-5.337
0.132,0.040,0.269,-5.337
0.156,0.037,0.264,-5.337
0.223,0.031,0.263,-5.337
0.319,0.032,0.257,-5.337
0.206,0.039,0.257,-5.337
0.137,0.038,0.259,-5.337
0.178,0.037,0.265,-5.337
0.190,0.038,0.266,-5.337
0.177,0.041,0.265,-5.337
0.209,0.035,0.261,-5.337
0.282,0.035,0.263,-5.337
0.215,0.039,0.264,-5.337
0.108,0.042,0.262,-5.337
0.129,0.043,0.263,-5.337
0.162,0.043,0.264,-5.337
0.204,0.042,0.265,-5.337
0.237,0.040,0.267,-5.337
0.246,0.040,0.268,-5.337
0.196,0.042,0.265,-5.337
0.161,0.041,0.263,-5.337
0.189,0.040,0.258,-5.337
0.154,0.040,0.260,-5.337
0.173,0.041,0.263,-5.337
0.159,0.040,0.263,-5.337
0.142,0.038,0.262,-5.337
0.147,0.040,0.263,-5.337
0.170,0.040,0.265,-5.337
0.203,0.040,0.265,-5.337
0.127,0.045,0.265,-5.337
0.115,0.045,0.265,-5.337
0.159,0.044,0.264,-5.337
0.180,0.040,0.263,-5.337
0.190,0.040,0.263,-5.337
0.224,0.044,0.264,-5.337
0.213,0.047,0.266,-5.337
0.170,0.047,0.265,-5.337
0.194,0.045,0.265,-5.337
0.233,0.043,0.268,-5.337
0.259,0.040,0.268,-5.337
0.235,0.041,0.264,-5.337
0.239,0.040,0.261,-5.337
0.275,0.040,0.261,-5.337
0.219,0.040,0.260,-5.337
0.175,0.044,0.264,-5.337
0.168,0.046,0.267,-5.337
0.203,0.045,0.266,-5.337
0.187,0.045,0.264,-5.337
0.193,0.048,0.264,-5.337
0.223,0.045,0.267,-5.337
0.226,0.044,0.269,-5.337
0.186,0.043,0.269,-5.337
0.154,0.043,0.263,-5.337
0.186,0.045,0.263,-5.337
0.210,0.046,0.263,-5.337
0.202,0.048,0.263,-5.337
0.165,0.050,0.262,-5.337
0.166,0.049,0.264,-5.337
0.167,0.047,0.266,-5.337
0.143,0.049,0.264,-5.337
0.176,0.050,0.267,-5.337
0.142,0.052,0.268,-5.337
0.111,0.046,0.267,-5.337
0.201,0.043,0.262,-5.337
0.154,0.048,0.262,-5.337
0.157,0.047,0.266,-5.337
0.224,0.049,0.267,-5.337
0.235,0.050,0.265,-5.337
0.231,0.050,0.261,-5.337
0.209,0.050,0.261,-5.337
0.234,0.047,0.268,-5.337
0.252,0.044,0.270,-5.337
0.217,0.043,0.270,-5.337
0.162,0.047,0.270,-5.337
0.161,0.047,0.268,-5.337
0.269,0.045,0.265,-5.337
0.321,0.043,0.267,-5.337
0.281,0.044,0.264,-5.337
0.188,0.050,0.259,-5.337
0.114,0.052,0.257,-5.337
0.140,0.053,0.263,-5.337
0.169,0.052,0.266,-5.337
0.236,0.050,0.267,-5.337
0.185,0.051,0.267,-5.337
0.119,0.051,0.264,-5.337
0.168,0.051,0.266,-5.337
0.154,0.052,0.269,-5.337
0.186,0.050,0.266,-5.337
0.180,0.056,0.264,-5.337
0.196,0.056,0.264,-5.337
0.207,0.053,0.263,-5.337
0.159,0.053,0.265,-5.337
0.194,0.053,0.263,-5.337
0.200,0.050,0.267,-5.337
0.188,0.045,0.269,-5.337
0.196,0.046,0.270,-5.337
0.196,0.047,0.266,-5.337
0.253,0.047,0.263,-5.337
0.280,0.047,0.263,-5.337
0.205,0.051,0.268,-5.337
0.187,0.052,0.270,-5.337
0.236,0.048,0.270,-5.337
0.268,0.041,0.268,-5.337
0.293,0.042,0.266,-5.337
0.227,0.045,0.263,-5.337
0.185,0.049,0.262,-5.337
0.140,0.057,0.264,-5.337
0.129,0.057,0.267,-5.337
0.201,0.051,0.265,-5.337
0.241,0.050,0.267,-5.337
0.237,0.048,0.270,-5.337
0.252,0.050,0.269,-5.337
0.262,0.048,0.267,-5.337
0.279,0.048,0.265,-5.337
0.256,0.049,0.264,-5.337
0.209,0.050,0.263,-5.337
0.169,0.054,0.261,-5.337
0.169,0.053,0.264,-5.337
0.294,0.050,0.267,-5.337
0.300,0.051,0.270,-5.337
0.265,0.052,0.270,-5.337
0.263,0.052,0.265,-5.337
0.185,0.053,0.260,-5.337
0.130,0.057,0.259,-5.337
0.153,0.057,0.266,-5.337
0.214,0.053,0.271,-5.337
0.236,0.054,0.270,-5.337
0.213,0.058,0.264,-5.337
0.195,0.056,0.266,-5.337
0.203,0.055,0.266,-5.337
0.277,0.055,0.267,-5.337
0.257,0.057,0.269,-5.337
0.198,0.058,0.273,-5.337
0.222,0.057,0.271,-5.337
0.208,0.056,0.269,-5.337
0.219,0.052,0.267,-5.337
0.174,0.054,0.264,-5.337
0.131,0.053,0.262,-5.337
0.145,0.053,0.264,-5.337
0.181,0.055,0.265,-5.337
0.224,0.056,0.267,-5.337
0.309,0.051,0.269,-5.337
0.283,0.050,0.271,-5.337
0.270,0.052,0.271,-5.337
0.211,0.054,0.269,-5.337
0.174,0.051,0.267,-5.337
0.178,0.054,0.266,-5.337
0.198,0.053,0.266,-5.337
0.188,0.053,0.266,-5.337
0.251,0.054,0.267,-5.337
0.303,0.052,0.266,-5.337
0.231,0.054,0.264,-5.337
0.181,0.056,0.262,-5.337
0.155,0.055,0.263,-5.337
0.186,0.053,0.263,-5.337
0.244,0.053,0.263,-5.337
0.246,0.053,0.267,-5.337
0.244,0.055,0.272,-5.337
0.251,0.054,0.271,-5.337
0.186,0.055,0.270,-5.337
0.237,0.052,0.268,-5.337
0.291,0.051,0.270,-5.337
0.266,0.053,0.271,-5.337
0.211,0.055,0.270,-5.337
0.272,0.055,0.266,-5.337
0.284,0.054,0.264,-5.337
0.287,0.052,0.262,-5.337
0.271,0.053,0.263,-5.337
0.226,0.054,0.263,-5.337
0.194,0.055,0.263,-5.337
0.177,0.055,0.267,-5.337
0.193,0.056,0.269,-5.337
0.246,0.051,0.268,-5.337
0.227,0.051,0.264,-5.337
0.196,0.053,0.263,-5.337
0.146,0.054,0.261,-5.337
0.163,0.056,0.262,-5.337
0.195,0.055,0.262,-5.337
0.181,0.054,0.263,-5.337
0.230,0.052,0.260,-5.337
0.264,0.054,0.261,-5.337
0.274,0.055,0.264,-5.337
0.230,0.057,0.269,-5.337
0.221,0.055,0.270,-5.337
0.268,0.057,0.272,-5.337
0.273,0.055,0.268,-5.337
0.268,0.055,0.265,-5.337
0.252,0.056,0.261,-5.337
0.173,0.060,0.260,-5.337
0.247,0.058,0.264,-5.337
0.277,0.058,0.269,-5.337
0.194,0.060,0.273,-5.337
0.152,0.060,0.272,-5.337
0.177,0.062,0.268,-5.337
0.219,0.059,0.262,-5.337
0.208,0.058,0.263,-5.337
0.206,0.061,0.266,-5.337
0.236,0.058,0.270,-5.337
0.188,0.061,0.267,-5.337
0.201,0.057,0.266,-5.337
0.190,0.056,0.264,-5.337
0.237,0.058,0.264,-5.337
0.273,0.055,0.263,-5.337
0.261,0.058,0.262,-5.337
0.214,0.059,0.261,-5.337
0.274,0.052,0.260,-5.337
0.342,0.049,0.263,-5.337
0.313,0.050,0.267,-5.337
0.227,0.052,0.267,-5.337
0.230,0.055,0.266,-5.337
0.226,0.055,0.263,-5.337
0.235,0.057,0.261,-5.337
0.221,0.056,0.261,-5.337
0.198,0.058,0.264,-5.337
0.182,0.059,0.266,-5.337
0.203,0.060,0.267,-5.337
0.197,0.060,0.267,-5.337
0.230,0.056,0.265,-5.337
0.287,0.053,0.265,-5.337
0.258,0.052,0.263,-5.337
0.241,0.055,0.264,-5.337
0.266,0.056,0.264,-5.337
0.305,0.056,0.267,-5.337
0.269,0.057,0.264,-5.337
0.273,0.060,0.263,-5.337
0.272,0.060,0.262,-5.337
0.196,0.063,0.261,-5.337
0.212,0.063,0.263,-5.337
0.228,0.064,0.267,-5.337
0.184,0.064,0.266,-5.337
0.110,0.064,0.263,-5.337
0.148,0.059,0.263,-5.337
0.202,0.060,0.267,-5.337
0.234,0.059,0.269,-5.337
0.268,0.060,0.267,-5.337
0.211,0.062,0.264,-5.337
0.161,0.066,0.263,-5.337
0.188,0.066,0.259,-5.337
0.247,0.064,0.258,-5.337
0.258,0.062,0.262,-5.337
0.241,0.061,0.266,-5.337
0.226,0.062,0.268,-5.337
0.245,0.059,0.268,-5.337
0.201,0.058,0.267,-5.337
0.121,0.056,0.262,-5.337
0.135,0.056,0.261,-5.337
0.229,0.056,0.262,-5.337
0.251,0.057,0.264,-5.337
0.170,0.060,0.263,-5.337
0.152,0.059,0.265,-5.337
0.195,0.059,0.264,-5.337
0.227,0.062,0.260,-5.337
0.269,0.056,0.259,-5.337
0.242,0.053,0.262,-5.337
0.267,0.049,0.265,-5.337
0.341,0.049,0.264,-5.337
0.355,0.051,0.262,-5.337
0.277,0.055,0.264,-5.337
0.169,0.054,0.267,-5.337
0.174,0.052,0.268,-5.337
0.226,0.049,0.265,-5.337
0.163,0.054,0.263,-5.337
0.142,0.055,0.263,-5.337
0.204,0.055,0.264,-5.337
0.185,0.057,0.263,-5.337
0.206,0.055,0.262,-5.337
0.182,0.053,0.260,-5.337
0.101,0.056,0.261,-5.337
0.097,0.054,0.264,-5.337
0.166,0.052,0.266,-5.337
0.225,0.051,0.274,-5.337
0.227,0.055,0.274,-5.337
0.239,0.054,0.268,-5.337
0.258,0.051,0.262,-5.337
0.232,0.053,0.259,-5.337
0.229,0.055,0.255,-5.337
0.239,0.055,0.255,-5.337
0.226,0.054,0.262,-5.337
0.211,0.053,0.268,-5.337
0.220,0.054,0.267,-5.337
0.233,0.056,0.263,-5.337
0.242,0.054,0.261,-5.337
0.230,0.054,0.263,-5.337
0.123,0.057,0.265,-5.337
0.077,0.055,0.265,-5.337
0.176,0.055,0.264,-5.337
0.215,0.053,0.265,-5.337
0.171,0.054,0.267,-5.337
0.136,0.053,0.269,-5.337
0.125,0.054,0.267,-5.337
0.143,0.058,0.263,-5.337
0.209,0.050,0.261,-5.337
0.300,0.050,0.264,-5.337
0.307,0.050,0.269,-5.337
0.262,0.046,0.267,-5.337
0.295,0.045,0.265,-5.337
0.300,0.045,0.263,-5.337
0.192,0.047,0.262,-5.337
0.135,0.050,0.262,-5.337
0.182,0.051,0.266,-5.337
0.216,0.051,0.266,-5.337
0.219,0.051,0.266,-5.337
0.155,0.052,0.264,-5.337
0.143,0.051,0.265,-5.337
0.206,0.051,0.267,-5.337
0.197,0.051,0.268,-5.337
0.183,0.050,0.266,-5.337
0.173,0.049,0.266,-5.337
0.159,0.045,0.263,-5.337
0.179,0.043,0.262,-5.337
0.195,0.044,0.264,-5.337
0.206,0.045,0.263,-5.337
0.214,0.046,0.265,-5.337
0.197,0.048,0.265,-5.337
0.193,0.045,0.263,-5.337
0.191,0.042,0.261,-5.337
0.161,0.042,0.261,-5.337
0.187,0.042,0.262,-5.337
0.209,0.043,0.266,-5.337
0.183,0.044,0.264,-5.337
0.156,0.043,0.266,-5.337
0.161,0.043,0.266,-5.337
0.247,0.041,0.265,-5.337
0.230,0.039,0.263,-5.337
0.155,0.042,0.265,-5.337
0.098,0.041,0.266,-5.337
0.121,0.040,0.265,-5.337
0.143,0.040,0.264,-5.337
0.217,0.040,0.266,-5.337
0.271,0.038,0.265,-5.337
0.289,0.039,0.268,-5.337
0.270,0.039,0.270,-5.337
0.207,0.044,0.270,-5.337
0.243,0.043,0.267,-5.337
0.225,0.044,0.266,-5.337
0.199,0.044,0.265,-5.337
0.196,0.045,0.264,-5.337
0.147,0.047,0.266,-5.337
0.167,0.046,0.264,-5.337
0.183,0.046,0.265,-5.337
0.242,0.043,0.266,-5.337
0.265,0.041,0.267,-5.337
0.265,0.039,0.265,-5.337
0.222,0.043,0.267,-5.337
0.181,0.042,0.264,-5.337
0.142,0.041,0.266,-5.337
0.114,0.042,0.263,-5.337
0.141,0.045,0.263,-5.337
0.149,0.044,0.265,-5.337
0.141,0.045,0.266,-5.337
0.149,0.042,0.268,-5.337
0.143,0.041,0.267,-5.337
0.160,0.042,0.267,-5.337
0.161,0.040,0.266,-5.337
0.148,0.042,0.265,-5.337
0.170,0.038,0.264,-5.337
0.219,0.037,0.266,-5.337
0.261,0.038,0.269,-5.337
0.249,0.040,0.263,-5.337
0.203,0.042,0.261,-5.337
0.189,0.041,0.266,-5.337
0.156,0.041,0.267,-5.337
0.113,0.041,0.264,-5.337
0.132,0.043,0.266,-5.337
0.169,0.044,0.270,-5.337
0.172,0.045,0.269,-5.337
0.186,0.042,0.268,-5.337
0.185,0.044,0.264,-5.337
0.115,0.045,0.262,-5.337
0.150,0.041,0.264,-5.337
0.182,0.041,0.268,-5.337
0.172,0.040,0.265,-5.337
0.222,0.041,0.263,-5.337
0.224,0.042,0.263,-5.337
0.156,0.044,0.264,-5.337
0.148,0.044,0.266,-5.337
0.204,0.047,0.266,-5.337
0.200,0.050,0.268,-5.337
0.129,0.050,0.270,-5.337
0.136,0.047,0.270,-5.337
0.183,0.043,0.270,-5.337
0.207,0.043,0.267,-5.337
0.219,0.042,0.262,-5.337
0.202,0.040,0.263,-5.337
0.234,0.040,0.266,-5.337
0.205,0.038,0.265,-5.337
0.129,0.041,0.261,-5.337
0.125,0.044,0.259,-5.337
0.168,0.042,0.262,-5.337
0.208,0.042,0.266,-5.337
0.137,0.045,0.265,-5.337
0.124,0.043,0.265,-5.337
0.192,0.040,0.267,-5.337
0.186,0.041,0.274,-5.337
0.172,0.041,0.273,-5.337
0.143,0.042,0.266,-5.337
0.119,0.041,0.260,-5.337
0.154,0.037,0.262,-5.337
0.117,0.039,0.262,-5.337
0.142,0.041,0.262,-5.337
0.223,0.042,0.265,-5.337
0.183,0.042,0.267,-5.337
0.148,0.039,0.270,-5.337
0.150,0.043,0.270,-5.337
0.175,0.044,0.264,-5.337
0.211,0.041,0.260,-5.337
0.236,0.040,0.262,-5.337
0.183,0.043,0.265,-5.337
0.173,0.042,0.267,-5.337
0.214,0.042,0.270,-5.337
0.191,0.045,0.273,-5.337
0.136,0.047,0.270,-5.337
0.201,0.045,0.264,-5.337
0.195,0.041,0.261,-5.337
0.153,0.042,0.263,-5.337
0.166,0.043,0.266,-5.337
0.201,0.042,0.268,-5.337
0.213,0.042,0.266,-5.337
0.118,0.046,0.264,-5.337
0.100,0.044,0.262,-5.337
0.149,0.043,0.264,-5.337
0.195,0.043,0.265,-5.337
0.228,0.046,0.268,-5.337
0.200,0.046,0.267,-5.337
0.161,0.045,0.266,-5.337
0.131,0.042,0.268,-5.337
0.218,0.042,0.266,-5.337
0.280,0.042,0.266,-5.337
0.211,0.042,0.267,-5.337
0.180,0.045,0.268,-5.337
0.124,0.049,0.266,-5.337
0.184,0.046,0.265,-5.337
0.220,0.046,0.268,-5.337
0.194,0.047,0.272,-5.337
0.182,0.043,0.268,-5.337
0.160,0.044,0.265,-5.337
0.176,0.044,0.264,-5.337
0.195,0.044,0.264,-5.337
0.123,0.042,0.264,-5.337
0.178,0.041,0.268,-5.337
0.180,0.042,0.268,-5.337
0.169,0.041,0.267,-5.337
0.229,0.042,0.265,-5.337
0.262,0.045,0.266,-5.337
0.175,0.047,0.267,-5.337
0.105,0.049,0.269,-5.337
0.157,0.047,0.265,-5.337
0.160,0.052,0.263,-5.337
0.213,0.049,0.265,-5.337
0.209,0.047,0.265,-5.337
0.194,0.048,0.265,-5.337
0.158,0.049,0.265,-5.337
0.139,0.050,0.263,-5.337
0.227,0.047,0.262,-5.337
0.251,0.048,0.260,-5.337
0.187,0.048,0.262,-5.337
0.109,0.049,0.258,-5.337
0.090,0.051,0.257,-5.337
0.143,0.048,0.264,-5.337
0.242,0.047,0.264,-5.337
0.244,0.051,0.264,-5.337
0.193,0.052,0.263,-5.337
0.193,0.046,0.266,-5.337
0.234,0.041,0.270,-5.337
0.276,0.041,0.268,-5.337
0.243,0.042,0.265,-5.337
0.214,0.045,0.264,-5.337
0.258,0.046,0.265,-5.337
0.229,0.049,0.266,-5.337
0.141,0.049,0.268,-5.337
0.088,0.044,0.265,-5.337
0.110,0.042,0.264,-5.337
0.140,0.043,0.267,-5.337
0.105,0.044,0.268,-5.337
0.153,0.047,0.266,-5.337
0.204,0.046,0.265,-5.337
0.178,0.047,0.261,-5.337
0.151,0.044,0.259,-5.337
0.213,0.041,0.262,-5.337
0.256,0.043,0.266,-5.337
0.140,0.044,0.263,-5.337
0.092,0.044,0.259,-5.337
0.163,0.041,0.259,-5.337
0.231,0.042,0.266,-5.337
0.163,0.046,0.267,-5.337
0.173,0.046,0.267,-5.337
0.149,0.047,0.265,-5.337
0.101,0.047,0.266,-5.337
0.168,0.046,0.265,-5.337
0.212,0.043,0.266,-5.337
0.101,0.041,0.265,-5.337
0.109,0.041,0.267,-5.337
0.160,0.041,0.266,-5.337
0.161,0.042,0.265,-5.337
0.205,0.040,0.265,-5.337
0.221,0.041,0.265,-5.337
0.254,0.037,0.265,-5.337
0.290,0.039,0.267,-5.337
0.244,0.041,0.265,-5.337
0.217,0.046,0.259,-5.337
0.222,0.043,0.259,-5.337
0.186,0.043,0.264,-5.337
0.160,0.043,0.266,-5.337
0.172,0.043,0.265,-5.337
0.146,0.048,0.265,-5.337
0.160,0.048,0.262,-5.337
0.164,0.043,0.262,-5.337
0.156,0.045,0.265,-5.337
0.164,0.044,0.265,-5.337
0.201,0.042,0.263,-5.337
0.244,0.040,0.263,-5.337
0.233,0.046,0.263,-5.337
0.180,0.048,0.266,-5.337
0.227,0.045,0.266,-5.337
0.231,0.046,0.265,-5.337
0.209,0.045,0.267,-5.337
0.170,0.047,0.267,-5.337
0.096,0.046,0.263,-5.337
0.081,0.048,0.260,-5.337
0.066,0.049,0.260,-5.337
0.139,0.046,0.263,-5.337
0.202,0.046,0.265,-5.337
0.226,0.045,0.266,-5.337
0.242,0.046,0.266,-5.337
0.278,0.046,0.266,-5.337
0.283,0.044,0.267,-5.337
0.277,0.043,0.265,-5.337
0.230,0.050,0.264,-5.337
0.263,0.048,0.264,-5.337
0.248,0.047,0.266,-5.337
0.226,0.047,0.264,-5.337
0.204,0.047,0.262,-5.337
0.178,0.050,0.264,-5.337
0.131,0.049,0.268,-5.337
0.139,0.046,0.269,-5.337
0.171,0.046,0.271,-5.337
0.130,0.047,0.268,-5.337
0.157,0.044,0.263,-5.337
0.223,0.043,0.260,-5.337
0.171,0.047,0.262,-5.337
0.158,0.049,0.267,-5.337
0.201,0.050,0.268,-5.337
0.223,0.049,0.265,-5.337
0.228,0.044,0.263,-5.337
0.233,0.043,0.264,-5.337
0.263,0.041,0.266,-5.337
0.268,0.043,0.264,-5.337
0.243,0.040,0.264,-5.337
0.221,0.041,0.268,-5.337
0.209,0.044,0.271,-5.337
0.215,0.048,0.267,-5.337
0.188,0.053,0.265,-5.337
0.169,0.050,0.263,-5.337
0.212,0.050,0.261,-5.337
0.227,0.052,0.263,-5.337
0.184,0.051,0.266,-5.337
0.205,0.047,0.269,-5.337
0.267,0.043,0.267,-5.337
0.295,0.048,0.268,-5.337
0.308,0.046,0.268,-5.337
0.281,0.045,0.268,-5.337
0.205,0.049,0.265,-5.337
0.157,0.049,0.264,-5.337
0.212,0.046,0.264,-5.337
0.247,0.048,0.267,-5.337
0.253,0.045,0.267,-5.337
0.203,0.046,0.270,-5.337
0.143,0.048,0.270,-5.337
0.140,0.053,0.265,-5.337
0.187,0.049,0.260,-5.337
0.198,0.051,0.257,-5.337
0.205,0.055,0.256,-5.337
0.193,0.053,0.262,-5.337
0.183,0.052,0.269,-5.337
0.248,0.052,0.267,-5.337
0.248,0.055,0.261,-5.337
0.151,0.054,0.260,-5.337
0.171,0.052,0.258,-5.337
0.221,0.052,0.261,-5.337
0.152,0.058,0.265,-5.337
0.161,0.056,0.266,-5.337
0.273,0.051,0.264,-5.337
0.248,0.053,0.263,-5.337
0.173,0.055,0.264,-5.337
0.177,0.051,0.264,-5.337
0.253,0.052,0.264,-5.337
0.277,0.052,0.264,-5.337
0.206,0.056,0.265,-5.337
0.151,0.056,0.265,-5.337
0.222,0.051,0.267,-5.337
0.220,0.049,0.267,-5.337
0.151,0.051,0.267,-5.337
0.112,0.056,0.268,-5.337
0.124,0.057,0.268,-5.337
0.119,0.057,0.267,-5.337
0.177,0.056,0.268,-5.337
0.247,0.055,0.265,-5.337
0.320,0.055,0.264,-5.337
0.288,0.057,0.264,-5.337
0.226,0.055,0.267,-5.337
0.091,0.060,0.271,-5.337
0.071,0.061,0.274,-5.337
0.178,0.056,0.271,-5.337
0.213,0.057,0.266,-5.337
0.195,0.061,0.266,-5.337
0.139,0.064,0.267,-5.337
0.163,0.063,0.267,-5.337
0.222,0.060,0.268,-5.337
0.160,0.061,0.267,-5.337
0.125,0.063,0.265,-5.337
0.212,0.059,0.264,-5.337
0.205,0.061,0.263,-5.337
0.184,0.063,0.266,-5.337
0.225,0.061,0.269,-5.337
0.265,0.062,0.269,-5.337
0.232,0.058,0.268,-5.337
0.197,0.057,0.266,-5.337
0.272,0.053,0.262,-5.337
0.302,0.054,0.258,-5.337
0.213,0.058,0.257,-5.337
0.176,0.062,0.265,-5.337
0.184,0.058,0.272,-5.337
0.175,0.055,0.271,-5.337
0.212,0.052,0.270,-5.337
0.226,0.056,0.270,-5.337
0.215,0.061,0.269,-5.337
0.187,0.060,0.264,-5.337
0.189,0.059,0.264,-5.337
0.270,0.058,0.265,-5.337
0.271,0.058,0.268,-5.337
0.221,0.060,0.267,-5.337
0.182,0.062,0.265,-5.337
0.136,0.059,0.265,-5.337
0.122,0.063,0.269,-5.337
0.167,0.060,0.267,-5.337
0.224,0.059,0.267,-5.337
0.259,0.060,0.267,-5.337
0.269,0.061,0.270,-5.337
0.285,0.060,0.270,-5.337
0.293,0.059,0.269,-5.337
0.333,0.056,0.266,-5.337
0.301,0.059,0.265,-5.337
0.287,0.059,0.267,-5.337
0.268,0.061,0.271,-5.337
0.221,0.061,0.270,-5.337
0.196,0.063,0.267,-5.337
0.220,0.062,0.264,-5.337
0.212,0.064,0.265,-5.337
0.181,0.064,0.264,-5.337
0.214,0.064,0.266,-5.337
0.245,0.063,0.268,-5.337
0.249,0.058,0.267,-5.337
0.167,0.061,0.268,-5.337
0.140,0.063,0.267,-5.337
0.147,0.063,0.265,-5.337
0.205,0.062,0.267,-5.337
0.230,0.061,0.273,-5.337
0.215,0.063,0.273,-5.337
0.208,0.062,0.271,-5.337
0.196,0.062,0.266,-5.337
0.165,0.064,0.262,-5.337
0.207,0.063,0.259,-5.337
0.269,0.058,0.262,-5.337
0.303,0.055,0.267,-5.337
0.331,0.060,0.270,-5.337
0.272,0.057,0.269,-5.337
0.193,0.065,0.269,-5.337
0.180,0.066,0.269,-5.337
0.251,0.060,0.270,-5.337
0.288,0.060,0.267,-5.337
0.264,0.062,0.267,-5.337
0.188,0.061,0.268,-5.337
0.159,0.061,0.270,-5.337
0.188,0.062,0.269,-5.337
0.279,0.063,0.267,-5.337
0.257,0.065,0.267,-5.337
0.210,0.063,0.264,-5.337
0.229,0.061,0.261,-5.337
0.269,0.062,0.262,-5.337
0.326,0.062,0.267,-5.337
0.262,0.061,0.270,-5.337
0.244,0.057,0.275,-5.337
0.259,0.057,0.273,-5.337
0.317,0.058,0.267,-5.337
0.289,0.058,0.264,-5.337
0.149,0.063,0.267,-5.337
0.093,0.063,0.264,-5.337
0.184,0.059,0.263,-5.337
0.281,0.055,0.263,-5.337
0.274,0.054,0.265,-5.337
0.248,0.057,0.269,-5.337
0.281,0.059,0.272,-5.337
0.249,0.060,0.272,-5.337
0.211,0.063,0.271,-5.337
0.201,0.063,0.271,-5.337
0.174,0.063,0.268,-5.337
0.125,0.062,0.267,-5.337
0.129,0.064,0.266,-5.337
0.121,0.066,0.265,-5.337
0.126,0.068,0.263,-5.337
0.120,0.065,0.264,-5.337
0.222,0.058,0.269,-5.337
0.282,0.057,0.272,-5.337
0.245,0.058,0.268,-5.337
0.259,0.059,0.266,-5.337
0.267,0.055,0.264,-5.337
0.239,0.057,0.260,-5.337
0.215,0.060,0.258,-5.337
0.230,0.059,0.261,-5.337
0.203,0.059,0.263,-5.337
0.231,0.056,0.264,-5.337
0.308,0.049,0.263,-5.337
0.349,0.050,0.268,-5.337
0.246,0.054,0.273,-5.337
0.197,0.057,0.270,-5.337
0.229,0.054,0.265,-5.337
0.215,0.056,0.261,-5.337
0.222,0.054,0.264,-5.337
0.295,0.056,0.270,-5.337
0.325,0.057,0.270,-5.337
0.279,0.056,0.267,-5.337
0.263,0.054,0.260,-5.337
0.250,0.055,0.260,-5.337
0.289,0.055,0.263,-5.337
0.292,0.057,0.264,-5.337
0.246,0.059,0.267,-5.337
0.176,0.059,0.267,-5.337
0.180,0.056,0.268,-5.337
0.245,0.059,0.268,-5.337
0.244,0.057,0.267,-5.337
0.215,0.059,0.262,-5.337
0.240,0.059,0.261,-5.337
0.254,0.059,0.261,-5.337
0.206,0.062,0.265,-5.337
0.239,0.061,0.263,-5.337
0.302,0.056,0.265,-5.337
0.247,0.058,0.268,-5.337
0.192,0.060,0.269,-5.337
0.205,0.057,0.269,-5.337
0.223,0.054,0.266,-5.337
0.206,0.056,0.263,-5.337
0.285,0.055,0.264,-5.337
0.319,0.056,0.265,-5.337
0.217,0.060,0.265,-5.337
0.167,0.058,0.264,-5.337
0.186,0.058,0.264,-5.337
0.214,0.057,0.265,-5.337
0.266,0.057,0.265,-5.337
0.301,0.057,0.260,-5.337
0.274,0.055,0.258,-5.337
0.277,0.056,0.263,-5.337
0.289,0.056,0.265,-5.337
0.249,0.051,0.267,-5.337
0.232,0.051,0.266,-5.337
0.174,0.056,0.265,-5.337
0.151,0.058,0.262,-5.337
0.163,0.057,0.263,-5.337
0.280,0.054,0.263,-5.337
0.320,0.054,0.268,-5.337
0.234,0.054,0.267,-5.337
0.232,0.052,0.265,-5.337
0.222,0.054,0.263,-5.337
0.155,0.058,0.266,-5.337
0.195,0.055,0.265,-5.337
0.231,0.057,0.262,-5.337
0.208,0.056,0.264,-5.337
0.150,0.054,0.266,-5.337
0.178,0.053,0.267,-5.337
0.217,0.054,0.264,-5.337
0.199,0.058,0.262,-5.337
0.162,0.055,0.263,-5.337
0.194,0.054,0.267,-5.337
0.234,0.057,0.268,-5.337
0.214,0.060,0.266,-5.337
0.157,0.057,0.264,-5.337
0.147,0.056,0.261,-5.337
0.158,0.057,0.260,-5.337
0.206,0.059,0.263,-5.337
0.250,0.057,0.263,-5.337
0.239,0.055,0.264,-5.337
0.213,0.054,0.267,-5.337
0.137,0.055,0.270,-5.337
0.139,0.055,0.268,-5.337
0.222,0.055,0.272,-5.337
0.182,0.057,0.272,-5.337
0.142,0.058,0.269,-5.337
0.167,0.055,0.262,-5.337
0.194,0.056,0.258,-5.337
0.250,0.051,0.260,-5.337
0.297,0.055,0.267,-5.337
0.238,0.058,0.270,-5.337
0.171,0.058,0.271,-5.337
0.116,0.056,0.270,-5.337
0.151,0.054,0.267,-5.337
0.223,0.052,0.262,-5.337
0.244,0.053,0.256,-5.337
0.192,0.053,0.255,-5.337
0.204,0.053,0.264,-5.337
0.186,0.053,0.271,-5.337
0.199,0.051,0.269,-5.337
0.232,0.049,0.267,-5.337
0.235,0.051,0.267,-5.337
0.256,0.055,0.265,-5.337
0.256,0.055,0.261,-5.337
0.255,0.052,0.262,-5.337
0.290,0.049,0.268,-5.337
0.273,0.050,0.268,-5.337
0.195,0.051,0.266,-5.337
0.187,0.056,0.264,-5.337
0.160,0.057,0.263,-5.337
0.192,0.053,0.264,-5.337
0.217,0.051,0.265,-5.337
0.191,0.052,0.266,-5.337
0.222,0.053,0.267,-5.337
0.254,0.053,0.265,-5.337
0.292,0.048,0.263,-5.337
0.276,0.047,0.264,-5.337
0.179,0.047,0.265,-5.337
0.156,0.047,0.264,-5.337
0.168,0.046,0.263,-5.337
0.205,0.045,0.265,-5.337
0.262,0.043,0.265,-5.337
0.311,0.044,0.262,-5.337
0.319,0.045,0.264,-5.337
0.228,0.046,0.263,-5.337
0.190,0.046,0.266,-5.337
0.138,0.048,0.270,-5.337
0.141,0.049,0.270,-5.337
0.203,0.043,0.263,-5.337
0.248,0.043,0.262,-5.337
0.205,0.047,0.264,-5.337
0.125,0.053,0.268,-5.337
0.120,0.052,0.267,-5.337
0.158,0.051,0.266,-5.337
0.205,0.053,0.268,-5.337
0.232,0.050,0.269,-5.337
0.285,0.050,0.264,-5.337
0.327,0.047,0.259,-5.337
0.280,0.048,0.259,-5.337
0.253,0.047,0.261,-5.337
0.261,0.052,0.266,-5.337
0.198,0.054,0.270,-5.337
0.200,0.052,0.272,-5.337
0.249,0.051,0.269,-5.337
0.237,0.052,0.262,-5.337
0.222,0.052,0.259,-5.337
0.225,0.051,0.259,-5.337
0.180,0.051,0.261,-5.337
0.206,0.049,0.263,-5.337
0.220,0.048,0.265,-5.337
0.172,0.045,0.268,-5.337
0.134,0.045,0.270,-5.337
0.105,0.049,0.272,-5.337
0.098,0.047,0.270,-5.337
0.141,0.046,0.267,-5.337
0.141,0.044,0.262,-5.337
0.126,0.046,0.259,-5.337
0.162,0.041,0.260,-5.337
0.183,0.041,0.262,-5.337
0.177,0.042,0.262,-5.337
0.159,0.042,0.262,-5.337
0.156,0.040,0.266,-5.337
0.164,0.042,0.270,-5.337
0.168,0.045,0.268,-5.337
0.126,0.047,0.268,-5.337
0.129,0.046,0.268,-5.337
0.126,0.044,0.268,-5.337
0.124,0.045,0.264,-5.337
0.090,0.049,0.265,-5.337
0.064,0.053,0.264,-5.337
0.138,0.048,0.266,-5.337
0.272,0.042,0.270,-5.337
0.284,0.042,0.272,-5.337
0.189,0.041,0.270,-5.337
0.209,0.044,0.265,-5.337
0.237,0.043,0.267,-5.337
0.252,0.042,0.266,-5.337
0.266,0.042,0.263,-5.337
0.302,0.044,0.264,-5.337
0.252,0.046,0.270,-5.337
0.237,0.042,0.270,-5.337
0.204,0.045,0.267,-5.337
0.180,0.045,0.264,-5.337
0.181,0.044,0.261,-5.337
0.171,0.045,0.260,-5.337
0.218,0.043,0.261,-5.337
0.246,0.044,0.264,-5.337
0.220,0.046,0.265,-5.337
0.144,0.046,0.265,-5.337
0.160,0.044,0.270,-5.337
0.133,0.045,0.272,-5.337
0.145,0.042,0.267,-5.337
0.181,0.041,0.266,-5.337
0.179,0.042,0.266,-5.337
0.188,0.041,0.266,-5.337
0.230,0.041,0.263,-5.337
0.253,0.042,0.266,-5.337
0.188,0.043,0.268,-5.337
0.159,0.045,0.271,-5.337
0.222,0.042,0.268,-5.337
0.180,0.043,0.265,-5.337
0.145,0.041,0.264,-5.337
0.161,0.040,0.267,-5.337
0.211,0.038,0.267,-5.337
0.204,0.046,0.268,-5.337
0.135,0.045,0.265,-5.337
0.163,0.042,0.263,-5.337
0.186,0.042,0.265,-5.337
0.188,0.041,0.268,-5.337
0.184,0.038,0.267,-5.337
0.163,0.041,0.265,-5.337
0.157,0.043,0.264,-5.337
0.210,0.041,0.265,-5.337
0.219,0.042,0.266,-5.337
0.163,0.045,0.269,-5.337
0.155,0.042,0.271,-5.337
0.192,0.039,0.272,-5.337
0.175,0.039,0.273,-5.337
0.200,0.039,0.268,-5.337
0.194,0.043,0.262,-5.337
0.155,0.043,0.265,-5.337
0.181,0.042,0.270,-5.337
0.179,0.042,0.271,-5.337
0.149,0.041,0.269,-5.337
0.064,0.041,0.267,-5.337
0.033,0.043,0.266,-5.337
0.075,0.040,0.265,-5.337
0.165,0.039,0.267,-5.337
0.178,0.041,0.266,-5.337
0.186,0.039,0.269,-5.337
0.206,0.039,0.269,-5.337
0.173,0.041,0.269,-5.337
0.135,0.041,0.268,-5.337
0.186,0.039,0.272,-5.337
0.294,0.033,0.273,-5.337
0.231,0.037,0.271,-5.337
0.098,0.038,0.265,-5.337
0.106,0.038,0.260,-5.337
0.214,0.035,0.264,-5.337
0.295,0.034,0.268,-5.337
0.230,0.036,0.270,-5.337
0.128,0.037,0.271,-5.337
0.097,0.034,0.271,-5.337
0.116,0.032,0.268,-5.337
0.136,0.030,0.261,-5.337
0.195,0.033,0.260,-5.337
0.216,0.037,0.263,-5.337
0.210,0.038,0.266,-5.337
0.192,0.040,0.272,-5.337
0.138,0.043,0.271,-5.337
0.142,0.042,0.269,-5.337
0.120,0.040,0.267,-5.337
0.165,0.037,0.266,-5.337
0.139,0.039,0.267,-5.337
0.162,0.038,0.270,-5.337
0.219,0.036,0.269,-5.337
0.235,0.038,0.266,-5.337
0.148,0.041,0.264,-5.337
0.126,0.041,0.266,-5.337
0.223,0.038,0.268,-5.337
0.286,0.035,0.267,-5.337
0.250,0.035,0.265,-5.337
0.198,0.037,0.267,-5.337
0.166,0.040,0.270,-5.337
0.161,0.036,0.269,-5.337
0.147,0.033,0.268,-5.337
0.165,0.032,0.270,-5.337
0.194,0.031,0.270,-5.337
0.147,0.033,0.267,-5.337
0.121,0.036,0.265,-5.337
0.153,0.039,0.262,-5.337
0.162,0.040,0.265,-5.337
0.164,0.038,0.267,-5.337
0.189,0.035,0.268,-5.337
0.168,0.033,0.266,-5.337
0.172,0.034,0.266,-5.337
0.184,0.036,0.265,-5.337
0.159,0.035,0.266,-5.337
0.161,0.035,0.266,-5.337
0.186,0.038,0.265,-5.337
0.252,0.036,0.264,-5.337
0.221,0.036,0.263,-5.337
0.143,0.038,0.263,-5.337
0.115,0.039,0.267,-5.337
0.117,0.040,0.270,-5.337
0.211,0.038,0.271,-5.337
0.271,0.036,0.270,-5.337
0.212,0.037,0.266,-5.337
0.114,0.045,0.264,-5.337
0.120,0.047,0.263,-5.337
0.167,0.046,0.259,-5.337
0.178,0.042,0.261,-5.337
0.169,0.044,0.265,-5.337
0.231,0.042,0.265,-5.337
0.235,0.044,0.266,-5.337
0.187,0.042,0.268,-5.337
0.180,0.039,0.270,-5.337
0.167,0.038,0.269,-5.337
0.132,0.041,0.266,-5.337
0.164,0.040,0.260,-5.337
0.142,0.039,0.260,-5.337
0.130,0.040,0.260,-5.337
0.153,0.038,0.262,-5.337
0.205,0.038,0.264,-5.337
0.175,0.040,0.264,-5.337
0.112,0.042,0.266,-5.337
0.096,0.042,0.268,-5.337
0.137,0.040,0.271,-5.337
0.169,0.039,0.270,-5.337
0.221,0.039,0.269,-5.337
0.187,0.044,0.269,-5.337
0.202,0.045,0.269,-5.337
0.243,0.042,0.264,-5.337
0.221,0.044,0.261,-5.337
0.180,0.045,0.262,-5.337
0.214,0.043,0.264,-5.337
0.238,0.041,0.263,-5.337
0.253,0.041,0.268,-5.337
0.218,0.041,0.271,-5.337
0.158,0.036,0.268,-5.337
0.220,0.033,0.261,-5.337
0.232,0.037,0.262,-5.337
0.209,0.038,0.265,-5.337
0.193,0.035,0.266,-5.337
0.197,0.034,0.266,-5.337
0.227,0.036,0.265,-5.337
0.204,0.035,0.263,-5.337
0.220,0.038,0.264,-5.337
0.301,0.036,0.266,-5.337
0.270,0.041,0.264,-5.337
0.161,0.045,0.265,-5.337
0.148,0.047,0.267,-5.337
0.222,0.045,0.270,-5.337
0.228,0.042,0.270,-5.337
0.194,0.042,0.266,-5.337
0.182,0.042,0.266,-5.337
0.176,0.042,0.266,-5.337
0.197,0.038,0.264,-5.337
0.215,0.039,0.264,-5.337
0.174,0.041,0.265,-5.337
0.156,0.042,0.266,-5.337
0.177,0.042,0.262,-5.337
0.151,0.045,0.263,-5.337
0.144,0.047,0.262,-5.337
0.184,0.049,0.263,-5.337
0.157,0.049,0.268,-5.337
0.162,0.049,0.270,-5.337
0.241,0.045,0.267,-5.337
0.231,0.043,0.262,-5.337
0.203,0.043,0.263,-5.337
0.167,0.046,0.268,-5.337
0.178,0.045,0.270,-5.337
0.213,0.043,0.269,-5.337
0.249,0.042,0.266,-5.337
0.224,0.044,0.264,-5.337
0.209,0.049,0.264,-5.337
0.193,0.051,0.266,-5.337
0.169,0.046,0.267,-5.337
0.155,0.047,0.269,-5.337
0.199,0.043,0.267,-5.337
0.216,0.043,0.259,-5.337
0.208,0.044,0.255,-5.337
0.154,0.047,0.258,-5.337
0.107,0.050,0.265,-5.337
0.149,0.051,0.267,-5.337
0.213,0.046,0.265,-5.337
0.180,0.047,0.266,-5.337
0.151,0.049,0.268,-5.337
0.093,0.050,0.271,-5.337
0.120,0.049,0.270,-5.337
0.200,0.044,0.267,-5.337
0.259,0.042,0.264,-5.337
0.257,0.045,0.265,-5.337
0.212,0.048,0.267,-5.337
0.169,0.047,0.265,-5.337
0.260,0.043,0.267,-5.337
0.285,0.043,0.267,-5.337
0.297,0.039,0.268,-5.337
0.306,0.041,0.268,-5.337
0.237,0.042,0.266,-5.337
0.206,0.037,0.259,-5.337
0.253,0.040,0.258,-5.337
0.245,0.044,0.261,-5.337
0.166,0.049,0.266,-5.337
0.185,0.043,0.267,-5.337
0.266,0.043,0.266,-5.337
0.278,0.045,0.263,-5.337
0.206,0.052,0.261,-5.337
0.149,0.052,0.263,-5.337
0.111,0.051,0.267,-5.337
0.121,0.046,0.272,-5.337
0.163,0.044,0.269,-5.337
0.100,0.048,0.268,-5.337
0.079,0.047,0.264,-5.337
0.160,0.050,0.260,-5.337
0.171,0.050,0.261,-5.337
0.192,0.049,0.266,-5.337
0.260,0.046,0.267,-5.337
0.327,0.045,0.269,-5.337
0.287,0.048,0.270,-5.337
0.225,0.053,0.267,-5.337
0.250,0.049,0.265,-5.337
0.253,0.047,0.264,-5.337
0.211,0.049,0.262,-5.337
0.170,0.052,0.261,-5.337
0.200,0.051,0.266,-5.337
0.224,0.055,0.274,-5.337
0.185,0.053,0.271,-5.337
0.152,0.052,0.267,-5.337
0.180,0.053,0.265,-5.337
0.174,0.052,0.267,-5.337
0.222,0.049,0.266,-5.337
0.288,0.047,0.262,-5.337
0.251,0.049,0.262,-5.337
0.153,0.053,0.261,-5.337
0.132,0.054,0.261,-5.337
0.128,0.051,0.260,-5.337
0.156,0.049,0.264,-5.337
0.233,0.051,0.268,-5.337
0.237,0.054,0.273,-5.337
0.175,0.054,0.269,-5.337
0.171,0.052,0.268,-5.337
0.168,0.054,0.266,-5.337
0.155,0.054,0.265,-5.337
0.243,0.050,0.263,-5.337
0.222,0.050,0.266,-5.337
0.194,0.048,0.266,-5.337
0.231,0.047,0.265,-5.337
0.257,0.049,0.264,-5.337
0.226,0.053,0.262,-5.337
0.163,0.055,0.260,-5.337
0.185,0.054,0.262,-5.337
0.282,0.051,0.266,-5.337
0.324,0.053,0.267,-5.337
0.210,0.056,0.268,-5.337
0.112,0.056,0.269,-5.337
0.147,0.055,0.271,-5.337
0.232,0.058,0.270,-5.337
0.236,0.059,0.269,-5.337
0.170,0.058,0.265,-5.337
0.198,0.056,0.267,-5.337
0.245,0.053,0.270,-5.337
0.283,0.055,0.268,-5.337
0.212,0.057,0.265,-5.337
0.145,0.055,0.261,-5.337
0.163,0.053,0.262,-5.337
0.221,0.057,0.269,-5.337
0.262,0.056,0.270,-5.337
0.245,0.056,0.267,-5.337
0.252,0.053,0.264,-5.337
0.254,0.052,0.263,-5.337
0.230,0.055,0.267,-5.337
0.258,0.055,0.271,-5.337
0.294,0.051,0.270,-5.337
0.283,0.055,0.268,-5.337
0.233,0.057,0.265,-5.337
0.222,0.058,0.264,-5.337
0.201,0.058,0.264,-5.337
0.196,0.054,0.266,-5.337
0.232,0.054,0.270,-5.337
0.170,0.057,0.270,-5.337
0.162,0.057,0.268,-5.337
0.276,0.055,0.264,-5.337
0.262,0.054,0.268,-5.337
0.249,0.052,0.273,-5.337
0.228,0.057,0.274,-5.337
0.187,0.061,0.267,-5.337
0.204,0.062,0.265,-5.337
0.251,0.061,0.264,-5.337
0.284,0.058,0.263,-5.337
0.279,0.058,0.266,-5.337
0.199,0.061,0.270,-5.337
0.164,0.060,0.269,-5.337
0.191,0.059,0.270,-5.337
0.222,0.054,0.269,-5.337
0.259,0.055,0.270,-5.337
0.267,0.054,0.268,-5.337
0.240,0.051,0.268,-5.337
0.252,0.054,0.269,-5.337
0.319,0.055,0.272,-5.337
0.311,0.057,0.268,-5.337
0.180,0.060,0.268,-5.337
0.109,0.058,0.266,-5.337
0.162,0.055,0.270,-5.337
0.262,0.056,0.274,-5.337
0.334,0.058,0.268,-5.337
0.302,0.054,0.262,-5.337
0.267,0.057,0.261,-5.337
0.200,0.063,0.268,-5.337
0.213,0.063,0.270,-5.337
0.236,0.059,0.273,-5.337
0.190,0.055,0.270,-5.337
0.184,0.059,0.268,-5.337
0.251,0.061,0.267,-5.337
0.256,0.066,0.269,-5.337
0.174,0.065,0.268,-5.337
0.175,0.058,0.265,-5.337
0.193,0.055,0.265,-5.337
0.220,0.056,0.268,-5.337
0.247,0.054,0.269,-5.337
0.245,0.055,0.268,-5.337
0.241,0.059,0.266,-5.337
0.195,0.063,0.269,-5.337
0.168,0.064,0.271,-5.337
0.182,0.059,0.270,-5.337
0.180,0.059,0.268,-5.337
0.203,0.059,0.270,-5.337
0.247,0.055,0.271,-5.337
0.218,0.060,0.266,-5.337
0.118,0.062,0.263,-5.337
0.130,0.059,0.264,-5.337
0.244,0.058,0.268,-5.337
0.266,0.058,0.271,-5.337
0.255,0.056,0.272,-5.337
0.252,0.057,0.268,-5.337
0.292,0.059,0.268,-5.337
0.281,0.060,0.270,-5.337
0.198,0.061,0.271,-5.337
0.218,0.059,0.268,-5.337
0.281,0.058,0.265,-5.337
0.255,0.056,0.264,-5.337
0.234,0.056,0.267,-5.337
0.232,0.060,0.268,-5.337
0.241,0.062,0.270,-5.337
0.269,0.060,0.271,-5.337
0.259,0.060,0.267,-5.337
0.216,0.060,0.263,-5.337
0.228,0.061,0.263,-5.337
0.261,0.060,0.266,-5.337
0.245,0.059,0.268,-5.337
0.192,0.061,0.267,-5.337
0.197,0.061,0.265,-5.337
0.205,0.062,0.263,-5.337
0.209,0.060,0.262,-5.337
0.258,0.058,0.261,-5.337
0.298,0.058,0.262,-5.337
0.223,0.059,0.264,-5.337
0.194,0.057,0.268,-5.337
0.288,0.054,0.275,-5.337
0.327,0.055,0.273,-5.337
0.264,0.054,0.274,-5.337
0.215,0.056,0.269,-5.337
0.290,0.054,0.268,-5.337
0.360,0.055,0.269,-5.337
0.333,0.056,0.269,-5.337
0.304,0.057,0.265,-5.337
0.238,0.059,0.264,-5.337
0.217,0.057,0.262,-5.337
0.169,0.057,0.265,-5.337
0.160,0.057,0.268,-5.337
0.163,0.056,0.268,-5.337
0.163,0.055,0.266,-5.337
0.151,0.055,0.265,-5.337
0.145,0.057,0.264,-5.337
0.263,0.053,0.265,-5.337
0.251,0.053,0.268,-5.337
0.212,0.049,0.266,-5.337
0.214,0.050,0.265,-5.337
0.177,0.057,0.264,-5.337
0.158,0.055,0.266,-5.337
0.187,0.051,0.266,-5.337
0.234,0.048,0.264,-5.337
0.286,0.052,0.264,-5.337
0.244,0.053,0.266,-5.337
0.221,0.051,0.263,-5.337
0.176,0.049,0.262,-5.337
0.104,0.049,0.265,-5.337
0.128,0.048,0.270,-5.337
0.213,0.048,0.270,-5.337
0.249,0.050,0.270,-5.337
0.240,0.051,0.268,-5.337
0.196,0.052,0.265,-5.337
0.177,0.049,0.263,-5.337
0.183,0.047,0.260,-5.337
0.202,0.048,0.262,-5.337
0.197,0.050,0.266,-5.337
0.147,0.051,0.266,-5.337
0.194,0.050,0.268,-5.337
0.175,0.052,0.270,-5.337
0.203,0.053,0.268,-5.337
0.240,0.052,0.262,-5.337
0.228,0.052,0.263,-5.337
0.233,0.051,0.265,-5.337
0.217,0.051,0.266,-5.337
0.213,0.049,0.268,-5.337
0.202,0.048,0.270,-5.337
0.231,0.048,0.270,-5.337
0.277,0.047,0.265,-5.337
0.281,0.045,0.265,-5.337
0.240,0.044,0.267,-5.337
0.209,0.045,0.269,-5.337
0.203,0.047,0.265,-5.337
0.193,0.054,0.267,-5.337
0.195,0.054,0.267,-5.337
0.242,0.048,0.267,-5.337
0.239,0.045,0.267,-5.337
0.217,0.046,0.264,-5.337
0.186,0.044,0.264,-5.337
0.189,0.043,0.267,-5.337
0.188,0.042,0.269,-5.337
0.259,0.041,0.264,-5.337
0.274,0.041,0.261,-5.337
0.220,0.042,0.264,-5.337
0.180,0.044,0.268,-5.337
0.217,0.041,0.273,-5.337
0.234,0.040,0.273,-5.337
0.216,0.041,0.271,-5.337
0.159,0.043,0.267,-5.337
0.161,0.042,0.263,-5.337
0.156,0.042,0.261,-5.337
0.209,0.043,0.265,-5.337
0.254,0.042,0.268,-5.337
0.244,0.042,0.267,-5.337
0.221,0.043,0.265,-5.337
0.269,0.039,0.267,-5.337
0.296,0.039,0.272,-5.337
0.277,0.041,0.271,-5.337
0.233,0.044,0.268,-5.337
0.188,0.045,0.267,-5.337
0.155,0.043,0.266,-5.337
0.205,0.041,0.266,-5.337
0.171,0.042,0.265,-5.337
0.176,0.040,0.263,-5.337
0.169,0.039,0.263,-5.337
0.134,0.037,0.265,-5.337
0.152,0.037,0.268,-5.337
0.200,0.042,0.267,-5.337
0.206,0.046,0.266,-5.337
0.144,0.046,0.263,-5.337
0.199,0.043,0.263,-5.337
0.243,0.042,0.263,-5.337
0.256,0.040,0.265,-5.337
0.221,0.042,0.268,-5.337
0.234,0.043,0.269,-5.337
0.260,0.041,0.272,-5.337
0.227,0.044,0.270,-5.337
0.195,0.042,0.267,-5.337
0.186,0.040,0.265,-5.337
0.206,0.040,0.264,-5.337
0.218,0.042,0.265,-5.337
0.142,0.044,0.268,-5.337
0.079,0.044,0.267,-5.337
0.122,0.043,0.267,-5.337
0.171,0.039,0.264,-5.337
0.172,0.042,0.264,-5.337
0.161,0.042,0.264,-5.337
0.159,0.042,0.266,-5.337
0.199,0.038,0.262,-5.337
0.205,0.039,0.260,-5.337
0.200,0.042,0.262,-5.337
0.179,0.041,0.262,-5.337
0.151,0.036,0.264,-5.337
0.242,0.035,0.268,-5.337
0.274,0.035,0.267,-5.337
0.234,0.033,0.263,-5.337
0.242,0.031,0.262,-5.337
0.206,0.034,0.264,-5.337
0.193,0.034,0.267,-5.337
0.190,0.034,0.267,-5.337
0.175,0.031,0.266,-5.337
0.225,0.032,0.264,-5.337
0.187,0.038,0.267,-5.337
0.146,0.040,0.270,-5.337
0.213,0.038,0.272,-5.337
0.235,0.038,0.267,-5.337
0.206,0.041,0.267,-5.337
0.183,0.042,0.266,-5.337
0.181,0.039,0.269,-5.337
0.163,0.037,0.270,-5.337
0.133,0.040,0.269,-5.337
0.149,0.037,0.265,-5.337
0.215,0.034,0.265,-5.337
0.227,0.034,0.267,-5.337
0.211,0.033,0.267,-5.337
0.198,0.036,0.262,-5.337
0.208,0.038,0.259,-5.337
0.235,0.040,0.262,-5.337
0.269,0.039,0.266,-5.337
0.175,0.043,0.267,-5.337
0.083,0.042,0.267,-5.337
0.180,0.042,0.268,-5.337
0.219,0.044,0.266,-5.337
0.207,0.045,0.267,-5.337
0.158,0.042,0.266,-5.337
0.183,0.040,0.266,-5.337
0.263,0.039,0.265,-5.337
0.222,0.038,0.267,-5.337
0.176,0.035,0.264,-5.337
0.192,0.039,0.263,-5.337
0.229,0.041,0.263,-5.337
0.268,0.037,0.264,-5.337
0.226,0.036,0.265,-5.337
0.237,0.037,0.267,-5.337
0.205,0.037,0.270,-5.337
0.219,0.036,0.269,-5.337
0.240,0.036,0.266,-5.337
0.246,0.037,0.264,-5.337
0.199,0.037,0.268,-5.337
0.151,0.036,0.272,-5.337
0.150,0.039,0.266,-5.337
0.168,0.037,0.259,-5.337
0.167,0.039,0.257,-5.337
0.109,0.041,0.263,-5.337
0.129,0.038,0.269,-5.337
0.198,0.038,0.269,-5.337
0.204,0.037,0.268,-5.337
0.219,0.036,0.267,-5.337
0.210,0.035,0.266,-5.337
0.232,0.033,0.265,-5.337
0.258,0.033,0.264,-5.337
0.257,0.036,0.265,-5.337
0.193,0.037,0.269,-5.337
0.197,0.033,0.266,-5.337
0.199,0.036,0.266,-5.337
0.121,0.041,0.267,-5.337
0.072,0.042,0.267,-5.337
0.144,0.038,0.265,-5.337
0.211,0.038,0.265,-5.337
0.237,0.034,0.264,-5.337
0.242,0.031,0.263,-5.337
0.161,0.036,0.264,-5.337
0.157,0.040,0.268,-5.337
0.138,0.041,0.273,-5.337
0.176,0.038,0.272,-5.337
0.262,0.038,0.269,-5.337
0.222,0.042,0.267,-5.337
0.223,0.036,0.264,-5.337
0.220,0.034,0.267,-5.337
0.131,0.037,0.273,-5.337
0.150,0.040,0.272,-5.337
0.205,0.038,0.270,-5.337
0.172,0.035,0.266,-5.337
0.158,0.035,0.266,-5.337
0.209,0.033,0.269,-5.337
0.185,0.033,0.270,-5.337
0.157,0.036,0.266,-5.337
0.179,0.038,0.266,-5.337
0.158,0.036,0.267,-5.337
0.164,0.033,0.270,-5.337
0.161,0.033,0.264,-5.337
0.118,0.033,0.260,-5.337
0.142,0.033,0.265,-5.337
0.163,0.035,0.267,-5.337
0.087,0.034,0.265,-5.337
0.093,0.033,0.267,-5.337
0.137,0.032,0.270,-5.337
0.115,0.035,0.272,-5.337
0.142,0.034,0.270,-5.337
0.139,0.036,0.265,-5.337
0.155,0.036,0.267,-5.337
0.183,0.032,0.273,-5.337
0.174,0.031,0.272,-5.337
0.184,0.036,0.268,-5.337
0.167,0.039,0.266,-5.337
0.196,0.038,0.268,-5.337
0.253,0.038,0.271,-5.337
0.218,0.037,0.270,-5.337
0.171,0.035,0.269,-5.337
0.171,0.032,0.265,-5.337
0.198,0.032,0.265,-5.337
0.220,0.037,0.269,-5.337
0.182,0.039,0.270,-5.337
0.153,0.038,0.266,-5.337
0.227,0.034,0.264,-5.337
0.286,0.033,0.268,-5.337
0.233,0.039,0.274,-5.337
0.208,0.036,0.272,-5.337
0.189,0.032,0.267,-5.337
0.187,0.031,0.268,-5.337
0.141,0.034,0.270,-5.337
0.073,0.036,0.269,-5.337
0.165,0.033,0.270,-5.337
0.279,0.032,0.273,-5.337
0.258,0.034,0.272,-5.337
0.205,0.035,0.268,-5.337
0.203,0.033,0.266,-5.337
0.182,0.034,0.266,-5.337
0.192,0.035,0.264,-5.337
0.171,0.038,0.266,-5.337
0.121,0.039,0.271,-5.337
0.112,0.037,0.274,-5.337
0.148,0.034,0.273,-5.337
0.109,0.037,0.272,-5.337
0.092,0.039,0.265,-5.337
0.084,0.040,0.262,-5.337
0.116,0.040,0.264,-5.337
0.159,0.039,0.268,-5.337
0.200,0.040,0.267,-5.337
0.121,0.040,0.267,-5.337
0.119,0.040,0.269,-5.337
0.170,0.039,0.274,-5.337
0.199,0.039,0.270,-5.337
0.180,0.041,0.270,-5.337
0.152,0.039,0.270,-5.337
0.146,0.040,0.269,-5.337
0.162,0.037,0.269,-5.337
0.202,0.041,0.271,-5.337
0.206,0.042,0.271,-5.337
0.194,0.041,0.271,-5.337
0.231,0.041,0.266,-5.337
0.232,0.042,0.263,-5.337
0.153,0.042,0.265,-5.337
0.090,0.042,0.264,-5.337
0.154,0.042,0.261,-5.337
0.244,0.038,0.264,-5.337
0.221,0.036,0.270,-5.337
0.143,0.041,0.271,-5.337
0.163,0.037,0.268,-5.337
0.186,0.037,0.263,-5.337
0.142,0.040,0.265,-5.337
0.172,0.037,0.265,-5.337
0.312,0.036,0.268,-5.337
0.331,0.037,0.270,-5.337
0.191,0.039,0.270,-5.337
0.132,0.038,0.268,-5.337
0.163,0.042,0.268,-5.337
0.154,0.045,0.270,-5.337
0.142,0.046,0.269,-5.337
0.133,0.044,0.269,-5.337
0.151,0.043,0.270,-5.337
0.157,0.042,0.270,-5.337
0.167,0.040,0.268,-5.337
0.200,0.044,0.266,-5.337
0.144,0.045,0.261,-5.337
0.134,0.042,0.262,-5.337
0.191,0.042,0.265,-5.337
0.211,0.042,0.270,-5.337
0.215,0.042,0.271,-5.337
0.182,0.043,0.273,-5.337
0.206,0.044,0.271,-5.337
0.209,0.045,0.271,-5.337
0.213,0.045,0.266,-5.337
0.182,0.046,0.263,-5.337
0.144,0.043,0.264,-5.337
0.188,0.042,0.268,-5.337
0.237,0.041,0.269,-5.337
0.201,0.044,0.266,-5.337
0.185,0.045,0.266,-5.337
0.196,0.047,0.266,-5.337
0.210,0.045,0.267,-5.337
0.234,0.044,0.269,-5.337
0.182,0.047,0.267,-5.337
0.088,0.049,0.264,-5.337
0.135,0.047,0.265,-5.337
0.198,0.046,0.266,-5.337
0.185,0.047,0.267,-5.337
0.231,0.045,0.265,-5.337
0.309,0.042,0.263,-5.337
0.259,0.042,0.262,-5.337
0.226,0.044,0.263,-5.337
0.233,0.047,0.267,-5.337
0.235,0.046,0.270,-5.337
0.214,0.046,0.269,-5.337
0.178,0.044,0.268,-5.337
0.203,0.041,0.265,-5.337
0.199,0.042,0.265,-5.337
0.285,0.042,0.264,-5.337
0.336,0.043,0.265,-5.337
0.279,0.043,0.267,-5.337
0.218,0.042,0.265,-5.337
0.236,0.039,0.265,-5.337
0.239,0.044,0.266,-5.337
0.184,0.045,0.268,-5.337
0.163,0.046,0.266,-5.337
0.256,0.045,0.265,-5.337
0.238,0.048,0.268,-5.337
0.182,0.047,0.270,-5.337
0.188,0.045,0.267,-5.337
0.171,0.046,0.265,-5.337
0.197,0.045,0.267,-5.337
0.276,0.045,0.268,-5.337
0.261,0.045,0.265,-5.337
0.212,0.046,0.264,-5.337
0.195,0.046,0.264,-5.337
0.254,0.045,0.265,-5.337
0.307,0.046,0.264,-5.337
0.240,0.047,0.265,-5.337
0.192,0.044,0.264,-5.337
0.174,0.047,0.268,-5.337
0.138,0.047,0.273,-5.337
0.174,0.044,0.271,-5.337
0.227,0.045,0.267,-5.337
0.204,0.045,0.267,-5.337
0.139,0.048,0.267,-5.337
0.127,0.049,0.263,-5.337
0.111,0.048,0.264,-5.337
0.138,0.044,0.266,-5.337
0.197,0.040,0.266,-5.337
0.246,0.037,0.265,-5.337
0.216,0.039,0.265,-5.337
0.130,0.043,0.268,-5.337
0.142,0.044,0.269,-5.337
0.206,0.045,0.268,-5.337
0.253,0.042,0.267,-5.337
0.276,0.043,0.269,-5.337
0.202,0.047,0.269,-5.337
0.157,0.051,0.266,-5.337
0.218,0.050,0.263,-5.337
0.209,0.052,0.260,-5.337
0.205,0.050,0.260,-5.337
0.199,0.050,0.261,-5.337
0.180,0.049,0.265,-5.337
0.193,0.048,0.268,-5.337
0.241,0.051,0.267,-5.337
0.225,0.051,0.266,-5.337
0.229,0.051,0.268,-5.337
0.279,0.050,0.267,-5.337
0.268,0.054,0.268,-5.337
0.239,0.054,0.268,-5.337
0.239,0.057,0.269,-5.337
0.189,0.055,0.267,-5.337
0.139,0.049,0.266,-5.337
0.164,0.048,0.263,-5.337
0.124,0.053,0.260,-5.337
0.170,0.048,0.261,-5.337
0.250,0.045,0.262,-5.337
0.219,0.050,0.261,-5.337
0.200,0.052,0.265,-5.337
0.186,0.051,0.270,-5.337
0.172,0.052,0.273,-5.337
0.162,0.054,0.272,-5.337
0.201,0.056,0.268,-5.337
0.236,0.055,0.262,-5.337
0.203,0.058,0.259,-5.337
0.213,0.055,0.260,-5.337
0.272,0.054,0.261,-5.337
0.309,0.054,0.266,-5.337
0.289,0.055,0.269,-5.337
0.194,0.059,0.270,-5.337
0.193,0.056,0.269,-5.337
0.265,0.055,0.268,-5.337
0.304,0.055,0.264,-5.337
0.265,0.056,0.263,-5.337
0.192,0.061,0.265,-5.337
0.112,0.061,0.269,-5.337
0.138,0.061,0.271,-5.337
0.199,0.059,0.269,-5.337
0.256,0.054,0.267,-5.337
0.255,0.053,0.264,-5.337
0.218,0.055,0.263,-5.337
0.190,0.058,0.263,-5.337
0.228,0.058,0.262,-5.337
0.249,0.058,0.263,-5.337
0.226,0.058,0.266,-5.337
0.186,0.055,0.264,-5.337
0.195,0.055,0.263,-5.337
0.239,0.056,0.263,-5.337
0.179,0.057,0.265,-5.337
0.124,0.056,0.266,-5.337
0.206,0.055,0.268,-5.337
0.230,0.055,0.269,-5.337
0.256,0.053,0.269,-5.337
0.279,0.053,0.266,-5.337
0.180,0.057,0.265,-5.337
0.119,0.058,0.265,-5.337
0.227,0.055,0.265,-5.337
0.257,0.059,0.265,-5.337
0.188,0.061,0.267,-5.337
0.236,0.059,0.267,-5.337
0.269,0.060,0.266,-5.337
0.225,0.062,0.264,-5.337
0.193,0.063,0.265,-5.337
0.233,0.062,0.267,-5.337
0.250,0.064,0.266,-5.337
0.244,0.064,0.267,-5.337
0.240,0.062,0.268,-5.337
0.231,0.057,0.268,-5.337
0.195,0.057,0.267,-5.337
0.192,0.060,0.265,-5.337
0.182,0.058,0.263,-5.337
0.234,0.054,0.260,-5.337
0.294,0.053,0.264,-5.337
0.228,0.054,0.268,-5.337
0.192,0.056,0.268,-5.337
0.198,0.057,0.267,-5.337
0.245,0.058,0.262,-5.337
0.228,0.062,0.262,-5.337
0.162,0.060,0.266,-5.337
0.144,0.058,0.267,-5.337
0.218,0.059,0.262,-5.337
0.279,0.057,0.262,-5.337
0.282,0.054,0.262,-5.337
0.254,0.059,0.265,-5.337
0.291,0.057,0.267,-5.337
0.293,0.059,0.266,-5.337
0.311,0.060,0.265,-5.337
0.288,0.060,0.265,-5.337
0.271,0.060,0.267,-5.337
0.285,0.060,0.269,-5.337
0.287,0.057,0.268,-5.337
0.244,0.057,0.268,-5.337
0.191,0.057,0.270,-5.337
0.196,0.059,0.268,-5.337
0.211,0.056,0.269,-5.337
0.168,0.058,0.269,-5.337
0.203,0.059,0.268,-5.337
0.257,0.060,0.266,-5.337
0.289,0.057,0.266,-5.337
0.303,0.059,0.266,-5.337
0.244,0.063,0.265,-5.337
0.168,0.061,0.261,-5.337
0.187,0.057,0.262,-5.337
0.191,0.059,0.265,-5.337
0.173,0.063,0.268,-5.337
0.193,0.060,0.271,-5.337
0.229,0.057,0.268,-5.337
0.220,0.059,0.265,-5.337
0.179,0.062,0.264,-5.337
0.198,0.062,0.265,-5.337
0.220,0.062,0.266,-5.337
0.258,0.061,0.268,-5.337
0.321,0.062,0.267,-5.337
0.278,0.060,0.267,-5.337
0.230,0.061,0.266,-5.337
0.252,0.058,0.264,-5.337
0.257,0.058,0.265,-5.337
0.216,0.060,0.267,-5.337
0.189,0.060,0.268,-5.337
0.203,0.064,0.267,-5.337
0.214,0.063,0.263,-5.337
0.218,0.062,0.263,-5.337
0.234,0.063,0.267,-5.337
0.190,0.065,0.268,-5.337
0.133,0.062,0.268,-5.337
0.164,0.059,0.273,-5.337
0.249,0.059,0.272,-5.337
0.278,0.060,0.271,-5.337
0.263,0.062,0.272,-5.337
0.197,0.063,0.269,-5.337
0.196,0.059,0.266,-5.337
0.281,0.060,0.265,-5.337
0.246,0.059,0.262,-5.337
0.232,0.062,0.262,-5.337
0.251,0.065,0.266,-5.337
0.220,0.066,0.266,-5.337
0.202,0.066,0.265,-5.337
0.197,0.063,0.263,-5.337
0.212,0.061,0.267,-5.337
0.186,0.062,0.271,-5.337
0.169,0.065,0.273,-5.337
0.163,0.064,0.271,-5.337
0.257,0.063,0.268,-5.337
0.332,0.063,0.268,-5.337
0.300,0.065,0.272,-5.337
0.248,0.060,0.270,-5.337
0.247,0.058,0.267,-5.337
0.177,0.064,0.267,-5.337
0.147,0.065,0.269,-5.337
0.218,0.063,0.268,-5.337
0.229,0.063,0.270,-5.337
0.192,0.058,0.268,-5.337
0.205,0.057,0.266,-5.337
0.227,0.059,0.265,-5.337
0.195,0.062,0.267,-5.337
0.183,0.062,0.268,-5.337
0.164,0.061,0.270,-5.337
0.220,0.057,0.268,-5.337
0.220,0.056,0.268,-5.337
0.192,0.056,0.269,-5.337
0.135,0.062,0.269,-5.337
0.170,0.059,0.268,-5.337
0.252,0.056,0.265,-5.337
0.265,0.055,0.263,-5.337
0.194,0.063,0.261,-5.337
0.157,0.063,0.262,-5.337
0.179,0.060,0.265,-5.337
0.261,0.052,0.267,-5.337
0.347,0.049,0.266,-5.337
0.297,0.053,0.265,-5.337
0.208,0.053,0.266,-5.337
0.190,0.055,0.266,-5.337
0.155,0.058,0.265,-5.337
0.198,0.055,0.266,-5.337
0.259,0.056,0.267,-5.337
0.253,0.056,0.267,-5.337
0.279,0.051,0.265,-5.337
0.253,0.051,0.267,-5.337
0.253,0.053,0.269,-5.337
0.255,0.053,0.268,-5.337
0.291,0.053,0.263,-5.337
0.263,0.054,0.261,-5.337
0.201,0.053,0.261,-5.337
0.101,0.058,0.265,-5.337
0.095,0.055,0.269,-5.337
0.172,0.052,0.272,-5.337
0.239,0.050,0.268,-5.337
0.233,0.051,0.266,-5.337
0.230,0.052,0.270,-5.337
0.197,0.053,0.270,-5.337
0.125,0.056,0.265,-5.337
0.084,0.060,0.262,-5.337
0.157,0.057,0.265,-5.337
0.228,0.054,0.271,-5.337
0.221,0.052,0.271,-5.337
0.167,0.053,0.264,-5.337
0.159,0.053,0.263,-5.337
0.257,0.052,0.268,-5.337
0.227,0.052,0.273,-5.337
0.173,0.052,0.271,-5.337
0.173,0.051,0.267,-5.337
0.219,0.048,0.261,-5.337
0.184,0.050,0.260,-5.337
0.186,0.049,0.261,-5.337
0.215,0.050,0.263,-5.337
0.160,0.047,0.262,-5.337
0.116,0.049,0.263,-5.337
0.185,0.047,0.268,-5.337
0.260,0.046,0.269,-5.337
0.236,0.047,0.266,-5.337
0.182,0.048,0.269,-5.337
0.201,0.046,0.272,-5.337
0.179,0.049,0.272,-5.337
0.150,0.046,0.270,-5.337
0.238,0.044,0.268,-5.337
0.294,0.040,0.268,-5.337
0.212,0.044,0.265,-5.337
0.176,0.046,0.262,-5.337
0.205,0.046,0.260,-5.337
0.188,0.047,0.265,-5.337
0.126,0.050,0.268,-5.337
0.173,0.048,0.268,-5.337
0.236,0.042,0.264,-5.337
0.259,0.042,0.265,-5.337
0.227,0.043,0.263,-5.337
0.156,0.047,0.262,-5.337
0.138,0.047,0.259,-5.337
0.162,0.047,0.259,-5.337
0.197,0.043,0.259,-5.337
0.206,0.043,0.262,-5.337
0.238,0.039,0.266,-5.337
0.264,0.039,0.269,-5.337
0.231,0.040,0.271,-5.337
0.230,0.043,0.271,-5.337
0.191,0.043,0.270,-5.337
0.160,0.042,0.266,-5.337
0.171,0.043,0.263,-5.337
0.221,0.042,0.262,-5.337
0.185,0.041,0.262,-5.337
0.158,0.042,0.263,-5.337
0.174,0.042,0.265,-5.337
0.214,0.041,0.267,-5.337
0.253,0.040,0.267,-5.337
0.278,0.039,0.267,-5.337
0.212,0.038,0.271,-5.337
0.207,0.038,0.269,-5.337
0.200,0.043,0.267,-5.337
0.161,0.044,0.268,-5.337
0.191,0.042,0.269,-5.337
0.237,0.042,0.265,-5.337
0.226,0.041,0.264,-5.337
0.202,0.038,0.262,-5.337
0.144,0.040,0.261,-5.337
0.147,0.040,0.263,-5.337
0.192,0.041,0.262,-5.337
0.204,0.041,0.261,-5.337
0.181,0.041,0.259,-5.337
0.175,0.039,0.264,-5.337
0.172,0.040,0.266,-5.337
0.199,0.042,0.265,-5.337
0.188,0.041,0.263,-5.337
0.186,0.041,0.261,-5.337
0.202,0.038,0.264,-5.337
0.182,0.039,0.269,-5.337
0.238,0.039,0.266,-5.337
0.219,0.041,0.264,-5.337
0.194,0.042,0.265,-5.337
0.232,0.040,0.267,-5.337
0.224,0.038,0.266,-5.337
0.215,0.034,0.267,-5.337
0.186,0.032,0.265,-5.337
0.134,0.036,0.264,-5.337
0.167,0.038,0.264,-5.337
0.246,0.036,0.267,-5.337
0.195,0.038,0.264,-5.337
0.174,0.036,0.263,-5.337
0.232,0.034,0.262,-5.337
0.273,0.036,0.267,-5.337
0.239,0.035,0.268,-5.337
0.188,0.036,0.266,-5.337
0.212,0.036,0.266,-5.337
0.212,0.037,0.266,-5.337
0.159,0.040,0.262,-5.337
0.136,0.042,0.259,-5.337
0.131,0.042,0.258,-5.337
0.134,0.038,0.260,-5.337
0.124,0.039,0.264,-5.337
0.097,0.042,0.266,-5.337
0.131,0.041,0.266,-5.337
0.126,0.041,0.265,-5.337
0.088,0.044,0.265,-5.337
0.188,0.041,0.266,-5.337
0.219,0.040,0.269,-5.337
0.227,0.038,0.266,-5.337
0.252,0.029,0.266,-5.337
0.302,0.030,0.266,-5.337
0.233,0.033,0.267,-5.337
0.207,0.032,0.267,-5.337
0.215,0.032,0.264,-5.337
0.215,0.033,0.261,-5.337
0.204,0.033,0.262,-5.337
0.237,0.030,0.263,-5.337
0.242,0.031,0.263,-5.337
0.231,0.030,0.262,-5.337
0.231,0.031,0.263,-5.337
0.178,0.029,0.260,-5.337
0.183,0.030,0.266,-5.337
0.151,0.034,0.270,-5.337
0.129,0.035,0.271,-5.337
0.148,0.032,0.267,-5.337
0.199,0.029,0.266,-5.337
0.161,0.033,0.263,-5.337
0.074,0.035,0.260,-5.337
0.055,0.034,0.260,-5.337
0.081,0.032,0.263,-5.337
0.128,0.031,0.267,-5.337
0.180,0.032,0.270,-5.337
0.177,0.032,0.268,-5.337
0.178,0.034,0.264,-5.337
0.167,0.035,0.263,-5.337
0.130,0.034,0.263,-5.337
0.174,0.031,0.268,-5.337
0.258,0.028,0.272,-5.337
0.285,0.027,0.271,-5.337
0.224,0.029,0.264,-5.337
0.152,0.034,0.262,-5.337
0.115,0.033,0.263,-5.337
0.127,0.034,0.263,-5.337
0.148,0.032,0.262,-5.337
0.182,0.031,0.263,-5.337
0.170,0.035,0.264,-5.337
0.173,0.036,0.265,-5.337
0.235,0.036,0.266,-5.337
0.240,0.038,0.267,-5.337
0.111,0.039,0.264,-5.337
0.077,0.037,0.260,-5.337
0.079,0.034,0.257,-5.337
0.130,0.035,0.256,-5.337
0.233,0.037,0.260,-5.337
0.211,0.039,0.265,-5.337
0.154,0.036,0.268,-5.337
0.142,0.035,0.269,-5.337
0.127,0.036,0.272,-5.337
0.107,0.036,0.271,-5.337
0.184,0.034,0.269,-5.337
0.207,0.033,0.266,-5.337
0.197,0.034,0.267,-5.337
0.110,0.038,0.265,-5.337
0.150,0.033,0.263,-5.337
0.205,0.031,0.258,-5.337
0.206,0.033,0.257,-5.337
0.240,0.030,0.263,-5.337
0.259,0.031,0.269,-5.337
0.252,0.029,0.269,-5.337
0.221,0.029,0.269,-5.337
0.166,0.031,0.266,-5.337
0.147,0.030,0.261,-5.337
0.257,0.029,0.260,-5.337
0.273,0.030,0.262,-5.337
0.191,0.031,0.265,-5.337
0.191,0.030,0.265,-5.337
0.170,0.029,0.268,-5.337
0.180,0.032,0.268,-5.337
0.236,0.031,0.267,-5.337
0.202,0.033,0.265,-5.337
0.087,0.036,0.267,-5.337
0.168,0.032,0.267,-5.337
0.271,0.032,0.270,-5.337
0.243,0.031,0.269,-5.337
0.179,0.034,0.268,-5.337
0.152,0.037,0.265,-5.337
0.195,0.037,0.265,-5.337
0.208,0.035,0.267,-5.337
0.201,0.034,0.270,-5.337
0.180,0.032,0.269,-5.337
0.142,0.036,0.263,-5.337
0.093,0.038,0.262,-5.337
0.078,0.039,0.265,-5.337
0.058,0.038,0.267,-5.337
0.105,0.038,0.269,-5.337
0.176,0.035,0.269,-5.337
0.277,0.032,0.268,-5.337
0.263,0.034,0.264,-5.337
0.163,0.038,0.264,-5.337
0.125,0.037,0.268,-5.337
0.095,0.037,0.272,-5.337
0.140,0.034,0.272,-5.337
0.161,0.033,0.270,-5.337
0.164,0.035,0.268,-5.337
0.187,0.035,0.264,-5.337
0.150,0.034,0.266,-5.337
0.173,0.032,0.266,-5.337
0.236,0.033,0.268,-5.337
0.228,0.038,0.267,-5.337
0.148,0.038,0.268,-5.337
0.111,0.034,0.266,-5.337
0.204,0.032,0.266,-5.337
0.255,0.032,0.267,-5.337
0.276,0.032,0.267,-5.337
0.211,0.036,0.265,-5.337
0.239,0.037,0.265,-5.337
0.233,0.035,0.265,-5.337
0.147,0.035,0.268,-5.337
0.162,0.034,0.269,-5.337
0.147,0.036,0.268,-5.337
0.176,0.035,0.269,-5.337
0.193,0.037,0.270,-5.337
0.167,0.041,0.273,-5.337
0.177,0.039,0.274,-5.337
0.224,0.038,0.271,-5.337
0.220,0.037,0.268,-5.337
0.201,0.038,0.269,-5.337
0.189,0.041,0.272,-5.337
0.172,0.041,0.271,-5.337
0.176,0.036,0.270,-5.337
0.195,0.036,0.272,-5.337
0.151,0.040,0.270,-5.337
0.127,0.041,0.266,-5.337
0.103,0.039,0.262,-5.337
0.130,0.033,0.265,-5.337
0.186,0.030,0.265,-5.337
0.189,0.035,0.267,-5.337
0.236,0.035,0.265,-5.337
0.239,0.040,0.264,-5.337
0.145,0.041,0.266,-5.337
0.104,0.040,0.269,-5.337
0.102,0.040,0.270,-5.337
0.079,0.042,0.270,-5.337
0.182,0.040,0.267,-5.337
0.272,0.038,0.266,-5.337
0.233,0.039,0.271,-5.337
0.214,0.037,0.272,-5.337
0.217,0.038,0.267,-5.337
0.175,0.037,0.268,-5.337
0.139,0.039,0.273,-5.337
0.149,0.039,0.274,-5.337
0.176,0.041,0.268,-5.337
0.214,0.039,0.261,-5.337
0.210,0.036,0.263,-5.337
0.175,0.035,0.268,-5.337
0.160,0.036,0.268,-5.337
0.159,0.036,0.265,-5.337
0.208,0.038,0.265,-5.337
0.253,0.039,0.267,-5.337
0.209,0.042,0.268,-5.337
0.121,0.043,0.268,-5.337
0.138,0.043,0.268,-5.337
0.195,0.043,0.268,-5.337
0.219,0.042,0.269,-5.337
0.198,0.039,0.268,-5.337
0.208,0.040,0.267,-5.337
0.248,0.036,0.262,-5.337
0.188,0.046,0.258,-5.337
0.160,0.046,0.261,-5.337
0.222,0.044,0.267,-5.337
0.244,0.045,0.270,-5.337
0.234,0.048,0.269,-5.337
0.238,0.044,0.268,-5.337
0.198,0.042,0.269,-5.337
0.204,0.040,0.267,-5.337
0.242,0.042,0.268,-5.337
0.222,0.040,0.267,-5.337
0.199,0.038,0.267,-5.337
0.156,0.039,0.268,-5.337
0.166,0.040,0.266,-5.337
0.179,0.039,0.264,-5.337
0.205,0.038,0.265,-5.337
0.255,0.038,0.267,-5.337
0.257,0.037,0.264,-5.337
0.188,0.043,0.262,-5.337
0.181,0.041,0.262,-5.337
0.171,0.041,0.268,-5.337
0.190,0.041,0.273,-5.337
0.189,0.043,0.272,-5.337
0.162,0.042,0.265,-5.337
0.140,0.043,0.261,-5.337
0.197,0.042,0.262,-5.337
0.208,0.043,0.267,-5.337
0.166,0.043,0.271,-5.337
0.216,0.039,0.268,-5.337
0.243,0.040,0.266,-5.337
0.287,0.041,0.267,-5.337
0.273,0.042,0.271,-5.337
0.174,0.043,0.268,-5.337
0.084,0.048,0.261,-5.337
0.064,0.049,0.262,-5.337
0.073,0.046,0.267,-5.337
0.112,0.044,0.264,-5.337
0.161,0.046,0.262,-5.337
0.235,0.044,0.264,-5.337
0.192,0.046,0.266,-5.337
0.122,0.049,0.267,-5.337
0.237,0.047,0.266,-5.337
0.252,0.043,0.268,-5.337
0.225,0.045,0.270,-5.337
0.201,0.047,0.266,-5.337
0.183,0.046,0.263,-5.337
0.156,0.046,0.264,-5.337
0.215,0.045,0.264,-5.337
0.228,0.042,0.264,-5.337
0.247,0.040,0.270,-5.337
0.242,0.040,0.268,-5.337
0.247,0.042,0.265,-5.337
0.196,0.044,0.265,-5.337
0.143,0.046,0.267,-5.337
0.207,0.044,0.269,-5.337
0.274,0.046,0.267,-5.337
0.264,0.047,0.266,-5.337
0.167,0.053,0.269,-5.337
0.105,0.055,0.267,-5.337
0.137,0.054,0.261,-5.337
0.177,0.050,0.261,-5.337
0.226,0.046,0.262,-5.337
0.264,0.046,0.263,-5.337
0.294,0.043,0.264,-5.337
0.285,0.046,0.265,-5.337
0.264,0.045,0.266,-5.337
0.254,0.046,0.270,-5.337
0.202,0.048,0.271,-5.337
0.183,0.047,0.272,-5.337
0.160,0.045,0.267,-5.337
0.165,0.044,0.263,-5.337
0.224,0.046,0.262,-5.337
0.216,0.048,0.260,-5.337
0.169,0.049,0.260,-5.337
0.118,0.054,0.261,-5.337
0.091,0.053,0.264,-5.337
0.133,0.053,0.271,-5.337
0.226,0.050,0.275,-5.337
0.313,0.050,0.276,-5.337
0.228,0.051,0.274,-5.337
0.100,0.050,0.267,-5.337
0.128,0.049,0.261,-5.337
0.231,0.050,0.261,-5.337
0.295,0.048,0.263,-5.337
0.264,0.050,0.264,-5.337
0.240,0.053,0.263,-5.337
0.257,0.050,0.267,-5.337
0.254,0.049,0.271,-5.337
0.242,0.051,0.269,-5.337
0.239,0.054,0.266,-5.337
0.183,0.056,0.261,-5.337
0.222,0.056,0.258,-5.337
0.226,0.059,0.258,-5.337
0.136,0.062,0.265,-5.337
0.112,0.060,0.268,-5.337
0.127,0.058,0.268,-5.337
0.167,0.057,0.268,-5.337
0.233,0.056,0.266,-5.337
0.227,0.054,0.263,-5.337
0.168,0.056,0.262,-5.337
0.135,0.055,0.263,-5.337
0.225,0.053,0.264,-5.337
0.207,0.055,0.263,-5.337
0.138,0.057,0.266,-5.337
0.134,0.058,0.268,-5.337
0.173,0.056,0.271,-5.337
0.179,0.055,0.272,-5.337
0.195,0.054,0.268,-5.337
0.227,0.055,0.265,-5.337
0.264,0.054,0.265,-5.337
0.322,0.052,0.262,-5.337
0.366,0.055,0.265,-5.337
0.377,0.056,0.271,-5.337
0.274,0.059,0.274,-5.337
0.158,0.061,0.273,-5.337
0.209,0.059,0.265,-5.337
0.252,0.059,0.261,-5.337
0.173,0.061,0.261,-5.337
0.127,0.062,0.261,-5.337
0.175,0.058,0.260,-5.337
0.199,0.059,0.261,-5.337
0.243,0.057,0.261,-5.337
0.261,0.057,0.263,-5.337
0.211,0.058,0.264,-5.337
0.209,0.058,0.264,-5.337
0.246,0.061,0.266,-5.337
0.159,0.065,0.267,-5.337
0.174,0.062,0.262,-5.337
0.224,0.058,0.262,-5.337
0.242,0.058,0.264,-5.337
0.225,0.061,0.267,-5.337
0.192,0.062,0.263,-5.337
0.172,0.061,0.261,-5.337
0.228,0.061,0.267,-5.337
0.272,0.062,0.272,-5.337
0.249,0.061,0.271,-5.337
0.255,0.059,0.268,-5.337
0.244,0.063,0.267,-5.337
0.173,0.063,0.265,-5.337
0.211,0.063,0.264,-5.337
0.295,0.062,0.261,-5.337
0.276,0.065,0.264,-5.337
0.232,0.064,0.266,-5.337
0.264,0.064,0.266,-5.337
0.311,0.062,0.264,-5.337
0.289,0.066,0.264,-5.337
0.267,0.066,0.267,-5.337
0.277,0.065,0.273,-5.337
0.271,0.061,0.272,-5.337
0.266,0.060,0.267,-5.337
0.264,0.062,0.264,-5.337
0.184,0.064,0.263,-5.337
0.172,0.063,0.261,-5.337
0.158,0.064,0.265,-5.337
0.165,0.063,0.268,-5.337
0.218,0.062,0.265,-5.337
0.187,0.059,0.263,-5.337
0.169,0.062,0.264,-5.337
0.181,0.065,0.267,-5.337
0.155,0.066,0.265,-5.337
0.129,0.063,0.266,-5.337
0.215,0.058,0.264,-5.337
0.209,0.057,0.262,-5.337
0.208,0.064,0.261,-5.337
0.236,0.063,0.263,-5.337
0.205,0.059,0.263,-5.337
0.258,0.057,0.263,-5.337
0.242,0.057,0.263,-5.337
0.233,0.061,0.265,-5.337
0.264,0.060,0.268,-5.337
0.275,0.059,0.268,-5.337
0.242,0.060,0.264,-5.337
0.287,0.055,0.264,-5.337
0.339,0.058,0.266,-5.337
0.325,0.059,0.268,-5.337
0.227,0.062,0.267,-5.337
0.151,0.066,0.262,-5.337
0.153,0.066,0.257,-5.337
0.244,0.061,0.261,-5.337
0.252,0.057,0.264,-5.337
0.229,0.061,0.262,-5.337
0.209,0.064,0.263,-5.337
0.272,0.060,0.264,-5.337
0.284,0.059,0.265,-5.337
0.244,0.062,0.268,-5.337
0.268,0.061,0.270,-5.337
0.318,0.058,0.269,-5.337
0.325,0.060,0.267,-5.337
0.267,0.060,0.263,-5.337
0.255,0.055,0.263,-5.337
0.226,0.057,0.264,-5.337
0.193,0.059,0.267,-5.337
0.183,0.060,0.268,-5.337
0.219,0.061,0.269,-5.337
0.224,0.062,0.265,-5.337
0.217,0.064,0.261,-5.337
0.195,0.065,0.262,-5.337
0.135,0.067,0.267,-5.337
0.190,0.061,0.268,-5.337
0.254,0.059,0.269,-5.337
0.240,0.058,0.268,-5.337
0.226,0.060,0.267,-5.337
0.244,0.058,0.267,-5.337
0.242,0.060,0.267,-5.337
0.228,0.060,0.267,-5.337
0.166,0.060,0.267,-5.337
0.154,0.061,0.266,-5.337
0.227,0.062,0.265,-5.337
0.228,0.063,0.266,-5.337
0.244,0.059,0.266,-5.337
0.266,0.060,0.266,-5.337
0.164,0.063,0.262,-5.337
0.157,0.062,0.260,-5.337
0.244,0.056,0.265,-5.337
0.274,0.055,0.273,-5.337
0.150,0.057,0.272,-5.337
0.097,0.055,0.267,-5.337
0.156,0.051,0.266,-5.337
0.233,0.048,0.265,-5.337
0.262,0.047,0.265,-5.337
0.205,0.053,0.267,-5.337
0.155,0.053,0.267,-5.337
0.187,0.051,0.266,-5.337
0.229,0.051,0.266,-5.337
0.238,0.055,0.269,-5.337
0.217,0.055,0.270,-5.337
0.222,0.056,0.269,-5.337
0.196,0.057,0.268,-5.337
0.239,0.057,0.268,-5.337
0.279,0.055,0.271,-5.337
0.281,0.057,0.270,-5.337
0.242,0.054,0.270,-5.337
0.155,0.054,0.268,-5.337
0.153,0.058,0.267,-5.337
0.205,0.059,0.267,-5.337
0.192,0.059,0.270,-5.337
0.178,0.055,0.271,-5.337
0.253,0.054,0.272,-5.337
0.295,0.053,0.268,-5.337
0.257,0.053,0.265,-5.337
0.201,0.053,0.262,-5.337
0.126,0.054,0.262,-5.337
0.157,0.052,0.263,-5.337
0.217,0.052,0.262,-5.337
0.246,0.051,0.262,-5.337
0.260,0.048,0.267,-5.337
0.283,0.047,0.270,-5.337
0.292,0.051,0.272,-5.337
0.229,0.052,0.276,-5.337
0.186,0.055,0.274,-5.337
0.217,0.053,0.273,-5.337
0.283,0.052,0.270,-5.337
0.225,0.056,0.266,-5.337
0.153,0.060,0.264,-5.337
0.122,0.053,0.266,-5.337
0.165,0.051,0.268,-5.337
0.149,0.053,0.268,-5.337
0.127,0.053,0.265,-5.337
0.224,0.053,0.265,-5.337
0.252,0.057,0.263,-5.337
0.174,0.059,0.262,-5.337
0.166,0.058,0.263,-5.337
0.179,0.058,0.268,-5.337
0.128,0.058,0.269,-5.337
0.093,0.058,0.265,-5.337
0.174,0.053,0.262,-5.337
0.265,0.052,0.265,-5.337
0.200,0.055,0.266,-5.337
0.167,0.052,0.264,-5.337
0.238,0.050,0.263,-5.337
0.237,0.052,0.265,-5.337
0.238,0.048,0.266,-5.337
0.265,0.047,0.266,-5.337
0.268,0.050,0.266,-5.337
0.240,0.054,0.267,-5.337
0.208,0.049,0.269,-5.337
0.141,0.052,0.269,-5.337
0.127,0.057,0.270,-5.337
0.216,0.057,0.268,-5.337
0.264,0.055,0.266,-5.337
0.219,0.052,0.262,-5.337
0.140,0.052,0.262,-5.337
0.189,0.050,0.261,-5.337
0.265,0.048,0.262,-5.337
0.231,0.051,0.263,-5.337
0.190,0.054,0.266,-5.337
0.277,0.052,0.265,-5.337
0.280,0.049,0.268,-5.337
0.151,0.049,0.273,-5.337
0.067,0.048,0.273,-5.337
0.175,0.045,0.268,-5.337
0.218,0.047,0.266,-5.337
0.204,0.049,0.266,-5.337
0.192,0.053,0.268,-5.337
0.208,0.053,0.266,-5.337
0.143,0.052,0.262,-5.337
0.115,0.048,0.259,-5.337
0.214,0.050,0.260,-5.337
0.194,0.051,0.263,-5.337
0.110,0.050,0.265,-5.337
0.160,0.044,0.265,-5.337
0.267,0.044,0.264,-5.337
0.242,0.044,0.266,-5.337
0.207,0.046,0.266,-5.337
0.176,0.044,0.267,-5.337
0.192,0.045,0.266,-5.337
0.131,0.047,0.266,-5.337
0.082,0.048,0.263,-5.337
0.089,0.050,0.260,-5.337
0.135,0.047,0.261,-5.337
0.176,0.047,0.268,-5.337
0.225,0.045,0.271,-5.337
0.222,0.046,0.267,-5.337
0.222,0.045,0.264,-5.337
0.211,0.044,0.265,-5.337
0.189,0.043,0.265,-5.337
0.183,0.043,0.267,-5.337
0.193,0.044,0.268,-5.337
0.194,0.047,0.268,-5.337
0.170,0.047,0.266,-5.337
0.205,0.044,0.264,-5.337
0.219,0.044,0.262,-5.337
0.221,0.045,0.263,-5.337
0.206,0.045,0.263,-5.337
0.171,0.047,0.265,-5.337
0.194,0.045,0.270,-5.337
0.233,0.045,0.270,-5.337
0.203,0.043,0.269,-5.337
0.213,0.041,0.267,-5.337
0.240,0.041,0.267,-5.337
0.243,0.043,0.262,-5.337
0.163,0.048,0.259,-5.337
0.159,0.045,0.256,-5.337
0.270,0.042,0.258,-5.337
0.247,0.042,0.264,-5.337
0.182,0.047,0.268,-5.337
0.149,0.047,0.271,-5.337
0.184,0.045,0.265,-5.337
0.235,0.037,0.262,-5.337
0.251,0.037,0.264,-5.337
0.164,0.043,0.266,-5.337
0.125,0.048,0.265,-5.337
0.152,0.047,0.264,-5.337
0.140,0.048,0.266,-5.337
0.141,0.046,0.265,-5.337
0.137,0.045,0.266,-5.337
0.071,0.047,0.267,-5.337
0.060,0.049,0.268,-5.337
0.053,0.049,0.269,-5.337
0.126,0.047,0.266,-5.337
0.182,0.046,0.263,-5.337
0.153,0.048,0.263,-5.337
0.180,0.046,0.266,-5.337
0.200,0.042,0.264,-5.337
0.230,0.043,0.262,-5.337
0.245,0.040,0.263,-5.337
0.166,0.041,0.269,-5.337
0.079,0.045,0.270,-5.337
0.094,0.044,0.267,-5.337
0.188,0.042,0.264,-5.337
0.225,0.039,0.264,-5.337
0.167,0.040,0.266,-5.337
0.137,0.041,0.267,-5.337
0.180,0.039,0.263,-5.337
0.188,0.041,0.258,-5.337
0.100,0.042,0.262,-5.337
0.109,0.044,0.268,-5.337
0.132,0.044,0.269,-5.337
0.150,0.044,0.269,-5.337
