[Parameters]
Operating Mode, Feedback
Subject  AA..ZZ, WT
Session  0..99, 45
No. Trials (1..9999), 500
Mouse Number, 1
Pressure Probe Serial Port, \00\00\00\04COM4
Save additional csv file, TRUE
Save using mouse number, FALSE
A/D Monitor Rate (Hz), 30000.000000
A/D Stimulate Rate (Hz), 30000.000000
A/D input range (+/- V), 5
No. Channels to acquire (N), 2
Pre-Stim Acq. time (ms), 100.000000
Post-Stim Acq. time (ms), 900.000000
Analysis window parameters.M-response Start (ms), 1.100000
Analysis window parameters.M-response Duration (ms), 5.500000
Analysis window parameters.H-response Duration (ms), 6.000000
Analysis window parameters.H-response Start (ms), 6.500000
Feedback window, H response
Proportional gain, 0.100000
Target value, 6.700000
Feedback Ch., 1
Stim Channel to Control (1-4), 4
Trial, 65
Wait for EMG Conditions, FALSE
Channel to monitor (0 - N-1), 1
EMG Hi Limit, 2.000000
EMG Lo Limit, 0.001000
Inter-Stim delay (sec), 10.000000
EMG Monitor Mode, Mean
Time to run Long Stim.(sec), 30
Save Long Stim Data?, OFF
BURST Save time (ms), 1000
BURST Save Interval (x above), 10
Long-Stim. Rep. Rate (Hz), 10.000000
Stim type cluster array.<size(s)>, 4
Stim type cluster array 0.Stimulus Output, Electrical
Stim type cluster array 1.Stimulus Output, OFF
Stim type cluster array 2.Stimulus Output, OFF
Stim type cluster array 3.Stimulus Output, Motor Length
Stim specs cluster array.<size(s)>, 4
Stim specs cluster array 0.Initial Stimulus ampl., 0.300000
Stim specs cluster array 0.Maximum Stimulus, 1.120000
Stim specs cluster array 0.#Pulses in train, 4
Stim specs cluster array 0.Peak Level time (ms), 1.000000
Stim specs cluster array 0.Total pulse period (ms), 150.000000
Stim specs cluster array 0.Start Delay (ms), -50.000000
Stim specs cluster array 0.Pulse Shape, Square
Stim specs cluster array 0.Ramp/Rel. time (ms), 0.100000
Stim specs cluster array 0.Peak Amplitude (V), 0.120000
Stim specs cluster array 1.Initial Stimulus ampl., 0.000000
Stim specs cluster array 1.Maximum Stimulus, 0.000000
Stim specs cluster array 1.#Pulses in train, 3
Stim specs cluster array 1.Peak Level time (ms), 29.000000
Stim specs cluster array 1.Total pulse period (ms), 200.000000
Stim specs cluster array 1.Start Delay (ms), 0.000000
Stim specs cluster array 1.Pulse Shape, Square
Stim specs cluster array 1.Ramp/Rel. time (ms), 0.000000
Stim specs cluster array 1.Peak Amplitude (V), 2.000000
Stim specs cluster array 2.Initial Stimulus ampl., 0.000000
Stim specs cluster array 2.Maximum Stimulus, 0.000000
Stim specs cluster array 2.#Pulses in train, 1
Stim specs cluster array 2.Peak Level time (ms), 25.000000
Stim specs cluster array 2.Total pulse period (ms), 200.000000
Stim specs cluster array 2.Start Delay (ms), 0.000000
Stim specs cluster array 2.Pulse Shape, Square
Stim specs cluster array 2.Ramp/Rel. time (ms), 20.000000
Stim specs cluster array 2.Peak Amplitude (V), 10.000000
Stim specs cluster array 3.Initial Stimulus ampl., 0.000000
Stim specs cluster array 3.Maximum Stimulus, 20.000000
Stim specs cluster array 3.#Pulses in train, 25
Stim specs cluster array 3.Peak Level time (ms), 0.100000
Stim specs cluster array 3.Total pulse period (ms), 4.000000
Stim specs cluster array 3.Start Delay (ms), 205.000000
Stim specs cluster array 3.Pulse Shape, Triangle
Stim specs cluster array 3.Ramp/Rel. time (ms), 3.000000
Stim specs cluster array 3.Peak Amplitude (V), 0.500000
Force cal. (mN/Volt), 100.000000
Force Range (mN), 100.000000
Length cal. (mm/Volt), 10.000000
Length Range (mm), 10.000000
Stim. 1, 0.300000
Stim. 2, 0.000000
Stim. 3, 0.000000
Stim. 4, 0.000000
Monitor acquire time (ms), 100.000000
EMG graph Ymax, 0.100000
Travel limit (mm), 20.000000
Use Pressure Probe, FALSE
Pressure goal (g), 100
Speed (mm/sec), 5.000000
Dwell time (ms), 100.000000
Pressure limit (g), 500.000000
Channel amplitude offset, 0.000000

[DATA]

0.224,0.052,0.252,-5.337
0.251,0.049,0.253,-5.337
0.245,0.050,0.254,-5.337
0.216,0.054,0.251,-5.337
0.194,0.056,0.248,-5.337
0.219,0.055,0.247,-5.337
0.244,0.055,0.248,-5.337
0.283,0.051,0.251,-5.337
0.203,0.056,0.254,-5.337
0.129,0.057,0.256,-5.337
0.147,0.054,0.254,-5.337
0.191,0.052,0.254,-5.337
0.231,0.051,0.251,-5.337
0.280,0.051,0.250,-5.337
0.280,0.052,0.248,-5.337
0.250,0.053,0.246,-5.337
0.237,0.055,0.248,-5.337
0.210,0.059,0.250,-5.337
0.301,0.054,0.251,-5.337
0.285,0.055,0.253,-5.337
0.265,0.057,0.257,-5.337
0.262,0.054,0.259,-5.337
0.191,0.059,0.258,-5.337
0.199,0.057,0.253,-5.337
0.244,0.053,0.251,-5.337
0.292,0.054,0.249,-5.337
0.264,0.058,0.243,-5.337
0.228,0.059,0.247,-5.337
0.242,0.056,0.252,-5.337
0.272,0.053,0.252,-5.337
0.269,0.050,0.248,-5.337
0.223,0.052,0.247,-5.337
0.179,0.053,0.250,-5.337
0.206,0.052,0.253,-5.337
0.232,0.053,0.254,-5.337
0.226,0.049,0.252,-5.337
0.234,0.048,0.252,-5.337
0.282,0.050,0.245,-5.337
0.327,0.050,0.244,-5.337
0.277,0.051,0.246,-5.337
0.194,0.056,0.248,-5.337
0.213,0.054,0.247,-5.337
0.244,0.054,0.249,-5.337
0.228,0.051,0.250,-5.337
0.251,0.054,0.250,-5.337
0.217,0.055,0.248,-5.337
0.233,0.051,0.249,-5.337
0.269,0.049,0.252,-5.337
0.135,0.055,0.252,-5.337
0.084,0.054,0.251,-5.337
0.172,0.049,0.252,-5.337
0.236,0.050,0.250,-5.337
0.178,0.050,0.252,-5.337
0.200,0.043,0.255,-5.337
0.255,0.045,0.257,-5.337
0.180,0.047,0.255,-5.337
0.120,0.045,0.251,-5.337
0.102,0.041,0.245,-5.337
0.161,0.041,0.242,-5.337
0.241,0.043,0.247,-5.337
0.243,0.044,0.248,-5.337
0.187,0.043,0.248,-5.337
0.180,0.042,0.248,-5.337
0.240,0.042,0.250,-5.337
0.192,0.042,0.252,-5.337
0.206,0.042,0.253,-5.337
0.226,0.040,0.256,-5.337
0.180,0.041,0.255,-5.337
0.138,0.041,0.252,-5.337
0.178,0.041,0.250,-5.337
0.213,0.044,0.248,-5.337
0.178,0.046,0.248,-5.337
0.209,0.044,0.250,-5.337
0.288,0.042,0.251,-5.337
0.238,0.044,0.248,-5.337
0.225,0.045,0.242,-5.337
0.288,0.041,0.241,-5.337
0.259,0.045,0.247,-5.337
0.154,0.049,0.253,-5.337
0.225,0.047,0.251,-5.337
0.275,0.048,0.251,-5.337
0.187,0.045,0.250,-5.337
0.205,0.039,0.247,-5.337
0.198,0.042,0.244,-5.337
0.168,0.045,0.245,-5.337
0.154,0.045,0.250,-5.337
0.237,0.042,0.256,-5.337
0.247,0.044,0.254,-5.337
0.219,0.042,0.248,-5.337
0.222,0.041,0.246,-5.337
0.200,0.044,0.251,-5.337
0.105,0.042,0.252,-5.337
0.154,0.038,0.252,-5.337
0.227,0.038,0.252,-5.337
0.222,0.043,0.249,-5.337
0.146,0.043,0.245,-5.337
0.162,0.044,0.240,-5.337
0.189,0.041,0.241,-5.337
0.152,0.043,0.245,-5.337
0.166,0.043,0.250,-5.337
0.192,0.040,0.254,-5.337
0.214,0.039,0.253,-5.337
0.151,0.040,0.251,-5.337
0.149,0.039,0.250,-5.337
0.201,0.035,0.249,-5.337
0.272,0.034,0.245,-5.337
0.234,0.035,0.246,-5.337
0.216,0.038,0.248,-5.337
0.198,0.042,0.248,-5.337
0.154,0.041,0.253,-5.337
0.188,0.037,0.251,-5.337
0.211,0.036,0.251,-5.337
0.177,0.037,0.250,-5.337
0.151,0.036,0.254,-5.337
0.171,0.036,0.254,-5.337
0.169,0.041,0.250,-5.337
0.114,0.042,0.246,-5.337
0.168,0.039,0.247,-5.337
0.194,0.039,0.247,-5.337
0.199,0.039,0.252,-5.337
0.187,0.036,0.252,-5.337
0.219,0.033,0.249,-5.337
0.230,0.033,0.250,-5.337
0.201,0.036,0.248,-5.337
0.250,0.030,0.246,-5.337
0.231,0.034,0.248,-5.337
0.100,0.037,0.250,-5.337
0.076,0.034,0.252,-5.337
0.167,0.031,0.251,-5.337
0.224,0.028,0.246,-5.337
0.253,0.029,0.243,-5.337
0.250,0.029,0.244,-5.337
0.182,0.030,0.246,-5.337
0.187,0.032,0.246,-5.337
0.196,0.037,0.250,-5.337
0.174,0.035,0.252,-5.337
0.172,0.033,0.252,-5.337
0.213,0.034,0.252,-5.337
0.209,0.033,0.254,-5.337
0.145,0.033,0.248,-5.337
0.112,0.032,0.247,-5.337
0.085,0.038,0.244,-5.337
0.052,0.043,0.244,-5.337
0.072,0.040,0.244,-5.337
0.138,0.036,0.245,-5.337
0.187,0.037,0.247,-5.337
0.135,0.042,0.247,-5.337
0.127,0.038,0.250,-5.337
0.177,0.032,0.253,-5.337
0.143,0.035,0.254,-5.337
0.121,0.036,0.254,-5.337
0.173,0.030,0.250,-5.337
0.231,0.029,0.248,-5.337
0.206,0.028,0.247,-5.337
0.205,0.025,0.246,-5.337
0.176,0.029,0.248,-5.337
0.116,0.031,0.251,-5.337
0.199,0.028,0.252,-5.337
0.269,0.029,0.249,-5.337
0.204,0.032,0.244,-5.337
0.201,0.032,0.243,-5.337
0.194,0.031,0.249,-5.337
0.145,0.032,0.250,-5.337
0.123,0.034,0.251,-5.337
0.146,0.030,0.253,-5.337
0.207,0.031,0.254,-5.337
0.190,0.032,0.249,-5.337
0.208,0.029,0.246,-5.337
0.182,0.026,0.246,-5.337
0.151,0.028,0.246,-5.337
0.192,0.024,0.247,-5.337
0.155,0.028,0.249,-5.337
0.105,0.028,0.249,-5.337
0.138,0.024,0.251,-5.337
0.186,0.025,0.249,-5.337
0.271,0.025,0.250,-5.337
0.179,0.025,0.250,-5.337
0.157,0.025,0.248,-5.337
0.175,0.023,0.248,-5.337
0.121,0.025,0.250,-5.337
0.102,0.024,0.249,-5.337
0.120,0.024,0.247,-5.337
0.171,0.026,0.248,-5.337
0.128,0.030,0.251,-5.337
0.097,0.028,0.253,-5.337
0.135,0.025,0.250,-5.337
0.138,0.026,0.250,-5.337
0.153,0.027,0.250,-5.337
0.177,0.030,0.247,-5.337
0.184,0.031,0.242,-5.337
0.192,0.029,0.241,-5.337
0.187,0.024,0.241,-5.337
0.160,0.030,0.242,-5.337
0.149,0.033,0.246,-5.337
0.106,0.036,0.252,-5.337
0.093,0.030,0.255,-5.337
0.133,0.025,0.253,-5.337
0.177,0.026,0.249,-5.337
0.104,0.030,0.249,-5.337
0.028,0.035,0.251,-5.337
0.067,0.033,0.253,-5.337
0.138,0.032,0.252,-5.337
0.150,0.031,0.249,-5.337
0.166,0.027,0.250,-5.337
0.228,0.025,0.250,-5.337
0.273,0.026,0.250,-5.337
0.218,0.025,0.247,-5.337
0.187,0.027,0.248,-5.337
0.186,0.031,0.247,-5.337
0.189,0.031,0.248,-5.337
0.182,0.032,0.247,-5.337
0.131,0.031,0.244,-5.337
0.134,0.029,0.243,-5.337
0.161,0.031,0.249,-5.337
0.152,0.029,0.253,-5.337
0.166,0.025,0.255,-5.337
0.199,0.024,0.252,-5.337
0.218,0.024,0.248,-5.337
0.204,0.027,0.246,-5.337
0.205,0.028,0.250,-5.337
0.160,0.030,0.252,-5.337
0.097,0.032,0.254,-5.337
0.077,0.028,0.254,-5.337
0.096,0.033,0.254,-5.337
0.133,0.033,0.253,-5.337
0.132,0.030,0.250,-5.337
0.166,0.029,0.247,-5.337
0.201,0.026,0.245,-5.337
0.190,0.026,0.248,-5.337
0.164,0.029,0.252,-5.337
0.143,0.026,0.253,-5.337
0.145,0.026,0.250,-5.337
0.114,0.027,0.250,-5.337
0.145,0.024,0.249,-5.337
0.169,0.026,0.251,-5.337
0.114,0.026,0.249,-5.337
0.094,0.025,0.248,-5.337
0.111,0.022,0.246,-5.337
0.101,0.026,0.246,-5.337
0.067,0.030,0.251,-5.337
0.031,0.028,0.254,-5.337
0.064,0.024,0.253,-5.337
0.178,0.020,0.254,-5.337
0.232,0.024,0.254,-5.337
0.195,0.026,0.251,-5.337
0.191,0.025,0.250,-5.337
0.180,0.025,0.252,-5.337
0.191,0.026,0.254,-5.337
0.192,0.026,0.258,-5.337
0.145,0.026,0.256,-5.337
0.111,0.027,0.253,-5.337
0.157,0.027,0.248,-5.337
0.205,0.028,0.248,-5.337
0.128,0.030,0.249,-5.337
0.113,0.028,0.247,-5.337
0.110,0.026,0.245,-5.337
0.108,0.025,0.248,-5.337
0.077,0.025,0.255,-5.337
0.070,0.028,0.256,-5.337
0.145,0.026,0.256,-5.337
0.210,0.027,0.250,-5.337
0.149,0.027,0.248,-5.337
0.093,0.026,0.251,-5.337
0.125,0.025,0.255,-5.337
0.167,0.027,0.254,-5.337
0.137,0.030,0.251,-5.337
0.174,0.027,0.249,-5.337
0.220,0.027,0.251,-5.337
0.148,0.029,0.252,-5.337
0.119,0.032,0.255,-5.337
0.179,0.034,0.256,-5.337
0.180,0.032,0.252,-5.337
0.164,0.029,0.252,-5.337
0.155,0.030,0.252,-5.337
0.168,0.027,0.247,-5.337
0.208,0.023,0.247,-5.337
0.224,0.023,0.251,-5.337
0.179,0.027,0.254,-5.337
0.124,0.029,0.254,-5.337
0.190,0.022,0.249,-5.337
0.227,0.023,0.249,-5.337
0.166,0.027,0.251,-5.337
0.119,0.026,0.254,-5.337
0.129,0.028,0.252,-5.337
0.113,0.029,0.252,-5.337
0.056,0.033,0.255,-5.337
0.104,0.028,0.258,-5.337
0.128,0.026,0.254,-5.337
0.139,0.029,0.251,-5.337
0.133,0.029,0.247,-5.337
0.145,0.029,0.251,-5.337
0.180,0.029,0.254,-5.337
0.154,0.029,0.254,-5.337
0.164,0.026,0.252,-5.337
0.227,0.028,0.251,-5.337
0.228,0.027,0.248,-5.337
0.186,0.024,0.249,-5.337
0.161,0.021,0.249,-5.337
0.198,0.023,0.251,-5.337
0.191,0.026,0.254,-5.337
0.163,0.026,0.255,-5.337
0.201,0.026,0.250,-5.337
0.213,0.029,0.249,-5.337
0.188,0.030,0.251,-5.337
0.174,0.031,0.250,-5.337
0.143,0.029,0.247,-5.337
0.155,0.028,0.245,-5.337
0.197,0.030,0.248,-5.337
0.167,0.031,0.249,-5.337
0.150,0.029,0.254,-5.337
0.147,0.029,0.254,-5.337
0.214,0.028,0.253,-5.337
0.205,0.030,0.251,-5.337
0.163,0.032,0.253,-5.337
0.195,0.032,0.250,-5.337
0.197,0.031,0.246,-5.337
0.199,0.030,0.248,-5.337
0.160,0.033,0.247,-5.337
0.092,0.034,0.249,-5.337
0.184,0.034,0.254,-5.337
0.229,0.033,0.252,-5.337
0.196,0.035,0.249,-5.337
0.211,0.032,0.246,-5.337
0.202,0.033,0.246,-5.337
0.183,0.033,0.246,-5.337
0.185,0.033,0.246,-5.337
0.189,0.031,0.246,-5.337
0.227,0.033,0.248,-5.337
0.271,0.034,0.252,-5.337
0.267,0.033,0.254,-5.337
0.185,0.032,0.254,-5.337
0.141,0.034,0.256,-5.337
0.150,0.036,0.255,-5.337
0.176,0.033,0.248,-5.337
0.202,0.034,0.247,-5.337
0.131,0.042,0.252,-5.337
0.095,0.038,0.256,-5.337
0.162,0.038,0.251,-5.337
0.213,0.035,0.249,-5.337
0.201,0.034,0.249,-5.337
0.198,0.035,0.250,-5.337
0.251,0.036,0.252,-5.337
0.271,0.039,0.252,-5.337
0.249,0.036,0.250,-5.337
0.270,0.032,0.249,-5.337
0.263,0.033,0.249,-5.337
0.231,0.039,0.246,-5.337
0.206,0.039,0.245,-5.337
0.216,0.037,0.251,-5.337
0.266,0.035,0.255,-5.337
0.233,0.032,0.253,-5.337
0.173,0.035,0.252,-5.337
0.174,0.038,0.251,-5.337
0.166,0.039,0.250,-5.337
0.215,0.039,0.250,-5.337
0.239,0.037,0.249,-5.337
0.234,0.034,0.246,-5.337
0.230,0.034,0.248,-5.337
0.203,0.034,0.253,-5.337
0.205,0.034,0.252,-5.337
0.236,0.035,0.245,-5.337
0.229,0.036,0.246,-5.337
0.154,0.038,0.251,-5.337
0.131,0.038,0.254,-5.337
0.152,0.036,0.253,-5.337
0.165,0.038,0.251,-5.337
0.140,0.041,0.252,-5.337
0.217,0.039,0.250,-5.337
0.284,0.036,0.249,-5.337
0.243,0.038,0.247,-5.337
0.244,0.036,0.246,-5.337
0.237,0.036,0.248,-5.337
0.165,0.040,0.250,-5.337
0.151,0.040,0.251,-5.337
0.178,0.040,0.252,-5.337
0.201,0.042,0.253,-5.337
0.205,0.041,0.253,-5.337
0.195,0.041,0.252,-5.337
0.154,0.043,0.249,-5.337
0.146,0.041,0.251,-5.337
0.234,0.038,0.253,-5.337
0.244,0.040,0.249,-5.337
0.207,0.042,0.248,-5.337
0.189,0.044,0.250,-5.337
0.239,0.041,0.250,-5.337
0.203,0.039,0.249,-5.337
0.212,0.035,0.250,-5.337
0.264,0.036,0.249,-5.337
0.255,0.040,0.248,-5.337
0.200,0.041,0.247,-5.337
0.145,0.040,0.247,-5.337
0.170,0.039,0.252,-5.337
0.251,0.036,0.253,-5.337
0.303,0.037,0.250,-5.337
0.245,0.041,0.247,-5.337
0.210,0.040,0.249,-5.337
0.234,0.043,0.253,-5.337
0.256,0.044,0.254,-5.337
0.224,0.043,0.252,-5.337
0.272,0.041,0.248,-5.337
0.278,0.041,0.245,-5.337
0.270,0.042,0.247,-5.337
0.248,0.042,0.251,-5.337
0.186,0.046,0.254,-5.337
0.178,0.045,0.250,-5.337
0.181,0.046,0.247,-5.337
0.183,0.049,0.242,-5.337
0.242,0.049,0.246,-5.337
0.266,0.046,0.252,-5.337
0.266,0.044,0.253,-5.337
0.240,0.045,0.246,-5.337
0.202,0.046,0.244,-5.337
0.168,0.048,0.247,-5.337
0.141,0.050,0.248,-5.337
0.145,0.050,0.246,-5.337
0.208,0.047,0.243,-5.337
0.183,0.049,0.246,-5.337
0.168,0.047,0.248,-5.337
0.211,0.042,0.243,-5.337
0.197,0.038,0.240,-5.337
0.194,0.038,0.243,-5.337
0.188,0.040,0.250,-5.337
0.211,0.042,0.251,-5.337
0.260,0.042,0.249,-5.337
0.302,0.040,0.249,-5.337
0.235,0.041,0.255,-5.337
0.255,0.039,0.256,-5.337
0.272,0.040,0.254,-5.337
0.273,0.044,0.253,-5.337
0.253,0.045,0.252,-5.337
0.233,0.042,0.245,-5.337
0.266,0.040,0.239,-5.337
0.288,0.040,0.243,-5.337
0.274,0.042,0.251,-5.337
0.268,0.043,0.252,-5.337
0.233,0.043,0.247,-5.337
0.272,0.043,0.248,-5.337
0.293,0.043,0.247,-5.337
0.321,0.044,0.249,-5.337
0.309,0.042,0.249,-5.337
0.239,0.044,0.247,-5.337
0.231,0.049,0.246,-5.337
0.197,0.052,0.245,-5.337
0.178,0.052,0.245,-5.337
0.202,0.051,0.246,-5.337
0.255,0.047,0.245,-5.337
0.209,0.048,0.245,-5.337
0.178,0.049,0.242,-5.337
0.147,0.051,0.244,-5.337
0.147,0.051,0.247,-5.337
0.213,0.051,0.249,-5.337
0.260,0.049,0.253,-5.337
0.269,0.049,0.252,-5.337
0.292,0.048,0.248,-5.337
0.305,0.050,0.244,-5.337
0.297,0.050,0.243,-5.337
0.314,0.050,0.242,-5.337
0.287,0.053,0.242,-5.337
0.244,0.055,0.242,-5.337
0.271,0.052,0.245,-5.337
0.289,0.052,0.246,-5.337
0.212,0.055,0.249,-5.337
0.134,0.055,0.249,-5.337
0.170,0.054,0.247,-5.337
0.206,0.051,0.244,-5.337
0.235,0.050,0.244,-5.337
0.330,0.051,0.247,-5.337
0.308,0.053,0.246,-5.337
0.193,0.053,0.247,-5.337
0.200,0.055,0.249,-5.337
0.210,0.055,0.254,-5.337
0.231,0.056,0.252,-5.337
0.269,0.053,0.249,-5.337
0.284,0.049,0.249,-5.337
0.257,0.050,0.250,-5.337
0.224,0.049,0.246,-5.337
0.268,0.051,0.240,-5.337
0.227,0.050,0.235,-5.337
0.199,0.046,0.239,-5.337
0.286,0.044,0.244,-5.337
0.347,0.043,0.249,-5.337
0.289,0.046,0.250,-5.337
0.255,0.047,0.250,-5.337
0.230,0.048,0.243,-5.337
0.215,0.051,0.241,-5.337
0.285,0.052,0.243,-5.337
0.310,0.048,0.248,-5.337
0.219,0.046,0.247,-5.337
0.180,0.051,0.246,-5.337
0.245,0.053,0.247,-5.337
0.271,0.054,0.247,-5.337
0.238,0.052,0.246,-5.337
0.231,0.048,0.245,-5.337
0.214,0.051,0.242,-5.337
0.228,0.052,0.241,-5.337
0.234,0.053,0.244,-5.337
0.242,0.048,0.250,-5.337
0.197,0.047,0.251,-5.337
0.075,0.052,0.248,-5.337
0.098,0.053,0.247,-5.337
0.241,0.055,0.248,-5.337
0.262,0.054,0.249,-5.337
0.209,0.053,0.247,-5.337
0.207,0.052,0.247,-5.337
0.252,0.051,0.248,-5.337
0.220,0.054,0.248,-5.337
0.169,0.055,0.246,-5.337
0.210,0.055,0.244,-5.337
0.262,0.056,0.244,-5.337
0.287,0.055,0.244,-5.337
0.282,0.057,0.240,-5.337
0.277,0.052,0.241,-5.337
0.308,0.052,0.247,-5.337
0.284,0.054,0.255,-5.337
0.242,0.054,0.254,-5.337
0.300,0.052,0.253,-5.337
0.338,0.048,0.248,-5.337
0.265,0.050,0.243,-5.337
0.210,0.052,0.242,-5.337
0.216,0.056,0.244,-5.337
0.267,0.057,0.247,-5.337
0.260,0.056,0.251,-5.337
0.248,0.054,0.252,-5.337
0.256,0.054,0.250,-5.337
0.283,0.055,0.248,-5.337
0.260,0.055,0.246,-5.337
0.224,0.054,0.244,-5.337
0.268,0.054,0.243,-5.337
0.278,0.052,0.242,-5.337
0.306,0.050,0.246,-5.337
0.317,0.049,0.252,-5.337
0.285,0.052,0.251,-5.337
0.251,0.053,0.251,-5.337
0.267,0.051,0.248,-5.337
0.287,0.050,0.246,-5.337
0.193,0.052,0.248,-5.337
0.142,0.052,0.249,-5.337
0.188,0.050,0.244,-5.337
0.255,0.049,0.245,-5.337
0.286,0.047,0.246,-5.337
0.314,0.048,0.247,-5.337
0.284,0.047,0.248,-5.337
0.211,0.050,0.250,-5.337
0.206,0.049,0.250,-5.337
0.220,0.048,0.248,-5.337
0.187,0.048,0.247,-5.337
0.169,0.050,0.246,-5.337
0.196,0.047,0.246,-5.337
0.189,0.048,0.246,-5.337
0.159,0.052,0.247,-5.337
0.170,0.053,0.244,-5.337
0.243,0.052,0.245,-5.337
0.278,0.051,0.247,-5.337
0.216,0.054,0.249,-5.337
0.169,0.052,0.251,-5.337
0.259,0.046,0.249,-5.337
0.261,0.047,0.246,-5.337
0.249,0.052,0.248,-5.337
0.244,0.053,0.246,-5.337
0.190,0.055,0.244,-5.337
0.109,0.053,0.247,-5.337
0.153,0.051,0.250,-5.337
0.175,0.053,0.245,-5.337
0.175,0.052,0.244,-5.337
0.193,0.046,0.245,-5.337
0.246,0.048,0.246,-5.337
0.241,0.051,0.242,-5.337
0.195,0.054,0.243,-5.337
0.166,0.054,0.245,-5.337
0.230,0.053,0.246,-5.337
0.250,0.050,0.247,-5.337
0.245,0.049,0.247,-5.337
0.242,0.051,0.248,-5.337
0.253,0.049,0.248,-5.337
0.324,0.045,0.248,-5.337
0.276,0.045,0.250,-5.337
0.175,0.049,0.250,-5.337
0.159,0.049,0.246,-5.337
0.187,0.048,0.242,-5.337
0.166,0.050,0.244,-5.337
0.177,0.049,0.247,-5.337
0.234,0.049,0.245,-5.337
0.243,0.048,0.246,-5.337
0.216,0.047,0.246,-5.337
0.204,0.045,0.246,-5.337
0.249,0.044,0.244,-5.337
0.209,0.045,0.243,-5.337
0.196,0.041,0.239,-5.337
0.264,0.039,0.238,-5.337
0.307,0.042,0.241,-5.337
0.237,0.045,0.247,-5.337
0.234,0.041,0.252,-5.337
0.195,0.041,0.249,-5.337
0.186,0.040,0.242,-5.337
0.191,0.041,0.242,-5.337
0.239,0.039,0.245,-5.337
0.272,0.041,0.246,-5.337
0.171,0.042,0.248,-5.337
0.050,0.049,0.246,-5.337
0.086,0.046,0.243,-5.337
0.153,0.045,0.242,-5.337
0.165,0.045,0.243,-5.337
0.158,0.046,0.243,-5.337
0.143,0.047,0.248,-5.337
0.148,0.047,0.248,-5.337
0.219,0.047,0.246,-5.337
0.194,0.047,0.246,-5.337
0.217,0.043,0.248,-5.337
0.334,0.039,0.247,-5.337
0.408,0.039,0.245,-5.337
0.344,0.042,0.242,-5.337
0.234,0.043,0.244,-5.337
0.158,0.047,0.248,-5.337
0.176,0.050,0.249,-5.337
0.218,0.045,0.246,-5.337
0.218,0.041,0.248,-5.337
0.213,0.040,0.247,-5.337
0.213,0.037,0.244,-5.337
0.246,0.037,0.244,-5.337
0.248,0.042,0.249,-5.337
0.207,0.042,0.249,-5.337
0.169,0.044,0.246,-5.337
0.203,0.043,0.246,-5.337
0.205,0.041,0.248,-5.337
0.130,0.040,0.245,-5.337
0.121,0.043,0.243,-5.337
0.152,0.039,0.245,-5.337
0.175,0.038,0.251,-5.337
0.155,0.040,0.253,-5.337
0.116,0.040,0.246,-5.337
0.185,0.038,0.243,-5.337
0.219,0.040,0.243,-5.337
0.181,0.041,0.242,-5.337
0.186,0.038,0.240,-5.337
0.194,0.044,0.242,-5.337
0.177,0.044,0.242,-5.337
0.129,0.044,0.243,-5.337
0.155,0.038,0.243,-5.337
0.169,0.040,0.246,-5.337
0.130,0.037,0.248,-5.337
0.092,0.037,0.250,-5.337
0.023,0.039,0.248,-5.337
0.066,0.042,0.244,-5.337
0.149,0.042,0.242,-5.337
0.147,0.042,0.243,-5.337
0.146,0.042,0.245,-5.337
0.169,0.038,0.244,-5.337
0.208,0.033,0.240,-5.337
0.206,0.038,0.243,-5.337
0.250,0.036,0.243,-5.337
0.180,0.039,0.248,-5.337
0.082,0.042,0.250,-5.337
0.146,0.041,0.246,-5.337
0.187,0.040,0.243,-5.337
0.158,0.041,0.242,-5.337
0.194,0.038,0.246,-5.337
0.240,0.037,0.246,-5.337
0.187,0.038,0.247,-5.337
0.078,0.035,0.247,-5.337
0.031,0.035,0.247,-5.337
0.132,0.036,0.245,-5.337
0.197,0.039,0.243,-5.337
0.182,0.038,0.242,-5.337
0.236,0.034,0.246,-5.337
0.214,0.036,0.247,-5.337
0.180,0.035,0.246,-5.337
0.162,0.034,0.243,-5.337
0.200,0.034,0.244,-5.337
0.220,0.033,0.247,-5.337
0.185,0.035,0.248,-5.337
0.168,0.036,0.245,-5.337
0.192,0.036,0.248,-5.337
0.174,0.035,0.249,-5.337
0.181,0.036,0.248,-5.337
0.153,0.036,0.247,-5.337
0.155,0.035,0.248,-5.337
0.171,0.035,0.245,-5.337
0.143,0.035,0.241,-5.337
0.159,0.035,0.239,-5.337
0.162,0.033,0.240,-5.337
0.146,0.035,0.240,-5.337
0.097,0.038,0.242,-5.337
0.115,0.039,0.249,-5.337
0.214,0.033,0.248,-5.337
0.173,0.034,0.246,-5.337
0.131,0.030,0.243,-5.337
0.150,0.031,0.241,-5.337
0.174,0.036,0.237,-5.337
0.198,0.037,0.237,-5.337
0.237,0.034,0.241,-5.337
0.260,0.033,0.251,-5.337
0.242,0.035,0.253,-5.337
0.127,0.039,0.250,-5.337
0.065,0.035,0.247,-5.337
0.154,0.031,0.244,-5.337
0.151,0.029,0.242,-5.337
0.132,0.031,0.248,-5.337
0.130,0.030,0.248,-5.337
0.125,0.030,0.244,-5.337
0.157,0.028,0.240,-5.337
0.167,0.030,0.244,-5.337
0.163,0.032,0.248,-5.337
0.222,0.032,0.246,-5.337
0.215,0.030,0.243,-5.337
0.172,0.031,0.243,-5.337
0.102,0.031,0.246,-5.337
0.106,0.032,0.245,-5.337
0.154,0.028,0.242,-5.337
0.183,0.027,0.241,-5.337
0.189,0.031,0.242,-5.337
0.225,0.030,0.242,-5.337
0.180,0.031,0.246,-5.337
0.111,0.028,0.247,-5.337
0.132,0.030,0.245,-5.337
0.128,0.034,0.242,-5.337
0.088,0.037,0.241,-5.337
0.107,0.032,0.244,-5.337
0.147,0.032,0.246,-5.337
0.128,0.033,0.243,-5.337
0.090,0.034,0.244,-5.337
0.094,0.031,0.246,-5.337
0.137,0.029,0.244,-5.337
0.161,0.030,0.243,-5.337
0.208,0.030,0.245,-5.337
0.224,0.029,0.244,-5.337
0.172,0.030,0.241,-5.337
0.101,0.029,0.242,-5.337
0.140,0.030,0.242,-5.337
0.206,0.025,0.247,-5.337
0.241,0.026,0.248,-5.337
0.161,0.031,0.249,-5.337
0.111,0.030,0.247,-5.337
0.150,0.030,0.246,-5.337
0.146,0.033,0.245,-5.337
0.152,0.034,0.245,-5.337
0.183,0.032,0.243,-5.337
0.223,0.033,0.244,-5.337
0.287,0.032,0.241,-5.337
0.208,0.031,0.239,-5.337
0.148,0.033,0.237,-5.337
0.154,0.030,0.238,-5.337
0.137,0.028,0.242,-5.337
0.172,0.030,0.249,-5.337
0.268,0.031,0.248,-5.337
0.247,0.033,0.245,-5.337
0.138,0.034,0.245,-5.337
0.113,0.036,0.246,-5.337
0.132,0.034,0.247,-5.337
0.174,0.030,0.246,-5.337
0.184,0.029,0.243,-5.337
0.147,0.032,0.243,-5.337
0.107,0.034,0.246,-5.337
0.163,0.032,0.245,-5.337
0.162,0.031,0.244,-5.337
0.145,0.029,0.248,-5.337
0.164,0.030,0.252,-5.337
0.142,0.031,0.255,-5.337
0.106,0.030,0.255,-5.337
0.122,0.032,0.249,-5.337
0.167,0.030,0.245,-5.337
0.175,0.030,0.242,-5.337
0.147,0.033,0.242,-5.337
0.157,0.033,0.245,-5.337
0.103,0.034,0.246,-5.337
0.071,0.032,0.246,-5.337
0.067,0.030,0.244,-5.337
0.135,0.030,0.240,-5.337
0.161,0.032,0.242,-5.337
0.056,0.034,0.242,-5.337
0.081,0.031,0.244,-5.337
0.094,0.029,0.246,-5.337
0.147,0.032,0.248,-5.337
0.217,0.032,0.250,-5.337
0.235,0.032,0.250,-5.337
0.204,0.029,0.250,-5.337
0.171,0.030,0.249,-5.337
0.133,0.032,0.246,-5.337
0.125,0.034,0.243,-5.337
0.229,0.031,0.245,-5.337
0.204,0.034,0.249,-5.337
0.164,0.037,0.249,-5.337
0.162,0.036,0.247,-5.337
0.121,0.037,0.249,-5.337
0.106,0.038,0.247,-5.337
0.134,0.042,0.246,-5.337
0.155,0.038,0.247,-5.337
0.225,0.036,0.250,-5.337
0.273,0.034,0.249,-5.337
0.268,0.032,0.246,-5.337
0.199,0.034,0.245,-5.337
0.151,0.038,0.246,-5.337
0.122,0.037,0.245,-5.337
0.183,0.030,0.244,-5.337
0.203,0.032,0.245,-5.337
0.205,0.035,0.247,-5.337
0.245,0.035,0.250,-5.337
0.200,0.037,0.249,-5.337
0.168,0.036,0.246,-5.337
0.207,0.034,0.244,-5.337
0.210,0.037,0.244,-5.337
0.097,0.039,0.249,-5.337
0.070,0.042,0.253,-5.337
0.081,0.042,0.254,-5.337
0.124,0.035,0.252,-5.337
0.146,0.036,0.245,-5.337
0.158,0.040,0.241,-5.337
0.175,0.041,0.243,-5.337
0.221,0.038,0.253,-5.337
0.214,0.038,0.254,-5.337
0.161,0.040,0.251,-5.337
0.183,0.042,0.248,-5.337
0.230,0.042,0.243,-5.337
0.200,0.042,0.239,-5.337
0.177,0.040,0.243,-5.337
0.198,0.037,0.248,-5.337
0.261,0.038,0.251,-5.337
0.251,0.038,0.249,-5.337
0.192,0.035,0.247,-5.337
0.200,0.032,0.245,-5.337
0.180,0.035,0.246,-5.337
0.141,0.038,0.248,-5.337
0.178,0.039,0.249,-5.337
0.208,0.038,0.249,-5.337
0.217,0.036,0.248,-5.337
0.175,0.037,0.245,-5.337
0.159,0.035,0.245,-5.337
0.233,0.035,0.245,-5.337
0.270,0.034,0.246,-5.337
0.289,0.034,0.251,-5.337
0.238,0.038,0.251,-5.337
0.123,0.042,0.250,-5.337
0.179,0.041,0.248,-5.337
0.238,0.039,0.247,-5.337
0.139,0.042,0.246,-5.337
0.137,0.043,0.250,-5.337
0.236,0.042,0.248,-5.337
0.267,0.041,0.246,-5.337
0.239,0.040,0.245,-5.337
0.283,0.037,0.249,-5.337
0.320,0.036,0.248,-5.337
0.320,0.036,0.243,-5.337
0.205,0.039,0.243,-5.337
0.138,0.042,0.243,-5.337
0.184,0.040,0.244,-5.337
0.182,0.042,0.245,-5.337
0.082,0.046,0.244,-5.337
0.094,0.045,0.245,-5.337
0.177,0.041,0.250,-5.337
0.130,0.040,0.252,-5.337
0.155,0.041,0.249,-5.337
0.249,0.041,0.247,-5.337
0.273,0.040,0.245,-5.337
0.205,0.042,0.246,-5.337
0.179,0.045,0.246,-5.337
0.306,0.042,0.248,-5.337
0.328,0.039,0.249,-5.337
0.272,0.039,0.247,-5.337
0.301,0.037,0.247,-5.337
0.271,0.037,0.245,-5.337
0.184,0.040,0.247,-5.337
0.231,0.043,0.245,-5.337
0.265,0.044,0.246,-5.337
0.208,0.044,0.246,-5.337
0.135,0.046,0.246,-5.337
0.104,0.047,0.248,-5.337
0.106,0.048,0.251,-5.337
0.142,0.049,0.251,-5.337
0.175,0.051,0.250,-5.337
0.194,0.052,0.249,-5.337
0.265,0.050,0.250,-5.337
0.185,0.047,0.249,-5.337
0.116,0.048,0.248,-5.337
0.160,0.049,0.244,-5.337
0.178,0.048,0.242,-5.337
0.171,0.048,0.244,-5.337
0.180,0.048,0.244,-5.337
0.205,0.049,0.244,-5.337
0.175,0.048,0.242,-5.337
0.175,0.047,0.245,-5.337
0.209,0.048,0.247,-5.337
0.233,0.050,0.250,-5.337
0.224,0.050,0.247,-5.337
0.242,0.049,0.247,-5.337
0.327,0.050,0.249,-5.337
0.341,0.050,0.249,-5.337
0.300,0.050,0.246,-5.337
0.271,0.051,0.248,-5.337
0.262,0.051,0.243,-5.337
0.227,0.053,0.241,-5.337
0.191,0.057,0.244,-5.337
0.216,0.054,0.252,-5.337
0.296,0.047,0.254,-5.337
0.245,0.050,0.253,-5.337
0.162,0.051,0.250,-5.337
0.133,0.047,0.246,-5.337
0.192,0.044,0.243,-5.337
0.256,0.044,0.241,-5.337
0.273,0.043,0.241,-5.337
0.214,0.046,0.244,-5.337
0.177,0.047,0.245,-5.337
0.202,0.045,0.245,-5.337
0.242,0.043,0.246,-5.337
0.256,0.042,0.246,-5.337
0.281,0.041,0.246,-5.337
0.279,0.043,0.247,-5.337
0.189,0.047,0.246,-5.337
0.170,0.047,0.243,-5.337
0.181,0.047,0.245,-5.337
0.167,0.046,0.249,-5.337
0.190,0.044,0.251,-5.337
0.207,0.044,0.246,-5.337
0.180,0.047,0.245,-5.337
0.179,0.048,0.247,-5.337
0.225,0.046,0.249,-5.337
0.215,0.046,0.247,-5.337
0.221,0.047,0.246,-5.337
0.224,0.048,0.244,-5.337
0.201,0.053,0.244,-5.337
0.175,0.053,0.244,-5.337
0.214,0.052,0.244,-5.337
0.204,0.053,0.240,-5.337
0.212,0.053,0.242,-5.337
0.195,0.052,0.242,-5.337
0.209,0.053,0.240,-5.337
0.153,0.052,0.242,-5.337
0.171,0.048,0.247,-5.337
0.185,0.047,0.250,-5.337
0.183,0.048,0.250,-5.337
0.265,0.048,0.247,-5.337
0.289,0.048,0.241,-5.337
0.311,0.047,0.240,-5.337
0.332,0.046,0.243,-5.337
0.287,0.047,0.250,-5.337
0.237,0.050,0.254,-5.337
0.258,0.052,0.253,-5.337
0.215,0.050,0.249,-5.337
0.202,0.051,0.245,-5.337
0.238,0.053,0.244,-5.337
0.263,0.053,0.245,-5.337
0.283,0.052,0.248,-5.337
0.283,0.052,0.253,-5.337
0.258,0.052,0.250,-5.337
0.259,0.053,0.245,-5.337
0.230,0.053,0.241,-5.337
0.156,0.051,0.242,-5.337
0.229,0.049,0.246,-5.337
0.243,0.052,0.246,-5.337
0.240,0.052,0.246,-5.337
0.359,0.048,0.248,-5.337
0.386,0.050,0.248,-5.337
0.328,0.051,0.246,-5.337
0.261,0.051,0.244,-5.337
0.183,0.053,0.242,-5.337
0.192,0.050,0.244,-5.337
0.232,0.049,0.247,-5.337
0.209,0.049,0.248,-5.337
0.217,0.049,0.243,-5.337
0.217,0.051,0.241,-5.337
0.217,0.052,0.243,-5.337
0.248,0.054,0.247,-5.337
0.284,0.053,0.246,-5.337
0.288,0.055,0.246,-5.337
0.217,0.057,0.245,-5.337
0.136,0.057,0.249,-5.337
0.144,0.057,0.248,-5.337
0.281,0.054,0.245,-5.337
0.320,0.051,0.243,-5.337
0.212,0.057,0.244,-5.337
0.141,0.057,0.246,-5.337
0.150,0.054,0.247,-5.337
0.233,0.049,0.245,-5.337
0.262,0.052,0.244,-5.337
0.246,0.054,0.242,-5.337
0.281,0.050,0.242,-5.337
0.314,0.049,0.242,-5.337
0.242,0.054,0.248,-5.337
0.181,0.056,0.247,-5.337
0.230,0.052,0.247,-5.337
0.283,0.049,0.245,-5.337
0.318,0.048,0.244,-5.337
0.296,0.049,0.245,-5.337
0.305,0.050,0.247,-5.337
0.266,0.053,0.248,-5.337
0.232,0.055,0.247,-5.337
0.261,0.056,0.247,-5.337
0.297,0.054,0.245,-5.337
0.253,0.057,0.246,-5.337
0.238,0.056,0.246,-5.337
0.289,0.054,0.245,-5.337
0.248,0.053,0.241,-5.337
0.177,0.054,0.239,-5.337
0.176,0.052,0.241,-5.337
0.252,0.052,0.246,-5.337
0.215,0.055,0.248,-5.337
0.168,0.058,0.247,-5.337
0.167,0.058,0.247,-5.337
0.165,0.054,0.248,-5.337
0.192,0.055,0.246,-5.337
0.180,0.057,0.243,-5.337
0.198,0.053,0.242,-5.337
0.250,0.053,0.246,-5.337
0.271,0.058,0.246,-5.337
0.257,0.060,0.243,-5.337
0.237,0.060,0.242,-5.337
0.174,0.058,0.246,-5.337
0.139,0.060,0.247,-5.337
0.176,0.057,0.245,-5.337
0.282,0.054,0.246,-5.337
0.226,0.060,0.246,-5.337
0.205,0.061,0.248,-5.337
0.210,0.061,0.249,-5.337
0.209,0.060,0.250,-5.337
0.232,0.057,0.249,-5.337
0.273,0.054,0.247,-5.337
0.302,0.054,0.244,-5.337
0.286,0.056,0.242,-5.337
0.225,0.054,0.238,-5.337
0.273,0.052,0.236,-5.337
0.358,0.051,0.238,-5.337
0.316,0.050,0.243,-5.337
0.314,0.051,0.246,-5.337
0.259,0.054,0.248,-5.337
0.261,0.055,0.249,-5.337
0.254,0.054,0.252,-5.337
0.234,0.051,0.249,-5.337
0.287,0.051,0.245,-5.337
0.294,0.051,0.245,-5.337
0.226,0.053,0.246,-5.337
0.204,0.054,0.245,-5.337
0.189,0.052,0.243,-5.337
0.190,0.051,0.245,-5.337
0.242,0.052,0.243,-5.337
0.201,0.054,0.244,-5.337
0.213,0.051,0.245,-5.337
0.214,0.049,0.249,-5.337
0.259,0.049,0.251,-5.337
0.301,0.051,0.253,-5.337
0.284,0.050,0.252,-5.337
0.328,0.048,0.249,-5.337
0.357,0.047,0.244,-5.337
0.325,0.053,0.243,-5.337
0.233,0.054,0.243,-5.337
0.152,0.055,0.245,-5.337
0.137,0.051,0.243,-5.337
0.152,0.050,0.240,-5.337
0.190,0.047,0.241,-5.337
0.284,0.049,0.246,-5.337
0.277,0.051,0.249,-5.337
0.253,0.052,0.249,-5.337
0.177,0.055,0.246,-5.337
0.135,0.057,0.244,-5.337
0.166,0.055,0.246,-5.337
0.214,0.055,0.249,-5.337
0.205,0.055,0.250,-5.337
0.235,0.050,0.247,-5.337
0.267,0.047,0.243,-5.337
0.256,0.047,0.242,-5.337
0.246,0.047,0.243,-5.337
0.203,0.047,0.245,-5.337
0.210,0.047,0.249,-5.337
0.209,0.047,0.248,-5.337
0.203,0.047,0.251,-5.337
0.206,0.044,0.253,-5.337
0.268,0.045,0.252,-5.337
0.323,0.047,0.248,-5.337
0.189,0.051,0.246,-5.337
0.126,0.048,0.244,-5.337
0.169,0.048,0.243,-5.337
0.258,0.045,0.244,-5.337
0.223,0.048,0.246,-5.337
0.124,0.047,0.247,-5.337
0.146,0.041,0.249,-5.337
0.242,0.040,0.249,-5.337
0.234,0.042,0.246,-5.337
0.234,0.042,0.244,-5.337
0.253,0.042,0.245,-5.337
0.278,0.046,0.246,-5.337
0.239,0.050,0.249,-5.337
0.205,0.052,0.246,-5.337
0.185,0.050,0.242,-5.337
0.294,0.044,0.241,-5.337
0.340,0.042,0.242,-5.337
0.238,0.043,0.243,-5.337
0.158,0.049,0.246,-5.337
0.152,0.049,0.248,-5.337
0.206,0.044,0.249,-5.337
0.263,0.039,0.249,-5.337
0.230,0.041,0.250,-5.337
0.197,0.043,0.250,-5.337
0.197,0.043,0.248,-5.337
0.204,0.041,0.249,-5.337
0.226,0.042,0.247,-5.337
0.218,0.039,0.243,-5.337
0.289,0.038,0.243,-5.337
0.213,0.044,0.244,-5.337
0.132,0.047,0.245,-5.337
0.193,0.042,0.245,-5.337
0.272,0.036,0.245,-5.337
0.214,0.037,0.251,-5.337
0.207,0.036,0.253,-5.337
0.208,0.034,0.252,-5.337
0.229,0.032,0.249,-5.337
0.248,0.035,0.243,-5.337
0.139,0.035,0.243,-5.337
0.129,0.034,0.242,-5.337
0.203,0.035,0.244,-5.337
0.234,0.035,0.251,-5.337
0.251,0.035,0.255,-5.337
0.252,0.038,0.252,-5.337
0.258,0.037,0.248,-5.337
0.176,0.037,0.243,-5.337
0.192,0.035,0.246,-5.337
0.230,0.034,0.247,-5.337
0.178,0.035,0.246,-5.337
0.131,0.034,0.246,-5.337
0.130,0.032,0.247,-5.337
0.190,0.032,0.248,-5.337
0.282,0.035,0.250,-5.337
0.305,0.033,0.246,-5.337
0.279,0.031,0.246,-5.337
0.240,0.032,0.245,-5.337
0.201,0.034,0.242,-5.337
0.173,0.033,0.241,-5.337
0.180,0.034,0.243,-5.337
0.123,0.033,0.243,-5.337
0.167,0.034,0.245,-5.337
0.200,0.037,0.250,-5.337
0.181,0.039,0.252,-5.337
0.222,0.039,0.250,-5.337
0.246,0.037,0.247,-5.337
0.219,0.033,0.244,-5.337
0.249,0.030,0.247,-5.337
0.283,0.029,0.253,-5.337
0.237,0.029,0.251,-5.337
0.141,0.030,0.244,-5.337
0.077,0.031,0.238,-5.337
0.060,0.035,0.241,-5.337
0.107,0.034,0.247,-5.337
0.248,0.031,0.251,-5.337
0.243,0.030,0.251,-5.337
0.219,0.030,0.251,-5.337
0.215,0.028,0.251,-5.337
0.258,0.026,0.251,-5.337
0.254,0.027,0.249,-5.337
0.251,0.028,0.247,-5.337
0.184,0.031,0.245,-5.337
0.089,0.030,0.247,-5.337
0.114,0.030,0.247,-5.337
0.143,0.030,0.241,-5.337
0.158,0.028,0.241,-5.337
0.165,0.024,0.241,-5.337
0.131,0.023,0.244,-5.337
0.116,0.025,0.246,-5.337
0.171,0.024,0.246,-5.337
0.236,0.027,0.246,-5.337
0.180,0.033,0.252,-5.337
0.148,0.031,0.252,-5.337
0.156,0.032,0.251,-5.337
0.192,0.029,0.250,-5.337
0.215,0.028,0.247,-5.337
0.161,0.031,0.246,-5.337
0.111,0.037,0.245,-5.337
0.145,0.033,0.242,-5.337
0.186,0.032,0.241,-5.337
0.146,0.034,0.243,-5.337
0.069,0.033,0.247,-5.337
0.088,0.032,0.250,-5.337
0.167,0.030,0.250,-5.337
0.236,0.027,0.245,-5.337
0.271,0.029,0.243,-5.337
0.195,0.032,0.241,-5.337
0.199,0.029,0.245,-5.337
0.211,0.028,0.247,-5.337
0.237,0.027,0.247,-5.337
0.276,0.025,0.245,-5.337
0.261,0.027,0.243,-5.337
0.185,0.029,0.243,-5.337
0.159,0.031,0.246,-5.337
0.087,0.032,0.250,-5.337
0.090,0.033,0.248,-5.337
0.174,0.032,0.244,-5.337
0.227,0.030,0.244,-5.337
0.222,0.028,0.247,-5.337
0.203,0.028,0.251,-5.337
0.180,0.033,0.252,-5.337
0.142,0.034,0.247,-5.337
0.140,0.030,0.245,-5.337
0.119,0.029,0.244,-5.337
0.101,0.029,0.243,-5.337
0.115,0.029,0.244,-5.337
0.168,0.028,0.245,-5.337
0.137,0.029,0.247,-5.337
0.153,0.029,0.251,-5.337
0.180,0.026,0.252,-5.337
0.232,0.028,0.247,-5.337
0.212,0.028,0.247,-5.337
0.126,0.031,0.249,-5.337
0.158,0.027,0.249,-5.337
0.200,0.028,0.245,-5.337
0.214,0.026,0.243,-5.337
0.218,0.025,0.242,-5.337
0.202,0.025,0.240,-5.337
0.172,0.028,0.241,-5.337
0.124,0.031,0.244,-5.337
0.093,0.028,0.247,-5.337
0.147,0.026,0.251,-5.337
0.152,0.023,0.249,-5.337
0.238,0.022,0.246,-5.337
0.223,0.027,0.243,-5.337
0.251,0.030,0.241,-5.337
0.283,0.029,0.241,-5.337
0.247,0.027,0.246,-5.337
0.196,0.024,0.248,-5.337
0.176,0.025,0.249,-5.337
0.156,0.026,0.247,-5.337
0.092,0.028,0.248,-5.337
0.114,0.028,0.248,-5.337
0.185,0.028,0.244,-5.337
0.231,0.024,0.243,-5.337
0.165,0.024,0.246,-5.337
0.171,0.022,0.245,-5.337
0.132,0.023,0.245,-5.337
0.104,0.025,0.247,-5.337
0.135,0.024,0.248,-5.337
0.204,0.020,0.245,-5.337
0.217,0.019,0.244,-5.337
0.155,0.020,0.247,-5.337
0.088,0.025,0.246,-5.337
0.118,0.027,0.244,-5.337
0.118,0.022,0.242,-5.337
0.130,0.023,0.240,-5.337
0.127,0.023,0.241,-5.337
0.130,0.023,0.245,-5.337
0.156,0.022,0.248,-5.337
0.160,0.023,0.248,-5.337
0.165,0.024,0.248,-5.337
0.082,0.027,0.249,-5.337
0.038,0.027,0.247,-5.337
0.031,0.028,0.244,-5.337
0.116,0.027,0.243,-5.337
0.193,0.026,0.245,-5.337
0.174,0.023,0.246,-5.337
0.102,0.027,0.244,-5.337
0.107,0.023,0.244,-5.337
0.139,0.020,0.245,-5.337
0.191,0.020,0.242,-5.337
0.229,0.025,0.240,-5.337
0.199,0.028,0.241,-5.337
0.181,0.027,0.245,-5.337
0.153,0.028,0.248,-5.337
0.160,0.026,0.251,-5.337
0.147,0.025,0.249,-5.337
0.211,0.023,0.248,-5.337
0.272,0.022,0.249,-5.337
0.243,0.025,0.246,-5.337
0.172,0.026,0.245,-5.337
0.132,0.030,0.244,-5.337
0.154,0.030,0.247,-5.337
0.117,0.030,0.246,-5.337
0.129,0.028,0.244,-5.337
0.179,0.032,0.240,-5.337
0.190,0.029,0.242,-5.337
0.195,0.030,0.245,-5.337
0.210,0.033,0.245,-5.337
0.158,0.030,0.246,-5.337
0.132,0.028,0.249,-5.337
0.155,0.028,0.251,-5.337
0.170,0.028,0.248,-5.337
0.196,0.028,0.243,-5.337
0.177,0.026,0.242,-5.337
0.177,0.027,0.244,-5.337
0.170,0.026,0.246,-5.337
0.180,0.026,0.244,-5.337
0.182,0.029,0.245,-5.337
0.243,0.026,0.246,-5.337
0.270,0.028,0.243,-5.337
0.224,0.028,0.244,-5.337
0.210,0.024,0.242,-5.337
0.224,0.023,0.242,-5.337
0.182,0.026,0.242,-5.337
0.149,0.025,0.242,-5.337
0.167,0.026,0.246,-5.337
0.192,0.026,0.250,-5.337
0.128,0.028,0.247,-5.337
0.102,0.030,0.245,-5.337
0.177,0.029,0.244,-5.337
0.189,0.028,0.247,-5.337
0.167,0.029,0.244,-5.337
0.125,0.029,0.244,-5.337
0.142,0.028,0.246,-5.337
0.261,0.028,0.248,-5.337
0.260,0.027,0.250,-5.337
0.225,0.030,0.247,-5.337
0.184,0.031,0.245,-5.337
0.157,0.031,0.248,-5.337
0.127,0.033,0.249,-5.337
0.149,0.033,0.246,-5.337
0.174,0.033,0.244,-5.337
0.268,0.032,0.245,-5.337
0.252,0.031,0.246,-5.337
0.247,0.031,0.246,-5.337
0.218,0.031,0.245,-5.337
0.203,0.032,0.249,-5.337
0.204,0.031,0.256,-5.337
0.199,0.029,0.255,-5.337
0.182,0.027,0.251,-5.337
0.173,0.025,0.247,-5.337
0.208,0.027,0.244,-5.337
0.197,0.031,0.241,-5.337
0.198,0.030,0.244,-5.337
0.194,0.029,0.244,-5.337
0.232,0.030,0.246,-5.337
0.221,0.031,0.249,-5.337
0.182,0.033,0.249,-5.337
0.183,0.034,0.243,-5.337
0.131,0.033,0.243,-5.337
0.118,0.031,0.245,-5.337
0.195,0.033,0.249,-5.337
0.258,0.036,0.252,-5.337
0.213,0.038,0.251,-5.337
0.149,0.038,0.250,-5.337
0.181,0.037,0.251,-5.337
0.236,0.035,0.245,-5.337
0.253,0.035,0.241,-5.337
0.183,0.034,0.242,-5.337
0.195,0.037,0.245,-5.337
0.174,0.037,0.248,-5.337
0.130,0.037,0.248,-5.337
0.110,0.038,0.250,-5.337
0.175,0.036,0.249,-5.337
0.193,0.039,0.246,-5.337
0.249,0.036,0.240,-5.337
0.283,0.035,0.243,-5.337
0.245,0.034,0.245,-5.337
0.168,0.037,0.249,-5.337
0.109,0.040,0.249,-5.337
0.116,0.039,0.250,-5.337
0.184,0.036,0.246,-5.337
0.323,0.030,0.243,-5.337
0.284,0.035,0.242,-5.337
0.137,0.041,0.247,-5.337
0.106,0.041,0.250,-5.337
0.187,0.038,0.251,-5.337
0.207,0.036,0.251,-5.337
0.242,0.036,0.247,-5.337
0.245,0.038,0.243,-5.337
0.195,0.041,0.243,-5.337
0.195,0.039,0.248,-5.337
0.231,0.038,0.250,-5.337
0.247,0.040,0.254,-5.337
0.198,0.042,0.252,-5.337
0.142,0.041,0.247,-5.337
0.085,0.041,0.248,-5.337
0.115,0.040,0.245,-5.337
0.199,0.036,0.244,-5.337
0.213,0.035,0.246,-5.337
0.177,0.034,0.247,-5.337
0.167,0.033,0.248,-5.337
0.242,0.034,0.249,-5.337
0.273,0.038,0.250,-5.337
0.190,0.037,0.247,-5.337
0.155,0.037,0.249,-5.337
0.184,0.039,0.248,-5.337
0.283,0.037,0.249,-5.337
0.329,0.038,0.244,-5.337
0.170,0.042,0.244,-5.337
0.168,0.037,0.248,-5.337
0.251,0.038,0.251,-5.337
0.244,0.037,0.248,-5.337
0.249,0.038,0.246,-5.337
0.252,0.039,0.247,-5.337
0.213,0.039,0.248,-5.337
0.176,0.040,0.249,-5.337
0.221,0.043,0.249,-5.337
0.177,0.044,0.248,-5.337
0.158,0.041,0.251,-5.337
0.172,0.041,0.250,-5.337
0.193,0.040,0.247,-5.337
0.249,0.040,0.244,-5.337
0.244,0.042,0.247,-5.337
0.241,0.048,0.250,-5.337
0.236,0.049,0.250,-5.337
0.273,0.049,0.246,-5.337
0.321,0.045,0.244,-5.337
0.327,0.048,0.249,-5.337
0.278,0.047,0.251,-5.337
0.293,0.047,0.249,-5.337
0.295,0.046,0.247,-5.337
0.219,0.045,0.249,-5.337
0.213,0.042,0.248,-5.337
0.253,0.043,0.247,-5.337
0.234,0.041,0.249,-5.337
0.248,0.040,0.247,-5.337
0.236,0.039,0.244,-5.337
0.259,0.042,0.245,-5.337
0.265,0.045,0.244,-5.337
0.318,0.043,0.243,-5.337
0.310,0.042,0.245,-5.337
0.214,0.043,0.249,-5.337
0.220,0.043,0.251,-5.337
0.266,0.044,0.250,-5.337
0.278,0.047,0.249,-5.337
0.214,0.047,0.245,-5.337
0.171,0.042,0.246,-5.337
0.175,0.041,0.244,-5.337
0.195,0.043,0.246,-5.337
0.203,0.046,0.251,-5.337
0.226,0.046,0.251,-5.337
0.251,0.047,0.244,-5.337
0.254,0.052,0.244,-5.337
0.229,0.054,0.246,-5.337
0.181,0.053,0.248,-5.337
0.245,0.050,0.246,-5.337
0.309,0.051,0.246,-5.337
0.241,0.054,0.244,-5.337
0.244,0.050,0.244,-5.337
0.262,0.047,0.246,-5.337
0.267,0.047,0.250,-5.337
0.299,0.045,0.252,-5.337
0.290,0.045,0.254,-5.337
0.240,0.043,0.250,-5.337
0.246,0.045,0.244,-5.337
0.242,0.043,0.242,-5.337
0.255,0.044,0.244,-5.337
0.263,0.045,0.244,-5.337
0.242,0.047,0.245,-5.337
0.178,0.049,0.244,-5.337
0.263,0.052,0.242,-5.337
0.241,0.054,0.244,-5.337
0.194,0.054,0.245,-5.337
0.157,0.054,0.247,-5.337
0.178,0.052,0.248,-5.337
0.208,0.052,0.251,-5.337
0.264,0.051,0.252,-5.337
0.264,0.051,0.254,-5.337
0.207,0.051,0.254,-5.337
0.238,0.050,0.253,-5.337
0.312,0.046,0.247,-5.337
0.375,0.048,0.243,-5.337
0.327,0.049,0.239,-5.337
0.265,0.049,0.238,-5.337
0.314,0.048,0.242,-5.337
0.341,0.050,0.248,-5.337
0.272,0.056,0.250,-5.337
0.228,0.055,0.248,-5.337
0.246,0.054,0.247,-5.337
0.325,0.056,0.249,-5.337
0.279,0.056,0.248,-5.337
0.262,0.054,0.247,-5.337
0.320,0.049,0.249,-5.337
0.284,0.053,0.249,-5.337
0.264,0.055,0.246,-5.337
0.300,0.056,0.241,-5.337
0.209,0.060,0.243,-5.337
0.184,0.060,0.247,-5.337
0.173,0.056,0.250,-5.337
0.222,0.052,0.250,-5.337
0.247,0.053,0.247,-5.337
0.292,0.054,0.243,-5.337
0.245,0.055,0.244,-5.337
0.232,0.057,0.247,-5.337
0.253,0.058,0.249,-5.337
0.214,0.064,0.252,-5.337
0.183,0.062,0.253,-5.337
0.226,0.057,0.251,-5.337
0.258,0.056,0.247,-5.337
0.217,0.056,0.242,-5.337
0.188,0.054,0.242,-5.337
0.233,0.056,0.245,-5.337
0.306,0.054,0.248,-5.337
0.342,0.050,0.249,-5.337
0.276,0.050,0.248,-5.337
0.183,0.055,0.244,-5.337
0.159,0.055,0.246,-5.337
0.174,0.055,0.248,-5.337
0.196,0.052,0.252,-5.337
0.169,0.055,0.250,-5.337
0.137,0.057,0.246,-5.337
0.180,0.054,0.244,-5.337
0.245,0.049,0.242,-5.337
0.248,0.049,0.243,-5.337
0.263,0.052,0.243,-5.337
0.265,0.055,0.242,-5.337
0.267,0.054,0.242,-5.337
0.240,0.055,0.247,-5.337
0.196,0.057,0.249,-5.337
0.142,0.056,0.252,-5.337
0.226,0.051,0.251,-5.337
0.349,0.048,0.250,-5.337
0.375,0.048,0.248,-5.337
0.321,0.050,0.248,-5.337
0.261,0.050,0.247,-5.337
0.237,0.049,0.248,-5.337
0.180,0.049,0.248,-5.337
0.189,0.050,0.245,-5.337
0.219,0.051,0.240,-5.337
0.237,0.051,0.243,-5.337
0.223,0.050,0.248,-5.337
0.221,0.050,0.249,-5.337
0.274,0.051,0.246,-5.337
0.238,0.054,0.246,-5.337
0.154,0.053,0.245,-5.337
0.117,0.053,0.245,-5.337
0.132,0.054,0.248,-5.337
0.191,0.053,0.247,-5.337
0.220,0.054,0.245,-5.337
0.262,0.052,0.246,-5.337
0.244,0.052,0.247,-5.337
0.229,0.050,0.246,-5.337
0.234,0.050,0.245,-5.337
0.227,0.046,0.244,-5.337
0.220,0.047,0.245,-5.337
0.241,0.047,0.247,-5.337
0.259,0.047,0.250,-5.337
0.263,0.049,0.252,-5.337
0.290,0.050,0.253,-5.337
0.245,0.049,0.250,-5.337
0.229,0.050,0.242,-5.337
0.218,0.050,0.235,-5.337
0.241,0.054,0.237,-5.337
0.252,0.052,0.244,-5.337
0.251,0.052,0.246,-5.337
0.239,0.049,0.246,-5.337
0.225,0.047,0.249,-5.337
0.244,0.050,0.246,-5.337
0.218,0.052,0.242,-5.337
0.234,0.052,0.243,-5.337
0.231,0.053,0.245,-5.337
0.230,0.050,0.247,-5.337
0.167,0.049,0.247,-5.337
0.198,0.047,0.245,-5.337
0.196,0.046,0.241,-5.337
0.192,0.047,0.242,-5.337
0.211,0.046,0.243,-5.337
0.199,0.047,0.244,-5.337
0.230,0.047,0.241,-5.337
0.298,0.049,0.243,-5.337
0.282,0.048,0.245,-5.337
0.233,0.051,0.247,-5.337
0.261,0.050,0.247,-5.337
0.293,0.049,0.247,-5.337
0.250,0.050,0.246,-5.337
0.157,0.052,0.246,-5.337
0.128,0.052,0.246,-5.337
0.219,0.051,0.248,-5.337
0.233,0.048,0.250,-5.337
0.220,0.048,0.249,-5.337
0.199,0.051,0.247,-5.337
0.151,0.055,0.244,-5.337
0.141,0.053,0.243,-5.337
0.198,0.050,0.242,-5.337
0.254,0.051,0.244,-5.337
0.224,0.051,0.246,-5.337
0.170,0.047,0.248,-5.337
0.193,0.045,0.247,-5.337
0.236,0.046,0.248,-5.337
0.208,0.048,0.244,-5.337
0.207,0.049,0.242,-5.337
0.219,0.046,0.241,-5.337
0.261,0.047,0.250,-5.337
0.297,0.047,0.253,-5.337
0.243,0.050,0.248,-5.337
0.208,0.047,0.244,-5.337
0.267,0.047,0.244,-5.337
0.270,0.043,0.244,-5.337
0.276,0.044,0.243,-5.337
0.264,0.044,0.243,-5.337
0.236,0.046,0.247,-5.337
0.208,0.045,0.251,-5.337
0.250,0.043,0.253,-5.337
0.351,0.040,0.250,-5.337
0.294,0.040,0.250,-5.337
0.160,0.042,0.248,-5.337
0.117,0.044,0.250,-5.337
0.120,0.043,0.249,-5.337
0.133,0.043,0.245,-5.337
0.159,0.044,0.241,-5.337
0.203,0.042,0.237,-5.337
0.201,0.042,0.238,-5.337
0.189,0.044,0.242,-5.337
0.171,0.047,0.249,-5.337
0.187,0.050,0.251,-5.337
0.180,0.048,0.251,-5.337
0.176,0.044,0.251,-5.337
0.155,0.047,0.251,-5.337
0.202,0.051,0.248,-5.337
0.244,0.050,0.246,-5.337
0.217,0.048,0.243,-5.337
0.167,0.047,0.243,-5.337
0.166,0.045,0.249,-5.337
0.218,0.044,0.249,-5.337
0.167,0.047,0.245,-5.337
0.082,0.049,0.245,-5.337
0.094,0.047,0.245,-5.337
0.161,0.047,0.248,-5.337
0.207,0.049,0.251,-5.337
0.229,0.051,0.251,-5.337
0.238,0.050,0.251,-5.337
0.257,0.047,0.247,-5.337
0.218,0.050,0.242,-5.337
0.194,0.052,0.240,-5.337
0.238,0.051,0.242,-5.337
0.271,0.046,0.244,-5.337
0.249,0.049,0.249,-5.337
0.264,0.048,0.251,-5.337
0.285,0.046,0.248,-5.337
0.250,0.042,0.244,-5.337
0.209,0.041,0.245,-5.337
0.181,0.043,0.247,-5.337
0.221,0.042,0.252,-5.337
0.217,0.042,0.252,-5.337
0.203,0.041,0.251,-5.337
0.160,0.041,0.248,-5.337
0.110,0.042,0.246,-5.337
0.139,0.039,0.242,-5.337
0.213,0.039,0.248,-5.337
0.229,0.044,0.249,-5.337
0.175,0.042,0.244,-5.337
0.182,0.040,0.244,-5.337
0.105,0.043,0.245,-5.337
0.116,0.044,0.245,-5.337
0.172,0.044,0.246,-5.337
0.204,0.043,0.245,-5.337
0.160,0.042,0.249,-5.337
0.123,0.040,0.252,-5.337
0.142,0.040,0.252,-5.337
0.107,0.039,0.250,-5.337
0.182,0.039,0.253,-5.337
0.219,0.038,0.253,-5.337
0.150,0.037,0.252,-5.337
0.175,0.035,0.253,-5.337
0.212,0.039,0.250,-5.337
0.213,0.040,0.245,-5.337
0.224,0.038,0.245,-5.337
0.200,0.038,0.247,-5.337
0.185,0.041,0.245,-5.337
0.225,0.039,0.244,-5.337
0.235,0.037,0.244,-5.337
0.235,0.037,0.245,-5.337
0.207,0.038,0.244,-5.337
0.222,0.034,0.244,-5.337
0.242,0.033,0.245,-5.337
0.216,0.034,0.248,-5.337
0.173,0.037,0.250,-5.337
0.194,0.036,0.251,-5.337
0.283,0.034,0.249,-5.337
0.296,0.035,0.251,-5.337
0.202,0.035,0.251,-5.337
0.084,0.036,0.247,-5.337
0.141,0.035,0.245,-5.337
0.188,0.040,0.246,-5.337
0.149,0.040,0.248,-5.337
0.115,0.038,0.250,-5.337
0.112,0.036,0.250,-5.337
0.089,0.039,0.247,-5.337
0.121,0.043,0.245,-5.337
0.175,0.045,0.242,-5.337
0.195,0.041,0.243,-5.337
0.171,0.040,0.246,-5.337
0.112,0.039,0.247,-5.337
0.142,0.037,0.244,-5.337
0.093,0.038,0.244,-5.337
0.079,0.040,0.247,-5.337
0.115,0.039,0.248,-5.337
0.098,0.039,0.248,-5.337
0.090,0.039,0.249,-5.337
0.173,0.038,0.249,-5.337
0.223,0.035,0.249,-5.337
0.199,0.034,0.249,-5.337
0.171,0.035,0.249,-5.337
0.196,0.035,0.247,-5.337
0.181,0.038,0.249,-5.337
0.143,0.037,0.251,-5.337
0.108,0.037,0.251,-5.337
0.143,0.041,0.249,-5.337
0.187,0.038,0.246,-5.337
0.195,0.036,0.244,-5.337
0.163,0.036,0.239,-5.337
0.117,0.036,0.241,-5.337
0.145,0.037,0.242,-5.337
0.177,0.037,0.246,-5.337
0.174,0.040,0.248,-5.337
0.142,0.040,0.248,-5.337
0.169,0.039,0.245,-5.337
0.161,0.038,0.245,-5.337
0.172,0.035,0.244,-5.337
0.218,0.035,0.247,-5.337
0.237,0.038,0.254,-5.337
0.247,0.038,0.256,-5.337
0.209,0.036,0.254,-5.337
0.206,0.036,0.251,-5.337
0.195,0.034,0.250,-5.337
0.136,0.035,0.243,-5.337
0.106,0.034,0.239,-5.337
0.158,0.031,0.240,-5.337
0.197,0.031,0.243,-5.337
0.197,0.033,0.248,-5.337
0.223,0.030,0.251,-5.337
0.218,0.030,0.249,-5.337
0.132,0.035,0.247,-5.337
0.146,0.036,0.248,-5.337
0.217,0.035,0.248,-5.337
0.210,0.033,0.248,-5.337
0.119,0.033,0.247,-5.337
0.044,0.036,0.242,-5.337
0.087,0.034,0.241,-5.337
0.128,0.035,0.245,-5.337
0.115,0.037,0.252,-5.337
0.137,0.035,0.252,-5.337
0.127,0.034,0.249,-5.337
0.167,0.031,0.244,-5.337
0.233,0.031,0.245,-5.337
0.236,0.030,0.248,-5.337
0.183,0.035,0.248,-5.337
0.137,0.037,0.249,-5.337
0.180,0.035,0.247,-5.337
0.208,0.036,0.244,-5.337
0.197,0.036,0.242,-5.337
0.160,0.034,0.243,-5.337
0.140,0.034,0.246,-5.337
0.171,0.031,0.244,-5.337
0.186,0.030,0.243,-5.337
0.195,0.032,0.244,-5.337
0.147,0.036,0.247,-5.337
0.086,0.039,0.249,-5.337
0.092,0.037,0.249,-5.337
0.159,0.037,0.250,-5.337
0.148,0.039,0.246,-5.337
0.093,0.037,0.240,-5.337
0.086,0.036,0.237,-5.337
0.138,0.036,0.242,-5.337
0.220,0.036,0.243,-5.337
0.196,0.034,0.247,-5.337
0.120,0.031,0.247,-5.337
0.162,0.031,0.249,-5.337
0.177,0.033,0.247,-5.337
0.184,0.035,0.245,-5.337
0.169,0.036,0.246,-5.337
0.219,0.038,0.248,-5.337
0.181,0.035,0.247,-5.337
0.151,0.036,0.248,-5.337
0.189,0.035,0.249,-5.337
0.195,0.032,0.249,-5.337
0.158,0.034,0.250,-5.337
0.136,0.037,0.252,-5.337
0.134,0.036,0.251,-5.337
0.140,0.033,0.251,-5.337
0.208,0.031,0.249,-5.337
0.210,0.031,0.246,-5.337
0.175,0.037,0.244,-5.337
0.183,0.033,0.245,-5.337
0.223,0.028,0.247,-5.337
0.141,0.030,0.248,-5.337
0.094,0.031,0.245,-5.337
0.072,0.033,0.241,-5.337
0.169,0.035,0.241,-5.337
0.224,0.039,0.243,-5.337
0.150,0.037,0.247,-5.337
0.067,0.036,0.245,-5.337
0.127,0.035,0.246,-5.337
0.099,0.039,0.246,-5.337
0.148,0.038,0.247,-5.337
0.197,0.037,0.249,-5.337
0.109,0.041,0.250,-5.337
0.071,0.040,0.247,-5.337
0.110,0.039,0.248,-5.337
0.134,0.037,0.248,-5.337
0.202,0.034,0.246,-5.337
0.234,0.035,0.244,-5.337
0.174,0.038,0.246,-5.337
0.156,0.036,0.248,-5.337
0.180,0.035,0.248,-5.337
0.200,0.034,0.247,-5.337
0.222,0.030,0.247,-5.337
0.201,0.031,0.241,-5.337
0.164,0.034,0.241,-5.337
0.168,0.036,0.244,-5.337
0.198,0.036,0.246,-5.337
0.169,0.039,0.245,-5.337
0.171,0.038,0.246,-5.337
0.172,0.037,0.248,-5.337
0.167,0.038,0.246,-5.337
0.116,0.037,0.242,-5.337
0.089,0.034,0.244,-5.337
0.099,0.035,0.245,-5.337
0.069,0.037,0.243,-5.337
0.108,0.037,0.243,-5.337
0.240,0.036,0.244,-5.337
0.272,0.036,0.247,-5.337
0.225,0.037,0.250,-5.337
0.196,0.037,0.248,-5.337
0.236,0.033,0.244,-5.337
0.246,0.037,0.243,-5.337
0.225,0.040,0.241,-5.337
0.192,0.038,0.241,-5.337
0.156,0.040,0.244,-5.337
0.177,0.040,0.249,-5.337
0.194,0.038,0.250,-5.337
0.184,0.039,0.247,-5.337
0.206,0.040,0.242,-5.337
0.163,0.038,0.242,-5.337
0.136,0.039,0.249,-5.337
0.139,0.040,0.253,-5.337
0.165,0.038,0.251,-5.337
0.173,0.038,0.243,-5.337
0.188,0.039,0.240,-5.337
0.159,0.046,0.240,-5.337
0.207,0.045,0.246,-5.337
0.228,0.042,0.244,-5.337
0.157,0.042,0.243,-5.337
0.190,0.038,0.243,-5.337
0.227,0.043,0.245,-5.337
0.202,0.044,0.242,-5.337
0.172,0.045,0.245,-5.337
0.167,0.040,0.252,-5.337
0.177,0.043,0.256,-5.337
0.130,0.046,0.251,-5.337
0.112,0.045,0.246,-5.337
0.150,0.042,0.241,-5.337
0.165,0.040,0.240,-5.337
0.213,0.039,0.242,-5.337
0.177,0.041,0.246,-5.337
0.139,0.041,0.248,-5.337
0.227,0.042,0.248,-5.337
0.243,0.036,0.244,-5.337
0.205,0.037,0.244,-5.337
0.163,0.034,0.248,-5.337
0.157,0.036,0.247,-5.337
0.136,0.040,0.249,-5.337
0.173,0.040,0.246,-5.337
0.233,0.039,0.243,-5.337
0.233,0.040,0.243,-5.337
0.178,0.044,0.246,-5.337
0.191,0.044,0.247,-5.337
0.169,0.042,0.250,-5.337
0.166,0.045,0.250,-5.337
0.121,0.045,0.250,-5.337
0.128,0.043,0.246,-5.337
0.167,0.042,0.247,-5.337
0.209,0.044,0.249,-5.337
0.224,0.042,0.247,-5.337
0.190,0.040,0.247,-5.337
0.160,0.040,0.249,-5.337
0.208,0.041,0.248,-5.337
0.258,0.043,0.245,-5.337
0.253,0.042,0.244,-5.337
0.234,0.037,0.245,-5.337
0.218,0.037,0.244,-5.337
0.245,0.038,0.245,-5.337
0.257,0.041,0.248,-5.337
0.234,0.040,0.246,-5.337
0.235,0.039,0.247,-5.337
0.196,0.047,0.246,-5.337
0.180,0.047,0.249,-5.337
0.189,0.044,0.250,-5.337
0.179,0.044,0.250,-5.337
0.159,0.044,0.248,-5.337
0.163,0.045,0.245,-5.337
0.194,0.046,0.242,-5.337
0.177,0.044,0.246,-5.337
0.239,0.040,0.245,-5.337
0.277,0.041,0.249,-5.337
0.251,0.043,0.252,-5.337
0.223,0.042,0.253,-5.337
0.233,0.039,0.254,-5.337
0.251,0.040,0.253,-5.337
0.185,0.041,0.251,-5.337
0.134,0.045,0.250,-5.337
0.162,0.043,0.247,-5.337
0.199,0.043,0.244,-5.337
0.200,0.041,0.243,-5.337
0.162,0.045,0.242,-5.337
0.159,0.044,0.242,-5.337
0.224,0.045,0.243,-5.337
0.193,0.046,0.248,-5.337
0.172,0.044,0.249,-5.337
0.243,0.043,0.247,-5.337
0.239,0.044,0.247,-5.337
0.220,0.051,0.245,-5.337
0.211,0.053,0.245,-5.337
0.169,0.054,0.250,-5.337
0.191,0.053,0.251,-5.337
0.199,0.053,0.248,-5.337
0.191,0.055,0.245,-5.337
0.192,0.053,0.247,-5.337
0.159,0.052,0.245,-5.337
0.185,0.052,0.243,-5.337
0.227,0.052,0.244,-5.337
0.291,0.051,0.247,-5.337
0.248,0.051,0.245,-5.337
0.186,0.051,0.247,-5.337
0.210,0.048,0.248,-5.337
0.248,0.048,0.246,-5.337
0.250,0.046,0.247,-5.337
0.277,0.050,0.248,-5.337
0.245,0.051,0.246,-5.337
0.247,0.053,0.243,-5.337
0.195,0.052,0.244,-5.337
0.230,0.051,0.248,-5.337
0.284,0.053,0.248,-5.337
0.305,0.052,0.249,-5.337
0.304,0.049,0.251,-5.337
0.242,0.049,0.251,-5.337
0.211,0.052,0.247,-5.337
0.163,0.054,0.244,-5.337
0.165,0.052,0.246,-5.337
0.225,0.051,0.246,-5.337
0.292,0.051,0.246,-5.337
0.238,0.054,0.247,-5.337
0.195,0.053,0.253,-5.337
0.148,0.056,0.253,-5.337
0.124,0.058,0.249,-5.337
0.140,0.057,0.246,-5.337
0.206,0.053,0.248,-5.337
0.278,0.051,0.249,-5.337
0.273,0.051,0.246,-5.337
0.242,0.049,0.245,-5.337
0.142,0.050,0.243,-5.337
0.240,0.047,0.244,-5.337
0.425,0.045,0.248,-5.337
0.422,0.049,0.252,-5.337
0.322,0.053,0.251,-5.337
0.237,0.053,0.248,-5.337
0.208,0.055,0.247,-5.337
0.232,0.054,0.246,-5.337
0.209,0.054,0.246,-5.337
0.199,0.055,0.245,-5.337
0.191,0.054,0.249,-5.337
0.229,0.054,0.253,-5.337
0.264,0.055,0.250,-5.337
0.326,0.054,0.249,-5.337
0.375,0.054,0.246,-5.337
0.287,0.056,0.244,-5.337
0.173,0.055,0.245,-5.337
0.184,0.055,0.251,-5.337
0.248,0.055,0.250,-5.337
0.305,0.054,0.248,-5.337
0.242,0.054,0.248,-5.337
0.164,0.054,0.247,-5.337
0.215,0.054,0.240,-5.337
0.207,0.053,0.243,-5.337
0.233,0.054,0.246,-5.337
0.295,0.055,0.245,-5.337
0.271,0.057,0.242,-5.337
0.247,0.056,0.243,-5.337
0.251,0.054,0.248,-5.337
0.270,0.053,0.251,-5.337
0.287,0.058,0.252,-5.337
0.293,0.057,0.251,-5.337
0.260,0.056,0.247,-5.337
0.242,0.056,0.246,-5.337
0.230,0.057,0.247,-5.337
0.231,0.057,0.246,-5.337
0.243,0.058,0.245,-5.337
0.224,0.057,0.244,-5.337
0.208,0.057,0.246,-5.337
0.243,0.057,0.247,-5.337
0.263,0.054,0.251,-5.337
0.269,0.054,0.250,-5.337
0.265,0.056,0.246,-5.337
0.284,0.060,0.246,-5.337
0.263,0.061,0.249,-5.337
0.275,0.059,0.252,-5.337
0.259,0.060,0.251,-5.337
0.280,0.057,0.247,-5.337
0.319,0.052,0.245,-5.337
0.350,0.049,0.245,-5.337
0.290,0.050,0.244,-5.337
0.236,0.052,0.245,-5.337
0.233,0.054,0.250,-5.337
0.269,0.052,0.253,-5.337
0.267,0.050,0.250,-5.337
0.256,0.052,0.245,-5.337
0.260,0.052,0.244,-5.337
0.275,0.055,0.245,-5.337
0.252,0.058,0.246,-5.337
0.185,0.059,0.252,-5.337
0.177,0.056,0.251,-5.337
0.254,0.054,0.247,-5.337
0.264,0.058,0.244,-5.337
0.266,0.055,0.242,-5.337
0.296,0.051,0.242,-5.337
0.289,0.052,0.248,-5.337
0.247,0.053,0.252,-5.337
0.269,0.056,0.250,-5.337
0.286,0.055,0.247,-5.337
0.289,0.053,0.248,-5.337
0.261,0.054,0.250,-5.337
0.227,0.058,0.250,-5.337
0.215,0.057,0.246,-5.337
0.184,0.058,0.244,-5.337
0.211,0.053,0.245,-5.337
0.264,0.054,0.247,-5.337
0.276,0.054,0.245,-5.337
0.233,0.057,0.243,-5.337
0.198,0.056,0.244,-5.337
0.228,0.056,0.245,-5.337
0.310,0.052,0.246,-5.337
0.316,0.057,0.242,-5.337
0.263,0.059,0.238,-5.337
0.349,0.055,0.243,-5.337
0.350,0.059,0.249,-5.337
0.291,0.060,0.251,-5.337
0.191,0.060,0.247,-5.337
0.102,0.063,0.244,-5.337
0.137,0.061,0.247,-5.337
0.242,0.060,0.251,-5.337
0.269,0.058,0.252,-5.337
0.217,0.056,0.251,-5.337
0.266,0.053,0.251,-5.337
0.294,0.055,0.244,-5.337
0.255,0.059,0.242,-5.337
0.229,0.061,0.243,-5.337
0.227,0.060,0.245,-5.337
0.217,0.057,0.246,-5.337
0.263,0.057,0.250,-5.337
0.302,0.055,0.251,-5.337
0.267,0.061,0.247,-5.337
0.189,0.062,0.245,-5.337
0.225,0.058,0.246,-5.337
0.273,0.057,0.250,-5.337
0.273,0.061,0.251,-5.337
0.281,0.061,0.247,-5.337
0.261,0.064,0.245,-5.337
0.218,0.061,0.243,-5.337
0.224,0.059,0.246,-5.337
0.197,0.062,0.245,-5.337
0.177,0.063,0.243,-5.337
0.255,0.061,0.241,-5.337
0.328,0.060,0.242,-5.337
0.314,0.059,0.245,-5.337
0.289,0.060,0.247,-5.337
0.322,0.060,0.250,-5.337
0.298,0.061,0.247,-5.337
0.256,0.061,0.242,-5.337
0.245,0.062,0.241,-5.337
0.236,0.061,0.246,-5.337
0.231,0.057,0.248,-5.337
0.229,0.059,0.249,-5.337
0.264,0.059,0.249,-5.337
0.246,0.061,0.249,-5.337
0.249,0.060,0.248,-5.337
0.235,0.064,0.247,-5.337
0.174,0.064,0.247,-5.337
0.164,0.062,0.245,-5.337
0.108,0.060,0.243,-5.337
0.153,0.061,0.245,-5.337
0.259,0.057,0.245,-5.337
0.231,0.057,0.245,-5.337
0.181,0.060,0.246,-5.337
0.202,0.059,0.247,-5.337
0.183,0.058,0.247,-5.337
0.168,0.055,0.244,-5.337
0.207,0.055,0.243,-5.337
0.256,0.055,0.244,-5.337
0.181,0.056,0.242,-5.337
0.164,0.056,0.242,-5.337
0.200,0.055,0.245,-5.337
0.200,0.055,0.245,-5.337
0.259,0.054,0.244,-5.337
0.260,0.057,0.244,-5.337
0.181,0.059,0.248,-5.337
0.167,0.057,0.249,-5.337
0.213,0.058,0.249,-5.337
0.243,0.056,0.245,-5.337
0.233,0.059,0.243,-5.337
0.194,0.058,0.241,-5.337
0.177,0.057,0.239,-5.337
0.196,0.057,0.241,-5.337
0.232,0.056,0.244,-5.337
0.220,0.057,0.245,-5.337
0.231,0.055,0.247,-5.337
0.247,0.052,0.248,-5.337
0.220,0.053,0.246,-5.337
0.231,0.057,0.245,-5.337
0.286,0.057,0.244,-5.337
0.292,0.056,0.245,-5.337
0.216,0.061,0.244,-5.337
0.145,0.061,0.244,-5.337
0.180,0.060,0.246,-5.337
0.205,0.061,0.247,-5.337
0.209,0.058,0.248,-5.337
0.235,0.058,0.245,-5.337
0.279,0.053,0.241,-5.337
0.307,0.055,0.242,-5.337
0.223,0.060,0.245,-5.337
0.167,0.062,0.248,-5.337
0.175,0.059,0.246,-5.337
0.202,0.055,0.245,-5.337
0.268,0.047,0.243,-5.337
0.263,0.052,0.246,-5.337
0.143,0.056,0.251,-5.337
0.144,0.056,0.253,-5.337
0.228,0.053,0.250,-5.337
0.266,0.054,0.247,-5.337
0.319,0.052,0.246,-5.337
0.334,0.052,0.241,-5.337
0.275,0.050,0.237,-5.337
0.234,0.052,0.237,-5.337
0.207,0.054,0.246,-5.337
0.166,0.057,0.252,-5.337
0.086,0.057,0.253,-5.337
0.128,0.055,0.248,-5.337
0.178,0.055,0.245,-5.337
0.184,0.054,0.245,-5.337
0.214,0.052,0.249,-5.337
0.244,0.049,0.251,-5.337
0.191,0.053,0.251,-5.337
0.142,0.053,0.244,-5.337
0.179,0.051,0.244,-5.337
0.228,0.053,0.246,-5.337
0.231,0.052,0.250,-5.337
0.192,0.049,0.248,-5.337
0.205,0.050,0.249,-5.337
0.216,0.048,0.249,-5.337
0.190,0.047,0.247,-5.337
0.209,0.045,0.247,-5.337
0.259,0.042,0.249,-5.337
0.297,0.042,0.249,-5.337
0.239,0.045,0.248,-5.337
0.245,0.044,0.248,-5.337
0.237,0.048,0.250,-5.337
0.205,0.046,0.249,-5.337
0.198,0.044,0.244,-5.337
0.202,0.047,0.246,-5.337
0.169,0.050,0.248,-5.337
0.210,0.046,0.248,-5.337
0.219,0.043,0.243,-5.337
0.133,0.044,0.244,-5.337
0.159,0.042,0.246,-5.337
0.271,0.041,0.250,-5.337
0.310,0.047,0.253,-5.337
0.259,0.050,0.251,-5.337
0.224,0.049,0.244,-5.337
0.206,0.051,0.244,-5.337
0.152,0.050,0.243,-5.337
0.192,0.044,0.244,-5.337
0.236,0.045,0.249,-5.337
0.175,0.044,0.251,-5.337
0.155,0.041,0.247,-5.337
0.219,0.041,0.242,-5.337
0.264,0.039,0.240,-5.337
0.181,0.040,0.242,-5.337
0.176,0.043,0.242,-5.337
0.171,0.047,0.244,-5.337
0.131,0.046,0.246,-5.337
0.118,0.045,0.248,-5.337
0.177,0.045,0.251,-5.337
0.239,0.044,0.251,-5.337
0.206,0.047,0.249,-5.337
0.115,0.045,0.248,-5.337
0.089,0.044,0.248,-5.337
0.104,0.043,0.248,-5.337
0.140,0.045,0.246,-5.337
0.215,0.042,0.242,-5.337
0.269,0.041,0.242,-5.337
0.275,0.040,0.245,-5.337
0.183,0.043,0.249,-5.337
0.123,0.045,0.246,-5.337
0.209,0.042,0.244,-5.337
0.251,0.042,0.246,-5.337
0.218,0.046,0.246,-5.337
0.222,0.047,0.245,-5.337
0.231,0.043,0.246,-5.337
0.206,0.044,0.247,-5.337
0.179,0.044,0.248,-5.337
0.147,0.047,0.245,-5.337
0.111,0.051,0.243,-5.337
0.136,0.045,0.244,-5.337
0.121,0.044,0.248,-5.337
0.089,0.043,0.248,-5.337
0.046,0.045,0.251,-5.337
0.087,0.045,0.249,-5.337
0.201,0.045,0.245,-5.337
0.186,0.048,0.244,-5.337
0.091,0.050,0.242,-5.337
0.119,0.048,0.243,-5.337
0.109,0.045,0.249,-5.337
0.130,0.041,0.253,-5.337
0.232,0.040,0.251,-5.337
0.252,0.044,0.251,-5.337
0.163,0.043,0.250,-5.337
0.206,0.041,0.252,-5.337
0.211,0.039,0.245,-5.337
0.176,0.040,0.243,-5.337
0.200,0.041,0.245,-5.337
0.260,0.039,0.247,-5.337
0.263,0.041,0.249,-5.337
0.182,0.045,0.251,-5.337
0.180,0.045,0.248,-5.337
0.229,0.041,0.246,-5.337
0.287,0.037,0.248,-5.337
0.253,0.038,0.251,-5.337
0.180,0.040,0.252,-5.337
0.173,0.039,0.248,-5.337
0.099,0.041,0.246,-5.337
0.066,0.040,0.248,-5.337
0.099,0.040,0.246,-5.337
0.070,0.041,0.242,-5.337
0.019,0.042,0.241,-5.337
0.085,0.038,0.244,-5.337
0.169,0.033,0.248,-5.337
0.177,0.032,0.247,-5.337
0.141,0.035,0.248,-5.337
0.133,0.040,0.250,-5.337
0.166,0.038,0.250,-5.337
0.164,0.038,0.248,-5.337
0.164,0.040,0.242,-5.337
0.180,0.037,0.241,-5.337
0.158,0.038,0.246,-5.337
0.145,0.040,0.250,-5.337
0.129,0.042,0.254,-5.337
0.115,0.042,0.253,-5.337
0.141,0.042,0.249,-5.337
0.084,0.042,0.245,-5.337
0.084,0.043,0.246,-5.337
0.115,0.041,0.248,-5.337
0.103,0.040,0.250,-5.337
0.182,0.041,0.252,-5.337
0.184,0.042,0.251,-5.337
0.179,0.041,0.249,-5.337
0.126,0.041,0.246,-5.337
0.047,0.042,0.244,-5.337
0.078,0.042,0.247,-5.337
0.147,0.037,0.249,-5.337
0.104,0.034,0.247,-5.337
0.079,0.034,0.248,-5.337
0.170,0.034,0.248,-5.337
0.194,0.034,0.250,-5.337
0.103,0.036,0.251,-5.337
0.095,0.034,0.253,-5.337
0.230,0.033,0.249,-5.337
0.194,0.033,0.242,-5.337
0.151,0.035,0.239,-5.337
0.128,0.037,0.242,-5.337
0.141,0.036,0.244,-5.337
0.149,0.037,0.247,-5.337
0.150,0.041,0.248,-5.337
0.188,0.041,0.246,-5.337
0.233,0.038,0.247,-5.337
0.222,0.033,0.245,-5.337
0.216,0.032,0.244,-5.337
0.177,0.037,0.248,-5.337
0.137,0.036,0.252,-5.337
0.097,0.034,0.250,-5.337
0.089,0.036,0.246,-5.337
0.173,0.035,0.247,-5.337
0.215,0.036,0.247,-5.337
0.225,0.038,0.248,-5.337
0.169,0.041,0.249,-5.337
0.119,0.040,0.248,-5.337
0.233,0.036,0.245,-5.337
0.228,0.041,0.241,-5.337
0.200,0.043,0.240,-5.337
0.162,0.041,0.244,-5.337
0.167,0.041,0.253,-5.337
0.194,0.042,0.252,-5.337
0.227,0.037,0.247,-5.337
0.283,0.032,0.245,-5.337
0.240,0.034,0.247,-5.337
0.134,0.039,0.249,-5.337
0.037,0.040,0.250,-5.337
0.020,0.041,0.246,-5.337
0.107,0.042,0.245,-5.337
0.176,0.043,0.242,-5.337
0.146,0.044,0.240,-5.337
0.125,0.044,0.240,-5.337
0.235,0.041,0.246,-5.337
0.213,0.041,0.251,-5.337
0.082,0.040,0.251,-5.337
0.082,0.037,0.246,-5.337
0.132,0.038,0.245,-5.337
0.152,0.038,0.249,-5.337
0.112,0.039,0.251,-5.337
0.137,0.035,0.248,-5.337
0.219,0.035,0.242,-5.337
0.268,0.032,0.241,-5.337
0.288,0.033,0.245,-5.337
0.270,0.034,0.249,-5.337
0.241,0.037,0.250,-5.337
0.169,0.038,0.251,-5.337
0.109,0.039,0.252,-5.337
0.126,0.038,0.253,-5.337
0.125,0.037,0.247,-5.337
0.126,0.035,0.245,-5.337
0.134,0.040,0.249,-5.337
0.163,0.037,0.251,-5.337
0.180,0.037,0.252,-5.337
0.148,0.038,0.248,-5.337
0.090,0.039,0.242,-5.337
0.063,0.042,0.242,-5.337
0.051,0.041,0.240,-5.337
0.170,0.036,0.242,-5.337
0.179,0.037,0.250,-5.337
0.129,0.037,0.254,-5.337
0.127,0.037,0.250,-5.337
0.178,0.036,0.245,-5.337
0.261,0.033,0.240,-5.337
0.272,0.036,0.244,-5.337
0.312,0.036,0.246,-5.337
0.293,0.036,0.246,-5.337
0.220,0.036,0.248,-5.337
0.202,0.035,0.244,-5.337
0.171,0.035,0.245,-5.337
0.183,0.039,0.251,-5.337
0.163,0.041,0.253,-5.337
0.131,0.040,0.246,-5.337
0.128,0.036,0.242,-5.337
0.092,0.034,0.243,-5.337
0.122,0.035,0.247,-5.337
0.131,0.032,0.250,-5.337
0.089,0.034,0.250,-5.337
0.066,0.037,0.245,-5.337
0.106,0.036,0.246,-5.337
0.193,0.035,0.247,-5.337
0.190,0.038,0.246,-5.337
0.148,0.038,0.245,-5.337
0.166,0.037,0.246,-5.337
0.174,0.037,0.249,-5.337
0.172,0.037,0.247,-5.337
0.168,0.034,0.245,-5.337
0.168,0.035,0.244,-5.337
0.141,0.036,0.246,-5.337
0.178,0.037,0.248,-5.337
0.220,0.034,0.248,-5.337
0.227,0.034,0.245,-5.337
0.203,0.033,0.244,-5.337
0.169,0.035,0.242,-5.337
0.173,0.037,0.242,-5.337
0.192,0.038,0.244,-5.337
0.244,0.038,0.251,-5.337
0.232,0.039,0.251,-5.337
0.174,0.037,0.249,-5.337
0.148,0.038,0.247,-5.337
0.224,0.037,0.249,-5.337
0.333,0.037,0.246,-5.337
0.302,0.041,0.247,-5.337
0.216,0.042,0.243,-5.337
0.208,0.042,0.240,-5.337
0.167,0.045,0.241,-5.337
0.124,0.049,0.242,-5.337
0.126,0.047,0.245,-5.337
0.132,0.047,0.249,-5.337
0.130,0.044,0.250,-5.337
0.147,0.041,0.247,-5.337
0.193,0.042,0.244,-5.337
0.201,0.042,0.244,-5.337
0.137,0.044,0.245,-5.337
0.106,0.042,0.248,-5.337
0.118,0.039,0.246,-5.337
0.119,0.042,0.247,-5.337
0.160,0.041,0.249,-5.337
0.207,0.041,0.249,-5.337
0.244,0.039,0.250,-5.337
0.193,0.040,0.247,-5.337
0.168,0.041,0.245,-5.337
0.226,0.040,0.245,-5.337
0.250,0.041,0.244,-5.337
0.244,0.042,0.242,-5.337
0.208,0.044,0.246,-5.337
0.187,0.043,0.247,-5.337
0.238,0.038,0.249,-5.337
0.227,0.040,0.253,-5.337
0.210,0.045,0.251,-5.337
0.213,0.049,0.250,-5.337
0.185,0.046,0.245,-5.337
0.201,0.045,0.243,-5.337
0.256,0.044,0.246,-5.337
0.236,0.043,0.246,-5.337
0.200,0.041,0.244,-5.337
0.180,0.040,0.243,-5.337
0.190,0.042,0.245,-5.337
0.230,0.042,0.248,-5.337
0.260,0.044,0.246,-5.337
0.233,0.044,0.240,-5.337
0.241,0.044,0.242,-5.337
0.187,0.048,0.249,-5.337
0.092,0.049,0.254,-5.337
0.111,0.047,0.254,-5.337
0.161,0.045,0.251,-5.337
0.219,0.044,0.251,-5.337
0.223,0.045,0.249,-5.337
0.234,0.044,0.248,-5.337
0.199,0.048,0.247,-5.337
0.125,0.051,0.248,-5.337
0.139,0.047,0.245,-5.337
0.196,0.046,0.243,-5.337
0.244,0.043,0.242,-5.337
0.185,0.046,0.247,-5.337
0.168,0.047,0.251,-5.337
0.178,0.046,0.252,-5.337
0.178,0.048,0.253,-5.337
0.236,0.048,0.252,-5.337
0.275,0.044,0.249,-5.337
0.281,0.044,0.248,-5.337
0.264,0.045,0.250,-5.337
0.221,0.045,0.249,-5.337
0.264,0.046,0.247,-5.337
0.270,0.047,0.245,-5.337
0.286,0.048,0.246,-5.337
0.254,0.050,0.246,-5.337
0.201,0.051,0.248,-5.337
0.220,0.049,0.250,-5.337
0.238,0.046,0.247,-5.337
0.277,0.043,0.244,-5.337
0.257,0.048,0.246,-5.337
0.191,0.051,0.251,-5.337
0.202,0.049,0.255,-5.337
0.243,0.046,0.253,-5.337
0.230,0.051,0.250,-5.337
0.191,0.054,0.248,-5.337
0.181,0.052,0.246,-5.337
0.147,0.050,0.244,-5.337
0.215,0.049,0.242,-5.337
0.299,0.048,0.242,-5.337
0.243,0.053,0.245,-5.337
0.258,0.051,0.247,-5.337
0.243,0.050,0.246,-5.337
0.191,0.051,0.246,-5.337
0.198,0.054,0.247,-5.337
0.255,0.053,0.246,-5.337
0.216,0.052,0.247,-5.337
0.161,0.053,0.246,-5.337
0.166,0.054,0.249,-5.337
0.241,0.051,0.250,-5.337
0.272,0.052,0.250,-5.337
0.223,0.051,0.247,-5.337
0.258,0.050,0.242,-5.337
0.336,0.048,0.239,-5.337
0.275,0.053,0.242,-5.337
0.224,0.054,0.247,-5.337
0.271,0.051,0.247,-5.337
0.308,0.048,0.244,-5.337
0.265,0.050,0.242,-5.337
0.259,0.054,0.242,-5.337
0.233,0.054,0.243,-5.337
0.249,0.053,0.248,-5.337
0.238,0.054,0.252,-5.337
0.247,0.053,0.255,-5.337
0.276,0.052,0.255,-5.337
0.238,0.055,0.251,-5.337
0.199,0.053,0.244,-5.337
0.272,0.052,0.241,-5.337
0.292,0.052,0.242,-5.337
0.266,0.054,0.247,-5.337
0.237,0.056,0.250,-5.337
0.177,0.059,0.251,-5.337
0.166,0.060,0.249,-5.337
0.223,0.057,0.248,-5.337
0.240,0.052,0.246,-5.337
0.256,0.049,0.247,-5.337
0.291,0.049,0.251,-5.337
0.251,0.052,0.250,-5.337
0.228,0.056,0.249,-5.337
0.200,0.054,0.247,-5.337
0.244,0.050,0.248,-5.337
0.293,0.054,0.243,-5.337
0.218,0.055,0.244,-5.337
0.232,0.055,0.247,-5.337
0.279,0.056,0.247,-5.337
0.242,0.058,0.246,-5.337
0.206,0.057,0.249,-5.337
0.179,0.057,0.248,-5.337
0.171,0.061,0.246,-5.337
0.139,0.062,0.243,-5.337
0.179,0.058,0.246,-5.337
0.291,0.052,0.251,-5.337
0.331,0.049,0.252,-5.337
0.288,0.049,0.247,-5.337
0.229,0.052,0.245,-5.337
0.197,0.054,0.245,-5.337
0.153,0.057,0.246,-5.337
0.169,0.058,0.243,-5.337
0.209,0.059,0.241,-5.337
0.207,0.059,0.244,-5.337
0.188,0.061,0.245,-5.337
0.236,0.057,0.248,-5.337
0.248,0.055,0.249,-5.337
0.300,0.054,0.249,-5.337
0.284,0.056,0.249,-5.337
0.241,0.055,0.252,-5.337
0.279,0.052,0.252,-5.337
0.300,0.055,0.253,-5.337
0.228,0.057,0.251,-5.337
0.218,0.057,0.253,-5.337
0.284,0.055,0.250,-5.337
0.306,0.055,0.248,-5.337
0.185,0.057,0.246,-5.337
0.174,0.060,0.250,-5.337
0.262,0.058,0.247,-5.337
0.314,0.060,0.246,-5.337
0.353,0.056,0.245,-5.337
0.364,0.059,0.247,-5.337
0.282,0.059,0.247,-5.337
0.223,0.058,0.245,-5.337
0.246,0.056,0.246,-5.337
0.270,0.059,0.249,-5.337
0.222,0.061,0.251,-5.337
0.141,0.060,0.249,-5.337
0.163,0.057,0.247,-5.337
0.162,0.056,0.248,-5.337
0.236,0.058,0.248,-5.337
0.306,0.057,0.250,-5.337
0.276,0.055,0.253,-5.337
0.266,0.055,0.249,-5.337
0.246,0.059,0.242,-5.337
0.254,0.060,0.238,-5.337
0.192,0.060,0.243,-5.337
0.136,0.060,0.244,-5.337
0.227,0.059,0.248,-5.337
0.305,0.055,0.248,-5.337
0.273,0.059,0.247,-5.337
0.224,0.059,0.245,-5.337
0.203,0.057,0.246,-5.337
0.240,0.058,0.245,-5.337
0.241,0.059,0.247,-5.337
0.287,0.052,0.247,-5.337
0.277,0.050,0.246,-5.337
0.251,0.052,0.246,-5.337
0.204,0.056,0.247,-5.337
0.203,0.056,0.251,-5.337
0.339,0.053,0.253,-5.337
0.293,0.054,0.249,-5.337
0.218,0.056,0.246,-5.337
0.203,0.057,0.244,-5.337
0.238,0.056,0.246,-5.337
0.233,0.056,0.247,-5.337
0.261,0.054,0.245,-5.337
0.229,0.053,0.244,-5.337
0.200,0.050,0.245,-5.337
0.269,0.051,0.247,-5.337
0.268,0.053,0.249,-5.337
0.127,0.057,0.251,-5.337
0.141,0.057,0.250,-5.337
0.230,0.060,0.247,-5.337
0.241,0.060,0.242,-5.337
0.233,0.059,0.242,-5.337
0.209,0.060,0.242,-5.337
0.207,0.062,0.244,-5.337
0.203,0.061,0.244,-5.337
0.297,0.055,0.245,-5.337
0.297,0.053,0.243,-5.337
0.230,0.055,0.243,-5.337
0.255,0.055,0.246,-5.337
0.264,0.052,0.247,-5.337
0.199,0.051,0.244,-5.337
0.158,0.051,0.245,-5.337
0.208,0.051,0.248,-5.337
0.218,0.051,0.249,-5.337
0.245,0.050,0.248,-5.337
0.220,0.051,0.249,-5.337
0.196,0.052,0.249,-5.337
0.200,0.055,0.248,-5.337
0.263,0.051,0.247,-5.337
0.282,0.053,0.244,-5.337
0.237,0.053,0.243,-5.337
0.191,0.049,0.244,-5.337
0.193,0.051,0.247,-5.337
0.206,0.054,0.245,-5.337
0.183,0.052,0.242,-5.337
0.205,0.046,0.240,-5.337
0.280,0.046,0.247,-5.337
0.272,0.049,0.251,-5.337
0.214,0.053,0.251,-5.337
0.186,0.054,0.248,-5.337
0.173,0.050,0.248,-5.337
0.197,0.050,0.248,-5.337
0.205,0.052,0.248,-5.337
0.186,0.050,0.244,-5.337
0.155,0.055,0.242,-5.337
0.166,0.052,0.245,-5.337
0.254,0.051,0.247,-5.337
0.267,0.052,0.242,-5.337
0.204,0.052,0.239,-5.337
0.126,0.052,0.239,-5.337
0.162,0.050,0.245,-5.337
0.164,0.051,0.249,-5.337
0.201,0.050,0.246,-5.337
0.260,0.047,0.244,-5.337
0.342,0.050,0.247,-5.337
0.276,0.055,0.253,-5.337
0.200,0.057,0.253,-5.337
0.216,0.056,0.247,-5.337
0.240,0.053,0.239,-5.337
0.275,0.052,0.243,-5.337
0.244,0.049,0.245,-5.337
0.202,0.045,0.245,-5.337
0.173,0.049,0.243,-5.337
0.180,0.048,0.243,-5.337
0.177,0.047,0.244,-5.337
0.205,0.046,0.245,-5.337
0.205,0.046,0.248,-5.337
0.184,0.047,0.250,-5.337
0.224,0.044,0.248,-5.337
0.225,0.046,0.244,-5.337
0.254,0.046,0.244,-5.337
0.167,0.048,0.241,-5.337
0.098,0.050,0.241,-5.337
0.134,0.049,0.247,-5.337
0.213,0.047,0.249,-5.337
0.228,0.045,0.248,-5.337
0.231,0.047,0.246,-5.337
0.180,0.050,0.247,-5.337
0.162,0.047,0.248,-5.337
0.167,0.046,0.248,-5.337
0.159,0.048,0.248,-5.337
0.119,0.049,0.245,-5.337
0.156,0.047,0.242,-5.337
0.226,0.044,0.238,-5.337
0.205,0.047,0.241,-5.337
0.181,0.048,0.242,-5.337
0.178,0.049,0.243,-5.337
0.173,0.047,0.244,-5.337
0.193,0.048,0.246,-5.337
0.195,0.050,0.243,-5.337
0.213,0.050,0.241,-5.337
0.241,0.049,0.247,-5.337
0.234,0.047,0.247,-5.337
0.211,0.045,0.248,-5.337
0.155,0.049,0.250,-5.337
0.167,0.047,0.246,-5.337
0.183,0.044,0.241,-5.337
0.230,0.041,0.243,-5.337
0.235,0.039,0.249,-5.337
0.213,0.037,0.251,-5.337
0.227,0.037,0.249,-5.337
0.174,0.042,0.247,-5.337
0.171,0.042,0.246,-5.337
0.262,0.042,0.244,-5.337
0.246,0.045,0.241,-5.337
0.226,0.045,0.244,-5.337
0.269,0.046,0.248,-5.337
0.284,0.048,0.249,-5.337
0.250,0.049,0.247,-5.337
0.183,0.048,0.247,-5.337
0.139,0.047,0.241,-5.337
0.094,0.044,0.243,-5.337
0.125,0.044,0.248,-5.337
0.154,0.044,0.254,-5.337
0.114,0.046,0.253,-5.337
0.092,0.045,0.249,-5.337
0.120,0.044,0.245,-5.337
0.135,0.045,0.243,-5.337
0.188,0.044,0.246,-5.337
0.176,0.045,0.251,-5.337
0.097,0.044,0.250,-5.337
0.161,0.045,0.246,-5.337
0.265,0.042,0.245,-5.337
0.192,0.042,0.246,-5.337
0.128,0.043,0.247,-5.337
0.104,0.042,0.247,-5.337
0.128,0.042,0.246,-5.337
0.148,0.041,0.245,-5.337
0.174,0.043,0.247,-5.337
0.155,0.041,0.249,-5.337
0.158,0.042,0.250,-5.337
0.190,0.040,0.246,-5.337
0.158,0.038,0.246,-5.337
0.171,0.037,0.246,-5.337
0.246,0.038,0.249,-5.337
0.261,0.038,0.252,-5.337
0.189,0.038,0.251,-5.337
0.204,0.039,0.248,-5.337
0.166,0.041,0.246,-5.337
0.091,0.043,0.244,-5.337
0.066,0.044,0.245,-5.337
0.119,0.044,0.246,-5.337
0.167,0.040,0.251,-5.337
0.170,0.038,0.254,-5.337
0.121,0.040,0.249,-5.337
0.098,0.037,0.242,-5.337
0.180,0.038,0.238,-5.337
0.162,0.039,0.242,-5.337
0.174,0.038,0.246,-5.337
0.217,0.038,0.246,-5.337
0.181,0.036,0.247,-5.337
0.139,0.035,0.250,-5.337
0.179,0.033,0.252,-5.337
0.226,0.034,0.253,-5.337
0.244,0.033,0.249,-5.337
0.228,0.037,0.245,-5.337
0.208,0.040,0.242,-5.337
0.203,0.040,0.246,-5.337
0.230,0.043,0.250,-5.337
0.245,0.042,0.250,-5.337
0.292,0.038,0.249,-5.337
0.288,0.039,0.247,-5.337
0.266,0.037,0.247,-5.337
0.192,0.038,0.243,-5.337
0.117,0.037,0.242,-5.337
0.067,0.038,0.245,-5.337
0.076,0.039,0.248,-5.337
0.119,0.042,0.249,-5.337
0.125,0.044,0.248,-5.337
0.125,0.038,0.247,-5.337
0.146,0.035,0.246,-5.337
0.159,0.037,0.249,-5.337
0.127,0.039,0.246,-5.337
0.129,0.037,0.243,-5.337
0.110,0.038,0.246,-5.337
0.175,0.036,0.249,-5.337
0.231,0.035,0.246,-5.337
0.224,0.037,0.246,-5.337
0.166,0.039,0.250,-5.337
0.113,0.041,0.249,-5.337
0.141,0.037,0.244,-5.337
0.140,0.034,0.240,-5.337
0.184,0.033,0.242,-5.337
0.192,0.035,0.243,-5.337
0.159,0.036,0.247,-5.337
0.145,0.037,0.248,-5.337
0.174,0.039,0.248,-5.337
0.147,0.039,0.246,-5.337
0.125,0.037,0.248,-5.337
0.164,0.035,0.247,-5.337
0.131,0.037,0.246,-5.337
0.110,0.039,0.247,-5.337
0.156,0.036,0.248,-5.337
0.159,0.031,0.246,-5.337
0.160,0.030,0.244,-5.337
0.193,0.034,0.246,-5.337
0.247,0.038,0.247,-5.337
0.186,0.040,0.247,-5.337
0.192,0.035,0.250,-5.337
0.250,0.033,0.248,-5.337
0.254,0.033,0.243,-5.337
0.203,0.036,0.242,-5.337
0.117,0.038,0.247,-5.337
0.156,0.034,0.253,-5.337
0.186,0.038,0.255,-5.337
0.119,0.037,0.252,-5.337
0.167,0.031,0.247,-5.337
0.193,0.035,0.246,-5.337
0.129,0.038,0.246,-5.337
0.121,0.037,0.249,-5.337
0.125,0.035,0.248,-5.337
0.100,0.036,0.246,-5.337
0.092,0.037,0.248,-5.337
0.104,0.036,0.248,-5.337
0.157,0.032,0.248,-5.337
0.166,0.035,0.250,-5.337
0.205,0.033,0.248,-5.337
0.206,0.031,0.245,-5.337
0.181,0.031,0.246,-5.337
0.203,0.030,0.247,-5.337
0.219,0.031,0.244,-5.337
0.235,0.032,0.248,-5.337
0.231,0.032,0.248,-5.337
0.156,0.034,0.250,-5.337
0.098,0.031,0.250,-5.337
0.148,0.029,0.249,-5.337
0.231,0.031,0.249,-5.337
0.198,0.033,0.249,-5.337
0.094,0.036,0.249,-5.337
0.139,0.037,0.247,-5.337
0.203,0.035,0.244,-5.337
0.248,0.029,0.243,-5.337
0.220,0.030,0.245,-5.337
0.188,0.031,0.247,-5.337
0.215,0.031,0.251,-5.337
0.241,0.026,0.250,-5.337
0.253,0.029,0.252,-5.337
0.198,0.033,0.252,-5.337
0.157,0.033,0.251,-5.337
0.260,0.030,0.250,-5.337
0.226,0.032,0.249,-5.337
0.129,0.030,0.248,-5.337
0.077,0.032,0.247,-5.337
0.031,0.036,0.245,-5.337
0.106,0.036,0.245,-5.337
0.154,0.033,0.248,-5.337
0.150,0.033,0.248,-5.337
0.164,0.036,0.247,-5.337
0.157,0.036,0.248,-5.337
0.151,0.033,0.244,-5.337
0.130,0.032,0.241,-5.337
0.174,0.031,0.244,-5.337
0.229,0.033,0.246,-5.337
0.178,0.033,0.246,-5.337
0.142,0.033,0.248,-5.337
0.134,0.035,0.254,-5.337
0.099,0.037,0.255,-5.337
0.090,0.032,0.255,-5.337
0.186,0.033,0.251,-5.337
0.209,0.037,0.246,-5.337
0.202,0.037,0.244,-5.337
0.243,0.035,0.246,-5.337
0.223,0.034,0.249,-5.337
0.199,0.032,0.250,-5.337
0.180,0.032,0.250,-5.337
0.219,0.032,0.247,-5.337
0.192,0.035,0.242,-5.337
0.141,0.036,0.244,-5.337
0.117,0.038,0.248,-5.337
0.158,0.039,0.248,-5.337
0.195,0.036,0.243,-5.337
0.203,0.038,0.242,-5.337
0.241,0.035,0.244,-5.337
0.319,0.034,0.245,-5.337
0.203,0.040,0.246,-5.337
0.100,0.043,0.247,-5.337
0.117,0.042,0.246,-5.337
0.138,0.047,0.247,-5.337
0.122,0.044,0.251,-5.337
0.180,0.042,0.250,-5.337
0.189,0.045,0.250,-5.337
0.138,0.046,0.248,-5.337
0.149,0.044,0.249,-5.337
0.230,0.041,0.248,-5.337
0.189,0.041,0.247,-5.337
0.109,0.043,0.243,-5.337
0.158,0.042,0.242,-5.337
0.160,0.041,0.245,-5.337
0.183,0.039,0.247,-5.337
0.187,0.038,0.244,-5.337
0.194,0.036,0.247,-5.337
0.233,0.032,0.248,-5.337
0.230,0.037,0.246,-5.337
0.186,0.038,0.245,-5.337
0.224,0.035,0.246,-5.337
0.273,0.035,0.246,-5.337
0.188,0.042,0.249,-5.337
0.143,0.042,0.248,-5.337
0.208,0.040,0.248,-5.337
0.216,0.037,0.245,-5.337
0.184,0.039,0.242,-5.337
0.200,0.040,0.244,-5.337
0.233,0.042,0.249,-5.337
0.232,0.042,0.250,-5.337
0.205,0.041,0.250,-5.337
0.176,0.042,0.252,-5.337
0.222,0.041,0.253,-5.337
0.247,0.042,0.250,-5.337
0.242,0.043,0.246,-5.337
0.226,0.043,0.248,-5.337
0.179,0.043,0.250,-5.337
0.119,0.047,0.253,-5.337
0.154,0.043,0.249,-5.337
0.205,0.045,0.243,-5.337
0.217,0.042,0.244,-5.337
0.197,0.047,0.247,-5.337
0.208,0.045,0.247,-5.337
0.208,0.046,0.250,-5.337
0.233,0.043,0.254,-5.337
0.204,0.042,0.255,-5.337
0.170,0.044,0.252,-5.337
0.192,0.047,0.249,-5.337
0.187,0.045,0.245,-5.337
0.160,0.044,0.242,-5.337
0.220,0.044,0.241,-5.337
0.253,0.047,0.243,-5.337
0.213,0.043,0.244,-5.337
0.197,0.041,0.246,-5.337
0.242,0.044,0.250,-5.337
0.245,0.048,0.250,-5.337
0.200,0.050,0.248,-5.337
0.178,0.047,0.246,-5.337
0.148,0.043,0.247,-5.337
0.152,0.043,0.246,-5.337
0.183,0.044,0.249,-5.337
0.240,0.040,0.252,-5.337
0.296,0.038,0.251,-5.337
0.327,0.037,0.246,-5.337
0.263,0.042,0.248,-5.337
0.207,0.038,0.249,-5.337
0.228,0.040,0.247,-5.337
0.247,0.040,0.242,-5.337
0.224,0.040,0.242,-5.337
0.169,0.037,0.246,-5.337
0.158,0.039,0.251,-5.337
0.132,0.042,0.249,-5.337
0.151,0.045,0.247,-5.337
0.172,0.045,0.243,-5.337
0.169,0.044,0.245,-5.337
0.213,0.043,0.246,-5.337
0.212,0.041,0.245,-5.337
0.158,0.041,0.249,-5.337
0.214,0.041,0.250,-5.337
0.242,0.041,0.245,-5.337
0.218,0.045,0.242,-5.337
0.232,0.048,0.246,-5.337
0.206,0.048,0.249,-5.337
0.164,0.046,0.251,-5.337
0.180,0.044,0.245,-5.337
0.197,0.046,0.243,-5.337
0.229,0.045,0.248,-5.337
0.187,0.046,0.248,-5.337
0.135,0.047,0.248,-5.337
0.152,0.048,0.248,-5.337
0.212,0.048,0.247,-5.337
0.218,0.050,0.244,-5.337
0.226,0.051,0.242,-5.337
0.243,0.051,0.247,-5.337
0.228,0.047,0.252,-5.337
0.162,0.050,0.250,-5.337
0.127,0.049,0.247,-5.337
0.193,0.049,0.244,-5.337
0.153,0.048,0.242,-5.337
0.154,0.045,0.245,-5.337
0.244,0.047,0.246,-5.337
0.282,0.048,0.244,-5.337
0.277,0.047,0.247,-5.337
0.249,0.047,0.248,-5.337
0.228,0.049,0.248,-5.337
0.224,0.053,0.247,-5.337
0.297,0.051,0.247,-5.337
0.315,0.047,0.245,-5.337
0.248,0.053,0.248,-5.337
0.187,0.056,0.248,-5.337
0.205,0.051,0.250,-5.337
0.273,0.049,0.250,-5.337
0.239,0.050,0.248,-5.337
0.244,0.048,0.246,-5.337
0.226,0.048,0.250,-5.337
0.187,0.048,0.249,-5.337
0.170,0.046,0.247,-5.337
0.157,0.047,0.250,-5.337
0.183,0.050,0.250,-5.337
0.208,0.051,0.247,-5.337
0.252,0.046,0.248,-5.337
0.266,0.044,0.248,-5.337
0.301,0.046,0.247,-5.337
0.347,0.049,0.249,-5.337
0.280,0.048,0.250,-5.337
0.272,0.046,0.247,-5.337
0.257,0.048,0.246,-5.337
0.229,0.048,0.246,-5.337
0.136,0.051,0.246,-5.337
0.142,0.052,0.249,-5.337
0.174,0.052,0.249,-5.337
0.227,0.050,0.248,-5.337
0.292,0.047,0.243,-5.337
0.234,0.050,0.243,-5.337
0.184,0.052,0.249,-5.337
0.220,0.046,0.254,-5.337
0.230,0.046,0.253,-5.337
0.258,0.048,0.251,-5.337
0.249,0.050,0.245,-5.337
0.172,0.053,0.242,-5.337
0.158,0.049,0.241,-5.337
0.187,0.050,0.246,-5.337
0.235,0.048,0.252,-5.337
0.206,0.047,0.254,-5.337
0.208,0.047,0.248,-5.337
0.195,0.052,0.244,-5.337
0.186,0.051,0.244,-5.337
0.185,0.053,0.249,-5.337
0.205,0.050,0.249,-5.337
0.211,0.048,0.247,-5.337
0.282,0.048,0.245,-5.337
0.246,0.049,0.242,-5.337
0.220,0.051,0.243,-5.337
0.253,0.052,0.245,-5.337
0.213,0.052,0.250,-5.337
0.253,0.052,0.251,-5.337
0.312,0.052,0.250,-5.337
0.240,0.052,0.249,-5.337
0.207,0.050,0.251,-5.337
0.249,0.052,0.249,-5.337
0.229,0.058,0.249,-5.337
0.188,0.056,0.245,-5.337
0.255,0.050,0.247,-5.337
0.300,0.048,0.246,-5.337
0.277,0.052,0.246,-5.337
0.284,0.051,0.250,-5.337
0.321,0.052,0.251,-5.337
0.251,0.053,0.248,-5.337
0.187,0.052,0.245,-5.337
0.296,0.048,0.245,-5.337
0.319,0.049,0.247,-5.337
0.268,0.053,0.248,-5.337
0.228,0.056,0.245,-5.337
0.267,0.054,0.245,-5.337
0.227,0.057,0.247,-5.337
0.188,0.054,0.248,-5.337
0.188,0.054,0.247,-5.337
0.236,0.054,0.245,-5.337
0.233,0.053,0.244,-5.337
0.189,0.055,0.247,-5.337
0.145,0.058,0.250,-5.337
0.111,0.055,0.248,-5.337
0.163,0.054,0.247,-5.337
0.247,0.059,0.248,-5.337
0.199,0.062,0.248,-5.337
0.181,0.064,0.248,-5.337
0.227,0.063,0.246,-5.337
0.253,0.065,0.246,-5.337
0.227,0.065,0.245,-5.337
0.205,0.060,0.247,-5.337
0.240,0.057,0.247,-5.337
0.211,0.060,0.245,-5.337
0.206,0.058,0.244,-5.337
0.250,0.056,0.248,-5.337
0.309,0.052,0.248,-5.337
0.342,0.053,0.248,-5.337
0.331,0.054,0.250,-5.337
0.301,0.055,0.252,-5.337
0.230,0.057,0.251,-5.337
0.205,0.057,0.250,-5.337
0.143,0.059,0.247,-5.337
0.204,0.059,0.246,-5.337
0.292,0.057,0.244,-5.337
0.256,0.058,0.246,-5.337
0.190,0.060,0.249,-5.337
0.145,0.060,0.251,-5.337
0.243,0.057,0.252,-5.337
0.306,0.056,0.249,-5.337
0.252,0.056,0.249,-5.337
0.204,0.058,0.247,-5.337
0.182,0.059,0.249,-5.337
0.215,0.055,0.247,-5.337
0.245,0.058,0.247,-5.337
0.193,0.057,0.245,-5.337
0.236,0.056,0.244,-5.337
0.245,0.054,0.245,-5.337
0.265,0.056,0.248,-5.337
0.318,0.055,0.249,-5.337
0.328,0.051,0.248,-5.337
0.236,0.053,0.247,-5.337
0.151,0.056,0.251,-5.337
0.179,0.055,0.252,-5.337
0.318,0.055,0.251,-5.337
0.301,0.058,0.248,-5.337
0.277,0.054,0.245,-5.337
0.265,0.052,0.246,-5.337
0.297,0.051,0.249,-5.337
0.278,0.054,0.251,-5.337
0.214,0.058,0.251,-5.337
0.174,0.057,0.249,-5.337
0.186,0.053,0.249,-5.337
0.214,0.052,0.249,-5.337
0.188,0.054,0.246,-5.337
0.175,0.054,0.247,-5.337
0.162,0.051,0.244,-5.337
0.143,0.053,0.242,-5.337
0.199,0.054,0.244,-5.337
0.234,0.054,0.248,-5.337
0.160,0.052,0.249,-5.337
0.165,0.055,0.250,-5.337
0.203,0.054,0.249,-5.337
0.217,0.053,0.252,-5.337
0.180,0.052,0.252,-5.337
0.206,0.051,0.251,-5.337
0.258,0.049,0.247,-5.337
0.216,0.051,0.247,-5.337
0.172,0.049,0.246,-5.337
0.275,0.049,0.245,-5.337
0.285,0.048,0.245,-5.337
0.234,0.046,0.247,-5.337
0.169,0.047,0.249,-5.337
0.167,0.052,0.248,-5.337
0.133,0.059,0.248,-5.337
0.130,0.059,0.247,-5.337
0.207,0.054,0.250,-5.337
0.218,0.053,0.253,-5.337
0.194,0.050,0.254,-5.337
0.205,0.050,0.247,-5.337
0.150,0.050,0.242,-5.337
0.129,0.049,0.242,-5.337
0.179,0.046,0.248,-5.337
0.232,0.046,0.249,-5.337
0.219,0.049,0.245,-5.337
0.103,0.048,0.243,-5.337
0.078,0.048,0.245,-5.337
0.126,0.045,0.247,-5.337
0.232,0.043,0.248,-5.337
0.262,0.040,0.250,-5.337
0.224,0.041,0.254,-5.337
0.226,0.046,0.250,-5.337
0.257,0.048,0.245,-5.337
0.205,0.048,0.246,-5.337
0.166,0.049,0.251,-5.337
0.188,0.048,0.249,-5.337
0.266,0.047,0.245,-5.337
0.238,0.046,0.244,-5.337
0.255,0.045,0.247,-5.337
0.322,0.042,0.246,-5.337
0.333,0.042,0.242,-5.337
0.306,0.049,0.246,-5.337
0.208,0.049,0.247,-5.337
0.172,0.047,0.247,-5.337
0.236,0.045,0.250,-5.337
0.256,0.048,0.251,-5.337
0.166,0.048,0.250,-5.337
0.151,0.050,0.250,-5.337
0.204,0.048,0.247,-5.337
0.137,0.050,0.243,-5.337
0.098,0.048,0.241,-5.337
0.175,0.047,0.246,-5.337
0.220,0.048,0.253,-5.337
0.178,0.049,0.256,-5.337
0.194,0.048,0.253,-5.337
0.202,0.047,0.248,-5.337
0.177,0.042,0.247,-5.337
0.209,0.042,0.249,-5.337
0.226,0.042,0.249,-5.337
0.266,0.045,0.246,-5.337
0.243,0.043,0.246,-5.337
0.209,0.044,0.244,-5.337
0.198,0.044,0.243,-5.337
0.244,0.044,0.249,-5.337
0.236,0.044,0.253,-5.337
0.201,0.043,0.252,-5.337
0.175,0.046,0.247,-5.337
0.150,0.048,0.243,-5.337
0.157,0.042,0.242,-5.337
0.217,0.037,0.244,-5.337
0.268,0.035,0.245,-5.337
0.276,0.035,0.245,-5.337
0.202,0.042,0.249,-5.337
0.129,0.046,0.249,-5.337
0.145,0.043,0.250,-5.337
0.213,0.039,0.247,-5.337
0.294,0.041,0.248,-5.337
0.311,0.039,0.249,-5.337
0.249,0.042,0.247,-5.337
0.166,0.046,0.244,-5.337
0.160,0.043,0.246,-5.337
0.135,0.041,0.245,-5.337
0.129,0.045,0.242,-5.337
0.185,0.045,0.240,-5.337
0.153,0.049,0.243,-5.337
0.089,0.050,0.245,-5.337
0.166,0.045,0.246,-5.337
0.223,0.043,0.248,-5.337
0.191,0.045,0.249,-5.337
0.152,0.047,0.249,-5.337
0.126,0.048,0.248,-5.337
0.160,0.046,0.245,-5.337
0.160,0.041,0.243,-5.337
0.116,0.042,0.248,-5.337
0.097,0.042,0.247,-5.337
0.112,0.044,0.247,-5.337
0.132,0.042,0.242,-5.337
0.165,0.044,0.241,-5.337
0.165,0.043,0.239,-5.337
0.189,0.038,0.243,-5.337
0.203,0.037,0.244,-5.337
0.189,0.039,0.247,-5.337
0.194,0.041,0.249,-5.337
0.210,0.040,0.249,-5.337
0.175,0.039,0.250,-5.337
0.117,0.044,0.253,-5.337
0.147,0.047,0.249,-5.337
0.193,0.049,0.245,-5.337
0.194,0.048,0.240,-5.337
0.190,0.044,0.238,-5.337
0.228,0.043,0.242,-5.337
0.231,0.044,0.245,-5.337
0.142,0.044,0.246,-5.337
0.098,0.043,0.251,-5.337
0.225,0.038,0.250,-5.337
0.255,0.042,0.248,-5.337
0.176,0.041,0.247,-5.337
0.106,0.039,0.246,-5.337
0.090,0.040,0.247,-5.337
0.157,0.042,0.245,-5.337
0.189,0.042,0.245,-5.337
0.201,0.038,0.246,-5.337
0.201,0.040,0.249,-5.337
0.102,0.042,0.246,-5.337
0.071,0.044,0.244,-5.337
0.106,0.045,0.246,-5.337
0.105,0.047,0.248,-5.337
0.158,0.045,0.248,-5.337
0.170,0.044,0.247,-5.337
0.191,0.041,0.245,-5.337
0.205,0.038,0.245,-5.337
0.184,0.038,0.246,-5.337
0.153,0.042,0.246,-5.337
0.144,0.041,0.245,-5.337
0.171,0.042,0.249,-5.337
0.128,0.044,0.251,-5.337
0.217,0.039,0.248,-5.337
0.222,0.039,0.244,-5.337
0.192,0.039,0.243,-5.337
0.156,0.040,0.244,-5.337
0.157,0.040,0.247,-5.337
0.090,0.037,0.249,-5.337
0.106,0.038,0.253,-5.337
0.164,0.039,0.252,-5.337
0.172,0.040,0.249,-5.337
0.171,0.038,0.247,-5.337
0.126,0.038,0.246,-5.337
0.153,0.036,0.248,-5.337
0.198,0.037,0.249,-5.337
0.180,0.037,0.248,-5.337
0.173,0.036,0.245,-5.337
0.159,0.036,0.248,-5.337
0.171,0.034,0.248,-5.337
0.142,0.040,0.247,-5.337
0.092,0.042,0.248,-5.337
0.146,0.039,0.247,-5.337
0.177,0.039,0.245,-5.337
0.120,0.042,0.246,-5.337
0.086,0.042,0.245,-5.337
0.176,0.041,0.246,-5.337
0.227,0.037,0.245,-5.337
0.227,0.038,0.246,-5.337
0.235,0.041,0.247,-5.337
0.208,0.041,0.251,-5.337
0.144,0.040,0.254,-5.337
0.105,0.037,0.252,-5.337
0.099,0.037,0.250,-5.337
0.125,0.038,0.245,-5.337
0.197,0.037,0.245,-5.337
0.195,0.036,0.250,-5.337
0.154,0.038,0.251,-5.337
0.138,0.039,0.247,-5.337
0.175,0.039,0.247,-5.337
0.174,0.039,0.245,-5.337
0.179,0.036,0.244,-5.337
0.177,0.035,0.245,-5.337
0.180,0.037,0.250,-5.337
0.156,0.038,0.249,-5.337
0.126,0.039,0.248,-5.337
0.104,0.037,0.244,-5.337
0.138,0.036,0.241,-5.337
0.142,0.039,0.238,-5.337
0.080,0.039,0.243,-5.337
0.099,0.036,0.249,-5.337
0.085,0.037,0.251,-5.337
0.115,0.039,0.250,-5.337
0.139,0.040,0.248,-5.337
0.133,0.038,0.247,-5.337
0.140,0.036,0.245,-5.337
0.202,0.034,0.242,-5.337
0.189,0.034,0.242,-5.337
0.199,0.034,0.241,-5.337
0.148,0.034,0.242,-5.337
0.169,0.032,0.247,-5.337
0.147,0.033,0.249,-5.337
0.174,0.030,0.251,-5.337
0.200,0.031,0.248,-5.337
0.195,0.030,0.244,-5.337
0.136,0.032,0.245,-5.337
0.130,0.033,0.248,-5.337
0.132,0.035,0.246,-5.337
0.101,0.035,0.245,-5.337
0.150,0.031,0.246,-5.337
0.189,0.031,0.244,-5.337
0.133,0.036,0.243,-5.337
0.143,0.039,0.246,-5.337
0.148,0.036,0.247,-5.337
0.119,0.034,0.248,-5.337
0.166,0.031,0.248,-5.337
0.280,0.028,0.245,-5.337
0.258,0.032,0.246,-5.337
0.164,0.035,0.252,-5.337
0.125,0.034,0.252,-5.337
0.158,0.032,0.248,-5.337
0.211,0.031,0.242,-5.337
0.231,0.034,0.241,-5.337
0.238,0.033,0.245,-5.337
0.212,0.033,0.246,-5.337
0.147,0.031,0.246,-5.337
0.147,0.032,0.245,-5.337
0.179,0.032,0.247,-5.337
0.149,0.033,0.249,-5.337
0.097,0.036,0.248,-5.337
0.060,0.034,0.246,-5.337
0.110,0.036,0.247,-5.337
0.091,0.041,0.247,-5.337
0.117,0.041,0.250,-5.337
0.140,0.038,0.251,-5.337
0.138,0.039,0.247,-5.337
0.139,0.040,0.243,-5.337
0.182,0.040,0.244,-5.337
0.099,0.042,0.246,-5.337
0.103,0.041,0.247,-5.337
0.163,0.037,0.246,-5.337
0.156,0.039,0.242,-5.337
0.146,0.037,0.243,-5.337
0.193,0.035,0.242,-5.337
0.160,0.038,0.243,-5.337
0.109,0.040,0.247,-5.337
0.135,0.037,0.251,-5.337
0.163,0.033,0.249,-5.337
0.120,0.035,0.245,-5.337
0.158,0.036,0.243,-5.337
0.232,0.037,0.249,-5.337
0.241,0.035,0.249,-5.337
0.229,0.035,0.249,-5.337
0.204,0.036,0.251,-5.337
0.196,0.036,0.251,-5.337
0.134,0.036,0.250,-5.337
0.142,0.036,0.248,-5.337
0.160,0.036,0.246,-5.337
0.175,0.039,0.245,-5.337
0.171,0.038,0.247,-5.337
0.150,0.039,0.247,-5.337
0.167,0.039,0.247,-5.337
0.205,0.041,0.248,-5.337
0.225,0.041,0.249,-5.337
0.205,0.044,0.249,-5.337
0.191,0.042,0.247,-5.337
0.166,0.041,0.248,-5.337
0.230,0.038,0.247,-5.337
0.271,0.042,0.243,-5.337
0.225,0.046,0.243,-5.337
0.203,0.044,0.245,-5.337
0.155,0.044,0.246,-5.337
0.052,0.045,0.247,-5.337
0.098,0.044,0.251,-5.337
0.158,0.044,0.253,-5.337
0.102,0.044,0.252,-5.337
0.176,0.040,0.247,-5.337
0.286,0.040,0.245,-5.337
0.272,0.036,0.242,-5.337
0.226,0.038,0.245,-5.337
0.176,0.039,0.250,-5.337
0.150,0.043,0.251,-5.337
0.188,0.042,0.249,-5.337
0.214,0.039,0.246,-5.337
0.176,0.042,0.243,-5.337
0.146,0.045,0.245,-5.337
0.132,0.043,0.248,-5.337
0.178,0.042,0.249,-5.337
0.184,0.042,0.250,-5.337
0.142,0.046,0.251,-5.337
0.101,0.047,0.249,-5.337
0.143,0.047,0.249,-5.337
0.185,0.046,0.249,-5.337
0.213,0.045,0.247,-5.337
0.182,0.046,0.246,-5.337
0.114,0.048,0.245,-5.337
0.100,0.047,0.242,-5.337
0.160,0.046,0.242,-5.337
0.129,0.044,0.249,-5.337
0.115,0.046,0.250,-5.337
0.141,0.045,0.248,-5.337
0.181,0.044,0.249,-5.337
0.187,0.045,0.253,-5.337
0.194,0.042,0.251,-5.337
0.251,0.043,0.249,-5.337
0.271,0.043,0.246,-5.337
0.263,0.048,0.246,-5.337
0.213,0.044,0.243,-5.337
0.233,0.039,0.244,-5.337
0.267,0.041,0.249,-5.337
0.191,0.043,0.250,-5.337
0.230,0.039,0.248,-5.337
0.261,0.043,0.246,-5.337
0.236,0.045,0.250,-5.337
0.148,0.049,0.252,-5.337
0.167,0.050,0.250,-5.337
0.255,0.045,0.246,-5.337
0.292,0.043,0.247,-5.337
0.306,0.044,0.248,-5.337
0.283,0.047,0.249,-5.337
0.192,0.050,0.250,-5.337
0.179,0.046,0.248,-5.337
0.175,0.046,0.246,-5.337
0.170,0.045,0.249,-5.337
0.198,0.046,0.251,-5.337
0.182,0.045,0.249,-5.337
0.140,0.046,0.247,-5.337
0.113,0.050,0.252,-5.337
0.195,0.049,0.255,-5.337
0.215,0.049,0.250,-5.337
0.196,0.049,0.244,-5.337
0.207,0.050,0.245,-5.337
0.211,0.047,0.245,-5.337
0.169,0.049,0.241,-5.337
0.201,0.045,0.237,-5.337
0.197,0.046,0.239,-5.337
0.172,0.043,0.245,-5.337
0.140,0.044,0.250,-5.337
0.134,0.045,0.250,-5.337
0.217,0.046,0.249,-5.337
0.243,0.045,0.246,-5.337
0.225,0.043,0.245,-5.337
0.193,0.043,0.246,-5.337
0.192,0.043,0.247,-5.337
0.253,0.042,0.244,-5.337
0.237,0.048,0.244,-5.337
0.192,0.052,0.244,-5.337
0.199,0.052,0.247,-5.337
0.194,0.051,0.251,-5.337
0.209,0.049,0.251,-5.337
0.160,0.047,0.254,-5.337
0.147,0.047,0.250,-5.337
0.231,0.046,0.245,-5.337
0.281,0.049,0.240,-5.337
0.317,0.049,0.242,-5.337
0.232,0.050,0.244,-5.337
0.175,0.052,0.246,-5.337
0.200,0.050,0.245,-5.337
0.271,0.048,0.245,-5.337
0.257,0.047,0.248,-5.337
0.200,0.053,0.249,-5.337
0.181,0.051,0.245,-5.337
0.181,0.049,0.242,-5.337
0.151,0.048,0.241,-5.337
0.187,0.048,0.243,-5.337
0.165,0.050,0.248,-5.337
0.157,0.051,0.249,-5.337
0.294,0.050,0.253,-5.337
0.333,0.053,0.256,-5.337
0.220,0.054,0.251,-5.337
0.208,0.053,0.245,-5.337
0.261,0.055,0.242,-5.337
0.262,0.055,0.242,-5.337
0.206,0.053,0.243,-5.337
0.255,0.054,0.242,-5.337
0.266,0.052,0.240,-5.337
0.212,0.052,0.242,-5.337
0.202,0.053,0.244,-5.337
0.225,0.051,0.240,-5.337
0.269,0.053,0.243,-5.337
0.222,0.054,0.245,-5.337
0.205,0.052,0.246,-5.337
0.220,0.049,0.243,-5.337
0.241,0.051,0.243,-5.337
0.261,0.052,0.244,-5.337
0.215,0.057,0.247,-5.337
0.217,0.055,0.247,-5.337
0.248,0.055,0.249,-5.337
0.178,0.053,0.246,-5.337
0.144,0.052,0.246,-5.337
0.191,0.054,0.246,-5.337
0.193,0.053,0.244,-5.337
0.206,0.052,0.244,-5.337
0.210,0.054,0.243,-5.337
0.251,0.055,0.245,-5.337
0.308,0.053,0.248,-5.337
0.324,0.049,0.251,-5.337
0.275,0.050,0.252,-5.337
0.253,0.052,0.253,-5.337
0.228,0.055,0.250,-5.337
0.197,0.054,0.249,-5.337
0.174,0.055,0.248,-5.337
0.187,0.056,0.246,-5.337
0.277,0.053,0.238,-5.337
0.324,0.054,0.235,-5.337
0.293,0.054,0.238,-5.337
0.262,0.057,0.242,-5.337
0.200,0.061,0.243,-5.337
0.161,0.059,0.245,-5.337
0.129,0.056,0.246,-5.337
0.156,0.059,0.249,-5.337
0.236,0.057,0.253,-5.337
0.300,0.054,0.253,-5.337
0.296,0.055,0.249,-5.337
0.300,0.053,0.247,-5.337
0.302,0.052,0.247,-5.337
0.307,0.051,0.247,-5.337
0.301,0.052,0.245,-5.337
0.285,0.055,0.246,-5.337
0.232,0.055,0.251,-5.337
0.167,0.053,0.250,-5.337
0.155,0.053,0.246,-5.337
0.141,0.056,0.245,-5.337
0.197,0.056,0.247,-5.337
0.247,0.057,0.247,-5.337
0.175,0.061,0.249,-5.337
0.197,0.058,0.250,-5.337
0.212,0.057,0.249,-5.337
0.242,0.056,0.246,-5.337
0.255,0.054,0.251,-5.337
0.254,0.052,0.250,-5.337
0.307,0.052,0.248,-5.337
0.339,0.054,0.247,-5.337
0.313,0.056,0.249,-5.337
0.313,0.055,0.251,-5.337
0.313,0.056,0.252,-5.337
0.209,0.056,0.245,-5.337
0.163,0.056,0.238,-5.337
0.251,0.053,0.241,-5.337
0.315,0.052,0.246,-5.337
0.316,0.055,0.248,-5.337
0.278,0.056,0.250,-5.337
0.272,0.055,0.252,-5.337
0.284,0.053,0.250,-5.337
0.232,0.052,0.249,-5.337
0.172,0.057,0.249,-5.337
0.202,0.054,0.248,-5.337
0.223,0.054,0.247,-5.337
0.211,0.055,0.246,-5.337
0.237,0.054,0.245,-5.337
0.257,0.055,0.249,-5.337
0.282,0.053,0.247,-5.337
0.337,0.053,0.247,-5.337
0.329,0.054,0.245,-5.337
0.252,0.056,0.246,-5.337
0.207,0.061,0.245,-5.337
0.192,0.061,0.246,-5.337
0.220,0.057,0.247,-5.337
0.226,0.057,0.247,-5.337
0.214,0.057,0.245,-5.337
0.214,0.054,0.245,-5.337
0.237,0.051,0.246,-5.337
0.301,0.052,0.246,-5.337
0.310,0.053,0.243,-5.337
0.251,0.052,0.245,-5.337
0.221,0.052,0.244,-5.337
0.174,0.053,0.242,-5.337
0.118,0.054,0.242,-5.337
0.120,0.055,0.246,-5.337
0.177,0.052,0.252,-5.337
0.217,0.054,0.251,-5.337
0.280,0.054,0.247,-5.337
0.303,0.054,0.244,-5.337
0.228,0.056,0.244,-5.337
0.239,0.054,0.246,-5.337
0.308,0.054,0.246,-5.337
0.263,0.056,0.244,-5.337
0.332,0.054,0.245,-5.337
0.341,0.052,0.246,-5.337
0.275,0.053,0.249,-5.337
0.199,0.057,0.251,-5.337
0.224,0.055,0.248,-5.337
0.232,0.051,0.245,-5.337
0.173,0.053,0.246,-5.337
0.118,0.052,0.248,-5.337
0.223,0.052,0.248,-5.337
0.272,0.052,0.244,-5.337
0.278,0.052,0.241,-5.337
0.330,0.050,0.239,-5.337
0.336,0.055,0.244,-5.337
0.292,0.057,0.249,-5.337
0.242,0.054,0.252,-5.337
0.191,0.055,0.248,-5.337
0.173,0.052,0.244,-5.337
0.135,0.052,0.240,-5.337
0.137,0.055,0.242,-5.337
0.156,0.057,0.243,-5.337
0.206,0.054,0.246,-5.337
0.239,0.053,0.248,-5.337
0.192,0.058,0.244,-5.337
0.167,0.057,0.242,-5.337
0.253,0.055,0.241,-5.337
0.321,0.053,0.239,-5.337
0.247,0.055,0.240,-5.337
0.177,0.058,0.244,-5.337
0.223,0.057,0.246,-5.337
0.226,0.056,0.248,-5.337
0.193,0.056,0.247,-5.337
0.195,0.053,0.249,-5.337
0.252,0.051,0.251,-5.337
0.296,0.050,0.250,-5.337
0.336,0.053,0.246,-5.337
0.328,0.053,0.249,-5.337
0.255,0.054,0.248,-5.337
0.220,0.053,0.247,-5.337
0.257,0.054,0.243,-5.337
0.255,0.054,0.241,-5.337
0.310,0.054,0.240,-5.337
0.319,0.053,0.244,-5.337
0.292,0.051,0.249,-5.337
0.283,0.050,0.252,-5.337
0.255,0.053,0.248,-5.337
0.250,0.054,0.243,-5.337
0.236,0.054,0.243,-5.337
0.264,0.052,0.243,-5.337
0.265,0.051,0.249,-5.337
0.211,0.053,0.250,-5.337
0.245,0.049,0.250,-5.337
0.206,0.053,0.248,-5.337
0.137,0.053,0.251,-5.337
0.197,0.047,0.249,-5.337
0.246,0.051,0.247,-5.337
0.195,0.053,0.245,-5.337
0.256,0.056,0.245,-5.337
0.257,0.053,0.245,-5.337
0.211,0.052,0.246,-5.337
0.220,0.052,0.249,-5.337
0.224,0.050,0.249,-5.337
0.260,0.047,0.247,-5.337
0.285,0.048,0.246,-5.337
0.265,0.053,0.241,-5.337
0.219,0.056,0.239,-5.337
0.297,0.053,0.246,-5.337
0.377,0.051,0.251,-5.337
0.315,0.049,0.250,-5.337
0.197,0.051,0.245,-5.337
0.159,0.051,0.243,-5.337
0.135,0.055,0.243,-5.337
0.147,0.054,0.246,-5.337
0.171,0.053,0.249,-5.337
0.193,0.048,0.252,-5.337
0.204,0.045,0.249,-5.337
0.238,0.048,0.248,-5.337
0.227,0.049,0.248,-5.337
0.191,0.051,0.250,-5.337
0.179,0.050,0.250,-5.337
0.195,0.052,0.249,-5.337
0.164,0.051,0.245,-5.337
0.146,0.050,0.244,-5.337
0.185,0.043,0.247,-5.337
0.175,0.043,0.246,-5.337
0.103,0.046,0.244,-5.337
0.140,0.047,0.244,-5.337
0.202,0.044,0.247,-5.337
0.154,0.044,0.250,-5.337
0.102,0.044,0.251,-5.337
0.218,0.043,0.249,-5.337
0.338,0.043,0.246,-5.337
0.320,0.042,0.242,-5.337
0.224,0.041,0.245,-5.337
0.168,0.040,0.250,-5.337
0.169,0.038,0.249,-5.337
0.213,0.038,0.248,-5.337
0.255,0.041,0.249,-5.337
0.247,0.041,0.246,-5.337
0.197,0.043,0.244,-5.337
0.221,0.041,0.242,-5.337
0.265,0.039,0.244,-5.337
0.200,0.040,0.244,-5.337
0.148,0.044,0.244,-5.337
0.158,0.045,0.242,-5.337
0.204,0.042,0.248,-5.337
0.221,0.042,0.250,-5.337
0.165,0.042,0.250,-5.337
0.122,0.038,0.248,-5.337
0.158,0.037,0.244,-5.337
0.233,0.037,0.244,-5.337
0.196,0.039,0.247,-5.337
0.142,0.038,0.249,-5.337
0.187,0.037,0.248,-5.337
0.251,0.035,0.248,-5.337
0.263,0.035,0.249,-5.337
0.211,0.037,0.250,-5.337
0.200,0.036,0.251,-5.337
0.207,0.038,0.250,-5.337
0.141,0.042,0.244,-5.337
0.158,0.040,0.243,-5.337
0.211,0.039,0.246,-5.337
0.193,0.039,0.250,-5.337
0.137,0.037,0.251,-5.337
0.142,0.040,0.249,-5.337
0.161,0.040,0.249,-5.337
0.157,0.042,0.249,-5.337
0.111,0.041,0.247,-5.337
0.118,0.039,0.244,-5.337
0.144,0.036,0.243,-5.337
0.137,0.035,0.243,-5.337
0.155,0.039,0.240,-5.337
0.142,0.040,0.242,-5.337
0.119,0.037,0.245,-5.337
0.196,0.035,0.248,-5.337
0.193,0.040,0.247,-5.337
0.139,0.041,0.244,-5.337
0.136,0.036,0.243,-5.337
0.167,0.036,0.244,-5.337
0.132,0.038,0.244,-5.337
0.092,0.040,0.246,-5.337
0.130,0.041,0.248,-5.337
0.143,0.040,0.247,-5.337
0.060,0.040,0.247,-5.337
0.053,0.041,0.247,-5.337
0.097,0.037,0.248,-5.337
0.218,0.037,0.244,-5.337
0.240,0.041,0.241,-5.337
0.235,0.038,0.241,-5.337
0.208,0.036,0.248,-5.337
0.197,0.035,0.251,-5.337
0.251,0.033,0.249,-5.337
0.218,0.031,0.246,-5.337
0.142,0.033,0.244,-5.337
0.158,0.033,0.242,-5.337
0.169,0.032,0.244,-5.337
0.197,0.032,0.246,-5.337
0.164,0.035,0.248,-5.337
0.199,0.034,0.246,-5.337
0.209,0.033,0.243,-5.337
0.178,0.034,0.242,-5.337
0.203,0.032,0.246,-5.337
0.216,0.030,0.246,-5.337
0.246,0.031,0.246,-5.337
0.245,0.031,0.247,-5.337
0.194,0.032,0.247,-5.337
0.118,0.033,0.244,-5.337
0.123,0.034,0.244,-5.337
0.148,0.034,0.245,-5.337
0.154,0.030,0.246,-5.337
0.220,0.030,0.245,-5.337
0.198,0.030,0.243,-5.337
0.128,0.029,0.245,-5.337
0.104,0.031,0.242,-5.337
0.123,0.032,0.241,-5.337
0.213,0.029,0.242,-5.337
0.175,0.033,0.245,-5.337
0.102,0.035,0.247,-5.337
0.135,0.034,0.248,-5.337
0.162,0.035,0.247,-5.337
0.189,0.033,0.248,-5.337
0.255,0.033,0.247,-5.337
0.227,0.037,0.247,-5.337
0.169,0.034,0.247,-5.337
0.164,0.032,0.244,-5.337
0.144,0.035,0.242,-5.337
0.124,0.038,0.244,-5.337
0.155,0.034,0.248,-5.337
0.152,0.032,0.251,-5.337
0.150,0.037,0.251,-5.337
0.146,0.036,0.250,-5.337
0.122,0.037,0.247,-5.337
0.114,0.037,0.247,-5.337
0.182,0.033,0.248,-5.337
0.199,0.032,0.249,-5.337
0.208,0.034,0.249,-5.337
0.162,0.032,0.247,-5.337
0.111,0.031,0.244,-5.337
0.123,0.029,0.238,-5.337
0.179,0.029,0.239,-5.337
0.168,0.032,0.242,-5.337
0.147,0.030,0.245,-5.337
0.152,0.031,0.247,-5.337
0.171,0.029,0.249,-5.337
0.218,0.029,0.250,-5.337
0.256,0.032,0.253,-5.337
0.233,0.030,0.249,-5.337
0.145,0.034,0.246,-5.337
0.115,0.034,0.247,-5.337
0.152,0.035,0.248,-5.337
0.155,0.037,0.247,-5.337
0.131,0.037,0.248,-5.337
0.131,0.033,0.249,-5.337
0.160,0.032,0.252,-5.337
0.166,0.033,0.251,-5.337
0.141,0.035,0.248,-5.337
0.119,0.031,0.245,-5.337
0.124,0.028,0.240,-5.337
0.132,0.031,0.240,-5.337
0.119,0.032,0.245,-5.337
0.125,0.031,0.249,-5.337
0.154,0.031,0.249,-5.337
0.141,0.028,0.246,-5.337
0.169,0.027,0.244,-5.337
0.251,0.030,0.247,-5.337
0.232,0.031,0.253,-5.337
0.209,0.029,0.256,-5.337
0.226,0.028,0.255,-5.337
0.189,0.031,0.253,-5.337
0.106,0.036,0.247,-5.337
0.114,0.037,0.245,-5.337
0.171,0.035,0.245,-5.337
0.234,0.036,0.244,-5.337
0.219,0.034,0.245,-5.337
0.202,0.034,0.249,-5.337
0.130,0.035,0.251,-5.337
0.159,0.032,0.250,-5.337
0.123,0.035,0.247,-5.337
0.086,0.038,0.242,-5.337
0.152,0.033,0.244,-5.337
0.248,0.028,0.249,-5.337
0.229,0.029,0.250,-5.337
0.197,0.030,0.250,-5.337
0.159,0.032,0.249,-5.337
0.196,0.032,0.246,-5.337
0.201,0.031,0.245,-5.337
0.198,0.031,0.244,-5.337
0.142,0.035,0.244,-5.337
0.080,0.034,0.243,-5.337
0.118,0.037,0.245,-5.337
0.138,0.038,0.243,-5.337
0.087,0.038,0.244,-5.337
0.091,0.036,0.244,-5.337
0.099,0.037,0.248,-5.337
0.093,0.039,0.249,-5.337
0.143,0.041,0.247,-5.337
0.163,0.040,0.244,-5.337
0.149,0.041,0.245,-5.337
0.122,0.041,0.247,-5.337
0.072,0.041,0.247,-5.337
0.116,0.039,0.246,-5.337
0.166,0.039,0.247,-5.337
0.154,0.037,0.244,-5.337
0.157,0.036,0.245,-5.337
0.113,0.038,0.245,-5.337
0.155,0.037,0.249,-5.337
0.190,0.039,0.248,-5.337
0.102,0.044,0.245,-5.337
0.135,0.044,0.244,-5.337
0.176,0.045,0.248,-5.337
0.136,0.045,0.251,-5.337
0.159,0.042,0.246,-5.337
0.230,0.041,0.239,-5.337
0.209,0.041,0.237,-5.337
0.171,0.037,0.241,-5.337
0.197,0.030,0.244,-5.337
0.220,0.036,0.248,-5.337
0.210,0.041,0.249,-5.337
0.167,0.042,0.252,-5.337
0.162,0.039,0.250,-5.337
0.160,0.037,0.246,-5.337
0.033,0.040,0.244,-5.337
0.029,0.040,0.248,-5.337
0.116,0.036,0.248,-5.337
0.210,0.031,0.248,-5.337
0.256,0.028,0.245,-5.337
0.228,0.030,0.243,-5.337
0.255,0.036,0.241,-5.337
0.240,0.037,0.243,-5.337
0.181,0.034,0.246,-5.337
0.107,0.039,0.248,-5.337
0.133,0.040,0.245,-5.337
0.227,0.041,0.245,-5.337
0.246,0.040,0.247,-5.337
0.192,0.039,0.245,-5.337
0.169,0.038,0.246,-5.337
0.152,0.037,0.248,-5.337
0.147,0.040,0.248,-5.337
0.130,0.043,0.245,-5.337
0.091,0.043,0.247,-5.337
0.063,0.043,0.247,-5.337
0.090,0.042,0.247,-5.337
0.094,0.039,0.245,-5.337
0.080,0.041,0.246,-5.337
0.120,0.040,0.245,-5.337
0.153,0.042,0.246,-5.337
0.220,0.041,0.243,-5.337
0.295,0.040,0.244,-5.337
0.279,0.040,0.242,-5.337
0.190,0.043,0.240,-5.337
0.170,0.043,0.242,-5.337
0.172,0.046,0.244,-5.337
0.166,0.045,0.245,-5.337
0.164,0.044,0.247,-5.337
0.189,0.041,0.249,-5.337
0.193,0.042,0.250,-5.337
0.246,0.041,0.249,-5.337
0.222,0.044,0.245,-5.337
0.151,0.047,0.245,-5.337
0.136,0.046,0.248,-5.337
0.126,0.047,0.251,-5.337
0.109,0.044,0.248,-5.337
0.159,0.042,0.250,-5.337
0.185,0.041,0.254,-5.337
0.224,0.040,0.252,-5.337
0.198,0.041,0.245,-5.337
0.208,0.042,0.243,-5.337
0.217,0.042,0.244,-5.337
0.195,0.043,0.247,-5.337
0.145,0.045,0.245,-5.337
0.144,0.044,0.244,-5.337
0.188,0.042,0.245,-5.337
0.223,0.042,0.248,-5.337
0.244,0.042,0.247,-5.337
0.221,0.043,0.247,-5.337
0.148,0.042,0.250,-5.337
0.114,0.044,0.251,-5.337
0.148,0.041,0.252,-5.337
0.212,0.039,0.255,-5.337
0.243,0.035,0.254,-5.337
0.180,0.037,0.252,-5.337
0.168,0.036,0.249,-5.337
0.252,0.035,0.251,-5.337
0.233,0.039,0.253,-5.337
0.191,0.039,0.246,-5.337
0.129,0.040,0.241,-5.337
0.167,0.042,0.243,-5.337
0.259,0.042,0.247,-5.337
0.222,0.042,0.250,-5.337
0.155,0.045,0.252,-5.337
0.188,0.049,0.252,-5.337
0.251,0.048,0.251,-5.337
0.206,0.045,0.248,-5.337
0.145,0.046,0.245,-5.337
0.184,0.045,0.245,-5.337
0.201,0.047,0.251,-5.337
0.149,0.046,0.250,-5.337
0.191,0.044,0.249,-5.337
0.297,0.040,0.250,-5.337
0.245,0.043,0.249,-5.337
0.158,0.043,0.245,-5.337
0.187,0.045,0.245,-5.337
0.235,0.042,0.249,-5.337
0.235,0.042,0.252,-5.337
0.213,0.046,0.255,-5.337
0.234,0.049,0.252,-5.337
0.270,0.049,0.250,-5.337
0.277,0.047,0.250,-5.337
0.287,0.049,0.249,-5.337
0.216,0.050,0.247,-5.337
0.165,0.048,0.245,-5.337
0.179,0.044,0.246,-5.337
0.148,0.044,0.246,-5.337
0.106,0.048,0.244,-5.337
0.190,0.047,0.247,-5.337
0.242,0.047,0.248,-5.337
0.198,0.049,0.248,-5.337
0.150,0.047,0.249,-5.337
0.190,0.047,0.248,-5.337
0.244,0.049,0.246,-5.337
0.254,0.052,0.249,-5.337
0.212,0.054,0.249,-5.337
0.155,0.057,0.246,-5.337
0.193,0.058,0.244,-5.337
0.243,0.055,0.246,-5.337
0.326,0.053,0.248,-5.337
0.258,0.054,0.249,-5.337
0.225,0.050,0.248,-5.337
0.278,0.049,0.249,-5.337
0.281,0.047,0.249,-5.337
0.248,0.047,0.244,-5.337
0.171,0.052,0.243,-5.337
0.157,0.054,0.245,-5.337
0.265,0.049,0.249,-5.337
0.301,0.048,0.249,-5.337
0.216,0.050,0.247,-5.337
0.230,0.046,0.244,-5.337
0.295,0.044,0.244,-5.337
0.270,0.046,0.244,-5.337
0.205,0.046,0.245,-5.337
0.218,0.047,0.247,-5.337
0.172,0.051,0.251,-5.337
0.147,0.056,0.250,-5.337
0.129,0.054,0.248,-5.337
0.229,0.051,0.246,-5.337
0.271,0.052,0.247,-5.337
0.142,0.056,0.246,-5.337
0.086,0.058,0.246,-5.337
0.131,0.057,0.247,-5.337
0.137,0.056,0.247,-5.337
0.163,0.050,0.245,-5.337
0.265,0.051,0.247,-5.337
0.318,0.049,0.248,-5.337
0.296,0.052,0.249,-5.337
0.238,0.052,0.247,-5.337
0.260,0.048,0.246,-5.337
0.302,0.048,0.244,-5.337
0.291,0.051,0.243,-5.337
0.218,0.056,0.247,-5.337
0.223,0.054,0.251,-5.337
0.269,0.054,0.250,-5.337
0.260,0.056,0.251,-5.337
0.253,0.053,0.253,-5.337
0.217,0.054,0.251,-5.337
0.151,0.057,0.247,-5.337
0.189,0.058,0.242,-5.337
0.262,0.056,0.241,-5.337
0.280,0.056,0.242,-5.337
0.198,0.057,0.246,-5.337
0.162,0.055,0.245,-5.337
0.190,0.059,0.244,-5.337
0.242,0.056,0.246,-5.337
0.286,0.054,0.247,-5.337
0.212,0.055,0.245,-5.337
0.176,0.055,0.247,-5.337
0.216,0.058,0.250,-5.337
0.202,0.059,0.248,-5.337
0.204,0.058,0.244,-5.337
0.251,0.057,0.242,-5.337
0.263,0.057,0.244,-5.337
0.163,0.058,0.245,-5.337
0.159,0.055,0.243,-5.337
0.213,0.053,0.244,-5.337
0.255,0.055,0.250,-5.337
0.231,0.056,0.249,-5.337
0.214,0.051,0.244,-5.337
0.213,0.054,0.243,-5.337
0.228,0.059,0.250,-5.337
0.238,0.058,0.255,-5.337
0.285,0.056,0.253,-5.337
0.308,0.054,0.245,-5.337
0.201,0.055,0.242,-5.337
0.186,0.056,0.243,-5.337
0.243,0.055,0.247,-5.337
0.245,0.054,0.247,-5.337
0.210,0.054,0.248,-5.337
0.211,0.058,0.247,-5.337
0.195,0.061,0.247,-5.337
0.192,0.058,0.250,-5.337
0.155,0.059,0.251,-5.337
0.167,0.059,0.249,-5.337
0.174,0.059,0.245,-5.337
0.227,0.056,0.244,-5.337
0.308,0.054,0.247,-5.337
0.289,0.058,0.249,-5.337
0.296,0.055,0.251,-5.337
0.296,0.057,0.250,-5.337
0.221,0.061,0.247,-5.337
0.297,0.060,0.243,-5.337
0.281,0.061,0.241,-5.337
0.241,0.061,0.243,-5.337
0.221,0.060,0.246,-5.337
0.212,0.059,0.246,-5.337
0.239,0.061,0.244,-5.337
0.272,0.058,0.245,-5.337
0.287,0.056,0.247,-5.337
0.257,0.058,0.251,-5.337
0.223,0.057,0.248,-5.337
0.284,0.057,0.250,-5.337
0.253,0.059,0.253,-5.337
0.192,0.062,0.253,-5.337
0.185,0.061,0.250,-5.337
0.202,0.059,0.248,-5.337
0.261,0.053,0.246,-5.337
0.270,0.051,0.243,-5.337
0.277,0.053,0.243,-5.337
0.229,0.055,0.245,-5.337
0.203,0.057,0.245,-5.337
0.220,0.057,0.242,-5.337
0.176,0.055,0.244,-5.337
0.125,0.052,0.249,-5.337
0.194,0.046,0.252,-5.337
0.246,0.050,0.253,-5.337
0.266,0.049,0.250,-5.337
0.300,0.052,0.248,-5.337
0.284,0.054,0.248,-5.337
0.305,0.053,0.248,-5.337
0.321,0.050,0.248,-5.337
0.298,0.048,0.250,-5.337
0.275,0.053,0.249,-5.337
0.263,0.057,0.245,-5.337
0.338,0.058,0.246,-5.337
0.342,0.058,0.247,-5.337
0.232,0.057,0.249,-5.337
0.171,0.056,0.248,-5.337
0.202,0.058,0.248,-5.337
0.212,0.059,0.246,-5.337
0.182,0.058,0.247,-5.337
0.185,0.054,0.247,-5.337
0.201,0.056,0.246,-5.337
0.236,0.058,0.245,-5.337
0.229,0.059,0.246,-5.337
0.225,0.058,0.246,-5.337
0.292,0.057,0.247,-5.337
0.274,0.055,0.248,-5.337
0.209,0.056,0.250,-5.337
0.277,0.051,0.250,-5.337
0.344,0.049,0.248,-5.337
0.297,0.052,0.243,-5.337
0.167,0.057,0.241,-5.337
0.155,0.057,0.243,-5.337
0.194,0.059,0.245,-5.337
0.246,0.058,0.248,-5.337
0.251,0.059,0.246,-5.337
0.271,0.057,0.249,-5.337
0.279,0.057,0.246,-5.337
0.227,0.060,0.243,-5.337
0.206,0.059,0.243,-5.337
0.312,0.056,0.246,-5.337
0.355,0.054,0.245,-5.337
0.315,0.056,0.245,-5.337
0.275,0.055,0.243,-5.337
0.307,0.057,0.242,-5.337
0.315,0.060,0.242,-5.337
0.267,0.060,0.242,-5.337
0.183,0.060,0.245,-5.337
0.129,0.061,0.245,-5.337
0.154,0.060,0.244,-5.337
0.205,0.059,0.248,-5.337
0.214,0.054,0.249,-5.337
0.233,0.053,0.249,-5.337
0.174,0.051,0.251,-5.337
0.214,0.050,0.249,-5.337
0.267,0.052,0.246,-5.337
0.218,0.052,0.244,-5.337
0.185,0.052,0.244,-5.337
0.244,0.050,0.245,-5.337
0.256,0.051,0.247,-5.337
0.230,0.051,0.248,-5.337
0.275,0.048,0.249,-5.337
0.347,0.046,0.247,-5.337
0.388,0.048,0.244,-5.337
0.286,0.053,0.241,-5.337
0.162,0.055,0.246,-5.337
0.179,0.054,0.246,-5.337
0.216,0.056,0.245,-5.337
0.226,0.054,0.242,-5.337
0.286,0.051,0.246,-5.337
0.299,0.051,0.249,-5.337
0.299,0.053,0.248,-5.337
0.312,0.051,0.247,-5.337
0.248,0.054,0.244,-5.337
0.197,0.049,0.245,-5.337
0.281,0.047,0.243,-5.337
0.308,0.049,0.242,-5.337
0.290,0.051,0.244,-5.337
0.224,0.052,0.244,-5.337
0.186,0.052,0.246,-5.337
0.204,0.050,0.248,-5.337
0.243,0.049,0.250,-5.337
0.224,0.047,0.249,-5.337
0.185,0.050,0.246,-5.337
0.132,0.047,0.243,-5.337
0.161,0.048,0.244,-5.337
0.235,0.046,0.247,-5.337
0.265,0.045,0.247,-5.337
0.255,0.046,0.251,-5.337
0.198,0.042,0.251,-5.337
0.169,0.041,0.248,-5.337
0.251,0.039,0.245,-5.337
0.298,0.044,0.243,-5.337
0.229,0.048,0.242,-5.337
0.111,0.051,0.245,-5.337
0.082,0.048,0.247,-5.337
0.148,0.044,0.246,-5.337
0.231,0.040,0.245,-5.337
0.234,0.042,0.244,-5.337
0.202,0.044,0.249,-5.337
0.184,0.042,0.251,-5.337
0.140,0.040,0.248,-5.337
0.188,0.039,0.244,-5.337
0.289,0.036,0.242,-5.337
0.235,0.040,0.246,-5.337
0.155,0.040,0.252,-5.337
0.202,0.037,0.254,-5.337
0.269,0.038,0.251,-5.337
0.261,0.039,0.245,-5.337
0.202,0.044,0.247,-5.337
0.168,0.043,0.247,-5.337
0.220,0.042,0.244,-5.337
0.241,0.041,0.243,-5.337
0.188,0.043,0.247,-5.337
0.194,0.042,0.248,-5.337
0.198,0.043,0.250,-5.337
0.167,0.042,0.251,-5.337
0.187,0.038,0.253,-5.337
0.215,0.039,0.251,-5.337
0.263,0.036,0.247,-5.337
0.256,0.036,0.247,-5.337
0.178,0.040,0.248,-5.337
0.183,0.040,0.250,-5.337
0.236,0.038,0.249,-5.337
0.231,0.035,0.247,-5.337
0.190,0.040,0.243,-5.337
0.161,0.044,0.243,-5.337
0.162,0.043,0.247,-5.337
0.214,0.038,0.249,-5.337
0.266,0.041,0.251,-5.337
0.277,0.043,0.249,-5.337
0.249,0.043,0.245,-5.337
0.232,0.043,0.247,-5.337
0.178,0.043,0.248,-5.337
0.151,0.044,0.247,-5.337
0.193,0.042,0.241,-5.337
0.187,0.044,0.242,-5.337
0.165,0.042,0.247,-5.337
0.177,0.040,0.253,-5.337
0.237,0.042,0.250,-5.337
0.262,0.043,0.250,-5.337
0.239,0.040,0.248,-5.337
0.177,0.042,0.247,-5.337
0.203,0.038,0.245,-5.337
0.209,0.039,0.245,-5.337
0.151,0.040,0.248,-5.337
0.199,0.041,0.249,-5.337
0.239,0.040,0.248,-5.337
0.194,0.038,0.250,-5.337
0.161,0.037,0.254,-5.337
0.148,0.037,0.254,-5.337
0.217,0.036,0.250,-5.337
0.215,0.035,0.243,-5.337
0.183,0.035,0.242,-5.337
0.108,0.037,0.244,-5.337
0.075,0.035,0.245,-5.337
0.129,0.033,0.242,-5.337
0.185,0.032,0.244,-5.337
0.162,0.038,0.250,-5.337
0.109,0.039,0.254,-5.337
0.155,0.036,0.253,-5.337
0.212,0.035,0.252,-5.337
0.217,0.035,0.245,-5.337
0.238,0.035,0.243,-5.337
0.249,0.034,0.246,-5.337
0.212,0.036,0.247,-5.337
0.190,0.035,0.246,-5.337
0.220,0.036,0.245,-5.337
0.200,0.035,0.249,-5.337
0.181,0.030,0.253,-5.337
0.178,0.034,0.250,-5.337
0.222,0.032,0.250,-5.337
0.201,0.033,0.249,-5.337
0.190,0.032,0.248,-5.337
0.160,0.035,0.247,-5.337
0.156,0.032,0.246,-5.337
0.263,0.029,0.243,-5.337
0.209,0.030,0.245,-5.337
0.158,0.030,0.248,-5.337
0.128,0.033,0.246,-5.337
0.133,0.032,0.246,-5.337
0.173,0.030,0.248,-5.337
0.203,0.031,0.251,-5.337
0.169,0.035,0.248,-5.337
0.141,0.037,0.244,-5.337
0.125,0.035,0.242,-5.337
0.162,0.036,0.246,-5.337
0.144,0.036,0.247,-5.337
0.140,0.035,0.252,-5.337
0.144,0.034,0.252,-5.337
0.175,0.037,0.246,-5.337
0.136,0.037,0.240,-5.337
0.089,0.037,0.244,-5.337
0.098,0.037,0.243,-5.337
0.132,0.036,0.242,-5.337
0.179,0.034,0.241,-5.337
0.257,0.034,0.244,-5.337
0.223,0.033,0.248,-5.337
0.201,0.034,0.251,-5.337
0.144,0.033,0.252,-5.337
0.180,0.032,0.255,-5.337
0.204,0.033,0.254,-5.337
0.187,0.032,0.250,-5.337
0.159,0.032,0.243,-5.337
0.111,0.033,0.240,-5.337
0.103,0.035,0.241,-5.337
0.137,0.034,0.245,-5.337
0.170,0.033,0.246,-5.337
0.196,0.032,0.247,-5.337
0.225,0.029,0.246,-5.337
0.224,0.029,0.244,-5.337
0.238,0.032,0.248,-5.337
0.248,0.035,0.248,-5.337
0.268,0.033,0.250,-5.337
0.249,0.032,0.246,-5.337
0.147,0.031,0.247,-5.337
0.151,0.029,0.247,-5.337
0.195,0.032,0.246,-5.337
0.169,0.034,0.245,-5.337
0.156,0.033,0.245,-5.337
0.156,0.030,0.245,-5.337
0.213,0.029,0.248,-5.337
0.252,0.030,0.247,-5.337
0.247,0.030,0.246,-5.337
0.208,0.032,0.246,-5.337
0.148,0.037,0.247,-5.337
0.139,0.036,0.245,-5.337
0.157,0.034,0.245,-5.337
0.178,0.033,0.242,-5.337
0.183,0.034,0.244,-5.337
0.180,0.033,0.250,-5.337
0.163,0.032,0.249,-5.337
0.188,0.033,0.247,-5.337
0.210,0.034,0.245,-5.337
0.148,0.032,0.244,-5.337
0.062,0.035,0.244,-5.337
0.081,0.036,0.246,-5.337
0.156,0.034,0.246,-5.337
0.143,0.036,0.248,-5.337
0.153,0.036,0.247,-5.337
0.206,0.035,0.246,-5.337
0.239,0.035,0.244,-5.337
0.216,0.037,0.245,-5.337
0.150,0.035,0.246,-5.337
0.126,0.033,0.250,-5.337
0.095,0.031,0.250,-5.337
0.034,0.029,0.248,-5.337
0.031,0.029,0.247,-5.337
0.160,0.027,0.246,-5.337
0.209,0.027,0.243,-5.337
0.149,0.028,0.247,-5.337
0.107,0.029,0.250,-5.337
0.131,0.029,0.247,-5.337
0.189,0.029,0.244,-5.337
0.129,0.032,0.248,-5.337
0.092,0.031,0.252,-5.337
0.225,0.028,0.251,-5.337
0.267,0.031,0.252,-5.337
0.235,0.029,0.246,-5.337
0.192,0.030,0.244,-5.337
0.204,0.031,0.241,-5.337
0.238,0.034,0.248,-5.337
0.216,0.032,0.249,-5.337
0.166,0.035,0.249,-5.337
0.160,0.035,0.250,-5.337
0.155,0.037,0.253,-5.337
0.183,0.035,0.251,-5.337
0.232,0.035,0.247,-5.337
0.250,0.033,0.245,-5.337
0.192,0.036,0.245,-5.337
0.129,0.037,0.247,-5.337
0.105,0.036,0.252,-5.337
0.149,0.031,0.253,-5.337
0.168,0.030,0.252,-5.337
0.125,0.030,0.250,-5.337
0.086,0.031,0.248,-5.337
0.097,0.027,0.243,-5.337
0.164,0.022,0.238,-5.337
0.179,0.022,0.240,-5.337
0.090,0.026,0.251,-5.337
0.114,0.026,0.257,-5.337
0.208,0.027,0.251,-5.337
0.171,0.025,0.247,-5.337
0.158,0.028,0.248,-5.337
0.181,0.030,0.248,-5.337
0.141,0.031,0.246,-5.337
0.144,0.033,0.245,-5.337
0.193,0.031,0.245,-5.337
0.206,0.032,0.245,-5.337
0.196,0.030,0.241,-5.337
0.179,0.031,0.242,-5.337
0.133,0.032,0.244,-5.337
0.166,0.032,0.247,-5.337
0.108,0.033,0.248,-5.337
0.115,0.033,0.249,-5.337
0.249,0.033,0.247,-5.337
0.272,0.032,0.244,-5.337
0.203,0.032,0.243,-5.337
0.231,0.031,0.245,-5.337
0.202,0.034,0.247,-5.337
0.136,0.038,0.247,-5.337
0.095,0.034,0.248,-5.337
0.194,0.030,0.251,-5.337
0.261,0.027,0.249,-5.337
0.225,0.031,0.249,-5.337
0.163,0.035,0.250,-5.337
0.144,0.038,0.253,-5.337
0.192,0.036,0.250,-5.337
0.306,0.031,0.244,-5.337
0.338,0.028,0.241,-5.337
0.242,0.033,0.240,-5.337
0.163,0.033,0.244,-5.337
0.187,0.031,0.246,-5.337
0.247,0.031,0.249,-5.337
0.213,0.034,0.251,-5.337
0.189,0.032,0.249,-5.337
0.198,0.030,0.243,-5.337
0.146,0.031,0.242,-5.337
0.140,0.035,0.243,-5.337
0.175,0.035,0.244,-5.337
0.176,0.033,0.250,-5.337
0.158,0.031,0.251,-5.337
0.081,0.035,0.249,-5.337
0.092,0.035,0.245,-5.337
0.184,0.035,0.241,-5.337
0.199,0.034,0.240,-5.337
0.177,0.034,0.242,-5.337
0.266,0.033,0.247,-5.337
0.275,0.035,0.248,-5.337
0.216,0.037,0.244,-5.337
0.170,0.039,0.242,-5.337
0.193,0.035,0.245,-5.337
0.248,0.034,0.249,-5.337
0.205,0.036,0.250,-5.337
0.140,0.039,0.252,-5.337
0.130,0.038,0.252,-5.337
0.171,0.033,0.250,-5.337
0.200,0.034,0.245,-5.337
0.203,0.038,0.247,-5.337
0.183,0.038,0.247,-5.337
0.243,0.036,0.246,-5.337
0.242,0.037,0.244,-5.337
0.192,0.037,0.246,-5.337
0.190,0.038,0.244,-5.337
0.201,0.037,0.244,-5.337
0.184,0.036,0.246,-5.337
0.164,0.039,0.247,-5.337
0.142,0.039,0.250,-5.337
0.220,0.038,0.254,-5.337
0.244,0.036,0.251,-5.337
0.209,0.037,0.242,-5.337
0.207,0.038,0.239,-5.337
0.236,0.036,0.242,-5.337
0.217,0.040,0.248,-5.337
0.215,0.037,0.251,-5.337
0.180,0.040,0.250,-5.337
0.218,0.040,0.249,-5.337
0.214,0.043,0.243,-5.337
0.205,0.043,0.242,-5.337
0.173,0.045,0.247,-5.337
0.083,0.043,0.251,-5.337
0.037,0.042,0.251,-5.337
0.157,0.038,0.247,-5.337
0.237,0.034,0.246,-5.337
0.280,0.029,0.245,-5.337
0.226,0.034,0.243,-5.337
0.159,0.038,0.240,-5.337
0.141,0.040,0.246,-5.337
0.211,0.034,0.252,-5.337
0.293,0.031,0.254,-5.337
0.274,0.032,0.253,-5.337
0.277,0.034,0.250,-5.337
0.335,0.034,0.248,-5.337
0.294,0.035,0.246,-5.337
0.283,0.037,0.247,-5.337
0.231,0.040,0.247,-5.337
0.193,0.042,0.248,-5.337
0.217,0.041,0.247,-5.337
0.284,0.043,0.245,-5.337
0.256,0.042,0.241,-5.337
0.154,0.042,0.241,-5.337
0.160,0.043,0.244,-5.337
0.264,0.040,0.246,-5.337
0.325,0.040,0.248,-5.337
0.248,0.042,0.249,-5.337
0.225,0.038,0.246,-5.337
0.195,0.038,0.247,-5.337
0.179,0.039,0.250,-5.337
0.204,0.037,0.252,-5.337
0.270,0.036,0.247,-5.337
0.192,0.040,0.248,-5.337
0.160,0.038,0.251,-5.337
0.169,0.041,0.252,-5.337
0.232,0.044,0.247,-5.337
0.286,0.043,0.244,-5.337
0.295,0.039,0.245,-5.337
0.260,0.042,0.248,-5.337
0.243,0.045,0.246,-5.337
0.226,0.045,0.245,-5.337
0.204,0.042,0.246,-5.337
0.208,0.047,0.248,-5.337
0.229,0.051,0.251,-5.337
0.184,0.053,0.251,-5.337
0.261,0.049,0.248,-5.337
0.276,0.049,0.247,-5.337
0.196,0.050,0.247,-5.337
0.114,0.047,0.245,-5.337
0.161,0.045,0.247,-5.337
0.209,0.046,0.248,-5.337
0.231,0.049,0.247,-5.337
0.219,0.046,0.247,-5.337
0.146,0.050,0.247,-5.337
0.133,0.050,0.247,-5.337
0.275,0.047,0.249,-5.337
0.353,0.048,0.251,-5.337
0.224,0.050,0.250,-5.337
0.082,0.054,0.246,-5.337
0.134,0.052,0.247,-5.337
0.205,0.052,0.246,-5.337
0.228,0.053,0.249,-5.337
0.275,0.049,0.249,-5.337
0.302,0.047,0.252,-5.337
0.268,0.046,0.251,-5.337
0.285,0.046,0.247,-5.337
0.212,0.051,0.244,-5.337
0.141,0.051,0.245,-5.337
0.162,0.046,0.248,-5.337
0.225,0.045,0.250,-5.337
0.237,0.050,0.250,-5.337
0.233,0.048,0.249,-5.337
0.251,0.047,0.250,-5.337
0.240,0.049,0.249,-5.337
0.255,0.047,0.247,-5.337
0.277,0.048,0.244,-5.337
0.275,0.047,0.244,-5.337
0.214,0.050,0.244,-5.337
0.205,0.050,0.247,-5.337
0.162,0.053,0.248,-5.337
0.222,0.050,0.250,-5.337
0.275,0.049,0.249,-5.337
0.289,0.051,0.249,-5.337
0.227,0.052,0.250,-5.337
0.174,0.052,0.247,-5.337
0.201,0.055,0.244,-5.337
0.278,0.057,0.244,-5.337
0.301,0.055,0.248,-5.337
0.201,0.056,0.253,-5.337
0.265,0.050,0.254,-5.337
0.335,0.048,0.252,-5.337
0.278,0.050,0.249,-5.337
0.293,0.049,0.246,-5.337
0.289,0.045,0.244,-5.337
0.206,0.046,0.242,-5.337
0.233,0.044,0.241,-5.337
0.271,0.049,0.240,-5.337
0.286,0.049,0.243,-5.337
0.307,0.048,0.249,-5.337
0.281,0.048,0.251,-5.337
0.308,0.046,0.247,-5.337
0.278,0.047,0.247,-5.337
0.215,0.052,0.247,-5.337
0.161,0.054,0.247,-5.337
0.207,0.049,0.247,-5.337
0.205,0.051,0.250,-5.337
0.256,0.051,0.245,-5.337
0.254,0.054,0.244,-5.337
0.175,0.058,0.245,-5.337
0.228,0.057,0.246,-5.337
0.291,0.055,0.247,-5.337
0.331,0.054,0.247,-5.337
0.311,0.053,0.247,-5.337
0.265,0.054,0.245,-5.337
0.274,0.053,0.246,-5.337
0.263,0.054,0.245,-5.337
0.240,0.054,0.246,-5.337
0.310,0.049,0.244,-5.337
0.381,0.051,0.244,-5.337
0.310,0.054,0.244,-5.337
0.211,0.054,0.246,-5.337
0.193,0.052,0.250,-5.337
0.253,0.051,0.249,-5.337
0.215,0.052,0.244,-5.337
0.216,0.051,0.244,-5.337
0.188,0.052,0.245,-5.337
0.146,0.052,0.248,-5.337
0.183,0.053,0.250,-5.337
0.238,0.053,0.252,-5.337
0.247,0.055,0.249,-5.337
0.262,0.055,0.246,-5.337
0.299,0.055,0.247,-5.337
0.292,0.056,0.249,-5.337
0.205,0.053,0.246,-5.337
0.215,0.054,0.249,-5.337
0.292,0.054,0.249,-5.337
0.337,0.055,0.249,-5.337
0.318,0.052,0.247,-5.337
0.251,0.052,0.243,-5.337
0.183,0.054,0.243,-5.337
0.213,0.057,0.246,-5.337
0.250,0.057,0.247,-5.337
0.292,0.054,0.248,-5.337
0.294,0.052,0.247,-5.337
0.255,0.052,0.243,-5.337
0.286,0.051,0.241,-5.337
0.342,0.051,0.242,-5.337
0.274,0.052,0.246,-5.337
0.246,0.051,0.248,-5.337
0.226,0.053,0.247,-5.337
0.190,0.056,0.246,-5.337
0.214,0.055,0.245,-5.337
0.266,0.054,0.245,-5.337
0.302,0.052,0.247,-5.337
0.333,0.051,0.247,-5.337
0.321,0.052,0.248,-5.337
0.360,0.052,0.248,-5.337
0.323,0.053,0.246,-5.337
0.253,0.053,0.244,-5.337
0.222,0.053,0.241,-5.337
0.211,0.051,0.242,-5.337
0.180,0.055,0.246,-5.337
0.189,0.054,0.248,-5.337
0.236,0.055,0.250,-5.337
0.275,0.057,0.247,-5.337
0.328,0.056,0.245,-5.337
0.342,0.056,0.247,-5.337
0.306,0.056,0.248,-5.337
0.225,0.056,0.249,-5.337
0.183,0.056,0.250,-5.337
0.193,0.059,0.248,-5.337
0.185,0.059,0.245,-5.337
0.178,0.060,0.250,-5.337
0.221,0.056,0.252,-5.337
0.317,0.054,0.251,-5.337
0.368,0.052,0.248,-5.337
0.299,0.053,0.246,-5.337
0.293,0.054,0.245,-5.337
0.220,0.056,0.246,-5.337
0.194,0.053,0.243,-5.337
0.276,0.053,0.246,-5.337
0.236,0.053,0.250,-5.337
0.232,0.052,0.251,-5.337
0.361,0.049,0.249,-5.337
0.438,0.053,0.249,-5.337
0.360,0.054,0.249,-5.337
0.244,0.055,0.249,-5.337
0.215,0.050,0.246,-5.337
0.285,0.052,0.243,-5.337
0.262,0.054,0.242,-5.337
0.215,0.052,0.241,-5.337
0.229,0.047,0.245,-5.337
0.265,0.044,0.247,-5.337
0.298,0.045,0.247,-5.337
0.252,0.048,0.249,-5.337
0.228,0.043,0.249,-5.337
0.220,0.046,0.247,-5.337
0.246,0.047,0.244,-5.337
0.224,0.049,0.246,-5.337
0.170,0.048,0.248,-5.337
0.153,0.048,0.250,-5.337
0.171,0.046,0.252,-5.337
0.214,0.046,0.249,-5.337
0.273,0.047,0.246,-5.337
0.201,0.049,0.245,-5.337
0.233,0.048,0.245,-5.337
0.260,0.049,0.245,-5.337
0.258,0.050,0.246,-5.337
0.289,0.053,0.247,-5.337
0.250,0.057,0.249,-5.337
0.201,0.053,0.245,-5.337
0.229,0.049,0.241,-5.337
0.247,0.045,0.244,-5.337
0.236,0.048,0.249,-5.337
0.267,0.049,0.252,-5.337
0.297,0.051,0.248,-5.337
0.285,0.048,0.245,-5.337
0.220,0.046,0.245,-5.337
0.239,0.046,0.246,-5.337
0.281,0.048,0.247,-5.337
0.260,0.051,0.242,-5.337
0.221,0.047,0.243,-5.337
0.190,0.043,0.244,-5.337
0.204,0.046,0.243,-5.337
0.183,0.047,0.245,-5.337
0.228,0.043,0.245,-5.337
0.265,0.042,0.243,-5.337
0.249,0.044,0.242,-5.337
0.152,0.048,0.245,-5.337
0.113,0.052,0.246,-5.337
0.155,0.048,0.248,-5.337
0.134,0.049,0.247,-5.337
0.153,0.050,0.246,-5.337
0.237,0.046,0.244,-5.337
0.306,0.043,0.247,-5.337
0.280,0.044,0.252,-5.337
0.154,0.047,0.255,-5.337
0.132,0.047,0.252,-5.337
0.184,0.046,0.246,-5.337
0.243,0.045,0.240,-5.337
0.299,0.043,0.239,-5.337
0.268,0.041,0.242,-5.337
0.185,0.045,0.247,-5.337
0.226,0.042,0.248,-5.337
0.308,0.039,0.249,-5.337
0.284,0.039,0.248,-5.337
0.257,0.042,0.248,-5.337
0.180,0.043,0.248,-5.337
0.090,0.046,0.247,-5.337
0.118,0.044,0.247,-5.337
0.159,0.042,0.244,-5.337
0.213,0.039,0.242,-5.337
0.177,0.037,0.244,-5.337
0.202,0.039,0.250,-5.337
0.206,0.039,0.250,-5.337
0.228,0.044,0.249,-5.337
0.198,0.047,0.246,-5.337
0.159,0.044,0.246,-5.337
0.227,0.041,0.246,-5.337
0.320,0.044,0.248,-5.337
0.319,0.044,0.247,-5.337
0.204,0.043,0.244,-5.337
0.178,0.044,0.242,-5.337
0.179,0.046,0.242,-5.337
0.127,0.044,0.243,-5.337
0.146,0.042,0.250,-5.337
0.168,0.043,0.255,-5.337
0.173,0.045,0.252,-5.337
0.144,0.044,0.246,-5.337
0.167,0.048,0.244,-5.337
0.241,0.045,0.243,-5.337
0.237,0.045,0.245,-5.337
0.206,0.042,0.246,-5.337
0.220,0.043,0.242,-5.337
0.220,0.043,0.244,-5.337
0.179,0.044,0.246,-5.337
0.164,0.045,0.248,-5.337
0.145,0.044,0.246,-5.337
0.171,0.041,0.247,-5.337
0.204,0.040,0.249,-5.337
0.186,0.042,0.249,-5.337
0.248,0.041,0.245,-5.337
0.214,0.042,0.242,-5.337
0.089,0.045,0.242,-5.337
0.196,0.042,0.246,-5.337
0.289,0.039,0.249,-5.337
0.250,0.037,0.250,-5.337
0.199,0.036,0.248,-5.337
0.192,0.033,0.246,-5.337
0.155,0.034,0.247,-5.337
0.195,0.033,0.247,-5.337
0.232,0.035,0.247,-5.337
0.251,0.036,0.244,-5.337
