[Parameters]
Operating Mode, Feedback
Subject  AA..ZZ, WT
Session  0..99, 45
No. Trials (1..9999), 500
Mouse Number, 1
Pressure Probe Serial Port, \00\00\00\04COM4
Save additional csv file, TRUE
Save using mouse number, FALSE
A/D Monitor Rate (Hz), 30000.000000
A/D Stimulate Rate (Hz), 30000.000000
A/D input range (+/- V), 5
No. Channels to acquire (N), 2
Pre-Stim Acq. time (ms), 100.000000
Post-Stim Acq. time (ms), 900.000000
Analysis window parameters.M-response Start (ms), 1.100000
Analysis window parameters.M-response Duration (ms), 5.500000
Analysis window parameters.H-response Duration (ms), 6.000000
Analysis window parameters.H-response Start (ms), 6.500000
Feedback window, H response
Proportional gain, 0.100000
Target value, 6.700000
Feedback Ch., 1
Stim Channel to Control (1-4), 4
Trial, 65
Wait for EMG Conditions, FALSE
Channel to monitor (0 - N-1), 1
EMG Hi Limit, 2.000000
EMG Lo Limit, 0.001000
Inter-Stim delay (sec), 10.000000
EMG Monitor Mode, Mean
Time to run Long Stim.(sec), 30
Save Long Stim Data?, OFF
BURST Save time (ms), 1000
BURST Save Interval (x above), 10
Long-Stim. Rep. Rate (Hz), 10.000000
Stim type cluster array.<size(s)>, 4
Stim type cluster array 0.Stimulus Output, Electrical
Stim type cluster array 1.Stimulus Output, OFF
Stim type cluster array 2.Stimulus Output, OFF
Stim type cluster array 3.Stimulus Output, Motor Length
Stim specs cluster array.<size(s)>, 4
Stim specs cluster array 0.Initial Stimulus ampl., 0.300000
Stim specs cluster array 0.Maximum Stimulus, 1.120000
Stim specs cluster array 0.#Pulses in train, 4
Stim specs cluster array 0.Peak Level time (ms), 1.000000
Stim specs cluster array 0.Total pulse period (ms), 150.000000
Stim specs cluster array 0.Start Delay (ms), -50.000000
Stim specs cluster array 0.Pulse Shape, Square
Stim specs cluster array 0.Ramp/Rel. time (ms), 0.100000
Stim specs cluster array 0.Peak Amplitude (V), 0.120000
Stim specs cluster array 1.Initial Stimulus ampl., 0.000000
Stim specs cluster array 1.Maximum Stimulus, 0.000000
Stim specs cluster array 1.#Pulses in train, 3
Stim specs cluster array 1.Peak Level time (ms), 29.000000
Stim specs cluster array 1.Total pulse period (ms), 200.000000
Stim specs cluster array 1.Start Delay (ms), 0.000000
Stim specs cluster array 1.Pulse Shape, Square
Stim specs cluster array 1.Ramp/Rel. time (ms), 0.000000
Stim specs cluster array 1.Peak Amplitude (V), 2.000000
Stim specs cluster array 2.Initial Stimulus ampl., 0.000000
Stim specs cluster array 2.Maximum Stimulus, 0.000000
Stim specs cluster array 2.#Pulses in train, 1
Stim specs cluster array 2.Peak Level time (ms), 25.000000
Stim specs cluster array 2.Total pulse period (ms), 200.000000
Stim specs cluster array 2.Start Delay (ms), 0.000000
Stim specs cluster array 2.Pulse Shape, Square
Stim specs cluster array 2.Ramp/Rel. time (ms), 20.000000
Stim specs cluster array 2.Peak Amplitude (V), 10.000000
Stim specs cluster array 3.Initial Stimulus ampl., 0.000000
Stim specs cluster array 3.Maximum Stimulus, 20.000000
Stim specs cluster array 3.#Pulses in train, 25
Stim specs cluster array 3.Peak Level time (ms), 0.100000
Stim specs cluster array 3.Total pulse period (ms), 4.000000
Stim specs cluster array 3.Start Delay (ms), 205.000000
Stim specs cluster array 3.Pulse Shape, Triangle
Stim specs cluster array 3.Ramp/Rel. time (ms), 3.000000
Stim specs cluster array 3.Peak Amplitude (V), 0.500000
Force cal. (mN/Volt), 100.000000
Force Range (mN), 100.000000
Length cal. (mm/Volt), 10.000000
Length Range (mm), 10.000000
Stim. 1, 0.300000
Stim. 2, 0.000000
Stim. 3, 0.000000
Stim. 4, 0.000000
Monitor acquire time (ms), 100.000000
EMG graph Ymax, 0.100000
Travel limit (mm), 20.000000
Use Pressure Probe, FALSE
Pressure goal (g), 100
Speed (mm/sec), 5.000000
Dwell time (ms), 100.000000
Pressure limit (g), 500.000000
Channel amplitude offset, 0.000000

[DATA]

0.261,0.045,0.227,-5.337
0.219,0.049,0.225,-5.337
0.207,0.050,0.222,-5.337
0.214,0.049,0.224,-5.337
0.216,0.048,0.226,-5.337
0.129,0.053,0.227,-5.337
0.168,0.055,0.229,-5.337
0.200,0.054,0.228,-5.337
0.152,0.056,0.225,-5.337
0.100,0.057,0.225,-5.337
0.092,0.054,0.223,-5.337
0.160,0.054,0.222,-5.337
0.259,0.051,0.225,-5.337
0.329,0.051,0.224,-5.337
0.329,0.050,0.226,-5.337
0.251,0.051,0.223,-5.337
0.149,0.056,0.224,-5.337
0.175,0.054,0.227,-5.337
0.241,0.054,0.225,-5.337
0.215,0.049,0.220,-5.337
0.182,0.052,0.220,-5.337
0.176,0.053,0.221,-5.337
0.164,0.056,0.223,-5.337
0.165,0.058,0.225,-5.337
0.245,0.058,0.225,-5.337
0.289,0.055,0.226,-5.337
0.256,0.052,0.226,-5.337
0.174,0.052,0.223,-5.337
0.072,0.061,0.220,-5.337
0.104,0.062,0.217,-5.337
0.211,0.061,0.219,-5.337
0.222,0.058,0.222,-5.337
0.168,0.059,0.224,-5.337
0.114,0.058,0.223,-5.337
0.170,0.055,0.223,-5.337
0.243,0.051,0.223,-5.337
0.248,0.054,0.221,-5.337
0.195,0.057,0.222,-5.337
0.158,0.058,0.222,-5.337
0.175,0.058,0.223,-5.337
0.231,0.055,0.220,-5.337
0.255,0.055,0.221,-5.337
0.284,0.054,0.224,-5.337
0.287,0.057,0.223,-5.337
0.269,0.057,0.220,-5.337
0.242,0.056,0.216,-5.337
0.215,0.055,0.217,-5.337
0.126,0.058,0.224,-5.337
0.117,0.057,0.228,-5.337
0.128,0.059,0.227,-5.337
0.124,0.056,0.224,-5.337
0.183,0.053,0.222,-5.337
0.196,0.053,0.222,-5.337
0.180,0.059,0.224,-5.337
0.226,0.058,0.224,-5.337
0.254,0.054,0.223,-5.337
0.186,0.059,0.221,-5.337
0.168,0.061,0.218,-5.337
0.186,0.057,0.220,-5.337
0.171,0.057,0.223,-5.337
0.152,0.055,0.228,-5.337
0.191,0.056,0.227,-5.337
0.199,0.057,0.220,-5.337
0.176,0.055,0.216,-5.337
0.189,0.055,0.217,-5.337
0.252,0.055,0.220,-5.337
0.250,0.059,0.223,-5.337
0.210,0.063,0.222,-5.337
0.208,0.062,0.222,-5.337
0.221,0.057,0.223,-5.337
0.184,0.059,0.225,-5.337
0.182,0.062,0.226,-5.337
0.174,0.067,0.224,-5.337
0.202,0.063,0.221,-5.337
0.223,0.058,0.223,-5.337
0.216,0.057,0.226,-5.337
0.179,0.057,0.225,-5.337
0.127,0.057,0.221,-5.337
0.122,0.059,0.220,-5.337
0.249,0.060,0.220,-5.337
0.273,0.064,0.220,-5.337
0.170,0.062,0.221,-5.337
0.160,0.056,0.221,-5.337
0.185,0.059,0.222,-5.337
0.190,0.059,0.220,-5.337
0.172,0.061,0.220,-5.337
0.219,0.060,0.217,-5.337
0.313,0.058,0.216,-5.337
0.341,0.056,0.216,-5.337
0.292,0.058,0.222,-5.337
0.205,0.057,0.226,-5.337
0.203,0.058,0.223,-5.337
0.230,0.058,0.221,-5.337
0.248,0.058,0.219,-5.337
0.222,0.058,0.217,-5.337
0.215,0.061,0.217,-5.337
0.241,0.057,0.222,-5.337
0.276,0.055,0.224,-5.337
0.278,0.056,0.220,-5.337
0.258,0.058,0.218,-5.337
0.208,0.060,0.219,-5.337
0.192,0.061,0.221,-5.337
0.224,0.060,0.223,-5.337
0.152,0.057,0.222,-5.337
0.101,0.058,0.224,-5.337
0.145,0.060,0.225,-5.337
0.174,0.059,0.224,-5.337
0.175,0.056,0.219,-5.337
0.217,0.054,0.218,-5.337
0.276,0.056,0.223,-5.337
0.284,0.059,0.223,-5.337
0.242,0.055,0.219,-5.337
0.329,0.054,0.220,-5.337
0.361,0.054,0.218,-5.337
0.287,0.060,0.219,-5.337
0.252,0.064,0.223,-5.337
0.198,0.065,0.222,-5.337
0.165,0.063,0.220,-5.337
0.150,0.064,0.220,-5.337
0.168,0.060,0.222,-5.337
0.164,0.061,0.224,-5.337
0.102,0.061,0.221,-5.337
0.113,0.062,0.219,-5.337
0.167,0.061,0.214,-5.337
0.200,0.062,0.213,-5.337
0.191,0.064,0.219,-5.337
0.195,0.066,0.228,-5.337
0.219,0.066,0.228,-5.337
0.245,0.066,0.221,-5.337
0.263,0.066,0.215,-5.337
0.264,0.067,0.220,-5.337
0.242,0.065,0.225,-5.337
0.185,0.063,0.223,-5.337
0.203,0.062,0.220,-5.337
0.233,0.060,0.219,-5.337
0.259,0.059,0.218,-5.337
0.311,0.058,0.218,-5.337
0.301,0.059,0.219,-5.337
0.256,0.060,0.221,-5.337
0.267,0.057,0.224,-5.337
0.226,0.060,0.222,-5.337
0.152,0.060,0.219,-5.337
0.214,0.058,0.216,-5.337
0.250,0.055,0.214,-5.337
0.259,0.058,0.215,-5.337
0.243,0.059,0.222,-5.337
0.192,0.056,0.220,-5.337
0.143,0.059,0.217,-5.337
0.160,0.058,0.218,-5.337
0.211,0.059,0.221,-5.337
0.209,0.058,0.222,-5.337
0.207,0.057,0.221,-5.337
0.217,0.058,0.222,-5.337
0.277,0.057,0.222,-5.337
0.281,0.057,0.221,-5.337
0.217,0.059,0.217,-5.337
0.257,0.060,0.215,-5.337
0.210,0.060,0.217,-5.337
0.082,0.062,0.223,-5.337
0.191,0.056,0.223,-5.337
0.300,0.049,0.223,-5.337
0.281,0.050,0.225,-5.337
0.197,0.052,0.228,-5.337
0.158,0.056,0.222,-5.337
0.202,0.055,0.219,-5.337
0.161,0.054,0.219,-5.337
0.169,0.054,0.221,-5.337
0.226,0.054,0.218,-5.337
0.177,0.054,0.216,-5.337
0.175,0.054,0.220,-5.337
0.214,0.055,0.223,-5.337
0.210,0.054,0.223,-5.337
0.237,0.049,0.218,-5.337
0.291,0.048,0.215,-5.337
0.283,0.049,0.219,-5.337
0.196,0.053,0.219,-5.337
0.189,0.053,0.218,-5.337
0.202,0.055,0.221,-5.337
0.164,0.056,0.222,-5.337
0.063,0.056,0.224,-5.337
0.090,0.055,0.223,-5.337
0.170,0.051,0.219,-5.337
0.167,0.051,0.216,-5.337
0.129,0.056,0.215,-5.337
0.108,0.061,0.216,-5.337
0.124,0.059,0.218,-5.337
0.207,0.052,0.218,-5.337
0.240,0.051,0.219,-5.337
0.269,0.049,0.219,-5.337
0.220,0.048,0.220,-5.337
0.169,0.050,0.218,-5.337
0.190,0.055,0.219,-5.337
0.181,0.054,0.224,-5.337
0.215,0.051,0.227,-5.337
0.156,0.053,0.222,-5.337
0.130,0.053,0.217,-5.337
0.191,0.054,0.214,-5.337
0.241,0.055,0.216,-5.337
0.198,0.054,0.220,-5.337
0.165,0.053,0.227,-5.337
0.187,0.049,0.226,-5.337
0.241,0.050,0.224,-5.337
0.288,0.049,0.225,-5.337
0.238,0.047,0.223,-5.337
0.177,0.047,0.220,-5.337
0.186,0.049,0.218,-5.337
0.122,0.051,0.221,-5.337
0.058,0.051,0.225,-5.337
0.068,0.051,0.225,-5.337
0.085,0.051,0.222,-5.337
0.113,0.052,0.219,-5.337
0.108,0.054,0.216,-5.337
0.102,0.052,0.215,-5.337
0.128,0.048,0.217,-5.337
0.143,0.048,0.224,-5.337
0.136,0.048,0.230,-5.337
0.103,0.047,0.233,-5.337
0.110,0.044,0.229,-5.337
0.179,0.045,0.225,-5.337
0.211,0.045,0.220,-5.337
0.246,0.046,0.221,-5.337
0.280,0.047,0.223,-5.337
0.247,0.048,0.224,-5.337
0.206,0.049,0.223,-5.337
0.157,0.050,0.221,-5.337
0.110,0.048,0.220,-5.337
0.200,0.046,0.219,-5.337
0.243,0.047,0.219,-5.337
0.171,0.049,0.221,-5.337
0.103,0.049,0.223,-5.337
0.177,0.046,0.223,-5.337
0.243,0.049,0.223,-5.337
0.188,0.048,0.218,-5.337
0.156,0.048,0.219,-5.337
0.163,0.045,0.219,-5.337
0.209,0.043,0.221,-5.337
0.261,0.041,0.221,-5.337
0.318,0.044,0.222,-5.337
0.252,0.044,0.224,-5.337
0.183,0.048,0.227,-5.337
0.211,0.046,0.226,-5.337
0.290,0.042,0.224,-5.337
0.283,0.045,0.221,-5.337
0.221,0.045,0.223,-5.337
0.173,0.046,0.222,-5.337
0.172,0.050,0.223,-5.337
0.191,0.047,0.223,-5.337
0.185,0.041,0.222,-5.337
0.170,0.042,0.219,-5.337
0.156,0.042,0.217,-5.337
0.162,0.043,0.216,-5.337
0.231,0.043,0.217,-5.337
0.256,0.044,0.220,-5.337
0.198,0.049,0.224,-5.337
0.145,0.049,0.227,-5.337
0.200,0.048,0.224,-5.337
0.181,0.048,0.224,-5.337
0.137,0.047,0.223,-5.337
0.171,0.047,0.225,-5.337
0.206,0.044,0.222,-5.337
0.189,0.046,0.221,-5.337
0.146,0.047,0.220,-5.337
0.138,0.045,0.219,-5.337
0.159,0.047,0.220,-5.337
0.161,0.045,0.227,-5.337
0.137,0.046,0.228,-5.337
0.129,0.047,0.228,-5.337
0.114,0.043,0.223,-5.337
0.142,0.042,0.218,-5.337
0.189,0.043,0.217,-5.337
0.179,0.045,0.219,-5.337
0.139,0.042,0.222,-5.337
0.173,0.044,0.224,-5.337
0.194,0.043,0.224,-5.337
0.193,0.044,0.220,-5.337
0.187,0.047,0.218,-5.337
0.187,0.046,0.219,-5.337
0.191,0.046,0.219,-5.337
0.211,0.043,0.218,-5.337
0.211,0.042,0.221,-5.337
0.209,0.040,0.224,-5.337
0.219,0.041,0.225,-5.337
0.240,0.041,0.225,-5.337
0.176,0.044,0.222,-5.337
0.193,0.044,0.221,-5.337
0.223,0.044,0.223,-5.337
0.215,0.047,0.224,-5.337
0.136,0.048,0.225,-5.337
0.046,0.045,0.223,-5.337
0.087,0.043,0.222,-5.337
0.180,0.047,0.219,-5.337
0.148,0.048,0.221,-5.337
0.035,0.049,0.221,-5.337
0.125,0.046,0.219,-5.337
0.260,0.040,0.218,-5.337
0.282,0.038,0.219,-5.337
0.265,0.039,0.219,-5.337
0.236,0.042,0.221,-5.337
0.142,0.041,0.224,-5.337
0.164,0.038,0.225,-5.337
0.157,0.043,0.225,-5.337
0.172,0.042,0.226,-5.337
0.215,0.041,0.223,-5.337
0.265,0.041,0.217,-5.337
0.295,0.041,0.217,-5.337
0.225,0.041,0.222,-5.337
0.134,0.042,0.224,-5.337
0.102,0.043,0.223,-5.337
0.098,0.043,0.218,-5.337
0.077,0.042,0.216,-5.337
0.154,0.044,0.217,-5.337
0.199,0.042,0.214,-5.337
0.202,0.044,0.219,-5.337
0.233,0.040,0.222,-5.337
0.206,0.044,0.222,-5.337
0.166,0.043,0.224,-5.337
0.181,0.042,0.230,-5.337
0.200,0.040,0.227,-5.337
0.169,0.041,0.223,-5.337
0.155,0.039,0.223,-5.337
0.224,0.036,0.224,-5.337
0.247,0.036,0.226,-5.337
0.265,0.035,0.225,-5.337
0.223,0.036,0.224,-5.337
0.208,0.039,0.225,-5.337
0.229,0.038,0.221,-5.337
0.268,0.038,0.220,-5.337
0.242,0.039,0.219,-5.337
0.212,0.041,0.220,-5.337
0.205,0.041,0.222,-5.337
0.186,0.036,0.223,-5.337
0.211,0.036,0.222,-5.337
0.206,0.037,0.219,-5.337
0.152,0.039,0.220,-5.337
0.154,0.039,0.226,-5.337
0.249,0.036,0.224,-5.337
0.182,0.036,0.219,-5.337
0.059,0.041,0.220,-5.337
0.110,0.039,0.224,-5.337
0.197,0.042,0.224,-5.337
0.148,0.043,0.220,-5.337
0.116,0.043,0.221,-5.337
0.121,0.039,0.220,-5.337
0.180,0.038,0.219,-5.337
0.165,0.038,0.222,-5.337
0.153,0.039,0.224,-5.337
0.165,0.038,0.225,-5.337
0.126,0.041,0.225,-5.337
0.142,0.039,0.225,-5.337
0.193,0.036,0.223,-5.337
0.138,0.036,0.224,-5.337
0.120,0.038,0.221,-5.337
0.163,0.037,0.217,-5.337
0.204,0.036,0.218,-5.337
0.189,0.038,0.220,-5.337
0.161,0.041,0.218,-5.337
0.150,0.039,0.220,-5.337
0.119,0.040,0.220,-5.337
0.124,0.041,0.226,-5.337
0.191,0.040,0.230,-5.337
0.227,0.040,0.226,-5.337
0.235,0.038,0.218,-5.337
0.260,0.041,0.215,-5.337
0.247,0.039,0.215,-5.337
0.228,0.043,0.220,-5.337
0.217,0.044,0.224,-5.337
0.161,0.042,0.224,-5.337
0.082,0.038,0.223,-5.337
0.056,0.038,0.221,-5.337
0.111,0.041,0.222,-5.337
0.150,0.041,0.226,-5.337
0.142,0.041,0.228,-5.337
0.225,0.039,0.225,-5.337
0.221,0.039,0.221,-5.337
0.211,0.040,0.220,-5.337
0.246,0.038,0.221,-5.337
0.324,0.034,0.222,-5.337
0.219,0.038,0.223,-5.337
0.100,0.044,0.221,-5.337
0.124,0.043,0.218,-5.337
0.109,0.037,0.220,-5.337
0.172,0.035,0.223,-5.337
0.267,0.033,0.222,-5.337
0.213,0.038,0.221,-5.337
0.067,0.042,0.218,-5.337
0.070,0.039,0.217,-5.337
0.186,0.032,0.217,-5.337
0.263,0.032,0.222,-5.337
0.187,0.034,0.222,-5.337
0.162,0.032,0.223,-5.337
0.152,0.028,0.222,-5.337
0.150,0.032,0.218,-5.337
0.190,0.035,0.215,-5.337
0.212,0.037,0.218,-5.337
0.218,0.037,0.218,-5.337
0.204,0.035,0.219,-5.337
0.136,0.039,0.217,-5.337
0.097,0.038,0.218,-5.337
0.151,0.035,0.223,-5.337
0.236,0.035,0.227,-5.337
0.239,0.039,0.226,-5.337
0.209,0.039,0.220,-5.337
0.175,0.040,0.216,-5.337
0.207,0.040,0.214,-5.337
0.246,0.040,0.217,-5.337
0.167,0.039,0.221,-5.337
0.127,0.039,0.224,-5.337
0.140,0.036,0.221,-5.337
0.210,0.036,0.222,-5.337
0.255,0.036,0.224,-5.337
0.242,0.039,0.222,-5.337
0.151,0.042,0.217,-5.337
0.117,0.042,0.217,-5.337
0.128,0.040,0.219,-5.337
0.169,0.037,0.217,-5.337
0.177,0.039,0.214,-5.337
0.159,0.039,0.214,-5.337
0.178,0.040,0.216,-5.337
0.209,0.039,0.217,-5.337
0.222,0.039,0.216,-5.337
0.266,0.039,0.219,-5.337
0.292,0.040,0.222,-5.337
0.272,0.043,0.224,-5.337
0.213,0.040,0.224,-5.337
0.227,0.039,0.218,-5.337
0.201,0.041,0.215,-5.337
0.148,0.042,0.219,-5.337
0.085,0.041,0.221,-5.337
0.122,0.041,0.219,-5.337
0.192,0.036,0.220,-5.337
0.182,0.034,0.220,-5.337
0.162,0.035,0.220,-5.337
0.230,0.036,0.218,-5.337
0.338,0.036,0.219,-5.337
0.335,0.033,0.217,-5.337
0.274,0.034,0.215,-5.337
0.245,0.039,0.215,-5.337
0.193,0.040,0.221,-5.337
0.180,0.038,0.224,-5.337
0.182,0.042,0.221,-5.337
0.216,0.040,0.217,-5.337
0.205,0.039,0.214,-5.337
0.189,0.042,0.216,-5.337
0.155,0.044,0.217,-5.337
0.152,0.042,0.217,-5.337
0.153,0.039,0.214,-5.337
0.141,0.041,0.216,-5.337
0.212,0.035,0.219,-5.337
0.219,0.033,0.218,-5.337
0.199,0.037,0.217,-5.337
0.168,0.042,0.218,-5.337
0.127,0.039,0.219,-5.337
0.178,0.037,0.219,-5.337
0.191,0.039,0.217,-5.337
0.175,0.040,0.216,-5.337
0.212,0.041,0.219,-5.337
0.241,0.042,0.222,-5.337
0.224,0.042,0.218,-5.337
0.213,0.042,0.218,-5.337
0.182,0.039,0.216,-5.337
0.175,0.038,0.212,-5.337
0.228,0.037,0.211,-5.337
0.256,0.037,0.217,-5.337
0.224,0.041,0.224,-5.337
0.174,0.045,0.226,-5.337
0.181,0.040,0.223,-5.337
0.247,0.040,0.219,-5.337
0.285,0.038,0.218,-5.337
0.258,0.038,0.220,-5.337
0.192,0.040,0.218,-5.337
0.114,0.043,0.216,-5.337
0.103,0.045,0.214,-5.337
0.198,0.044,0.215,-5.337
0.232,0.042,0.216,-5.337
0.240,0.043,0.218,-5.337
0.264,0.047,0.219,-5.337
0.212,0.046,0.218,-5.337
0.207,0.044,0.222,-5.337
0.234,0.045,0.225,-5.337
0.299,0.045,0.225,-5.337
0.309,0.045,0.219,-5.337
0.337,0.044,0.218,-5.337
0.276,0.046,0.220,-5.337
0.209,0.048,0.219,-5.337
0.169,0.047,0.220,-5.337
0.188,0.047,0.218,-5.337
0.171,0.048,0.215,-5.337
0.142,0.049,0.217,-5.337
0.132,0.048,0.219,-5.337
0.104,0.048,0.218,-5.337
0.118,0.046,0.215,-5.337
0.194,0.047,0.213,-5.337
0.233,0.048,0.217,-5.337
0.230,0.047,0.220,-5.337
0.187,0.049,0.219,-5.337
0.239,0.047,0.218,-5.337
0.240,0.048,0.216,-5.337
0.216,0.048,0.215,-5.337
0.238,0.048,0.220,-5.337
0.214,0.049,0.224,-5.337
0.205,0.052,0.220,-5.337
0.176,0.052,0.218,-5.337
0.142,0.047,0.220,-5.337
0.143,0.051,0.221,-5.337
0.181,0.051,0.220,-5.337
0.209,0.048,0.218,-5.337
0.183,0.051,0.219,-5.337
0.183,0.050,0.217,-5.337
0.185,0.049,0.218,-5.337
0.193,0.050,0.216,-5.337
0.162,0.053,0.220,-5.337
0.224,0.052,0.223,-5.337
0.274,0.056,0.220,-5.337
0.314,0.051,0.218,-5.337
0.277,0.051,0.221,-5.337
0.163,0.054,0.221,-5.337
0.177,0.053,0.223,-5.337
0.218,0.054,0.223,-5.337
0.240,0.051,0.220,-5.337
0.230,0.049,0.218,-5.337
0.237,0.052,0.218,-5.337
0.208,0.054,0.217,-5.337
0.211,0.054,0.219,-5.337
0.231,0.054,0.220,-5.337
0.153,0.054,0.220,-5.337
0.103,0.055,0.217,-5.337
0.163,0.053,0.212,-5.337
0.223,0.048,0.217,-5.337
0.232,0.050,0.223,-5.337
0.232,0.054,0.223,-5.337
0.211,0.055,0.221,-5.337
0.160,0.055,0.224,-5.337
0.155,0.054,0.220,-5.337
0.212,0.052,0.216,-5.337
0.209,0.054,0.215,-5.337
0.206,0.055,0.215,-5.337
0.212,0.057,0.217,-5.337
0.165,0.062,0.219,-5.337
0.255,0.057,0.219,-5.337
0.293,0.056,0.219,-5.337
0.230,0.061,0.222,-5.337
0.157,0.065,0.224,-5.337
0.115,0.063,0.224,-5.337
0.159,0.062,0.223,-5.337
0.168,0.062,0.220,-5.337
0.174,0.058,0.217,-5.337
0.212,0.059,0.214,-5.337
0.304,0.055,0.215,-5.337
0.297,0.053,0.216,-5.337
0.241,0.054,0.215,-5.337
0.228,0.055,0.219,-5.337
0.244,0.054,0.222,-5.337
0.204,0.054,0.221,-5.337
0.160,0.057,0.217,-5.337
0.146,0.058,0.220,-5.337
0.148,0.062,0.224,-5.337
0.148,0.064,0.223,-5.337
0.169,0.061,0.218,-5.337
0.195,0.063,0.217,-5.337
0.218,0.062,0.217,-5.337
0.258,0.060,0.219,-5.337
0.294,0.060,0.221,-5.337
0.310,0.060,0.221,-5.337
0.306,0.061,0.219,-5.337
0.211,0.065,0.219,-5.337
0.212,0.061,0.214,-5.337
0.268,0.059,0.213,-5.337
0.258,0.063,0.216,-5.337
0.242,0.063,0.221,-5.337
0.180,0.066,0.222,-5.337
0.147,0.065,0.222,-5.337
0.156,0.065,0.217,-5.337
0.183,0.065,0.215,-5.337
0.222,0.060,0.216,-5.337
0.284,0.059,0.218,-5.337
0.267,0.059,0.220,-5.337
0.230,0.061,0.220,-5.337
0.242,0.061,0.216,-5.337
0.219,0.061,0.215,-5.337
0.166,0.061,0.218,-5.337
0.146,0.064,0.219,-5.337
0.162,0.065,0.220,-5.337
0.155,0.063,0.224,-5.337
0.180,0.062,0.225,-5.337
0.203,0.061,0.221,-5.337
0.226,0.062,0.218,-5.337
0.210,0.064,0.216,-5.337
0.231,0.061,0.218,-5.337
0.205,0.062,0.221,-5.337
0.167,0.062,0.222,-5.337
0.151,0.065,0.220,-5.337
0.176,0.063,0.217,-5.337
0.217,0.060,0.217,-5.337
0.198,0.063,0.218,-5.337
0.226,0.066,0.215,-5.337
0.256,0.063,0.213,-5.337
0.305,0.060,0.215,-5.337
0.217,0.062,0.216,-5.337
0.142,0.064,0.220,-5.337
0.157,0.070,0.222,-5.337
0.229,0.067,0.224,-5.337
0.227,0.065,0.218,-5.337
0.222,0.064,0.216,-5.337
0.251,0.064,0.215,-5.337
0.253,0.066,0.217,-5.337
0.223,0.062,0.216,-5.337
0.221,0.061,0.217,-5.337
0.259,0.058,0.216,-5.337
0.295,0.057,0.213,-5.337
0.230,0.061,0.214,-5.337
0.194,0.063,0.216,-5.337
0.204,0.059,0.222,-5.337
0.195,0.059,0.226,-5.337
0.149,0.057,0.221,-5.337
0.173,0.059,0.217,-5.337
0.208,0.060,0.217,-5.337
0.132,0.061,0.219,-5.337
0.104,0.055,0.219,-5.337
0.175,0.053,0.217,-5.337
0.208,0.054,0.213,-5.337
0.204,0.055,0.215,-5.337
0.167,0.058,0.218,-5.337
0.210,0.054,0.215,-5.337
0.212,0.056,0.214,-5.337
0.140,0.058,0.217,-5.337
0.142,0.061,0.220,-5.337
0.161,0.062,0.218,-5.337
0.202,0.059,0.217,-5.337
0.199,0.060,0.218,-5.337
0.238,0.061,0.218,-5.337
0.270,0.059,0.218,-5.337
0.171,0.065,0.224,-5.337
0.151,0.065,0.225,-5.337
0.210,0.061,0.222,-5.337
0.193,0.060,0.219,-5.337
0.186,0.064,0.214,-5.337
0.170,0.065,0.214,-5.337
0.185,0.061,0.215,-5.337
0.254,0.061,0.215,-5.337
0.248,0.061,0.214,-5.337
0.251,0.061,0.212,-5.337
0.223,0.064,0.216,-5.337
0.238,0.062,0.220,-5.337
0.251,0.060,0.223,-5.337
0.236,0.057,0.224,-5.337
0.185,0.060,0.220,-5.337
0.156,0.059,0.218,-5.337
0.191,0.059,0.214,-5.337
0.253,0.059,0.209,-5.337
0.233,0.062,0.207,-5.337
0.196,0.063,0.212,-5.337
0.164,0.059,0.214,-5.337
0.168,0.059,0.217,-5.337
0.183,0.058,0.220,-5.337
0.232,0.059,0.222,-5.337
0.260,0.060,0.220,-5.337
0.290,0.058,0.218,-5.337
0.258,0.057,0.217,-5.337
0.163,0.059,0.219,-5.337
0.104,0.060,0.218,-5.337
0.130,0.060,0.215,-5.337
0.158,0.060,0.215,-5.337
0.163,0.060,0.217,-5.337
0.109,0.061,0.224,-5.337
0.102,0.059,0.229,-5.337
0.155,0.055,0.221,-5.337
0.162,0.062,0.215,-5.337
0.148,0.062,0.213,-5.337
0.150,0.061,0.219,-5.337
0.169,0.061,0.225,-5.337
0.170,0.059,0.222,-5.337
0.208,0.057,0.215,-5.337
0.201,0.055,0.210,-5.337
0.149,0.056,0.209,-5.337
0.160,0.058,0.213,-5.337
0.236,0.056,0.215,-5.337
0.301,0.053,0.215,-5.337
0.285,0.051,0.216,-5.337
0.218,0.052,0.216,-5.337
0.216,0.055,0.217,-5.337
0.270,0.055,0.219,-5.337
0.281,0.055,0.224,-5.337
0.225,0.054,0.223,-5.337
0.148,0.057,0.218,-5.337
0.163,0.055,0.214,-5.337
0.188,0.058,0.218,-5.337
0.214,0.057,0.220,-5.337
0.244,0.054,0.220,-5.337
0.227,0.050,0.219,-5.337
0.210,0.050,0.221,-5.337
0.221,0.049,0.220,-5.337
0.293,0.047,0.216,-5.337
0.280,0.048,0.216,-5.337
0.150,0.053,0.222,-5.337
0.158,0.053,0.224,-5.337
0.235,0.048,0.222,-5.337
0.183,0.047,0.218,-5.337
0.121,0.050,0.216,-5.337
0.119,0.052,0.215,-5.337
0.158,0.050,0.215,-5.337
0.262,0.047,0.215,-5.337
0.284,0.045,0.214,-5.337
0.234,0.045,0.213,-5.337
0.195,0.045,0.214,-5.337
0.185,0.053,0.221,-5.337
0.165,0.054,0.225,-5.337
0.222,0.055,0.224,-5.337
0.214,0.055,0.220,-5.337
0.129,0.053,0.217,-5.337
0.048,0.053,0.215,-5.337
0.083,0.054,0.215,-5.337
0.087,0.054,0.215,-5.337
0.051,0.056,0.216,-5.337
0.119,0.053,0.216,-5.337
0.198,0.052,0.215,-5.337
0.162,0.050,0.213,-5.337
0.151,0.049,0.212,-5.337
0.166,0.053,0.215,-5.337
0.147,0.053,0.218,-5.337
0.165,0.050,0.221,-5.337
0.147,0.049,0.223,-5.337
0.165,0.050,0.222,-5.337
0.201,0.047,0.221,-5.337
0.242,0.046,0.223,-5.337
0.282,0.046,0.223,-5.337
0.299,0.043,0.223,-5.337
0.280,0.045,0.221,-5.337
0.245,0.048,0.219,-5.337
0.200,0.050,0.216,-5.337
0.170,0.048,0.215,-5.337
0.223,0.046,0.214,-5.337
0.228,0.044,0.216,-5.337
0.175,0.046,0.218,-5.337
0.184,0.044,0.218,-5.337
0.261,0.042,0.218,-5.337
0.233,0.047,0.217,-5.337
0.206,0.046,0.217,-5.337
0.213,0.045,0.218,-5.337
0.250,0.042,0.218,-5.337
0.257,0.043,0.218,-5.337
0.204,0.043,0.220,-5.337
0.234,0.043,0.217,-5.337
0.233,0.043,0.213,-5.337
0.212,0.042,0.216,-5.337
0.219,0.042,0.221,-5.337
0.217,0.042,0.222,-5.337
0.210,0.042,0.218,-5.337
0.247,0.041,0.218,-5.337
0.295,0.041,0.220,-5.337
0.267,0.038,0.219,-5.337
0.195,0.040,0.217,-5.337
0.182,0.037,0.218,-5.337
0.217,0.039,0.220,-5.337
0.205,0.041,0.221,-5.337
0.094,0.044,0.222,-5.337
0.043,0.046,0.222,-5.337
0.090,0.045,0.222,-5.337
0.124,0.042,0.220,-5.337
0.173,0.038,0.216,-5.337
0.267,0.040,0.216,-5.337
0.190,0.044,0.216,-5.337
0.145,0.040,0.217,-5.337
0.200,0.039,0.222,-5.337
0.251,0.038,0.225,-5.337
0.236,0.037,0.224,-5.337
0.221,0.037,0.222,-5.337
0.200,0.039,0.221,-5.337
0.155,0.041,0.221,-5.337
0.111,0.043,0.218,-5.337
0.115,0.041,0.217,-5.337
0.099,0.039,0.214,-5.337
0.098,0.039,0.215,-5.337
0.137,0.043,0.216,-5.337
0.132,0.044,0.220,-5.337
0.170,0.039,0.218,-5.337
0.230,0.037,0.218,-5.337
0.215,0.039,0.220,-5.337
0.174,0.042,0.221,-5.337
0.199,0.039,0.222,-5.337
0.217,0.038,0.224,-5.337
0.205,0.037,0.225,-5.337
0.150,0.040,0.226,-5.337
0.137,0.042,0.223,-5.337
0.147,0.042,0.217,-5.337
0.158,0.038,0.214,-5.337
0.190,0.035,0.218,-5.337
0.188,0.039,0.220,-5.337
0.197,0.043,0.219,-5.337
0.187,0.040,0.218,-5.337
0.186,0.039,0.215,-5.337
0.170,0.040,0.214,-5.337
0.162,0.043,0.217,-5.337
0.109,0.045,0.220,-5.337
0.105,0.043,0.224,-5.337
0.181,0.040,0.224,-5.337
0.242,0.040,0.222,-5.337
0.196,0.042,0.220,-5.337
0.198,0.043,0.219,-5.337
0.230,0.041,0.221,-5.337
0.184,0.040,0.222,-5.337
0.192,0.037,0.222,-5.337
0.143,0.037,0.216,-5.337
0.104,0.038,0.214,-5.337
0.162,0.035,0.215,-5.337
0.265,0.035,0.220,-5.337
0.243,0.035,0.218,-5.337
0.226,0.035,0.216,-5.337
0.180,0.034,0.219,-5.337
0.192,0.037,0.222,-5.337
0.217,0.035,0.221,-5.337
0.224,0.035,0.219,-5.337
0.158,0.038,0.221,-5.337
0.093,0.039,0.226,-5.337
0.097,0.040,0.225,-5.337
0.129,0.041,0.223,-5.337
0.159,0.043,0.222,-5.337
0.123,0.042,0.218,-5.337
0.070,0.043,0.217,-5.337
0.114,0.043,0.220,-5.337
0.202,0.039,0.222,-5.337
0.206,0.041,0.220,-5.337
0.133,0.042,0.221,-5.337
0.129,0.041,0.220,-5.337
0.132,0.040,0.223,-5.337
0.154,0.042,0.220,-5.337
0.163,0.043,0.215,-5.337
0.155,0.042,0.214,-5.337
0.197,0.041,0.220,-5.337
0.264,0.039,0.223,-5.337
0.245,0.040,0.223,-5.337
0.213,0.040,0.220,-5.337
0.103,0.042,0.218,-5.337
0.109,0.040,0.216,-5.337
0.165,0.041,0.217,-5.337
0.164,0.039,0.217,-5.337
0.216,0.037,0.219,-5.337
0.237,0.038,0.220,-5.337
0.200,0.040,0.225,-5.337
0.126,0.041,0.225,-5.337
0.149,0.034,0.224,-5.337
0.197,0.032,0.222,-5.337
0.175,0.036,0.221,-5.337
0.151,0.037,0.221,-5.337
0.216,0.034,0.223,-5.337
0.267,0.032,0.222,-5.337
0.253,0.032,0.218,-5.337
0.219,0.037,0.217,-5.337
0.159,0.038,0.218,-5.337
0.177,0.039,0.220,-5.337
0.183,0.039,0.221,-5.337
0.170,0.039,0.220,-5.337
0.167,0.039,0.218,-5.337
0.215,0.038,0.220,-5.337
0.233,0.038,0.219,-5.337
0.201,0.038,0.217,-5.337
0.177,0.036,0.219,-5.337
0.183,0.037,0.223,-5.337
0.204,0.036,0.225,-5.337
0.213,0.038,0.222,-5.337
0.172,0.040,0.216,-5.337
0.169,0.044,0.215,-5.337
0.161,0.045,0.214,-5.337
0.183,0.043,0.214,-5.337
0.159,0.042,0.216,-5.337
0.108,0.043,0.221,-5.337
0.134,0.039,0.225,-5.337
0.184,0.042,0.224,-5.337
0.164,0.042,0.222,-5.337
0.156,0.038,0.224,-5.337
0.155,0.038,0.227,-5.337
0.242,0.036,0.222,-5.337
0.243,0.036,0.220,-5.337
0.155,0.035,0.221,-5.337
0.175,0.037,0.224,-5.337
0.201,0.040,0.222,-5.337
0.205,0.039,0.221,-5.337
0.205,0.035,0.217,-5.337
0.213,0.037,0.215,-5.337
0.211,0.037,0.216,-5.337
0.192,0.034,0.220,-5.337
0.172,0.035,0.219,-5.337
0.166,0.038,0.217,-5.337
0.147,0.041,0.218,-5.337
0.072,0.042,0.221,-5.337
0.097,0.042,0.222,-5.337
0.153,0.041,0.221,-5.337
0.112,0.044,0.219,-5.337
0.081,0.046,0.218,-5.337
0.156,0.043,0.221,-5.337
0.213,0.040,0.221,-5.337
0.176,0.039,0.219,-5.337
0.140,0.042,0.217,-5.337
0.164,0.042,0.219,-5.337
0.203,0.037,0.223,-5.337
0.215,0.037,0.226,-5.337
0.202,0.037,0.222,-5.337
0.267,0.038,0.222,-5.337
0.319,0.037,0.219,-5.337
0.223,0.038,0.221,-5.337
0.062,0.039,0.219,-5.337
0.033,0.041,0.216,-5.337
0.189,0.036,0.215,-5.337
0.245,0.037,0.219,-5.337
0.185,0.040,0.220,-5.337
0.209,0.041,0.219,-5.337
0.259,0.039,0.216,-5.337
0.270,0.037,0.219,-5.337
0.207,0.038,0.224,-5.337
0.185,0.037,0.221,-5.337
0.260,0.037,0.215,-5.337
0.270,0.040,0.217,-5.337
0.266,0.040,0.219,-5.337
0.238,0.037,0.221,-5.337
0.216,0.036,0.223,-5.337
0.211,0.032,0.219,-5.337
0.201,0.037,0.216,-5.337
0.164,0.039,0.221,-5.337
0.168,0.037,0.226,-5.337
0.207,0.039,0.223,-5.337
0.240,0.040,0.219,-5.337
0.210,0.037,0.214,-5.337
0.158,0.036,0.216,-5.337
0.121,0.038,0.222,-5.337
0.156,0.043,0.223,-5.337
0.185,0.041,0.219,-5.337
0.187,0.038,0.218,-5.337
0.178,0.040,0.220,-5.337
0.199,0.038,0.221,-5.337
0.251,0.036,0.222,-5.337
0.257,0.040,0.221,-5.337
0.266,0.040,0.220,-5.337
0.228,0.041,0.222,-5.337
0.191,0.042,0.222,-5.337
0.186,0.045,0.221,-5.337
0.186,0.045,0.217,-5.337
0.187,0.043,0.216,-5.337
0.158,0.042,0.215,-5.337
0.091,0.043,0.216,-5.337
0.162,0.039,0.217,-5.337
0.198,0.041,0.219,-5.337
0.203,0.040,0.218,-5.337
0.188,0.041,0.216,-5.337
0.138,0.042,0.218,-5.337
0.128,0.044,0.222,-5.337
0.170,0.041,0.223,-5.337
0.212,0.040,0.220,-5.337
0.169,0.040,0.218,-5.337
0.152,0.043,0.216,-5.337
0.178,0.044,0.217,-5.337
0.181,0.045,0.217,-5.337
0.194,0.045,0.222,-5.337
0.253,0.042,0.220,-5.337
0.278,0.045,0.216,-5.337
0.203,0.045,0.216,-5.337
0.177,0.046,0.219,-5.337
0.262,0.046,0.221,-5.337
0.244,0.048,0.221,-5.337
0.185,0.045,0.220,-5.337
0.125,0.041,0.218,-5.337
0.139,0.043,0.217,-5.337
0.141,0.042,0.218,-5.337
0.142,0.042,0.223,-5.337
0.127,0.043,0.222,-5.337
0.125,0.043,0.220,-5.337
0.159,0.043,0.221,-5.337
0.219,0.045,0.220,-5.337
0.189,0.044,0.218,-5.337
0.129,0.044,0.221,-5.337
0.148,0.047,0.219,-5.337
0.205,0.045,0.215,-5.337
0.197,0.042,0.210,-5.337
0.194,0.041,0.213,-5.337
0.292,0.039,0.219,-5.337
0.378,0.036,0.225,-5.337
0.302,0.036,0.219,-5.337
0.178,0.040,0.216,-5.337
0.114,0.043,0.213,-5.337
0.126,0.045,0.214,-5.337
0.203,0.047,0.219,-5.337
0.256,0.049,0.223,-5.337
0.193,0.046,0.220,-5.337
0.162,0.045,0.219,-5.337
0.237,0.041,0.221,-5.337
0.226,0.041,0.224,-5.337
0.198,0.042,0.222,-5.337
0.193,0.043,0.220,-5.337
0.169,0.043,0.217,-5.337
0.209,0.046,0.217,-5.337
0.230,0.049,0.219,-5.337
0.154,0.045,0.218,-5.337
0.105,0.045,0.219,-5.337
0.146,0.047,0.221,-5.337
0.156,0.049,0.221,-5.337
0.168,0.047,0.219,-5.337
0.178,0.044,0.222,-5.337
0.184,0.041,0.224,-5.337
0.252,0.042,0.224,-5.337
0.280,0.046,0.219,-5.337
0.250,0.046,0.218,-5.337
0.249,0.048,0.217,-5.337
0.280,0.048,0.217,-5.337
0.257,0.048,0.218,-5.337
0.229,0.047,0.220,-5.337
0.216,0.045,0.218,-5.337
0.217,0.048,0.216,-5.337
0.139,0.053,0.217,-5.337
0.130,0.051,0.219,-5.337
0.196,0.048,0.218,-5.337
0.202,0.052,0.221,-5.337
0.130,0.050,0.227,-5.337
0.125,0.050,0.223,-5.337
0.184,0.053,0.220,-5.337
0.168,0.055,0.220,-5.337
0.163,0.050,0.219,-5.337
0.209,0.047,0.219,-5.337
0.246,0.049,0.224,-5.337
0.188,0.054,0.224,-5.337
0.191,0.054,0.219,-5.337
0.189,0.050,0.217,-5.337
0.239,0.048,0.219,-5.337
0.318,0.049,0.222,-5.337
0.329,0.053,0.223,-5.337
0.220,0.052,0.221,-5.337
0.146,0.054,0.218,-5.337
0.164,0.055,0.219,-5.337
0.200,0.052,0.219,-5.337
0.208,0.054,0.220,-5.337
0.155,0.056,0.221,-5.337
0.182,0.052,0.218,-5.337
0.232,0.049,0.216,-5.337
0.236,0.051,0.216,-5.337
0.172,0.052,0.217,-5.337
0.080,0.055,0.222,-5.337
0.096,0.052,0.221,-5.337
0.170,0.050,0.219,-5.337
0.209,0.054,0.219,-5.337
0.227,0.056,0.222,-5.337
0.159,0.058,0.222,-5.337
0.147,0.056,0.225,-5.337
0.191,0.053,0.221,-5.337
0.181,0.049,0.218,-5.337
0.205,0.054,0.215,-5.337
0.237,0.053,0.214,-5.337
0.183,0.052,0.216,-5.337
0.110,0.056,0.223,-5.337
0.152,0.057,0.225,-5.337
0.245,0.058,0.226,-5.337
0.261,0.059,0.224,-5.337
0.252,0.062,0.223,-5.337
0.188,0.062,0.224,-5.337
0.190,0.058,0.224,-5.337
0.219,0.055,0.219,-5.337
0.193,0.057,0.217,-5.337
0.265,0.055,0.218,-5.337
0.304,0.058,0.220,-5.337
0.278,0.056,0.221,-5.337
0.293,0.055,0.221,-5.337
0.219,0.055,0.222,-5.337
0.204,0.055,0.221,-5.337
0.226,0.057,0.219,-5.337
0.213,0.057,0.217,-5.337
0.239,0.056,0.217,-5.337
0.268,0.056,0.219,-5.337
0.285,0.054,0.218,-5.337
0.260,0.056,0.218,-5.337
0.181,0.057,0.218,-5.337
0.129,0.060,0.220,-5.337
0.109,0.061,0.225,-5.337
0.182,0.060,0.227,-5.337
0.295,0.058,0.229,-5.337
0.290,0.057,0.225,-5.337
0.162,0.060,0.224,-5.337
0.143,0.057,0.218,-5.337
0.172,0.058,0.215,-5.337
0.182,0.057,0.218,-5.337
0.178,0.056,0.223,-5.337
0.217,0.054,0.220,-5.337
0.222,0.058,0.217,-5.337
0.194,0.058,0.218,-5.337
0.147,0.056,0.220,-5.337
0.109,0.055,0.221,-5.337
0.163,0.059,0.223,-5.337
0.235,0.058,0.221,-5.337
0.246,0.057,0.219,-5.337
0.233,0.062,0.218,-5.337
0.199,0.063,0.221,-5.337
0.158,0.060,0.222,-5.337
0.156,0.060,0.220,-5.337
0.219,0.059,0.219,-5.337
0.271,0.058,0.219,-5.337
0.295,0.055,0.219,-5.337
0.246,0.058,0.220,-5.337
0.204,0.056,0.224,-5.337
0.235,0.054,0.222,-5.337
0.284,0.053,0.220,-5.337
0.235,0.056,0.218,-5.337
0.222,0.056,0.219,-5.337
0.230,0.055,0.221,-5.337
0.211,0.054,0.221,-5.337
0.213,0.056,0.220,-5.337
0.222,0.058,0.222,-5.337
0.238,0.056,0.222,-5.337
0.264,0.058,0.223,-5.337
0.234,0.058,0.222,-5.337
0.204,0.057,0.219,-5.337
0.227,0.055,0.219,-5.337
0.210,0.059,0.223,-5.337
0.135,0.059,0.222,-5.337
0.202,0.052,0.221,-5.337
0.288,0.052,0.217,-5.337
0.277,0.053,0.214,-5.337
0.227,0.054,0.215,-5.337
0.247,0.054,0.220,-5.337
0.246,0.054,0.222,-5.337
0.222,0.056,0.221,-5.337
0.231,0.054,0.221,-5.337
0.238,0.055,0.217,-5.337
0.177,0.054,0.220,-5.337
0.190,0.055,0.222,-5.337
0.213,0.058,0.222,-5.337
0.218,0.056,0.220,-5.337
0.163,0.056,0.220,-5.337
0.080,0.059,0.218,-5.337
0.077,0.059,0.218,-5.337
0.151,0.056,0.220,-5.337
0.250,0.054,0.220,-5.337
0.265,0.057,0.219,-5.337
0.205,0.058,0.221,-5.337
0.186,0.055,0.220,-5.337
0.185,0.057,0.218,-5.337
0.149,0.061,0.217,-5.337
0.157,0.059,0.218,-5.337
0.166,0.057,0.218,-5.337
0.156,0.060,0.218,-5.337
0.153,0.068,0.220,-5.337
0.164,0.066,0.218,-5.337
0.211,0.059,0.219,-5.337
0.256,0.056,0.217,-5.337
0.239,0.059,0.214,-5.337
0.267,0.061,0.215,-5.337
0.270,0.060,0.220,-5.337
0.267,0.056,0.221,-5.337
0.208,0.056,0.221,-5.337
0.219,0.056,0.218,-5.337
0.221,0.052,0.219,-5.337
0.187,0.053,0.218,-5.337
0.155,0.057,0.220,-5.337
0.189,0.056,0.224,-5.337
0.174,0.058,0.222,-5.337
0.090,0.058,0.216,-5.337
0.132,0.057,0.215,-5.337
0.237,0.053,0.217,-5.337
0.211,0.056,0.217,-5.337
0.189,0.060,0.218,-5.337
0.226,0.061,0.223,-5.337
0.216,0.058,0.223,-5.337
0.167,0.055,0.219,-5.337
0.118,0.055,0.217,-5.337
0.146,0.056,0.220,-5.337
0.205,0.055,0.220,-5.337
0.202,0.053,0.214,-5.337
0.181,0.052,0.214,-5.337
0.182,0.053,0.217,-5.337
0.213,0.053,0.223,-5.337
0.195,0.056,0.224,-5.337
0.180,0.056,0.219,-5.337
0.278,0.056,0.215,-5.337
0.296,0.052,0.215,-5.337
0.264,0.051,0.215,-5.337
0.192,0.054,0.218,-5.337
0.174,0.051,0.222,-5.337
0.232,0.050,0.220,-5.337
0.244,0.050,0.218,-5.337
0.218,0.052,0.216,-5.337
0.165,0.054,0.215,-5.337
0.185,0.048,0.217,-5.337
0.229,0.048,0.219,-5.337
0.194,0.050,0.218,-5.337
0.170,0.051,0.216,-5.337
0.149,0.047,0.218,-5.337
0.221,0.041,0.222,-5.337
0.288,0.041,0.221,-5.337
0.253,0.045,0.220,-5.337
0.203,0.048,0.220,-5.337
0.207,0.047,0.219,-5.337
0.215,0.047,0.217,-5.337
0.187,0.046,0.216,-5.337
0.193,0.045,0.213,-5.337
0.238,0.044,0.214,-5.337
0.249,0.046,0.216,-5.337
0.238,0.050,0.224,-5.337
0.171,0.053,0.231,-5.337
0.122,0.054,0.230,-5.337
0.199,0.050,0.221,-5.337
0.187,0.050,0.218,-5.337
0.138,0.049,0.214,-5.337
0.219,0.049,0.215,-5.337
0.233,0.047,0.214,-5.337
0.195,0.052,0.216,-5.337
0.085,0.053,0.218,-5.337
0.092,0.050,0.221,-5.337
0.229,0.044,0.223,-5.337
0.234,0.051,0.223,-5.337
0.138,0.053,0.224,-5.337
0.193,0.049,0.221,-5.337
0.243,0.048,0.217,-5.337
0.232,0.049,0.212,-5.337
0.209,0.050,0.210,-5.337
0.238,0.049,0.212,-5.337
0.182,0.049,0.213,-5.337
0.149,0.049,0.216,-5.337
0.164,0.048,0.217,-5.337
0.183,0.043,0.218,-5.337
0.215,0.040,0.216,-5.337
0.226,0.041,0.212,-5.337
0.223,0.042,0.215,-5.337
0.199,0.043,0.219,-5.337
0.183,0.045,0.224,-5.337
0.120,0.047,0.223,-5.337
0.144,0.050,0.220,-5.337
0.213,0.047,0.213,-5.337
0.185,0.052,0.212,-5.337
0.139,0.051,0.214,-5.337
0.114,0.049,0.220,-5.337
0.123,0.040,0.222,-5.337
0.176,0.040,0.221,-5.337
0.239,0.041,0.222,-5.337
0.263,0.043,0.225,-5.337
0.185,0.043,0.222,-5.337
0.201,0.040,0.218,-5.337
0.265,0.040,0.213,-5.337
0.265,0.042,0.213,-5.337
0.200,0.046,0.215,-5.337
0.139,0.049,0.217,-5.337
0.062,0.051,0.218,-5.337
0.095,0.049,0.219,-5.337
0.175,0.043,0.221,-5.337
0.189,0.045,0.221,-5.337
0.225,0.042,0.217,-5.337
0.257,0.041,0.213,-5.337
0.212,0.042,0.214,-5.337
0.159,0.040,0.215,-5.337
0.174,0.042,0.216,-5.337
0.198,0.042,0.215,-5.337
0.289,0.041,0.217,-5.337
0.303,0.040,0.219,-5.337
0.210,0.039,0.220,-5.337
0.147,0.036,0.218,-5.337
0.107,0.040,0.216,-5.337
0.112,0.040,0.218,-5.337
0.131,0.036,0.217,-5.337
0.168,0.034,0.218,-5.337
0.213,0.038,0.218,-5.337
0.191,0.040,0.218,-5.337
0.193,0.036,0.221,-5.337
0.181,0.036,0.222,-5.337
0.208,0.039,0.220,-5.337
0.209,0.042,0.215,-5.337
0.214,0.039,0.214,-5.337
0.190,0.038,0.214,-5.337
0.188,0.040,0.216,-5.337
0.203,0.041,0.219,-5.337
0.265,0.039,0.221,-5.337
0.236,0.036,0.225,-5.337
0.174,0.035,0.224,-5.337
0.182,0.036,0.223,-5.337
0.172,0.034,0.214,-5.337
0.116,0.035,0.211,-5.337
0.106,0.035,0.211,-5.337
0.114,0.037,0.216,-5.337
0.094,0.036,0.217,-5.337
0.119,0.035,0.216,-5.337
0.159,0.035,0.214,-5.337
0.169,0.036,0.217,-5.337
0.137,0.035,0.219,-5.337
0.079,0.039,0.221,-5.337
0.133,0.037,0.219,-5.337
0.212,0.033,0.216,-5.337
0.247,0.030,0.215,-5.337
0.206,0.030,0.219,-5.337
0.135,0.035,0.221,-5.337
0.158,0.032,0.222,-5.337
0.180,0.031,0.215,-5.337
0.147,0.032,0.214,-5.337
0.149,0.034,0.220,-5.337
0.185,0.034,0.222,-5.337
0.270,0.033,0.220,-5.337
0.320,0.032,0.214,-5.337
0.321,0.032,0.215,-5.337
0.261,0.034,0.218,-5.337
0.176,0.038,0.222,-5.337
0.204,0.039,0.222,-5.337
0.238,0.042,0.226,-5.337
0.202,0.039,0.225,-5.337
0.158,0.037,0.222,-5.337
0.239,0.035,0.219,-5.337
0.333,0.036,0.213,-5.337
0.266,0.034,0.209,-5.337
0.150,0.034,0.212,-5.337
0.181,0.031,0.219,-5.337
0.233,0.030,0.224,-5.337
0.200,0.029,0.222,-5.337
0.136,0.029,0.221,-5.337
0.204,0.027,0.216,-5.337
0.233,0.030,0.211,-5.337
0.197,0.033,0.211,-5.337
0.114,0.035,0.218,-5.337
0.171,0.033,0.222,-5.337
0.230,0.033,0.222,-5.337
0.157,0.034,0.222,-5.337
0.130,0.033,0.224,-5.337
0.180,0.033,0.226,-5.337
0.199,0.036,0.224,-5.337
0.190,0.037,0.222,-5.337
0.212,0.033,0.219,-5.337
0.272,0.031,0.218,-5.337
0.200,0.032,0.217,-5.337
0.139,0.032,0.217,-5.337
0.186,0.030,0.218,-5.337
0.159,0.031,0.216,-5.337
0.118,0.031,0.216,-5.337
0.105,0.036,0.217,-5.337
0.131,0.039,0.217,-5.337
0.131,0.040,0.218,-5.337
0.146,0.034,0.218,-5.337
0.217,0.033,0.220,-5.337
0.185,0.036,0.220,-5.337
0.144,0.040,0.217,-5.337
0.149,0.040,0.217,-5.337
0.163,0.036,0.216,-5.337
0.183,0.034,0.217,-5.337
0.227,0.036,0.217,-5.337
0.230,0.035,0.218,-5.337
0.240,0.038,0.221,-5.337
0.226,0.038,0.225,-5.337
0.208,0.037,0.222,-5.337
0.219,0.037,0.219,-5.337
0.219,0.037,0.218,-5.337
0.156,0.037,0.219,-5.337
0.063,0.037,0.217,-5.337
0.064,0.038,0.215,-5.337
0.172,0.036,0.219,-5.337
0.184,0.035,0.223,-5.337
0.152,0.034,0.220,-5.337
0.185,0.034,0.216,-5.337
0.262,0.036,0.216,-5.337
0.206,0.039,0.217,-5.337
0.189,0.039,0.218,-5.337
0.183,0.036,0.217,-5.337
0.182,0.035,0.219,-5.337
0.205,0.032,0.221,-5.337
0.188,0.034,0.219,-5.337
0.229,0.030,0.217,-5.337
0.213,0.029,0.217,-5.337
0.174,0.033,0.220,-5.337
0.147,0.036,0.219,-5.337
0.146,0.033,0.220,-5.337
0.167,0.033,0.219,-5.337
0.180,0.033,0.216,-5.337
0.240,0.031,0.217,-5.337
0.285,0.033,0.220,-5.337
0.244,0.035,0.222,-5.337
0.167,0.033,0.221,-5.337
0.210,0.030,0.220,-5.337
0.259,0.032,0.217,-5.337
0.200,0.036,0.219,-5.337
0.200,0.035,0.219,-5.337
0.227,0.032,0.220,-5.337
0.195,0.034,0.218,-5.337
0.197,0.036,0.217,-5.337
0.216,0.035,0.219,-5.337
0.229,0.033,0.222,-5.337
0.191,0.032,0.223,-5.337
0.244,0.035,0.227,-5.337
0.281,0.033,0.224,-5.337
0.178,0.035,0.217,-5.337
0.178,0.035,0.215,-5.337
0.155,0.039,0.217,-5.337
0.155,0.039,0.218,-5.337
0.176,0.039,0.217,-5.337
0.225,0.035,0.217,-5.337
0.300,0.030,0.218,-5.337
0.247,0.032,0.220,-5.337
0.149,0.034,0.219,-5.337
0.141,0.038,0.220,-5.337
0.224,0.036,0.220,-5.337
0.237,0.033,0.222,-5.337
0.204,0.035,0.220,-5.337
0.249,0.033,0.215,-5.337
0.220,0.033,0.213,-5.337
0.200,0.035,0.219,-5.337
0.226,0.036,0.223,-5.337
0.192,0.036,0.223,-5.337
0.173,0.035,0.219,-5.337
0.084,0.039,0.220,-5.337
0.143,0.038,0.221,-5.337
0.248,0.036,0.223,-5.337
0.215,0.036,0.225,-5.337
0.179,0.032,0.224,-5.337
0.167,0.036,0.219,-5.337
0.211,0.036,0.216,-5.337
0.261,0.033,0.216,-5.337
0.270,0.033,0.217,-5.337
0.201,0.038,0.220,-5.337
0.114,0.041,0.219,-5.337
0.123,0.040,0.218,-5.337
0.199,0.037,0.214,-5.337
0.208,0.035,0.212,-5.337
0.157,0.037,0.215,-5.337
0.175,0.037,0.221,-5.337
0.209,0.038,0.221,-5.337
0.186,0.037,0.221,-5.337
0.129,0.037,0.220,-5.337
0.115,0.040,0.219,-5.337
0.158,0.038,0.217,-5.337
0.205,0.037,0.213,-5.337
0.194,0.038,0.215,-5.337
0.118,0.038,0.218,-5.337
0.214,0.035,0.219,-5.337
0.318,0.033,0.222,-5.337
0.245,0.040,0.220,-5.337
0.217,0.042,0.219,-5.337
0.220,0.043,0.217,-5.337
0.213,0.045,0.215,-5.337
0.125,0.045,0.216,-5.337
0.095,0.045,0.217,-5.337
0.155,0.043,0.220,-5.337
0.170,0.043,0.222,-5.337
0.209,0.045,0.222,-5.337
0.178,0.047,0.222,-5.337
0.174,0.041,0.223,-5.337
0.264,0.038,0.217,-5.337
0.281,0.042,0.216,-5.337
0.202,0.045,0.217,-5.337
0.199,0.044,0.220,-5.337
0.204,0.042,0.218,-5.337
0.147,0.042,0.217,-5.337
0.190,0.040,0.216,-5.337
0.255,0.042,0.217,-5.337
0.228,0.043,0.218,-5.337
0.238,0.042,0.217,-5.337
0.246,0.039,0.214,-5.337
0.260,0.038,0.212,-5.337
0.198,0.039,0.213,-5.337
0.166,0.043,0.214,-5.337
0.204,0.042,0.218,-5.337
0.286,0.044,0.220,-5.337
0.273,0.043,0.221,-5.337
0.183,0.047,0.221,-5.337
0.144,0.044,0.216,-5.337
0.126,0.044,0.212,-5.337
0.072,0.050,0.213,-5.337
0.074,0.052,0.218,-5.337
0.162,0.046,0.224,-5.337
0.187,0.043,0.226,-5.337
0.176,0.040,0.224,-5.337
0.229,0.042,0.220,-5.337
0.262,0.043,0.218,-5.337
0.223,0.043,0.216,-5.337
0.164,0.044,0.219,-5.337
0.236,0.042,0.221,-5.337
0.296,0.040,0.222,-5.337
0.236,0.039,0.220,-5.337
0.180,0.043,0.217,-5.337
0.186,0.041,0.212,-5.337
0.252,0.042,0.215,-5.337
0.312,0.042,0.216,-5.337
0.318,0.044,0.220,-5.337
0.236,0.045,0.224,-5.337
0.108,0.045,0.224,-5.337
0.095,0.041,0.223,-5.337
0.202,0.038,0.223,-5.337
0.301,0.040,0.220,-5.337
0.306,0.045,0.216,-5.337
0.190,0.047,0.214,-5.337
0.177,0.043,0.217,-5.337
0.226,0.041,0.218,-5.337
0.315,0.040,0.218,-5.337
0.321,0.041,0.216,-5.337
0.288,0.042,0.216,-5.337
0.258,0.040,0.217,-5.337
0.212,0.043,0.218,-5.337
0.185,0.043,0.217,-5.337
0.242,0.042,0.213,-5.337
0.276,0.041,0.213,-5.337
0.196,0.044,0.216,-5.337
0.105,0.046,0.221,-5.337
0.127,0.044,0.220,-5.337
0.155,0.043,0.219,-5.337
0.198,0.042,0.217,-5.337
0.144,0.045,0.219,-5.337
0.120,0.045,0.220,-5.337
0.168,0.045,0.220,-5.337
0.126,0.047,0.218,-5.337
0.125,0.051,0.215,-5.337
0.154,0.050,0.213,-5.337
0.199,0.048,0.215,-5.337
0.198,0.048,0.216,-5.337
0.177,0.049,0.219,-5.337
0.184,0.047,0.223,-5.337
0.199,0.048,0.221,-5.337
0.221,0.049,0.218,-5.337
0.223,0.049,0.214,-5.337
0.273,0.049,0.213,-5.337
0.253,0.053,0.213,-5.337
0.235,0.050,0.212,-5.337
0.221,0.047,0.213,-5.337
0.198,0.048,0.219,-5.337
0.120,0.051,0.220,-5.337
0.181,0.050,0.220,-5.337
0.301,0.046,0.220,-5.337
0.222,0.049,0.222,-5.337
0.183,0.051,0.220,-5.337
0.249,0.050,0.219,-5.337
0.245,0.047,0.217,-5.337
0.239,0.051,0.217,-5.337
0.226,0.051,0.217,-5.337
0.178,0.054,0.217,-5.337
0.170,0.051,0.218,-5.337
0.219,0.050,0.218,-5.337
0.251,0.049,0.215,-5.337
0.233,0.051,0.215,-5.337
0.158,0.052,0.216,-5.337
0.117,0.051,0.218,-5.337
0.119,0.052,0.218,-5.337
0.194,0.053,0.214,-5.337
0.259,0.050,0.212,-5.337
0.317,0.049,0.212,-5.337
0.254,0.050,0.217,-5.337
0.183,0.049,0.219,-5.337
0.211,0.046,0.222,-5.337
0.181,0.049,0.219,-5.337
0.195,0.051,0.218,-5.337
0.166,0.054,0.218,-5.337
0.167,0.053,0.220,-5.337
0.155,0.051,0.216,-5.337
0.164,0.051,0.217,-5.337
0.220,0.049,0.219,-5.337
0.237,0.052,0.220,-5.337
0.255,0.051,0.220,-5.337
0.201,0.053,0.218,-5.337
0.153,0.054,0.220,-5.337
0.192,0.053,0.219,-5.337
0.244,0.048,0.216,-5.337
0.232,0.051,0.218,-5.337
0.122,0.056,0.216,-5.337
0.122,0.056,0.216,-5.337
0.198,0.055,0.218,-5.337
0.223,0.054,0.219,-5.337
0.213,0.051,0.220,-5.337
0.267,0.052,0.220,-5.337
0.260,0.057,0.223,-5.337
0.211,0.059,0.220,-5.337
0.230,0.053,0.217,-5.337
0.272,0.049,0.213,-5.337
0.297,0.052,0.214,-5.337
0.286,0.053,0.217,-5.337
0.302,0.051,0.219,-5.337
0.331,0.053,0.216,-5.337
0.246,0.055,0.218,-5.337
0.186,0.054,0.219,-5.337
0.220,0.051,0.220,-5.337
0.236,0.051,0.220,-5.337
0.269,0.055,0.220,-5.337
0.235,0.056,0.219,-5.337
0.216,0.053,0.220,-5.337
0.197,0.054,0.220,-5.337
0.174,0.053,0.217,-5.337
0.186,0.056,0.219,-5.337
0.174,0.057,0.221,-5.337
0.155,0.053,0.224,-5.337
0.142,0.055,0.223,-5.337
0.109,0.055,0.220,-5.337
0.191,0.053,0.221,-5.337
0.238,0.051,0.218,-5.337
0.234,0.052,0.217,-5.337
0.237,0.052,0.219,-5.337
0.220,0.055,0.222,-5.337
0.198,0.058,0.225,-5.337
0.261,0.058,0.223,-5.337
0.252,0.058,0.220,-5.337
0.225,0.057,0.217,-5.337
0.207,0.055,0.218,-5.337
0.190,0.052,0.219,-5.337
0.216,0.055,0.220,-5.337
0.223,0.057,0.215,-5.337
0.229,0.059,0.216,-5.337
0.219,0.055,0.216,-5.337
0.197,0.057,0.217,-5.337
0.180,0.063,0.214,-5.337
0.161,0.064,0.216,-5.337
0.216,0.060,0.217,-5.337
0.248,0.055,0.217,-5.337
0.271,0.053,0.216,-5.337
0.276,0.053,0.215,-5.337
0.254,0.054,0.215,-5.337
0.165,0.058,0.219,-5.337
0.146,0.063,0.222,-5.337
0.244,0.063,0.219,-5.337
0.286,0.059,0.218,-5.337
0.242,0.059,0.218,-5.337
0.229,0.058,0.218,-5.337
0.248,0.060,0.218,-5.337
0.239,0.058,0.217,-5.337
0.213,0.059,0.215,-5.337
0.183,0.062,0.216,-5.337
0.174,0.061,0.219,-5.337
0.173,0.056,0.222,-5.337
0.208,0.056,0.220,-5.337
0.239,0.057,0.216,-5.337
0.212,0.059,0.214,-5.337
0.193,0.060,0.217,-5.337
0.241,0.056,0.222,-5.337
0.280,0.056,0.224,-5.337
0.243,0.055,0.222,-5.337
0.273,0.055,0.221,-5.337
0.275,0.054,0.218,-5.337
0.260,0.054,0.214,-5.337
0.239,0.055,0.212,-5.337
0.207,0.057,0.215,-5.337
0.214,0.055,0.221,-5.337
0.208,0.054,0.223,-5.337
0.202,0.056,0.220,-5.337
0.210,0.058,0.216,-5.337
0.263,0.058,0.214,-5.337
0.214,0.061,0.214,-5.337
0.171,0.063,0.217,-5.337
0.148,0.064,0.217,-5.337
0.196,0.061,0.219,-5.337
0.256,0.064,0.219,-5.337
0.239,0.063,0.220,-5.337
0.203,0.061,0.219,-5.337
0.108,0.062,0.222,-5.337
0.168,0.060,0.221,-5.337
0.192,0.060,0.218,-5.337
0.155,0.059,0.214,-5.337
0.141,0.059,0.215,-5.337
0.144,0.061,0.218,-5.337
0.184,0.065,0.219,-5.337
0.252,0.060,0.219,-5.337
0.216,0.058,0.218,-5.337
0.189,0.055,0.219,-5.337
0.229,0.055,0.219,-5.337
0.244,0.059,0.221,-5.337
0.268,0.059,0.220,-5.337
0.243,0.057,0.216,-5.337
0.176,0.060,0.218,-5.337
0.186,0.058,0.219,-5.337
0.239,0.057,0.217,-5.337
0.212,0.057,0.218,-5.337
0.157,0.059,0.221,-5.337
0.197,0.061,0.223,-5.337
0.246,0.060,0.223,-5.337
0.222,0.057,0.222,-5.337
0.223,0.058,0.222,-5.337
0.244,0.059,0.220,-5.337
0.190,0.059,0.215,-5.337
0.187,0.055,0.218,-5.337
0.248,0.053,0.220,-5.337
0.195,0.056,0.225,-5.337
0.133,0.058,0.224,-5.337
0.147,0.055,0.223,-5.337
0.234,0.054,0.219,-5.337
0.273,0.057,0.216,-5.337
0.242,0.053,0.216,-5.337
0.215,0.052,0.222,-5.337
0.216,0.052,0.223,-5.337
0.171,0.057,0.222,-5.337
0.193,0.054,0.220,-5.337
0.217,0.054,0.218,-5.337
0.187,0.057,0.217,-5.337
0.144,0.058,0.221,-5.337
0.142,0.058,0.222,-5.337
0.233,0.051,0.222,-5.337
0.314,0.046,0.216,-5.337
0.263,0.047,0.212,-5.337
0.112,0.052,0.213,-5.337
0.074,0.049,0.217,-5.337
0.148,0.047,0.219,-5.337
0.198,0.051,0.217,-5.337
0.184,0.053,0.216,-5.337
0.145,0.052,0.219,-5.337
0.174,0.047,0.223,-5.337
0.199,0.045,0.220,-5.337
0.198,0.049,0.218,-5.337
0.200,0.049,0.215,-5.337
0.233,0.049,0.217,-5.337
0.232,0.047,0.221,-5.337
0.180,0.048,0.220,-5.337
0.216,0.049,0.221,-5.337
0.288,0.046,0.224,-5.337
0.263,0.045,0.217,-5.337
0.226,0.044,0.214,-5.337
0.239,0.044,0.218,-5.337
0.237,0.046,0.224,-5.337
0.184,0.049,0.224,-5.337
0.108,0.047,0.217,-5.337
0.133,0.043,0.215,-5.337
0.208,0.045,0.217,-5.337
0.175,0.044,0.219,-5.337
0.143,0.045,0.219,-5.337
0.168,0.044,0.219,-5.337
0.224,0.042,0.219,-5.337
0.204,0.044,0.219,-5.337
0.155,0.042,0.218,-5.337
0.203,0.046,0.219,-5.337
0.230,0.047,0.219,-5.337
0.145,0.047,0.217,-5.337
0.127,0.047,0.218,-5.337
0.184,0.042,0.217,-5.337
0.207,0.045,0.210,-5.337
0.196,0.049,0.210,-5.337
0.222,0.046,0.217,-5.337
0.214,0.048,0.223,-5.337
0.257,0.045,0.226,-5.337
0.234,0.046,0.225,-5.337
0.161,0.045,0.221,-5.337
0.180,0.043,0.218,-5.337
0.221,0.040,0.220,-5.337
0.209,0.039,0.221,-5.337
0.202,0.037,0.220,-5.337
0.189,0.038,0.223,-5.337
0.214,0.041,0.224,-5.337
0.186,0.040,0.220,-5.337
0.188,0.042,0.218,-5.337
0.181,0.042,0.216,-5.337
0.196,0.041,0.217,-5.337
0.164,0.040,0.217,-5.337
0.164,0.040,0.218,-5.337
0.256,0.037,0.217,-5.337
0.241,0.041,0.219,-5.337
0.231,0.042,0.221,-5.337
0.248,0.040,0.225,-5.337
0.242,0.038,0.223,-5.337
0.225,0.037,0.220,-5.337
0.228,0.043,0.213,-5.337
0.176,0.047,0.212,-5.337
0.242,0.044,0.216,-5.337
0.250,0.045,0.220,-5.337
0.181,0.044,0.218,-5.337
0.209,0.041,0.216,-5.337
0.232,0.039,0.216,-5.337
0.221,0.037,0.216,-5.337
0.212,0.034,0.215,-5.337
0.210,0.036,0.217,-5.337
0.177,0.036,0.219,-5.337
0.104,0.040,0.217,-5.337
0.154,0.039,0.216,-5.337
0.253,0.038,0.215,-5.337
0.199,0.039,0.216,-5.337
0.083,0.039,0.215,-5.337
0.113,0.040,0.218,-5.337
0.154,0.042,0.221,-5.337
0.161,0.043,0.220,-5.337
0.233,0.042,0.216,-5.337
0.282,0.039,0.216,-5.337
0.231,0.038,0.218,-5.337
0.197,0.040,0.224,-5.337
0.207,0.040,0.224,-5.337
0.186,0.043,0.218,-5.337
0.162,0.039,0.212,-5.337
0.218,0.035,0.214,-5.337
0.206,0.034,0.221,-5.337
0.214,0.035,0.223,-5.337
0.257,0.035,0.219,-5.337
0.194,0.037,0.215,-5.337
0.144,0.037,0.211,-5.337
0.148,0.037,0.213,-5.337
0.156,0.037,0.219,-5.337
0.184,0.040,0.221,-5.337
0.155,0.038,0.220,-5.337
0.137,0.038,0.221,-5.337
0.153,0.036,0.219,-5.337
0.178,0.037,0.217,-5.337
0.192,0.038,0.216,-5.337
0.209,0.041,0.219,-5.337
0.184,0.042,0.220,-5.337
0.165,0.040,0.218,-5.337
0.209,0.040,0.216,-5.337
0.203,0.042,0.216,-5.337
0.225,0.039,0.219,-5.337
0.148,0.040,0.220,-5.337
0.206,0.039,0.220,-5.337
0.304,0.034,0.216,-5.337
0.333,0.034,0.214,-5.337
0.240,0.036,0.216,-5.337
0.153,0.037,0.218,-5.337
0.165,0.036,0.217,-5.337
0.230,0.037,0.216,-5.337
0.231,0.034,0.213,-5.337
0.176,0.032,0.213,-5.337
0.130,0.031,0.214,-5.337
0.117,0.031,0.219,-5.337
0.161,0.032,0.222,-5.337
0.146,0.032,0.219,-5.337
0.109,0.036,0.214,-5.337
0.117,0.036,0.213,-5.337
0.152,0.036,0.217,-5.337
0.241,0.033,0.221,-5.337
0.229,0.033,0.221,-5.337
0.209,0.034,0.218,-5.337
0.205,0.035,0.219,-5.337
0.194,0.035,0.219,-5.337
0.221,0.038,0.219,-5.337
0.164,0.036,0.217,-5.337
0.099,0.037,0.216,-5.337
0.111,0.038,0.216,-5.337
0.233,0.039,0.221,-5.337
0.207,0.036,0.221,-5.337
0.157,0.035,0.219,-5.337
0.052,0.034,0.218,-5.337
0.082,0.035,0.218,-5.337
0.198,0.033,0.218,-5.337
0.202,0.038,0.220,-5.337
0.139,0.038,0.223,-5.337
0.163,0.038,0.226,-5.337
0.226,0.038,0.220,-5.337
0.245,0.040,0.214,-5.337
0.257,0.038,0.211,-5.337
0.243,0.037,0.216,-5.337
0.167,0.039,0.218,-5.337
0.137,0.040,0.220,-5.337
0.250,0.039,0.222,-5.337
0.273,0.040,0.220,-5.337
0.226,0.043,0.215,-5.337
0.193,0.039,0.211,-5.337
0.294,0.033,0.212,-5.337
0.322,0.030,0.214,-5.337
0.298,0.034,0.217,-5.337
0.259,0.034,0.221,-5.337
0.229,0.036,0.226,-5.337
0.192,0.036,0.225,-5.337
0.180,0.034,0.223,-5.337
0.167,0.034,0.222,-5.337
0.217,0.033,0.226,-5.337
0.212,0.033,0.228,-5.337
0.140,0.037,0.224,-5.337
0.106,0.034,0.218,-5.337
0.160,0.034,0.217,-5.337
0.213,0.031,0.217,-5.337
0.197,0.033,0.217,-5.337
0.152,0.032,0.220,-5.337
0.193,0.031,0.221,-5.337
0.222,0.033,0.220,-5.337
0.230,0.037,0.220,-5.337
0.155,0.038,0.221,-5.337
0.172,0.034,0.219,-5.337
0.255,0.032,0.218,-5.337
0.257,0.035,0.221,-5.337
0.236,0.035,0.223,-5.337
0.228,0.031,0.220,-5.337
0.164,0.031,0.220,-5.337
0.175,0.031,0.220,-5.337
0.181,0.033,0.220,-5.337
0.186,0.034,0.217,-5.337
0.189,0.032,0.220,-5.337
0.167,0.034,0.221,-5.337
0.173,0.034,0.219,-5.337
0.131,0.033,0.215,-5.337
0.111,0.032,0.215,-5.337
0.202,0.031,0.217,-5.337
0.242,0.034,0.218,-5.337
0.205,0.038,0.222,-5.337
0.180,0.039,0.223,-5.337
0.142,0.036,0.219,-5.337
0.129,0.034,0.221,-5.337
0.152,0.032,0.222,-5.337
0.226,0.030,0.219,-5.337
0.245,0.033,0.216,-5.337
0.214,0.036,0.217,-5.337
0.184,0.035,0.221,-5.337
0.154,0.030,0.222,-5.337
0.203,0.028,0.222,-5.337
0.234,0.031,0.222,-5.337
0.219,0.033,0.223,-5.337
0.210,0.033,0.221,-5.337
0.163,0.036,0.221,-5.337
0.167,0.032,0.217,-5.337
0.166,0.034,0.216,-5.337
0.194,0.033,0.219,-5.337
0.216,0.032,0.221,-5.337
0.212,0.027,0.217,-5.337
0.177,0.027,0.215,-5.337
0.182,0.030,0.219,-5.337
0.198,0.030,0.222,-5.337
0.177,0.029,0.220,-5.337
0.166,0.032,0.217,-5.337
0.212,0.033,0.216,-5.337
0.184,0.035,0.218,-5.337
0.212,0.031,0.220,-5.337
0.209,0.034,0.219,-5.337
0.153,0.034,0.218,-5.337
0.218,0.034,0.217,-5.337
0.243,0.031,0.217,-5.337
0.216,0.032,0.221,-5.337
0.242,0.034,0.222,-5.337
0.225,0.033,0.217,-5.337
0.185,0.036,0.213,-5.337
0.157,0.038,0.216,-5.337
0.198,0.034,0.222,-5.337
0.220,0.033,0.224,-5.337
0.177,0.034,0.218,-5.337
0.125,0.033,0.214,-5.337
0.234,0.029,0.218,-5.337
0.338,0.029,0.222,-5.337
0.305,0.034,0.223,-5.337
0.215,0.037,0.222,-5.337
0.166,0.037,0.222,-5.337
0.084,0.036,0.222,-5.337
0.116,0.036,0.220,-5.337
0.186,0.032,0.218,-5.337
0.225,0.036,0.217,-5.337
0.174,0.035,0.215,-5.337
0.116,0.032,0.216,-5.337
0.120,0.032,0.218,-5.337
0.161,0.031,0.218,-5.337
0.211,0.033,0.218,-5.337
0.243,0.036,0.219,-5.337
0.217,0.039,0.219,-5.337
0.206,0.037,0.222,-5.337
0.198,0.035,0.224,-5.337
0.178,0.036,0.224,-5.337
0.157,0.037,0.224,-5.337
0.185,0.039,0.222,-5.337
0.197,0.037,0.220,-5.337
0.193,0.039,0.219,-5.337
0.141,0.040,0.220,-5.337
0.177,0.037,0.218,-5.337
0.219,0.036,0.220,-5.337
0.221,0.038,0.221,-5.337
0.218,0.042,0.220,-5.337
0.207,0.040,0.218,-5.337
0.244,0.041,0.219,-5.337
0.247,0.043,0.219,-5.337
0.221,0.041,0.220,-5.337
0.207,0.039,0.221,-5.337
0.193,0.040,0.222,-5.337
0.215,0.040,0.221,-5.337
0.171,0.042,0.220,-5.337
0.148,0.043,0.221,-5.337
0.208,0.042,0.221,-5.337
0.256,0.040,0.219,-5.337
0.295,0.038,0.217,-5.337
0.243,0.040,0.222,-5.337
0.209,0.042,0.223,-5.337
0.217,0.040,0.221,-5.337
0.204,0.039,0.218,-5.337
0.213,0.037,0.219,-5.337
0.309,0.036,0.221,-5.337
0.351,0.037,0.222,-5.337
0.257,0.039,0.220,-5.337
0.252,0.035,0.217,-5.337
0.235,0.038,0.212,-5.337
0.133,0.043,0.216,-5.337
0.150,0.044,0.223,-5.337
0.227,0.040,0.225,-5.337
0.213,0.038,0.223,-5.337
0.195,0.042,0.224,-5.337
0.161,0.043,0.220,-5.337
0.165,0.042,0.218,-5.337
0.216,0.040,0.223,-5.337
0.243,0.042,0.227,-5.337
0.186,0.046,0.220,-5.337
0.181,0.045,0.215,-5.337
0.203,0.042,0.219,-5.337
0.146,0.044,0.222,-5.337
0.157,0.045,0.220,-5.337
0.200,0.044,0.217,-5.337
0.208,0.042,0.216,-5.337
0.255,0.042,0.219,-5.337
0.242,0.044,0.224,-5.337
0.200,0.041,0.223,-5.337
0.233,0.038,0.219,-5.337
0.215,0.041,0.216,-5.337
0.224,0.041,0.218,-5.337
0.183,0.043,0.217,-5.337
0.232,0.043,0.219,-5.337
0.192,0.044,0.222,-5.337
0.099,0.042,0.221,-5.337
0.110,0.042,0.217,-5.337
0.215,0.039,0.220,-5.337
0.275,0.037,0.223,-5.337
0.205,0.042,0.221,-5.337
0.175,0.042,0.218,-5.337
0.256,0.042,0.219,-5.337
0.230,0.040,0.218,-5.337
0.223,0.039,0.217,-5.337
0.238,0.042,0.218,-5.337
0.204,0.048,0.220,-5.337
0.158,0.049,0.222,-5.337
0.140,0.048,0.223,-5.337
0.171,0.048,0.222,-5.337
0.195,0.045,0.216,-5.337
0.224,0.046,0.212,-5.337
0.227,0.045,0.216,-5.337
0.166,0.048,0.222,-5.337
0.177,0.045,0.222,-5.337
0.268,0.040,0.224,-5.337
0.306,0.042,0.221,-5.337
0.235,0.046,0.215,-5.337
0.196,0.045,0.214,-5.337
0.159,0.044,0.218,-5.337
0.161,0.043,0.220,-5.337
0.230,0.041,0.222,-5.337
0.241,0.043,0.225,-5.337
0.174,0.044,0.224,-5.337
0.173,0.042,0.222,-5.337
0.178,0.046,0.219,-5.337
0.167,0.044,0.220,-5.337
0.195,0.043,0.224,-5.337
0.228,0.041,0.225,-5.337
0.184,0.047,0.221,-5.337
0.204,0.048,0.217,-5.337
0.203,0.046,0.215,-5.337
0.190,0.043,0.214,-5.337
0.216,0.045,0.216,-5.337
0.252,0.049,0.219,-5.337
0.251,0.049,0.223,-5.337
0.166,0.047,0.226,-5.337
0.085,0.048,0.225,-5.337
0.152,0.050,0.222,-5.337
0.252,0.049,0.218,-5.337
0.203,0.050,0.216,-5.337
0.150,0.047,0.216,-5.337
0.216,0.047,0.216,-5.337
0.224,0.050,0.217,-5.337
0.236,0.050,0.219,-5.337
0.255,0.049,0.216,-5.337
0.270,0.050,0.219,-5.337
0.224,0.048,0.220,-5.337
0.199,0.049,0.223,-5.337
0.197,0.051,0.224,-5.337
0.211,0.048,0.224,-5.337
0.229,0.044,0.220,-5.337
0.245,0.047,0.217,-5.337
0.192,0.050,0.215,-5.337
0.196,0.052,0.214,-5.337
0.244,0.053,0.217,-5.337
0.243,0.054,0.219,-5.337
0.211,0.055,0.218,-5.337
0.170,0.054,0.220,-5.337
0.196,0.054,0.224,-5.337
0.182,0.053,0.221,-5.337
0.180,0.050,0.217,-5.337
0.221,0.050,0.218,-5.337
0.204,0.051,0.219,-5.337
0.240,0.051,0.216,-5.337
0.343,0.047,0.216,-5.337
0.350,0.047,0.216,-5.337
0.317,0.050,0.217,-5.337
0.264,0.051,0.215,-5.337
0.276,0.049,0.217,-5.337
0.277,0.047,0.217,-5.337
0.211,0.048,0.216,-5.337
0.214,0.048,0.218,-5.337
0.225,0.050,0.220,-5.337
0.171,0.047,0.224,-5.337
0.201,0.048,0.228,-5.337
0.265,0.047,0.225,-5.337
0.275,0.048,0.218,-5.337
0.267,0.048,0.213,-5.337
0.270,0.049,0.214,-5.337
0.280,0.048,0.216,-5.337
0.221,0.048,0.221,-5.337
0.220,0.049,0.222,-5.337
0.208,0.052,0.222,-5.337
0.205,0.051,0.220,-5.337
0.217,0.046,0.215,-5.337
0.285,0.049,0.214,-5.337
0.340,0.052,0.216,-5.337
0.289,0.054,0.217,-5.337
0.223,0.055,0.216,-5.337
0.225,0.054,0.221,-5.337
0.251,0.050,0.222,-5.337
0.263,0.054,0.219,-5.337
0.259,0.050,0.215,-5.337
0.235,0.052,0.214,-5.337
0.218,0.052,0.217,-5.337
0.214,0.051,0.222,-5.337
0.242,0.052,0.225,-5.337
0.251,0.052,0.225,-5.337
0.252,0.053,0.224,-5.337
0.288,0.053,0.222,-5.337
0.371,0.046,0.219,-5.337
0.304,0.050,0.218,-5.337
0.193,0.054,0.220,-5.337
0.135,0.057,0.219,-5.337
0.160,0.056,0.219,-5.337
0.193,0.058,0.218,-5.337
0.192,0.056,0.216,-5.337
0.138,0.054,0.215,-5.337
0.171,0.054,0.218,-5.337
0.186,0.054,0.216,-5.337
0.192,0.055,0.215,-5.337
0.197,0.057,0.217,-5.337
0.166,0.057,0.222,-5.337
0.211,0.053,0.220,-5.337
0.284,0.052,0.218,-5.337
0.266,0.056,0.219,-5.337
0.218,0.058,0.224,-5.337
0.242,0.054,0.226,-5.337
0.238,0.054,0.224,-5.337
0.219,0.055,0.220,-5.337
0.172,0.058,0.221,-5.337
0.160,0.059,0.222,-5.337
0.160,0.058,0.224,-5.337
0.170,0.056,0.226,-5.337
0.181,0.056,0.225,-5.337
0.185,0.056,0.222,-5.337
0.208,0.056,0.222,-5.337
0.243,0.055,0.221,-5.337
0.347,0.055,0.217,-5.337
0.366,0.055,0.215,-5.337
0.321,0.054,0.214,-5.337
0.237,0.053,0.213,-5.337
0.163,0.056,0.215,-5.337
0.122,0.061,0.219,-5.337
0.192,0.061,0.219,-5.337
0.201,0.058,0.223,-5.337
0.075,0.058,0.225,-5.337
0.037,0.059,0.222,-5.337
0.128,0.057,0.220,-5.337
0.175,0.057,0.222,-5.337
0.186,0.056,0.222,-5.337
0.170,0.060,0.222,-5.337
0.198,0.063,0.221,-5.337
0.213,0.063,0.217,-5.337
0.181,0.059,0.212,-5.337
0.219,0.058,0.216,-5.337
0.242,0.056,0.219,-5.337
0.238,0.060,0.218,-5.337
0.212,0.061,0.220,-5.337
0.227,0.060,0.220,-5.337
0.259,0.056,0.220,-5.337
0.276,0.054,0.222,-5.337
0.220,0.055,0.224,-5.337
0.210,0.055,0.224,-5.337
0.255,0.055,0.220,-5.337
0.220,0.057,0.218,-5.337
0.108,0.061,0.218,-5.337
0.122,0.057,0.220,-5.337
0.161,0.057,0.222,-5.337
0.155,0.057,0.222,-5.337
0.189,0.057,0.220,-5.337
0.254,0.055,0.219,-5.337
0.286,0.053,0.219,-5.337
0.240,0.055,0.214,-5.337
0.190,0.054,0.215,-5.337
0.152,0.054,0.215,-5.337
0.173,0.057,0.215,-5.337
0.175,0.056,0.216,-5.337
0.133,0.054,0.217,-5.337
0.180,0.056,0.215,-5.337
0.243,0.057,0.215,-5.337
0.216,0.057,0.218,-5.337
0.216,0.057,0.219,-5.337
0.259,0.053,0.215,-5.337
0.215,0.054,0.219,-5.337
0.224,0.056,0.224,-5.337
0.214,0.057,0.223,-5.337
0.176,0.059,0.221,-5.337
0.167,0.057,0.221,-5.337
0.207,0.056,0.221,-5.337
0.205,0.055,0.219,-5.337
0.172,0.054,0.216,-5.337
0.120,0.051,0.214,-5.337
0.200,0.049,0.216,-5.337
0.217,0.052,0.220,-5.337
0.220,0.051,0.221,-5.337
0.205,0.047,0.217,-5.337
0.166,0.045,0.220,-5.337
0.206,0.045,0.221,-5.337
0.265,0.050,0.218,-5.337
0.307,0.051,0.217,-5.337
0.235,0.054,0.221,-5.337
0.183,0.053,0.222,-5.337
0.208,0.054,0.223,-5.337
0.213,0.054,0.219,-5.337
0.191,0.051,0.214,-5.337
0.184,0.051,0.212,-5.337
0.186,0.055,0.216,-5.337
0.190,0.054,0.221,-5.337
0.213,0.052,0.221,-5.337
0.237,0.051,0.218,-5.337
0.206,0.051,0.222,-5.337
0.201,0.052,0.223,-5.337
0.208,0.051,0.222,-5.337
0.150,0.051,0.222,-5.337
0.098,0.052,0.224,-5.337
0.173,0.053,0.222,-5.337
0.218,0.053,0.221,-5.337
0.180,0.052,0.223,-5.337
0.192,0.051,0.223,-5.337
0.286,0.046,0.218,-5.337
0.292,0.047,0.216,-5.337
0.194,0.046,0.225,-5.337
0.173,0.045,0.227,-5.337
0.147,0.045,0.226,-5.337
0.111,0.050,0.218,-5.337
0.093,0.052,0.213,-5.337
0.113,0.049,0.217,-5.337
0.149,0.049,0.223,-5.337
0.219,0.046,0.221,-5.337
0.250,0.048,0.218,-5.337
0.187,0.049,0.216,-5.337
0.118,0.050,0.219,-5.337
0.187,0.047,0.216,-5.337
0.246,0.049,0.217,-5.337
0.172,0.051,0.221,-5.337
0.223,0.049,0.220,-5.337
0.205,0.047,0.220,-5.337
0.214,0.049,0.220,-5.337
0.226,0.047,0.221,-5.337
0.175,0.049,0.220,-5.337
0.161,0.047,0.220,-5.337
0.204,0.044,0.218,-5.337
0.267,0.044,0.215,-5.337
0.232,0.048,0.217,-5.337
0.170,0.045,0.220,-5.337
0.174,0.044,0.223,-5.337
0.183,0.046,0.225,-5.337
0.108,0.048,0.222,-5.337
0.060,0.050,0.219,-5.337
0.143,0.051,0.218,-5.337
0.183,0.050,0.220,-5.337
0.188,0.048,0.223,-5.337
0.218,0.048,0.224,-5.337
0.173,0.050,0.225,-5.337
0.141,0.049,0.226,-5.337
0.157,0.048,0.222,-5.337
0.182,0.050,0.222,-5.337
0.203,0.049,0.222,-5.337
0.199,0.048,0.219,-5.337
0.174,0.046,0.216,-5.337
0.215,0.048,0.215,-5.337
0.222,0.048,0.216,-5.337
0.174,0.046,0.218,-5.337
0.136,0.042,0.222,-5.337
0.146,0.043,0.223,-5.337
0.187,0.043,0.220,-5.337
0.176,0.046,0.217,-5.337
0.182,0.047,0.217,-5.337
0.219,0.044,0.215,-5.337
0.239,0.042,0.219,-5.337
0.217,0.042,0.221,-5.337
0.209,0.040,0.223,-5.337
0.176,0.037,0.225,-5.337
0.181,0.039,0.225,-5.337
0.190,0.040,0.223,-5.337
0.239,0.039,0.221,-5.337
0.201,0.041,0.218,-5.337
0.123,0.042,0.215,-5.337
0.164,0.041,0.217,-5.337
0.186,0.043,0.220,-5.337
0.177,0.043,0.221,-5.337
0.204,0.040,0.221,-5.337
0.170,0.040,0.217,-5.337
0.174,0.041,0.217,-5.337
0.164,0.042,0.219,-5.337
0.124,0.038,0.222,-5.337
0.163,0.035,0.218,-5.337
0.253,0.031,0.215,-5.337
0.312,0.033,0.218,-5.337
0.307,0.034,0.222,-5.337
0.280,0.032,0.221,-5.337
0.253,0.035,0.218,-5.337
0.239,0.038,0.220,-5.337
0.177,0.038,0.218,-5.337
0.156,0.034,0.216,-5.337
0.135,0.036,0.213,-5.337
0.211,0.037,0.219,-5.337
0.271,0.040,0.222,-5.337
0.267,0.038,0.222,-5.337
0.221,0.036,0.218,-5.337
0.175,0.038,0.220,-5.337
0.173,0.037,0.220,-5.337
0.181,0.040,0.219,-5.337
0.169,0.043,0.218,-5.337
0.115,0.045,0.219,-5.337
0.178,0.040,0.219,-5.337
0.290,0.035,0.218,-5.337
0.266,0.036,0.217,-5.337
0.145,0.037,0.220,-5.337
0.147,0.038,0.217,-5.337
0.243,0.038,0.216,-5.337
0.251,0.036,0.218,-5.337
0.163,0.035,0.220,-5.337
0.129,0.037,0.222,-5.337
0.185,0.039,0.221,-5.337
0.135,0.042,0.220,-5.337
0.117,0.042,0.218,-5.337
0.149,0.039,0.218,-5.337
0.123,0.039,0.214,-5.337
0.108,0.038,0.214,-5.337
0.170,0.036,0.215,-5.337
0.248,0.035,0.221,-5.337
0.204,0.034,0.221,-5.337
0.138,0.035,0.223,-5.337
0.143,0.037,0.225,-5.337
0.227,0.034,0.224,-5.337
0.251,0.033,0.219,-5.337
0.205,0.036,0.217,-5.337
0.236,0.034,0.216,-5.337
0.211,0.035,0.216,-5.337
0.136,0.035,0.214,-5.337
0.156,0.038,0.213,-5.337
0.132,0.039,0.213,-5.337
0.195,0.039,0.215,-5.337
0.259,0.034,0.217,-5.337
0.252,0.032,0.220,-5.337
0.203,0.036,0.220,-5.337
0.115,0.038,0.221,-5.337
0.092,0.037,0.222,-5.337
0.157,0.032,0.216,-5.337
0.230,0.031,0.215,-5.337
0.221,0.034,0.218,-5.337
0.156,0.035,0.221,-5.337
0.152,0.036,0.220,-5.337
0.148,0.037,0.217,-5.337
0.115,0.035,0.217,-5.337
0.110,0.034,0.219,-5.337
0.114,0.034,0.217,-5.337
0.145,0.038,0.219,-5.337
0.264,0.035,0.217,-5.337
0.264,0.037,0.214,-5.337
0.192,0.038,0.216,-5.337
0.166,0.037,0.219,-5.337
0.175,0.034,0.219,-5.337
0.182,0.036,0.219,-5.337
0.161,0.040,0.221,-5.337
0.161,0.041,0.222,-5.337
0.162,0.039,0.222,-5.337
0.110,0.037,0.218,-5.337
0.077,0.035,0.216,-5.337
0.111,0.035,0.218,-5.337
0.137,0.036,0.221,-5.337
0.180,0.037,0.225,-5.337
0.221,0.035,0.220,-5.337
0.268,0.035,0.215,-5.337
0.283,0.033,0.220,-5.337
0.189,0.035,0.225,-5.337
0.115,0.035,0.225,-5.337
0.180,0.034,0.223,-5.337
0.188,0.037,0.222,-5.337
0.182,0.034,0.220,-5.337
0.205,0.034,0.221,-5.337
0.140,0.036,0.219,-5.337
0.150,0.036,0.220,-5.337
0.152,0.037,0.219,-5.337
0.157,0.037,0.218,-5.337
0.215,0.037,0.216,-5.337
0.215,0.035,0.216,-5.337
0.192,0.036,0.216,-5.337
0.165,0.036,0.218,-5.337
0.105,0.039,0.221,-5.337
0.146,0.039,0.222,-5.337
0.150,0.040,0.221,-5.337
0.127,0.039,0.220,-5.337
0.082,0.040,0.217,-5.337
0.096,0.038,0.215,-5.337
0.173,0.037,0.219,-5.337
0.229,0.037,0.222,-5.337
0.216,0.036,0.222,-5.337
0.189,0.038,0.218,-5.337
0.197,0.040,0.219,-5.337
0.161,0.038,0.220,-5.337
0.119,0.037,0.221,-5.337
0.177,0.034,0.219,-5.337
0.248,0.035,0.221,-5.337
0.266,0.035,0.222,-5.337
0.201,0.034,0.221,-5.337
0.129,0.036,0.217,-5.337
0.099,0.040,0.216,-5.337
0.171,0.040,0.218,-5.337
0.160,0.039,0.218,-5.337
0.160,0.034,0.221,-5.337
0.131,0.034,0.223,-5.337
0.122,0.035,0.220,-5.337
0.127,0.037,0.220,-5.337
0.163,0.037,0.220,-5.337
0.273,0.035,0.222,-5.337
0.261,0.035,0.224,-5.337
0.189,0.033,0.219,-5.337
0.145,0.033,0.216,-5.337
0.167,0.031,0.218,-5.337
0.176,0.034,0.226,-5.337
0.146,0.039,0.226,-5.337
0.202,0.037,0.224,-5.337
0.335,0.035,0.221,-5.337
0.338,0.032,0.221,-5.337
0.313,0.033,0.221,-5.337
0.247,0.033,0.221,-5.337
0.141,0.032,0.218,-5.337
0.053,0.036,0.216,-5.337
0.097,0.035,0.215,-5.337
0.175,0.035,0.216,-5.337
0.185,0.032,0.216,-5.337
0.171,0.032,0.220,-5.337
0.182,0.031,0.222,-5.337
0.273,0.031,0.220,-5.337
0.222,0.031,0.220,-5.337
0.161,0.031,0.219,-5.337
0.229,0.031,0.218,-5.337
0.258,0.033,0.221,-5.337
0.215,0.033,0.225,-5.337
0.168,0.035,0.226,-5.337
0.162,0.036,0.222,-5.337
0.167,0.033,0.218,-5.337
0.141,0.029,0.216,-5.337
0.180,0.033,0.214,-5.337
0.219,0.032,0.216,-5.337
0.242,0.033,0.218,-5.337
0.232,0.034,0.222,-5.337
0.208,0.034,0.221,-5.337
0.234,0.035,0.218,-5.337
0.242,0.038,0.215,-5.337
0.259,0.034,0.219,-5.337
0.217,0.036,0.222,-5.337
0.221,0.034,0.221,-5.337
0.243,0.033,0.216,-5.337
0.211,0.036,0.215,-5.337
0.182,0.037,0.214,-5.337
0.139,0.040,0.218,-5.337
0.159,0.037,0.218,-5.337
0.227,0.036,0.216,-5.337
0.181,0.036,0.222,-5.337
0.189,0.039,0.225,-5.337
0.193,0.038,0.224,-5.337
0.171,0.041,0.223,-5.337
0.200,0.039,0.220,-5.337
0.217,0.034,0.218,-5.337
0.161,0.032,0.218,-5.337
0.177,0.034,0.220,-5.337
0.186,0.037,0.223,-5.337
0.184,0.037,0.224,-5.337
0.192,0.038,0.222,-5.337
0.216,0.040,0.217,-5.337
0.272,0.039,0.216,-5.337
0.230,0.038,0.216,-5.337
0.176,0.036,0.219,-5.337
0.177,0.035,0.217,-5.337
0.249,0.033,0.218,-5.337
0.255,0.036,0.221,-5.337
0.291,0.036,0.221,-5.337
0.366,0.037,0.220,-5.337
0.359,0.037,0.224,-5.337
0.232,0.037,0.225,-5.337
0.153,0.042,0.223,-5.337
0.207,0.039,0.220,-5.337
0.234,0.040,0.216,-5.337
0.196,0.037,0.215,-5.337
0.176,0.039,0.216,-5.337
0.218,0.040,0.219,-5.337
0.242,0.041,0.224,-5.337
0.275,0.041,0.225,-5.337
0.226,0.042,0.224,-5.337
0.152,0.042,0.221,-5.337
0.135,0.044,0.219,-5.337
0.198,0.043,0.218,-5.337
0.230,0.040,0.218,-5.337
0.292,0.040,0.220,-5.337
0.257,0.042,0.218,-5.337
0.211,0.043,0.220,-5.337
0.153,0.040,0.221,-5.337
0.137,0.044,0.224,-5.337
0.183,0.040,0.222,-5.337
0.187,0.039,0.220,-5.337
0.158,0.041,0.218,-5.337
0.184,0.044,0.220,-5.337
0.212,0.043,0.223,-5.337
0.209,0.040,0.224,-5.337
0.237,0.039,0.223,-5.337
0.221,0.040,0.222,-5.337
0.167,0.041,0.222,-5.337
0.152,0.042,0.221,-5.337
0.179,0.040,0.220,-5.337
0.272,0.037,0.220,-5.337
0.298,0.038,0.218,-5.337
0.249,0.043,0.217,-5.337
0.236,0.037,0.219,-5.337
0.284,0.036,0.222,-5.337
0.221,0.041,0.228,-5.337
0.146,0.042,0.230,-5.337
0.133,0.045,0.226,-5.337
0.136,0.049,0.220,-5.337
0.151,0.046,0.221,-5.337
0.136,0.044,0.220,-5.337
0.150,0.048,0.218,-5.337
0.160,0.048,0.217,-5.337
0.204,0.046,0.219,-5.337
0.200,0.046,0.222,-5.337
0.177,0.050,0.225,-5.337
0.206,0.049,0.226,-5.337
0.270,0.047,0.226,-5.337
0.265,0.050,0.222,-5.337
0.225,0.052,0.224,-5.337
0.204,0.051,0.228,-5.337
0.195,0.049,0.229,-5.337
0.216,0.047,0.224,-5.337
0.192,0.048,0.219,-5.337
0.210,0.048,0.217,-5.337
0.277,0.047,0.220,-5.337
0.234,0.049,0.220,-5.337
0.160,0.049,0.216,-5.337
0.188,0.046,0.216,-5.337
0.166,0.049,0.222,-5.337
0.144,0.050,0.225,-5.337
0.223,0.048,0.224,-5.337
0.239,0.047,0.223,-5.337
0.230,0.048,0.221,-5.337
0.262,0.049,0.223,-5.337
0.291,0.052,0.224,-5.337
0.284,0.052,0.222,-5.337
0.222,0.054,0.218,-5.337
0.180,0.056,0.216,-5.337
0.170,0.051,0.214,-5.337
0.198,0.048,0.216,-5.337
0.151,0.051,0.217,-5.337
0.092,0.054,0.220,-5.337
0.090,0.053,0.222,-5.337
0.140,0.054,0.220,-5.337
0.169,0.053,0.218,-5.337
0.202,0.057,0.220,-5.337
0.200,0.057,0.222,-5.337
0.207,0.054,0.223,-5.337
0.212,0.051,0.222,-5.337
0.184,0.054,0.222,-5.337
0.139,0.056,0.226,-5.337
0.249,0.051,0.226,-5.337
0.302,0.051,0.219,-5.337
0.285,0.047,0.214,-5.337
0.204,0.047,0.214,-5.337
0.159,0.050,0.215,-5.337
0.222,0.050,0.216,-5.337
0.172,0.051,0.217,-5.337
0.187,0.054,0.221,-5.337
0.182,0.055,0.225,-5.337
0.150,0.052,0.229,-5.337
0.158,0.048,0.227,-5.337
0.189,0.051,0.222,-5.337
0.159,0.055,0.219,-5.337
0.173,0.057,0.221,-5.337
0.214,0.060,0.220,-5.337
0.233,0.063,0.222,-5.337
0.191,0.060,0.221,-5.337
0.169,0.060,0.223,-5.337
0.225,0.060,0.219,-5.337
0.250,0.062,0.216,-5.337
0.224,0.061,0.219,-5.337
0.205,0.062,0.220,-5.337
0.241,0.062,0.221,-5.337
0.250,0.060,0.222,-5.337
0.198,0.058,0.224,-5.337
0.205,0.061,0.222,-5.337
0.269,0.060,0.220,-5.337
0.283,0.059,0.221,-5.337
0.268,0.060,0.221,-5.337
0.267,0.059,0.217,-5.337
0.292,0.055,0.214,-5.337
0.277,0.054,0.216,-5.337
0.201,0.055,0.220,-5.337
0.181,0.057,0.222,-5.337
0.222,0.056,0.222,-5.337
0.174,0.055,0.219,-5.337
0.142,0.058,0.217,-5.337
0.198,0.056,0.218,-5.337
0.243,0.059,0.222,-5.337
0.200,0.062,0.221,-5.337
0.159,0.061,0.215,-5.337
0.147,0.057,0.214,-5.337
0.214,0.060,0.219,-5.337
0.185,0.063,0.222,-5.337
0.209,0.062,0.220,-5.337
0.258,0.056,0.218,-5.337
0.228,0.059,0.220,-5.337
0.188,0.062,0.220,-5.337
0.168,0.062,0.219,-5.337
0.207,0.061,0.223,-5.337
0.283,0.060,0.224,-5.337
0.240,0.062,0.218,-5.337
0.220,0.059,0.217,-5.337
0.276,0.057,0.220,-5.337
0.281,0.062,0.219,-5.337
0.220,0.064,0.218,-5.337
0.177,0.061,0.216,-5.337
0.218,0.060,0.217,-5.337
0.250,0.058,0.219,-5.337
0.247,0.056,0.222,-5.337
0.264,0.056,0.223,-5.337
0.301,0.055,0.223,-5.337
0.327,0.057,0.220,-5.337
0.251,0.063,0.218,-5.337
0.202,0.063,0.216,-5.337
0.215,0.059,0.217,-5.337
0.204,0.060,0.220,-5.337
0.193,0.061,0.223,-5.337
0.185,0.065,0.224,-5.337
0.186,0.067,0.220,-5.337
0.174,0.068,0.215,-5.337
0.192,0.065,0.215,-5.337
0.207,0.059,0.214,-5.337
0.234,0.056,0.216,-5.337
0.250,0.058,0.221,-5.337
0.202,0.060,0.222,-5.337
0.176,0.064,0.222,-5.337
0.269,0.059,0.222,-5.337
0.315,0.057,0.219,-5.337
0.248,0.061,0.218,-5.337
0.267,0.060,0.220,-5.337
0.234,0.062,0.219,-5.337
0.187,0.064,0.218,-5.337
0.190,0.062,0.215,-5.337
0.257,0.058,0.214,-5.337
0.266,0.061,0.218,-5.337
0.218,0.063,0.223,-5.337
0.202,0.064,0.224,-5.337
0.191,0.066,0.222,-5.337
0.140,0.067,0.217,-5.337
0.158,0.063,0.220,-5.337
0.218,0.056,0.223,-5.337
0.230,0.060,0.222,-5.337
0.198,0.060,0.218,-5.337
0.258,0.058,0.218,-5.337
0.229,0.060,0.220,-5.337
0.180,0.062,0.221,-5.337
0.130,0.061,0.217,-5.337
0.168,0.060,0.217,-5.337
0.188,0.064,0.221,-5.337
0.147,0.064,0.225,-5.337
0.157,0.061,0.224,-5.337
0.249,0.059,0.220,-5.337
0.257,0.059,0.222,-5.337
0.241,0.062,0.221,-5.337
0.160,0.063,0.221,-5.337
0.207,0.061,0.218,-5.337
0.278,0.059,0.220,-5.337
0.239,0.060,0.221,-5.337
0.111,0.063,0.221,-5.337
0.135,0.061,0.220,-5.337
0.182,0.064,0.221,-5.337
0.140,0.065,0.220,-5.337
0.176,0.065,0.218,-5.337
0.208,0.063,0.216,-5.337
0.175,0.064,0.219,-5.337
0.177,0.065,0.223,-5.337
0.208,0.064,0.222,-5.337
0.180,0.059,0.221,-5.337
0.189,0.057,0.221,-5.337
0.210,0.056,0.222,-5.337
0.177,0.059,0.220,-5.337
0.137,0.055,0.217,-5.337
0.214,0.052,0.219,-5.337
0.279,0.055,0.221,-5.337
0.216,0.061,0.221,-5.337
0.201,0.059,0.221,-5.337
0.223,0.056,0.219,-5.337
0.272,0.057,0.214,-5.337
0.285,0.057,0.214,-5.337
0.294,0.055,0.221,-5.337
0.225,0.053,0.224,-5.337
0.170,0.055,0.224,-5.337
0.161,0.054,0.221,-5.337
0.161,0.053,0.217,-5.337
0.168,0.055,0.219,-5.337
0.160,0.057,0.221,-5.337
0.128,0.055,0.220,-5.337
0.100,0.052,0.220,-5.337
0.131,0.053,0.221,-5.337
0.171,0.052,0.220,-5.337
0.153,0.053,0.217,-5.337
0.179,0.053,0.213,-5.337
0.304,0.052,0.215,-5.337
0.294,0.050,0.218,-5.337
0.148,0.050,0.220,-5.337
0.163,0.050,0.218,-5.337
0.205,0.051,0.215,-5.337
0.246,0.050,0.216,-5.337
0.225,0.051,0.220,-5.337
0.145,0.050,0.223,-5.337
0.165,0.050,0.224,-5.337
0.190,0.052,0.221,-5.337
0.218,0.052,0.217,-5.337
0.217,0.052,0.218,-5.337
0.265,0.047,0.225,-5.337
0.283,0.047,0.226,-5.337
0.236,0.048,0.223,-5.337
0.200,0.050,0.218,-5.337
0.179,0.052,0.217,-5.337
0.158,0.051,0.219,-5.337
0.147,0.051,0.220,-5.337
0.160,0.051,0.219,-5.337
0.153,0.049,0.218,-5.337
0.135,0.047,0.215,-5.337
0.183,0.051,0.216,-5.337
0.177,0.054,0.217,-5.337
0.152,0.055,0.219,-5.337
0.193,0.051,0.222,-5.337
0.205,0.050,0.220,-5.337
0.191,0.051,0.220,-5.337
0.190,0.049,0.219,-5.337
0.149,0.052,0.220,-5.337
0.116,0.057,0.220,-5.337
0.120,0.055,0.218,-5.337
0.173,0.048,0.218,-5.337
0.180,0.046,0.218,-5.337
0.195,0.045,0.216,-5.337
0.207,0.049,0.215,-5.337
0.154,0.053,0.217,-5.337
0.071,0.052,0.217,-5.337
0.129,0.047,0.216,-5.337
0.146,0.049,0.217,-5.337
0.127,0.052,0.219,-5.337
0.153,0.054,0.222,-5.337
0.215,0.053,0.224,-5.337
0.234,0.053,0.227,-5.337
0.250,0.050,0.224,-5.337
0.271,0.049,0.221,-5.337
0.242,0.048,0.220,-5.337
0.214,0.047,0.221,-5.337
0.136,0.049,0.219,-5.337
0.136,0.051,0.216,-5.337
0.162,0.050,0.215,-5.337
0.225,0.050,0.220,-5.337
0.227,0.050,0.226,-5.337
0.250,0.047,0.227,-5.337
0.234,0.044,0.224,-5.337
0.200,0.044,0.225,-5.337
0.255,0.042,0.224,-5.337
0.218,0.043,0.219,-5.337
0.143,0.046,0.215,-5.337
0.149,0.046,0.216,-5.337
0.172,0.044,0.220,-5.337
0.152,0.048,0.221,-5.337
0.134,0.046,0.222,-5.337
0.193,0.044,0.220,-5.337
0.219,0.043,0.218,-5.337
0.250,0.043,0.217,-5.337
0.304,0.041,0.220,-5.337
0.352,0.039,0.219,-5.337
0.249,0.048,0.217,-5.337
0.192,0.047,0.216,-5.337
0.207,0.046,0.220,-5.337
0.235,0.048,0.224,-5.337
0.229,0.048,0.227,-5.337
0.226,0.040,0.226,-5.337
0.203,0.042,0.223,-5.337
0.134,0.046,0.219,-5.337
0.067,0.045,0.218,-5.337
0.168,0.042,0.218,-5.337
0.182,0.044,0.216,-5.337
0.156,0.045,0.221,-5.337
0.157,0.044,0.224,-5.337
0.223,0.038,0.224,-5.337
0.292,0.036,0.226,-5.337
0.310,0.038,0.226,-5.337
0.246,0.042,0.220,-5.337
0.180,0.044,0.219,-5.337
0.174,0.044,0.219,-5.337
0.215,0.043,0.223,-5.337
0.257,0.042,0.222,-5.337
0.212,0.045,0.222,-5.337
0.234,0.045,0.221,-5.337
0.256,0.045,0.221,-5.337
0.217,0.044,0.218,-5.337
0.142,0.048,0.215,-5.337
0.144,0.047,0.217,-5.337
0.220,0.043,0.220,-5.337
0.248,0.043,0.223,-5.337
0.254,0.047,0.222,-5.337
0.195,0.045,0.221,-5.337
0.209,0.042,0.225,-5.337
0.275,0.041,0.226,-5.337
0.232,0.048,0.225,-5.337
0.142,0.051,0.226,-5.337
0.260,0.043,0.225,-5.337
0.324,0.042,0.220,-5.337
0.259,0.045,0.218,-5.337
0.248,0.044,0.223,-5.337
0.270,0.043,0.223,-5.337
0.279,0.042,0.220,-5.337
0.277,0.041,0.216,-5.337
0.280,0.039,0.217,-5.337
0.239,0.041,0.220,-5.337
0.142,0.044,0.221,-5.337
0.101,0.045,0.220,-5.337
0.144,0.042,0.221,-5.337
0.198,0.039,0.216,-5.337
0.177,0.036,0.213,-5.337
0.145,0.037,0.216,-5.337
0.145,0.038,0.221,-5.337
0.147,0.037,0.226,-5.337
0.166,0.039,0.220,-5.337
0.154,0.041,0.213,-5.337
0.158,0.041,0.214,-5.337
0.190,0.036,0.218,-5.337
0.206,0.037,0.223,-5.337
0.225,0.040,0.225,-5.337
0.207,0.039,0.222,-5.337
0.149,0.040,0.222,-5.337
0.170,0.042,0.220,-5.337
0.193,0.046,0.219,-5.337
0.155,0.048,0.218,-5.337
0.149,0.047,0.216,-5.337
0.123,0.043,0.216,-5.337
0.158,0.038,0.220,-5.337
0.197,0.038,0.221,-5.337
0.226,0.039,0.224,-5.337
0.202,0.038,0.223,-5.337
0.151,0.038,0.223,-5.337
0.168,0.037,0.219,-5.337
0.161,0.037,0.218,-5.337
0.162,0.034,0.219,-5.337
0.141,0.036,0.223,-5.337
0.213,0.032,0.223,-5.337
0.271,0.033,0.219,-5.337
0.214,0.037,0.217,-5.337
0.149,0.040,0.216,-5.337
0.199,0.039,0.220,-5.337
0.243,0.037,0.222,-5.337
0.199,0.036,0.220,-5.337
0.185,0.037,0.217,-5.337
0.236,0.038,0.218,-5.337
0.259,0.039,0.219,-5.337
0.181,0.039,0.219,-5.337
0.203,0.034,0.221,-5.337
0.298,0.035,0.223,-5.337
0.243,0.041,0.224,-5.337
0.158,0.038,0.219,-5.337
0.232,0.031,0.216,-5.337
0.239,0.036,0.215,-5.337
0.133,0.037,0.220,-5.337
0.115,0.037,0.225,-5.337
0.227,0.035,0.225,-5.337
0.299,0.034,0.226,-5.337
0.226,0.034,0.221,-5.337
0.151,0.032,0.216,-5.337
0.154,0.030,0.215,-5.337
0.224,0.032,0.219,-5.337
0.226,0.033,0.225,-5.337
0.222,0.033,0.227,-5.337
0.252,0.032,0.222,-5.337
0.218,0.034,0.216,-5.337
0.147,0.034,0.211,-5.337
0.095,0.037,0.213,-5.337
0.144,0.033,0.219,-5.337
0.175,0.035,0.224,-5.337
0.197,0.033,0.223,-5.337
0.168,0.031,0.222,-5.337
0.187,0.032,0.225,-5.337
0.199,0.033,0.225,-5.337
0.182,0.032,0.222,-5.337
0.202,0.030,0.218,-5.337
0.217,0.031,0.216,-5.337
0.227,0.034,0.218,-5.337
0.248,0.032,0.216,-5.337
0.235,0.033,0.211,-5.337
0.231,0.034,0.214,-5.337
0.170,0.037,0.219,-5.337
0.163,0.036,0.224,-5.337
0.169,0.035,0.226,-5.337
0.167,0.035,0.224,-5.337
0.164,0.039,0.221,-5.337
0.180,0.039,0.219,-5.337
0.182,0.037,0.216,-5.337
0.193,0.037,0.216,-5.337
0.189,0.042,0.217,-5.337
0.116,0.043,0.219,-5.337
0.130,0.040,0.220,-5.337
0.242,0.035,0.223,-5.337
0.277,0.036,0.224,-5.337
0.227,0.034,0.221,-5.337
0.195,0.031,0.217,-5.337
0.201,0.033,0.216,-5.337
0.293,0.032,0.219,-5.337
0.315,0.034,0.224,-5.337
0.286,0.032,0.228,-5.337
0.250,0.036,0.224,-5.337
0.211,0.040,0.218,-5.337
0.084,0.044,0.213,-5.337
0.136,0.039,0.215,-5.337
0.237,0.035,0.219,-5.337
0.253,0.035,0.221,-5.337
0.201,0.034,0.219,-5.337
0.207,0.030,0.220,-5.337
0.190,0.031,0.221,-5.337
0.171,0.037,0.222,-5.337
0.180,0.037,0.220,-5.337
0.169,0.037,0.219,-5.337
0.191,0.038,0.222,-5.337
0.267,0.037,0.224,-5.337
0.247,0.036,0.223,-5.337
0.162,0.037,0.222,-5.337
0.163,0.036,0.222,-5.337
0.240,0.037,0.219,-5.337
0.230,0.035,0.217,-5.337
0.179,0.033,0.221,-5.337
0.218,0.033,0.223,-5.337
0.253,0.035,0.222,-5.337
0.163,0.040,0.222,-5.337
0.167,0.039,0.218,-5.337
0.188,0.038,0.212,-5.337
0.220,0.038,0.215,-5.337
0.220,0.040,0.221,-5.337
0.160,0.038,0.223,-5.337
0.140,0.040,0.228,-5.337
0.168,0.042,0.228,-5.337
0.189,0.042,0.220,-5.337
0.240,0.041,0.214,-5.337
0.176,0.043,0.218,-5.337
0.095,0.043,0.225,-5.337
0.146,0.043,0.227,-5.337
0.166,0.040,0.225,-5.337
0.152,0.042,0.220,-5.337
0.141,0.041,0.217,-5.337
0.176,0.040,0.220,-5.337
0.205,0.039,0.222,-5.337
0.209,0.042,0.218,-5.337
0.220,0.043,0.214,-5.337
0.230,0.043,0.219,-5.337
0.302,0.041,0.227,-5.337
0.293,0.045,0.232,-5.337
0.212,0.043,0.230,-5.337
0.233,0.037,0.223,-5.337
0.179,0.035,0.216,-5.337
0.083,0.040,0.216,-5.337
0.096,0.039,0.217,-5.337
0.183,0.038,0.213,-5.337
0.178,0.037,0.215,-5.337
0.181,0.034,0.221,-5.337
0.242,0.032,0.226,-5.337
0.273,0.034,0.227,-5.337
0.239,0.035,0.223,-5.337
0.191,0.036,0.217,-5.337
0.160,0.038,0.216,-5.337
0.262,0.039,0.220,-5.337
0.299,0.038,0.223,-5.337
0.229,0.035,0.220,-5.337
0.168,0.035,0.219,-5.337
0.174,0.038,0.219,-5.337
0.207,0.039,0.219,-5.337
0.210,0.043,0.219,-5.337
0.239,0.041,0.220,-5.337
0.291,0.041,0.220,-5.337
0.198,0.042,0.217,-5.337
0.125,0.042,0.216,-5.337
0.201,0.038,0.220,-5.337
0.298,0.035,0.222,-5.337
0.289,0.037,0.224,-5.337
0.229,0.040,0.222,-5.337
0.204,0.042,0.223,-5.337
0.227,0.043,0.222,-5.337
0.280,0.039,0.218,-5.337
0.276,0.039,0.215,-5.337
0.281,0.040,0.215,-5.337
0.252,0.042,0.218,-5.337
0.187,0.043,0.220,-5.337
0.155,0.042,0.226,-5.337
0.199,0.042,0.226,-5.337
0.227,0.042,0.225,-5.337
0.146,0.042,0.221,-5.337
0.176,0.042,0.217,-5.337
0.220,0.041,0.215,-5.337
0.276,0.042,0.214,-5.337
0.273,0.046,0.217,-5.337
0.229,0.044,0.223,-5.337
0.191,0.041,0.224,-5.337
0.196,0.041,0.222,-5.337
0.198,0.043,0.219,-5.337
0.249,0.043,0.219,-5.337
0.318,0.039,0.220,-5.337
0.312,0.040,0.219,-5.337
0.264,0.044,0.217,-5.337
0.228,0.045,0.219,-5.337
0.241,0.042,0.220,-5.337
0.231,0.046,0.219,-5.337
0.211,0.046,0.221,-5.337
0.190,0.043,0.218,-5.337
0.186,0.042,0.217,-5.337
0.236,0.045,0.219,-5.337
0.301,0.046,0.225,-5.337
0.277,0.049,0.223,-5.337
0.216,0.049,0.222,-5.337
0.177,0.050,0.220,-5.337
0.081,0.052,0.218,-5.337
0.088,0.046,0.217,-5.337
0.190,0.044,0.221,-5.337
0.297,0.042,0.222,-5.337
0.304,0.045,0.223,-5.337
0.204,0.047,0.222,-5.337
0.164,0.048,0.224,-5.337
0.174,0.048,0.224,-5.337
0.180,0.053,0.221,-5.337
0.226,0.050,0.218,-5.337
0.263,0.050,0.221,-5.337
0.191,0.048,0.222,-5.337
0.207,0.048,0.220,-5.337
0.234,0.047,0.217,-5.337
0.189,0.045,0.214,-5.337
0.176,0.047,0.215,-5.337
0.226,0.047,0.217,-5.337
0.227,0.047,0.218,-5.337
0.207,0.045,0.221,-5.337
0.225,0.047,0.223,-5.337
0.208,0.050,0.219,-5.337
0.213,0.050,0.215,-5.337
0.184,0.049,0.215,-5.337
0.181,0.048,0.222,-5.337
0.190,0.049,0.225,-5.337
0.193,0.055,0.224,-5.337
0.209,0.051,0.222,-5.337
0.255,0.049,0.224,-5.337
0.287,0.049,0.226,-5.337
0.266,0.052,0.225,-5.337
0.209,0.054,0.220,-5.337
0.219,0.054,0.220,-5.337
0.229,0.054,0.223,-5.337
0.165,0.054,0.226,-5.337
0.157,0.059,0.228,-5.337
0.155,0.062,0.226,-5.337
0.149,0.058,0.219,-5.337
0.183,0.054,0.213,-5.337
0.169,0.055,0.212,-5.337
0.121,0.055,0.215,-5.337
0.166,0.054,0.222,-5.337
0.199,0.054,0.225,-5.337
0.240,0.054,0.225,-5.337
0.298,0.052,0.220,-5.337
0.256,0.053,0.217,-5.337
0.205,0.055,0.221,-5.337
0.245,0.056,0.226,-5.337
0.199,0.058,0.223,-5.337
0.149,0.060,0.223,-5.337
0.158,0.061,0.221,-5.337
0.129,0.063,0.219,-5.337
0.151,0.060,0.221,-5.337
0.195,0.060,0.222,-5.337
0.144,0.061,0.221,-5.337
0.218,0.063,0.223,-5.337
0.229,0.061,0.224,-5.337
0.169,0.062,0.224,-5.337
0.175,0.062,0.226,-5.337
0.249,0.060,0.228,-5.337
0.272,0.057,0.224,-5.337
0.240,0.060,0.219,-5.337
0.284,0.055,0.217,-5.337
0.347,0.056,0.222,-5.337
0.267,0.061,0.223,-5.337
0.153,0.063,0.222,-5.337
0.128,0.063,0.222,-5.337
0.206,0.058,0.218,-5.337
0.301,0.060,0.218,-5.337
0.236,0.063,0.221,-5.337
0.240,0.064,0.222,-5.337
0.263,0.061,0.219,-5.337
0.231,0.064,0.220,-5.337
0.157,0.067,0.220,-5.337
0.147,0.068,0.220,-5.337
0.163,0.063,0.218,-5.337
0.166,0.059,0.219,-5.337
0.226,0.061,0.217,-5.337
0.247,0.064,0.217,-5.337
0.260,0.067,0.219,-5.337
0.199,0.068,0.226,-5.337
0.222,0.063,0.230,-5.337
0.223,0.062,0.226,-5.337
0.171,0.063,0.220,-5.337
0.200,0.058,0.216,-5.337
0.271,0.056,0.215,-5.337
0.291,0.057,0.216,-5.337
0.241,0.061,0.218,-5.337
0.199,0.065,0.222,-5.337
0.218,0.064,0.225,-5.337
0.292,0.062,0.222,-5.337
0.267,0.060,0.218,-5.337
0.202,0.060,0.219,-5.337
0.275,0.057,0.223,-5.337
0.372,0.055,0.222,-5.337
0.319,0.060,0.221,-5.337
0.167,0.064,0.221,-5.337
0.118,0.065,0.220,-5.337
0.159,0.067,0.220,-5.337
0.215,0.067,0.223,-5.337
0.265,0.065,0.221,-5.337
0.205,0.066,0.219,-5.337
0.142,0.067,0.220,-5.337
0.137,0.068,0.221,-5.337
0.130,0.067,0.219,-5.337
0.189,0.064,0.221,-5.337
0.209,0.067,0.224,-5.337
0.230,0.067,0.223,-5.337
0.234,0.064,0.220,-5.337
0.226,0.062,0.221,-5.337
0.247,0.059,0.223,-5.337
0.260,0.060,0.224,-5.337
0.263,0.060,0.223,-5.337
0.293,0.060,0.219,-5.337
0.254,0.059,0.219,-5.337
0.253,0.059,0.219,-5.337
0.256,0.060,0.219,-5.337
0.276,0.059,0.217,-5.337
0.302,0.058,0.217,-5.337
0.234,0.059,0.218,-5.337
0.213,0.062,0.222,-5.337
0.208,0.061,0.219,-5.337
0.232,0.062,0.217,-5.337
0.203,0.060,0.219,-5.337
0.167,0.060,0.223,-5.337
0.170,0.063,0.225,-5.337
0.172,0.062,0.224,-5.337
0.165,0.062,0.219,-5.337
0.170,0.062,0.217,-5.337
0.223,0.062,0.216,-5.337
0.234,0.067,0.218,-5.337
0.202,0.069,0.219,-5.337
0.243,0.064,0.221,-5.337
0.272,0.062,0.223,-5.337
0.270,0.063,0.221,-5.337
0.200,0.067,0.217,-5.337
0.210,0.069,0.213,-5.337
0.144,0.070,0.215,-5.337
0.175,0.067,0.218,-5.337
0.209,0.065,0.221,-5.337
0.248,0.064,0.223,-5.337
0.268,0.064,0.225,-5.337
0.251,0.061,0.223,-5.337
0.258,0.061,0.221,-5.337
0.266,0.062,0.217,-5.337
0.218,0.065,0.218,-5.337
0.153,0.066,0.221,-5.337
0.200,0.067,0.219,-5.337
0.228,0.065,0.217,-5.337
0.208,0.065,0.218,-5.337
0.256,0.064,0.215,-5.337
0.267,0.066,0.214,-5.337
0.251,0.066,0.214,-5.337
0.275,0.067,0.219,-5.337
0.283,0.067,0.222,-5.337
0.242,0.067,0.225,-5.337
0.208,0.067,0.224,-5.337
0.227,0.069,0.220,-5.337
0.224,0.068,0.215,-5.337
0.241,0.067,0.216,-5.337
0.224,0.067,0.218,-5.337
0.226,0.069,0.222,-5.337
0.183,0.072,0.224,-5.337
0.167,0.067,0.223,-5.337
0.222,0.063,0.224,-5.337
0.217,0.067,0.226,-5.337
0.217,0.069,0.226,-5.337
0.212,0.071,0.223,-5.337
0.218,0.065,0.219,-5.337
0.237,0.065,0.216,-5.337
0.214,0.069,0.216,-5.337
0.209,0.066,0.217,-5.337
0.237,0.059,0.222,-5.337
0.227,0.059,0.224,-5.337
0.267,0.060,0.221,-5.337
0.295,0.059,0.218,-5.337
0.274,0.058,0.221,-5.337
0.230,0.056,0.223,-5.337
0.228,0.057,0.221,-5.337
0.205,0.060,0.217,-5.337
0.226,0.060,0.217,-5.337
0.215,0.057,0.220,-5.337
0.205,0.055,0.222,-5.337
0.224,0.053,0.222,-5.337
0.233,0.056,0.222,-5.337
0.260,0.057,0.221,-5.337
0.242,0.059,0.220,-5.337
0.189,0.058,0.219,-5.337
0.183,0.057,0.216,-5.337
0.199,0.056,0.218,-5.337
0.155,0.058,0.220,-5.337
0.111,0.060,0.220,-5.337
0.153,0.061,0.220,-5.337
0.203,0.059,0.222,-5.337
0.233,0.057,0.220,-5.337
0.223,0.054,0.223,-5.337
0.173,0.055,0.222,-5.337
0.180,0.054,0.223,-5.337
0.156,0.055,0.219,-5.337
0.187,0.054,0.217,-5.337
0.282,0.054,0.217,-5.337
0.262,0.057,0.221,-5.337
0.213,0.057,0.224,-5.337
0.208,0.058,0.222,-5.337
0.219,0.054,0.220,-5.337
0.208,0.053,0.220,-5.337
0.198,0.054,0.221,-5.337
0.193,0.054,0.221,-5.337
0.155,0.057,0.223,-5.337
0.171,0.055,0.225,-5.337
0.187,0.056,0.222,-5.337
0.140,0.059,0.220,-5.337
0.112,0.061,0.220,-5.337
0.176,0.063,0.219,-5.337
0.153,0.061,0.220,-5.337
0.151,0.061,0.222,-5.337
0.185,0.058,0.221,-5.337
0.251,0.049,0.217,-5.337
0.250,0.050,0.217,-5.337
0.238,0.050,0.221,-5.337
0.301,0.047,0.221,-5.337
0.297,0.046,0.216,-5.337
0.196,0.048,0.213,-5.337
0.188,0.047,0.214,-5.337
0.177,0.048,0.218,-5.337
0.075,0.050,0.221,-5.337
0.078,0.048,0.224,-5.337
0.158,0.053,0.222,-5.337
0.182,0.053,0.216,-5.337
0.187,0.049,0.218,-5.337
0.185,0.048,0.222,-5.337
0.107,0.047,0.224,-5.337
0.091,0.051,0.223,-5.337
0.181,0.053,0.217,-5.337
0.271,0.052,0.215,-5.337
0.297,0.051,0.218,-5.337
0.208,0.053,0.222,-5.337
0.208,0.052,0.225,-5.337
0.221,0.048,0.222,-5.337
0.233,0.047,0.219,-5.337
0.208,0.050,0.218,-5.337
0.113,0.051,0.219,-5.337
0.147,0.049,0.220,-5.337
0.128,0.050,0.219,-5.337
0.090,0.051,0.218,-5.337
0.125,0.051,0.219,-5.337
0.214,0.051,0.218,-5.337
0.255,0.052,0.220,-5.337
0.199,0.052,0.219,-5.337
0.119,0.053,0.217,-5.337
0.165,0.053,0.216,-5.337
0.272,0.052,0.220,-5.337
0.308,0.047,0.220,-5.337
0.229,0.050,0.221,-5.337
0.145,0.055,0.219,-5.337
0.177,0.050,0.221,-5.337
0.247,0.047,0.220,-5.337
0.232,0.046,0.219,-5.337
0.211,0.048,0.216,-5.337
0.184,0.053,0.218,-5.337
0.177,0.051,0.219,-5.337
0.213,0.048,0.217,-5.337
0.226,0.054,0.219,-5.337
0.255,0.051,0.220,-5.337
0.279,0.047,0.223,-5.337
0.231,0.046,0.224,-5.337
0.178,0.046,0.224,-5.337
0.177,0.044,0.220,-5.337
0.177,0.043,0.218,-5.337
0.156,0.042,0.218,-5.337
0.193,0.048,0.221,-5.337
0.167,0.048,0.220,-5.337
0.196,0.046,0.218,-5.337
0.245,0.043,0.220,-5.337
0.219,0.048,0.221,-5.337
0.217,0.048,0.217,-5.337
0.240,0.044,0.217,-5.337
0.253,0.043,0.219,-5.337
0.239,0.044,0.218,-5.337
0.249,0.041,0.219,-5.337
0.213,0.041,0.223,-5.337
0.218,0.043,0.224,-5.337
0.231,0.045,0.221,-5.337
0.238,0.043,0.215,-5.337
0.222,0.043,0.212,-5.337
0.136,0.043,0.216,-5.337
0.077,0.047,0.223,-5.337
0.142,0.044,0.226,-5.337
0.221,0.039,0.225,-5.337
0.218,0.042,0.225,-5.337
0.231,0.043,0.223,-5.337
0.228,0.042,0.225,-5.337
0.211,0.039,0.225,-5.337
0.242,0.041,0.222,-5.337
0.259,0.041,0.218,-5.337
0.232,0.043,0.218,-5.337
0.182,0.043,0.218,-5.337
0.078,0.048,0.220,-5.337
0.038,0.048,0.221,-5.337
0.130,0.047,0.221,-5.337
0.193,0.045,0.218,-5.337
0.182,0.044,0.219,-5.337
0.163,0.041,0.218,-5.337
0.221,0.045,0.220,-5.337
0.216,0.044,0.222,-5.337
0.172,0.043,0.224,-5.337
0.155,0.044,0.223,-5.337
0.159,0.046,0.222,-5.337
0.201,0.043,0.222,-5.337
0.264,0.047,0.224,-5.337
0.195,0.047,0.224,-5.337
0.082,0.044,0.221,-5.337
0.113,0.042,0.219,-5.337
0.184,0.040,0.217,-5.337
0.215,0.043,0.220,-5.337
0.174,0.046,0.219,-5.337
0.105,0.050,0.222,-5.337
0.113,0.051,0.223,-5.337
0.146,0.045,0.222,-5.337
0.194,0.041,0.220,-5.337
0.195,0.045,0.220,-5.337
0.152,0.045,0.219,-5.337
0.151,0.044,0.220,-5.337
0.165,0.043,0.221,-5.337
0.173,0.043,0.224,-5.337
0.139,0.040,0.226,-5.337
0.178,0.037,0.227,-5.337
0.212,0.038,0.224,-5.337
0.217,0.042,0.219,-5.337
0.211,0.038,0.217,-5.337
0.231,0.033,0.218,-5.337
0.265,0.032,0.217,-5.337
0.231,0.033,0.216,-5.337
0.155,0.037,0.222,-5.337
0.196,0.037,0.227,-5.337
0.202,0.038,0.227,-5.337
0.133,0.039,0.224,-5.337
0.106,0.035,0.221,-5.337
0.148,0.035,0.217,-5.337
0.187,0.036,0.219,-5.337
0.173,0.038,0.220,-5.337
0.174,0.038,0.224,-5.337
0.180,0.035,0.226,-5.337
0.190,0.036,0.224,-5.337
0.164,0.037,0.220,-5.337
0.157,0.038,0.218,-5.337
0.230,0.036,0.221,-5.337
0.204,0.039,0.221,-5.337
0.175,0.037,0.221,-5.337
0.181,0.037,0.223,-5.337
0.152,0.036,0.221,-5.337
0.127,0.035,0.218,-5.337
0.111,0.039,0.216,-5.337
0.080,0.043,0.220,-5.337
0.162,0.041,0.224,-5.337
0.202,0.041,0.225,-5.337
0.138,0.043,0.223,-5.337
0.112,0.044,0.223,-5.337
0.156,0.042,0.224,-5.337
0.158,0.042,0.223,-5.337
0.209,0.040,0.223,-5.337
0.204,0.042,0.221,-5.337
0.248,0.043,0.223,-5.337
0.312,0.040,0.223,-5.337
0.274,0.043,0.221,-5.337
0.181,0.044,0.218,-5.337
0.120,0.044,0.217,-5.337
0.168,0.041,0.217,-5.337
0.191,0.042,0.217,-5.337
0.172,0.044,0.216,-5.337
0.165,0.043,0.221,-5.337
0.238,0.041,0.221,-5.337
0.248,0.043,0.220,-5.337
0.189,0.039,0.218,-5.337
0.164,0.038,0.217,-5.337
0.200,0.038,0.219,-5.337
0.263,0.038,0.219,-5.337
0.216,0.035,0.221,-5.337
0.194,0.034,0.223,-5.337
0.242,0.035,0.225,-5.337
0.282,0.037,0.225,-5.337
0.284,0.042,0.223,-5.337
0.203,0.042,0.219,-5.337
0.178,0.041,0.218,-5.337
0.253,0.040,0.219,-5.337
0.237,0.041,0.218,-5.337
0.162,0.042,0.218,-5.337
0.122,0.039,0.220,-5.337
0.181,0.039,0.222,-5.337
0.180,0.040,0.225,-5.337
0.203,0.039,0.223,-5.337
0.213,0.040,0.223,-5.337
0.216,0.037,0.224,-5.337
0.145,0.037,0.223,-5.337
0.079,0.042,0.220,-5.337
0.120,0.044,0.218,-5.337
0.170,0.039,0.218,-5.337
0.216,0.039,0.221,-5.337
0.195,0.039,0.221,-5.337
0.199,0.036,0.220,-5.337
0.231,0.039,0.220,-5.337
0.209,0.041,0.220,-5.337
0.203,0.038,0.221,-5.337
0.248,0.035,0.223,-5.337
0.254,0.037,0.221,-5.337
0.247,0.040,0.219,-5.337
0.192,0.043,0.216,-5.337
0.161,0.043,0.216,-5.337
0.211,0.045,0.222,-5.337
0.207,0.047,0.224,-5.337
0.163,0.040,0.222,-5.337
0.146,0.040,0.220,-5.337
0.204,0.042,0.218,-5.337
0.162,0.046,0.216,-5.337
0.112,0.051,0.219,-5.337
0.185,0.047,0.222,-5.337
0.274,0.040,0.224,-5.337
0.271,0.041,0.222,-5.337
0.237,0.042,0.222,-5.337
0.182,0.042,0.219,-5.337
0.180,0.042,0.217,-5.337
0.170,0.044,0.218,-5.337
0.141,0.046,0.222,-5.337
0.141,0.043,0.223,-5.337
0.202,0.042,0.220,-5.337
0.225,0.043,0.215,-5.337
0.139,0.044,0.215,-5.337
0.159,0.042,0.217,-5.337
0.230,0.043,0.216,-5.337
0.188,0.045,0.213,-5.337
0.177,0.045,0.214,-5.337
0.216,0.047,0.222,-5.337
0.173,0.047,0.225,-5.337
0.175,0.046,0.224,-5.337
0.222,0.046,0.221,-5.337
0.191,0.044,0.224,-5.337
0.224,0.046,0.224,-5.337
0.280,0.047,0.224,-5.337
0.287,0.050,0.224,-5.337
0.174,0.050,0.222,-5.337
0.189,0.044,0.220,-5.337
0.224,0.046,0.221,-5.337
0.187,0.050,0.221,-5.337
0.184,0.049,0.219,-5.337
0.178,0.046,0.220,-5.337
0.186,0.046,0.219,-5.337
0.213,0.048,0.218,-5.337
0.254,0.050,0.219,-5.337
0.228,0.048,0.224,-5.337
0.225,0.045,0.228,-5.337
0.205,0.046,0.226,-5.337
0.172,0.047,0.223,-5.337
0.142,0.047,0.223,-5.337
0.154,0.045,0.223,-5.337
0.180,0.043,0.222,-5.337
0.207,0.044,0.223,-5.337
0.207,0.042,0.225,-5.337
0.263,0.044,0.224,-5.337
0.238,0.046,0.223,-5.337
0.171,0.048,0.221,-5.337
0.125,0.048,0.224,-5.337
0.155,0.042,0.222,-5.337
0.181,0.045,0.221,-5.337
0.194,0.046,0.218,-5.337
0.182,0.050,0.217,-5.337
0.192,0.048,0.218,-5.337
0.245,0.046,0.223,-5.337
0.250,0.046,0.226,-5.337
0.209,0.044,0.224,-5.337
0.187,0.044,0.222,-5.337
0.197,0.048,0.220,-5.337
0.191,0.051,0.218,-5.337
0.249,0.049,0.219,-5.337
0.243,0.048,0.225,-5.337
0.200,0.051,0.229,-5.337
0.193,0.052,0.226,-5.337
0.197,0.052,0.224,-5.337
0.189,0.052,0.223,-5.337
0.219,0.049,0.221,-5.337
0.243,0.049,0.222,-5.337
0.207,0.047,0.223,-5.337
0.169,0.047,0.223,-5.337
0.193,0.046,0.219,-5.337
0.225,0.047,0.218,-5.337
0.168,0.051,0.220,-5.337
0.195,0.052,0.221,-5.337
0.218,0.050,0.221,-5.337
0.196,0.047,0.219,-5.337
0.206,0.050,0.216,-5.337
0.172,0.051,0.218,-5.337
0.163,0.049,0.224,-5.337
0.199,0.051,0.228,-5.337
0.208,0.052,0.222,-5.337
0.167,0.056,0.217,-5.337
0.086,0.058,0.216,-5.337
0.158,0.055,0.218,-5.337
0.188,0.052,0.222,-5.337
0.190,0.051,0.226,-5.337
0.184,0.049,0.224,-5.337
0.205,0.048,0.218,-5.337
0.281,0.048,0.217,-5.337
0.259,0.049,0.218,-5.337
0.204,0.048,0.219,-5.337
0.206,0.049,0.221,-5.337
0.166,0.052,0.222,-5.337
0.184,0.050,0.223,-5.337
0.222,0.046,0.225,-5.337
0.222,0.047,0.226,-5.337
0.178,0.056,0.224,-5.337
0.127,0.055,0.221,-5.337
0.190,0.052,0.221,-5.337
0.191,0.054,0.222,-5.337
0.102,0.057,0.221,-5.337
0.119,0.056,0.217,-5.337
0.182,0.054,0.217,-5.337
0.223,0.057,0.218,-5.337
0.267,0.054,0.221,-5.337
0.227,0.051,0.222,-5.337
0.217,0.052,0.224,-5.337
0.191,0.052,0.222,-5.337
0.205,0.054,0.221,-5.337
0.243,0.052,0.221,-5.337
0.257,0.053,0.221,-5.337
0.289,0.052,0.218,-5.337
0.257,0.057,0.219,-5.337
0.181,0.055,0.218,-5.337
0.185,0.057,0.219,-5.337
0.240,0.055,0.220,-5.337
0.250,0.055,0.220,-5.337
0.158,0.058,0.220,-5.337
0.157,0.057,0.219,-5.337
0.198,0.056,0.221,-5.337
0.215,0.055,0.221,-5.337
0.199,0.055,0.222,-5.337
0.159,0.056,0.221,-5.337
0.133,0.056,0.222,-5.337
0.127,0.060,0.223,-5.337
0.180,0.062,0.220,-5.337
0.236,0.061,0.216,-5.337
0.279,0.061,0.219,-5.337
0.257,0.063,0.222,-5.337
0.203,0.064,0.223,-5.337
0.225,0.060,0.221,-5.337
0.193,0.061,0.220,-5.337
0.192,0.058,0.218,-5.337
0.252,0.054,0.218,-5.337
0.254,0.053,0.218,-5.337
0.188,0.054,0.221,-5.337
0.209,0.055,0.221,-5.337
0.221,0.056,0.221,-5.337
0.201,0.054,0.220,-5.337
0.224,0.056,0.218,-5.337
0.201,0.056,0.217,-5.337
0.107,0.058,0.219,-5.337
0.104,0.055,0.225,-5.337
0.202,0.055,0.226,-5.337
0.211,0.057,0.224,-5.337
0.195,0.055,0.220,-5.337
0.210,0.056,0.217,-5.337
0.278,0.058,0.215,-5.337
0.236,0.063,0.216,-5.337
0.169,0.062,0.219,-5.337
0.202,0.060,0.224,-5.337
0.305,0.059,0.221,-5.337
0.335,0.063,0.216,-5.337
0.310,0.065,0.215,-5.337
0.213,0.067,0.220,-5.337
0.149,0.065,0.224,-5.337
0.232,0.064,0.226,-5.337
0.270,0.061,0.226,-5.337
0.263,0.061,0.222,-5.337
0.208,0.063,0.216,-5.337
0.173,0.062,0.216,-5.337
0.153,0.063,0.219,-5.337
0.124,0.066,0.223,-5.337
0.157,0.063,0.224,-5.337
0.216,0.059,0.224,-5.337
0.252,0.062,0.221,-5.337
0.196,0.065,0.221,-5.337
0.151,0.065,0.224,-5.337
0.217,0.065,0.227,-5.337
0.202,0.063,0.227,-5.337
0.147,0.065,0.221,-5.337
0.167,0.064,0.219,-5.337
0.197,0.061,0.221,-5.337
0.212,0.058,0.224,-5.337
0.308,0.055,0.222,-5.337
0.291,0.055,0.219,-5.337
0.193,0.060,0.218,-5.337
0.154,0.060,0.220,-5.337
0.229,0.058,0.220,-5.337
0.226,0.059,0.218,-5.337
0.225,0.061,0.220,-5.337
0.182,0.064,0.223,-5.337
0.148,0.063,0.223,-5.337
0.194,0.061,0.221,-5.337
0.271,0.063,0.220,-5.337
0.214,0.067,0.218,-5.337
0.134,0.067,0.217,-5.337
0.140,0.067,0.220,-5.337
0.186,0.065,0.223,-5.337
0.219,0.067,0.222,-5.337
0.181,0.068,0.222,-5.337
0.103,0.067,0.224,-5.337
0.145,0.066,0.226,-5.337
0.166,0.063,0.222,-5.337
0.136,0.065,0.220,-5.337
0.199,0.066,0.220,-5.337
0.241,0.066,0.221,-5.337
0.233,0.066,0.219,-5.337
0.256,0.064,0.220,-5.337
0.269,0.062,0.218,-5.337
0.319,0.058,0.216,-5.337
0.264,0.064,0.217,-5.337
0.210,0.067,0.221,-5.337
0.212,0.066,0.221,-5.337
0.262,0.065,0.220,-5.337
0.232,0.067,0.222,-5.337
0.230,0.065,0.226,-5.337
0.256,0.064,0.224,-5.337
0.147,0.071,0.221,-5.337
0.108,0.074,0.220,-5.337
0.230,0.071,0.220,-5.337
0.302,0.066,0.221,-5.337
0.276,0.067,0.219,-5.337
0.217,0.069,0.218,-5.337
0.191,0.067,0.221,-5.337
0.144,0.069,0.223,-5.337
0.219,0.070,0.224,-5.337
0.315,0.074,0.226,-5.337
0.269,0.076,0.225,-5.337
0.196,0.073,0.223,-5.337
0.163,0.071,0.221,-5.337
0.137,0.070,0.222,-5.337
0.176,0.070,0.220,-5.337
0.260,0.067,0.220,-5.337
0.292,0.067,0.219,-5.337
0.246,0.066,0.219,-5.337
0.189,0.063,0.221,-5.337
0.233,0.066,0.223,-5.337
0.218,0.066,0.223,-5.337
0.192,0.065,0.220,-5.337
0.248,0.062,0.217,-5.337
0.237,0.063,0.215,-5.337
0.213,0.062,0.216,-5.337
0.210,0.063,0.221,-5.337
0.186,0.064,0.223,-5.337
0.211,0.064,0.222,-5.337
0.221,0.067,0.221,-5.337
0.221,0.067,0.223,-5.337
0.236,0.067,0.220,-5.337
0.201,0.069,0.219,-5.337
0.225,0.067,0.217,-5.337
0.239,0.067,0.221,-5.337
0.163,0.072,0.223,-5.337
0.141,0.073,0.222,-5.337
0.199,0.067,0.220,-5.337
0.221,0.067,0.219,-5.337
0.199,0.068,0.220,-5.337
0.205,0.067,0.216,-5.337
0.145,0.071,0.216,-5.337
0.176,0.071,0.216,-5.337
0.243,0.069,0.221,-5.337
0.254,0.070,0.224,-5.337
0.252,0.070,0.224,-5.337
0.235,0.070,0.216,-5.337
0.154,0.069,0.214,-5.337
0.126,0.070,0.214,-5.337
0.201,0.067,0.214,-5.337
0.226,0.066,0.217,-5.337
0.248,0.065,0.222,-5.337
0.279,0.064,0.225,-5.337
0.240,0.066,0.220,-5.337
0.247,0.062,0.218,-5.337
0.274,0.062,0.223,-5.337
0.233,0.064,0.224,-5.337
0.212,0.063,0.220,-5.337
0.196,0.061,0.218,-5.337
0.211,0.062,0.219,-5.337
0.196,0.061,0.222,-5.337
0.211,0.061,0.224,-5.337
0.177,0.062,0.222,-5.337
0.182,0.063,0.219,-5.337
0.160,0.063,0.219,-5.337
0.201,0.063,0.219,-5.337
0.244,0.064,0.220,-5.337
0.205,0.063,0.219,-5.337
0.228,0.061,0.220,-5.337
0.221,0.064,0.219,-5.337
0.174,0.065,0.218,-5.337
0.187,0.063,0.219,-5.337
0.153,0.062,0.220,-5.337
0.122,0.060,0.219,-5.337
0.159,0.059,0.218,-5.337
0.140,0.062,0.218,-5.337
0.144,0.063,0.221,-5.337
0.198,0.062,0.221,-5.337
0.181,0.059,0.220,-5.337
0.120,0.060,0.217,-5.337
0.175,0.061,0.217,-5.337
0.203,0.061,0.219,-5.337
0.234,0.061,0.221,-5.337
0.238,0.060,0.222,-5.337
0.164,0.061,0.222,-5.337
0.167,0.058,0.220,-5.337
0.188,0.059,0.220,-5.337
0.193,0.063,0.220,-5.337
0.244,0.064,0.221,-5.337
0.248,0.062,0.224,-5.337
0.215,0.063,0.225,-5.337
0.188,0.062,0.227,-5.337
0.192,0.060,0.222,-5.337
0.164,0.059,0.220,-5.337
0.117,0.061,0.219,-5.337
0.128,0.061,0.218,-5.337
0.161,0.060,0.216,-5.337
0.242,0.057,0.219,-5.337
0.193,0.057,0.222,-5.337
0.118,0.059,0.218,-5.337
0.108,0.058,0.215,-5.337
0.160,0.062,0.217,-5.337
0.147,0.060,0.222,-5.337
0.168,0.057,0.223,-5.337
0.172,0.060,0.223,-5.337
0.215,0.066,0.224,-5.337
0.210,0.061,0.223,-5.337
0.189,0.055,0.223,-5.337
0.159,0.055,0.225,-5.337
0.224,0.055,0.224,-5.337
0.244,0.056,0.223,-5.337
0.136,0.056,0.218,-5.337
0.082,0.055,0.219,-5.337
0.140,0.055,0.220,-5.337
0.168,0.053,0.223,-5.337
0.162,0.056,0.223,-5.337
0.136,0.056,0.222,-5.337
0.156,0.054,0.222,-5.337
0.181,0.059,0.226,-5.337
0.184,0.058,0.223,-5.337
0.230,0.058,0.221,-5.337
0.229,0.058,0.219,-5.337
0.230,0.057,0.217,-5.337
0.241,0.054,0.220,-5.337
0.190,0.058,0.222,-5.337
0.177,0.058,0.221,-5.337
0.151,0.058,0.221,-5.337
0.133,0.059,0.222,-5.337
0.155,0.060,0.220,-5.337
0.226,0.058,0.216,-5.337
0.293,0.058,0.218,-5.337
0.245,0.057,0.220,-5.337
0.193,0.053,0.219,-5.337
0.224,0.053,0.219,-5.337
0.167,0.056,0.221,-5.337
0.151,0.054,0.224,-5.337
0.181,0.050,0.225,-5.337
0.220,0.048,0.224,-5.337
0.265,0.049,0.221,-5.337
0.228,0.054,0.221,-5.337
0.206,0.050,0.220,-5.337
0.195,0.051,0.219,-5.337
0.188,0.053,0.217,-5.337
0.240,0.052,0.221,-5.337
0.277,0.052,0.223,-5.337
0.189,0.051,0.220,-5.337
0.156,0.048,0.217,-5.337
0.223,0.047,0.216,-5.337
0.168,0.049,0.218,-5.337
0.152,0.051,0.220,-5.337
0.293,0.048,0.221,-5.337
0.280,0.053,0.224,-5.337
0.175,0.052,0.223,-5.337
0.188,0.048,0.222,-5.337
0.236,0.048,0.219,-5.337
0.192,0.050,0.220,-5.337
0.143,0.052,0.221,-5.337
0.197,0.049,0.220,-5.337
0.183,0.051,0.219,-5.337
0.170,0.049,0.221,-5.337
0.183,0.049,0.223,-5.337
0.189,0.050,0.219,-5.337
0.206,0.050,0.215,-5.337
0.172,0.052,0.212,-5.337
0.148,0.052,0.213,-5.337
0.152,0.049,0.213,-5.337
0.251,0.046,0.217,-5.337
0.280,0.050,0.223,-5.337
0.212,0.052,0.228,-5.337
0.157,0.052,0.223,-5.337
0.182,0.052,0.217,-5.337
0.167,0.054,0.214,-5.337
0.085,0.057,0.219,-5.337
0.129,0.052,0.222,-5.337
0.221,0.049,0.222,-5.337
0.262,0.047,0.222,-5.337
0.229,0.049,0.223,-5.337
0.253,0.050,0.225,-5.337
0.157,0.051,0.223,-5.337
0.155,0.048,0.217,-5.337
0.211,0.050,0.216,-5.337
0.181,0.050,0.217,-5.337
0.122,0.045,0.220,-5.337
0.174,0.041,0.220,-5.337
0.163,0.044,0.219,-5.337
0.090,0.046,0.219,-5.337
0.137,0.046,0.219,-5.337
0.214,0.042,0.219,-5.337
0.152,0.043,0.221,-5.337
0.082,0.044,0.221,-5.337
0.128,0.043,0.221,-5.337
0.226,0.039,0.222,-5.337
0.268,0.037,0.220,-5.337
0.213,0.044,0.221,-5.337
0.161,0.046,0.221,-5.337
0.135,0.047,0.220,-5.337
0.183,0.042,0.217,-5.337
0.251,0.042,0.216,-5.337
0.223,0.042,0.218,-5.337
0.171,0.042,0.221,-5.337
0.180,0.041,0.219,-5.337
0.182,0.041,0.221,-5.337
0.193,0.043,0.220,-5.337
0.174,0.043,0.220,-5.337
0.257,0.038,0.220,-5.337
0.261,0.041,0.223,-5.337
0.198,0.041,0.225,-5.337
0.176,0.042,0.223,-5.337
0.199,0.041,0.221,-5.337
0.192,0.042,0.216,-5.337
0.178,0.041,0.214,-5.337
0.186,0.043,0.213,-5.337
0.170,0.043,0.216,-5.337
0.159,0.042,0.220,-5.337
0.163,0.043,0.221,-5.337
0.210,0.039,0.220,-5.337
0.242,0.039,0.223,-5.337
0.214,0.038,0.223,-5.337
0.256,0.040,0.223,-5.337
0.257,0.040,0.221,-5.337
0.230,0.044,0.223,-5.337
0.199,0.046,0.225,-5.337
0.202,0.042,0.226,-5.337
0.214,0.040,0.223,-5.337
0.227,0.039,0.219,-5.337
0.218,0.038,0.217,-5.337
0.098,0.044,0.222,-5.337
0.121,0.042,0.226,-5.337
0.195,0.039,0.222,-5.337
0.220,0.041,0.218,-5.337
0.193,0.041,0.216,-5.337
0.190,0.039,0.219,-5.337
0.201,0.040,0.223,-5.337
0.209,0.039,0.224,-5.337
0.197,0.041,0.223,-5.337
0.178,0.042,0.225,-5.337
0.217,0.039,0.223,-5.337
0.250,0.037,0.223,-5.337
0.301,0.038,0.221,-5.337
0.296,0.039,0.221,-5.337
0.234,0.039,0.223,-5.337
0.174,0.041,0.223,-5.337
0.160,0.042,0.223,-5.337
0.142,0.045,0.221,-5.337
0.160,0.044,0.218,-5.337
0.210,0.039,0.219,-5.337
0.193,0.036,0.219,-5.337
0.182,0.038,0.217,-5.337
0.177,0.041,0.218,-5.337
0.182,0.041,0.219,-5.337
0.234,0.039,0.221,-5.337
0.217,0.040,0.222,-5.337
0.223,0.043,0.223,-5.337
0.209,0.046,0.223,-5.337
0.188,0.045,0.226,-5.337
0.140,0.045,0.223,-5.337
0.120,0.046,0.220,-5.337
0.132,0.044,0.221,-5.337
0.113,0.041,0.223,-5.337
0.163,0.042,0.223,-5.337
0.200,0.042,0.221,-5.337
0.224,0.039,0.219,-5.337
0.199,0.041,0.223,-5.337
0.146,0.042,0.225,-5.337
0.162,0.040,0.225,-5.337
0.207,0.037,0.223,-5.337
0.230,0.035,0.218,-5.337
0.247,0.036,0.216,-5.337
0.224,0.039,0.219,-5.337
0.202,0.039,0.222,-5.337
0.236,0.041,0.222,-5.337
0.156,0.039,0.219,-5.337
0.163,0.039,0.221,-5.337
0.229,0.041,0.226,-5.337
0.229,0.042,0.228,-5.337
0.210,0.044,0.223,-5.337
0.205,0.045,0.218,-5.337
0.155,0.047,0.220,-5.337
0.168,0.047,0.223,-5.337
0.221,0.045,0.222,-5.337
0.206,0.045,0.218,-5.337
0.193,0.046,0.220,-5.337
0.221,0.044,0.225,-5.337
0.217,0.043,0.228,-5.337
0.199,0.043,0.226,-5.337
0.178,0.045,0.223,-5.337
0.157,0.049,0.218,-5.337
0.074,0.047,0.219,-5.337
0.060,0.046,0.221,-5.337
0.104,0.047,0.219,-5.337
0.158,0.045,0.219,-5.337
0.177,0.044,0.222,-5.337
0.158,0.043,0.221,-5.337
0.161,0.044,0.218,-5.337
0.219,0.043,0.219,-5.337
0.157,0.045,0.220,-5.337
0.172,0.043,0.223,-5.337
0.232,0.041,0.224,-5.337
0.200,0.041,0.222,-5.337
0.204,0.040,0.222,-5.337
0.198,0.041,0.221,-5.337
0.188,0.043,0.221,-5.337
0.189,0.045,0.219,-5.337
0.238,0.044,0.217,-5.337
0.250,0.042,0.217,-5.337
0.241,0.041,0.217,-5.337
0.244,0.040,0.216,-5.337
0.237,0.043,0.218,-5.337
0.163,0.044,0.223,-5.337
0.109,0.045,0.225,-5.337
0.148,0.044,0.224,-5.337
0.232,0.045,0.223,-5.337
0.242,0.048,0.221,-5.337
0.155,0.054,0.221,-5.337
0.146,0.053,0.223,-5.337
0.186,0.051,0.223,-5.337
0.135,0.051,0.222,-5.337
0.189,0.048,0.221,-5.337
0.259,0.047,0.221,-5.337
0.218,0.048,0.222,-5.337
0.183,0.049,0.222,-5.337
0.174,0.048,0.220,-5.337
0.209,0.045,0.216,-5.337
0.236,0.043,0.216,-5.337
0.190,0.045,0.221,-5.337
0.204,0.043,0.225,-5.337
0.195,0.045,0.224,-5.337
0.227,0.048,0.223,-5.337
0.185,0.045,0.222,-5.337
0.179,0.043,0.223,-5.337
0.237,0.041,0.221,-5.337
0.291,0.043,0.222,-5.337
0.173,0.045,0.223,-5.337
0.110,0.045,0.227,-5.337
0.155,0.042,0.226,-5.337
0.182,0.044,0.225,-5.337
0.193,0.047,0.221,-5.337
0.239,0.046,0.221,-5.337
0.238,0.046,0.220,-5.337
0.231,0.049,0.223,-5.337
0.169,0.050,0.222,-5.337
0.172,0.051,0.220,-5.337
0.176,0.049,0.221,-5.337
0.130,0.049,0.220,-5.337
0.174,0.048,0.217,-5.337
0.233,0.049,0.218,-5.337
0.158,0.051,0.220,-5.337
0.076,0.050,0.221,-5.337
0.160,0.045,0.224,-5.337
0.221,0.047,0.228,-5.337
0.176,0.050,0.226,-5.337
0.211,0.051,0.224,-5.337
0.264,0.050,0.224,-5.337
0.243,0.051,0.225,-5.337
0.193,0.049,0.228,-5.337
0.183,0.051,0.228,-5.337
0.212,0.049,0.228,-5.337
0.187,0.047,0.226,-5.337
0.271,0.044,0.227,-5.337
0.293,0.046,0.221,-5.337
0.328,0.046,0.219,-5.337
0.269,0.046,0.222,-5.337
0.253,0.048,0.225,-5.337
0.269,0.048,0.223,-5.337
0.231,0.050,0.222,-5.337
0.204,0.053,0.222,-5.337
0.213,0.055,0.222,-5.337
0.214,0.049,0.223,-5.337
0.219,0.046,0.221,-5.337
0.160,0.049,0.216,-5.337
0.165,0.052,0.216,-5.337
0.183,0.055,0.218,-5.337
0.144,0.056,0.225,-5.337
0.184,0.053,0.230,-5.337
0.229,0.049,0.224,-5.337
0.190,0.052,0.220,-5.337
0.161,0.052,0.224,-5.337
0.224,0.047,0.229,-5.337
0.257,0.047,0.225,-5.337
0.259,0.049,0.222,-5.337
0.259,0.048,0.222,-5.337
0.234,0.050,0.226,-5.337
0.221,0.052,0.226,-5.337
0.224,0.049,0.223,-5.337
0.190,0.049,0.218,-5.337
0.170,0.051,0.218,-5.337
0.261,0.046,0.222,-5.337
0.276,0.046,0.222,-5.337
0.236,0.049,0.223,-5.337
0.206,0.053,0.224,-5.337
0.196,0.054,0.226,-5.337
0.155,0.052,0.227,-5.337
0.174,0.047,0.222,-5.337
0.213,0.046,0.218,-5.337
0.226,0.049,0.218,-5.337
0.239,0.052,0.222,-5.337
0.260,0.054,0.224,-5.337
0.274,0.053,0.227,-5.337
0.232,0.053,0.225,-5.337
0.244,0.050,0.223,-5.337
0.251,0.048,0.220,-5.337
0.216,0.050,0.223,-5.337
0.169,0.054,0.227,-5.337
0.211,0.051,0.224,-5.337
0.306,0.053,0.223,-5.337
0.306,0.053,0.227,-5.337
0.231,0.053,0.228,-5.337
0.197,0.054,0.226,-5.337
0.208,0.053,0.226,-5.337
0.223,0.053,0.219,-5.337
0.263,0.055,0.215,-5.337
0.265,0.054,0.217,-5.337
0.207,0.055,0.222,-5.337
0.180,0.052,0.220,-5.337
0.223,0.054,0.217,-5.337
0.174,0.054,0.215,-5.337
0.150,0.051,0.219,-5.337
0.160,0.050,0.221,-5.337
0.219,0.051,0.223,-5.337
0.264,0.050,0.222,-5.337
0.215,0.053,0.224,-5.337
0.193,0.051,0.224,-5.337
0.257,0.049,0.225,-5.337
0.269,0.053,0.222,-5.337
0.223,0.055,0.222,-5.337
0.209,0.053,0.219,-5.337
0.139,0.055,0.223,-5.337
0.078,0.058,0.225,-5.337
0.107,0.059,0.217,-5.337
0.167,0.055,0.209,-5.337
0.149,0.056,0.209,-5.337
0.194,0.056,0.218,-5.337
0.187,0.059,0.226,-5.337
0.145,0.055,0.225,-5.337
0.192,0.049,0.219,-5.337
0.206,0.052,0.219,-5.337
0.187,0.052,0.217,-5.337
0.205,0.054,0.217,-5.337
0.257,0.051,0.220,-5.337
0.316,0.051,0.225,-5.337
0.287,0.051,0.229,-5.337
0.204,0.055,0.228,-5.337
0.158,0.053,0.224,-5.337
0.143,0.054,0.220,-5.337
0.110,0.054,0.217,-5.337
0.130,0.051,0.217,-5.337
0.164,0.053,0.219,-5.337
0.177,0.055,0.221,-5.337
0.256,0.053,0.221,-5.337
0.314,0.050,0.222,-5.337
0.244,0.051,0.223,-5.337
0.177,0.055,0.222,-5.337
0.118,0.056,0.217,-5.337
0.116,0.055,0.219,-5.337
0.169,0.054,0.223,-5.337
0.205,0.053,0.222,-5.337
0.246,0.054,0.217,-5.337
0.259,0.053,0.219,-5.337
0.240,0.053,0.224,-5.337
0.268,0.052,0.224,-5.337
0.280,0.050,0.223,-5.337
0.222,0.053,0.221,-5.337
0.211,0.059,0.218,-5.337
0.212,0.059,0.218,-5.337
0.192,0.054,0.220,-5.337
0.184,0.055,0.222,-5.337
0.193,0.058,0.223,-5.337
0.163,0.057,0.224,-5.337
0.125,0.054,0.224,-5.337
0.078,0.055,0.221,-5.337
0.119,0.057,0.218,-5.337
0.211,0.059,0.215,-5.337
0.223,0.056,0.218,-5.337
0.324,0.052,0.223,-5.337
0.341,0.053,0.225,-5.337
0.268,0.057,0.218,-5.337
0.273,0.060,0.215,-5.337
0.323,0.059,0.217,-5.337
0.306,0.058,0.220,-5.337
0.281,0.058,0.224,-5.337
0.267,0.059,0.227,-5.337
0.268,0.060,0.223,-5.337
0.188,0.059,0.213,-5.337
0.138,0.060,0.215,-5.337
0.123,0.061,0.221,-5.337
0.198,0.057,0.223,-5.337
0.229,0.055,0.219,-5.337
0.248,0.056,0.218,-5.337
0.244,0.055,0.219,-5.337
0.220,0.058,0.223,-5.337
0.186,0.054,0.221,-5.337
0.238,0.052,0.220,-5.337
0.257,0.052,0.222,-5.337
0.267,0.057,0.228,-5.337
0.229,0.060,0.227,-5.337
0.191,0.060,0.222,-5.337
0.218,0.057,0.220,-5.337
0.231,0.059,0.219,-5.337
0.199,0.058,0.220,-5.337
0.176,0.064,0.222,-5.337
0.193,0.062,0.221,-5.337
0.200,0.059,0.220,-5.337
0.213,0.058,0.223,-5.337
0.197,0.059,0.223,-5.337
0.239,0.057,0.225,-5.337
0.254,0.058,0.224,-5.337
0.248,0.057,0.223,-5.337
0.221,0.055,0.223,-5.337
0.263,0.054,0.225,-5.337
0.244,0.055,0.222,-5.337
0.165,0.059,0.223,-5.337
0.136,0.061,0.221,-5.337
0.199,0.060,0.219,-5.337
0.201,0.060,0.218,-5.337
0.143,0.063,0.220,-5.337
0.145,0.063,0.220,-5.337
0.166,0.059,0.219,-5.337
0.175,0.057,0.220,-5.337
0.171,0.060,0.226,-5.337
0.202,0.059,0.226,-5.337
0.199,0.057,0.221,-5.337
0.187,0.057,0.223,-5.337
0.226,0.056,0.229,-5.337
0.235,0.055,0.229,-5.337
0.230,0.054,0.225,-5.337
0.268,0.054,0.224,-5.337
0.223,0.057,0.221,-5.337
0.143,0.061,0.219,-5.337
0.243,0.058,0.218,-5.337
0.359,0.054,0.222,-5.337
0.325,0.056,0.223,-5.337
0.277,0.057,0.224,-5.337
0.256,0.057,0.225,-5.337
0.240,0.057,0.227,-5.337
0.200,0.058,0.226,-5.337
0.171,0.060,0.222,-5.337
0.213,0.057,0.216,-5.337
0.225,0.056,0.215,-5.337
0.243,0.057,0.218,-5.337
0.218,0.056,0.221,-5.337
0.135,0.059,0.225,-5.337
0.127,0.059,0.224,-5.337
0.129,0.058,0.223,-5.337
0.149,0.059,0.224,-5.337
0.113,0.060,0.221,-5.337
0.150,0.059,0.222,-5.337
0.292,0.058,0.223,-5.337
0.334,0.056,0.223,-5.337
0.294,0.059,0.221,-5.337
0.227,0.065,0.218,-5.337
0.159,0.063,0.222,-5.337
0.198,0.061,0.224,-5.337
0.225,0.060,0.227,-5.337
0.243,0.057,0.227,-5.337
0.186,0.060,0.224,-5.337
0.184,0.060,0.219,-5.337
0.152,0.062,0.220,-5.337
0.174,0.060,0.218,-5.337
0.216,0.059,0.222,-5.337
0.165,0.060,0.222,-5.337
0.111,0.058,0.217,-5.337
0.125,0.059,0.217,-5.337
0.220,0.057,0.220,-5.337
0.285,0.055,0.224,-5.337
0.250,0.054,0.226,-5.337
0.209,0.051,0.223,-5.337
0.231,0.055,0.217,-5.337
0.179,0.057,0.218,-5.337
0.163,0.059,0.220,-5.337
0.167,0.060,0.220,-5.337
0.193,0.061,0.219,-5.337
0.226,0.056,0.220,-5.337
0.269,0.052,0.224,-5.337
0.351,0.054,0.221,-5.337
0.317,0.054,0.218,-5.337
0.246,0.055,0.218,-5.337
0.221,0.055,0.221,-5.337
0.204,0.055,0.225,-5.337
0.198,0.059,0.226,-5.337
0.185,0.058,0.226,-5.337
0.226,0.056,0.220,-5.337
0.250,0.052,0.222,-5.337
0.251,0.052,0.225,-5.337
0.232,0.052,0.226,-5.337
0.175,0.054,0.222,-5.337
0.143,0.055,0.221,-5.337
0.133,0.054,0.224,-5.337
0.113,0.052,0.225,-5.337
0.133,0.054,0.224,-5.337
0.254,0.053,0.227,-5.337
0.271,0.051,0.228,-5.337
0.268,0.051,0.226,-5.337
0.297,0.048,0.221,-5.337
0.271,0.051,0.218,-5.337
0.206,0.055,0.218,-5.337
0.168,0.055,0.217,-5.337
0.137,0.056,0.219,-5.337
0.077,0.056,0.221,-5.337
0.090,0.054,0.225,-5.337
0.197,0.054,0.226,-5.337
0.248,0.053,0.223,-5.337
0.227,0.055,0.224,-5.337
0.197,0.056,0.227,-5.337
0.215,0.053,0.226,-5.337
0.312,0.050,0.225,-5.337
0.289,0.049,0.219,-5.337
0.202,0.052,0.218,-5.337
0.160,0.056,0.221,-5.337
0.196,0.054,0.224,-5.337
0.262,0.051,0.224,-5.337
0.228,0.049,0.224,-5.337
0.197,0.050,0.220,-5.337
0.193,0.052,0.217,-5.337
0.190,0.053,0.218,-5.337
0.169,0.054,0.221,-5.337
0.154,0.055,0.224,-5.337
0.176,0.052,0.224,-5.337
0.265,0.046,0.226,-5.337
0.274,0.047,0.223,-5.337
0.276,0.049,0.220,-5.337
0.246,0.049,0.223,-5.337
0.195,0.050,0.228,-5.337
0.123,0.051,0.229,-5.337
0.065,0.047,0.224,-5.337
0.115,0.042,0.223,-5.337
0.150,0.046,0.225,-5.337
0.187,0.049,0.224,-5.337
0.245,0.049,0.224,-5.337
0.166,0.053,0.222,-5.337
0.144,0.051,0.222,-5.337
0.182,0.051,0.222,-5.337
0.167,0.050,0.223,-5.337
0.147,0.048,0.221,-5.337
0.167,0.046,0.219,-5.337
0.213,0.043,0.217,-5.337
0.245,0.045,0.220,-5.337
0.285,0.048,0.226,-5.337
0.239,0.051,0.228,-5.337
0.145,0.050,0.228,-5.337
0.162,0.049,0.228,-5.337
0.174,0.048,0.227,-5.337
0.169,0.049,0.223,-5.337
0.257,0.045,0.218,-5.337
0.269,0.046,0.219,-5.337
0.289,0.046,0.226,-5.337
0.277,0.047,0.230,-5.337
0.230,0.047,0.229,-5.337
0.174,0.048,0.221,-5.337
0.184,0.050,0.220,-5.337
0.188,0.052,0.219,-5.337
0.157,0.051,0.220,-5.337
0.114,0.046,0.220,-5.337
0.073,0.047,0.221,-5.337
0.116,0.046,0.220,-5.337
0.112,0.051,0.222,-5.337
0.122,0.051,0.222,-5.337
0.210,0.048,0.223,-5.337
0.260,0.046,0.225,-5.337
0.194,0.042,0.223,-5.337
0.162,0.040,0.219,-5.337
0.210,0.040,0.219,-5.337
0.230,0.039,0.220,-5.337
0.210,0.041,0.222,-5.337
0.151,0.042,0.222,-5.337
0.216,0.041,0.222,-5.337
0.268,0.043,0.221,-5.337
0.195,0.047,0.220,-5.337
0.139,0.048,0.221,-5.337
0.141,0.044,0.224,-5.337
0.172,0.045,0.226,-5.337
0.172,0.045,0.224,-5.337
0.142,0.043,0.217,-5.337
0.183,0.042,0.213,-5.337
0.212,0.043,0.213,-5.337
0.262,0.043,0.216,-5.337
0.233,0.044,0.222,-5.337
0.180,0.045,0.223,-5.337
0.107,0.046,0.223,-5.337
0.160,0.043,0.221,-5.337
0.255,0.043,0.220,-5.337
0.215,0.044,0.218,-5.337
0.166,0.045,0.222,-5.337
0.130,0.045,0.220,-5.337
0.045,0.050,0.222,-5.337
0.041,0.045,0.223,-5.337
0.166,0.040,0.224,-5.337
0.238,0.038,0.223,-5.337
0.143,0.042,0.225,-5.337
0.062,0.044,0.226,-5.337
0.118,0.046,0.225,-5.337
0.186,0.041,0.222,-5.337
0.171,0.040,0.221,-5.337
0.194,0.038,0.220,-5.337
0.267,0.038,0.223,-5.337
0.251,0.040,0.225,-5.337
0.216,0.045,0.224,-5.337
0.167,0.044,0.220,-5.337
0.165,0.041,0.218,-5.337
0.177,0.042,0.215,-5.337
0.171,0.043,0.215,-5.337
0.184,0.042,0.220,-5.337
0.135,0.040,0.224,-5.337
0.088,0.041,0.226,-5.337
0.125,0.043,0.225,-5.337
0.194,0.042,0.224,-5.337
0.218,0.041,0.222,-5.337
0.253,0.040,0.223,-5.337
0.292,0.039,0.221,-5.337
0.229,0.044,0.221,-5.337
0.145,0.043,0.218,-5.337
0.158,0.045,0.217,-5.337
0.149,0.046,0.219,-5.337
0.143,0.042,0.221,-5.337
0.185,0.040,0.223,-5.337
0.205,0.038,0.224,-5.337
0.208,0.034,0.224,-5.337
0.276,0.030,0.221,-5.337
0.286,0.033,0.219,-5.337
0.292,0.035,0.222,-5.337
0.270,0.038,0.224,-5.337
0.189,0.038,0.221,-5.337
0.145,0.038,0.221,-5.337
0.204,0.039,0.220,-5.337
0.236,0.036,0.219,-5.337
0.235,0.038,0.216,-5.337
0.222,0.038,0.218,-5.337
0.170,0.040,0.218,-5.337
0.153,0.040,0.220,-5.337
0.180,0.040,0.223,-5.337
0.150,0.041,0.227,-5.337
0.145,0.041,0.225,-5.337
0.268,0.042,0.221,-5.337
0.266,0.043,0.220,-5.337
0.220,0.043,0.224,-5.337
0.152,0.045,0.222,-5.337
0.111,0.042,0.219,-5.337
0.146,0.042,0.219,-5.337
0.172,0.043,0.222,-5.337
0.119,0.045,0.221,-5.337
0.075,0.043,0.223,-5.337
0.064,0.043,0.224,-5.337
0.102,0.043,0.223,-5.337
0.082,0.043,0.223,-5.337
0.089,0.046,0.222,-5.337
0.177,0.043,0.219,-5.337
0.249,0.037,0.220,-5.337
0.187,0.036,0.222,-5.337
0.106,0.034,0.223,-5.337
0.122,0.037,0.224,-5.337
0.162,0.035,0.224,-5.337
0.136,0.032,0.222,-5.337
0.201,0.030,0.218,-5.337
0.293,0.030,0.216,-5.337
0.259,0.030,0.216,-5.337
0.150,0.033,0.219,-5.337
0.181,0.032,0.222,-5.337
0.194,0.035,0.225,-5.337
0.192,0.036,0.222,-5.337
0.195,0.036,0.220,-5.337
0.188,0.033,0.219,-5.337
0.156,0.035,0.220,-5.337
0.121,0.038,0.226,-5.337
0.148,0.036,0.229,-5.337
0.198,0.037,0.227,-5.337
0.188,0.038,0.221,-5.337
0.098,0.035,0.214,-5.337
0.128,0.032,0.215,-5.337
0.176,0.035,0.221,-5.337
0.172,0.040,0.225,-5.337
0.228,0.036,0.224,-5.337
0.292,0.036,0.218,-5.337
0.289,0.033,0.218,-5.337
0.222,0.039,0.220,-5.337
0.168,0.042,0.223,-5.337
0.217,0.039,0.225,-5.337
0.213,0.042,0.227,-5.337
0.243,0.042,0.224,-5.337
0.312,0.040,0.221,-5.337
0.284,0.042,0.221,-5.337
0.177,0.044,0.222,-5.337
0.187,0.044,0.226,-5.337
0.231,0.042,0.224,-5.337
0.201,0.044,0.219,-5.337
0.132,0.042,0.218,-5.337
0.144,0.042,0.219,-5.337
0.173,0.043,0.220,-5.337
0.216,0.041,0.219,-5.337
0.183,0.041,0.220,-5.337
0.152,0.042,0.218,-5.337
0.139,0.044,0.217,-5.337
0.159,0.043,0.221,-5.337
0.179,0.042,0.223,-5.337
0.131,0.042,0.224,-5.337
0.089,0.043,0.221,-5.337
0.146,0.041,0.224,-5.337
0.212,0.037,0.226,-5.337
0.213,0.039,0.226,-5.337
0.170,0.039,0.224,-5.337
0.164,0.038,0.224,-5.337
0.197,0.037,0.222,-5.337
0.225,0.039,0.220,-5.337
0.224,0.039,0.220,-5.337
0.240,0.042,0.224,-5.337
0.227,0.041,0.222,-5.337
0.233,0.041,0.221,-5.337
0.262,0.037,0.222,-5.337
0.225,0.037,0.224,-5.337
0.184,0.037,0.224,-5.337
0.197,0.039,0.222,-5.337
0.172,0.044,0.221,-5.337
0.147,0.047,0.223,-5.337
0.198,0.043,0.223,-5.337
0.201,0.042,0.222,-5.337
0.231,0.039,0.222,-5.337
0.225,0.037,0.220,-5.337
0.152,0.041,0.219,-5.337
0.159,0.040,0.222,-5.337
0.227,0.038,0.222,-5.337
0.297,0.035,0.222,-5.337
0.266,0.036,0.221,-5.337
0.230,0.038,0.220,-5.337
0.198,0.041,0.224,-5.337
0.233,0.042,0.224,-5.337
0.179,0.046,0.224,-5.337
0.092,0.047,0.222,-5.337
0.216,0.041,0.224,-5.337
0.267,0.037,0.220,-5.337
0.242,0.040,0.221,-5.337
0.171,0.042,0.220,-5.337
0.154,0.045,0.219,-5.337
0.210,0.037,0.220,-5.337
0.242,0.036,0.222,-5.337
0.223,0.039,0.221,-5.337
0.192,0.043,0.221,-5.337
0.118,0.049,0.223,-5.337
0.119,0.045,0.224,-5.337
0.163,0.042,0.224,-5.337
0.167,0.042,0.226,-5.337
0.246,0.041,0.225,-5.337
0.243,0.040,0.224,-5.337
0.189,0.039,0.224,-5.337
0.173,0.040,0.221,-5.337
0.128,0.041,0.222,-5.337
0.129,0.042,0.223,-5.337
0.231,0.043,0.223,-5.337
0.262,0.042,0.224,-5.337
0.206,0.040,0.222,-5.337
0.125,0.042,0.222,-5.337
0.125,0.045,0.223,-5.337
0.209,0.040,0.225,-5.337
0.264,0.038,0.229,-5.337
0.249,0.044,0.230,-5.337
0.241,0.049,0.224,-5.337
0.224,0.051,0.218,-5.337
0.152,0.048,0.219,-5.337
0.165,0.042,0.224,-5.337
0.174,0.047,0.230,-5.337
0.116,0.048,0.228,-5.337
0.048,0.050,0.225,-5.337
0.107,0.045,0.220,-5.337
0.179,0.043,0.215,-5.337
0.140,0.045,0.216,-5.337
0.187,0.043,0.222,-5.337
0.210,0.044,0.226,-5.337
0.213,0.042,0.226,-5.337
0.207,0.041,0.223,-5.337
0.205,0.044,0.218,-5.337
0.259,0.048,0.218,-5.337
0.248,0.046,0.220,-5.337
0.176,0.044,0.222,-5.337
0.196,0.042,0.224,-5.337
0.214,0.044,0.225,-5.337
0.206,0.045,0.227,-5.337
0.182,0.048,0.230,-5.337
0.202,0.046,0.228,-5.337
0.262,0.046,0.224,-5.337
0.236,0.046,0.220,-5.337
0.235,0.047,0.219,-5.337
0.186,0.046,0.217,-5.337
0.259,0.048,0.222,-5.337
0.295,0.044,0.226,-5.337
0.254,0.043,0.224,-5.337
0.141,0.047,0.220,-5.337
0.147,0.050,0.220,-5.337
0.212,0.047,0.220,-5.337
0.201,0.049,0.223,-5.337
0.128,0.052,0.225,-5.337
0.125,0.052,0.226,-5.337
0.150,0.055,0.227,-5.337
0.126,0.055,0.228,-5.337
0.182,0.052,0.228,-5.337
0.228,0.051,0.228,-5.337
0.240,0.053,0.228,-5.337
0.239,0.055,0.224,-5.337
0.218,0.057,0.220,-5.337
0.159,0.057,0.220,-5.337
0.149,0.056,0.221,-5.337
0.173,0.054,0.222,-5.337
0.214,0.054,0.225,-5.337
0.228,0.055,0.224,-5.337
0.168,0.057,0.223,-5.337
0.165,0.054,0.223,-5.337
0.251,0.050,0.223,-5.337
0.249,0.051,0.223,-5.337
0.219,0.052,0.223,-5.337
0.201,0.052,0.225,-5.337
0.214,0.051,0.221,-5.337
0.210,0.049,0.216,-5.337
0.226,0.048,0.219,-5.337
0.246,0.048,0.225,-5.337
0.239,0.046,0.229,-5.337
0.270,0.042,0.229,-5.337
0.268,0.046,0.231,-5.337
0.254,0.049,0.227,-5.337
0.212,0.050,0.221,-5.337
0.167,0.053,0.220,-5.337
0.126,0.057,0.220,-5.337
0.092,0.057,0.223,-5.337
0.187,0.053,0.226,-5.337
0.214,0.051,0.226,-5.337
0.227,0.052,0.219,-5.337
0.184,0.053,0.217,-5.337
0.116,0.051,0.219,-5.337
0.116,0.052,0.223,-5.337
0.201,0.053,0.223,-5.337
0.246,0.052,0.227,-5.337
0.266,0.049,0.227,-5.337
0.247,0.050,0.223,-5.337
0.193,0.050,0.219,-5.337
0.173,0.051,0.218,-5.337
0.163,0.051,0.217,-5.337
0.191,0.051,0.220,-5.337
0.254,0.050,0.222,-5.337
0.171,0.054,0.225,-5.337
0.095,0.053,0.224,-5.337
0.132,0.054,0.221,-5.337
0.269,0.055,0.222,-5.337
0.321,0.053,0.224,-5.337
0.302,0.052,0.227,-5.337
0.257,0.054,0.224,-5.337
0.236,0.053,0.222,-5.337
0.242,0.051,0.219,-5.337
0.174,0.051,0.216,-5.337
0.127,0.052,0.218,-5.337
0.154,0.057,0.224,-5.337
0.194,0.056,0.226,-5.337
0.269,0.056,0.224,-5.337
0.263,0.055,0.220,-5.337
0.167,0.055,0.217,-5.337
0.159,0.056,0.221,-5.337
0.186,0.058,0.224,-5.337
0.196,0.056,0.223,-5.337
0.234,0.057,0.221,-5.337
0.226,0.055,0.219,-5.337
0.207,0.057,0.221,-5.337
0.282,0.056,0.223,-5.337
0.302,0.052,0.220,-5.337
0.268,0.050,0.219,-5.337
0.228,0.052,0.219,-5.337
0.189,0.053,0.220,-5.337
0.204,0.054,0.221,-5.337
0.227,0.052,0.220,-5.337
0.273,0.052,0.218,-5.337
0.289,0.053,0.215,-5.337
0.244,0.054,0.219,-5.337
0.247,0.053,0.225,-5.337
0.221,0.055,0.227,-5.337
0.193,0.056,0.225,-5.337
0.215,0.053,0.224,-5.337
0.230,0.051,0.225,-5.337
0.241,0.051,0.223,-5.337
0.249,0.053,0.221,-5.337
0.284,0.048,0.217,-5.337
0.267,0.047,0.217,-5.337
0.231,0.048,0.220,-5.337
0.200,0.052,0.219,-5.337
0.203,0.052,0.215,-5.337
0.187,0.052,0.216,-5.337
0.129,0.050,0.224,-5.337
0.133,0.050,0.228,-5.337
0.169,0.049,0.225,-5.337
0.212,0.050,0.221,-5.337
0.231,0.051,0.222,-5.337
0.190,0.055,0.222,-5.337
0.154,0.053,0.217,-5.337
0.197,0.054,0.215,-5.337
0.203,0.051,0.220,-5.337
0.184,0.052,0.226,-5.337
0.204,0.049,0.225,-5.337
0.278,0.047,0.223,-5.337
0.238,0.050,0.222,-5.337
0.185,0.051,0.220,-5.337
0.192,0.053,0.221,-5.337
0.213,0.054,0.221,-5.337
0.236,0.052,0.224,-5.337
0.204,0.053,0.225,-5.337
0.159,0.053,0.227,-5.337
0.155,0.050,0.224,-5.337
0.227,0.049,0.224,-5.337
0.174,0.053,0.221,-5.337
0.134,0.054,0.219,-5.337
0.236,0.053,0.216,-5.337
0.295,0.052,0.216,-5.337
0.268,0.049,0.219,-5.337
0.244,0.049,0.224,-5.337
0.317,0.050,0.228,-5.337
0.257,0.055,0.227,-5.337
0.216,0.048,0.223,-5.337
0.229,0.048,0.220,-5.337
0.231,0.051,0.217,-5.337
0.264,0.050,0.219,-5.337
0.292,0.050,0.223,-5.337
0.266,0.053,0.218,-5.337
0.140,0.051,0.211,-5.337
0.095,0.051,0.211,-5.337
0.148,0.053,0.220,-5.337
0.197,0.054,0.227,-5.337
0.245,0.051,0.228,-5.337
0.206,0.050,0.223,-5.337
0.215,0.050,0.220,-5.337
0.241,0.050,0.220,-5.337
0.211,0.054,0.222,-5.337
0.188,0.055,0.221,-5.337
0.213,0.053,0.224,-5.337
0.195,0.056,0.227,-5.337
0.163,0.056,0.227,-5.337
0.166,0.054,0.223,-5.337
0.152,0.057,0.218,-5.337
0.152,0.058,0.216,-5.337
0.229,0.058,0.219,-5.337
0.279,0.059,0.220,-5.337
0.216,0.064,0.220,-5.337
0.160,0.062,0.219,-5.337
0.179,0.061,0.221,-5.337
0.243,0.058,0.220,-5.337
0.230,0.057,0.223,-5.337
0.156,0.057,0.227,-5.337
0.220,0.057,0.224,-5.337
0.202,0.056,0.217,-5.337
0.149,0.057,0.213,-5.337
0.163,0.060,0.220,-5.337
0.174,0.063,0.223,-5.337
0.152,0.061,0.224,-5.337
0.166,0.057,0.227,-5.337
