[Parameters]
Operating Mode, Feedback
Subject  AA..ZZ, WT
Session  0..99, 45
No. Trials (1..9999), 500
Mouse Number, 1
Pressure Probe Serial Port, \00\00\00\04COM4
Save additional csv file, TRUE
Save using mouse number, FALSE
A/D Monitor Rate (Hz), 30000.000000
A/D Stimulate Rate (Hz), 30000.000000
A/D input range (+/- V), 5
No. Channels to acquire (N), 2
Pre-Stim Acq. time (ms), 100.000000
Post-Stim Acq. time (ms), 900.000000
Analysis window parameters.M-response Start (ms), 1.100000
Analysis window parameters.M-response Duration (ms), 5.500000
Analysis window parameters.H-response Duration (ms), 6.000000
Analysis window parameters.H-response Start (ms), 6.500000
Feedback window, H response
Proportional gain, 0.100000
Target value, 6.700000
Feedback Ch., 1
Stim Channel to Control (1-4), 4
Trial, 65
Wait for EMG Conditions, FALSE
Channel to monitor (0 - N-1), 1
EMG Hi Limit, 2.000000
EMG Lo Limit, 0.001000
Inter-Stim delay (sec), 10.000000
EMG Monitor Mode, Mean
Time to run Long Stim.(sec), 30
Save Long Stim Data?, OFF
BURST Save time (ms), 1000
BURST Save Interval (x above), 10
Long-Stim. Rep. Rate (Hz), 10.000000
Stim type cluster array.<size(s)>, 4
Stim type cluster array 0.Stimulus Output, Electrical
Stim type cluster array 1.Stimulus Output, OFF
Stim type cluster array 2.Stimulus Output, OFF
Stim type cluster array 3.Stimulus Output, Motor Length
Stim specs cluster array.<size(s)>, 4
Stim specs cluster array 0.Initial Stimulus ampl., 0.300000
Stim specs cluster array 0.Maximum Stimulus, 1.120000
Stim specs cluster array 0.#Pulses in train, 4
Stim specs cluster array 0.Peak Level time (ms), 1.000000
Stim specs cluster array 0.Total pulse period (ms), 150.000000
Stim specs cluster array 0.Start Delay (ms), -50.000000
Stim specs cluster array 0.Pulse Shape, Square
Stim specs cluster array 0.Ramp/Rel. time (ms), 0.100000
Stim specs cluster array 0.Peak Amplitude (V), 0.120000
Stim specs cluster array 1.Initial Stimulus ampl., 0.000000
Stim specs cluster array 1.Maximum Stimulus, 0.000000
Stim specs cluster array 1.#Pulses in train, 3
Stim specs cluster array 1.Peak Level time (ms), 29.000000
Stim specs cluster array 1.Total pulse period (ms), 200.000000
Stim specs cluster array 1.Start Delay (ms), 0.000000
Stim specs cluster array 1.Pulse Shape, Square
Stim specs cluster array 1.Ramp/Rel. time (ms), 0.000000
Stim specs cluster array 1.Peak Amplitude (V), 2.000000
Stim specs cluster array 2.Initial Stimulus ampl., 0.000000
Stim specs cluster array 2.Maximum Stimulus, 0.000000
Stim specs cluster array 2.#Pulses in train, 1
Stim specs cluster array 2.Peak Level time (ms), 25.000000
Stim specs cluster array 2.Total pulse period (ms), 200.000000
Stim specs cluster array 2.Start Delay (ms), 0.000000
Stim specs cluster array 2.Pulse Shape, Square
Stim specs cluster array 2.Ramp/Rel. time (ms), 20.000000
Stim specs cluster array 2.Peak Amplitude (V), 10.000000
Stim specs cluster array 3.Initial Stimulus ampl., 0.000000
Stim specs cluster array 3.Maximum Stimulus, 20.000000
Stim specs cluster array 3.#Pulses in train, 25
Stim specs cluster array 3.Peak Level time (ms), 0.100000
Stim specs cluster array 3.Total pulse period (ms), 4.000000
Stim specs cluster array 3.Start Delay (ms), 205.000000
Stim specs cluster array 3.Pulse Shape, Triangle
Stim specs cluster array 3.Ramp/Rel. time (ms), 3.000000
Stim specs cluster array 3.Peak Amplitude (V), 0.500000
Force cal. (mN/Volt), 100.000000
Force Range (mN), 100.000000
Length cal. (mm/Volt), 10.000000
Length Range (mm), 10.000000
Stim. 1, 0.300000
Stim. 2, 0.000000
Stim. 3, 0.000000
Stim. 4, 0.000000
Monitor acquire time (ms), 100.000000
EMG graph Ymax, 0.100000
Travel limit (mm), 20.000000
Use Pressure Probe, FALSE
Pressure goal (g), 100
Speed (mm/sec), 5.000000
Dwell time (ms), 100.000000
Pressure limit (g), 500.000000
Channel amplitude offset, 0.000000

[DATA]

0.235,0.035,0.280,-5.337
0.234,0.033,0.278,-5.337
0.177,0.034,0.276,-5.337
0.148,0.033,0.272,-5.337
0.211,0.033,0.272,-5.337
0.269,0.032,0.275,-5.337
0.231,0.031,0.273,-5.337
0.150,0.032,0.273,-5.337
0.142,0.030,0.270,-5.337
0.223,0.029,0.268,-5.337
0.292,0.031,0.272,-5.337
0.279,0.034,0.276,-5.337
0.259,0.030,0.277,-5.337
0.222,0.033,0.276,-5.337
0.220,0.033,0.272,-5.337
0.182,0.030,0.272,-5.337
0.126,0.031,0.274,-5.337
0.150,0.036,0.275,-5.337
0.171,0.037,0.274,-5.337
0.180,0.036,0.280,-5.337
0.210,0.031,0.279,-5.337
0.189,0.034,0.276,-5.337
0.171,0.033,0.272,-5.337
0.141,0.036,0.275,-5.337
0.146,0.036,0.278,-5.337
0.136,0.037,0.277,-5.337
0.175,0.031,0.271,-5.337
0.133,0.029,0.272,-5.337
0.167,0.027,0.274,-5.337
0.159,0.029,0.272,-5.337
0.105,0.036,0.269,-5.337
0.079,0.036,0.269,-5.337
0.158,0.030,0.273,-5.337
0.215,0.030,0.276,-5.337
0.196,0.030,0.276,-5.337
0.146,0.035,0.272,-5.337
0.132,0.037,0.268,-5.337
0.200,0.031,0.268,-5.337
0.202,0.031,0.273,-5.337
0.181,0.031,0.274,-5.337
0.198,0.029,0.274,-5.337
0.187,0.031,0.274,-5.337
0.123,0.033,0.276,-5.337
0.133,0.033,0.275,-5.337
0.151,0.036,0.271,-5.337
0.209,0.035,0.270,-5.337
0.249,0.034,0.274,-5.337
0.205,0.034,0.275,-5.337
0.185,0.033,0.272,-5.337
0.225,0.034,0.271,-5.337
0.303,0.031,0.272,-5.337
0.315,0.029,0.274,-5.337
0.254,0.032,0.273,-5.337
0.253,0.031,0.271,-5.337
0.291,0.033,0.270,-5.337
0.337,0.030,0.271,-5.337
0.315,0.030,0.272,-5.337
0.203,0.036,0.272,-5.337
0.163,0.037,0.274,-5.337
0.202,0.032,0.278,-5.337
0.251,0.030,0.276,-5.337
0.224,0.031,0.271,-5.337
0.236,0.034,0.266,-5.337
0.215,0.034,0.268,-5.337
0.165,0.031,0.272,-5.337
0.156,0.031,0.277,-5.337
0.197,0.032,0.275,-5.337
0.230,0.033,0.270,-5.337
0.251,0.034,0.266,-5.337
0.242,0.032,0.272,-5.337
0.298,0.028,0.276,-5.337
0.255,0.031,0.278,-5.337
0.224,0.031,0.276,-5.337
0.185,0.034,0.271,-5.337
0.140,0.035,0.270,-5.337
0.139,0.038,0.271,-5.337
0.170,0.040,0.273,-5.337
0.198,0.040,0.272,-5.337
0.168,0.035,0.272,-5.337
0.197,0.033,0.273,-5.337
0.191,0.036,0.275,-5.337
0.175,0.034,0.276,-5.337
0.192,0.031,0.276,-5.337
0.246,0.033,0.274,-5.337
0.260,0.036,0.273,-5.337
0.177,0.036,0.270,-5.337
0.132,0.038,0.270,-5.337
0.186,0.034,0.272,-5.337
0.255,0.034,0.275,-5.337
0.190,0.035,0.275,-5.337
0.155,0.036,0.277,-5.337
0.148,0.038,0.274,-5.337
0.161,0.036,0.275,-5.337
0.190,0.032,0.274,-5.337
0.194,0.032,0.271,-5.337
0.184,0.031,0.272,-5.337
0.253,0.032,0.274,-5.337
0.247,0.033,0.273,-5.337
0.235,0.033,0.273,-5.337
0.241,0.037,0.274,-5.337
0.230,0.038,0.273,-5.337
0.210,0.036,0.274,-5.337
0.181,0.034,0.275,-5.337
0.152,0.030,0.276,-5.337
0.181,0.033,0.277,-5.337
0.223,0.031,0.274,-5.337
0.196,0.034,0.271,-5.337
0.220,0.032,0.270,-5.337
0.221,0.032,0.273,-5.337
0.179,0.033,0.277,-5.337
0.178,0.037,0.279,-5.337
0.211,0.036,0.275,-5.337
0.172,0.037,0.271,-5.337
0.157,0.038,0.270,-5.337
0.157,0.037,0.270,-5.337
0.180,0.038,0.276,-5.337
0.209,0.039,0.275,-5.337
0.237,0.042,0.275,-5.337
0.231,0.043,0.273,-5.337
0.211,0.043,0.273,-5.337
0.185,0.042,0.273,-5.337
0.190,0.042,0.276,-5.337
0.263,0.040,0.274,-5.337
0.354,0.039,0.275,-5.337
0.413,0.037,0.274,-5.337
0.347,0.034,0.272,-5.337
0.256,0.038,0.274,-5.337
0.216,0.043,0.276,-5.337
0.182,0.045,0.278,-5.337
0.126,0.047,0.279,-5.337
0.148,0.045,0.275,-5.337
0.164,0.044,0.273,-5.337
0.105,0.042,0.272,-5.337
0.096,0.042,0.273,-5.337
0.165,0.043,0.274,-5.337
0.235,0.040,0.271,-5.337
0.217,0.037,0.271,-5.337
0.210,0.038,0.273,-5.337
0.250,0.036,0.273,-5.337
0.260,0.032,0.271,-5.337
0.217,0.033,0.272,-5.337
0.284,0.030,0.274,-5.337
0.320,0.030,0.278,-5.337
0.250,0.035,0.279,-5.337
0.272,0.034,0.274,-5.337
0.287,0.032,0.269,-5.337
0.213,0.036,0.268,-5.337
0.163,0.037,0.270,-5.337
0.152,0.040,0.276,-5.337
0.147,0.037,0.278,-5.337
0.151,0.035,0.275,-5.337
0.146,0.037,0.272,-5.337
0.117,0.037,0.273,-5.337
0.129,0.037,0.276,-5.337
0.170,0.040,0.277,-5.337
0.245,0.038,0.276,-5.337
0.248,0.037,0.275,-5.337
0.202,0.040,0.272,-5.337
0.149,0.042,0.274,-5.337
0.180,0.042,0.275,-5.337
0.236,0.039,0.274,-5.337
0.281,0.038,0.275,-5.337
0.240,0.042,0.274,-5.337
0.167,0.044,0.273,-5.337
0.159,0.048,0.272,-5.337
0.131,0.049,0.273,-5.337
0.148,0.045,0.274,-5.337
0.199,0.044,0.272,-5.337
0.228,0.041,0.270,-5.337
0.252,0.040,0.267,-5.337
0.232,0.037,0.264,-5.337
0.234,0.038,0.268,-5.337
0.162,0.041,0.275,-5.337
0.184,0.044,0.277,-5.337
0.178,0.046,0.273,-5.337
0.110,0.045,0.271,-5.337
0.122,0.040,0.276,-5.337
0.226,0.037,0.274,-5.337
0.255,0.036,0.267,-5.337
0.233,0.040,0.268,-5.337
0.207,0.042,0.270,-5.337
0.193,0.040,0.270,-5.337
0.201,0.041,0.275,-5.337
0.215,0.044,0.278,-5.337
0.150,0.045,0.279,-5.337
0.150,0.040,0.277,-5.337
0.158,0.037,0.275,-5.337
0.166,0.037,0.274,-5.337
0.196,0.041,0.277,-5.337
0.233,0.044,0.277,-5.337
0.231,0.043,0.274,-5.337
0.233,0.041,0.271,-5.337
0.264,0.043,0.272,-5.337
0.236,0.046,0.271,-5.337
0.174,0.046,0.270,-5.337
0.182,0.045,0.273,-5.337
0.188,0.045,0.274,-5.337
0.201,0.043,0.272,-5.337
0.192,0.046,0.272,-5.337
0.220,0.047,0.270,-5.337
0.265,0.044,0.277,-5.337
0.295,0.043,0.279,-5.337
0.216,0.051,0.276,-5.337
0.162,0.051,0.277,-5.337
0.221,0.048,0.274,-5.337
0.267,0.046,0.272,-5.337
0.268,0.048,0.270,-5.337
0.226,0.050,0.272,-5.337
0.151,0.052,0.270,-5.337
0.150,0.054,0.272,-5.337
0.234,0.050,0.272,-5.337
0.258,0.052,0.272,-5.337
0.207,0.050,0.271,-5.337
0.131,0.049,0.271,-5.337
0.157,0.051,0.268,-5.337
0.159,0.056,0.269,-5.337
0.121,0.055,0.271,-5.337
0.143,0.054,0.270,-5.337
0.193,0.050,0.272,-5.337
0.233,0.050,0.274,-5.337
0.197,0.055,0.274,-5.337
0.167,0.055,0.274,-5.337
0.157,0.051,0.274,-5.337
0.187,0.049,0.275,-5.337
0.256,0.047,0.274,-5.337
0.243,0.053,0.272,-5.337
0.189,0.054,0.274,-5.337
0.215,0.055,0.279,-5.337
0.234,0.055,0.279,-5.337
0.235,0.054,0.274,-5.337
0.253,0.054,0.270,-5.337
0.248,0.055,0.269,-5.337
0.229,0.055,0.271,-5.337
0.216,0.052,0.272,-5.337
0.226,0.054,0.274,-5.337
0.250,0.053,0.274,-5.337
0.302,0.050,0.273,-5.337
0.329,0.046,0.272,-5.337
0.282,0.049,0.274,-5.337
0.210,0.055,0.268,-5.337
0.161,0.058,0.269,-5.337
0.128,0.054,0.274,-5.337
0.177,0.052,0.278,-5.337
0.218,0.052,0.278,-5.337
0.194,0.056,0.274,-5.337
0.173,0.055,0.269,-5.337
0.154,0.058,0.268,-5.337
0.210,0.056,0.276,-5.337
0.225,0.053,0.279,-5.337
0.155,0.053,0.278,-5.337
0.169,0.053,0.277,-5.337
0.158,0.053,0.272,-5.337
0.148,0.055,0.266,-5.337
0.183,0.054,0.266,-5.337
0.234,0.056,0.269,-5.337
0.193,0.061,0.273,-5.337
0.114,0.064,0.277,-5.337
0.055,0.064,0.277,-5.337
0.089,0.063,0.273,-5.337
0.153,0.063,0.273,-5.337
0.193,0.059,0.274,-5.337
0.271,0.056,0.276,-5.337
0.258,0.053,0.275,-5.337
0.214,0.055,0.271,-5.337
0.235,0.056,0.269,-5.337
0.249,0.055,0.274,-5.337
0.234,0.054,0.274,-5.337
0.225,0.055,0.270,-5.337
0.180,0.057,0.269,-5.337
0.173,0.056,0.272,-5.337
0.217,0.054,0.276,-5.337
0.284,0.054,0.275,-5.337
0.300,0.055,0.274,-5.337
0.280,0.056,0.274,-5.337
0.197,0.056,0.272,-5.337
0.188,0.053,0.273,-5.337
0.220,0.052,0.276,-5.337
0.205,0.057,0.279,-5.337
0.209,0.058,0.273,-5.337
0.174,0.058,0.267,-5.337
0.145,0.059,0.264,-5.337
0.148,0.058,0.265,-5.337
0.194,0.054,0.270,-5.337
0.128,0.054,0.271,-5.337
0.066,0.058,0.273,-5.337
0.142,0.054,0.272,-5.337
0.267,0.056,0.275,-5.337
0.282,0.056,0.272,-5.337
0.294,0.054,0.272,-5.337
0.328,0.051,0.271,-5.337
0.317,0.052,0.268,-5.337
0.268,0.053,0.268,-5.337
0.236,0.056,0.271,-5.337
0.133,0.057,0.270,-5.337
0.094,0.057,0.267,-5.337
0.146,0.056,0.268,-5.337
0.190,0.059,0.269,-5.337
0.194,0.060,0.273,-5.337
0.199,0.058,0.275,-5.337
0.198,0.058,0.277,-5.337
0.190,0.059,0.278,-5.337
0.194,0.057,0.279,-5.337
0.188,0.058,0.278,-5.337
0.195,0.059,0.274,-5.337
0.251,0.059,0.269,-5.337
0.217,0.061,0.267,-5.337
0.125,0.059,0.267,-5.337
0.157,0.056,0.271,-5.337
0.241,0.059,0.272,-5.337
0.186,0.062,0.268,-5.337
0.101,0.062,0.261,-5.337
0.147,0.059,0.265,-5.337
0.214,0.054,0.272,-5.337
0.229,0.057,0.277,-5.337
0.271,0.057,0.276,-5.337
0.272,0.058,0.273,-5.337
0.252,0.055,0.270,-5.337
0.164,0.055,0.272,-5.337
0.098,0.057,0.275,-5.337
0.152,0.057,0.278,-5.337
0.248,0.054,0.274,-5.337
0.232,0.055,0.269,-5.337
0.193,0.055,0.266,-5.337
0.150,0.057,0.267,-5.337
0.171,0.058,0.272,-5.337
0.173,0.059,0.271,-5.337
0.164,0.060,0.270,-5.337
0.145,0.059,0.268,-5.337
0.129,0.059,0.272,-5.337
0.197,0.060,0.275,-5.337
0.237,0.055,0.277,-5.337
0.204,0.053,0.272,-5.337
0.210,0.055,0.268,-5.337
0.166,0.057,0.267,-5.337
0.120,0.057,0.272,-5.337
0.161,0.054,0.273,-5.337
0.217,0.053,0.270,-5.337
0.208,0.056,0.271,-5.337
0.176,0.059,0.274,-5.337
0.169,0.057,0.273,-5.337
0.164,0.057,0.271,-5.337
0.196,0.055,0.270,-5.337
0.217,0.051,0.269,-5.337
0.216,0.050,0.268,-5.337
0.195,0.046,0.270,-5.337
0.149,0.048,0.272,-5.337
0.126,0.049,0.271,-5.337
0.163,0.047,0.270,-5.337
0.160,0.046,0.272,-5.337
0.138,0.048,0.275,-5.337
0.175,0.051,0.277,-5.337
0.234,0.052,0.275,-5.337
0.219,0.051,0.274,-5.337
0.206,0.054,0.269,-5.337
0.203,0.054,0.268,-5.337
0.206,0.050,0.271,-5.337
0.192,0.051,0.273,-5.337
0.206,0.051,0.275,-5.337
0.181,0.053,0.275,-5.337
0.195,0.054,0.273,-5.337
0.160,0.056,0.267,-5.337
0.104,0.058,0.270,-5.337
0.112,0.057,0.273,-5.337
0.143,0.056,0.275,-5.337
0.191,0.053,0.274,-5.337
0.213,0.054,0.273,-5.337
0.154,0.052,0.275,-5.337
0.187,0.052,0.275,-5.337
0.217,0.053,0.275,-5.337
0.235,0.052,0.270,-5.337
0.252,0.048,0.267,-5.337
0.255,0.043,0.268,-5.337
0.224,0.046,0.270,-5.337
0.265,0.045,0.274,-5.337
0.265,0.046,0.277,-5.337
0.166,0.050,0.277,-5.337
0.094,0.049,0.274,-5.337
0.091,0.048,0.273,-5.337
0.154,0.045,0.274,-5.337
0.205,0.047,0.273,-5.337
0.173,0.047,0.273,-5.337
0.184,0.046,0.274,-5.337
0.209,0.045,0.277,-5.337
0.172,0.047,0.281,-5.337
0.151,0.048,0.282,-5.337
0.193,0.044,0.277,-5.337
0.191,0.045,0.271,-5.337
0.144,0.049,0.271,-5.337
0.159,0.047,0.274,-5.337
0.191,0.044,0.274,-5.337
0.153,0.045,0.271,-5.337
0.122,0.045,0.273,-5.337
0.169,0.044,0.277,-5.337
0.189,0.044,0.277,-5.337
0.188,0.045,0.269,-5.337
0.187,0.047,0.266,-5.337
0.181,0.047,0.266,-5.337
0.213,0.045,0.268,-5.337
0.225,0.045,0.271,-5.337
0.222,0.044,0.272,-5.337
0.201,0.044,0.273,-5.337
0.197,0.044,0.276,-5.337
0.150,0.045,0.274,-5.337
0.097,0.043,0.272,-5.337
0.104,0.044,0.271,-5.337
0.166,0.047,0.276,-5.337
0.196,0.047,0.277,-5.337
0.193,0.046,0.273,-5.337
0.211,0.044,0.268,-5.337
0.181,0.047,0.267,-5.337
0.159,0.045,0.269,-5.337
0.205,0.045,0.270,-5.337
0.202,0.044,0.271,-5.337
0.192,0.045,0.272,-5.337
0.205,0.041,0.270,-5.337
0.243,0.038,0.268,-5.337
0.268,0.036,0.271,-5.337
0.239,0.040,0.275,-5.337
0.169,0.041,0.274,-5.337
0.212,0.038,0.270,-5.337
0.206,0.042,0.267,-5.337
0.180,0.043,0.269,-5.337
0.176,0.044,0.273,-5.337
0.209,0.042,0.270,-5.337
0.283,0.041,0.265,-5.337
0.258,0.044,0.265,-5.337
0.184,0.047,0.272,-5.337
0.161,0.045,0.276,-5.337
0.201,0.044,0.279,-5.337
0.205,0.045,0.277,-5.337
0.174,0.046,0.274,-5.337
0.164,0.048,0.272,-5.337
0.176,0.043,0.271,-5.337
0.164,0.039,0.267,-5.337
0.116,0.042,0.265,-5.337
0.092,0.045,0.264,-5.337
0.131,0.048,0.262,-5.337
0.170,0.047,0.261,-5.337
0.172,0.047,0.266,-5.337
0.184,0.046,0.268,-5.337
0.203,0.044,0.271,-5.337
0.179,0.047,0.275,-5.337
0.200,0.044,0.275,-5.337
0.219,0.041,0.270,-5.337
0.231,0.040,0.267,-5.337
0.301,0.040,0.269,-5.337
0.307,0.042,0.271,-5.337
0.223,0.041,0.274,-5.337
0.182,0.042,0.274,-5.337
0.200,0.041,0.273,-5.337
0.147,0.040,0.269,-5.337
0.130,0.039,0.269,-5.337
0.206,0.039,0.270,-5.337
0.240,0.043,0.272,-5.337
0.201,0.043,0.269,-5.337
0.184,0.040,0.267,-5.337
0.217,0.034,0.267,-5.337
0.274,0.032,0.270,-5.337
0.222,0.037,0.269,-5.337
0.133,0.040,0.266,-5.337
0.207,0.038,0.265,-5.337
0.251,0.043,0.271,-5.337
0.140,0.046,0.273,-5.337
0.176,0.041,0.270,-5.337
0.244,0.034,0.268,-5.337
0.217,0.036,0.267,-5.337
0.149,0.037,0.267,-5.337
0.134,0.040,0.270,-5.337
0.105,0.042,0.274,-5.337
0.101,0.044,0.272,-5.337
0.097,0.045,0.268,-5.337
0.115,0.041,0.264,-5.337
0.166,0.042,0.266,-5.337
0.126,0.046,0.266,-5.337
0.104,0.044,0.266,-5.337
0.122,0.037,0.266,-5.337
0.145,0.036,0.265,-5.337
0.182,0.034,0.261,-5.337
0.246,0.033,0.265,-5.337
0.262,0.032,0.271,-5.337
0.231,0.037,0.273,-5.337
0.190,0.037,0.268,-5.337
0.175,0.039,0.264,-5.337
0.216,0.036,0.267,-5.337
0.251,0.037,0.271,-5.337
0.235,0.036,0.271,-5.337
0.264,0.036,0.270,-5.337
0.227,0.037,0.270,-5.337
0.194,0.035,0.270,-5.337
0.186,0.037,0.269,-5.337
0.230,0.039,0.269,-5.337
0.241,0.037,0.269,-5.337
0.264,0.035,0.267,-5.337
0.184,0.039,0.269,-5.337
0.157,0.039,0.271,-5.337
0.258,0.036,0.272,-5.337
0.259,0.038,0.274,-5.337
0.199,0.035,0.273,-5.337
0.215,0.036,0.266,-5.337
0.222,0.035,0.263,-5.337
0.185,0.035,0.265,-5.337
0.197,0.035,0.268,-5.337
0.201,0.036,0.272,-5.337
0.213,0.037,0.272,-5.337
0.203,0.037,0.267,-5.337
0.209,0.038,0.266,-5.337
0.201,0.037,0.265,-5.337
0.149,0.037,0.264,-5.337
0.205,0.033,0.266,-5.337
0.246,0.033,0.267,-5.337
0.144,0.036,0.271,-5.337
0.108,0.036,0.277,-5.337
0.192,0.034,0.277,-5.337
0.252,0.035,0.272,-5.337
0.162,0.038,0.267,-5.337
0.089,0.039,0.265,-5.337
0.150,0.036,0.263,-5.337
0.203,0.038,0.263,-5.337
0.172,0.039,0.268,-5.337
0.224,0.037,0.271,-5.337
0.249,0.037,0.271,-5.337
0.250,0.039,0.272,-5.337
0.301,0.038,0.272,-5.337
0.283,0.036,0.268,-5.337
0.271,0.040,0.267,-5.337
0.241,0.042,0.267,-5.337
0.184,0.042,0.268,-5.337
0.178,0.044,0.268,-5.337
0.179,0.045,0.268,-5.337
0.199,0.042,0.265,-5.337
0.207,0.039,0.266,-5.337
0.237,0.037,0.271,-5.337
0.198,0.039,0.278,-5.337
0.192,0.036,0.281,-5.337
0.265,0.034,0.276,-5.337
0.228,0.038,0.268,-5.337
0.153,0.039,0.265,-5.337
0.124,0.039,0.265,-5.337
0.167,0.040,0.266,-5.337
0.230,0.038,0.267,-5.337
0.201,0.035,0.267,-5.337
0.193,0.032,0.272,-5.337
0.222,0.033,0.268,-5.337
0.193,0.035,0.264,-5.337
0.186,0.031,0.264,-5.337
0.196,0.031,0.269,-5.337
0.171,0.034,0.274,-5.337
0.193,0.030,0.273,-5.337
0.228,0.029,0.266,-5.337
0.173,0.035,0.264,-5.337
0.140,0.032,0.266,-5.337
0.174,0.033,0.273,-5.337
0.211,0.036,0.274,-5.337
0.218,0.041,0.271,-5.337
0.211,0.034,0.269,-5.337
0.199,0.031,0.269,-5.337
0.181,0.030,0.264,-5.337
0.236,0.032,0.261,-5.337
0.268,0.032,0.265,-5.337
0.229,0.037,0.267,-5.337
0.183,0.042,0.266,-5.337
0.148,0.043,0.269,-5.337
0.163,0.039,0.272,-5.337
0.252,0.038,0.269,-5.337
0.251,0.042,0.266,-5.337
0.171,0.044,0.263,-5.337
0.182,0.041,0.263,-5.337
0.236,0.040,0.266,-5.337
0.155,0.042,0.270,-5.337
0.134,0.041,0.269,-5.337
0.194,0.038,0.270,-5.337
0.176,0.042,0.268,-5.337
0.157,0.040,0.269,-5.337
0.191,0.038,0.265,-5.337
0.222,0.042,0.266,-5.337
0.199,0.042,0.270,-5.337
0.232,0.041,0.270,-5.337
0.213,0.042,0.267,-5.337
0.166,0.042,0.266,-5.337
0.223,0.040,0.268,-5.337
0.239,0.038,0.269,-5.337
0.207,0.040,0.267,-5.337
0.241,0.038,0.267,-5.337
0.265,0.035,0.265,-5.337
0.285,0.035,0.267,-5.337
0.274,0.035,0.269,-5.337
0.214,0.037,0.266,-5.337
0.145,0.037,0.267,-5.337
0.193,0.036,0.270,-5.337
0.277,0.033,0.270,-5.337
0.262,0.034,0.267,-5.337
0.217,0.036,0.266,-5.337
0.174,0.037,0.265,-5.337
0.144,0.039,0.266,-5.337
0.211,0.034,0.264,-5.337
0.259,0.036,0.265,-5.337
0.269,0.040,0.268,-5.337
0.254,0.041,0.273,-5.337
0.258,0.038,0.269,-5.337
0.184,0.040,0.265,-5.337
0.147,0.040,0.263,-5.337
0.215,0.038,0.266,-5.337
0.219,0.037,0.269,-5.337
0.191,0.041,0.273,-5.337
0.227,0.041,0.270,-5.337
0.187,0.039,0.269,-5.337
0.155,0.039,0.264,-5.337
0.141,0.040,0.258,-5.337
0.148,0.041,0.259,-5.337
0.190,0.041,0.267,-5.337
0.217,0.042,0.267,-5.337
0.188,0.040,0.269,-5.337
0.165,0.038,0.271,-5.337
0.184,0.034,0.269,-5.337
0.211,0.041,0.265,-5.337
0.208,0.044,0.265,-5.337
0.267,0.040,0.267,-5.337
0.259,0.039,0.265,-5.337
0.184,0.041,0.266,-5.337
0.178,0.042,0.268,-5.337
0.215,0.040,0.271,-5.337
0.241,0.040,0.270,-5.337
0.224,0.042,0.272,-5.337
0.201,0.039,0.268,-5.337
0.245,0.043,0.266,-5.337
0.251,0.044,0.265,-5.337
0.226,0.044,0.265,-5.337
0.191,0.045,0.269,-5.337
0.211,0.045,0.267,-5.337
0.277,0.041,0.266,-5.337
0.302,0.037,0.269,-5.337
0.277,0.034,0.268,-5.337
0.239,0.037,0.268,-5.337
0.239,0.037,0.268,-5.337
0.260,0.040,0.269,-5.337
0.262,0.040,0.271,-5.337
0.202,0.043,0.272,-5.337
0.168,0.043,0.270,-5.337
0.136,0.044,0.269,-5.337
0.103,0.042,0.269,-5.337
0.149,0.041,0.264,-5.337
0.171,0.044,0.265,-5.337
0.189,0.043,0.266,-5.337
0.171,0.042,0.268,-5.337
0.162,0.047,0.270,-5.337
0.174,0.048,0.273,-5.337
0.242,0.047,0.272,-5.337
0.197,0.048,0.273,-5.337
0.165,0.047,0.270,-5.337
0.169,0.049,0.267,-5.337
0.175,0.044,0.267,-5.337
0.187,0.043,0.266,-5.337
0.185,0.042,0.268,-5.337
0.177,0.047,0.271,-5.337
0.206,0.045,0.273,-5.337
0.257,0.045,0.272,-5.337
0.237,0.047,0.271,-5.337
0.243,0.047,0.269,-5.337
0.280,0.045,0.268,-5.337
0.156,0.052,0.269,-5.337
0.139,0.050,0.270,-5.337
0.212,0.045,0.270,-5.337
0.149,0.046,0.270,-5.337
0.098,0.049,0.270,-5.337
0.155,0.048,0.272,-5.337
0.207,0.048,0.273,-5.337
0.184,0.049,0.272,-5.337
0.114,0.050,0.269,-5.337
0.071,0.053,0.268,-5.337
0.139,0.051,0.267,-5.337
0.164,0.048,0.269,-5.337
0.145,0.049,0.269,-5.337
0.200,0.049,0.270,-5.337
0.178,0.051,0.268,-5.337
0.176,0.052,0.267,-5.337
0.150,0.044,0.270,-5.337
0.206,0.041,0.274,-5.337
0.272,0.041,0.272,-5.337
0.330,0.043,0.271,-5.337
0.324,0.040,0.269,-5.337
0.244,0.048,0.264,-5.337
0.232,0.047,0.263,-5.337
0.273,0.045,0.268,-5.337
0.271,0.047,0.271,-5.337
0.200,0.049,0.271,-5.337
0.186,0.051,0.270,-5.337
0.201,0.051,0.271,-5.337
0.212,0.049,0.270,-5.337
0.218,0.048,0.267,-5.337
0.199,0.048,0.267,-5.337
0.197,0.048,0.267,-5.337
0.243,0.048,0.271,-5.337
0.252,0.048,0.272,-5.337
0.192,0.050,0.271,-5.337
0.195,0.051,0.273,-5.337
0.183,0.052,0.271,-5.337
0.190,0.052,0.269,-5.337
0.181,0.048,0.270,-5.337
0.268,0.042,0.270,-5.337
0.258,0.046,0.271,-5.337
0.185,0.049,0.269,-5.337
0.158,0.050,0.264,-5.337
0.183,0.048,0.262,-5.337
0.143,0.052,0.267,-5.337
0.152,0.051,0.271,-5.337
0.244,0.046,0.271,-5.337
0.272,0.047,0.270,-5.337
0.234,0.051,0.264,-5.337
0.196,0.055,0.261,-5.337
0.220,0.054,0.261,-5.337
0.184,0.055,0.267,-5.337
0.176,0.052,0.273,-5.337
0.163,0.051,0.275,-5.337
0.198,0.051,0.275,-5.337
0.166,0.054,0.272,-5.337
0.129,0.057,0.266,-5.337
0.099,0.059,0.270,-5.337
0.083,0.059,0.268,-5.337
0.113,0.056,0.269,-5.337
0.170,0.053,0.271,-5.337
0.183,0.053,0.275,-5.337
0.190,0.053,0.270,-5.337
0.253,0.055,0.267,-5.337
0.275,0.055,0.266,-5.337
0.244,0.054,0.265,-5.337
0.224,0.051,0.267,-5.337
0.238,0.052,0.270,-5.337
0.266,0.052,0.272,-5.337
0.222,0.055,0.272,-5.337
0.227,0.057,0.271,-5.337
0.215,0.057,0.269,-5.337
0.219,0.056,0.267,-5.337
0.238,0.055,0.266,-5.337
0.248,0.055,0.265,-5.337
0.236,0.055,0.265,-5.337
0.231,0.055,0.269,-5.337
0.207,0.053,0.273,-5.337
0.171,0.053,0.273,-5.337
0.174,0.054,0.270,-5.337
0.188,0.057,0.271,-5.337
0.178,0.059,0.273,-5.337
0.170,0.058,0.276,-5.337
0.178,0.054,0.272,-5.337
0.143,0.056,0.267,-5.337
0.190,0.055,0.265,-5.337
0.212,0.058,0.267,-5.337
0.178,0.054,0.267,-5.337
0.191,0.056,0.268,-5.337
0.101,0.061,0.267,-5.337
0.111,0.060,0.266,-5.337
0.205,0.057,0.265,-5.337
0.209,0.058,0.269,-5.337
0.223,0.058,0.270,-5.337
0.273,0.056,0.269,-5.337
0.166,0.059,0.268,-5.337
0.041,0.060,0.266,-5.337
0.124,0.051,0.263,-5.337
0.224,0.050,0.264,-5.337
0.219,0.052,0.267,-5.337
0.241,0.052,0.267,-5.337
0.262,0.051,0.269,-5.337
0.238,0.050,0.270,-5.337
0.184,0.050,0.270,-5.337
0.169,0.053,0.268,-5.337
0.174,0.056,0.265,-5.337
0.204,0.055,0.262,-5.337
0.225,0.056,0.267,-5.337
0.215,0.057,0.272,-5.337
0.186,0.055,0.276,-5.337
0.238,0.053,0.275,-5.337
0.295,0.052,0.275,-5.337
0.293,0.053,0.269,-5.337
0.201,0.056,0.264,-5.337
0.164,0.053,0.266,-5.337
0.182,0.053,0.271,-5.337
0.175,0.055,0.271,-5.337
0.150,0.056,0.270,-5.337
0.149,0.056,0.269,-5.337
0.177,0.056,0.268,-5.337
0.165,0.057,0.269,-5.337
0.148,0.059,0.270,-5.337
0.163,0.057,0.269,-5.337
0.178,0.057,0.270,-5.337
0.185,0.058,0.268,-5.337
0.156,0.059,0.266,-5.337
0.148,0.059,0.265,-5.337
0.226,0.054,0.268,-5.337
0.239,0.054,0.270,-5.337
0.234,0.054,0.270,-5.337
0.269,0.053,0.271,-5.337
0.249,0.055,0.271,-5.337
0.205,0.054,0.271,-5.337
0.196,0.057,0.265,-5.337
0.208,0.059,0.265,-5.337
0.195,0.058,0.266,-5.337
0.170,0.057,0.272,-5.337
0.189,0.056,0.274,-5.337
0.246,0.056,0.270,-5.337
0.262,0.054,0.268,-5.337
0.214,0.056,0.269,-5.337
0.183,0.056,0.267,-5.337
0.126,0.058,0.268,-5.337
0.083,0.060,0.271,-5.337
0.196,0.057,0.274,-5.337
0.206,0.059,0.273,-5.337
0.199,0.062,0.271,-5.337
0.214,0.060,0.268,-5.337
0.225,0.060,0.266,-5.337
0.234,0.060,0.266,-5.337
0.204,0.061,0.266,-5.337
0.180,0.060,0.268,-5.337
0.154,0.059,0.266,-5.337
0.152,0.058,0.263,-5.337
0.163,0.058,0.263,-5.337
0.206,0.055,0.267,-5.337
0.234,0.056,0.269,-5.337
0.187,0.058,0.269,-5.337
0.205,0.052,0.271,-5.337
0.259,0.055,0.273,-5.337
0.248,0.057,0.272,-5.337
0.180,0.058,0.268,-5.337
0.182,0.058,0.266,-5.337
0.238,0.057,0.266,-5.337
0.276,0.055,0.269,-5.337
0.258,0.056,0.271,-5.337
0.171,0.059,0.269,-5.337
0.157,0.057,0.267,-5.337
0.202,0.055,0.265,-5.337
0.199,0.055,0.267,-5.337
0.208,0.056,0.270,-5.337
0.257,0.056,0.267,-5.337
0.227,0.059,0.267,-5.337
0.180,0.060,0.267,-5.337
0.232,0.057,0.265,-5.337
0.247,0.056,0.265,-5.337
0.196,0.057,0.267,-5.337
0.153,0.058,0.268,-5.337
0.133,0.058,0.265,-5.337
0.138,0.057,0.262,-5.337
0.110,0.060,0.263,-5.337
0.125,0.058,0.264,-5.337
0.204,0.059,0.264,-5.337
0.244,0.056,0.270,-5.337
0.262,0.056,0.273,-5.337
0.232,0.057,0.269,-5.337
0.242,0.056,0.267,-5.337
0.161,0.057,0.265,-5.337
0.134,0.059,0.265,-5.337
0.254,0.053,0.267,-5.337
0.216,0.054,0.267,-5.337
0.163,0.051,0.265,-5.337
0.163,0.050,0.265,-5.337
0.168,0.051,0.264,-5.337
0.202,0.051,0.269,-5.337
0.215,0.050,0.275,-5.337
0.228,0.049,0.271,-5.337
0.160,0.052,0.264,-5.337
0.141,0.055,0.261,-5.337
0.243,0.055,0.266,-5.337
0.291,0.053,0.269,-5.337
0.206,0.057,0.271,-5.337
0.163,0.058,0.269,-5.337
0.174,0.060,0.268,-5.337
0.175,0.055,0.264,-5.337
0.149,0.053,0.261,-5.337
0.143,0.052,0.261,-5.337
0.120,0.056,0.261,-5.337
0.106,0.054,0.265,-5.337
0.178,0.057,0.270,-5.337
0.232,0.055,0.273,-5.337
0.188,0.054,0.269,-5.337
0.192,0.051,0.266,-5.337
0.222,0.050,0.268,-5.337
0.215,0.051,0.270,-5.337
0.229,0.051,0.270,-5.337
0.180,0.053,0.268,-5.337
0.122,0.052,0.268,-5.337
0.168,0.050,0.268,-5.337
0.177,0.049,0.269,-5.337
0.194,0.047,0.267,-5.337
0.170,0.047,0.261,-5.337
0.161,0.045,0.261,-5.337
0.192,0.046,0.263,-5.337
0.195,0.050,0.268,-5.337
0.199,0.052,0.269,-5.337
0.235,0.049,0.272,-5.337
0.267,0.048,0.269,-5.337
0.203,0.050,0.270,-5.337
0.174,0.047,0.268,-5.337
0.183,0.047,0.268,-5.337
0.240,0.046,0.267,-5.337
0.293,0.050,0.265,-5.337
0.214,0.051,0.262,-5.337
0.165,0.052,0.264,-5.337
0.142,0.052,0.265,-5.337
0.168,0.048,0.265,-5.337
0.206,0.046,0.269,-5.337
0.222,0.044,0.273,-5.337
0.207,0.043,0.273,-5.337
0.192,0.043,0.275,-5.337
0.180,0.043,0.275,-5.337
0.170,0.048,0.274,-5.337
0.115,0.049,0.268,-5.337
0.090,0.049,0.265,-5.337
0.103,0.052,0.265,-5.337
0.150,0.048,0.267,-5.337
0.224,0.042,0.272,-5.337
0.216,0.045,0.272,-5.337
0.170,0.047,0.272,-5.337
0.164,0.047,0.266,-5.337
0.202,0.046,0.268,-5.337
0.190,0.044,0.270,-5.337
0.170,0.047,0.275,-5.337
0.206,0.043,0.274,-5.337
0.239,0.043,0.273,-5.337
0.171,0.045,0.269,-5.337
0.190,0.044,0.265,-5.337
0.241,0.042,0.265,-5.337
0.240,0.043,0.267,-5.337
0.226,0.040,0.267,-5.337
0.241,0.039,0.268,-5.337
0.196,0.038,0.268,-5.337
0.103,0.040,0.270,-5.337
0.065,0.044,0.271,-5.337
0.146,0.043,0.272,-5.337
0.236,0.041,0.273,-5.337
0.255,0.039,0.274,-5.337
0.243,0.041,0.272,-5.337
0.207,0.041,0.271,-5.337
0.189,0.040,0.271,-5.337
0.206,0.039,0.272,-5.337
0.209,0.039,0.271,-5.337
0.169,0.044,0.266,-5.337
0.163,0.045,0.262,-5.337
0.182,0.047,0.263,-5.337
0.218,0.044,0.270,-5.337
0.244,0.040,0.273,-5.337
0.238,0.039,0.272,-5.337
0.173,0.042,0.269,-5.337
0.160,0.042,0.269,-5.337
0.178,0.044,0.269,-5.337
0.166,0.043,0.270,-5.337
0.179,0.041,0.272,-5.337
0.230,0.040,0.270,-5.337
0.232,0.040,0.270,-5.337
0.292,0.039,0.271,-5.337
0.254,0.041,0.271,-5.337
0.164,0.043,0.271,-5.337
0.195,0.044,0.269,-5.337
0.272,0.044,0.267,-5.337
0.234,0.046,0.270,-5.337
0.243,0.045,0.268,-5.337
0.248,0.046,0.269,-5.337
0.258,0.044,0.275,-5.337
0.264,0.042,0.277,-5.337
0.230,0.042,0.271,-5.337
0.212,0.041,0.269,-5.337
0.202,0.040,0.272,-5.337
0.195,0.047,0.275,-5.337
0.191,0.047,0.276,-5.337
0.180,0.044,0.271,-5.337
0.143,0.043,0.266,-5.337
0.191,0.042,0.265,-5.337
0.200,0.042,0.265,-5.337
0.153,0.041,0.267,-5.337
0.151,0.042,0.267,-5.337
0.191,0.042,0.269,-5.337
0.148,0.042,0.269,-5.337
0.123,0.042,0.268,-5.337
0.173,0.040,0.267,-5.337
0.188,0.044,0.269,-5.337
0.139,0.045,0.273,-5.337
0.148,0.041,0.271,-5.337
0.172,0.038,0.270,-5.337
0.213,0.037,0.271,-5.337
0.162,0.037,0.268,-5.337
0.200,0.038,0.266,-5.337
0.272,0.036,0.268,-5.337
0.257,0.041,0.271,-5.337
0.207,0.045,0.271,-5.337
0.175,0.046,0.269,-5.337
0.135,0.041,0.269,-5.337
0.109,0.041,0.269,-5.337
0.198,0.038,0.271,-5.337
0.238,0.043,0.274,-5.337
0.243,0.045,0.276,-5.337
0.245,0.044,0.273,-5.337
0.218,0.044,0.266,-5.337
0.175,0.042,0.265,-5.337
0.174,0.043,0.268,-5.337
0.211,0.039,0.270,-5.337
0.233,0.038,0.270,-5.337
0.190,0.036,0.270,-5.337
0.173,0.037,0.269,-5.337
0.161,0.037,0.267,-5.337
0.144,0.039,0.267,-5.337
0.173,0.035,0.270,-5.337
0.270,0.029,0.272,-5.337
0.282,0.033,0.274,-5.337
0.209,0.039,0.271,-5.337
0.139,0.037,0.269,-5.337
0.179,0.034,0.270,-5.337
0.196,0.034,0.270,-5.337
0.230,0.035,0.265,-5.337
0.253,0.031,0.267,-5.337
0.288,0.030,0.269,-5.337
0.233,0.036,0.275,-5.337
0.170,0.039,0.277,-5.337
0.184,0.035,0.277,-5.337
0.262,0.032,0.271,-5.337
0.290,0.032,0.266,-5.337
0.215,0.036,0.266,-5.337
0.181,0.038,0.269,-5.337
0.174,0.037,0.268,-5.337
0.150,0.033,0.267,-5.337
0.134,0.031,0.266,-5.337
0.175,0.031,0.267,-5.337
0.268,0.033,0.269,-5.337
0.275,0.035,0.271,-5.337
0.232,0.035,0.271,-5.337
0.255,0.035,0.268,-5.337
0.289,0.035,0.268,-5.337
0.225,0.038,0.270,-5.337
0.162,0.037,0.272,-5.337
0.181,0.036,0.269,-5.337
0.248,0.036,0.271,-5.337
0.215,0.037,0.275,-5.337
0.130,0.040,0.276,-5.337
0.139,0.037,0.271,-5.337
0.179,0.038,0.269,-5.337
0.162,0.039,0.270,-5.337
0.168,0.041,0.273,-5.337
0.136,0.039,0.272,-5.337
0.114,0.040,0.271,-5.337
0.185,0.041,0.271,-5.337
0.185,0.044,0.271,-5.337
0.116,0.045,0.270,-5.337
0.173,0.039,0.270,-5.337
0.273,0.035,0.270,-5.337
0.264,0.037,0.271,-5.337
0.201,0.036,0.270,-5.337
0.258,0.037,0.267,-5.337
0.221,0.038,0.267,-5.337
0.239,0.033,0.272,-5.337
0.263,0.034,0.276,-5.337
0.235,0.033,0.275,-5.337
0.162,0.037,0.271,-5.337
0.140,0.036,0.268,-5.337
0.205,0.034,0.271,-5.337
0.245,0.035,0.273,-5.337
0.189,0.037,0.273,-5.337
0.154,0.042,0.270,-5.337
0.220,0.041,0.270,-5.337
0.262,0.039,0.269,-5.337
0.272,0.042,0.270,-5.337
0.200,0.042,0.269,-5.337
0.130,0.044,0.271,-5.337
0.109,0.043,0.272,-5.337
0.164,0.039,0.275,-5.337
0.230,0.033,0.274,-5.337
0.266,0.037,0.272,-5.337
0.324,0.036,0.272,-5.337
0.291,0.040,0.272,-5.337
0.230,0.043,0.271,-5.337
0.231,0.047,0.270,-5.337
0.209,0.047,0.270,-5.337
0.077,0.048,0.271,-5.337
0.096,0.045,0.272,-5.337
0.184,0.044,0.271,-5.337
0.227,0.045,0.271,-5.337
0.257,0.041,0.269,-5.337
0.268,0.040,0.267,-5.337
0.280,0.041,0.268,-5.337
0.188,0.043,0.269,-5.337
0.107,0.048,0.266,-5.337
0.110,0.051,0.268,-5.337
0.130,0.048,0.269,-5.337
0.205,0.048,0.273,-5.337
0.249,0.049,0.272,-5.337
0.265,0.049,0.271,-5.337
0.272,0.045,0.272,-5.337
0.202,0.050,0.270,-5.337
0.162,0.052,0.268,-5.337
0.226,0.053,0.268,-5.337
0.266,0.048,0.269,-5.337
0.190,0.045,0.272,-5.337
0.232,0.044,0.275,-5.337
0.273,0.044,0.276,-5.337
0.239,0.043,0.276,-5.337
0.229,0.042,0.275,-5.337
0.291,0.041,0.272,-5.337
0.282,0.041,0.270,-5.337
0.235,0.042,0.266,-5.337
0.189,0.045,0.262,-5.337
0.141,0.048,0.266,-5.337
0.130,0.050,0.270,-5.337
0.198,0.047,0.271,-5.337
0.237,0.043,0.268,-5.337
0.189,0.043,0.271,-5.337
0.185,0.044,0.274,-5.337
0.242,0.046,0.274,-5.337
0.206,0.049,0.271,-5.337
0.156,0.048,0.270,-5.337
0.226,0.044,0.267,-5.337
0.311,0.041,0.264,-5.337
0.299,0.040,0.264,-5.337
0.298,0.040,0.267,-5.337
0.210,0.046,0.269,-5.337
0.164,0.049,0.267,-5.337
0.118,0.048,0.268,-5.337
0.173,0.045,0.270,-5.337
0.210,0.043,0.272,-5.337
0.181,0.047,0.270,-5.337
0.183,0.045,0.266,-5.337
0.173,0.043,0.266,-5.337
0.215,0.042,0.274,-5.337
0.240,0.046,0.274,-5.337
0.209,0.046,0.271,-5.337
0.216,0.044,0.272,-5.337
0.281,0.044,0.274,-5.337
0.271,0.045,0.274,-5.337
0.250,0.044,0.273,-5.337
0.215,0.046,0.269,-5.337
0.151,0.047,0.268,-5.337
0.156,0.042,0.267,-5.337
0.162,0.042,0.267,-5.337
0.265,0.042,0.265,-5.337
0.262,0.041,0.267,-5.337
0.192,0.040,0.270,-5.337
0.171,0.045,0.270,-5.337
0.158,0.047,0.267,-5.337
0.149,0.047,0.269,-5.337
0.172,0.042,0.270,-5.337
0.235,0.039,0.269,-5.337
0.250,0.038,0.269,-5.337
0.228,0.041,0.271,-5.337
0.234,0.041,0.271,-5.337
0.179,0.043,0.273,-5.337
0.185,0.039,0.272,-5.337
0.238,0.043,0.270,-5.337
0.260,0.043,0.269,-5.337
0.230,0.040,0.266,-5.337
0.127,0.040,0.266,-5.337
0.145,0.041,0.268,-5.337
0.181,0.040,0.269,-5.337
0.199,0.039,0.268,-5.337
0.216,0.038,0.268,-5.337
0.235,0.039,0.268,-5.337
0.183,0.044,0.268,-5.337
0.138,0.047,0.268,-5.337
0.145,0.047,0.274,-5.337
0.098,0.048,0.276,-5.337
0.093,0.048,0.275,-5.337
0.209,0.045,0.268,-5.337
0.303,0.044,0.266,-5.337
0.240,0.045,0.268,-5.337
0.108,0.050,0.270,-5.337
0.152,0.047,0.270,-5.337
0.273,0.045,0.271,-5.337
0.267,0.046,0.273,-5.337
0.229,0.049,0.272,-5.337
0.230,0.046,0.268,-5.337
0.186,0.046,0.265,-5.337
0.152,0.045,0.266,-5.337
0.174,0.045,0.268,-5.337
0.199,0.042,0.270,-5.337
0.240,0.043,0.268,-5.337
0.245,0.044,0.267,-5.337
0.208,0.046,0.271,-5.337
0.172,0.047,0.274,-5.337
0.166,0.050,0.272,-5.337
0.213,0.051,0.271,-5.337
0.179,0.053,0.269,-5.337
0.125,0.048,0.270,-5.337
0.123,0.053,0.271,-5.337
0.147,0.057,0.274,-5.337
0.164,0.058,0.275,-5.337
0.159,0.055,0.275,-5.337
0.207,0.052,0.272,-5.337
0.252,0.050,0.273,-5.337
0.270,0.049,0.271,-5.337
0.279,0.048,0.269,-5.337
0.191,0.046,0.268,-5.337
0.134,0.046,0.272,-5.337
0.165,0.047,0.271,-5.337
0.167,0.050,0.270,-5.337
0.213,0.047,0.269,-5.337
0.233,0.048,0.269,-5.337
0.189,0.049,0.272,-5.337
0.202,0.048,0.273,-5.337
0.268,0.050,0.271,-5.337
0.234,0.050,0.270,-5.337
0.188,0.051,0.273,-5.337
0.185,0.049,0.274,-5.337
0.215,0.048,0.272,-5.337
0.237,0.051,0.265,-5.337
0.194,0.057,0.264,-5.337
0.156,0.055,0.267,-5.337
0.232,0.051,0.276,-5.337
0.265,0.054,0.277,-5.337
0.277,0.053,0.273,-5.337
0.271,0.052,0.273,-5.337
0.200,0.054,0.275,-5.337
0.096,0.055,0.271,-5.337
0.084,0.053,0.268,-5.337
0.177,0.050,0.267,-5.337
0.220,0.053,0.268,-5.337
0.155,0.057,0.272,-5.337
0.155,0.055,0.276,-5.337
0.192,0.056,0.276,-5.337
0.208,0.060,0.276,-5.337
0.191,0.058,0.276,-5.337
0.267,0.054,0.275,-5.337
0.251,0.056,0.272,-5.337
0.167,0.060,0.272,-5.337
0.108,0.062,0.274,-5.337
0.170,0.055,0.271,-5.337
0.306,0.051,0.268,-5.337
0.282,0.054,0.266,-5.337
0.140,0.057,0.269,-5.337
0.144,0.058,0.273,-5.337
0.203,0.055,0.276,-5.337
0.219,0.053,0.277,-5.337
0.234,0.052,0.275,-5.337
0.257,0.054,0.270,-5.337
0.249,0.054,0.271,-5.337
0.223,0.058,0.274,-5.337
0.172,0.063,0.278,-5.337
0.117,0.064,0.274,-5.337
0.154,0.061,0.272,-5.337
0.203,0.056,0.271,-5.337
0.223,0.056,0.269,-5.337
0.208,0.059,0.266,-5.337
0.247,0.060,0.270,-5.337
0.264,0.059,0.273,-5.337
0.254,0.060,0.267,-5.337
0.229,0.060,0.264,-5.337
0.212,0.057,0.263,-5.337
0.149,0.056,0.267,-5.337
0.147,0.056,0.270,-5.337
0.220,0.053,0.275,-5.337
0.199,0.050,0.277,-5.337
0.130,0.050,0.280,-5.337
0.126,0.052,0.276,-5.337
0.159,0.054,0.273,-5.337
0.187,0.055,0.273,-5.337
0.228,0.053,0.277,-5.337
0.212,0.054,0.274,-5.337
0.222,0.056,0.270,-5.337
0.201,0.059,0.268,-5.337
0.239,0.060,0.267,-5.337
0.240,0.058,0.265,-5.337
0.199,0.058,0.267,-5.337
0.165,0.059,0.272,-5.337
0.139,0.059,0.274,-5.337
0.156,0.062,0.274,-5.337
0.182,0.064,0.273,-5.337
0.189,0.062,0.269,-5.337
0.236,0.061,0.267,-5.337
0.195,0.061,0.266,-5.337
0.147,0.060,0.269,-5.337
0.108,0.062,0.272,-5.337
0.185,0.059,0.272,-5.337
0.261,0.058,0.268,-5.337
0.245,0.058,0.267,-5.337
0.201,0.062,0.272,-5.337
0.140,0.063,0.275,-5.337
0.177,0.060,0.276,-5.337
0.202,0.056,0.273,-5.337
0.161,0.060,0.268,-5.337
0.131,0.060,0.266,-5.337
0.192,0.056,0.270,-5.337
0.242,0.054,0.269,-5.337
0.181,0.055,0.271,-5.337
0.196,0.054,0.273,-5.337
0.240,0.055,0.273,-5.337
0.219,0.057,0.272,-5.337
0.152,0.059,0.270,-5.337
0.177,0.058,0.268,-5.337
0.184,0.057,0.267,-5.337
0.186,0.054,0.266,-5.337
0.179,0.054,0.268,-5.337
0.192,0.054,0.269,-5.337
0.189,0.055,0.267,-5.337
0.201,0.056,0.267,-5.337
0.221,0.056,0.270,-5.337
0.213,0.056,0.271,-5.337
0.178,0.059,0.270,-5.337
0.193,0.061,0.273,-5.337
0.172,0.063,0.277,-5.337
0.102,0.063,0.276,-5.337
0.141,0.058,0.272,-5.337
0.194,0.058,0.270,-5.337
0.111,0.062,0.272,-5.337
0.148,0.062,0.274,-5.337
0.240,0.060,0.273,-5.337
0.243,0.057,0.272,-5.337
0.201,0.060,0.270,-5.337
0.188,0.063,0.269,-5.337
0.224,0.060,0.269,-5.337
0.216,0.057,0.271,-5.337
0.218,0.051,0.269,-5.337
0.231,0.053,0.268,-5.337
0.252,0.053,0.270,-5.337
0.218,0.055,0.270,-5.337
0.218,0.055,0.271,-5.337
0.126,0.057,0.271,-5.337
0.099,0.057,0.271,-5.337
0.118,0.059,0.269,-5.337
0.106,0.062,0.269,-5.337
0.161,0.059,0.268,-5.337
0.234,0.060,0.268,-5.337
0.241,0.061,0.273,-5.337
0.211,0.061,0.276,-5.337
0.192,0.060,0.274,-5.337
0.157,0.057,0.272,-5.337
0.111,0.060,0.271,-5.337
0.164,0.060,0.269,-5.337
0.257,0.059,0.266,-5.337
0.180,0.064,0.271,-5.337
0.103,0.064,0.275,-5.337
0.159,0.060,0.273,-5.337
0.239,0.057,0.271,-5.337
0.218,0.058,0.272,-5.337
0.225,0.054,0.270,-5.337
0.207,0.055,0.269,-5.337
0.190,0.053,0.271,-5.337
0.142,0.055,0.272,-5.337
0.087,0.055,0.270,-5.337
0.134,0.056,0.273,-5.337
0.196,0.055,0.277,-5.337
0.207,0.057,0.278,-5.337
0.235,0.054,0.272,-5.337
0.213,0.057,0.270,-5.337
0.189,0.060,0.271,-5.337
0.166,0.060,0.271,-5.337
0.162,0.059,0.268,-5.337
0.143,0.057,0.269,-5.337
0.167,0.058,0.274,-5.337
0.166,0.061,0.274,-5.337
0.196,0.055,0.272,-5.337
0.299,0.049,0.270,-5.337
0.240,0.052,0.269,-5.337
0.149,0.055,0.269,-5.337
0.118,0.057,0.268,-5.337
0.078,0.059,0.268,-5.337
0.093,0.056,0.271,-5.337
0.171,0.051,0.270,-5.337
0.200,0.047,0.269,-5.337
0.193,0.051,0.271,-5.337
0.212,0.052,0.274,-5.337
0.246,0.049,0.276,-5.337
0.215,0.047,0.276,-5.337
0.191,0.047,0.271,-5.337
0.176,0.048,0.267,-5.337
0.149,0.047,0.265,-5.337
0.146,0.047,0.265,-5.337
0.223,0.046,0.269,-5.337
0.249,0.044,0.270,-5.337
0.189,0.050,0.268,-5.337
0.156,0.053,0.268,-5.337
0.117,0.053,0.270,-5.337
0.148,0.052,0.269,-5.337
0.128,0.056,0.271,-5.337
0.076,0.059,0.271,-5.337
0.079,0.058,0.272,-5.337
0.127,0.057,0.272,-5.337
0.250,0.049,0.270,-5.337
0.305,0.049,0.269,-5.337
0.217,0.054,0.276,-5.337
0.155,0.054,0.276,-5.337
0.179,0.052,0.272,-5.337
0.221,0.046,0.271,-5.337
0.152,0.052,0.271,-5.337
0.025,0.057,0.268,-5.337
0.078,0.057,0.264,-5.337
0.193,0.050,0.263,-5.337
0.278,0.047,0.265,-5.337
0.233,0.051,0.269,-5.337
0.143,0.054,0.273,-5.337
0.205,0.050,0.271,-5.337
0.257,0.046,0.273,-5.337
0.223,0.047,0.275,-5.337
0.198,0.051,0.268,-5.337
0.128,0.053,0.267,-5.337
0.121,0.052,0.269,-5.337
0.161,0.049,0.269,-5.337
0.182,0.050,0.267,-5.337
0.155,0.052,0.271,-5.337
0.153,0.049,0.269,-5.337
0.170,0.051,0.269,-5.337
0.172,0.051,0.267,-5.337
0.142,0.052,0.268,-5.337
0.154,0.050,0.270,-5.337
0.174,0.051,0.269,-5.337
0.241,0.050,0.268,-5.337
0.207,0.051,0.274,-5.337
0.186,0.050,0.279,-5.337
0.175,0.050,0.276,-5.337
0.184,0.050,0.270,-5.337
0.227,0.049,0.267,-5.337
0.279,0.045,0.266,-5.337
0.265,0.047,0.268,-5.337
0.166,0.047,0.267,-5.337
0.167,0.043,0.268,-5.337
0.179,0.042,0.267,-5.337
0.210,0.047,0.269,-5.337
0.200,0.049,0.269,-5.337
0.151,0.050,0.273,-5.337
0.148,0.048,0.275,-5.337
0.184,0.045,0.275,-5.337
0.222,0.043,0.272,-5.337
0.245,0.043,0.270,-5.337
0.249,0.039,0.270,-5.337
0.205,0.042,0.266,-5.337
0.154,0.045,0.267,-5.337
0.143,0.041,0.271,-5.337
0.213,0.039,0.272,-5.337
0.225,0.043,0.270,-5.337
0.199,0.043,0.268,-5.337
0.231,0.037,0.267,-5.337
0.252,0.038,0.269,-5.337
0.255,0.042,0.269,-5.337
0.219,0.043,0.267,-5.337
0.182,0.044,0.267,-5.337
0.152,0.049,0.270,-5.337
0.109,0.047,0.269,-5.337
0.128,0.045,0.269,-5.337
0.158,0.044,0.267,-5.337
0.111,0.047,0.268,-5.337
0.133,0.044,0.266,-5.337
0.187,0.042,0.267,-5.337
0.179,0.041,0.269,-5.337
0.182,0.042,0.269,-5.337
0.225,0.038,0.267,-5.337
0.260,0.035,0.266,-5.337
0.149,0.043,0.267,-5.337
0.087,0.043,0.268,-5.337
0.125,0.043,0.264,-5.337
0.187,0.041,0.263,-5.337
0.223,0.043,0.271,-5.337
0.216,0.040,0.274,-5.337
0.190,0.039,0.276,-5.337
0.198,0.038,0.276,-5.337
0.229,0.039,0.274,-5.337
0.181,0.039,0.271,-5.337
0.136,0.037,0.268,-5.337
0.207,0.036,0.269,-5.337
0.148,0.038,0.270,-5.337
0.151,0.040,0.270,-5.337
0.198,0.043,0.270,-5.337
0.158,0.039,0.269,-5.337
0.155,0.034,0.266,-5.337
0.152,0.032,0.263,-5.337
0.139,0.035,0.268,-5.337
0.125,0.035,0.271,-5.337
0.138,0.033,0.269,-5.337
0.167,0.033,0.268,-5.337
0.197,0.032,0.272,-5.337
0.236,0.027,0.277,-5.337
0.214,0.028,0.277,-5.337
0.152,0.034,0.273,-5.337
0.143,0.035,0.271,-5.337
0.194,0.033,0.270,-5.337
0.197,0.032,0.267,-5.337
0.224,0.034,0.268,-5.337
0.237,0.032,0.270,-5.337
0.173,0.035,0.275,-5.337
0.196,0.034,0.273,-5.337
0.273,0.033,0.268,-5.337
0.265,0.030,0.265,-5.337
0.202,0.033,0.267,-5.337
0.175,0.035,0.271,-5.337
0.167,0.035,0.274,-5.337
0.193,0.031,0.275,-5.337
0.250,0.032,0.272,-5.337
0.269,0.037,0.271,-5.337
0.260,0.037,0.269,-5.337
0.186,0.038,0.269,-5.337
0.231,0.038,0.270,-5.337
0.271,0.035,0.270,-5.337
0.241,0.036,0.270,-5.337
0.225,0.037,0.270,-5.337
0.187,0.036,0.267,-5.337
0.161,0.035,0.269,-5.337
0.177,0.036,0.272,-5.337
0.201,0.038,0.273,-5.337
0.126,0.042,0.271,-5.337
0.142,0.037,0.270,-5.337
0.236,0.034,0.266,-5.337
0.189,0.037,0.267,-5.337
0.158,0.038,0.267,-5.337
0.144,0.039,0.271,-5.337
0.116,0.037,0.277,-5.337
0.144,0.036,0.278,-5.337
0.181,0.039,0.274,-5.337
0.181,0.039,0.271,-5.337
0.177,0.034,0.269,-5.337
0.181,0.033,0.270,-5.337
0.186,0.035,0.272,-5.337
0.173,0.034,0.274,-5.337
0.115,0.035,0.273,-5.337
0.144,0.033,0.269,-5.337
0.176,0.033,0.269,-5.337
0.165,0.035,0.271,-5.337
0.161,0.037,0.275,-5.337
0.164,0.039,0.273,-5.337
0.186,0.040,0.267,-5.337
0.190,0.038,0.262,-5.337
0.195,0.040,0.267,-5.337
0.231,0.036,0.271,-5.337
0.295,0.033,0.273,-5.337
0.240,0.038,0.273,-5.337
0.150,0.039,0.273,-5.337
0.161,0.037,0.274,-5.337
0.205,0.036,0.273,-5.337
0.220,0.038,0.273,-5.337
0.245,0.039,0.270,-5.337
0.231,0.034,0.266,-5.337
0.209,0.035,0.266,-5.337
0.142,0.045,0.269,-5.337
0.096,0.046,0.270,-5.337
0.199,0.038,0.272,-5.337
0.212,0.034,0.272,-5.337
0.171,0.038,0.268,-5.337
0.203,0.038,0.265,-5.337
0.187,0.042,0.269,-5.337
0.176,0.036,0.273,-5.337
0.219,0.031,0.274,-5.337
0.206,0.035,0.273,-5.337
0.186,0.037,0.271,-5.337
0.237,0.036,0.268,-5.337
0.238,0.037,0.270,-5.337
0.170,0.040,0.271,-5.337
0.157,0.038,0.272,-5.337
0.205,0.033,0.269,-5.337
0.211,0.033,0.270,-5.337
0.132,0.037,0.268,-5.337
0.119,0.037,0.269,-5.337
0.161,0.036,0.270,-5.337
0.226,0.036,0.274,-5.337
0.265,0.036,0.276,-5.337
0.221,0.036,0.274,-5.337
0.155,0.037,0.270,-5.337
0.143,0.040,0.270,-5.337
0.223,0.038,0.272,-5.337
0.188,0.036,0.271,-5.337
0.179,0.034,0.268,-5.337
0.213,0.038,0.265,-5.337
0.196,0.039,0.266,-5.337
0.159,0.040,0.268,-5.337
0.150,0.042,0.267,-5.337
0.194,0.042,0.263,-5.337
0.154,0.042,0.268,-5.337
0.134,0.040,0.273,-5.337
0.150,0.038,0.276,-5.337
0.159,0.040,0.273,-5.337
0.160,0.040,0.269,-5.337
0.223,0.034,0.270,-5.337
0.255,0.034,0.275,-5.337
0.219,0.036,0.276,-5.337
0.218,0.038,0.276,-5.337
0.192,0.037,0.275,-5.337
0.181,0.039,0.273,-5.337
0.216,0.038,0.270,-5.337
0.228,0.036,0.269,-5.337
0.262,0.034,0.270,-5.337
0.240,0.036,0.270,-5.337
0.183,0.032,0.268,-5.337
0.226,0.031,0.269,-5.337
0.264,0.032,0.269,-5.337
0.273,0.034,0.268,-5.337
0.228,0.039,0.268,-5.337
0.154,0.043,0.271,-5.337
0.188,0.039,0.272,-5.337
0.310,0.036,0.272,-5.337
0.297,0.035,0.272,-5.337
0.265,0.037,0.273,-5.337
0.246,0.038,0.272,-5.337
0.214,0.036,0.273,-5.337
0.193,0.040,0.278,-5.337
0.198,0.042,0.277,-5.337
0.237,0.043,0.276,-5.337
0.226,0.042,0.273,-5.337
0.192,0.044,0.272,-5.337
0.168,0.042,0.271,-5.337
0.165,0.042,0.270,-5.337
0.144,0.039,0.270,-5.337
0.244,0.037,0.273,-5.337
0.266,0.037,0.271,-5.337
0.259,0.041,0.270,-5.337
0.240,0.042,0.274,-5.337
0.181,0.046,0.276,-5.337
0.161,0.044,0.274,-5.337
0.191,0.043,0.267,-5.337
0.172,0.045,0.265,-5.337
0.165,0.042,0.266,-5.337
0.240,0.040,0.269,-5.337
0.273,0.039,0.273,-5.337
0.246,0.039,0.274,-5.337
0.259,0.039,0.271,-5.337
0.201,0.039,0.269,-5.337
0.188,0.037,0.267,-5.337
0.194,0.036,0.269,-5.337
0.206,0.037,0.271,-5.337
0.175,0.040,0.274,-5.337
0.183,0.038,0.276,-5.337
0.286,0.036,0.276,-5.337
0.242,0.040,0.273,-5.337
0.123,0.042,0.274,-5.337
0.088,0.042,0.270,-5.337
0.170,0.041,0.267,-5.337
0.189,0.040,0.267,-5.337
0.200,0.042,0.270,-5.337
0.156,0.038,0.268,-5.337
0.153,0.040,0.264,-5.337
0.221,0.039,0.262,-5.337
0.227,0.040,0.265,-5.337
0.193,0.041,0.271,-5.337
0.160,0.042,0.272,-5.337
0.225,0.040,0.269,-5.337
0.267,0.037,0.270,-5.337
0.265,0.035,0.272,-5.337
0.241,0.040,0.272,-5.337
0.172,0.047,0.269,-5.337
0.120,0.047,0.266,-5.337
0.196,0.046,0.269,-5.337
0.226,0.047,0.270,-5.337
0.191,0.044,0.272,-5.337
0.244,0.043,0.273,-5.337
0.261,0.043,0.275,-5.337
0.281,0.040,0.270,-5.337
0.250,0.043,0.268,-5.337
0.199,0.045,0.266,-5.337
0.265,0.039,0.268,-5.337
0.267,0.039,0.268,-5.337
0.179,0.046,0.267,-5.337
0.125,0.046,0.267,-5.337
0.175,0.045,0.273,-5.337
0.224,0.046,0.275,-5.337
0.258,0.043,0.273,-5.337
0.248,0.044,0.273,-5.337
0.205,0.046,0.268,-5.337
0.209,0.044,0.262,-5.337
0.224,0.048,0.263,-5.337
0.191,0.051,0.267,-5.337
0.221,0.048,0.269,-5.337
0.195,0.047,0.270,-5.337
0.129,0.049,0.272,-5.337
0.156,0.048,0.271,-5.337
0.193,0.051,0.269,-5.337
0.201,0.050,0.270,-5.337
0.173,0.047,0.274,-5.337
0.155,0.046,0.277,-5.337
0.167,0.046,0.272,-5.337
0.137,0.048,0.268,-5.337
0.215,0.048,0.264,-5.337
0.256,0.049,0.262,-5.337
0.265,0.046,0.263,-5.337
0.253,0.046,0.268,-5.337
0.257,0.049,0.270,-5.337
0.335,0.049,0.272,-5.337
0.301,0.050,0.272,-5.337
0.215,0.048,0.271,-5.337
0.177,0.046,0.270,-5.337
0.202,0.049,0.270,-5.337
0.250,0.046,0.271,-5.337
0.244,0.046,0.271,-5.337
0.184,0.051,0.274,-5.337
0.205,0.053,0.273,-5.337
0.248,0.050,0.270,-5.337
0.268,0.049,0.269,-5.337
0.259,0.049,0.269,-5.337
0.230,0.052,0.266,-5.337
0.221,0.056,0.267,-5.337
0.200,0.056,0.267,-5.337
0.195,0.052,0.266,-5.337
0.191,0.051,0.269,-5.337
0.230,0.052,0.273,-5.337
0.225,0.051,0.272,-5.337
0.200,0.050,0.273,-5.337
0.171,0.052,0.269,-5.337
0.176,0.054,0.265,-5.337
0.207,0.054,0.265,-5.337
0.182,0.056,0.269,-5.337
0.215,0.054,0.270,-5.337
0.246,0.050,0.271,-5.337
0.207,0.055,0.267,-5.337
0.183,0.056,0.267,-5.337
0.239,0.050,0.271,-5.337
0.259,0.050,0.271,-5.337
0.202,0.051,0.267,-5.337
0.177,0.055,0.270,-5.337
0.208,0.055,0.273,-5.337
0.225,0.056,0.272,-5.337
0.208,0.057,0.271,-5.337
0.132,0.057,0.271,-5.337
0.152,0.052,0.272,-5.337
0.284,0.049,0.270,-5.337
0.235,0.051,0.269,-5.337
0.136,0.050,0.270,-5.337
0.122,0.050,0.269,-5.337
0.183,0.050,0.267,-5.337
0.221,0.051,0.266,-5.337
0.201,0.053,0.268,-5.337
0.267,0.053,0.270,-5.337
0.235,0.052,0.268,-5.337
0.190,0.055,0.268,-5.337
0.144,0.054,0.267,-5.337
0.163,0.055,0.269,-5.337
0.183,0.056,0.270,-5.337
0.131,0.058,0.269,-5.337
0.155,0.056,0.268,-5.337
0.196,0.057,0.267,-5.337
0.251,0.055,0.268,-5.337
0.253,0.054,0.272,-5.337
0.208,0.056,0.272,-5.337
0.200,0.058,0.270,-5.337
0.234,0.057,0.271,-5.337
0.269,0.054,0.272,-5.337
0.192,0.057,0.271,-5.337
0.203,0.058,0.272,-5.337
0.272,0.056,0.269,-5.337
0.258,0.059,0.267,-5.337
0.130,0.061,0.267,-5.337
0.169,0.055,0.266,-5.337
0.289,0.052,0.271,-5.337
0.257,0.053,0.273,-5.337
0.212,0.053,0.273,-5.337
0.258,0.057,0.270,-5.337
0.197,0.060,0.266,-5.337
0.207,0.055,0.266,-5.337
0.270,0.054,0.267,-5.337
0.214,0.056,0.268,-5.337
0.188,0.057,0.272,-5.337
0.228,0.054,0.273,-5.337
0.196,0.057,0.275,-5.337
0.199,0.055,0.276,-5.337
0.265,0.051,0.272,-5.337
0.283,0.053,0.269,-5.337
0.259,0.054,0.269,-5.337
0.261,0.054,0.268,-5.337
0.271,0.055,0.268,-5.337
0.232,0.059,0.269,-5.337
0.199,0.053,0.272,-5.337
0.176,0.052,0.274,-5.337
0.148,0.056,0.274,-5.337
0.208,0.054,0.272,-5.337
0.180,0.057,0.270,-5.337
0.154,0.058,0.272,-5.337
0.149,0.060,0.272,-5.337
0.101,0.060,0.271,-5.337
0.074,0.058,0.267,-5.337
0.093,0.060,0.266,-5.337
0.130,0.058,0.268,-5.337
0.206,0.056,0.271,-5.337
0.232,0.056,0.275,-5.337
0.212,0.055,0.276,-5.337
0.246,0.053,0.275,-5.337
0.256,0.053,0.272,-5.337
0.202,0.054,0.271,-5.337
0.190,0.058,0.273,-5.337
0.213,0.059,0.271,-5.337
0.155,0.062,0.270,-5.337
0.148,0.061,0.272,-5.337
0.252,0.057,0.273,-5.337
0.332,0.058,0.270,-5.337
0.267,0.062,0.268,-5.337
0.213,0.063,0.269,-5.337
0.232,0.059,0.273,-5.337
0.226,0.061,0.275,-5.337
0.123,0.059,0.272,-5.337
0.123,0.059,0.271,-5.337
0.241,0.057,0.269,-5.337
0.309,0.055,0.268,-5.337
0.265,0.058,0.271,-5.337
0.248,0.059,0.276,-5.337
0.241,0.054,0.276,-5.337
0.238,0.057,0.277,-5.337
0.238,0.058,0.275,-5.337
0.236,0.055,0.270,-5.337
0.214,0.054,0.268,-5.337
0.156,0.059,0.265,-5.337
0.086,0.062,0.261,-5.337
0.039,0.063,0.265,-5.337
0.085,0.059,0.271,-5.337
0.176,0.058,0.273,-5.337
0.196,0.061,0.272,-5.337
0.188,0.059,0.269,-5.337
0.201,0.056,0.269,-5.337
0.214,0.054,0.270,-5.337
0.238,0.051,0.271,-5.337
0.221,0.050,0.271,-5.337
0.209,0.051,0.273,-5.337
0.193,0.054,0.275,-5.337
0.157,0.061,0.273,-5.337
0.185,0.061,0.269,-5.337
0.226,0.056,0.268,-5.337
0.261,0.053,0.263,-5.337
0.206,0.054,0.264,-5.337
0.123,0.061,0.265,-5.337
0.136,0.061,0.267,-5.337
0.175,0.057,0.268,-5.337
0.180,0.059,0.269,-5.337
0.153,0.063,0.271,-5.337
0.202,0.062,0.272,-5.337
0.213,0.059,0.271,-5.337
0.249,0.056,0.268,-5.337
0.292,0.054,0.268,-5.337
0.294,0.059,0.274,-5.337
0.268,0.062,0.276,-5.337
0.199,0.065,0.272,-5.337
0.158,0.066,0.267,-5.337
0.208,0.063,0.266,-5.337
0.229,0.066,0.271,-5.337
0.183,0.063,0.274,-5.337
0.186,0.059,0.269,-5.337
0.163,0.059,0.267,-5.337
0.164,0.063,0.269,-5.337
0.221,0.065,0.269,-5.337
0.230,0.060,0.271,-5.337
0.200,0.057,0.275,-5.337
0.169,0.060,0.275,-5.337
0.177,0.056,0.270,-5.337
0.241,0.053,0.269,-5.337
0.287,0.054,0.269,-5.337
0.269,0.055,0.269,-5.337
0.203,0.056,0.270,-5.337
0.155,0.059,0.270,-5.337
0.117,0.056,0.270,-5.337
0.105,0.058,0.272,-5.337
0.140,0.058,0.268,-5.337
0.241,0.055,0.268,-5.337
0.252,0.054,0.268,-5.337
0.177,0.058,0.268,-5.337
0.155,0.056,0.271,-5.337
0.213,0.057,0.276,-5.337
0.221,0.054,0.276,-5.337
0.175,0.057,0.270,-5.337
0.185,0.058,0.265,-5.337
0.195,0.061,0.266,-5.337
0.181,0.061,0.271,-5.337
0.159,0.057,0.272,-5.337
0.189,0.056,0.271,-5.337
0.194,0.058,0.271,-5.337
0.162,0.054,0.271,-5.337
0.159,0.054,0.273,-5.337
0.233,0.052,0.273,-5.337
0.212,0.053,0.272,-5.337
0.212,0.053,0.275,-5.337
0.203,0.052,0.277,-5.337
0.219,0.052,0.273,-5.337
0.188,0.052,0.270,-5.337
0.148,0.053,0.271,-5.337
0.183,0.055,0.270,-5.337
0.218,0.056,0.267,-5.337
0.186,0.054,0.267,-5.337
0.156,0.052,0.272,-5.337
0.189,0.054,0.274,-5.337
0.219,0.056,0.271,-5.337
0.258,0.052,0.269,-5.337
0.242,0.051,0.271,-5.337
0.222,0.051,0.271,-5.337
0.221,0.051,0.270,-5.337
0.205,0.052,0.269,-5.337
0.188,0.055,0.271,-5.337
0.199,0.056,0.271,-5.337
0.252,0.053,0.270,-5.337
0.238,0.052,0.271,-5.337
0.120,0.055,0.269,-5.337
0.145,0.053,0.273,-5.337
0.153,0.054,0.274,-5.337
0.118,0.053,0.276,-5.337
0.173,0.052,0.276,-5.337
0.227,0.053,0.278,-5.337
0.254,0.047,0.273,-5.337
0.240,0.046,0.272,-5.337
0.189,0.052,0.275,-5.337
0.224,0.051,0.275,-5.337
0.219,0.046,0.269,-5.337
0.201,0.045,0.266,-5.337
0.131,0.047,0.268,-5.337
0.145,0.047,0.271,-5.337
0.217,0.045,0.270,-5.337
0.208,0.048,0.269,-5.337
0.173,0.046,0.265,-5.337
0.180,0.047,0.266,-5.337
0.169,0.049,0.268,-5.337
0.159,0.049,0.267,-5.337
0.172,0.048,0.269,-5.337
0.138,0.052,0.275,-5.337
0.158,0.050,0.278,-5.337
0.226,0.046,0.272,-5.337
0.216,0.046,0.272,-5.337
0.129,0.050,0.271,-5.337
0.111,0.052,0.271,-5.337
0.156,0.048,0.271,-5.337
0.277,0.043,0.271,-5.337
0.251,0.044,0.267,-5.337
0.235,0.047,0.267,-5.337
0.189,0.046,0.266,-5.337
0.203,0.044,0.263,-5.337
0.202,0.046,0.266,-5.337
0.179,0.048,0.272,-5.337
0.190,0.049,0.274,-5.337
0.203,0.047,0.273,-5.337
0.230,0.044,0.273,-5.337
0.198,0.045,0.269,-5.337
0.215,0.046,0.265,-5.337
0.238,0.045,0.266,-5.337
0.273,0.044,0.267,-5.337
0.237,0.044,0.269,-5.337
0.219,0.046,0.271,-5.337
0.206,0.050,0.270,-5.337
0.171,0.048,0.273,-5.337
0.151,0.044,0.274,-5.337
0.187,0.041,0.278,-5.337
0.142,0.044,0.273,-5.337
0.122,0.043,0.272,-5.337
0.154,0.042,0.269,-5.337
0.191,0.045,0.268,-5.337
0.208,0.043,0.270,-5.337
0.216,0.044,0.270,-5.337
0.173,0.041,0.269,-5.337
0.165,0.040,0.268,-5.337
0.205,0.040,0.268,-5.337
0.189,0.043,0.271,-5.337
0.176,0.043,0.274,-5.337
0.210,0.042,0.276,-5.337
0.212,0.042,0.271,-5.337
0.185,0.041,0.264,-5.337
0.224,0.037,0.259,-5.337
0.240,0.039,0.262,-5.337
0.226,0.038,0.268,-5.337
0.197,0.039,0.272,-5.337
0.165,0.041,0.270,-5.337
0.213,0.039,0.267,-5.337
0.227,0.036,0.263,-5.337
0.191,0.038,0.265,-5.337
0.193,0.041,0.267,-5.337
0.246,0.040,0.267,-5.337
0.288,0.038,0.270,-5.337
0.210,0.044,0.272,-5.337
0.162,0.044,0.275,-5.337
0.197,0.041,0.273,-5.337
0.242,0.042,0.274,-5.337
0.257,0.036,0.270,-5.337
0.217,0.036,0.266,-5.337
0.159,0.038,0.265,-5.337
0.117,0.043,0.269,-5.337
0.107,0.043,0.272,-5.337
0.156,0.042,0.273,-5.337
0.179,0.044,0.274,-5.337
0.156,0.044,0.272,-5.337
0.199,0.041,0.268,-5.337
0.232,0.042,0.265,-5.337
0.199,0.045,0.268,-5.337
0.180,0.045,0.271,-5.337
0.164,0.047,0.268,-5.337
0.144,0.045,0.266,-5.337
0.156,0.042,0.267,-5.337
0.201,0.043,0.270,-5.337
0.199,0.045,0.272,-5.337
0.166,0.041,0.273,-5.337
0.188,0.036,0.273,-5.337
0.229,0.038,0.270,-5.337
0.199,0.038,0.268,-5.337
0.165,0.040,0.270,-5.337
0.216,0.038,0.274,-5.337
0.251,0.038,0.270,-5.337
0.157,0.044,0.268,-5.337
0.169,0.043,0.267,-5.337
0.234,0.041,0.268,-5.337
0.206,0.042,0.268,-5.337
0.180,0.043,0.265,-5.337
0.203,0.041,0.265,-5.337
0.226,0.035,0.268,-5.337
0.242,0.037,0.270,-5.337
0.200,0.041,0.269,-5.337
0.178,0.043,0.268,-5.337
0.168,0.043,0.269,-5.337
0.181,0.041,0.270,-5.337
0.272,0.035,0.269,-5.337
0.305,0.036,0.270,-5.337
0.292,0.040,0.269,-5.337
0.201,0.040,0.268,-5.337
0.173,0.040,0.272,-5.337
0.221,0.041,0.275,-5.337
0.247,0.040,0.272,-5.337
0.212,0.042,0.272,-5.337
0.130,0.043,0.268,-5.337
0.114,0.043,0.267,-5.337
0.125,0.042,0.268,-5.337
0.184,0.040,0.269,-5.337
0.193,0.040,0.267,-5.337
0.173,0.041,0.270,-5.337
0.172,0.037,0.274,-5.337
0.208,0.035,0.276,-5.337
0.232,0.036,0.271,-5.337
0.203,0.039,0.268,-5.337
0.167,0.036,0.271,-5.337
0.190,0.035,0.273,-5.337
0.206,0.033,0.277,-5.337
0.184,0.037,0.278,-5.337
0.102,0.039,0.276,-5.337
0.093,0.040,0.273,-5.337
0.125,0.039,0.266,-5.337
0.134,0.040,0.263,-5.337
0.137,0.040,0.268,-5.337
0.165,0.038,0.273,-5.337
0.180,0.036,0.274,-5.337
0.187,0.034,0.274,-5.337
0.208,0.034,0.273,-5.337
0.199,0.038,0.269,-5.337
0.152,0.040,0.264,-5.337
0.128,0.042,0.262,-5.337
0.151,0.045,0.267,-5.337
0.197,0.041,0.272,-5.337
0.179,0.041,0.277,-5.337
0.228,0.039,0.276,-5.337
0.215,0.040,0.272,-5.337
0.201,0.036,0.271,-5.337
0.249,0.036,0.270,-5.337
0.224,0.037,0.269,-5.337
0.235,0.040,0.273,-5.337
0.242,0.038,0.276,-5.337
0.235,0.038,0.274,-5.337
0.207,0.038,0.274,-5.337
0.194,0.038,0.276,-5.337
0.185,0.036,0.274,-5.337
0.192,0.032,0.270,-5.337
0.186,0.032,0.269,-5.337
0.231,0.033,0.272,-5.337
0.160,0.039,0.274,-5.337
0.101,0.036,0.273,-5.337
0.164,0.030,0.270,-5.337
0.260,0.031,0.268,-5.337
0.330,0.031,0.271,-5.337
0.304,0.032,0.269,-5.337
0.264,0.030,0.269,-5.337
0.299,0.028,0.272,-5.337
0.285,0.030,0.273,-5.337
0.245,0.033,0.271,-5.337
0.196,0.037,0.269,-5.337
0.206,0.033,0.269,-5.337
0.209,0.032,0.267,-5.337
0.234,0.034,0.269,-5.337
0.267,0.035,0.273,-5.337
0.226,0.038,0.277,-5.337
0.155,0.039,0.281,-5.337
0.131,0.041,0.283,-5.337
0.182,0.036,0.280,-5.337
0.234,0.034,0.274,-5.337
0.186,0.035,0.272,-5.337
0.200,0.037,0.270,-5.337
0.257,0.033,0.268,-5.337
0.307,0.033,0.268,-5.337
0.251,0.036,0.270,-5.337
0.182,0.033,0.273,-5.337
0.207,0.033,0.273,-5.337
0.261,0.034,0.272,-5.337
0.186,0.037,0.269,-5.337
0.121,0.041,0.267,-5.337
0.183,0.041,0.265,-5.337
0.236,0.036,0.262,-5.337
0.273,0.037,0.264,-5.337
0.210,0.039,0.269,-5.337
0.171,0.037,0.274,-5.337
0.210,0.038,0.279,-5.337
0.188,0.038,0.279,-5.337
0.177,0.038,0.274,-5.337
0.180,0.039,0.273,-5.337
0.190,0.041,0.273,-5.337
0.225,0.039,0.270,-5.337
0.229,0.042,0.269,-5.337
0.156,0.042,0.271,-5.337
0.111,0.046,0.273,-5.337
0.150,0.044,0.272,-5.337
0.192,0.044,0.271,-5.337
0.161,0.043,0.270,-5.337
0.188,0.041,0.267,-5.337
0.226,0.038,0.267,-5.337
0.232,0.034,0.269,-5.337
0.231,0.034,0.271,-5.337
0.169,0.036,0.275,-5.337
0.157,0.035,0.278,-5.337
0.176,0.037,0.271,-5.337
0.209,0.038,0.267,-5.337
0.217,0.041,0.270,-5.337
0.223,0.041,0.272,-5.337
0.259,0.035,0.269,-5.337
0.268,0.035,0.266,-5.337
0.214,0.039,0.266,-5.337
0.179,0.041,0.269,-5.337
0.264,0.039,0.268,-5.337
0.252,0.041,0.269,-5.337
0.165,0.042,0.273,-5.337
0.176,0.038,0.275,-5.337
0.198,0.037,0.276,-5.337
0.172,0.042,0.276,-5.337
0.189,0.040,0.276,-5.337
0.220,0.037,0.275,-5.337
0.227,0.039,0.272,-5.337
0.200,0.040,0.271,-5.337
0.191,0.042,0.273,-5.337
0.221,0.039,0.274,-5.337
0.209,0.039,0.274,-5.337
0.152,0.041,0.272,-5.337
0.110,0.041,0.271,-5.337
0.149,0.042,0.271,-5.337
0.167,0.042,0.270,-5.337
0.195,0.041,0.265,-5.337
0.192,0.042,0.267,-5.337
0.206,0.042,0.270,-5.337
0.269,0.039,0.274,-5.337
0.286,0.044,0.274,-5.337
0.232,0.047,0.272,-5.337
0.167,0.045,0.271,-5.337
0.210,0.044,0.272,-5.337
0.266,0.044,0.276,-5.337
0.242,0.046,0.276,-5.337
0.212,0.042,0.276,-5.337
0.223,0.042,0.275,-5.337
0.246,0.042,0.273,-5.337
0.275,0.043,0.270,-5.337
0.197,0.045,0.270,-5.337
0.158,0.045,0.269,-5.337
0.205,0.040,0.271,-5.337
0.263,0.040,0.275,-5.337
0.237,0.039,0.273,-5.337
0.176,0.041,0.269,-5.337
0.220,0.046,0.270,-5.337
0.243,0.047,0.272,-5.337
0.233,0.044,0.276,-5.337
0.276,0.041,0.275,-5.337
0.235,0.043,0.274,-5.337
0.187,0.043,0.270,-5.337
0.209,0.044,0.270,-5.337
0.226,0.041,0.271,-5.337
0.239,0.038,0.272,-5.337
0.248,0.037,0.273,-5.337
0.234,0.041,0.276,-5.337
0.206,0.042,0.279,-5.337
0.200,0.045,0.277,-5.337
0.174,0.045,0.270,-5.337
0.184,0.044,0.269,-5.337
0.184,0.043,0.270,-5.337
0.168,0.047,0.273,-5.337
0.188,0.043,0.274,-5.337
0.266,0.042,0.277,-5.337
0.281,0.043,0.275,-5.337
0.251,0.046,0.269,-5.337
0.219,0.044,0.269,-5.337
0.239,0.042,0.270,-5.337
0.198,0.045,0.272,-5.337
0.200,0.048,0.275,-5.337
0.211,0.053,0.274,-5.337
0.201,0.052,0.266,-5.337
0.186,0.050,0.265,-5.337
0.185,0.051,0.264,-5.337
0.115,0.052,0.271,-5.337
0.192,0.047,0.274,-5.337
0.277,0.045,0.272,-5.337
0.261,0.044,0.271,-5.337
0.230,0.045,0.272,-5.337
0.191,0.042,0.276,-5.337
0.186,0.045,0.275,-5.337
0.240,0.044,0.271,-5.337
0.258,0.046,0.267,-5.337
0.209,0.048,0.268,-5.337
0.186,0.047,0.269,-5.337
0.216,0.045,0.275,-5.337
0.205,0.045,0.279,-5.337
0.186,0.048,0.275,-5.337
0.184,0.050,0.270,-5.337
0.226,0.049,0.269,-5.337
0.201,0.049,0.270,-5.337
0.218,0.049,0.272,-5.337
0.196,0.053,0.270,-5.337
0.150,0.052,0.270,-5.337
0.136,0.050,0.268,-5.337
0.176,0.052,0.271,-5.337
0.224,0.050,0.269,-5.337
0.239,0.049,0.269,-5.337
0.224,0.048,0.270,-5.337
0.207,0.052,0.271,-5.337
0.227,0.053,0.270,-5.337
0.250,0.054,0.274,-5.337
0.269,0.052,0.274,-5.337
0.239,0.056,0.272,-5.337
0.189,0.057,0.267,-5.337
0.150,0.057,0.265,-5.337
0.165,0.053,0.267,-5.337
0.172,0.054,0.272,-5.337
0.170,0.052,0.271,-5.337
0.244,0.050,0.267,-5.337
0.276,0.052,0.268,-5.337
0.194,0.054,0.272,-5.337
0.170,0.054,0.274,-5.337
0.232,0.053,0.274,-5.337
0.266,0.047,0.271,-5.337
0.254,0.048,0.271,-5.337
0.224,0.047,0.272,-5.337
0.165,0.053,0.271,-5.337
0.123,0.056,0.274,-5.337
0.196,0.052,0.276,-5.337
0.221,0.050,0.274,-5.337
0.231,0.050,0.270,-5.337
0.263,0.048,0.270,-5.337
0.274,0.052,0.268,-5.337
0.258,0.052,0.272,-5.337
0.280,0.050,0.272,-5.337
0.254,0.051,0.274,-5.337
0.231,0.049,0.274,-5.337
0.223,0.049,0.270,-5.337
0.214,0.051,0.264,-5.337
0.214,0.051,0.263,-5.337
0.269,0.050,0.267,-5.337
0.335,0.050,0.271,-5.337
0.307,0.050,0.272,-5.337
0.234,0.051,0.268,-5.337
0.217,0.053,0.267,-5.337
0.208,0.051,0.271,-5.337
0.141,0.052,0.274,-5.337
0.119,0.050,0.274,-5.337
0.223,0.048,0.274,-5.337
0.236,0.051,0.272,-5.337
0.218,0.049,0.271,-5.337
0.249,0.048,0.268,-5.337
0.210,0.049,0.266,-5.337
0.142,0.049,0.267,-5.337
0.158,0.052,0.274,-5.337
0.129,0.058,0.276,-5.337
0.203,0.054,0.275,-5.337
0.202,0.053,0.271,-5.337
0.155,0.052,0.270,-5.337
0.143,0.052,0.269,-5.337
0.164,0.053,0.272,-5.337
0.180,0.051,0.274,-5.337
0.175,0.051,0.276,-5.337
0.200,0.048,0.272,-5.337
0.269,0.048,0.269,-5.337
0.261,0.050,0.269,-5.337
0.257,0.052,0.269,-5.337
0.219,0.051,0.270,-5.337
0.216,0.049,0.269,-5.337
0.239,0.047,0.269,-5.337
0.221,0.046,0.273,-5.337
0.264,0.047,0.274,-5.337
0.228,0.053,0.272,-5.337
0.146,0.056,0.270,-5.337
0.128,0.054,0.265,-5.337
0.190,0.053,0.267,-5.337
0.290,0.051,0.272,-5.337
0.296,0.053,0.272,-5.337
0.275,0.052,0.265,-5.337
0.233,0.053,0.266,-5.337
0.199,0.054,0.267,-5.337
0.200,0.057,0.272,-5.337
0.176,0.056,0.273,-5.337
0.154,0.054,0.273,-5.337
0.196,0.051,0.273,-5.337
0.251,0.052,0.271,-5.337
0.295,0.049,0.269,-5.337
0.241,0.051,0.268,-5.337
0.140,0.052,0.270,-5.337
0.172,0.053,0.273,-5.337
0.161,0.052,0.272,-5.337
0.149,0.050,0.274,-5.337
0.169,0.050,0.274,-5.337
0.229,0.053,0.268,-5.337
0.250,0.053,0.264,-5.337
0.240,0.047,0.265,-5.337
0.195,0.048,0.272,-5.337
0.189,0.051,0.273,-5.337
0.287,0.052,0.272,-5.337
0.266,0.051,0.273,-5.337
0.187,0.048,0.274,-5.337
0.191,0.051,0.272,-5.337
0.225,0.050,0.271,-5.337
0.198,0.053,0.271,-5.337
0.135,0.058,0.271,-5.337
0.137,0.058,0.271,-5.337
0.240,0.057,0.271,-5.337
0.253,0.057,0.271,-5.337
0.203,0.055,0.273,-5.337
0.068,0.054,0.275,-5.337
0.132,0.047,0.272,-5.337
0.243,0.042,0.269,-5.337
0.250,0.045,0.269,-5.337
0.255,0.049,0.271,-5.337
0.204,0.053,0.270,-5.337
0.146,0.053,0.273,-5.337
0.162,0.047,0.274,-5.337
0.177,0.048,0.270,-5.337
0.157,0.052,0.270,-5.337
0.278,0.049,0.273,-5.337
0.301,0.050,0.278,-5.337
0.205,0.052,0.279,-5.337
0.147,0.054,0.275,-5.337
0.185,0.049,0.272,-5.337
0.203,0.049,0.268,-5.337
0.151,0.051,0.271,-5.337
0.165,0.051,0.272,-5.337
0.214,0.052,0.270,-5.337
0.253,0.051,0.267,-5.337
0.192,0.054,0.268,-5.337
0.162,0.057,0.270,-5.337
0.178,0.063,0.268,-5.337
0.121,0.059,0.268,-5.337
0.133,0.055,0.272,-5.337
0.135,0.055,0.275,-5.337
0.197,0.056,0.271,-5.337
0.219,0.055,0.268,-5.337
0.258,0.052,0.269,-5.337
0.320,0.047,0.270,-5.337
0.270,0.050,0.270,-5.337
0.184,0.051,0.269,-5.337
0.235,0.049,0.270,-5.337
0.252,0.052,0.277,-5.337
0.187,0.054,0.276,-5.337
0.159,0.056,0.272,-5.337
0.173,0.054,0.272,-5.337
0.221,0.053,0.273,-5.337
0.250,0.054,0.273,-5.337
0.250,0.056,0.273,-5.337
0.258,0.056,0.277,-5.337
0.257,0.053,0.276,-5.337
0.208,0.051,0.271,-5.337
0.193,0.050,0.269,-5.337
0.173,0.054,0.263,-5.337
0.202,0.055,0.262,-5.337
0.156,0.059,0.268,-5.337
0.110,0.063,0.279,-5.337
0.138,0.055,0.282,-5.337
0.187,0.054,0.279,-5.337
0.187,0.054,0.274,-5.337
0.192,0.052,0.273,-5.337
0.250,0.051,0.272,-5.337
0.186,0.055,0.269,-5.337
0.106,0.058,0.265,-5.337
0.168,0.056,0.265,-5.337
0.173,0.055,0.268,-5.337
0.187,0.053,0.270,-5.337
0.176,0.051,0.272,-5.337
0.173,0.049,0.275,-5.337
0.210,0.050,0.273,-5.337
0.277,0.047,0.268,-5.337
0.275,0.049,0.266,-5.337
0.204,0.051,0.264,-5.337
0.209,0.047,0.264,-5.337
0.212,0.046,0.264,-5.337
0.262,0.046,0.270,-5.337
0.232,0.047,0.273,-5.337
0.173,0.051,0.276,-5.337
0.162,0.051,0.272,-5.337
0.203,0.050,0.272,-5.337
0.192,0.049,0.273,-5.337
0.114,0.050,0.274,-5.337
0.134,0.050,0.274,-5.337
0.222,0.048,0.274,-5.337
0.250,0.046,0.273,-5.337
0.221,0.046,0.271,-5.337
0.218,0.046,0.269,-5.337
0.165,0.049,0.273,-5.337
0.114,0.049,0.273,-5.337
0.113,0.048,0.273,-5.337
0.146,0.046,0.269,-5.337
0.228,0.046,0.269,-5.337
0.238,0.048,0.270,-5.337
0.214,0.049,0.270,-5.337
0.180,0.050,0.272,-5.337
0.142,0.047,0.274,-5.337
0.162,0.047,0.275,-5.337
0.147,0.048,0.274,-5.337
0.157,0.045,0.272,-5.337
0.155,0.044,0.271,-5.337
0.110,0.046,0.274,-5.337
0.089,0.047,0.274,-5.337
0.144,0.047,0.273,-5.337
0.210,0.045,0.270,-5.337
0.219,0.046,0.271,-5.337
0.215,0.047,0.271,-5.337
0.192,0.047,0.272,-5.337
0.183,0.046,0.273,-5.337
0.152,0.047,0.275,-5.337
0.195,0.045,0.274,-5.337
0.210,0.047,0.273,-5.337
0.191,0.049,0.275,-5.337
0.214,0.049,0.274,-5.337
0.191,0.050,0.271,-5.337
0.154,0.050,0.273,-5.337
0.154,0.048,0.273,-5.337
0.207,0.047,0.273,-5.337
0.252,0.044,0.268,-5.337
0.193,0.046,0.266,-5.337
0.161,0.046,0.270,-5.337
0.208,0.047,0.271,-5.337
0.228,0.045,0.268,-5.337
0.189,0.045,0.270,-5.337
0.138,0.045,0.277,-5.337
0.148,0.044,0.278,-5.337
0.249,0.039,0.272,-5.337
0.251,0.039,0.270,-5.337
0.191,0.038,0.273,-5.337
0.172,0.039,0.273,-5.337
0.201,0.043,0.271,-5.337
0.215,0.043,0.270,-5.337
0.245,0.042,0.270,-5.337
0.270,0.042,0.271,-5.337
0.260,0.041,0.275,-5.337
0.198,0.041,0.277,-5.337
0.154,0.040,0.276,-5.337
0.193,0.039,0.273,-5.337
0.234,0.037,0.273,-5.337
0.210,0.039,0.272,-5.337
0.131,0.044,0.269,-5.337
0.149,0.044,0.268,-5.337
0.200,0.046,0.271,-5.337
0.192,0.040,0.269,-5.337
0.243,0.035,0.267,-5.337
0.295,0.034,0.268,-5.337
0.255,0.039,0.271,-5.337
0.186,0.040,0.271,-5.337
0.214,0.037,0.267,-5.337
0.203,0.036,0.269,-5.337
0.160,0.036,0.269,-5.337
0.202,0.038,0.270,-5.337
0.182,0.037,0.273,-5.337
0.134,0.035,0.279,-5.337
0.171,0.032,0.279,-5.337
0.172,0.037,0.275,-5.337
0.136,0.038,0.268,-5.337
0.069,0.043,0.266,-5.337
0.106,0.041,0.269,-5.337
0.214,0.038,0.271,-5.337
0.227,0.037,0.267,-5.337
0.180,0.039,0.268,-5.337
0.172,0.038,0.270,-5.337
0.194,0.041,0.272,-5.337
0.206,0.040,0.273,-5.337
0.244,0.042,0.274,-5.337
0.198,0.044,0.274,-5.337
0.190,0.043,0.270,-5.337
0.224,0.040,0.267,-5.337
0.216,0.039,0.262,-5.337
0.263,0.037,0.263,-5.337
0.247,0.038,0.266,-5.337
0.205,0.038,0.267,-5.337
0.223,0.038,0.270,-5.337
0.181,0.038,0.275,-5.337
0.188,0.033,0.274,-5.337
0.228,0.033,0.270,-5.337
0.220,0.032,0.267,-5.337
0.162,0.039,0.267,-5.337
0.157,0.039,0.269,-5.337
0.297,0.038,0.269,-5.337
0.363,0.035,0.267,-5.337
0.323,0.036,0.267,-5.337
0.243,0.034,0.271,-5.337
0.223,0.036,0.276,-5.337
0.222,0.040,0.274,-5.337
0.194,0.040,0.269,-5.337
0.181,0.041,0.267,-5.337
0.230,0.040,0.266,-5.337
0.220,0.039,0.269,-5.337
0.179,0.038,0.270,-5.337
0.177,0.038,0.274,-5.337
0.164,0.040,0.273,-5.337
0.153,0.042,0.272,-5.337
0.173,0.042,0.269,-5.337
0.178,0.041,0.266,-5.337
0.151,0.042,0.264,-5.337
0.182,0.037,0.267,-5.337
0.221,0.036,0.269,-5.337
0.227,0.037,0.275,-5.337
0.184,0.040,0.272,-5.337
0.140,0.039,0.268,-5.337
0.192,0.034,0.271,-5.337
0.269,0.034,0.274,-5.337
0.173,0.040,0.274,-5.337
0.159,0.041,0.276,-5.337
0.279,0.034,0.274,-5.337
0.253,0.034,0.271,-5.337
0.179,0.037,0.270,-5.337
0.177,0.038,0.270,-5.337
0.259,0.033,0.272,-5.337
0.259,0.033,0.272,-5.337
0.156,0.036,0.270,-5.337
0.152,0.035,0.268,-5.337
0.198,0.035,0.271,-5.337
0.247,0.036,0.274,-5.337
0.235,0.035,0.275,-5.337
0.180,0.035,0.273,-5.337
0.173,0.035,0.268,-5.337
0.224,0.033,0.267,-5.337
0.214,0.039,0.274,-5.337
0.198,0.041,0.275,-5.337
0.156,0.041,0.269,-5.337
0.113,0.042,0.263,-5.337
0.124,0.038,0.264,-5.337
0.172,0.037,0.265,-5.337
0.139,0.040,0.271,-5.337
0.159,0.040,0.275,-5.337
0.187,0.043,0.278,-5.337
0.169,0.039,0.277,-5.337
0.173,0.039,0.274,-5.337
0.192,0.038,0.268,-5.337
0.187,0.040,0.266,-5.337
0.180,0.036,0.265,-5.337
0.180,0.034,0.265,-5.337
0.232,0.033,0.265,-5.337
0.251,0.032,0.266,-5.337
0.198,0.032,0.268,-5.337
0.172,0.035,0.269,-5.337
0.154,0.038,0.270,-5.337
0.194,0.041,0.270,-5.337
0.178,0.040,0.273,-5.337
0.171,0.039,0.275,-5.337
0.204,0.036,0.272,-5.337
0.226,0.036,0.271,-5.337
0.192,0.035,0.275,-5.337
0.207,0.034,0.274,-5.337
0.238,0.032,0.271,-5.337
0.241,0.033,0.271,-5.337
0.182,0.036,0.273,-5.337
0.140,0.036,0.268,-5.337
0.131,0.036,0.265,-5.337
0.180,0.035,0.267,-5.337
0.241,0.036,0.273,-5.337
0.266,0.038,0.278,-5.337
0.228,0.043,0.277,-5.337
0.203,0.038,0.271,-5.337
0.171,0.036,0.270,-5.337
0.197,0.038,0.269,-5.337
0.202,0.039,0.270,-5.337
0.210,0.038,0.270,-5.337
0.223,0.038,0.272,-5.337
0.136,0.043,0.274,-5.337
0.146,0.044,0.272,-5.337
0.194,0.039,0.272,-5.337
0.211,0.035,0.274,-5.337
0.211,0.036,0.274,-5.337
0.182,0.036,0.271,-5.337
0.176,0.038,0.274,-5.337
0.202,0.040,0.274,-5.337
0.229,0.038,0.270,-5.337
0.303,0.034,0.266,-5.337
0.282,0.035,0.267,-5.337
0.205,0.032,0.270,-5.337
0.169,0.035,0.274,-5.337
0.163,0.032,0.271,-5.337
0.196,0.034,0.269,-5.337
0.135,0.037,0.273,-5.337
0.135,0.039,0.276,-5.337
0.202,0.036,0.275,-5.337
0.245,0.032,0.275,-5.337
0.235,0.032,0.273,-5.337
0.196,0.038,0.272,-5.337
0.205,0.039,0.271,-5.337
0.188,0.038,0.271,-5.337
0.175,0.034,0.269,-5.337
0.182,0.032,0.270,-5.337
0.237,0.033,0.271,-5.337
0.227,0.037,0.271,-5.337
0.213,0.036,0.273,-5.337
0.270,0.032,0.273,-5.337
0.251,0.032,0.275,-5.337
0.157,0.033,0.273,-5.337
0.169,0.036,0.275,-5.337
0.195,0.036,0.277,-5.337
0.145,0.038,0.274,-5.337
0.175,0.036,0.271,-5.337
0.239,0.036,0.271,-5.337
0.238,0.036,0.269,-5.337
0.251,0.037,0.268,-5.337
0.255,0.038,0.270,-5.337
0.228,0.039,0.273,-5.337
0.165,0.045,0.271,-5.337
0.113,0.044,0.272,-5.337
0.177,0.038,0.275,-5.337
0.211,0.036,0.276,-5.337
0.196,0.038,0.275,-5.337
0.182,0.042,0.270,-5.337
0.144,0.041,0.268,-5.337
0.196,0.036,0.269,-5.337
0.206,0.037,0.273,-5.337
0.156,0.038,0.271,-5.337
0.146,0.034,0.275,-5.337
0.264,0.032,0.276,-5.337
0.208,0.034,0.274,-5.337
0.168,0.039,0.273,-5.337
0.222,0.038,0.275,-5.337
0.224,0.036,0.269,-5.337
0.169,0.038,0.266,-5.337
0.179,0.040,0.267,-5.337
0.170,0.045,0.271,-5.337
0.174,0.044,0.274,-5.337
0.190,0.042,0.276,-5.337
0.205,0.037,0.278,-5.337
0.250,0.039,0.274,-5.337
0.279,0.037,0.268,-5.337
0.315,0.036,0.269,-5.337
0.290,0.042,0.274,-5.337
0.175,0.046,0.277,-5.337
0.142,0.045,0.280,-5.337
0.183,0.043,0.279,-5.337
0.198,0.045,0.277,-5.337
0.216,0.044,0.274,-5.337
0.246,0.041,0.269,-5.337
0.245,0.039,0.267,-5.337
0.242,0.037,0.268,-5.337
0.203,0.039,0.269,-5.337
0.134,0.041,0.273,-5.337
0.176,0.038,0.271,-5.337
0.252,0.037,0.272,-5.337
0.217,0.040,0.273,-5.337
0.232,0.042,0.278,-5.337
0.204,0.041,0.277,-5.337
0.239,0.039,0.272,-5.337
0.230,0.038,0.269,-5.337
0.251,0.042,0.269,-5.337
0.225,0.046,0.272,-5.337
0.186,0.043,0.272,-5.337
0.191,0.039,0.270,-5.337
0.161,0.043,0.274,-5.337
0.208,0.045,0.272,-5.337
0.232,0.044,0.266,-5.337
0.193,0.042,0.263,-5.337
0.131,0.043,0.269,-5.337
0.096,0.046,0.272,-5.337
0.174,0.048,0.271,-5.337
0.290,0.043,0.272,-5.337
0.320,0.042,0.270,-5.337
0.256,0.040,0.269,-5.337
0.238,0.040,0.270,-5.337
0.269,0.039,0.274,-5.337
0.330,0.039,0.277,-5.337
0.307,0.037,0.279,-5.337
0.179,0.038,0.274,-5.337
0.172,0.037,0.271,-5.337
0.243,0.038,0.270,-5.337
0.185,0.039,0.275,-5.337
0.137,0.042,0.277,-5.337
0.185,0.044,0.275,-5.337
0.246,0.044,0.268,-5.337
0.229,0.043,0.267,-5.337
0.235,0.042,0.272,-5.337
0.305,0.043,0.274,-5.337
0.267,0.044,0.275,-5.337
0.191,0.044,0.276,-5.337
0.206,0.044,0.273,-5.337
0.208,0.043,0.269,-5.337
0.176,0.045,0.271,-5.337
0.178,0.044,0.276,-5.337
0.247,0.043,0.276,-5.337
0.280,0.043,0.272,-5.337
0.175,0.045,0.271,-5.337
0.085,0.048,0.274,-5.337
0.074,0.051,0.276,-5.337
0.120,0.051,0.275,-5.337
0.203,0.046,0.276,-5.337
0.186,0.048,0.273,-5.337
0.156,0.055,0.274,-5.337
0.207,0.053,0.272,-5.337
0.224,0.050,0.268,-5.337
0.170,0.048,0.265,-5.337
0.180,0.047,0.271,-5.337
0.234,0.049,0.274,-5.337
0.259,0.047,0.273,-5.337
0.234,0.045,0.269,-5.337
0.226,0.048,0.269,-5.337
0.233,0.049,0.271,-5.337
0.260,0.046,0.272,-5.337
0.233,0.046,0.274,-5.337
0.190,0.047,0.275,-5.337
0.176,0.047,0.279,-5.337
0.185,0.050,0.280,-5.337
0.207,0.049,0.273,-5.337
0.254,0.048,0.270,-5.337
0.270,0.050,0.272,-5.337
0.233,0.050,0.275,-5.337
0.269,0.048,0.275,-5.337
0.277,0.054,0.270,-5.337
0.255,0.056,0.270,-5.337
0.203,0.055,0.269,-5.337
0.199,0.054,0.273,-5.337
0.220,0.054,0.271,-5.337
0.190,0.053,0.271,-5.337
0.176,0.051,0.267,-5.337
0.167,0.053,0.267,-5.337
0.150,0.054,0.270,-5.337
0.172,0.059,0.276,-5.337
0.203,0.056,0.276,-5.337
0.257,0.054,0.274,-5.337
0.190,0.055,0.271,-5.337
0.159,0.049,0.273,-5.337
0.185,0.049,0.275,-5.337
0.231,0.053,0.275,-5.337
0.241,0.050,0.270,-5.337
0.170,0.050,0.267,-5.337
0.175,0.049,0.270,-5.337
0.200,0.052,0.272,-5.337
0.203,0.051,0.271,-5.337
0.189,0.052,0.268,-5.337
0.220,0.053,0.270,-5.337
0.227,0.054,0.272,-5.337
0.203,0.054,0.270,-5.337
0.182,0.054,0.267,-5.337
0.145,0.052,0.268,-5.337
0.166,0.050,0.267,-5.337
0.195,0.052,0.268,-5.337
0.229,0.054,0.270,-5.337
0.200,0.053,0.275,-5.337
0.177,0.049,0.275,-5.337
0.183,0.049,0.273,-5.337
0.170,0.048,0.272,-5.337
0.175,0.055,0.270,-5.337
0.188,0.053,0.270,-5.337
0.192,0.053,0.272,-5.337
0.179,0.054,0.276,-5.337
0.163,0.055,0.278,-5.337
0.182,0.054,0.275,-5.337
0.185,0.050,0.272,-5.337
0.253,0.051,0.272,-5.337
0.223,0.052,0.270,-5.337
0.176,0.058,0.267,-5.337
0.155,0.058,0.265,-5.337
0.158,0.054,0.268,-5.337
0.173,0.054,0.275,-5.337
0.173,0.057,0.276,-5.337
0.251,0.055,0.273,-5.337
0.237,0.056,0.271,-5.337
0.201,0.055,0.269,-5.337
0.206,0.057,0.267,-5.337
0.259,0.057,0.268,-5.337
0.236,0.059,0.271,-5.337
0.210,0.055,0.273,-5.337
0.233,0.053,0.272,-5.337
0.232,0.052,0.270,-5.337
0.186,0.056,0.270,-5.337
0.183,0.053,0.271,-5.337
0.230,0.054,0.272,-5.337
0.234,0.052,0.271,-5.337
0.242,0.051,0.273,-5.337
0.263,0.053,0.275,-5.337
0.300,0.054,0.275,-5.337
0.265,0.055,0.274,-5.337
0.230,0.056,0.276,-5.337
0.226,0.053,0.271,-5.337
0.246,0.050,0.267,-5.337
0.211,0.054,0.269,-5.337
0.152,0.058,0.274,-5.337
0.224,0.055,0.273,-5.337
0.267,0.053,0.269,-5.337
0.238,0.056,0.271,-5.337
0.247,0.055,0.271,-5.337
0.227,0.056,0.270,-5.337
0.144,0.060,0.272,-5.337
0.135,0.060,0.272,-5.337
0.188,0.058,0.270,-5.337
0.215,0.060,0.273,-5.337
0.176,0.062,0.273,-5.337
0.143,0.060,0.269,-5.337
0.172,0.058,0.269,-5.337
0.223,0.054,0.273,-5.337
0.227,0.053,0.274,-5.337
0.186,0.055,0.274,-5.337
0.148,0.054,0.277,-5.337
0.173,0.055,0.274,-5.337
0.200,0.054,0.271,-5.337
0.169,0.056,0.270,-5.337
0.138,0.056,0.272,-5.337
0.157,0.053,0.275,-5.337
0.227,0.051,0.274,-5.337
0.232,0.055,0.270,-5.337
0.208,0.055,0.267,-5.337
0.155,0.055,0.269,-5.337
0.136,0.056,0.270,-5.337
0.185,0.057,0.270,-5.337
0.204,0.057,0.269,-5.337
0.164,0.060,0.267,-5.337
0.138,0.056,0.267,-5.337
0.194,0.056,0.270,-5.337
0.224,0.057,0.271,-5.337
0.209,0.058,0.269,-5.337
0.225,0.059,0.269,-5.337
0.262,0.057,0.264,-5.337
0.201,0.058,0.268,-5.337
0.160,0.056,0.272,-5.337
0.205,0.054,0.273,-5.337
0.189,0.050,0.274,-5.337
0.190,0.053,0.276,-5.337
0.190,0.055,0.271,-5.337
0.194,0.058,0.266,-5.337
0.183,0.057,0.271,-5.337
0.189,0.054,0.275,-5.337
0.185,0.055,0.272,-5.337
0.168,0.058,0.270,-5.337
0.165,0.059,0.273,-5.337
0.095,0.062,0.276,-5.337
0.076,0.060,0.276,-5.337
0.161,0.056,0.274,-5.337
0.215,0.053,0.274,-5.337
0.234,0.054,0.271,-5.337
0.256,0.056,0.270,-5.337
0.251,0.054,0.269,-5.337
0.185,0.053,0.270,-5.337
0.144,0.053,0.275,-5.337
0.173,0.054,0.276,-5.337
0.218,0.055,0.271,-5.337
0.155,0.056,0.268,-5.337
0.103,0.057,0.268,-5.337
0.139,0.057,0.273,-5.337
0.165,0.054,0.273,-5.337
0.208,0.052,0.272,-5.337
0.234,0.053,0.270,-5.337
0.199,0.058,0.269,-5.337
0.126,0.058,0.270,-5.337
0.114,0.059,0.274,-5.337
0.168,0.054,0.275,-5.337
0.223,0.055,0.276,-5.337
0.238,0.056,0.274,-5.337
0.266,0.055,0.271,-5.337
0.219,0.055,0.271,-5.337
0.189,0.054,0.273,-5.337
0.216,0.054,0.273,-5.337
0.273,0.052,0.270,-5.337
0.289,0.052,0.269,-5.337
0.226,0.053,0.271,-5.337
0.190,0.054,0.271,-5.337
0.244,0.052,0.273,-5.337
0.244,0.051,0.276,-5.337
0.156,0.055,0.277,-5.337
0.108,0.055,0.276,-5.337
0.210,0.050,0.274,-5.337
0.255,0.049,0.275,-5.337
0.266,0.047,0.272,-5.337
0.298,0.049,0.273,-5.337
0.253,0.051,0.272,-5.337
0.175,0.054,0.273,-5.337
0.124,0.051,0.275,-5.337
0.183,0.047,0.278,-5.337
0.218,0.048,0.277,-5.337
0.194,0.049,0.274,-5.337
0.177,0.045,0.271,-5.337
0.236,0.044,0.268,-5.337
0.197,0.052,0.267,-5.337
0.120,0.054,0.270,-5.337
0.165,0.051,0.275,-5.337
0.161,0.052,0.275,-5.337
0.120,0.051,0.273,-5.337
0.141,0.049,0.269,-5.337
0.231,0.047,0.270,-5.337
0.266,0.046,0.270,-5.337
0.266,0.042,0.271,-5.337
0.184,0.046,0.267,-5.337
0.197,0.046,0.270,-5.337
0.220,0.052,0.274,-5.337
0.133,0.054,0.277,-5.337
0.103,0.049,0.277,-5.337
0.147,0.047,0.275,-5.337
0.254,0.045,0.273,-5.337
0.230,0.049,0.271,-5.337
0.184,0.046,0.269,-5.337
0.255,0.043,0.272,-5.337
0.225,0.042,0.276,-5.337
0.205,0.042,0.278,-5.337
0.241,0.043,0.278,-5.337
0.248,0.045,0.277,-5.337
0.223,0.043,0.275,-5.337
0.179,0.044,0.273,-5.337
0.180,0.043,0.271,-5.337
0.169,0.043,0.273,-5.337
0.194,0.041,0.275,-5.337
0.253,0.041,0.272,-5.337
0.222,0.043,0.272,-5.337
0.178,0.045,0.274,-5.337
0.216,0.042,0.276,-5.337
0.225,0.040,0.275,-5.337
0.188,0.041,0.276,-5.337
0.142,0.042,0.274,-5.337
0.158,0.045,0.275,-5.337
0.176,0.046,0.272,-5.337
0.194,0.047,0.269,-5.337
0.203,0.044,0.273,-5.337
0.193,0.047,0.275,-5.337
0.137,0.048,0.274,-5.337
0.090,0.047,0.272,-5.337
0.153,0.045,0.270,-5.337
0.213,0.044,0.267,-5.337
0.195,0.045,0.268,-5.337
0.235,0.041,0.269,-5.337
0.234,0.041,0.273,-5.337
0.177,0.043,0.278,-5.337
0.160,0.042,0.275,-5.337
0.095,0.047,0.275,-5.337
0.119,0.049,0.276,-5.337
0.217,0.047,0.276,-5.337
0.254,0.043,0.274,-5.337
0.242,0.043,0.271,-5.337
0.192,0.044,0.273,-5.337
0.199,0.042,0.273,-5.337
0.216,0.042,0.270,-5.337
0.194,0.044,0.273,-5.337
0.183,0.039,0.279,-5.337
0.166,0.039,0.278,-5.337
0.134,0.041,0.275,-5.337
0.099,0.039,0.272,-5.337
0.109,0.041,0.273,-5.337
0.149,0.039,0.276,-5.337
0.194,0.038,0.274,-5.337
0.234,0.038,0.271,-5.337
0.246,0.041,0.273,-5.337
0.209,0.042,0.274,-5.337
0.179,0.043,0.273,-5.337
0.163,0.041,0.273,-5.337
0.191,0.038,0.275,-5.337
0.148,0.038,0.273,-5.337
0.121,0.039,0.270,-5.337
0.165,0.037,0.271,-5.337
0.261,0.035,0.275,-5.337
0.276,0.034,0.274,-5.337
0.204,0.037,0.270,-5.337
0.158,0.040,0.273,-5.337
0.212,0.036,0.276,-5.337
0.242,0.032,0.278,-5.337
0.172,0.038,0.278,-5.337
0.168,0.036,0.277,-5.337
0.209,0.035,0.274,-5.337
0.245,0.032,0.275,-5.337
0.330,0.034,0.272,-5.337
0.334,0.039,0.269,-5.337
0.265,0.042,0.268,-5.337
0.191,0.042,0.271,-5.337
0.161,0.039,0.270,-5.337
0.182,0.041,0.269,-5.337
0.168,0.035,0.272,-5.337
0.202,0.033,0.273,-5.337
0.130,0.035,0.273,-5.337
0.096,0.038,0.276,-5.337
0.168,0.037,0.279,-5.337
0.210,0.037,0.278,-5.337
0.136,0.042,0.276,-5.337
0.113,0.044,0.271,-5.337
0.175,0.041,0.271,-5.337
0.245,0.041,0.272,-5.337
0.252,0.042,0.273,-5.337
0.240,0.042,0.270,-5.337
0.299,0.040,0.267,-5.337
0.292,0.037,0.270,-5.337
0.250,0.037,0.278,-5.337
0.296,0.038,0.279,-5.337
0.317,0.038,0.278,-5.337
0.260,0.038,0.274,-5.337
0.297,0.034,0.270,-5.337
0.334,0.034,0.267,-5.337
0.303,0.040,0.270,-5.337
0.292,0.042,0.272,-5.337
0.195,0.042,0.276,-5.337
0.150,0.040,0.277,-5.337
0.235,0.037,0.278,-5.337
0.269,0.036,0.276,-5.337
0.185,0.042,0.270,-5.337
0.144,0.042,0.270,-5.337
0.103,0.042,0.276,-5.337
0.108,0.042,0.275,-5.337
0.153,0.040,0.274,-5.337
0.218,0.038,0.275,-5.337
0.216,0.038,0.274,-5.337
0.222,0.035,0.273,-5.337
0.269,0.035,0.272,-5.337
0.238,0.038,0.274,-5.337
0.177,0.040,0.272,-5.337
0.197,0.038,0.272,-5.337
0.228,0.038,0.270,-5.337
0.232,0.035,0.274,-5.337
0.197,0.036,0.275,-5.337
0.198,0.036,0.275,-5.337
0.190,0.037,0.271,-5.337
0.119,0.042,0.268,-5.337
0.080,0.038,0.268,-5.337
0.137,0.040,0.270,-5.337
0.192,0.041,0.271,-5.337
0.175,0.039,0.267,-5.337
0.086,0.036,0.269,-5.337
0.121,0.035,0.273,-5.337
0.183,0.039,0.274,-5.337
0.212,0.037,0.273,-5.337
0.196,0.034,0.270,-5.337
0.154,0.034,0.269,-5.337
0.164,0.032,0.269,-5.337
0.124,0.033,0.272,-5.337
0.198,0.031,0.275,-5.337
0.322,0.029,0.275,-5.337
0.292,0.033,0.275,-5.337
0.200,0.036,0.272,-5.337
0.111,0.037,0.271,-5.337
0.177,0.035,0.271,-5.337
0.225,0.032,0.274,-5.337
0.229,0.030,0.280,-5.337
0.270,0.035,0.284,-5.337
0.282,0.034,0.278,-5.337
0.271,0.033,0.272,-5.337
0.135,0.035,0.268,-5.337
0.096,0.037,0.268,-5.337
0.172,0.035,0.270,-5.337
0.214,0.035,0.273,-5.337
0.217,0.031,0.271,-5.337
0.206,0.033,0.271,-5.337
0.240,0.034,0.269,-5.337
0.232,0.033,0.267,-5.337
0.225,0.033,0.268,-5.337
0.268,0.030,0.272,-5.337
0.262,0.028,0.275,-5.337
0.217,0.036,0.277,-5.337
0.206,0.035,0.273,-5.337
0.188,0.034,0.272,-5.337
0.158,0.035,0.270,-5.337
0.139,0.036,0.270,-5.337
0.146,0.035,0.271,-5.337
0.194,0.033,0.275,-5.337
0.235,0.031,0.277,-5.337
0.157,0.034,0.273,-5.337
0.140,0.035,0.270,-5.337
0.152,0.036,0.269,-5.337
0.110,0.037,0.268,-5.337
0.069,0.037,0.269,-5.337
0.093,0.036,0.274,-5.337
0.179,0.035,0.275,-5.337
0.229,0.035,0.272,-5.337
0.240,0.033,0.273,-5.337
0.237,0.036,0.270,-5.337
0.217,0.033,0.270,-5.337
0.241,0.036,0.275,-5.337
0.278,0.033,0.278,-5.337
0.248,0.031,0.277,-5.337
0.208,0.031,0.272,-5.337
0.231,0.030,0.270,-5.337
0.228,0.031,0.271,-5.337
0.232,0.031,0.270,-5.337
0.196,0.028,0.271,-5.337
0.140,0.035,0.276,-5.337
0.108,0.032,0.278,-5.337
0.151,0.029,0.275,-5.337
0.204,0.028,0.272,-5.337
0.223,0.031,0.268,-5.337
0.199,0.037,0.269,-5.337
0.226,0.035,0.271,-5.337
0.338,0.032,0.275,-5.337
0.390,0.032,0.273,-5.337
0.250,0.036,0.273,-5.337
0.141,0.036,0.274,-5.337
0.197,0.038,0.277,-5.337
0.241,0.038,0.272,-5.337
0.248,0.037,0.267,-5.337
0.168,0.036,0.268,-5.337
0.187,0.035,0.272,-5.337
0.174,0.039,0.275,-5.337
0.120,0.037,0.277,-5.337
0.210,0.032,0.276,-5.337
0.266,0.036,0.276,-5.337
0.248,0.037,0.276,-5.337
0.270,0.037,0.276,-5.337
0.241,0.037,0.273,-5.337
0.240,0.036,0.272,-5.337
0.224,0.034,0.273,-5.337
0.253,0.036,0.272,-5.337
0.287,0.037,0.273,-5.337
0.259,0.038,0.275,-5.337
0.199,0.038,0.275,-5.337
0.224,0.038,0.274,-5.337
0.183,0.042,0.274,-5.337
0.171,0.042,0.270,-5.337
0.191,0.038,0.270,-5.337
0.239,0.037,0.268,-5.337
0.235,0.036,0.268,-5.337
0.209,0.036,0.272,-5.337
0.222,0.036,0.274,-5.337
0.250,0.036,0.272,-5.337
0.217,0.038,0.271,-5.337
0.183,0.036,0.273,-5.337
0.179,0.039,0.277,-5.337
0.204,0.037,0.278,-5.337
0.230,0.041,0.273,-5.337
0.215,0.039,0.267,-5.337
0.207,0.040,0.267,-5.337
0.242,0.037,0.268,-5.337
0.234,0.036,0.270,-5.337
0.229,0.036,0.270,-5.337
0.303,0.036,0.271,-5.337
0.311,0.039,0.275,-5.337
0.296,0.037,0.278,-5.337
0.281,0.035,0.281,-5.337
0.264,0.036,0.282,-5.337
0.292,0.041,0.279,-5.337
0.269,0.039,0.273,-5.337
0.287,0.035,0.271,-5.337
0.203,0.037,0.270,-5.337
0.165,0.040,0.270,-5.337
0.175,0.041,0.266,-5.337
0.158,0.038,0.265,-5.337
0.170,0.034,0.268,-5.337
0.209,0.034,0.273,-5.337
0.211,0.038,0.276,-5.337
0.165,0.043,0.275,-5.337
0.141,0.040,0.276,-5.337
0.210,0.038,0.279,-5.337
0.236,0.038,0.276,-5.337
0.242,0.036,0.274,-5.337
0.193,0.040,0.275,-5.337
0.144,0.042,0.276,-5.337
0.219,0.042,0.277,-5.337
0.266,0.041,0.276,-5.337
0.246,0.043,0.271,-5.337
0.215,0.042,0.266,-5.337
0.197,0.040,0.271,-5.337
0.204,0.038,0.276,-5.337
0.264,0.037,0.280,-5.337
0.259,0.043,0.278,-5.337
0.213,0.043,0.276,-5.337
0.232,0.043,0.272,-5.337
0.233,0.042,0.271,-5.337
0.203,0.040,0.270,-5.337
0.142,0.043,0.275,-5.337
0.087,0.046,0.276,-5.337
0.137,0.047,0.275,-5.337
0.227,0.044,0.277,-5.337
0.207,0.044,0.279,-5.337
0.166,0.043,0.279,-5.337
0.229,0.045,0.279,-5.337
0.246,0.045,0.277,-5.337
0.253,0.045,0.278,-5.337
0.272,0.047,0.277,-5.337
0.276,0.047,0.274,-5.337
0.267,0.045,0.269,-5.337
0.241,0.042,0.268,-5.337
0.168,0.043,0.274,-5.337
0.172,0.044,0.273,-5.337
0.198,0.043,0.274,-5.337
0.182,0.047,0.276,-5.337
0.188,0.045,0.279,-5.337
0.231,0.042,0.274,-5.337
0.225,0.041,0.270,-5.337
0.214,0.042,0.270,-5.337
0.161,0.045,0.273,-5.337
0.159,0.046,0.271,-5.337
0.191,0.045,0.269,-5.337
0.134,0.048,0.271,-5.337
0.100,0.048,0.278,-5.337
0.157,0.049,0.278,-5.337
0.233,0.047,0.278,-5.337
0.225,0.049,0.277,-5.337
0.144,0.052,0.277,-5.337
0.186,0.050,0.276,-5.337
0.231,0.045,0.275,-5.337
0.256,0.043,0.273,-5.337
0.295,0.042,0.271,-5.337
0.265,0.040,0.270,-5.337
0.248,0.043,0.273,-5.337
0.205,0.043,0.273,-5.337
0.164,0.043,0.273,-5.337
0.201,0.042,0.274,-5.337
0.244,0.044,0.273,-5.337
0.254,0.048,0.273,-5.337
0.269,0.047,0.275,-5.337
0.272,0.046,0.278,-5.337
0.261,0.044,0.274,-5.337
0.220,0.041,0.271,-5.337
0.207,0.043,0.275,-5.337
0.201,0.046,0.279,-5.337
0.221,0.045,0.277,-5.337
0.239,0.046,0.278,-5.337
0.164,0.046,0.273,-5.337
0.150,0.045,0.273,-5.337
0.227,0.045,0.271,-5.337
0.196,0.050,0.273,-5.337
0.204,0.050,0.272,-5.337
0.246,0.049,0.271,-5.337
0.257,0.045,0.272,-5.337
0.200,0.044,0.273,-5.337
0.189,0.050,0.276,-5.337
0.148,0.053,0.279,-5.337
0.206,0.050,0.276,-5.337
0.270,0.049,0.273,-5.337
0.216,0.048,0.272,-5.337
0.129,0.051,0.275,-5.337
0.178,0.050,0.274,-5.337
0.283,0.051,0.273,-5.337
0.282,0.047,0.275,-5.337
0.231,0.046,0.275,-5.337
0.220,0.046,0.273,-5.337
0.259,0.045,0.269,-5.337
0.237,0.044,0.272,-5.337
0.208,0.047,0.273,-5.337
0.236,0.047,0.273,-5.337
0.259,0.048,0.270,-5.337
0.260,0.048,0.274,-5.337
0.215,0.045,0.275,-5.337
0.235,0.046,0.277,-5.337
0.215,0.048,0.279,-5.337
0.199,0.049,0.278,-5.337
0.171,0.051,0.273,-5.337
0.166,0.053,0.270,-5.337
0.188,0.051,0.271,-5.337
0.156,0.053,0.271,-5.337
0.170,0.053,0.271,-5.337
0.190,0.051,0.274,-5.337
0.234,0.049,0.279,-5.337
0.254,0.047,0.279,-5.337
0.267,0.050,0.276,-5.337
0.268,0.048,0.273,-5.337
0.234,0.049,0.269,-5.337
0.227,0.052,0.270,-5.337
0.145,0.053,0.272,-5.337
0.079,0.052,0.274,-5.337
0.172,0.053,0.278,-5.337
0.272,0.051,0.275,-5.337
0.269,0.054,0.271,-5.337
0.216,0.056,0.270,-5.337
0.203,0.055,0.271,-5.337
0.260,0.054,0.275,-5.337
0.280,0.055,0.276,-5.337
0.287,0.050,0.274,-5.337
0.238,0.051,0.269,-5.337
0.197,0.053,0.263,-5.337
0.168,0.054,0.264,-5.337
0.211,0.052,0.272,-5.337
0.262,0.051,0.277,-5.337
0.219,0.054,0.278,-5.337
0.154,0.054,0.279,-5.337
0.205,0.052,0.277,-5.337
0.249,0.054,0.274,-5.337
0.205,0.055,0.272,-5.337
0.166,0.057,0.269,-5.337
0.175,0.053,0.270,-5.337
0.211,0.050,0.269,-5.337
0.263,0.048,0.269,-5.337
0.287,0.048,0.266,-5.337
0.330,0.049,0.268,-5.337
0.268,0.052,0.273,-5.337
0.191,0.052,0.278,-5.337
0.193,0.051,0.276,-5.337
0.180,0.054,0.274,-5.337
0.129,0.056,0.273,-5.337
0.119,0.054,0.274,-5.337
0.167,0.055,0.275,-5.337
0.191,0.056,0.274,-5.337
0.227,0.056,0.271,-5.337
0.253,0.053,0.268,-5.337
0.288,0.051,0.267,-5.337
0.230,0.057,0.268,-5.337
0.161,0.060,0.270,-5.337
0.156,0.060,0.271,-5.337
0.180,0.055,0.273,-5.337
0.208,0.051,0.271,-5.337
0.221,0.053,0.271,-5.337
0.226,0.056,0.270,-5.337
0.176,0.058,0.271,-5.337
0.237,0.055,0.275,-5.337
0.298,0.053,0.273,-5.337
0.260,0.056,0.270,-5.337
0.214,0.058,0.270,-5.337
0.237,0.056,0.270,-5.337
0.275,0.052,0.271,-5.337
0.264,0.052,0.274,-5.337
0.239,0.055,0.275,-5.337
0.226,0.057,0.272,-5.337
0.203,0.056,0.269,-5.337
0.206,0.058,0.268,-5.337
0.239,0.058,0.272,-5.337
0.211,0.058,0.269,-5.337
0.240,0.056,0.269,-5.337
0.202,0.061,0.273,-5.337
0.128,0.063,0.276,-5.337
0.124,0.061,0.272,-5.337
0.150,0.064,0.267,-5.337
0.205,0.062,0.268,-5.337
0.217,0.062,0.271,-5.337
0.228,0.055,0.271,-5.337
0.251,0.054,0.270,-5.337
0.265,0.052,0.271,-5.337
0.232,0.052,0.273,-5.337
0.253,0.052,0.272,-5.337
0.242,0.057,0.271,-5.337
0.196,0.058,0.270,-5.337
0.212,0.058,0.274,-5.337
0.226,0.056,0.280,-5.337
0.271,0.057,0.278,-5.337
0.263,0.061,0.275,-5.337
0.206,0.063,0.271,-5.337
0.136,0.060,0.269,-5.337
0.108,0.061,0.270,-5.337
0.117,0.060,0.275,-5.337
0.136,0.061,0.275,-5.337
0.120,0.065,0.274,-5.337
0.134,0.061,0.271,-5.337
0.217,0.059,0.271,-5.337
0.264,0.062,0.271,-5.337
0.262,0.063,0.271,-5.337
0.218,0.061,0.269,-5.337
0.229,0.061,0.269,-5.337
0.207,0.062,0.268,-5.337
0.164,0.063,0.272,-5.337
0.148,0.063,0.272,-5.337
0.157,0.059,0.269,-5.337
0.225,0.056,0.269,-5.337
0.212,0.058,0.269,-5.337
0.183,0.060,0.268,-5.337
0.156,0.060,0.267,-5.337
0.224,0.057,0.267,-5.337
0.223,0.059,0.270,-5.337
0.163,0.060,0.273,-5.337
0.168,0.058,0.270,-5.337
0.252,0.055,0.272,-5.337
0.320,0.051,0.272,-5.337
0.272,0.055,0.275,-5.337
0.206,0.060,0.272,-5.337
0.174,0.061,0.272,-5.337
0.205,0.060,0.267,-5.337
0.201,0.059,0.268,-5.337
0.219,0.055,0.270,-5.337
0.212,0.054,0.273,-5.337
0.211,0.053,0.274,-5.337
0.237,0.054,0.272,-5.337
0.221,0.056,0.273,-5.337
0.195,0.052,0.275,-5.337
0.219,0.053,0.275,-5.337
0.226,0.054,0.273,-5.337
0.198,0.055,0.271,-5.337
0.180,0.053,0.270,-5.337
0.175,0.054,0.274,-5.337
0.224,0.051,0.278,-5.337
0.226,0.052,0.275,-5.337
0.158,0.056,0.271,-5.337
0.174,0.054,0.270,-5.337
0.193,0.051,0.267,-5.337
0.170,0.050,0.265,-5.337
0.177,0.056,0.262,-5.337
0.193,0.056,0.264,-5.337
0.221,0.051,0.265,-5.337
0.212,0.051,0.270,-5.337
0.186,0.055,0.273,-5.337
0.167,0.059,0.277,-5.337
0.201,0.054,0.275,-5.337
0.241,0.053,0.270,-5.337
0.214,0.055,0.271,-5.337
0.192,0.056,0.274,-5.337
0.195,0.053,0.276,-5.337
0.199,0.053,0.274,-5.337
0.228,0.054,0.273,-5.337
0.163,0.056,0.274,-5.337
0.076,0.058,0.274,-5.337
0.156,0.054,0.274,-5.337
0.222,0.053,0.272,-5.337
0.214,0.057,0.272,-5.337
0.165,0.056,0.272,-5.337
0.165,0.055,0.274,-5.337
0.191,0.053,0.273,-5.337
0.218,0.055,0.270,-5.337
0.171,0.055,0.268,-5.337
0.154,0.055,0.266,-5.337
0.213,0.056,0.269,-5.337
0.227,0.053,0.270,-5.337
0.200,0.054,0.274,-5.337
0.177,0.052,0.278,-5.337
0.194,0.051,0.278,-5.337
0.135,0.053,0.275,-5.337
0.098,0.057,0.271,-5.337
0.130,0.057,0.269,-5.337
0.106,0.058,0.271,-5.337
0.101,0.056,0.273,-5.337
0.140,0.055,0.272,-5.337
0.171,0.058,0.271,-5.337
0.225,0.058,0.275,-5.337
0.234,0.060,0.276,-5.337
0.197,0.061,0.276,-5.337
0.213,0.057,0.271,-5.337
0.258,0.054,0.265,-5.337
0.225,0.055,0.266,-5.337
0.231,0.056,0.270,-5.337
0.218,0.053,0.274,-5.337
0.197,0.053,0.276,-5.337
0.155,0.058,0.274,-5.337
0.166,0.060,0.272,-5.337
0.192,0.056,0.271,-5.337
0.209,0.051,0.270,-5.337
0.187,0.054,0.272,-5.337
0.146,0.054,0.271,-5.337
0.135,0.054,0.275,-5.337
0.129,0.053,0.275,-5.337
0.119,0.055,0.276,-5.337
0.140,0.056,0.272,-5.337
0.175,0.056,0.270,-5.337
0.202,0.053,0.270,-5.337
0.257,0.053,0.273,-5.337
0.272,0.053,0.271,-5.337
0.175,0.055,0.271,-5.337
0.108,0.058,0.272,-5.337
0.176,0.056,0.274,-5.337
0.237,0.056,0.273,-5.337
0.236,0.055,0.272,-5.337
0.168,0.058,0.273,-5.337
0.098,0.060,0.274,-5.337
0.069,0.057,0.274,-5.337
0.177,0.050,0.273,-5.337
0.266,0.047,0.274,-5.337
0.195,0.051,0.273,-5.337
0.130,0.054,0.272,-5.337
0.168,0.056,0.273,-5.337
0.154,0.053,0.276,-5.337
0.199,0.051,0.274,-5.337
0.265,0.054,0.270,-5.337
0.263,0.052,0.269,-5.337
0.284,0.050,0.273,-5.337
0.251,0.049,0.276,-5.337
0.260,0.051,0.276,-5.337
0.239,0.051,0.276,-5.337
0.222,0.050,0.275,-5.337
0.224,0.050,0.274,-5.337
0.233,0.048,0.272,-5.337
0.216,0.046,0.270,-5.337
0.181,0.047,0.271,-5.337
0.186,0.047,0.270,-5.337
0.160,0.052,0.270,-5.337
0.146,0.053,0.275,-5.337
0.194,0.055,0.273,-5.337
0.200,0.055,0.266,-5.337
0.119,0.056,0.267,-5.337
0.152,0.054,0.278,-5.337
0.288,0.049,0.280,-5.337
0.231,0.051,0.276,-5.337
0.109,0.055,0.272,-5.337
0.147,0.051,0.272,-5.337
0.178,0.050,0.272,-5.337
0.168,0.049,0.276,-5.337
0.189,0.049,0.276,-5.337
0.258,0.047,0.273,-5.337
0.271,0.047,0.269,-5.337
0.237,0.047,0.268,-5.337
0.180,0.047,0.269,-5.337
0.203,0.047,0.271,-5.337
0.264,0.046,0.273,-5.337
0.263,0.047,0.274,-5.337
0.260,0.044,0.272,-5.337
0.234,0.046,0.272,-5.337
0.191,0.049,0.272,-5.337
0.142,0.051,0.271,-5.337
0.117,0.053,0.266,-5.337
0.124,0.056,0.268,-5.337
0.125,0.053,0.276,-5.337
0.139,0.050,0.280,-5.337
0.147,0.051,0.278,-5.337
0.211,0.047,0.271,-5.337
0.260,0.049,0.271,-5.337
0.254,0.053,0.275,-5.337
0.252,0.050,0.276,-5.337
0.242,0.048,0.276,-5.337
0.226,0.046,0.272,-5.337
0.184,0.049,0.270,-5.337
0.157,0.050,0.274,-5.337
0.184,0.050,0.274,-5.337
0.185,0.049,0.270,-5.337
0.227,0.048,0.269,-5.337
0.286,0.047,0.274,-5.337
0.316,0.043,0.275,-5.337
0.309,0.045,0.273,-5.337
0.271,0.048,0.273,-5.337
0.191,0.049,0.274,-5.337
0.217,0.049,0.276,-5.337
0.222,0.049,0.278,-5.337
0.198,0.048,0.276,-5.337
0.178,0.048,0.278,-5.337
0.193,0.046,0.278,-5.337
0.213,0.046,0.277,-5.337
0.200,0.048,0.273,-5.337
0.229,0.045,0.270,-5.337
0.177,0.043,0.270,-5.337
0.130,0.046,0.269,-5.337
0.105,0.045,0.270,-5.337
0.145,0.048,0.272,-5.337
0.202,0.047,0.275,-5.337
0.249,0.043,0.275,-5.337
0.271,0.045,0.275,-5.337
0.211,0.049,0.273,-5.337
0.186,0.050,0.272,-5.337
0.220,0.048,0.273,-5.337
0.297,0.046,0.277,-5.337
0.312,0.047,0.274,-5.337
0.228,0.047,0.271,-5.337
0.206,0.047,0.271,-5.337
0.235,0.046,0.273,-5.337
0.240,0.046,0.271,-5.337
0.151,0.049,0.271,-5.337
0.121,0.048,0.271,-5.337
0.133,0.049,0.273,-5.337
0.147,0.049,0.277,-5.337
0.153,0.049,0.274,-5.337
0.174,0.048,0.272,-5.337
0.248,0.044,0.273,-5.337
0.268,0.044,0.272,-5.337
0.205,0.048,0.270,-5.337
0.158,0.049,0.272,-5.337
0.199,0.045,0.273,-5.337
0.218,0.047,0.274,-5.337
0.206,0.045,0.271,-5.337
0.194,0.045,0.269,-5.337
0.188,0.045,0.268,-5.337
0.206,0.041,0.270,-5.337
0.207,0.038,0.270,-5.337
0.208,0.038,0.273,-5.337
0.227,0.039,0.276,-5.337
0.232,0.040,0.278,-5.337
0.213,0.041,0.273,-5.337
0.228,0.042,0.269,-5.337
0.184,0.042,0.268,-5.337
0.195,0.044,0.270,-5.337
0.205,0.042,0.271,-5.337
0.178,0.042,0.271,-5.337
0.149,0.041,0.270,-5.337
0.125,0.042,0.270,-5.337
0.174,0.042,0.272,-5.337
0.277,0.041,0.275,-5.337
0.273,0.043,0.275,-5.337
0.245,0.045,0.271,-5.337
0.225,0.045,0.269,-5.337
0.197,0.047,0.268,-5.337
0.155,0.052,0.273,-5.337
0.184,0.050,0.277,-5.337
0.181,0.051,0.276,-5.337
0.147,0.047,0.271,-5.337
0.118,0.046,0.268,-5.337
0.164,0.048,0.268,-5.337
0.225,0.049,0.278,-5.337
0.180,0.048,0.278,-5.337
0.212,0.046,0.276,-5.337
0.295,0.039,0.272,-5.337
0.286,0.042,0.270,-5.337
0.206,0.043,0.271,-5.337
0.227,0.043,0.274,-5.337
0.228,0.044,0.272,-5.337
0.231,0.045,0.271,-5.337
0.227,0.042,0.272,-5.337
0.186,0.042,0.275,-5.337
0.217,0.040,0.273,-5.337
0.258,0.040,0.271,-5.337
0.264,0.041,0.271,-5.337
0.227,0.045,0.272,-5.337
0.221,0.044,0.273,-5.337
0.196,0.047,0.272,-5.337
0.134,0.047,0.272,-5.337
0.232,0.046,0.269,-5.337
0.245,0.043,0.270,-5.337
0.223,0.039,0.270,-5.337
0.238,0.041,0.270,-5.337
0.176,0.041,0.270,-5.337
0.099,0.041,0.272,-5.337
0.162,0.039,0.273,-5.337
0.240,0.040,0.273,-5.337
0.234,0.042,0.271,-5.337
0.195,0.044,0.269,-5.337
0.195,0.043,0.270,-5.337
0.159,0.043,0.271,-5.337
0.164,0.041,0.273,-5.337
0.182,0.041,0.273,-5.337
0.203,0.038,0.274,-5.337
0.161,0.041,0.274,-5.337
0.113,0.042,0.273,-5.337
0.172,0.040,0.275,-5.337
0.228,0.037,0.273,-5.337
0.221,0.038,0.272,-5.337
0.187,0.041,0.270,-5.337
0.149,0.046,0.271,-5.337
0.153,0.044,0.275,-5.337
0.164,0.040,0.275,-5.337
0.214,0.041,0.273,-5.337
0.198,0.042,0.270,-5.337
0.160,0.046,0.269,-5.337
0.159,0.047,0.274,-5.337
0.216,0.046,0.274,-5.337
0.232,0.044,0.269,-5.337
0.207,0.045,0.269,-5.337
0.222,0.042,0.268,-5.337
0.251,0.043,0.271,-5.337
0.202,0.047,0.272,-5.337
0.200,0.050,0.273,-5.337
0.306,0.044,0.277,-5.337
0.301,0.044,0.276,-5.337
0.244,0.043,0.270,-5.337
0.203,0.046,0.270,-5.337
0.220,0.046,0.269,-5.337
0.217,0.046,0.272,-5.337
0.217,0.045,0.274,-5.337
0.259,0.043,0.276,-5.337
0.251,0.043,0.279,-5.337
0.265,0.044,0.277,-5.337
0.238,0.046,0.271,-5.337
0.199,0.047,0.268,-5.337
0.208,0.046,0.266,-5.337
0.160,0.047,0.268,-5.337
0.183,0.048,0.272,-5.337
0.206,0.050,0.273,-5.337
0.176,0.049,0.272,-5.337
0.174,0.049,0.271,-5.337
0.179,0.046,0.274,-5.337
0.239,0.043,0.277,-5.337
0.299,0.043,0.276,-5.337
0.262,0.043,0.269,-5.337
0.221,0.047,0.267,-5.337
0.212,0.046,0.269,-5.337
0.221,0.045,0.272,-5.337
0.220,0.045,0.272,-5.337
0.225,0.048,0.274,-5.337
0.215,0.044,0.274,-5.337
0.181,0.044,0.273,-5.337
0.175,0.044,0.274,-5.337
0.231,0.047,0.277,-5.337
0.220,0.050,0.279,-5.337
0.205,0.051,0.273,-5.337
0.194,0.049,0.271,-5.337
0.167,0.049,0.272,-5.337
0.200,0.045,0.276,-5.337
0.210,0.047,0.278,-5.337
0.252,0.048,0.278,-5.337
0.270,0.046,0.273,-5.337
0.284,0.046,0.271,-5.337
0.243,0.045,0.273,-5.337
0.199,0.049,0.274,-5.337
0.209,0.049,0.270,-5.337
0.246,0.047,0.267,-5.337
0.256,0.045,0.271,-5.337
0.229,0.043,0.274,-5.337
0.199,0.047,0.272,-5.337
0.249,0.051,0.272,-5.337
0.194,0.051,0.270,-5.337
0.186,0.053,0.271,-5.337
0.227,0.053,0.273,-5.337
0.255,0.051,0.275,-5.337
0.148,0.049,0.277,-5.337
0.136,0.049,0.275,-5.337
0.202,0.045,0.275,-5.337
0.271,0.044,0.275,-5.337
0.245,0.046,0.274,-5.337
0.149,0.048,0.273,-5.337
0.169,0.046,0.275,-5.337
0.278,0.043,0.278,-5.337
0.295,0.043,0.276,-5.337
0.197,0.045,0.274,-5.337
0.101,0.049,0.273,-5.337
0.169,0.044,0.274,-5.337
0.209,0.043,0.277,-5.337
0.181,0.045,0.277,-5.337
0.211,0.045,0.276,-5.337
0.231,0.048,0.274,-5.337
0.240,0.053,0.273,-5.337
0.250,0.049,0.271,-5.337
0.225,0.050,0.272,-5.337
0.155,0.052,0.273,-5.337
0.177,0.053,0.273,-5.337
0.194,0.050,0.273,-5.337
0.226,0.047,0.277,-5.337
0.229,0.050,0.277,-5.337
0.182,0.053,0.278,-5.337
0.188,0.050,0.275,-5.337
0.273,0.049,0.274,-5.337
0.241,0.051,0.276,-5.337
0.232,0.047,0.279,-5.337
0.294,0.047,0.277,-5.337
0.262,0.052,0.271,-5.337
0.200,0.051,0.271,-5.337
0.217,0.049,0.270,-5.337
0.260,0.047,0.270,-5.337
0.256,0.050,0.272,-5.337
0.273,0.052,0.280,-5.337
0.226,0.056,0.280,-5.337
0.151,0.058,0.278,-5.337
0.136,0.057,0.277,-5.337
0.159,0.059,0.275,-5.337
0.192,0.059,0.271,-5.337
0.244,0.060,0.271,-5.337
0.215,0.057,0.276,-5.337
0.176,0.053,0.277,-5.337
0.207,0.050,0.278,-5.337
0.233,0.047,0.278,-5.337
0.235,0.049,0.276,-5.337
0.187,0.052,0.273,-5.337
0.171,0.052,0.273,-5.337
0.207,0.053,0.276,-5.337
0.190,0.054,0.276,-5.337
0.162,0.052,0.277,-5.337
0.184,0.052,0.277,-5.337
0.201,0.053,0.275,-5.337
0.245,0.051,0.273,-5.337
0.231,0.054,0.268,-5.337
0.207,0.054,0.266,-5.337
0.233,0.054,0.270,-5.337
0.254,0.055,0.282,-5.337
0.237,0.058,0.284,-5.337
0.180,0.057,0.282,-5.337
0.129,0.059,0.276,-5.337
0.149,0.059,0.275,-5.337
0.196,0.059,0.273,-5.337
0.211,0.058,0.274,-5.337
0.252,0.054,0.273,-5.337
0.297,0.054,0.275,-5.337
0.180,0.062,0.275,-5.337
0.133,0.062,0.275,-5.337
0.251,0.054,0.276,-5.337
0.299,0.057,0.277,-5.337
0.247,0.057,0.274,-5.337
0.208,0.059,0.271,-5.337
0.204,0.064,0.276,-5.337
0.181,0.062,0.277,-5.337
0.149,0.061,0.273,-5.337
0.096,0.061,0.272,-5.337
0.111,0.062,0.272,-5.337
0.170,0.060,0.274,-5.337
0.184,0.060,0.279,-5.337
0.182,0.058,0.278,-5.337
0.247,0.055,0.277,-5.337
0.273,0.055,0.275,-5.337
0.295,0.057,0.279,-5.337
0.296,0.061,0.278,-5.337
0.225,0.064,0.277,-5.337
0.140,0.063,0.274,-5.337
0.167,0.064,0.276,-5.337
0.201,0.063,0.276,-5.337
0.217,0.062,0.276,-5.337
0.216,0.059,0.274,-5.337
0.211,0.060,0.275,-5.337
0.214,0.061,0.280,-5.337
0.213,0.065,0.277,-5.337
0.219,0.064,0.275,-5.337
0.213,0.065,0.274,-5.337
0.200,0.063,0.274,-5.337
0.171,0.061,0.280,-5.337
0.190,0.061,0.284,-5.337
0.239,0.061,0.282,-5.337
0.248,0.066,0.275,-5.337
0.223,0.067,0.273,-5.337
0.231,0.059,0.272,-5.337
0.287,0.057,0.275,-5.337
0.213,0.060,0.277,-5.337
0.167,0.060,0.276,-5.337
0.195,0.059,0.275,-5.337
0.206,0.059,0.273,-5.337
0.203,0.059,0.273,-5.337
0.242,0.061,0.275,-5.337
0.275,0.061,0.278,-5.337
0.223,0.065,0.277,-5.337
0.234,0.064,0.274,-5.337
0.224,0.065,0.273,-5.337
0.219,0.063,0.277,-5.337
0.217,0.064,0.280,-5.337
0.273,0.061,0.279,-5.337
0.276,0.060,0.276,-5.337
0.214,0.062,0.272,-5.337
0.189,0.064,0.270,-5.337
0.184,0.068,0.270,-5.337
0.201,0.066,0.272,-5.337
0.197,0.066,0.273,-5.337
0.178,0.064,0.274,-5.337
0.174,0.061,0.274,-5.337
0.229,0.058,0.274,-5.337
0.269,0.054,0.273,-5.337
0.278,0.057,0.275,-5.337
0.229,0.059,0.276,-5.337
0.204,0.057,0.279,-5.337
0.208,0.058,0.279,-5.337
0.290,0.053,0.276,-5.337
0.300,0.052,0.272,-5.337
0.296,0.055,0.271,-5.337
0.219,0.060,0.270,-5.337
0.109,0.064,0.275,-5.337
0.151,0.062,0.279,-5.337
0.196,0.060,0.280,-5.337
0.126,0.060,0.274,-5.337
0.105,0.060,0.270,-5.337
0.109,0.056,0.271,-5.337
0.180,0.057,0.273,-5.337
0.229,0.055,0.271,-5.337
0.253,0.054,0.271,-5.337
0.235,0.055,0.275,-5.337
0.213,0.060,0.277,-5.337
0.244,0.058,0.275,-5.337
0.253,0.059,0.275,-5.337
0.168,0.062,0.273,-5.337
0.120,0.064,0.272,-5.337
0.212,0.063,0.274,-5.337
0.239,0.064,0.276,-5.337
0.182,0.063,0.277,-5.337
0.153,0.063,0.276,-5.337
0.138,0.064,0.276,-5.337
0.191,0.063,0.272,-5.337
0.249,0.056,0.270,-5.337
0.237,0.057,0.267,-5.337
0.228,0.059,0.270,-5.337
0.190,0.061,0.276,-5.337
0.171,0.065,0.279,-5.337
0.222,0.066,0.274,-5.337
0.244,0.066,0.270,-5.337
0.253,0.064,0.269,-5.337
0.249,0.064,0.270,-5.337
0.222,0.063,0.270,-5.337
0.204,0.064,0.274,-5.337
0.153,0.067,0.276,-5.337
0.091,0.073,0.277,-5.337
0.082,0.074,0.278,-5.337
0.177,0.069,0.275,-5.337
0.237,0.063,0.270,-5.337
0.255,0.064,0.270,-5.337
0.211,0.063,0.272,-5.337
0.214,0.063,0.273,-5.337
0.274,0.059,0.275,-5.337
0.268,0.060,0.278,-5.337
0.178,0.063,0.278,-5.337
0.216,0.063,0.274,-5.337
0.249,0.064,0.271,-5.337
0.218,0.065,0.270,-5.337
0.167,0.065,0.272,-5.337
0.201,0.063,0.274,-5.337
0.232,0.061,0.278,-5.337
0.202,0.055,0.279,-5.337
0.228,0.053,0.278,-5.337
0.230,0.056,0.272,-5.337
0.151,0.060,0.271,-5.337
0.169,0.061,0.272,-5.337
0.278,0.057,0.274,-5.337
0.232,0.058,0.275,-5.337
0.166,0.063,0.274,-5.337
0.182,0.061,0.275,-5.337
0.174,0.058,0.270,-5.337
0.151,0.057,0.268,-5.337
0.201,0.060,0.272,-5.337
0.166,0.063,0.277,-5.337
0.117,0.060,0.275,-5.337
0.099,0.057,0.274,-5.337
0.158,0.055,0.274,-5.337
0.186,0.054,0.272,-5.337
0.188,0.054,0.269,-5.337
0.175,0.057,0.270,-5.337
0.154,0.057,0.271,-5.337
0.191,0.052,0.272,-5.337
0.259,0.053,0.274,-5.337
0.197,0.057,0.277,-5.337
0.124,0.058,0.274,-5.337
0.173,0.051,0.272,-5.337
0.239,0.050,0.272,-5.337
0.176,0.057,0.274,-5.337
0.124,0.057,0.271,-5.337
0.114,0.057,0.270,-5.337
0.146,0.056,0.269,-5.337
0.204,0.053,0.269,-5.337
0.176,0.055,0.272,-5.337
0.161,0.053,0.279,-5.337
0.191,0.050,0.283,-5.337
0.234,0.052,0.281,-5.337
0.241,0.052,0.275,-5.337
0.242,0.052,0.271,-5.337
0.200,0.058,0.271,-5.337
0.202,0.057,0.274,-5.337
0.238,0.058,0.274,-5.337
0.264,0.056,0.275,-5.337
0.238,0.055,0.277,-5.337
0.179,0.056,0.276,-5.337
0.207,0.052,0.272,-5.337
0.225,0.056,0.269,-5.337
0.186,0.058,0.273,-5.337
0.182,0.057,0.275,-5.337
0.169,0.055,0.276,-5.337
0.103,0.052,0.275,-5.337
0.097,0.048,0.275,-5.337
0.175,0.051,0.277,-5.337
0.201,0.054,0.277,-5.337
0.217,0.049,0.271,-5.337
0.185,0.049,0.269,-5.337
0.175,0.052,0.269,-5.337
0.191,0.052,0.271,-5.337
0.181,0.051,0.274,-5.337
0.193,0.053,0.280,-5.337
0.163,0.053,0.279,-5.337
0.154,0.048,0.275,-5.337
0.141,0.047,0.272,-5.337
0.172,0.050,0.271,-5.337
0.214,0.048,0.273,-5.337
0.244,0.044,0.275,-5.337
0.311,0.044,0.277,-5.337
0.336,0.047,0.274,-5.337
0.279,0.049,0.269,-5.337
0.232,0.047,0.271,-5.337
0.232,0.045,0.273,-5.337
0.157,0.053,0.271,-5.337
0.072,0.058,0.271,-5.337
0.076,0.056,0.278,-5.337
0.112,0.049,0.281,-5.337
0.159,0.047,0.276,-5.337
0.203,0.048,0.271,-5.337
0.207,0.048,0.271,-5.337
0.201,0.046,0.273,-5.337
0.133,0.050,0.274,-5.337
0.174,0.049,0.275,-5.337
0.208,0.047,0.275,-5.337
0.162,0.049,0.275,-5.337
0.188,0.047,0.273,-5.337
0.207,0.049,0.272,-5.337
0.276,0.049,0.272,-5.337
0.255,0.048,0.273,-5.337
0.226,0.050,0.274,-5.337
0.160,0.055,0.277,-5.337
0.171,0.051,0.281,-5.337
0.202,0.051,0.279,-5.337
0.275,0.048,0.275,-5.337
0.235,0.050,0.272,-5.337
0.194,0.054,0.269,-5.337
0.133,0.055,0.272,-5.337
0.148,0.054,0.277,-5.337
0.197,0.051,0.279,-5.337
0.189,0.053,0.280,-5.337
0.152,0.050,0.279,-5.337
0.161,0.049,0.275,-5.337
0.160,0.049,0.268,-5.337
0.177,0.048,0.266,-5.337
0.197,0.046,0.271,-5.337
0.150,0.048,0.275,-5.337
0.146,0.046,0.272,-5.337
0.196,0.045,0.269,-5.337
0.211,0.044,0.270,-5.337
0.177,0.046,0.273,-5.337
0.176,0.044,0.274,-5.337
0.157,0.047,0.278,-5.337
0.167,0.050,0.278,-5.337
0.170,0.048,0.277,-5.337
0.179,0.046,0.276,-5.337
0.196,0.045,0.275,-5.337
0.217,0.045,0.270,-5.337
0.186,0.048,0.268,-5.337
0.173,0.045,0.274,-5.337
0.189,0.046,0.276,-5.337
0.186,0.047,0.278,-5.337
0.226,0.046,0.275,-5.337
0.213,0.048,0.275,-5.337
0.208,0.048,0.273,-5.337
0.242,0.046,0.273,-5.337
0.230,0.046,0.272,-5.337
0.210,0.048,0.274,-5.337
0.197,0.047,0.278,-5.337
0.187,0.046,0.279,-5.337
0.213,0.042,0.277,-5.337
0.219,0.042,0.277,-5.337
0.265,0.042,0.279,-5.337
0.255,0.047,0.276,-5.337
0.221,0.045,0.272,-5.337
0.171,0.045,0.270,-5.337
0.129,0.050,0.273,-5.337
0.185,0.047,0.275,-5.337
0.262,0.045,0.273,-5.337
0.248,0.045,0.269,-5.337
0.177,0.044,0.272,-5.337
0.166,0.047,0.278,-5.337
0.121,0.047,0.281,-5.337
0.110,0.048,0.282,-5.337
0.100,0.046,0.285,-5.337
0.084,0.046,0.281,-5.337
0.113,0.047,0.279,-5.337
0.189,0.048,0.278,-5.337
0.193,0.048,0.275,-5.337
0.170,0.044,0.271,-5.337
0.175,0.045,0.274,-5.337
0.179,0.044,0.274,-5.337
0.209,0.046,0.275,-5.337
0.260,0.044,0.277,-5.337
0.247,0.043,0.275,-5.337
0.192,0.039,0.273,-5.337
0.183,0.037,0.273,-5.337
0.210,0.038,0.275,-5.337
0.230,0.041,0.277,-5.337
0.225,0.042,0.275,-5.337
0.213,0.042,0.277,-5.337
0.215,0.040,0.279,-5.337
0.201,0.041,0.280,-5.337
0.210,0.042,0.277,-5.337
0.243,0.042,0.271,-5.337
0.260,0.043,0.273,-5.337
0.215,0.042,0.277,-5.337
0.166,0.042,0.282,-5.337
0.189,0.043,0.280,-5.337
0.206,0.041,0.275,-5.337
0.139,0.043,0.273,-5.337
0.135,0.048,0.279,-5.337
0.155,0.045,0.281,-5.337
0.152,0.042,0.280,-5.337
0.189,0.040,0.281,-5.337
0.179,0.045,0.281,-5.337
0.157,0.046,0.277,-5.337
0.148,0.045,0.276,-5.337
0.142,0.043,0.272,-5.337
0.211,0.041,0.269,-5.337
0.300,0.036,0.271,-5.337
0.264,0.035,0.277,-5.337
0.146,0.037,0.279,-5.337
0.128,0.039,0.275,-5.337
0.182,0.041,0.275,-5.337
0.208,0.043,0.275,-5.337
0.221,0.043,0.276,-5.337
0.218,0.042,0.276,-5.337
0.192,0.043,0.276,-5.337
0.198,0.044,0.276,-5.337
0.176,0.047,0.276,-5.337
0.106,0.049,0.274,-5.337
0.133,0.042,0.276,-5.337
0.200,0.037,0.280,-5.337
0.184,0.041,0.282,-5.337
0.176,0.041,0.277,-5.337
0.210,0.038,0.273,-5.337
0.210,0.035,0.269,-5.337
0.217,0.037,0.272,-5.337
0.234,0.037,0.271,-5.337
0.235,0.039,0.275,-5.337
0.196,0.040,0.274,-5.337
0.164,0.040,0.273,-5.337
0.199,0.037,0.273,-5.337
0.131,0.041,0.276,-5.337
0.166,0.040,0.278,-5.337
0.183,0.042,0.279,-5.337
0.174,0.044,0.275,-5.337
0.193,0.040,0.274,-5.337
0.210,0.037,0.276,-5.337
0.214,0.040,0.277,-5.337
0.219,0.042,0.274,-5.337
0.245,0.043,0.273,-5.337
0.195,0.044,0.273,-5.337
0.182,0.039,0.270,-5.337
0.246,0.035,0.271,-5.337
0.234,0.034,0.267,-5.337
0.207,0.035,0.274,-5.337
0.245,0.035,0.283,-5.337
0.228,0.034,0.288,-5.337
0.176,0.034,0.281,-5.337
0.126,0.041,0.271,-5.337
0.181,0.041,0.266,-5.337
0.197,0.044,0.271,-5.337
0.170,0.044,0.275,-5.337
0.179,0.043,0.273,-5.337
0.175,0.043,0.271,-5.337
0.133,0.045,0.272,-5.337
0.184,0.038,0.272,-5.337
0.233,0.036,0.277,-5.337
0.232,0.038,0.277,-5.337
0.201,0.040,0.280,-5.337
0.213,0.039,0.280,-5.337
0.190,0.041,0.275,-5.337
0.179,0.041,0.270,-5.337
0.216,0.042,0.271,-5.337
0.276,0.040,0.273,-5.337
0.248,0.040,0.275,-5.337
0.201,0.039,0.275,-5.337
0.279,0.035,0.275,-5.337
0.289,0.038,0.275,-5.337
0.207,0.039,0.271,-5.337
0.181,0.039,0.270,-5.337
0.168,0.037,0.270,-5.337
0.135,0.039,0.274,-5.337
0.142,0.040,0.276,-5.337
0.087,0.041,0.274,-5.337
0.017,0.037,0.272,-5.337
0.145,0.035,0.275,-5.337
0.241,0.037,0.276,-5.337
0.252,0.039,0.275,-5.337
0.224,0.043,0.272,-5.337
0.138,0.040,0.270,-5.337
0.155,0.036,0.269,-5.337
0.171,0.037,0.269,-5.337
0.190,0.040,0.272,-5.337
0.176,0.040,0.278,-5.337
0.180,0.043,0.278,-5.337
0.201,0.046,0.273,-5.337
0.221,0.049,0.271,-5.337
0.223,0.048,0.270,-5.337
0.226,0.045,0.271,-5.337
0.266,0.042,0.272,-5.337
0.225,0.044,0.275,-5.337
0.200,0.043,0.278,-5.337
0.212,0.045,0.277,-5.337
0.179,0.042,0.276,-5.337
0.172,0.041,0.277,-5.337
0.137,0.045,0.273,-5.337
0.196,0.044,0.271,-5.337
0.229,0.045,0.272,-5.337
0.195,0.046,0.276,-5.337
0.224,0.043,0.274,-5.337
0.305,0.043,0.272,-5.337
0.304,0.045,0.274,-5.337
0.259,0.048,0.276,-5.337
0.256,0.047,0.274,-5.337
0.239,0.049,0.274,-5.337
0.170,0.050,0.270,-5.337
0.232,0.045,0.270,-5.337
0.254,0.043,0.268,-5.337
0.240,0.043,0.269,-5.337
0.232,0.040,0.274,-5.337
0.222,0.042,0.278,-5.337
0.215,0.041,0.278,-5.337
0.195,0.041,0.276,-5.337
0.211,0.042,0.276,-5.337
0.225,0.039,0.275,-5.337
0.229,0.041,0.276,-5.337
0.209,0.042,0.274,-5.337
0.193,0.041,0.275,-5.337
0.202,0.041,0.277,-5.337
0.239,0.042,0.275,-5.337
0.218,0.041,0.268,-5.337
0.213,0.041,0.269,-5.337
0.225,0.043,0.272,-5.337
0.251,0.044,0.271,-5.337
0.217,0.043,0.273,-5.337
0.170,0.047,0.277,-5.337
0.173,0.048,0.276,-5.337
0.228,0.047,0.275,-5.337
0.263,0.046,0.271,-5.337
0.273,0.048,0.271,-5.337
0.221,0.050,0.272,-5.337
0.191,0.052,0.274,-5.337
0.168,0.051,0.275,-5.337
0.174,0.049,0.275,-5.337
0.192,0.048,0.277,-5.337
0.220,0.053,0.275,-5.337
0.191,0.052,0.275,-5.337
0.205,0.047,0.276,-5.337
0.194,0.046,0.275,-5.337
0.186,0.049,0.271,-5.337
0.170,0.050,0.272,-5.337
0.184,0.052,0.274,-5.337
0.232,0.048,0.275,-5.337
0.245,0.049,0.275,-5.337
0.243,0.047,0.278,-5.337
0.255,0.046,0.276,-5.337
0.211,0.049,0.275,-5.337
0.172,0.050,0.274,-5.337
0.163,0.050,0.275,-5.337
0.204,0.055,0.275,-5.337
0.215,0.056,0.274,-5.337
0.125,0.053,0.274,-5.337
0.129,0.049,0.275,-5.337
0.147,0.051,0.277,-5.337
0.145,0.053,0.274,-5.337
0.187,0.054,0.269,-5.337
0.212,0.055,0.268,-5.337
0.245,0.054,0.272,-5.337
0.272,0.053,0.275,-5.337
0.246,0.055,0.274,-5.337
0.216,0.054,0.275,-5.337
0.217,0.051,0.276,-5.337
0.240,0.048,0.272,-5.337
0.246,0.046,0.269,-5.337
0.279,0.047,0.272,-5.337
0.287,0.047,0.277,-5.337
0.283,0.047,0.277,-5.337
0.253,0.045,0.276,-5.337
0.193,0.050,0.273,-5.337
0.218,0.046,0.270,-5.337
0.232,0.048,0.271,-5.337
0.172,0.052,0.276,-5.337
0.159,0.051,0.274,-5.337
0.238,0.051,0.272,-5.337
0.233,0.051,0.276,-5.337
0.229,0.050,0.279,-5.337
0.185,0.051,0.277,-5.337
0.186,0.049,0.275,-5.337
0.202,0.049,0.272,-5.337
0.253,0.048,0.273,-5.337
0.297,0.047,0.275,-5.337
0.328,0.045,0.273,-5.337
0.261,0.050,0.270,-5.337
0.198,0.056,0.269,-5.337
0.219,0.053,0.271,-5.337
0.284,0.053,0.275,-5.337
0.235,0.053,0.276,-5.337
0.196,0.051,0.276,-5.337
0.210,0.052,0.277,-5.337
0.215,0.054,0.276,-5.337
0.138,0.052,0.277,-5.337
0.165,0.049,0.273,-5.337
0.212,0.052,0.272,-5.337
0.219,0.049,0.272,-5.337
0.201,0.048,0.272,-5.337
0.215,0.047,0.272,-5.337
0.212,0.049,0.273,-5.337
0.255,0.049,0.275,-5.337
0.169,0.053,0.276,-5.337
0.123,0.053,0.273,-5.337
0.180,0.052,0.273,-5.337
0.196,0.051,0.277,-5.337
0.235,0.050,0.280,-5.337
0.195,0.051,0.277,-5.337
0.181,0.051,0.276,-5.337
0.212,0.048,0.272,-5.337
0.217,0.048,0.269,-5.337
0.266,0.049,0.272,-5.337
0.231,0.054,0.279,-5.337
0.229,0.054,0.283,-5.337
0.269,0.054,0.278,-5.337
0.226,0.054,0.272,-5.337
0.133,0.056,0.267,-5.337
0.187,0.055,0.273,-5.337
0.193,0.055,0.274,-5.337
0.210,0.053,0.273,-5.337
0.196,0.055,0.273,-5.337
0.146,0.056,0.274,-5.337
0.207,0.049,0.271,-5.337
0.297,0.048,0.275,-5.337
0.232,0.053,0.279,-5.337
0.159,0.058,0.275,-5.337
0.164,0.058,0.271,-5.337
0.197,0.053,0.273,-5.337
0.224,0.051,0.275,-5.337
0.267,0.050,0.275,-5.337
0.284,0.053,0.276,-5.337
0.211,0.057,0.278,-5.337
0.140,0.055,0.277,-5.337
0.143,0.056,0.275,-5.337
0.193,0.057,0.271,-5.337
0.255,0.053,0.270,-5.337
0.235,0.052,0.274,-5.337
0.186,0.053,0.277,-5.337
0.165,0.058,0.278,-5.337
0.196,0.062,0.277,-5.337
0.218,0.059,0.276,-5.337
0.177,0.056,0.274,-5.337
0.153,0.058,0.275,-5.337
0.136,0.057,0.278,-5.337
0.120,0.060,0.281,-5.337
0.166,0.057,0.276,-5.337
0.210,0.052,0.269,-5.337
0.227,0.047,0.268,-5.337
0.218,0.052,0.276,-5.337
0.191,0.056,0.282,-5.337
0.154,0.058,0.280,-5.337
0.189,0.054,0.275,-5.337
0.200,0.054,0.274,-5.337
0.198,0.050,0.277,-5.337
0.187,0.052,0.280,-5.337
0.234,0.050,0.279,-5.337
0.262,0.052,0.277,-5.337
0.195,0.055,0.278,-5.337
0.171,0.056,0.280,-5.337
0.184,0.054,0.276,-5.337
0.224,0.054,0.270,-5.337
0.182,0.054,0.271,-5.337
0.123,0.056,0.276,-5.337
0.148,0.056,0.278,-5.337
0.209,0.055,0.276,-5.337
0.190,0.055,0.275,-5.337
0.164,0.056,0.277,-5.337
0.176,0.057,0.281,-5.337
0.214,0.058,0.282,-5.337
0.202,0.055,0.284,-5.337
0.204,0.053,0.281,-5.337
0.178,0.059,0.273,-5.337
0.144,0.059,0.270,-5.337
0.200,0.056,0.273,-5.337
0.213,0.056,0.274,-5.337
0.250,0.055,0.274,-5.337
0.289,0.054,0.276,-5.337
0.259,0.057,0.276,-5.337
0.204,0.057,0.274,-5.337
0.175,0.059,0.274,-5.337
0.202,0.060,0.276,-5.337
0.291,0.056,0.279,-5.337
0.278,0.057,0.279,-5.337
0.223,0.061,0.280,-5.337
0.196,0.061,0.278,-5.337
0.153,0.062,0.273,-5.337
0.148,0.059,0.271,-5.337
0.168,0.060,0.272,-5.337
0.198,0.056,0.273,-5.337
0.225,0.056,0.276,-5.337
0.213,0.053,0.277,-5.337
0.213,0.057,0.280,-5.337
0.150,0.060,0.283,-5.337
0.138,0.054,0.278,-5.337
0.206,0.053,0.275,-5.337
0.270,0.050,0.276,-5.337
0.254,0.054,0.277,-5.337
0.178,0.054,0.275,-5.337
0.161,0.054,0.276,-5.337
0.245,0.050,0.275,-5.337
0.278,0.049,0.275,-5.337
0.256,0.049,0.269,-5.337
0.195,0.051,0.267,-5.337
0.163,0.053,0.268,-5.337
0.203,0.052,0.272,-5.337
0.179,0.052,0.275,-5.337
0.072,0.052,0.276,-5.337
0.062,0.049,0.275,-5.337
0.125,0.048,0.275,-5.337
0.205,0.049,0.275,-5.337
0.216,0.052,0.272,-5.337
0.162,0.053,0.274,-5.337
0.201,0.053,0.277,-5.337
0.233,0.049,0.278,-5.337
0.256,0.049,0.277,-5.337
0.214,0.055,0.280,-5.337
0.231,0.056,0.278,-5.337
0.273,0.054,0.274,-5.337
0.210,0.052,0.270,-5.337
0.229,0.050,0.269,-5.337
0.253,0.053,0.273,-5.337
0.149,0.060,0.275,-5.337
0.111,0.057,0.275,-5.337
0.181,0.058,0.275,-5.337
0.201,0.060,0.275,-5.337
0.153,0.061,0.277,-5.337
0.186,0.054,0.273,-5.337
0.189,0.053,0.271,-5.337
0.178,0.055,0.272,-5.337
0.197,0.056,0.273,-5.337
0.220,0.052,0.272,-5.337
0.230,0.053,0.274,-5.337
0.248,0.052,0.275,-5.337
0.239,0.056,0.275,-5.337
0.158,0.058,0.276,-5.337
0.104,0.057,0.273,-5.337
0.108,0.054,0.273,-5.337
0.143,0.052,0.275,-5.337
0.161,0.049,0.279,-5.337
0.102,0.050,0.276,-5.337
0.135,0.054,0.276,-5.337
0.244,0.051,0.274,-5.337
0.255,0.051,0.275,-5.337
0.151,0.053,0.274,-5.337
0.170,0.053,0.270,-5.337
0.219,0.049,0.268,-5.337
0.192,0.049,0.267,-5.337
0.215,0.046,0.271,-5.337
0.221,0.048,0.272,-5.337
0.186,0.049,0.272,-5.337
0.199,0.050,0.277,-5.337
0.210,0.052,0.280,-5.337
0.203,0.050,0.281,-5.337
0.168,0.049,0.277,-5.337
0.124,0.052,0.270,-5.337
0.160,0.050,0.269,-5.337
0.179,0.052,0.271,-5.337
0.185,0.052,0.270,-5.337
0.211,0.051,0.270,-5.337
0.198,0.048,0.274,-5.337
0.197,0.048,0.272,-5.337
0.155,0.049,0.273,-5.337
0.151,0.049,0.276,-5.337
0.170,0.047,0.279,-5.337
0.144,0.045,0.278,-5.337
0.093,0.043,0.275,-5.337
0.146,0.039,0.271,-5.337
0.142,0.042,0.269,-5.337
0.149,0.045,0.267,-5.337
0.216,0.044,0.267,-5.337
0.265,0.045,0.271,-5.337
0.197,0.044,0.278,-5.337
0.169,0.044,0.282,-5.337
0.145,0.043,0.281,-5.337
0.175,0.042,0.273,-5.337
0.231,0.042,0.267,-5.337
0.212,0.043,0.268,-5.337
0.193,0.045,0.273,-5.337
0.216,0.046,0.276,-5.337
0.204,0.044,0.273,-5.337
0.180,0.043,0.273,-5.337
0.211,0.043,0.276,-5.337
0.281,0.040,0.275,-5.337
0.261,0.041,0.272,-5.337
0.175,0.045,0.273,-5.337
0.174,0.047,0.272,-5.337
0.159,0.047,0.271,-5.337
0.117,0.046,0.268,-5.337
0.120,0.049,0.270,-5.337
0.163,0.046,0.273,-5.337
0.185,0.047,0.280,-5.337
0.200,0.049,0.279,-5.337
0.179,0.048,0.276,-5.337
0.181,0.043,0.269,-5.337
0.171,0.042,0.270,-5.337
0.157,0.040,0.275,-5.337
0.193,0.040,0.274,-5.337
0.194,0.042,0.270,-5.337
0.193,0.043,0.269,-5.337
0.257,0.037,0.268,-5.337
0.214,0.037,0.268,-5.337
0.119,0.041,0.268,-5.337
0.100,0.044,0.271,-5.337
0.146,0.042,0.277,-5.337
0.164,0.042,0.279,-5.337
0.239,0.042,0.278,-5.337
0.257,0.044,0.276,-5.337
0.146,0.047,0.275,-5.337
0.131,0.047,0.273,-5.337
0.179,0.043,0.271,-5.337
0.264,0.041,0.271,-5.337
0.242,0.044,0.277,-5.337
0.161,0.043,0.276,-5.337
0.146,0.045,0.274,-5.337
0.188,0.043,0.271,-5.337
0.248,0.039,0.272,-5.337
0.225,0.040,0.273,-5.337
0.192,0.044,0.275,-5.337
0.227,0.047,0.273,-5.337
0.226,0.047,0.272,-5.337
0.219,0.043,0.273,-5.337
0.202,0.041,0.273,-5.337
0.142,0.044,0.274,-5.337
0.115,0.047,0.274,-5.337
0.121,0.043,0.273,-5.337
0.112,0.042,0.274,-5.337
0.152,0.041,0.277,-5.337
0.223,0.037,0.274,-5.337
0.189,0.040,0.274,-5.337
0.150,0.043,0.271,-5.337
0.174,0.041,0.270,-5.337
0.153,0.041,0.271,-5.337
0.112,0.043,0.273,-5.337
0.119,0.040,0.277,-5.337
0.184,0.037,0.278,-5.337
0.216,0.039,0.276,-5.337
0.199,0.040,0.277,-5.337
0.220,0.033,0.275,-5.337
0.232,0.037,0.271,-5.337
0.242,0.036,0.268,-5.337
0.244,0.039,0.269,-5.337
0.208,0.040,0.272,-5.337
0.138,0.041,0.274,-5.337
0.134,0.042,0.276,-5.337
0.183,0.043,0.277,-5.337
0.171,0.042,0.275,-5.337
0.136,0.039,0.273,-5.337
0.131,0.040,0.272,-5.337
0.182,0.041,0.274,-5.337
0.189,0.040,0.275,-5.337
0.188,0.035,0.274,-5.337
0.183,0.034,0.271,-5.337
0.182,0.041,0.272,-5.337
0.200,0.045,0.274,-5.337
0.247,0.042,0.278,-5.337
0.211,0.037,0.281,-5.337
0.156,0.039,0.278,-5.337
0.109,0.039,0.275,-5.337
0.169,0.038,0.271,-5.337
0.224,0.035,0.273,-5.337
0.279,0.032,0.274,-5.337
0.307,0.035,0.274,-5.337
0.285,0.036,0.273,-5.337
0.187,0.038,0.274,-5.337
0.204,0.035,0.274,-5.337
0.215,0.037,0.273,-5.337
0.271,0.033,0.274,-5.337
0.246,0.034,0.272,-5.337
0.172,0.035,0.272,-5.337
0.129,0.036,0.273,-5.337
0.175,0.037,0.274,-5.337
0.187,0.041,0.276,-5.337
0.120,0.042,0.277,-5.337
0.108,0.037,0.277,-5.337
0.159,0.035,0.271,-5.337
0.239,0.034,0.268,-5.337
0.180,0.035,0.272,-5.337
0.160,0.035,0.275,-5.337
0.162,0.035,0.278,-5.337
0.106,0.039,0.275,-5.337
0.121,0.034,0.273,-5.337
0.175,0.034,0.274,-5.337
0.138,0.037,0.276,-5.337
0.149,0.037,0.272,-5.337
0.197,0.034,0.270,-5.337
0.241,0.033,0.272,-5.337
0.264,0.039,0.280,-5.337
0.211,0.038,0.281,-5.337
0.190,0.036,0.274,-5.337
0.169,0.037,0.268,-5.337
0.190,0.034,0.266,-5.337
0.242,0.031,0.268,-5.337
0.237,0.033,0.274,-5.337
0.203,0.033,0.277,-5.337
0.194,0.032,0.279,-5.337
0.213,0.032,0.281,-5.337
0.205,0.034,0.280,-5.337
0.211,0.031,0.275,-5.337
0.280,0.028,0.271,-5.337
0.208,0.032,0.271,-5.337
0.116,0.039,0.275,-5.337
0.169,0.039,0.278,-5.337
0.207,0.037,0.276,-5.337
0.173,0.037,0.277,-5.337
0.152,0.038,0.277,-5.337
0.171,0.038,0.278,-5.337
0.183,0.038,0.275,-5.337
0.182,0.040,0.273,-5.337
0.150,0.040,0.272,-5.337
0.149,0.041,0.275,-5.337
0.123,0.036,0.275,-5.337
0.154,0.037,0.279,-5.337
0.151,0.042,0.279,-5.337
0.163,0.042,0.278,-5.337
0.160,0.042,0.279,-5.337
0.196,0.041,0.279,-5.337
0.177,0.042,0.276,-5.337
0.190,0.042,0.273,-5.337
0.218,0.036,0.271,-5.337
0.245,0.039,0.273,-5.337
0.312,0.036,0.275,-5.337
0.278,0.040,0.278,-5.337
0.200,0.043,0.276,-5.337
0.187,0.043,0.271,-5.337
0.264,0.040,0.272,-5.337
0.272,0.040,0.276,-5.337
0.157,0.038,0.281,-5.337
0.143,0.037,0.280,-5.337
0.156,0.041,0.279,-5.337
0.110,0.043,0.277,-5.337
0.119,0.041,0.276,-5.337
0.199,0.038,0.280,-5.337
0.232,0.037,0.282,-5.337
0.191,0.043,0.278,-5.337
0.144,0.045,0.273,-5.337
0.130,0.045,0.273,-5.337
0.146,0.044,0.279,-5.337
0.157,0.040,0.277,-5.337
0.161,0.039,0.275,-5.337
0.170,0.042,0.273,-5.337
0.174,0.042,0.273,-5.337
0.213,0.037,0.277,-5.337
0.221,0.035,0.281,-5.337
0.196,0.042,0.280,-5.337
0.210,0.042,0.275,-5.337
0.276,0.037,0.275,-5.337
0.278,0.035,0.279,-5.337
0.258,0.037,0.278,-5.337
0.245,0.040,0.272,-5.337
0.266,0.042,0.269,-5.337
0.230,0.044,0.276,-5.337
0.166,0.041,0.282,-5.337
0.181,0.039,0.279,-5.337
0.155,0.040,0.277,-5.337
0.220,0.038,0.274,-5.337
0.257,0.039,0.273,-5.337
0.252,0.039,0.275,-5.337
0.212,0.041,0.278,-5.337
0.181,0.043,0.277,-5.337
0.172,0.046,0.278,-5.337
0.180,0.048,0.281,-5.337
0.158,0.048,0.281,-5.337
0.149,0.043,0.276,-5.337
0.154,0.043,0.276,-5.337
0.150,0.040,0.277,-5.337
0.154,0.040,0.276,-5.337
0.151,0.040,0.275,-5.337
0.181,0.038,0.274,-5.337
0.167,0.037,0.274,-5.337
0.157,0.039,0.277,-5.337
0.189,0.038,0.277,-5.337
0.210,0.039,0.274,-5.337
0.202,0.039,0.275,-5.337
0.210,0.039,0.277,-5.337
0.206,0.038,0.280,-5.337
0.213,0.036,0.279,-5.337
0.223,0.036,0.275,-5.337
0.231,0.038,0.271,-5.337
0.225,0.036,0.269,-5.337
0.167,0.035,0.271,-5.337
0.129,0.038,0.274,-5.337
0.143,0.039,0.270,-5.337
0.178,0.042,0.273,-5.337
0.197,0.043,0.277,-5.337
0.188,0.043,0.278,-5.337
0.178,0.044,0.273,-5.337
0.177,0.046,0.270,-5.337
0.212,0.045,0.276,-5.337
0.264,0.043,0.281,-5.337
0.249,0.044,0.280,-5.337
0.185,0.046,0.272,-5.337
0.198,0.048,0.269,-5.337
0.184,0.046,0.274,-5.337
0.179,0.045,0.280,-5.337
0.199,0.046,0.279,-5.337
0.226,0.044,0.275,-5.337
0.272,0.043,0.272,-5.337
0.237,0.042,0.271,-5.337
0.215,0.044,0.271,-5.337
0.228,0.044,0.275,-5.337
0.237,0.043,0.275,-5.337
0.291,0.039,0.274,-5.337
0.283,0.042,0.272,-5.337
0.205,0.043,0.275,-5.337
0.187,0.043,0.275,-5.337
0.214,0.046,0.273,-5.337
0.212,0.048,0.272,-5.337
0.164,0.047,0.276,-5.337
0.205,0.045,0.276,-5.337
0.198,0.044,0.273,-5.337
0.157,0.043,0.273,-5.337
0.161,0.043,0.274,-5.337
0.243,0.043,0.274,-5.337
0.277,0.045,0.276,-5.337
0.221,0.048,0.278,-5.337
0.181,0.046,0.278,-5.337
0.158,0.047,0.277,-5.337
0.170,0.049,0.276,-5.337
0.177,0.048,0.277,-5.337
0.178,0.044,0.276,-5.337
0.196,0.044,0.273,-5.337
0.201,0.047,0.276,-5.337
0.204,0.045,0.278,-5.337
0.161,0.048,0.277,-5.337
0.151,0.046,0.276,-5.337
0.142,0.044,0.276,-5.337
0.175,0.045,0.275,-5.337
0.186,0.047,0.273,-5.337
0.226,0.044,0.271,-5.337
0.270,0.044,0.272,-5.337
0.240,0.047,0.278,-5.337
0.223,0.045,0.279,-5.337
0.308,0.048,0.276,-5.337
0.318,0.050,0.273,-5.337
0.251,0.050,0.272,-5.337
0.165,0.047,0.273,-5.337
0.185,0.047,0.276,-5.337
0.167,0.049,0.278,-5.337
0.111,0.054,0.279,-5.337
0.144,0.054,0.277,-5.337
0.225,0.055,0.275,-5.337
0.279,0.049,0.272,-5.337
0.258,0.048,0.272,-5.337
0.128,0.050,0.275,-5.337
0.150,0.049,0.275,-5.337
0.205,0.051,0.274,-5.337
0.185,0.052,0.275,-5.337
0.164,0.053,0.277,-5.337
0.198,0.052,0.282,-5.337
0.278,0.045,0.282,-5.337
0.240,0.047,0.276,-5.337
0.161,0.050,0.270,-5.337
0.223,0.047,0.266,-5.337
0.256,0.048,0.269,-5.337
0.253,0.045,0.274,-5.337
0.155,0.047,0.277,-5.337
0.152,0.048,0.279,-5.337
0.221,0.051,0.280,-5.337
0.248,0.051,0.277,-5.337
