[Parameters]
Operating Mode, Feedback
Subject  AA..ZZ, WT
Session  0..99, 45
No. Trials (1..9999), 500
Mouse Number, 1
Pressure Probe Serial Port, \00\00\00\04COM4
Save additional csv file, TRUE
Save using mouse number, FALSE
A/D Monitor Rate (Hz), 30000.000000
A/D Stimulate Rate (Hz), 30000.000000
A/D input range (+/- V), 5
No. Channels to acquire (N), 2
Pre-Stim Acq. time (ms), 100.000000
Post-Stim Acq. time (ms), 900.000000
Analysis window parameters.M-response Start (ms), 1.100000
Analysis window parameters.M-response Duration (ms), 5.500000
Analysis window parameters.H-response Duration (ms), 6.000000
Analysis window parameters.H-response Start (ms), 6.500000
Feedback window, H response
Proportional gain, 0.100000
Target value, 6.700000
Feedback Ch., 1
Stim Channel to Control (1-4), 4
Trial, 65
Wait for EMG Conditions, FALSE
Channel to monitor (0 - N-1), 1
EMG Hi Limit, 2.000000
EMG Lo Limit, 0.001000
Inter-Stim delay (sec), 10.000000
EMG Monitor Mode, Mean
Time to run Long Stim.(sec), 30
Save Long Stim Data?, OFF
BURST Save time (ms), 1000
BURST Save Interval (x above), 10
Long-Stim. Rep. Rate (Hz), 10.000000
Stim type cluster array.<size(s)>, 4
Stim type cluster array 0.Stimulus Output, Electrical
Stim type cluster array 1.Stimulus Output, OFF
Stim type cluster array 2.Stimulus Output, OFF
Stim type cluster array 3.Stimulus Output, Motor Length
Stim specs cluster array.<size(s)>, 4
Stim specs cluster array 0.Initial Stimulus ampl., 0.300000
Stim specs cluster array 0.Maximum Stimulus, 1.120000
Stim specs cluster array 0.#Pulses in train, 4
Stim specs cluster array 0.Peak Level time (ms), 1.000000
Stim specs cluster array 0.Total pulse period (ms), 150.000000
Stim specs cluster array 0.Start Delay (ms), -50.000000
Stim specs cluster array 0.Pulse Shape, Square
Stim specs cluster array 0.Ramp/Rel. time (ms), 0.100000
Stim specs cluster array 0.Peak Amplitude (V), 0.120000
Stim specs cluster array 1.Initial Stimulus ampl., 0.000000
Stim specs cluster array 1.Maximum Stimulus, 0.000000
Stim specs cluster array 1.#Pulses in train, 3
Stim specs cluster array 1.Peak Level time (ms), 29.000000
Stim specs cluster array 1.Total pulse period (ms), 200.000000
Stim specs cluster array 1.Start Delay (ms), 0.000000
Stim specs cluster array 1.Pulse Shape, Square
Stim specs cluster array 1.Ramp/Rel. time (ms), 0.000000
Stim specs cluster array 1.Peak Amplitude (V), 2.000000
Stim specs cluster array 2.Initial Stimulus ampl., 0.000000
Stim specs cluster array 2.Maximum Stimulus, 0.000000
Stim specs cluster array 2.#Pulses in train, 1
Stim specs cluster array 2.Peak Level time (ms), 25.000000
Stim specs cluster array 2.Total pulse period (ms), 200.000000
Stim specs cluster array 2.Start Delay (ms), 0.000000
Stim specs cluster array 2.Pulse Shape, Square
Stim specs cluster array 2.Ramp/Rel. time (ms), 20.000000
Stim specs cluster array 2.Peak Amplitude (V), 10.000000
Stim specs cluster array 3.Initial Stimulus ampl., 0.000000
Stim specs cluster array 3.Maximum Stimulus, 20.000000
Stim specs cluster array 3.#Pulses in train, 25
Stim specs cluster array 3.Peak Level time (ms), 0.100000
Stim specs cluster array 3.Total pulse period (ms), 4.000000
Stim specs cluster array 3.Start Delay (ms), 205.000000
Stim specs cluster array 3.Pulse Shape, Triangle
Stim specs cluster array 3.Ramp/Rel. time (ms), 3.000000
Stim specs cluster array 3.Peak Amplitude (V), 0.500000
Force cal. (mN/Volt), 100.000000
Force Range (mN), 100.000000
Length cal. (mm/Volt), 10.000000
Length Range (mm), 10.000000
Stim. 1, 0.300000
Stim. 2, 0.000000
Stim. 3, 0.000000
Stim. 4, 0.000000
Monitor acquire time (ms), 100.000000
EMG graph Ymax, 0.100000
Travel limit (mm), 20.000000
Use Pressure Probe, FALSE
Pressure goal (g), 100
Speed (mm/sec), 5.000000
Dwell time (ms), 100.000000
Pressure limit (g), 500.000000
Channel amplitude offset, 0.000000

[DATA]

0.240,0.059,0.246,-5.337
0.167,0.059,0.244,-5.337
0.199,0.055,0.243,-5.337
0.298,0.053,0.244,-5.337
0.355,0.055,0.248,-5.337
0.288,0.055,0.249,-5.337
0.199,0.057,0.251,-5.337
0.214,0.057,0.250,-5.337
0.174,0.060,0.245,-5.337
0.125,0.059,0.241,-5.337
0.092,0.057,0.242,-5.337
0.180,0.052,0.241,-5.337
0.211,0.053,0.241,-5.337
0.190,0.056,0.242,-5.337
0.196,0.058,0.245,-5.337
0.191,0.054,0.248,-5.337
0.183,0.053,0.248,-5.337
0.239,0.052,0.244,-5.337
0.288,0.055,0.242,-5.337
0.265,0.055,0.242,-5.337
0.215,0.053,0.240,-5.337
0.217,0.051,0.242,-5.337
0.203,0.053,0.244,-5.337
0.163,0.055,0.243,-5.337
0.163,0.056,0.244,-5.337
0.217,0.055,0.244,-5.337
0.203,0.053,0.245,-5.337
0.153,0.054,0.247,-5.337
0.177,0.053,0.250,-5.337
0.179,0.051,0.245,-5.337
0.188,0.052,0.239,-5.337
0.249,0.051,0.239,-5.337
0.262,0.050,0.238,-5.337
0.196,0.051,0.241,-5.337
0.168,0.049,0.245,-5.337
0.164,0.052,0.244,-5.337
0.239,0.050,0.243,-5.337
0.245,0.050,0.243,-5.337
0.202,0.052,0.241,-5.337
0.199,0.057,0.243,-5.337
0.169,0.054,0.244,-5.337
0.180,0.048,0.244,-5.337
0.201,0.046,0.242,-5.337
0.272,0.047,0.240,-5.337
0.233,0.050,0.242,-5.337
0.136,0.053,0.246,-5.337
0.193,0.050,0.248,-5.337
0.216,0.051,0.246,-5.337
0.194,0.051,0.245,-5.337
0.193,0.048,0.242,-5.337
0.223,0.049,0.241,-5.337
0.205,0.050,0.239,-5.337
0.217,0.051,0.242,-5.337
0.219,0.055,0.241,-5.337
0.260,0.052,0.241,-5.337
0.321,0.046,0.240,-5.337
0.339,0.046,0.241,-5.337
0.257,0.046,0.241,-5.337
0.204,0.052,0.243,-5.337
0.265,0.050,0.242,-5.337
0.250,0.047,0.242,-5.337
0.232,0.047,0.245,-5.337
0.228,0.047,0.244,-5.337
0.213,0.048,0.244,-5.337
0.218,0.048,0.244,-5.337
0.206,0.047,0.241,-5.337
0.245,0.048,0.243,-5.337
0.239,0.047,0.244,-5.337
0.174,0.048,0.242,-5.337
0.170,0.046,0.238,-5.337
0.211,0.046,0.238,-5.337
0.266,0.046,0.240,-5.337
0.243,0.048,0.244,-5.337
0.166,0.046,0.245,-5.337
0.080,0.045,0.244,-5.337
0.089,0.046,0.244,-5.337
0.083,0.046,0.245,-5.337
0.068,0.045,0.245,-5.337
0.165,0.042,0.243,-5.337
0.253,0.041,0.247,-5.337
0.248,0.045,0.249,-5.337
0.243,0.046,0.247,-5.337
0.246,0.045,0.240,-5.337
0.264,0.044,0.238,-5.337
0.266,0.044,0.239,-5.337
0.264,0.045,0.243,-5.337
0.186,0.049,0.245,-5.337
0.161,0.047,0.245,-5.337
0.234,0.041,0.244,-5.337
0.269,0.044,0.242,-5.337
0.222,0.047,0.239,-5.337
0.179,0.049,0.240,-5.337
0.136,0.047,0.240,-5.337
0.185,0.042,0.242,-5.337
0.227,0.043,0.244,-5.337
0.227,0.045,0.244,-5.337
0.242,0.042,0.244,-5.337
0.260,0.044,0.241,-5.337
0.197,0.046,0.239,-5.337
0.121,0.050,0.239,-5.337
0.154,0.047,0.239,-5.337
0.215,0.046,0.242,-5.337
0.204,0.049,0.246,-5.337
0.201,0.049,0.247,-5.337
0.217,0.044,0.243,-5.337
0.203,0.041,0.238,-5.337
0.110,0.043,0.244,-5.337
0.042,0.046,0.250,-5.337
0.132,0.048,0.251,-5.337
0.172,0.050,0.250,-5.337
0.179,0.049,0.248,-5.337
0.202,0.045,0.245,-5.337
0.216,0.045,0.244,-5.337
0.243,0.041,0.242,-5.337
0.201,0.041,0.242,-5.337
0.184,0.037,0.243,-5.337
0.183,0.039,0.242,-5.337
0.177,0.042,0.242,-5.337
0.239,0.040,0.241,-5.337
0.250,0.041,0.244,-5.337
0.223,0.043,0.248,-5.337
0.155,0.045,0.248,-5.337
0.112,0.042,0.247,-5.337
0.160,0.041,0.244,-5.337
0.125,0.043,0.244,-5.337
0.170,0.041,0.243,-5.337
0.210,0.042,0.243,-5.337
0.202,0.040,0.247,-5.337
0.169,0.038,0.247,-5.337
0.084,0.040,0.246,-5.337
0.142,0.040,0.244,-5.337
0.255,0.040,0.243,-5.337
0.268,0.038,0.241,-5.337
0.189,0.042,0.244,-5.337
0.098,0.041,0.243,-5.337
0.175,0.038,0.244,-5.337
0.231,0.036,0.243,-5.337
0.180,0.039,0.247,-5.337
0.170,0.036,0.249,-5.337
0.199,0.037,0.248,-5.337
0.190,0.039,0.244,-5.337
0.144,0.041,0.241,-5.337
0.202,0.034,0.237,-5.337
0.227,0.036,0.238,-5.337
0.214,0.038,0.243,-5.337
0.149,0.041,0.246,-5.337
0.123,0.037,0.242,-5.337
0.223,0.035,0.241,-5.337
0.258,0.036,0.244,-5.337
0.125,0.037,0.244,-5.337
0.014,0.040,0.244,-5.337
0.138,0.037,0.242,-5.337
0.312,0.029,0.242,-5.337
0.352,0.027,0.242,-5.337
0.290,0.028,0.242,-5.337
0.278,0.028,0.245,-5.337
0.240,0.032,0.247,-5.337
0.271,0.032,0.247,-5.337
0.259,0.032,0.249,-5.337
0.252,0.035,0.245,-5.337
0.229,0.040,0.240,-5.337
0.191,0.037,0.235,-5.337
0.188,0.033,0.231,-5.337
0.227,0.028,0.236,-5.337
0.230,0.031,0.244,-5.337
0.228,0.031,0.249,-5.337
0.211,0.030,0.247,-5.337
0.175,0.034,0.245,-5.337
0.246,0.032,0.243,-5.337
0.236,0.031,0.243,-5.337
0.167,0.031,0.244,-5.337
0.156,0.033,0.246,-5.337
0.189,0.035,0.244,-5.337
0.206,0.034,0.244,-5.337
0.163,0.031,0.244,-5.337
0.130,0.031,0.245,-5.337
0.188,0.032,0.247,-5.337
0.253,0.032,0.252,-5.337
0.221,0.032,0.248,-5.337
0.209,0.030,0.244,-5.337
0.189,0.031,0.242,-5.337
0.190,0.033,0.242,-5.337
0.184,0.031,0.241,-5.337
0.213,0.035,0.241,-5.337
0.247,0.037,0.241,-5.337
0.203,0.039,0.242,-5.337
0.131,0.036,0.244,-5.337
0.122,0.034,0.246,-5.337
0.138,0.032,0.244,-5.337
0.163,0.031,0.245,-5.337
0.184,0.029,0.243,-5.337
0.229,0.028,0.241,-5.337
0.250,0.026,0.239,-5.337
0.177,0.031,0.244,-5.337
0.145,0.032,0.248,-5.337
0.224,0.032,0.249,-5.337
0.261,0.029,0.248,-5.337
0.187,0.032,0.247,-5.337
0.176,0.031,0.249,-5.337
0.197,0.027,0.248,-5.337
0.167,0.025,0.249,-5.337
0.102,0.031,0.249,-5.337
0.099,0.032,0.246,-5.337
0.129,0.033,0.242,-5.337
0.132,0.034,0.245,-5.337
0.126,0.027,0.246,-5.337
0.178,0.027,0.246,-5.337
0.178,0.028,0.240,-5.337
0.148,0.027,0.239,-5.337
0.216,0.022,0.238,-5.337
0.224,0.028,0.241,-5.337
0.186,0.027,0.244,-5.337
0.203,0.032,0.244,-5.337
0.228,0.031,0.243,-5.337
0.216,0.033,0.242,-5.337
0.224,0.031,0.242,-5.337
0.245,0.029,0.241,-5.337
0.299,0.028,0.240,-5.337
0.233,0.031,0.242,-5.337
0.244,0.032,0.245,-5.337
0.240,0.032,0.243,-5.337
0.160,0.035,0.240,-5.337
0.112,0.034,0.240,-5.337
0.122,0.031,0.245,-5.337
0.205,0.032,0.248,-5.337
0.173,0.035,0.247,-5.337
0.157,0.035,0.245,-5.337
0.204,0.033,0.248,-5.337
0.212,0.033,0.248,-5.337
0.230,0.031,0.248,-5.337
0.207,0.032,0.246,-5.337
0.194,0.033,0.245,-5.337
0.239,0.031,0.243,-5.337
0.205,0.032,0.241,-5.337
0.142,0.033,0.239,-5.337
0.161,0.033,0.240,-5.337
0.182,0.033,0.240,-5.337
0.230,0.034,0.242,-5.337
0.274,0.030,0.242,-5.337
0.251,0.029,0.242,-5.337
0.211,0.031,0.246,-5.337
0.187,0.032,0.247,-5.337
0.227,0.030,0.247,-5.337
0.273,0.028,0.245,-5.337
0.260,0.029,0.246,-5.337
0.206,0.029,0.244,-5.337
0.191,0.031,0.242,-5.337
0.171,0.034,0.243,-5.337
0.110,0.032,0.248,-5.337
0.123,0.031,0.248,-5.337
0.203,0.030,0.247,-5.337
0.171,0.030,0.245,-5.337
0.140,0.029,0.242,-5.337
0.167,0.029,0.239,-5.337
0.244,0.029,0.241,-5.337
0.254,0.030,0.241,-5.337
0.229,0.030,0.241,-5.337
0.235,0.030,0.236,-5.337
0.240,0.033,0.237,-5.337
0.290,0.030,0.242,-5.337
0.301,0.026,0.244,-5.337
0.211,0.027,0.244,-5.337
0.176,0.031,0.247,-5.337
0.140,0.033,0.247,-5.337
0.184,0.034,0.247,-5.337
0.243,0.033,0.244,-5.337
0.227,0.033,0.243,-5.337
0.206,0.033,0.245,-5.337
0.201,0.032,0.246,-5.337
0.198,0.035,0.241,-5.337
0.173,0.038,0.236,-5.337
0.213,0.036,0.236,-5.337
0.235,0.033,0.240,-5.337
0.185,0.035,0.243,-5.337
0.154,0.036,0.245,-5.337
0.201,0.033,0.246,-5.337
0.232,0.033,0.243,-5.337
0.195,0.033,0.242,-5.337
0.248,0.032,0.240,-5.337
0.253,0.033,0.240,-5.337
0.155,0.033,0.237,-5.337
0.086,0.038,0.238,-5.337
0.145,0.035,0.242,-5.337
0.226,0.037,0.246,-5.337
0.213,0.039,0.247,-5.337
0.148,0.041,0.248,-5.337
0.153,0.039,0.244,-5.337
0.187,0.038,0.243,-5.337
0.215,0.033,0.242,-5.337
0.215,0.033,0.239,-5.337
0.225,0.034,0.240,-5.337
0.218,0.038,0.247,-5.337
0.166,0.035,0.249,-5.337
0.179,0.034,0.243,-5.337
0.166,0.035,0.240,-5.337
0.169,0.034,0.240,-5.337
0.191,0.034,0.241,-5.337
0.210,0.033,0.241,-5.337
0.209,0.034,0.239,-5.337
0.229,0.032,0.241,-5.337
0.227,0.031,0.244,-5.337
0.224,0.032,0.241,-5.337
0.163,0.034,0.239,-5.337
0.157,0.034,0.238,-5.337
0.131,0.035,0.243,-5.337
0.146,0.034,0.242,-5.337
0.161,0.033,0.238,-5.337
0.148,0.034,0.242,-5.337
0.159,0.034,0.247,-5.337
0.150,0.035,0.246,-5.337
0.167,0.034,0.245,-5.337
0.219,0.033,0.246,-5.337
0.209,0.032,0.248,-5.337
0.202,0.031,0.247,-5.337
0.195,0.030,0.248,-5.337
0.177,0.030,0.247,-5.337
0.195,0.034,0.242,-5.337
0.194,0.033,0.242,-5.337
0.204,0.031,0.241,-5.337
0.207,0.034,0.242,-5.337
0.251,0.034,0.242,-5.337
0.330,0.032,0.243,-5.337
0.311,0.033,0.242,-5.337
0.230,0.037,0.245,-5.337
0.217,0.037,0.245,-5.337
0.184,0.039,0.243,-5.337
0.227,0.035,0.241,-5.337
0.311,0.036,0.240,-5.337
0.285,0.036,0.241,-5.337
0.224,0.038,0.248,-5.337
0.193,0.036,0.247,-5.337
0.175,0.040,0.244,-5.337
0.115,0.040,0.240,-5.337
0.175,0.037,0.236,-5.337
0.239,0.033,0.238,-5.337
0.219,0.036,0.241,-5.337
0.188,0.037,0.245,-5.337
0.182,0.039,0.245,-5.337
0.132,0.042,0.242,-5.337
0.125,0.042,0.243,-5.337
0.130,0.042,0.246,-5.337
0.156,0.042,0.247,-5.337
0.146,0.038,0.245,-5.337
0.175,0.035,0.244,-5.337
0.236,0.035,0.246,-5.337
0.270,0.040,0.243,-5.337
0.265,0.038,0.239,-5.337
0.259,0.034,0.237,-5.337
0.231,0.036,0.242,-5.337
0.213,0.036,0.243,-5.337
0.197,0.035,0.245,-5.337
0.185,0.033,0.246,-5.337
0.182,0.035,0.246,-5.337
0.175,0.032,0.243,-5.337
0.221,0.035,0.245,-5.337
0.198,0.036,0.243,-5.337
0.194,0.039,0.243,-5.337
0.264,0.039,0.244,-5.337
0.268,0.044,0.243,-5.337
0.158,0.047,0.240,-5.337
0.074,0.049,0.240,-5.337
0.171,0.046,0.241,-5.337
0.242,0.043,0.243,-5.337
0.237,0.042,0.243,-5.337
0.206,0.043,0.244,-5.337
0.147,0.044,0.245,-5.337
0.172,0.043,0.246,-5.337
0.223,0.041,0.245,-5.337
0.253,0.040,0.244,-5.337
0.271,0.037,0.244,-5.337
0.253,0.042,0.248,-5.337
0.250,0.043,0.249,-5.337
0.196,0.043,0.246,-5.337
0.184,0.041,0.244,-5.337
0.285,0.041,0.244,-5.337
0.303,0.041,0.249,-5.337
0.235,0.042,0.250,-5.337
0.234,0.043,0.251,-5.337
0.180,0.044,0.249,-5.337
0.106,0.047,0.246,-5.337
0.156,0.048,0.241,-5.337
0.247,0.048,0.239,-5.337
0.255,0.047,0.239,-5.337
0.220,0.044,0.240,-5.337
0.201,0.041,0.240,-5.337
0.273,0.046,0.242,-5.337
0.394,0.048,0.243,-5.337
0.398,0.047,0.244,-5.337
0.294,0.045,0.250,-5.337
0.239,0.045,0.248,-5.337
0.234,0.048,0.241,-5.337
0.182,0.048,0.241,-5.337
0.105,0.047,0.242,-5.337
0.143,0.046,0.245,-5.337
0.194,0.047,0.246,-5.337
0.183,0.047,0.248,-5.337
0.126,0.045,0.246,-5.337
0.076,0.046,0.241,-5.337
0.112,0.048,0.241,-5.337
0.154,0.048,0.242,-5.337
0.110,0.052,0.242,-5.337
0.134,0.050,0.243,-5.337
0.162,0.051,0.245,-5.337
0.099,0.054,0.242,-5.337
0.098,0.054,0.242,-5.337
0.167,0.052,0.245,-5.337
0.219,0.052,0.246,-5.337
0.258,0.050,0.241,-5.337
0.241,0.053,0.239,-5.337
0.245,0.052,0.238,-5.337
0.203,0.055,0.243,-5.337
0.194,0.052,0.244,-5.337
0.265,0.050,0.239,-5.337
0.271,0.051,0.237,-5.337
0.204,0.052,0.239,-5.337
0.162,0.054,0.242,-5.337
0.169,0.051,0.242,-5.337
0.254,0.049,0.241,-5.337
0.247,0.053,0.245,-5.337
0.240,0.049,0.246,-5.337
0.279,0.047,0.247,-5.337
0.256,0.050,0.243,-5.337
0.198,0.049,0.238,-5.337
0.200,0.043,0.235,-5.337
0.200,0.047,0.237,-5.337
0.200,0.047,0.240,-5.337
0.222,0.046,0.244,-5.337
0.232,0.046,0.249,-5.337
0.210,0.046,0.247,-5.337
0.228,0.047,0.246,-5.337
0.204,0.048,0.242,-5.337
0.186,0.050,0.240,-5.337
0.240,0.048,0.240,-5.337
0.213,0.049,0.240,-5.337
0.164,0.049,0.241,-5.337
0.149,0.050,0.243,-5.337
0.175,0.048,0.241,-5.337
0.165,0.048,0.237,-5.337
0.180,0.046,0.240,-5.337
0.229,0.046,0.244,-5.337
0.207,0.052,0.245,-5.337
0.193,0.052,0.242,-5.337
0.259,0.050,0.238,-5.337
0.245,0.052,0.238,-5.337
0.302,0.051,0.238,-5.337
0.352,0.049,0.240,-5.337
0.310,0.049,0.243,-5.337
0.230,0.046,0.242,-5.337
0.261,0.044,0.244,-5.337
0.261,0.051,0.242,-5.337
0.192,0.054,0.240,-5.337
0.168,0.057,0.238,-5.337
0.201,0.057,0.239,-5.337
0.163,0.057,0.239,-5.337
0.154,0.060,0.241,-5.337
0.140,0.062,0.240,-5.337
0.209,0.059,0.239,-5.337
0.279,0.050,0.240,-5.337
0.275,0.047,0.242,-5.337
0.202,0.052,0.240,-5.337
0.173,0.052,0.241,-5.337
0.236,0.047,0.242,-5.337
0.294,0.048,0.243,-5.337
0.266,0.052,0.242,-5.337
0.228,0.050,0.244,-5.337
0.221,0.049,0.244,-5.337
0.259,0.049,0.242,-5.337
0.221,0.052,0.242,-5.337
0.162,0.053,0.244,-5.337
0.217,0.052,0.242,-5.337
0.230,0.052,0.239,-5.337
0.140,0.055,0.238,-5.337
0.216,0.054,0.241,-5.337
0.287,0.051,0.242,-5.337
0.180,0.052,0.239,-5.337
0.138,0.052,0.240,-5.337
0.193,0.052,0.244,-5.337
0.243,0.053,0.244,-5.337
0.311,0.054,0.242,-5.337
0.246,0.052,0.241,-5.337
0.191,0.050,0.241,-5.337
0.221,0.053,0.241,-5.337
0.257,0.052,0.240,-5.337
0.203,0.053,0.242,-5.337
0.224,0.055,0.242,-5.337
0.210,0.058,0.240,-5.337
0.183,0.053,0.237,-5.337
0.168,0.052,0.237,-5.337
0.212,0.051,0.240,-5.337
0.254,0.053,0.242,-5.337
0.252,0.055,0.241,-5.337
0.242,0.054,0.240,-5.337
0.189,0.054,0.241,-5.337
0.191,0.055,0.239,-5.337
0.242,0.058,0.236,-5.337
0.237,0.057,0.238,-5.337
0.219,0.058,0.239,-5.337
0.258,0.059,0.241,-5.337
0.283,0.061,0.247,-5.337
0.233,0.064,0.245,-5.337
0.143,0.060,0.239,-5.337
0.143,0.058,0.235,-5.337
0.203,0.054,0.236,-5.337
0.190,0.054,0.237,-5.337
0.205,0.054,0.240,-5.337
0.208,0.053,0.241,-5.337
0.236,0.054,0.243,-5.337
0.221,0.053,0.241,-5.337
0.195,0.055,0.237,-5.337
0.279,0.053,0.234,-5.337
0.294,0.051,0.236,-5.337
0.203,0.055,0.240,-5.337
0.167,0.056,0.242,-5.337
0.204,0.052,0.244,-5.337
0.221,0.053,0.242,-5.337
0.264,0.052,0.241,-5.337
0.264,0.052,0.241,-5.337
0.193,0.055,0.238,-5.337
0.120,0.060,0.238,-5.337
0.149,0.058,0.236,-5.337
0.258,0.055,0.233,-5.337
0.267,0.053,0.234,-5.337
0.164,0.053,0.240,-5.337
0.134,0.054,0.244,-5.337
0.184,0.052,0.241,-5.337
0.213,0.049,0.234,-5.337
0.188,0.049,0.233,-5.337
0.144,0.051,0.238,-5.337
0.193,0.046,0.242,-5.337
0.262,0.043,0.242,-5.337
0.281,0.044,0.237,-5.337
0.230,0.045,0.233,-5.337
0.204,0.046,0.236,-5.337
0.219,0.048,0.240,-5.337
0.231,0.048,0.243,-5.337
0.214,0.048,0.244,-5.337
0.142,0.051,0.239,-5.337
0.128,0.054,0.238,-5.337
0.246,0.050,0.240,-5.337
0.305,0.049,0.243,-5.337
0.250,0.045,0.239,-5.337
0.205,0.047,0.235,-5.337
0.179,0.050,0.237,-5.337
0.132,0.051,0.237,-5.337
0.188,0.047,0.236,-5.337
0.236,0.048,0.236,-5.337
0.216,0.049,0.238,-5.337
0.143,0.049,0.239,-5.337
0.154,0.050,0.239,-5.337
0.231,0.051,0.237,-5.337
0.265,0.046,0.240,-5.337
0.217,0.047,0.240,-5.337
0.242,0.046,0.242,-5.337
0.285,0.047,0.239,-5.337
0.195,0.053,0.239,-5.337
0.134,0.052,0.238,-5.337
0.194,0.053,0.242,-5.337
0.219,0.053,0.244,-5.337
0.208,0.051,0.244,-5.337
0.218,0.049,0.242,-5.337
0.250,0.049,0.239,-5.337
0.205,0.052,0.232,-5.337
0.158,0.051,0.230,-5.337
0.175,0.048,0.232,-5.337
0.223,0.047,0.239,-5.337
0.193,0.046,0.241,-5.337
0.187,0.043,0.241,-5.337
0.216,0.043,0.238,-5.337
0.191,0.046,0.236,-5.337
0.178,0.046,0.233,-5.337
0.182,0.047,0.235,-5.337
0.211,0.045,0.235,-5.337
0.207,0.043,0.237,-5.337
0.195,0.043,0.237,-5.337
0.212,0.042,0.238,-5.337
0.189,0.042,0.238,-5.337
0.160,0.040,0.238,-5.337
0.212,0.040,0.240,-5.337
0.195,0.042,0.239,-5.337
0.156,0.045,0.242,-5.337
0.198,0.045,0.242,-5.337
0.214,0.047,0.241,-5.337
0.184,0.045,0.237,-5.337
0.228,0.040,0.240,-5.337
0.212,0.040,0.241,-5.337
0.142,0.042,0.239,-5.337
0.149,0.038,0.235,-5.337
0.149,0.041,0.235,-5.337
0.205,0.041,0.234,-5.337
0.278,0.043,0.234,-5.337
0.295,0.043,0.237,-5.337
0.205,0.045,0.240,-5.337
0.067,0.048,0.241,-5.337
0.044,0.046,0.241,-5.337
0.117,0.042,0.239,-5.337
0.178,0.043,0.237,-5.337
0.152,0.044,0.236,-5.337
0.146,0.046,0.238,-5.337
0.152,0.048,0.240,-5.337
0.186,0.045,0.239,-5.337
0.284,0.040,0.240,-5.337
0.311,0.042,0.240,-5.337
0.281,0.045,0.242,-5.337
0.237,0.045,0.237,-5.337
0.201,0.043,0.238,-5.337
0.143,0.041,0.237,-5.337
0.162,0.043,0.238,-5.337
0.190,0.040,0.235,-5.337
0.209,0.039,0.235,-5.337
0.241,0.039,0.237,-5.337
0.268,0.041,0.237,-5.337
0.278,0.042,0.238,-5.337
0.201,0.042,0.242,-5.337
0.157,0.041,0.240,-5.337
0.225,0.041,0.238,-5.337
0.254,0.038,0.240,-5.337
0.196,0.038,0.238,-5.337
0.227,0.035,0.236,-5.337
0.237,0.034,0.240,-5.337
0.235,0.035,0.241,-5.337
0.249,0.033,0.239,-5.337
0.246,0.036,0.237,-5.337
0.227,0.040,0.238,-5.337
0.141,0.042,0.240,-5.337
0.126,0.039,0.242,-5.337
0.133,0.039,0.240,-5.337
0.117,0.040,0.238,-5.337
0.096,0.041,0.241,-5.337
0.216,0.037,0.241,-5.337
0.320,0.036,0.238,-5.337
0.267,0.039,0.235,-5.337
0.184,0.035,0.235,-5.337
0.161,0.035,0.236,-5.337
0.230,0.038,0.240,-5.337
0.193,0.041,0.239,-5.337
0.125,0.042,0.239,-5.337
0.177,0.038,0.239,-5.337
0.190,0.041,0.240,-5.337
0.164,0.040,0.239,-5.337
0.131,0.041,0.237,-5.337
0.192,0.039,0.236,-5.337
0.236,0.041,0.238,-5.337
0.161,0.044,0.242,-5.337
0.167,0.041,0.245,-5.337
0.199,0.039,0.242,-5.337
0.164,0.041,0.240,-5.337
0.074,0.043,0.241,-5.337
0.083,0.040,0.244,-5.337
0.153,0.039,0.245,-5.337
0.205,0.041,0.245,-5.337
0.206,0.040,0.240,-5.337
0.215,0.043,0.236,-5.337
0.172,0.042,0.234,-5.337
0.180,0.041,0.234,-5.337
0.191,0.040,0.239,-5.337
0.218,0.039,0.242,-5.337
0.204,0.037,0.240,-5.337
0.171,0.038,0.239,-5.337
0.156,0.040,0.237,-5.337
0.159,0.038,0.235,-5.337
0.174,0.038,0.236,-5.337
0.213,0.036,0.238,-5.337
0.237,0.037,0.238,-5.337
0.159,0.036,0.239,-5.337
0.114,0.037,0.242,-5.337
0.146,0.036,0.244,-5.337
0.211,0.033,0.242,-5.337
0.272,0.031,0.239,-5.337
0.208,0.036,0.239,-5.337
0.112,0.038,0.242,-5.337
0.143,0.037,0.244,-5.337
0.149,0.036,0.243,-5.337
0.185,0.031,0.241,-5.337
0.182,0.030,0.238,-5.337
0.152,0.032,0.233,-5.337
0.185,0.032,0.234,-5.337
0.225,0.032,0.237,-5.337
0.229,0.032,0.240,-5.337
0.280,0.033,0.239,-5.337
0.173,0.038,0.239,-5.337
0.064,0.038,0.239,-5.337
0.080,0.039,0.239,-5.337
0.190,0.034,0.235,-5.337
0.243,0.029,0.237,-5.337
0.186,0.028,0.237,-5.337
0.167,0.033,0.238,-5.337
0.163,0.036,0.241,-5.337
0.197,0.035,0.243,-5.337
0.203,0.033,0.240,-5.337
0.145,0.034,0.238,-5.337
0.129,0.034,0.235,-5.337
0.138,0.032,0.238,-5.337
0.134,0.031,0.239,-5.337
0.115,0.031,0.238,-5.337
0.099,0.035,0.239,-5.337
0.117,0.039,0.240,-5.337
0.143,0.038,0.242,-5.337
0.146,0.037,0.242,-5.337
0.233,0.034,0.242,-5.337
0.319,0.029,0.241,-5.337
0.288,0.030,0.240,-5.337
0.198,0.032,0.238,-5.337
0.274,0.030,0.244,-5.337
0.282,0.030,0.242,-5.337
0.204,0.031,0.240,-5.337
0.201,0.033,0.240,-5.337
0.198,0.036,0.237,-5.337
0.150,0.038,0.230,-5.337
0.088,0.040,0.231,-5.337
0.118,0.036,0.236,-5.337
0.189,0.034,0.238,-5.337
0.199,0.035,0.238,-5.337
0.220,0.035,0.236,-5.337
0.144,0.036,0.237,-5.337
0.144,0.034,0.241,-5.337
0.215,0.033,0.239,-5.337
0.226,0.030,0.236,-5.337
0.181,0.030,0.239,-5.337
0.190,0.031,0.244,-5.337
0.172,0.033,0.243,-5.337
0.133,0.031,0.240,-5.337
0.176,0.031,0.243,-5.337
0.201,0.036,0.242,-5.337
0.203,0.035,0.242,-5.337
0.146,0.039,0.239,-5.337
0.147,0.037,0.241,-5.337
0.176,0.036,0.240,-5.337
0.159,0.036,0.240,-5.337
0.221,0.033,0.237,-5.337
0.255,0.037,0.237,-5.337
0.159,0.037,0.240,-5.337
0.186,0.033,0.242,-5.337
0.208,0.035,0.243,-5.337
0.192,0.032,0.240,-5.337
0.186,0.033,0.236,-5.337
0.211,0.034,0.237,-5.337
0.216,0.032,0.239,-5.337
0.217,0.035,0.243,-5.337
0.156,0.041,0.245,-5.337
0.127,0.038,0.245,-5.337
0.203,0.032,0.242,-5.337
0.233,0.032,0.236,-5.337
0.195,0.036,0.236,-5.337
0.110,0.042,0.239,-5.337
0.136,0.039,0.242,-5.337
0.182,0.034,0.240,-5.337
0.175,0.037,0.239,-5.337
0.151,0.037,0.239,-5.337
0.196,0.040,0.241,-5.337
0.259,0.039,0.242,-5.337
0.179,0.041,0.241,-5.337
0.135,0.040,0.239,-5.337
0.178,0.039,0.241,-5.337
0.185,0.037,0.239,-5.337
0.154,0.038,0.239,-5.337
0.069,0.040,0.241,-5.337
0.097,0.040,0.240,-5.337
0.153,0.040,0.238,-5.337
0.185,0.039,0.242,-5.337
0.225,0.036,0.244,-5.337
0.213,0.036,0.245,-5.337
0.129,0.040,0.242,-5.337
0.089,0.044,0.240,-5.337
0.137,0.042,0.239,-5.337
0.143,0.038,0.237,-5.337
0.141,0.037,0.237,-5.337
0.195,0.034,0.238,-5.337
0.280,0.033,0.240,-5.337
0.301,0.035,0.238,-5.337
0.261,0.036,0.236,-5.337
0.217,0.040,0.236,-5.337
0.174,0.041,0.236,-5.337
0.137,0.043,0.235,-5.337
0.184,0.041,0.236,-5.337
0.222,0.040,0.236,-5.337
0.218,0.037,0.239,-5.337
0.178,0.039,0.240,-5.337
0.118,0.041,0.242,-5.337
0.151,0.039,0.240,-5.337
0.187,0.040,0.242,-5.337
0.213,0.041,0.244,-5.337
0.233,0.041,0.243,-5.337
0.236,0.039,0.242,-5.337
0.200,0.042,0.242,-5.337
0.161,0.040,0.240,-5.337
0.227,0.037,0.239,-5.337
0.250,0.039,0.239,-5.337
0.233,0.042,0.242,-5.337
0.209,0.042,0.241,-5.337
0.238,0.042,0.239,-5.337
0.241,0.046,0.239,-5.337
0.149,0.050,0.239,-5.337
0.126,0.048,0.239,-5.337
0.171,0.042,0.241,-5.337
0.225,0.040,0.239,-5.337
0.236,0.042,0.237,-5.337
0.229,0.044,0.239,-5.337
0.220,0.042,0.241,-5.337
0.213,0.038,0.240,-5.337
0.259,0.038,0.238,-5.337
0.276,0.041,0.240,-5.337
0.226,0.042,0.239,-5.337
0.222,0.040,0.241,-5.337
0.283,0.036,0.241,-5.337
0.316,0.039,0.240,-5.337
0.197,0.046,0.237,-5.337
0.146,0.045,0.239,-5.337
0.162,0.042,0.240,-5.337
0.191,0.046,0.239,-5.337
0.167,0.043,0.238,-5.337
0.138,0.045,0.237,-5.337
0.116,0.045,0.240,-5.337
0.134,0.044,0.244,-5.337
0.172,0.048,0.245,-5.337
0.186,0.049,0.242,-5.337
0.194,0.050,0.239,-5.337
0.163,0.047,0.240,-5.337
0.124,0.044,0.241,-5.337
0.083,0.046,0.239,-5.337
0.124,0.048,0.238,-5.337
0.186,0.044,0.238,-5.337
0.204,0.042,0.238,-5.337
0.197,0.044,0.236,-5.337
0.192,0.045,0.235,-5.337
0.177,0.044,0.235,-5.337
0.203,0.042,0.238,-5.337
0.233,0.041,0.244,-5.337
0.214,0.044,0.249,-5.337
0.174,0.042,0.246,-5.337
0.117,0.041,0.241,-5.337
0.110,0.044,0.237,-5.337
0.168,0.047,0.236,-5.337
0.155,0.045,0.237,-5.337
0.143,0.040,0.240,-5.337
0.156,0.037,0.241,-5.337
0.159,0.040,0.238,-5.337
0.197,0.041,0.233,-5.337
0.236,0.044,0.234,-5.337
0.251,0.047,0.238,-5.337
0.208,0.048,0.241,-5.337
0.188,0.047,0.239,-5.337
0.153,0.048,0.238,-5.337
0.107,0.047,0.239,-5.337
0.165,0.048,0.238,-5.337
0.202,0.045,0.239,-5.337
0.172,0.043,0.238,-5.337
0.180,0.044,0.240,-5.337
0.150,0.047,0.240,-5.337
0.144,0.045,0.243,-5.337
0.214,0.043,0.243,-5.337
0.306,0.040,0.242,-5.337
0.329,0.041,0.239,-5.337
0.298,0.041,0.240,-5.337
0.258,0.042,0.237,-5.337
0.237,0.044,0.237,-5.337
0.253,0.043,0.236,-5.337
0.135,0.046,0.235,-5.337
0.122,0.045,0.233,-5.337
0.233,0.044,0.233,-5.337
0.276,0.042,0.238,-5.337
0.219,0.045,0.243,-5.337
0.193,0.048,0.241,-5.337
0.183,0.050,0.241,-5.337
0.154,0.048,0.238,-5.337
0.160,0.045,0.237,-5.337
0.129,0.047,0.240,-5.337
0.173,0.048,0.239,-5.337
0.158,0.052,0.234,-5.337
0.127,0.051,0.233,-5.337
0.183,0.047,0.239,-5.337
0.180,0.049,0.242,-5.337
0.130,0.052,0.244,-5.337
0.158,0.049,0.242,-5.337
0.149,0.049,0.243,-5.337
0.189,0.051,0.241,-5.337
0.292,0.048,0.238,-5.337
0.260,0.045,0.233,-5.337
0.204,0.048,0.237,-5.337
0.226,0.048,0.242,-5.337
0.205,0.047,0.242,-5.337
0.186,0.044,0.237,-5.337
0.143,0.048,0.236,-5.337
0.117,0.047,0.237,-5.337
0.142,0.046,0.237,-5.337
0.171,0.047,0.235,-5.337
0.179,0.048,0.237,-5.337
0.180,0.044,0.239,-5.337
0.144,0.046,0.242,-5.337
0.092,0.049,0.236,-5.337
0.188,0.046,0.231,-5.337
0.266,0.047,0.234,-5.337
0.228,0.047,0.242,-5.337
0.238,0.049,0.244,-5.337
0.280,0.047,0.240,-5.337
0.309,0.045,0.239,-5.337
0.268,0.047,0.242,-5.337
0.177,0.048,0.244,-5.337
0.137,0.047,0.241,-5.337
0.179,0.046,0.239,-5.337
0.179,0.046,0.239,-5.337
0.175,0.045,0.242,-5.337
0.155,0.043,0.241,-5.337
0.180,0.043,0.241,-5.337
0.207,0.043,0.241,-5.337
0.195,0.045,0.242,-5.337
0.195,0.045,0.238,-5.337
0.194,0.049,0.235,-5.337
0.157,0.051,0.236,-5.337
0.121,0.053,0.240,-5.337
0.121,0.051,0.239,-5.337
0.157,0.050,0.239,-5.337
0.154,0.052,0.240,-5.337
0.161,0.052,0.242,-5.337
0.192,0.047,0.242,-5.337
0.253,0.049,0.242,-5.337
0.268,0.049,0.238,-5.337
0.238,0.046,0.238,-5.337
0.261,0.045,0.240,-5.337
0.262,0.049,0.241,-5.337
0.173,0.053,0.241,-5.337
0.127,0.054,0.239,-5.337
0.195,0.050,0.239,-5.337
0.272,0.045,0.239,-5.337
0.247,0.042,0.240,-5.337
0.288,0.048,0.242,-5.337
0.281,0.051,0.244,-5.337
0.222,0.050,0.244,-5.337
0.209,0.053,0.244,-5.337
0.227,0.052,0.241,-5.337
0.261,0.052,0.237,-5.337
0.208,0.053,0.234,-5.337
0.151,0.050,0.235,-5.337
0.241,0.043,0.236,-5.337
0.286,0.045,0.236,-5.337
0.179,0.050,0.233,-5.337
0.163,0.050,0.236,-5.337
0.263,0.048,0.242,-5.337
0.268,0.050,0.246,-5.337
0.209,0.051,0.242,-5.337
0.259,0.048,0.240,-5.337
0.271,0.050,0.240,-5.337
0.286,0.050,0.239,-5.337
0.242,0.052,0.241,-5.337
0.173,0.055,0.245,-5.337
0.168,0.056,0.245,-5.337
0.153,0.059,0.239,-5.337
0.135,0.059,0.235,-5.337
0.188,0.059,0.233,-5.337
0.242,0.060,0.238,-5.337
0.255,0.059,0.240,-5.337
0.207,0.057,0.241,-5.337
0.240,0.056,0.238,-5.337
0.258,0.058,0.236,-5.337
0.161,0.058,0.235,-5.337
0.117,0.062,0.239,-5.337
0.189,0.059,0.243,-5.337
0.167,0.058,0.246,-5.337
0.127,0.056,0.244,-5.337
0.145,0.058,0.243,-5.337
0.094,0.059,0.241,-5.337
0.092,0.057,0.238,-5.337
0.107,0.056,0.237,-5.337
0.141,0.058,0.239,-5.337
0.155,0.057,0.238,-5.337
0.207,0.054,0.239,-5.337
0.206,0.054,0.241,-5.337
0.225,0.055,0.238,-5.337
0.216,0.055,0.236,-5.337
0.188,0.053,0.237,-5.337
0.201,0.051,0.238,-5.337
0.223,0.055,0.236,-5.337
0.257,0.055,0.238,-5.337
0.309,0.054,0.237,-5.337
0.249,0.055,0.237,-5.337
0.196,0.056,0.238,-5.337
0.154,0.056,0.241,-5.337
0.155,0.059,0.242,-5.337
0.162,0.062,0.242,-5.337
0.260,0.056,0.240,-5.337
0.266,0.054,0.237,-5.337
0.204,0.054,0.237,-5.337
0.130,0.059,0.239,-5.337
0.188,0.057,0.241,-5.337
0.230,0.055,0.240,-5.337
0.185,0.054,0.240,-5.337
0.184,0.056,0.240,-5.337
0.171,0.058,0.238,-5.337
0.144,0.059,0.239,-5.337
0.193,0.054,0.242,-5.337
0.195,0.055,0.243,-5.337
0.190,0.053,0.238,-5.337
0.155,0.057,0.233,-5.337
0.127,0.061,0.233,-5.337
0.155,0.054,0.236,-5.337
0.222,0.048,0.243,-5.337
0.248,0.052,0.244,-5.337
0.226,0.054,0.242,-5.337
0.234,0.055,0.239,-5.337
0.282,0.056,0.240,-5.337
0.211,0.058,0.240,-5.337
0.133,0.056,0.241,-5.337
0.205,0.053,0.239,-5.337
0.270,0.056,0.237,-5.337
0.176,0.063,0.236,-5.337
0.175,0.063,0.236,-5.337
0.263,0.058,0.239,-5.337
0.313,0.059,0.241,-5.337
0.354,0.058,0.240,-5.337
0.344,0.061,0.242,-5.337
0.238,0.063,0.243,-5.337
0.162,0.063,0.243,-5.337
0.178,0.061,0.244,-5.337
0.243,0.056,0.244,-5.337
0.161,0.056,0.239,-5.337
0.135,0.055,0.237,-5.337
0.188,0.053,0.242,-5.337
0.150,0.054,0.246,-5.337
0.100,0.054,0.246,-5.337
0.175,0.054,0.245,-5.337
0.280,0.049,0.241,-5.337
0.221,0.047,0.238,-5.337
0.184,0.053,0.240,-5.337
0.186,0.054,0.239,-5.337
0.204,0.052,0.238,-5.337
0.244,0.049,0.238,-5.337
0.270,0.049,0.238,-5.337
0.261,0.050,0.237,-5.337
0.242,0.049,0.240,-5.337
0.218,0.051,0.240,-5.337
0.213,0.055,0.240,-5.337
0.217,0.051,0.240,-5.337
0.212,0.050,0.240,-5.337
0.169,0.049,0.240,-5.337
0.184,0.049,0.241,-5.337
0.259,0.048,0.242,-5.337
0.292,0.049,0.242,-5.337
0.238,0.048,0.242,-5.337
0.246,0.049,0.244,-5.337
0.297,0.045,0.240,-5.337
0.265,0.043,0.237,-5.337
0.276,0.046,0.239,-5.337
0.230,0.048,0.243,-5.337
0.137,0.050,0.243,-5.337
0.069,0.053,0.238,-5.337
0.098,0.050,0.231,-5.337
0.204,0.047,0.231,-5.337
0.293,0.046,0.235,-5.337
0.241,0.049,0.238,-5.337
0.117,0.050,0.240,-5.337
0.137,0.047,0.239,-5.337
0.129,0.048,0.240,-5.337
0.130,0.047,0.237,-5.337
0.159,0.046,0.238,-5.337
0.174,0.050,0.243,-5.337
0.167,0.050,0.244,-5.337
0.159,0.046,0.239,-5.337
0.185,0.046,0.237,-5.337
0.157,0.047,0.237,-5.337
0.192,0.046,0.238,-5.337
0.230,0.044,0.243,-5.337
0.157,0.044,0.247,-5.337
0.126,0.046,0.245,-5.337
0.167,0.044,0.240,-5.337
0.208,0.041,0.237,-5.337
0.257,0.042,0.237,-5.337
0.260,0.044,0.237,-5.337
0.230,0.047,0.236,-5.337
0.243,0.048,0.236,-5.337
0.208,0.051,0.236,-5.337
0.203,0.052,0.238,-5.337
0.255,0.049,0.240,-5.337
0.304,0.046,0.243,-5.337
0.272,0.049,0.243,-5.337
0.184,0.051,0.242,-5.337
0.193,0.050,0.239,-5.337
0.250,0.046,0.241,-5.337
0.227,0.048,0.239,-5.337
0.140,0.048,0.241,-5.337
0.113,0.050,0.242,-5.337
0.121,0.054,0.241,-5.337
0.141,0.054,0.240,-5.337
0.209,0.053,0.240,-5.337
0.229,0.051,0.237,-5.337
0.169,0.052,0.238,-5.337
0.179,0.047,0.241,-5.337
0.183,0.045,0.242,-5.337
0.168,0.044,0.240,-5.337
0.210,0.046,0.241,-5.337
0.203,0.048,0.239,-5.337
0.227,0.047,0.239,-5.337
0.239,0.046,0.242,-5.337
0.150,0.045,0.246,-5.337
0.178,0.046,0.243,-5.337
0.224,0.044,0.239,-5.337
0.221,0.044,0.236,-5.337
0.205,0.042,0.235,-5.337
0.178,0.041,0.233,-5.337
0.207,0.045,0.233,-5.337
0.162,0.046,0.238,-5.337
0.050,0.044,0.240,-5.337
0.084,0.043,0.242,-5.337
0.188,0.042,0.242,-5.337
0.179,0.041,0.245,-5.337
0.126,0.038,0.244,-5.337
0.088,0.039,0.238,-5.337
0.118,0.040,0.234,-5.337
0.180,0.037,0.235,-5.337
0.186,0.037,0.241,-5.337
0.154,0.042,0.244,-5.337
0.166,0.042,0.243,-5.337
0.144,0.045,0.241,-5.337
0.139,0.043,0.240,-5.337
0.205,0.043,0.244,-5.337
0.208,0.043,0.244,-5.337
0.179,0.042,0.241,-5.337
0.133,0.044,0.236,-5.337
0.111,0.043,0.234,-5.337
0.175,0.042,0.235,-5.337
0.206,0.043,0.239,-5.337
0.172,0.042,0.240,-5.337
0.193,0.042,0.239,-5.337
0.239,0.043,0.243,-5.337
0.217,0.045,0.245,-5.337
0.138,0.045,0.242,-5.337
0.078,0.042,0.234,-5.337
0.102,0.039,0.231,-5.337
0.205,0.036,0.230,-5.337
0.260,0.036,0.234,-5.337
0.200,0.039,0.235,-5.337
0.137,0.040,0.236,-5.337
0.220,0.037,0.240,-5.337
0.280,0.035,0.245,-5.337
0.186,0.038,0.242,-5.337
0.150,0.036,0.238,-5.337
0.227,0.036,0.233,-5.337
0.256,0.039,0.233,-5.337
0.258,0.038,0.237,-5.337
0.198,0.038,0.236,-5.337
0.162,0.037,0.236,-5.337
0.216,0.035,0.237,-5.337
0.190,0.038,0.239,-5.337
0.176,0.037,0.242,-5.337
0.104,0.040,0.244,-5.337
0.063,0.041,0.242,-5.337
0.052,0.039,0.237,-5.337
0.148,0.034,0.233,-5.337
0.204,0.037,0.237,-5.337
0.195,0.039,0.242,-5.337
0.122,0.039,0.242,-5.337
0.153,0.038,0.239,-5.337
0.147,0.040,0.241,-5.337
0.149,0.038,0.241,-5.337
0.177,0.036,0.240,-5.337
0.161,0.036,0.238,-5.337
0.129,0.037,0.236,-5.337
0.069,0.039,0.234,-5.337
0.139,0.034,0.240,-5.337
0.207,0.033,0.244,-5.337
0.179,0.036,0.242,-5.337
0.206,0.037,0.235,-5.337
0.247,0.036,0.235,-5.337
0.199,0.037,0.238,-5.337
0.158,0.034,0.241,-5.337
0.221,0.033,0.242,-5.337
0.239,0.032,0.242,-5.337
0.248,0.031,0.239,-5.337
0.162,0.031,0.236,-5.337
0.141,0.036,0.237,-5.337
0.125,0.037,0.241,-5.337
0.147,0.034,0.239,-5.337
0.177,0.029,0.238,-5.337
0.181,0.030,0.239,-5.337
0.143,0.033,0.240,-5.337
0.175,0.034,0.242,-5.337
0.288,0.033,0.240,-5.337
0.333,0.034,0.239,-5.337
0.240,0.030,0.240,-5.337
0.147,0.030,0.243,-5.337
0.187,0.028,0.242,-5.337
0.224,0.032,0.238,-5.337
0.197,0.033,0.234,-5.337
0.168,0.033,0.235,-5.337
0.159,0.033,0.239,-5.337
0.081,0.037,0.244,-5.337
0.068,0.037,0.242,-5.337
0.181,0.033,0.239,-5.337
0.286,0.031,0.240,-5.337
0.232,0.036,0.243,-5.337
0.111,0.038,0.242,-5.337
0.199,0.034,0.240,-5.337
0.293,0.033,0.240,-5.337
0.316,0.035,0.239,-5.337
0.228,0.036,0.239,-5.337
0.152,0.035,0.239,-5.337
0.189,0.032,0.240,-5.337
0.260,0.030,0.241,-5.337
0.279,0.031,0.244,-5.337
0.173,0.031,0.243,-5.337
0.124,0.032,0.242,-5.337
0.178,0.031,0.241,-5.337
0.209,0.033,0.240,-5.337
0.235,0.032,0.242,-5.337
0.224,0.033,0.243,-5.337
0.199,0.034,0.243,-5.337
0.165,0.036,0.242,-5.337
0.099,0.036,0.239,-5.337
0.154,0.032,0.235,-5.337
0.198,0.027,0.234,-5.337
0.174,0.029,0.236,-5.337
0.149,0.031,0.237,-5.337
0.179,0.031,0.238,-5.337
0.170,0.031,0.239,-5.337
0.142,0.031,0.240,-5.337
0.163,0.028,0.240,-5.337
0.172,0.031,0.242,-5.337
0.221,0.031,0.239,-5.337
0.249,0.029,0.238,-5.337
0.211,0.030,0.238,-5.337
0.218,0.032,0.239,-5.337
0.214,0.031,0.243,-5.337
0.139,0.036,0.244,-5.337
0.121,0.037,0.244,-5.337
0.120,0.036,0.239,-5.337
0.155,0.034,0.239,-5.337
0.233,0.032,0.240,-5.337
0.267,0.036,0.241,-5.337
0.183,0.038,0.243,-5.337
0.110,0.036,0.242,-5.337
0.150,0.030,0.237,-5.337
0.213,0.032,0.234,-5.337
0.152,0.034,0.236,-5.337
0.163,0.036,0.237,-5.337
0.207,0.032,0.238,-5.337
0.199,0.031,0.238,-5.337
0.129,0.032,0.236,-5.337
0.138,0.033,0.236,-5.337
0.171,0.030,0.238,-5.337
0.158,0.028,0.237,-5.337
0.148,0.026,0.237,-5.337
0.146,0.028,0.236,-5.337
0.129,0.027,0.240,-5.337
0.110,0.030,0.242,-5.337
0.143,0.032,0.238,-5.337
0.145,0.029,0.237,-5.337
0.134,0.031,0.240,-5.337
0.162,0.028,0.240,-5.337
0.225,0.025,0.239,-5.337
0.232,0.024,0.238,-5.337
0.185,0.024,0.240,-5.337
0.203,0.022,0.241,-5.337
0.211,0.026,0.238,-5.337
0.171,0.029,0.238,-5.337
0.182,0.028,0.239,-5.337
0.225,0.026,0.242,-5.337
0.225,0.028,0.243,-5.337
0.191,0.029,0.242,-5.337
0.206,0.029,0.241,-5.337
0.172,0.031,0.239,-5.337
0.175,0.029,0.240,-5.337
0.232,0.029,0.239,-5.337
0.225,0.031,0.241,-5.337
0.191,0.031,0.241,-5.337
0.220,0.030,0.240,-5.337
0.261,0.029,0.236,-5.337
0.241,0.030,0.235,-5.337
0.149,0.036,0.237,-5.337
0.124,0.035,0.236,-5.337
0.166,0.031,0.239,-5.337
0.215,0.031,0.240,-5.337
0.152,0.035,0.240,-5.337
0.127,0.034,0.238,-5.337
0.203,0.032,0.242,-5.337
0.213,0.030,0.241,-5.337
0.182,0.033,0.242,-5.337
0.167,0.032,0.243,-5.337
0.151,0.031,0.242,-5.337
0.139,0.028,0.237,-5.337
0.192,0.029,0.236,-5.337
0.190,0.026,0.239,-5.337
0.231,0.029,0.243,-5.337
0.217,0.029,0.243,-5.337
0.247,0.027,0.242,-5.337
0.261,0.026,0.241,-5.337
0.256,0.029,0.244,-5.337
0.226,0.030,0.245,-5.337
0.253,0.031,0.243,-5.337
0.242,0.034,0.239,-5.337
0.214,0.036,0.238,-5.337
0.181,0.038,0.240,-5.337
0.160,0.034,0.243,-5.337
0.154,0.032,0.241,-5.337
0.170,0.030,0.238,-5.337
0.235,0.030,0.241,-5.337
0.263,0.030,0.243,-5.337
0.248,0.028,0.245,-5.337
0.282,0.027,0.246,-5.337
0.249,0.029,0.247,-5.337
0.178,0.031,0.240,-5.337
0.121,0.033,0.235,-5.337
0.130,0.033,0.234,-5.337
0.103,0.037,0.237,-5.337
0.183,0.036,0.242,-5.337
0.238,0.033,0.247,-5.337
0.240,0.031,0.246,-5.337
0.259,0.035,0.242,-5.337
0.258,0.036,0.239,-5.337
0.179,0.038,0.240,-5.337
0.131,0.036,0.240,-5.337
0.211,0.034,0.242,-5.337
0.274,0.030,0.245,-5.337
0.280,0.032,0.245,-5.337
0.237,0.034,0.242,-5.337
0.211,0.038,0.239,-5.337
0.142,0.037,0.234,-5.337
0.180,0.035,0.235,-5.337
0.211,0.037,0.237,-5.337
0.131,0.041,0.238,-5.337
0.128,0.038,0.240,-5.337
0.250,0.036,0.238,-5.337
0.292,0.035,0.240,-5.337
0.215,0.039,0.242,-5.337
0.197,0.037,0.245,-5.337
0.217,0.039,0.247,-5.337
0.204,0.039,0.246,-5.337
0.229,0.033,0.239,-5.337
0.158,0.034,0.236,-5.337
0.131,0.034,0.238,-5.337
0.218,0.035,0.241,-5.337
0.220,0.036,0.242,-5.337
0.155,0.038,0.241,-5.337
0.168,0.040,0.239,-5.337
0.206,0.039,0.238,-5.337
0.280,0.037,0.239,-5.337
0.271,0.035,0.239,-5.337
0.199,0.039,0.242,-5.337
0.182,0.039,0.241,-5.337
0.194,0.040,0.239,-5.337
0.175,0.040,0.240,-5.337
0.156,0.040,0.239,-5.337
0.165,0.042,0.238,-5.337
0.178,0.042,0.241,-5.337
0.170,0.043,0.242,-5.337
0.189,0.041,0.242,-5.337
0.254,0.041,0.243,-5.337
0.230,0.040,0.245,-5.337
0.199,0.042,0.238,-5.337
0.205,0.043,0.233,-5.337
0.219,0.042,0.235,-5.337
0.183,0.045,0.242,-5.337
0.175,0.043,0.242,-5.337
0.152,0.048,0.241,-5.337
0.183,0.047,0.240,-5.337
0.184,0.046,0.241,-5.337
0.141,0.046,0.240,-5.337
0.135,0.047,0.242,-5.337
0.167,0.046,0.240,-5.337
0.219,0.043,0.239,-5.337
0.191,0.043,0.239,-5.337
0.181,0.039,0.241,-5.337
0.185,0.038,0.236,-5.337
0.206,0.040,0.233,-5.337
0.205,0.039,0.238,-5.337
0.148,0.041,0.243,-5.337
0.116,0.044,0.244,-5.337
0.222,0.039,0.244,-5.337
0.316,0.040,0.241,-5.337
0.264,0.042,0.238,-5.337
0.187,0.038,0.236,-5.337
0.140,0.037,0.238,-5.337
0.151,0.036,0.238,-5.337
0.210,0.036,0.240,-5.337
0.235,0.037,0.243,-5.337
0.174,0.037,0.241,-5.337
0.198,0.039,0.241,-5.337
0.178,0.042,0.238,-5.337
0.085,0.047,0.235,-5.337
0.090,0.045,0.237,-5.337
0.142,0.043,0.242,-5.337
0.200,0.042,0.243,-5.337
0.283,0.042,0.241,-5.337
0.256,0.043,0.241,-5.337
0.177,0.042,0.243,-5.337
0.232,0.040,0.242,-5.337
0.275,0.040,0.244,-5.337
0.281,0.040,0.245,-5.337
0.223,0.039,0.245,-5.337
0.172,0.039,0.242,-5.337
0.222,0.039,0.237,-5.337
0.273,0.038,0.236,-5.337
0.196,0.042,0.237,-5.337
0.102,0.046,0.239,-5.337
0.117,0.046,0.238,-5.337
0.180,0.042,0.237,-5.337
0.228,0.044,0.236,-5.337
0.212,0.043,0.236,-5.337
0.220,0.041,0.235,-5.337
0.188,0.042,0.241,-5.337
0.164,0.042,0.242,-5.337
0.182,0.042,0.243,-5.337
0.273,0.042,0.240,-5.337
0.276,0.042,0.235,-5.337
0.228,0.042,0.236,-5.337
0.247,0.045,0.237,-5.337
0.230,0.046,0.240,-5.337
0.222,0.045,0.238,-5.337
0.269,0.042,0.241,-5.337
0.294,0.042,0.242,-5.337
0.230,0.048,0.239,-5.337
0.200,0.049,0.235,-5.337
0.170,0.050,0.235,-5.337
0.183,0.049,0.240,-5.337
0.180,0.046,0.241,-5.337
0.180,0.043,0.242,-5.337
0.185,0.045,0.243,-5.337
0.192,0.042,0.243,-5.337
0.198,0.043,0.241,-5.337
0.277,0.043,0.236,-5.337
0.258,0.045,0.237,-5.337
0.216,0.047,0.241,-5.337
0.172,0.049,0.244,-5.337
0.155,0.050,0.244,-5.337
0.225,0.045,0.246,-5.337
0.219,0.043,0.241,-5.337
0.150,0.049,0.239,-5.337
0.256,0.041,0.239,-5.337
0.318,0.040,0.242,-5.337
0.280,0.043,0.242,-5.337
0.235,0.042,0.240,-5.337
0.207,0.041,0.237,-5.337
0.243,0.044,0.238,-5.337
0.238,0.048,0.240,-5.337
0.177,0.050,0.243,-5.337
0.191,0.046,0.241,-5.337
0.202,0.046,0.238,-5.337
0.184,0.046,0.238,-5.337
0.182,0.046,0.235,-5.337
0.196,0.047,0.236,-5.337
0.197,0.048,0.244,-5.337
0.146,0.050,0.244,-5.337
0.114,0.051,0.241,-5.337
0.164,0.048,0.239,-5.337
0.201,0.049,0.239,-5.337
0.214,0.052,0.241,-5.337
0.237,0.050,0.242,-5.337
0.273,0.050,0.243,-5.337
0.234,0.051,0.242,-5.337
0.185,0.052,0.243,-5.337
0.159,0.053,0.242,-5.337
0.219,0.054,0.243,-5.337
0.214,0.054,0.243,-5.337
0.184,0.057,0.244,-5.337
0.221,0.052,0.238,-5.337
0.252,0.050,0.235,-5.337
0.194,0.048,0.238,-5.337
0.161,0.049,0.240,-5.337
0.177,0.047,0.244,-5.337
0.243,0.045,0.250,-5.337
0.328,0.047,0.246,-5.337
0.273,0.053,0.242,-5.337
0.179,0.053,0.241,-5.337
0.158,0.051,0.242,-5.337
0.163,0.052,0.244,-5.337
0.161,0.052,0.239,-5.337
0.248,0.052,0.233,-5.337
0.238,0.055,0.232,-5.337
0.159,0.056,0.237,-5.337
0.208,0.056,0.242,-5.337
0.224,0.055,0.245,-5.337
0.162,0.058,0.247,-5.337
0.171,0.056,0.243,-5.337
0.203,0.052,0.237,-5.337
0.247,0.050,0.239,-5.337
0.274,0.053,0.239,-5.337
0.265,0.054,0.239,-5.337
0.237,0.054,0.239,-5.337
0.233,0.056,0.239,-5.337
0.200,0.058,0.238,-5.337
0.142,0.060,0.240,-5.337
0.126,0.059,0.239,-5.337
0.230,0.054,0.241,-5.337
0.207,0.054,0.242,-5.337
0.180,0.054,0.239,-5.337
0.243,0.051,0.239,-5.337
0.186,0.053,0.241,-5.337
0.148,0.050,0.241,-5.337
0.165,0.055,0.240,-5.337
0.171,0.055,0.241,-5.337
0.198,0.051,0.243,-5.337
0.217,0.051,0.239,-5.337
0.180,0.052,0.235,-5.337
0.183,0.055,0.241,-5.337
0.212,0.050,0.243,-5.337
0.260,0.050,0.238,-5.337
0.263,0.053,0.235,-5.337
0.248,0.054,0.238,-5.337
0.222,0.055,0.237,-5.337
0.209,0.054,0.238,-5.337
0.182,0.055,0.236,-5.337
0.150,0.055,0.243,-5.337
0.198,0.052,0.243,-5.337
0.237,0.049,0.240,-5.337
0.211,0.049,0.237,-5.337
0.151,0.056,0.236,-5.337
0.115,0.053,0.237,-5.337
0.177,0.052,0.238,-5.337
0.300,0.050,0.242,-5.337
0.356,0.051,0.243,-5.337
0.281,0.054,0.240,-5.337
0.236,0.054,0.239,-5.337
0.198,0.053,0.234,-5.337
0.245,0.052,0.232,-5.337
0.315,0.053,0.239,-5.337
0.298,0.052,0.243,-5.337
0.270,0.049,0.242,-5.337
0.202,0.047,0.241,-5.337
0.167,0.048,0.243,-5.337
0.182,0.052,0.243,-5.337
0.092,0.054,0.244,-5.337
0.109,0.051,0.239,-5.337
0.192,0.054,0.236,-5.337
0.201,0.054,0.235,-5.337
0.208,0.050,0.238,-5.337
0.179,0.052,0.239,-5.337
0.183,0.054,0.240,-5.337
0.193,0.055,0.240,-5.337
0.123,0.057,0.242,-5.337
0.190,0.053,0.242,-5.337
0.231,0.054,0.243,-5.337
0.301,0.052,0.243,-5.337
0.251,0.053,0.241,-5.337
0.198,0.050,0.239,-5.337
0.219,0.046,0.238,-5.337
0.250,0.044,0.237,-5.337
0.267,0.048,0.237,-5.337
0.263,0.048,0.238,-5.337
0.190,0.051,0.238,-5.337
0.129,0.050,0.236,-5.337
0.180,0.047,0.236,-5.337
0.265,0.045,0.238,-5.337
0.272,0.049,0.240,-5.337
0.141,0.051,0.240,-5.337
0.101,0.048,0.242,-5.337
0.204,0.046,0.247,-5.337
0.271,0.048,0.246,-5.337
0.229,0.048,0.243,-5.337
0.217,0.042,0.236,-5.337
0.275,0.044,0.237,-5.337
0.284,0.047,0.238,-5.337
0.156,0.046,0.242,-5.337
0.058,0.047,0.241,-5.337
0.115,0.046,0.242,-5.337
0.228,0.042,0.241,-5.337
0.244,0.046,0.239,-5.337
0.212,0.046,0.237,-5.337
0.201,0.043,0.235,-5.337
0.234,0.041,0.238,-5.337
0.273,0.042,0.240,-5.337
0.265,0.045,0.242,-5.337
0.211,0.045,0.243,-5.337
0.174,0.044,0.240,-5.337
0.208,0.044,0.238,-5.337
0.242,0.045,0.239,-5.337
0.245,0.043,0.242,-5.337
0.281,0.038,0.244,-5.337
0.250,0.043,0.242,-5.337
0.195,0.047,0.242,-5.337
0.209,0.048,0.242,-5.337
0.154,0.046,0.242,-5.337
0.138,0.046,0.241,-5.337
0.144,0.048,0.239,-5.337
0.204,0.043,0.239,-5.337
0.286,0.041,0.240,-5.337
0.336,0.039,0.238,-5.337
0.324,0.042,0.238,-5.337
0.206,0.043,0.236,-5.337
0.111,0.042,0.240,-5.337
0.166,0.039,0.243,-5.337
0.226,0.041,0.245,-5.337
0.200,0.039,0.241,-5.337
0.188,0.042,0.237,-5.337
0.203,0.041,0.236,-5.337
0.165,0.041,0.240,-5.337
0.169,0.040,0.245,-5.337
0.190,0.038,0.246,-5.337
0.181,0.041,0.244,-5.337
0.167,0.044,0.248,-5.337
0.174,0.044,0.250,-5.337
0.177,0.039,0.249,-5.337
0.208,0.036,0.244,-5.337
0.188,0.036,0.239,-5.337
0.193,0.039,0.237,-5.337
0.219,0.040,0.235,-5.337
0.243,0.038,0.239,-5.337
0.209,0.039,0.243,-5.337
0.147,0.042,0.242,-5.337
0.154,0.042,0.239,-5.337
0.217,0.039,0.239,-5.337
0.264,0.038,0.238,-5.337
0.248,0.035,0.240,-5.337
0.240,0.033,0.239,-5.337
0.248,0.036,0.240,-5.337
0.157,0.040,0.238,-5.337
0.088,0.041,0.238,-5.337
0.175,0.037,0.238,-5.337
0.219,0.036,0.238,-5.337
0.203,0.033,0.241,-5.337
0.104,0.035,0.240,-5.337
0.070,0.035,0.237,-5.337
0.142,0.034,0.236,-5.337
0.191,0.032,0.239,-5.337
0.227,0.033,0.242,-5.337
0.276,0.034,0.243,-5.337
0.226,0.038,0.242,-5.337
0.178,0.037,0.239,-5.337
0.179,0.036,0.241,-5.337
0.219,0.039,0.244,-5.337
0.232,0.038,0.243,-5.337
0.198,0.035,0.243,-5.337
0.172,0.032,0.241,-5.337
0.169,0.034,0.236,-5.337
0.187,0.034,0.231,-5.337
0.219,0.037,0.233,-5.337
0.158,0.036,0.235,-5.337
0.137,0.037,0.239,-5.337
0.156,0.037,0.241,-5.337
0.151,0.038,0.241,-5.337
0.175,0.035,0.239,-5.337
0.229,0.031,0.243,-5.337
0.251,0.031,0.246,-5.337
0.271,0.031,0.246,-5.337
0.249,0.032,0.244,-5.337
0.227,0.034,0.242,-5.337
0.145,0.036,0.238,-5.337
0.065,0.038,0.233,-5.337
0.106,0.034,0.233,-5.337
0.164,0.032,0.240,-5.337
0.150,0.035,0.243,-5.337
0.220,0.035,0.244,-5.337
0.281,0.031,0.241,-5.337
0.275,0.033,0.240,-5.337
0.203,0.036,0.240,-5.337
0.164,0.036,0.241,-5.337
0.190,0.033,0.240,-5.337
0.191,0.032,0.238,-5.337
0.237,0.029,0.239,-5.337
0.217,0.032,0.240,-5.337
0.216,0.033,0.242,-5.337
0.185,0.035,0.240,-5.337
0.233,0.038,0.238,-5.337
0.246,0.038,0.237,-5.337
0.161,0.038,0.237,-5.337
0.173,0.035,0.235,-5.337
0.204,0.036,0.235,-5.337
0.165,0.036,0.239,-5.337
0.178,0.035,0.242,-5.337
0.207,0.034,0.243,-5.337
0.230,0.034,0.241,-5.337
0.286,0.032,0.237,-5.337
0.238,0.034,0.236,-5.337
0.164,0.033,0.239,-5.337
0.173,0.031,0.238,-5.337
0.180,0.030,0.240,-5.337
0.183,0.031,0.241,-5.337
0.185,0.027,0.240,-5.337
0.167,0.025,0.237,-5.337
0.156,0.026,0.239,-5.337
0.229,0.026,0.240,-5.337
0.241,0.025,0.241,-5.337
0.239,0.026,0.242,-5.337
0.178,0.030,0.245,-5.337
0.100,0.033,0.241,-5.337
0.167,0.031,0.237,-5.337
0.277,0.026,0.233,-5.337
0.236,0.029,0.233,-5.337
0.224,0.029,0.238,-5.337
0.193,0.029,0.241,-5.337
0.168,0.032,0.242,-5.337
0.150,0.032,0.243,-5.337
0.172,0.031,0.243,-5.337
0.177,0.033,0.238,-5.337
0.205,0.035,0.234,-5.337
0.167,0.034,0.235,-5.337
0.193,0.029,0.239,-5.337
0.207,0.030,0.241,-5.337
0.172,0.031,0.244,-5.337
0.165,0.031,0.246,-5.337
0.117,0.032,0.242,-5.337
0.102,0.035,0.238,-5.337
0.112,0.036,0.235,-5.337
0.186,0.035,0.236,-5.337
0.240,0.030,0.240,-5.337
0.210,0.031,0.243,-5.337
0.207,0.031,0.246,-5.337
0.241,0.032,0.243,-5.337
0.218,0.036,0.240,-5.337
0.175,0.032,0.238,-5.337
0.175,0.032,0.240,-5.337
0.219,0.035,0.243,-5.337
0.198,0.036,0.245,-5.337
0.215,0.036,0.245,-5.337
0.165,0.036,0.244,-5.337
0.110,0.028,0.241,-5.337
0.121,0.025,0.239,-5.337
0.185,0.026,0.240,-5.337
0.207,0.028,0.240,-5.337
0.201,0.029,0.238,-5.337
0.216,0.029,0.239,-5.337
0.204,0.023,0.239,-5.337
0.134,0.027,0.240,-5.337
0.114,0.028,0.240,-5.337
0.167,0.027,0.244,-5.337
0.117,0.026,0.244,-5.337
0.103,0.025,0.245,-5.337
0.148,0.025,0.243,-5.337
0.204,0.023,0.244,-5.337
0.199,0.024,0.241,-5.337
0.172,0.028,0.238,-5.337
0.155,0.028,0.238,-5.337
0.160,0.030,0.242,-5.337
0.150,0.034,0.244,-5.337
0.169,0.031,0.242,-5.337
0.185,0.030,0.243,-5.337
0.233,0.028,0.242,-5.337
0.259,0.029,0.243,-5.337
0.301,0.026,0.245,-5.337
0.245,0.028,0.245,-5.337
0.128,0.029,0.242,-5.337
0.172,0.030,0.241,-5.337
0.194,0.028,0.239,-5.337
0.174,0.029,0.239,-5.337
0.225,0.029,0.240,-5.337
0.295,0.031,0.237,-5.337
0.214,0.034,0.233,-5.337
0.110,0.034,0.238,-5.337
0.140,0.034,0.243,-5.337
0.184,0.034,0.243,-5.337
0.158,0.035,0.240,-5.337
0.112,0.036,0.239,-5.337
0.169,0.028,0.238,-5.337
0.260,0.027,0.239,-5.337
0.253,0.029,0.240,-5.337
0.228,0.025,0.241,-5.337
0.287,0.022,0.243,-5.337
0.260,0.029,0.240,-5.337
0.165,0.029,0.237,-5.337
0.169,0.029,0.237,-5.337
0.210,0.030,0.243,-5.337
0.137,0.033,0.247,-5.337
0.088,0.036,0.250,-5.337
0.082,0.034,0.246,-5.337
0.138,0.036,0.239,-5.337
0.169,0.034,0.233,-5.337
0.216,0.037,0.234,-5.337
0.236,0.036,0.237,-5.337
0.151,0.036,0.238,-5.337
0.132,0.032,0.240,-5.337
0.182,0.033,0.243,-5.337
0.229,0.032,0.243,-5.337
0.217,0.030,0.241,-5.337
0.213,0.031,0.240,-5.337
0.163,0.031,0.242,-5.337
0.178,0.031,0.245,-5.337
0.145,0.032,0.244,-5.337
0.133,0.032,0.242,-5.337
0.178,0.031,0.236,-5.337
0.181,0.033,0.236,-5.337
0.155,0.033,0.239,-5.337
0.143,0.033,0.241,-5.337
0.172,0.030,0.238,-5.337
0.199,0.032,0.236,-5.337
0.286,0.034,0.240,-5.337
0.269,0.040,0.245,-5.337
0.234,0.037,0.245,-5.337
0.265,0.038,0.241,-5.337
0.204,0.039,0.233,-5.337
0.155,0.038,0.235,-5.337
0.151,0.037,0.237,-5.337
0.145,0.040,0.241,-5.337
0.161,0.038,0.241,-5.337
0.166,0.042,0.238,-5.337
0.205,0.040,0.239,-5.337
0.229,0.041,0.241,-5.337
0.210,0.039,0.242,-5.337
0.127,0.040,0.240,-5.337
0.058,0.039,0.239,-5.337
0.102,0.038,0.241,-5.337
0.223,0.036,0.246,-5.337
0.227,0.037,0.246,-5.337
0.224,0.035,0.243,-5.337
0.236,0.035,0.239,-5.337
0.185,0.035,0.238,-5.337
0.105,0.035,0.236,-5.337
0.109,0.036,0.238,-5.337
0.170,0.034,0.238,-5.337
0.211,0.036,0.239,-5.337
0.299,0.033,0.237,-5.337
0.267,0.035,0.240,-5.337
0.158,0.033,0.241,-5.337
0.204,0.033,0.239,-5.337
0.244,0.032,0.240,-5.337
0.225,0.033,0.241,-5.337
0.233,0.035,0.243,-5.337
0.234,0.039,0.242,-5.337
0.221,0.039,0.239,-5.337
0.217,0.038,0.237,-5.337
0.166,0.037,0.239,-5.337
0.171,0.036,0.243,-5.337
0.207,0.035,0.245,-5.337
0.186,0.039,0.241,-5.337
0.124,0.040,0.240,-5.337
0.193,0.038,0.242,-5.337
0.209,0.037,0.243,-5.337
0.225,0.035,0.244,-5.337
0.192,0.032,0.244,-5.337
0.263,0.031,0.242,-5.337
0.287,0.038,0.241,-5.337
0.275,0.039,0.242,-5.337
0.224,0.038,0.246,-5.337
0.255,0.039,0.245,-5.337
0.254,0.037,0.246,-5.337
0.191,0.037,0.241,-5.337
0.220,0.036,0.234,-5.337
0.271,0.035,0.233,-5.337
0.269,0.035,0.239,-5.337
0.236,0.036,0.240,-5.337
0.174,0.036,0.243,-5.337
0.185,0.033,0.244,-5.337
0.224,0.035,0.243,-5.337
0.264,0.037,0.241,-5.337
0.239,0.042,0.243,-5.337
0.155,0.043,0.243,-5.337
0.126,0.044,0.241,-5.337
0.116,0.041,0.237,-5.337
0.187,0.040,0.239,-5.337
0.260,0.042,0.243,-5.337
0.240,0.040,0.243,-5.337
0.262,0.037,0.243,-5.337
0.228,0.040,0.245,-5.337
0.155,0.042,0.244,-5.337
0.068,0.043,0.243,-5.337
0.127,0.042,0.243,-5.337
0.220,0.040,0.242,-5.337
0.227,0.043,0.243,-5.337
0.234,0.042,0.242,-5.337
0.261,0.042,0.242,-5.337
0.232,0.042,0.241,-5.337
0.180,0.043,0.241,-5.337
0.176,0.044,0.242,-5.337
0.170,0.044,0.244,-5.337
0.175,0.041,0.244,-5.337
0.206,0.040,0.242,-5.337
0.224,0.037,0.240,-5.337
0.257,0.035,0.243,-5.337
0.225,0.037,0.243,-5.337
0.260,0.036,0.244,-5.337
0.285,0.036,0.245,-5.337
0.237,0.039,0.244,-5.337
0.250,0.040,0.242,-5.337
0.212,0.043,0.242,-5.337
0.197,0.039,0.243,-5.337
0.191,0.042,0.241,-5.337
0.190,0.043,0.239,-5.337
0.183,0.040,0.239,-5.337
0.173,0.040,0.241,-5.337
0.209,0.042,0.240,-5.337
0.217,0.041,0.243,-5.337
0.203,0.044,0.243,-5.337
0.160,0.046,0.241,-5.337
0.114,0.048,0.238,-5.337
0.152,0.047,0.236,-5.337
0.163,0.048,0.238,-5.337
0.161,0.049,0.244,-5.337
0.148,0.050,0.247,-5.337
0.196,0.050,0.245,-5.337
0.206,0.052,0.241,-5.337
0.178,0.053,0.240,-5.337
0.161,0.051,0.244,-5.337
0.153,0.051,0.244,-5.337
0.183,0.050,0.242,-5.337
0.180,0.051,0.241,-5.337
0.243,0.050,0.241,-5.337
0.261,0.053,0.240,-5.337
0.220,0.052,0.242,-5.337
0.193,0.052,0.239,-5.337
0.203,0.050,0.239,-5.337
0.187,0.049,0.242,-5.337
0.246,0.047,0.240,-5.337
0.264,0.042,0.235,-5.337
0.175,0.048,0.237,-5.337
0.112,0.050,0.241,-5.337
0.182,0.050,0.244,-5.337
0.216,0.051,0.242,-5.337
0.202,0.050,0.244,-5.337
0.161,0.049,0.243,-5.337
0.121,0.051,0.242,-5.337
0.180,0.051,0.238,-5.337
0.192,0.054,0.239,-5.337
0.202,0.052,0.240,-5.337
0.230,0.052,0.243,-5.337
0.230,0.052,0.247,-5.337
0.196,0.050,0.248,-5.337
0.233,0.047,0.243,-5.337
0.307,0.045,0.239,-5.337
0.267,0.047,0.238,-5.337
0.233,0.050,0.244,-5.337
0.212,0.050,0.250,-5.337
0.220,0.047,0.250,-5.337
0.204,0.047,0.245,-5.337
0.212,0.048,0.241,-5.337
0.240,0.045,0.238,-5.337
0.260,0.047,0.237,-5.337
0.229,0.052,0.237,-5.337
0.267,0.047,0.238,-5.337
0.292,0.049,0.241,-5.337
0.170,0.050,0.239,-5.337
0.133,0.049,0.239,-5.337
0.195,0.049,0.239,-5.337
0.210,0.048,0.241,-5.337
0.211,0.048,0.240,-5.337
0.214,0.050,0.235,-5.337
0.174,0.052,0.235,-5.337
0.202,0.050,0.243,-5.337
0.164,0.052,0.247,-5.337
0.164,0.054,0.244,-5.337
0.192,0.055,0.241,-5.337
0.221,0.056,0.243,-5.337
0.289,0.053,0.246,-5.337
0.208,0.055,0.243,-5.337
0.138,0.054,0.234,-5.337
0.166,0.054,0.231,-5.337
0.165,0.056,0.237,-5.337
0.176,0.055,0.243,-5.337
0.189,0.052,0.241,-5.337
0.234,0.052,0.240,-5.337
0.224,0.054,0.242,-5.337
0.267,0.052,0.241,-5.337
0.238,0.053,0.238,-5.337
0.154,0.056,0.239,-5.337
0.147,0.055,0.239,-5.337
0.182,0.053,0.235,-5.337
0.207,0.054,0.237,-5.337
0.215,0.051,0.240,-5.337
0.244,0.051,0.241,-5.337
0.242,0.052,0.241,-5.337
0.178,0.049,0.244,-5.337
0.147,0.048,0.246,-5.337
0.168,0.048,0.245,-5.337
0.210,0.049,0.244,-5.337
0.158,0.053,0.243,-5.337
0.156,0.051,0.241,-5.337
0.207,0.051,0.238,-5.337
0.192,0.053,0.238,-5.337
0.206,0.054,0.241,-5.337
0.200,0.054,0.244,-5.337
0.194,0.055,0.243,-5.337
0.188,0.053,0.240,-5.337
0.258,0.049,0.237,-5.337
0.261,0.051,0.238,-5.337
0.223,0.054,0.245,-5.337
0.190,0.055,0.244,-5.337
0.163,0.055,0.239,-5.337
0.159,0.055,0.241,-5.337
0.217,0.053,0.246,-5.337
0.189,0.054,0.246,-5.337
0.146,0.054,0.242,-5.337
0.220,0.049,0.238,-5.337
0.245,0.051,0.236,-5.337
0.244,0.054,0.236,-5.337
0.138,0.056,0.237,-5.337
0.068,0.057,0.242,-5.337
0.145,0.053,0.245,-5.337
0.234,0.050,0.248,-5.337
0.209,0.052,0.246,-5.337
0.173,0.052,0.243,-5.337
0.167,0.056,0.242,-5.337
0.201,0.057,0.239,-5.337
0.232,0.054,0.239,-5.337
0.242,0.052,0.240,-5.337
0.182,0.053,0.238,-5.337
0.092,0.053,0.240,-5.337
0.133,0.051,0.245,-5.337
0.201,0.051,0.245,-5.337
0.193,0.052,0.240,-5.337
0.189,0.053,0.237,-5.337
0.176,0.052,0.239,-5.337
0.211,0.051,0.242,-5.337
0.229,0.052,0.243,-5.337
0.235,0.049,0.242,-5.337
0.215,0.050,0.244,-5.337
0.210,0.050,0.244,-5.337
0.204,0.052,0.245,-5.337
0.219,0.056,0.245,-5.337
0.251,0.056,0.244,-5.337
0.242,0.053,0.241,-5.337
0.214,0.053,0.243,-5.337
0.209,0.054,0.245,-5.337
0.160,0.058,0.242,-5.337
0.142,0.056,0.239,-5.337
0.205,0.054,0.239,-5.337
0.301,0.050,0.239,-5.337
0.323,0.052,0.240,-5.337
0.235,0.055,0.240,-5.337
0.193,0.058,0.240,-5.337
0.217,0.053,0.239,-5.337
0.168,0.054,0.238,-5.337
0.178,0.057,0.239,-5.337
0.218,0.055,0.239,-5.337
0.242,0.054,0.239,-5.337
0.235,0.055,0.239,-5.337
0.238,0.053,0.239,-5.337
0.293,0.048,0.236,-5.337
0.371,0.043,0.237,-5.337
0.265,0.047,0.242,-5.337
0.178,0.052,0.245,-5.337
0.187,0.054,0.245,-5.337
0.184,0.053,0.244,-5.337
0.104,0.054,0.242,-5.337
0.166,0.050,0.240,-5.337
0.220,0.048,0.239,-5.337
0.219,0.051,0.243,-5.337
0.196,0.052,0.243,-5.337
0.186,0.050,0.237,-5.337
0.194,0.048,0.231,-5.337
0.152,0.048,0.232,-5.337
0.208,0.046,0.240,-5.337
0.242,0.046,0.246,-5.337
0.221,0.048,0.243,-5.337
0.187,0.050,0.239,-5.337
0.187,0.048,0.237,-5.337
0.137,0.051,0.240,-5.337
0.106,0.050,0.241,-5.337
0.064,0.051,0.239,-5.337
0.058,0.051,0.239,-5.337
0.097,0.054,0.237,-5.337
0.172,0.055,0.238,-5.337
0.234,0.054,0.241,-5.337
0.203,0.051,0.246,-5.337
0.222,0.048,0.246,-5.337
0.193,0.049,0.243,-5.337
0.166,0.050,0.239,-5.337
0.181,0.051,0.236,-5.337
0.214,0.046,0.237,-5.337
0.229,0.046,0.241,-5.337
0.222,0.049,0.242,-5.337
0.258,0.047,0.245,-5.337
0.240,0.046,0.242,-5.337
0.195,0.045,0.237,-5.337
0.174,0.047,0.234,-5.337
0.169,0.049,0.238,-5.337
0.205,0.045,0.240,-5.337
0.200,0.046,0.240,-5.337
0.111,0.046,0.240,-5.337
0.092,0.045,0.239,-5.337
0.167,0.045,0.239,-5.337
0.183,0.042,0.242,-5.337
0.197,0.040,0.242,-5.337
0.207,0.041,0.240,-5.337
0.224,0.044,0.237,-5.337
0.223,0.044,0.241,-5.337
0.223,0.041,0.246,-5.337
0.207,0.039,0.247,-5.337
0.165,0.041,0.242,-5.337
0.083,0.045,0.234,-5.337
0.116,0.042,0.235,-5.337
0.214,0.039,0.238,-5.337
0.283,0.035,0.242,-5.337
0.263,0.037,0.242,-5.337
0.290,0.038,0.241,-5.337
0.323,0.037,0.236,-5.337
0.325,0.039,0.239,-5.337
0.207,0.044,0.241,-5.337
0.072,0.046,0.243,-5.337
0.086,0.046,0.242,-5.337
0.123,0.047,0.241,-5.337
0.162,0.046,0.241,-5.337
0.205,0.046,0.241,-5.337
0.225,0.044,0.240,-5.337
0.214,0.042,0.242,-5.337
0.177,0.042,0.245,-5.337
0.196,0.042,0.243,-5.337
0.195,0.041,0.239,-5.337
0.150,0.041,0.238,-5.337
0.122,0.038,0.239,-5.337
0.184,0.038,0.242,-5.337
0.221,0.039,0.242,-5.337
0.139,0.043,0.244,-5.337
0.107,0.040,0.241,-5.337
0.133,0.039,0.238,-5.337
0.167,0.039,0.238,-5.337
0.243,0.036,0.241,-5.337
0.327,0.033,0.244,-5.337
0.404,0.033,0.244,-5.337
0.332,0.034,0.241,-5.337
0.258,0.037,0.241,-5.337
0.242,0.035,0.243,-5.337
0.257,0.032,0.240,-5.337
0.193,0.033,0.238,-5.337
0.133,0.038,0.236,-5.337
0.159,0.038,0.237,-5.337
0.207,0.042,0.243,-5.337
0.146,0.045,0.246,-5.337
0.167,0.042,0.245,-5.337
0.220,0.039,0.238,-5.337
0.189,0.038,0.236,-5.337
0.175,0.037,0.239,-5.337
0.187,0.034,0.243,-5.337
0.164,0.036,0.244,-5.337
0.182,0.036,0.241,-5.337
0.243,0.033,0.242,-5.337
0.263,0.032,0.244,-5.337
0.229,0.031,0.245,-5.337
0.237,0.029,0.241,-5.337
0.244,0.028,0.237,-5.337
0.194,0.032,0.239,-5.337
0.167,0.037,0.240,-5.337
0.168,0.037,0.243,-5.337
0.169,0.036,0.242,-5.337
0.143,0.035,0.244,-5.337
0.176,0.037,0.246,-5.337
0.254,0.036,0.244,-5.337
0.231,0.037,0.240,-5.337
0.160,0.036,0.240,-5.337
0.153,0.036,0.236,-5.337
0.172,0.036,0.236,-5.337
0.158,0.039,0.240,-5.337
0.108,0.042,0.243,-5.337
0.073,0.040,0.244,-5.337
0.104,0.037,0.243,-5.337
0.183,0.036,0.239,-5.337
0.171,0.035,0.236,-5.337
0.182,0.036,0.239,-5.337
0.190,0.038,0.243,-5.337
0.222,0.033,0.245,-5.337
0.259,0.034,0.244,-5.337
0.217,0.039,0.243,-5.337
0.137,0.043,0.242,-5.337
0.106,0.040,0.245,-5.337
0.144,0.037,0.244,-5.337
0.174,0.037,0.243,-5.337
0.173,0.036,0.241,-5.337
0.218,0.034,0.242,-5.337
0.238,0.032,0.241,-5.337
0.180,0.036,0.240,-5.337
0.118,0.038,0.242,-5.337
0.133,0.041,0.245,-5.337
0.207,0.041,0.240,-5.337
0.274,0.041,0.235,-5.337
0.225,0.038,0.238,-5.337
0.243,0.035,0.244,-5.337
0.242,0.034,0.242,-5.337
0.230,0.036,0.239,-5.337
0.211,0.036,0.239,-5.337
0.208,0.036,0.240,-5.337
0.163,0.033,0.240,-5.337
0.204,0.032,0.242,-5.337
0.202,0.030,0.240,-5.337
0.162,0.032,0.239,-5.337
0.115,0.035,0.239,-5.337
0.142,0.035,0.240,-5.337
0.202,0.036,0.241,-5.337
0.222,0.036,0.244,-5.337
0.197,0.034,0.243,-5.337
0.203,0.031,0.244,-5.337
0.233,0.030,0.242,-5.337
0.228,0.030,0.237,-5.337
0.236,0.030,0.235,-5.337
0.220,0.028,0.236,-5.337
0.179,0.029,0.239,-5.337
0.140,0.034,0.237,-5.337
0.135,0.030,0.240,-5.337
0.167,0.030,0.241,-5.337
0.201,0.032,0.247,-5.337
0.201,0.033,0.248,-5.337
0.162,0.034,0.246,-5.337
0.108,0.035,0.240,-5.337
0.089,0.038,0.234,-5.337
0.179,0.033,0.234,-5.337
0.226,0.030,0.236,-5.337
0.233,0.032,0.239,-5.337
0.214,0.034,0.241,-5.337
0.228,0.032,0.239,-5.337
0.250,0.030,0.238,-5.337
0.245,0.029,0.238,-5.337
0.254,0.031,0.239,-5.337
0.241,0.033,0.240,-5.337
0.213,0.035,0.241,-5.337
0.204,0.035,0.245,-5.337
0.220,0.031,0.245,-5.337
0.194,0.032,0.242,-5.337
0.197,0.033,0.236,-5.337
0.179,0.035,0.234,-5.337
0.134,0.039,0.238,-5.337
0.128,0.037,0.245,-5.337
0.157,0.033,0.243,-5.337
0.200,0.031,0.242,-5.337
0.228,0.032,0.240,-5.337
0.146,0.037,0.239,-5.337
0.080,0.041,0.240,-5.337
0.086,0.036,0.242,-5.337
0.220,0.029,0.244,-5.337
0.225,0.030,0.247,-5.337
0.145,0.030,0.244,-5.337
0.094,0.033,0.239,-5.337
0.137,0.035,0.240,-5.337
0.162,0.033,0.240,-5.337
0.185,0.034,0.238,-5.337
0.192,0.032,0.237,-5.337
0.180,0.034,0.238,-5.337
0.135,0.037,0.239,-5.337
0.144,0.034,0.239,-5.337
0.150,0.033,0.242,-5.337
0.107,0.033,0.247,-5.337
0.104,0.029,0.244,-5.337
0.171,0.027,0.238,-5.337
0.226,0.025,0.233,-5.337
0.261,0.023,0.237,-5.337
0.298,0.022,0.244,-5.337
0.204,0.026,0.245,-5.337
0.091,0.029,0.239,-5.337
0.070,0.032,0.240,-5.337
0.132,0.025,0.240,-5.337
0.175,0.026,0.240,-5.337
0.152,0.030,0.241,-5.337
0.118,0.032,0.242,-5.337
0.135,0.030,0.241,-5.337
0.199,0.034,0.242,-5.337
0.230,0.032,0.246,-5.337
0.205,0.034,0.245,-5.337
0.170,0.031,0.245,-5.337
0.256,0.028,0.243,-5.337
0.263,0.029,0.239,-5.337
0.170,0.031,0.241,-5.337
0.149,0.030,0.242,-5.337
0.136,0.033,0.244,-5.337
0.105,0.037,0.245,-5.337
0.172,0.032,0.243,-5.337
0.159,0.030,0.240,-5.337
0.106,0.034,0.237,-5.337
0.118,0.033,0.236,-5.337
0.216,0.032,0.237,-5.337
0.235,0.035,0.244,-5.337
0.200,0.034,0.243,-5.337
0.161,0.030,0.240,-5.337
0.151,0.031,0.239,-5.337
0.136,0.033,0.244,-5.337
0.175,0.031,0.242,-5.337
0.173,0.031,0.240,-5.337
0.159,0.026,0.239,-5.337
0.206,0.025,0.239,-5.337
0.231,0.026,0.240,-5.337
0.197,0.029,0.240,-5.337
0.192,0.029,0.243,-5.337
0.226,0.030,0.245,-5.337
0.214,0.032,0.245,-5.337
0.165,0.036,0.244,-5.337
0.139,0.034,0.242,-5.337
0.132,0.033,0.241,-5.337
0.152,0.030,0.243,-5.337
0.249,0.029,0.246,-5.337
0.229,0.030,0.243,-5.337
0.193,0.034,0.241,-5.337
0.181,0.034,0.242,-5.337
0.148,0.032,0.242,-5.337
0.150,0.030,0.239,-5.337
0.135,0.032,0.236,-5.337
0.159,0.034,0.240,-5.337
0.136,0.033,0.243,-5.337
0.124,0.032,0.242,-5.337
0.102,0.036,0.237,-5.337
0.132,0.038,0.237,-5.337
0.161,0.036,0.239,-5.337
0.166,0.037,0.243,-5.337
0.167,0.036,0.240,-5.337
0.131,0.038,0.239,-5.337
0.169,0.036,0.241,-5.337
0.209,0.036,0.243,-5.337
0.196,0.036,0.243,-5.337
0.172,0.036,0.241,-5.337
0.184,0.039,0.243,-5.337
0.190,0.038,0.244,-5.337
0.216,0.035,0.241,-5.337
0.208,0.030,0.239,-5.337
0.177,0.033,0.238,-5.337
0.172,0.034,0.240,-5.337
0.195,0.035,0.240,-5.337
0.158,0.036,0.241,-5.337
0.126,0.035,0.243,-5.337
0.202,0.034,0.246,-5.337
0.166,0.035,0.247,-5.337
0.102,0.036,0.246,-5.337
0.107,0.039,0.242,-5.337
0.227,0.039,0.235,-5.337
0.274,0.042,0.237,-5.337
0.221,0.040,0.237,-5.337
0.192,0.040,0.239,-5.337
0.216,0.040,0.237,-5.337
0.243,0.038,0.236,-5.337
0.249,0.037,0.235,-5.337
0.214,0.041,0.237,-5.337
0.166,0.039,0.238,-5.337
0.134,0.038,0.242,-5.337
0.080,0.038,0.245,-5.337
0.129,0.036,0.244,-5.337
0.192,0.040,0.242,-5.337
0.179,0.039,0.240,-5.337
0.147,0.037,0.238,-5.337
0.148,0.036,0.240,-5.337
0.196,0.035,0.242,-5.337
0.214,0.035,0.242,-5.337
0.183,0.036,0.239,-5.337
0.196,0.037,0.237,-5.337
0.213,0.037,0.240,-5.337
0.201,0.037,0.242,-5.337
0.192,0.034,0.240,-5.337
0.227,0.033,0.236,-5.337
0.219,0.034,0.238,-5.337
0.205,0.037,0.241,-5.337
0.265,0.038,0.243,-5.337
0.206,0.036,0.237,-5.337
0.136,0.036,0.235,-5.337
0.150,0.035,0.237,-5.337
0.209,0.037,0.239,-5.337
0.191,0.039,0.238,-5.337
0.124,0.034,0.242,-5.337
0.133,0.032,0.244,-5.337
0.200,0.033,0.242,-5.337
0.236,0.033,0.242,-5.337
0.166,0.035,0.241,-5.337
0.129,0.036,0.240,-5.337
0.144,0.034,0.239,-5.337
0.189,0.033,0.238,-5.337
0.154,0.034,0.238,-5.337
0.131,0.038,0.242,-5.337
0.164,0.034,0.244,-5.337
0.242,0.035,0.244,-5.337
0.190,0.035,0.244,-5.337
0.218,0.038,0.245,-5.337
0.252,0.039,0.241,-5.337
0.212,0.037,0.243,-5.337
0.209,0.035,0.240,-5.337
0.250,0.037,0.236,-5.337
0.213,0.037,0.236,-5.337
0.200,0.034,0.239,-5.337
0.284,0.031,0.240,-5.337
0.275,0.036,0.242,-5.337
0.231,0.034,0.242,-5.337
0.180,0.034,0.238,-5.337
0.232,0.034,0.236,-5.337
0.283,0.037,0.238,-5.337
0.219,0.039,0.241,-5.337
0.191,0.042,0.242,-5.337
0.203,0.040,0.237,-5.337
0.182,0.038,0.235,-5.337
0.217,0.037,0.239,-5.337
0.218,0.039,0.245,-5.337
0.221,0.041,0.243,-5.337
0.212,0.040,0.241,-5.337
0.165,0.039,0.238,-5.337
0.196,0.038,0.235,-5.337
0.198,0.043,0.235,-5.337
0.149,0.043,0.237,-5.337
0.146,0.042,0.240,-5.337
0.216,0.041,0.240,-5.337
0.226,0.042,0.243,-5.337
0.156,0.040,0.242,-5.337
0.164,0.040,0.243,-5.337
0.243,0.037,0.243,-5.337
0.265,0.040,0.244,-5.337
0.192,0.045,0.244,-5.337
0.147,0.047,0.242,-5.337
0.158,0.044,0.239,-5.337
0.201,0.044,0.240,-5.337
0.208,0.044,0.242,-5.337
0.213,0.046,0.239,-5.337
0.178,0.045,0.240,-5.337
0.173,0.042,0.244,-5.337
0.235,0.043,0.244,-5.337
0.209,0.048,0.242,-5.337
0.118,0.047,0.238,-5.337
0.107,0.046,0.239,-5.337
0.144,0.043,0.238,-5.337
0.222,0.043,0.239,-5.337
0.213,0.042,0.239,-5.337
0.144,0.042,0.238,-5.337
0.147,0.042,0.242,-5.337
0.194,0.042,0.247,-5.337
0.264,0.040,0.248,-5.337
0.242,0.043,0.247,-5.337
0.162,0.041,0.246,-5.337
0.189,0.039,0.246,-5.337
0.227,0.040,0.244,-5.337
0.212,0.045,0.241,-5.337
0.211,0.050,0.239,-5.337
0.226,0.049,0.237,-5.337
0.212,0.046,0.240,-5.337
0.152,0.048,0.242,-5.337
0.104,0.046,0.241,-5.337
0.094,0.048,0.241,-5.337
0.087,0.049,0.244,-5.337
0.121,0.045,0.245,-5.337
0.186,0.047,0.242,-5.337
0.241,0.049,0.238,-5.337
0.248,0.046,0.238,-5.337
0.236,0.047,0.242,-5.337
0.232,0.049,0.245,-5.337
0.189,0.046,0.244,-5.337
0.156,0.043,0.242,-5.337
0.204,0.041,0.239,-5.337
0.208,0.046,0.239,-5.337
0.190,0.048,0.240,-5.337
0.208,0.049,0.241,-5.337
0.210,0.048,0.240,-5.337
0.206,0.046,0.239,-5.337
0.141,0.045,0.240,-5.337
0.139,0.048,0.241,-5.337
0.157,0.049,0.241,-5.337
0.177,0.049,0.237,-5.337
0.170,0.047,0.238,-5.337
0.170,0.044,0.242,-5.337
0.169,0.046,0.244,-5.337
0.248,0.045,0.241,-5.337
0.236,0.045,0.240,-5.337
0.295,0.045,0.240,-5.337
0.362,0.048,0.242,-5.337
0.294,0.051,0.242,-5.337
0.200,0.050,0.240,-5.337
0.178,0.048,0.237,-5.337
0.211,0.046,0.238,-5.337
0.227,0.047,0.242,-5.337
0.226,0.050,0.244,-5.337
0.240,0.049,0.243,-5.337
0.264,0.046,0.238,-5.337
0.215,0.048,0.239,-5.337
0.221,0.047,0.242,-5.337
0.218,0.047,0.244,-5.337
0.267,0.045,0.242,-5.337
0.247,0.049,0.244,-5.337
0.145,0.050,0.244,-5.337
0.092,0.051,0.241,-5.337
0.105,0.053,0.238,-5.337
0.182,0.051,0.240,-5.337
0.241,0.051,0.243,-5.337
0.192,0.051,0.244,-5.337
0.134,0.048,0.240,-5.337
0.214,0.047,0.242,-5.337
0.242,0.050,0.243,-5.337
0.217,0.056,0.242,-5.337
0.175,0.058,0.239,-5.337
0.199,0.055,0.235,-5.337
0.215,0.053,0.235,-5.337
0.233,0.053,0.240,-5.337
0.252,0.051,0.241,-5.337
0.275,0.049,0.241,-5.337
0.242,0.052,0.241,-5.337
0.234,0.053,0.242,-5.337
0.216,0.052,0.245,-5.337
0.166,0.053,0.245,-5.337
0.174,0.052,0.242,-5.337
0.272,0.053,0.241,-5.337
0.280,0.055,0.239,-5.337
0.235,0.057,0.237,-5.337
0.211,0.056,0.238,-5.337
0.175,0.055,0.240,-5.337
0.199,0.052,0.241,-5.337
0.235,0.053,0.238,-5.337
0.206,0.053,0.240,-5.337
0.196,0.055,0.241,-5.337
0.210,0.056,0.240,-5.337
0.164,0.056,0.237,-5.337
0.172,0.054,0.233,-5.337
0.216,0.053,0.235,-5.337
0.211,0.054,0.240,-5.337
0.180,0.054,0.242,-5.337
0.165,0.054,0.241,-5.337
0.210,0.052,0.242,-5.337
0.219,0.051,0.241,-5.337
0.250,0.047,0.239,-5.337
0.248,0.048,0.238,-5.337
0.202,0.050,0.235,-5.337
0.226,0.052,0.238,-5.337
0.255,0.051,0.241,-5.337
0.255,0.049,0.245,-5.337
0.207,0.052,0.247,-5.337
0.145,0.055,0.245,-5.337
0.209,0.055,0.242,-5.337
0.203,0.055,0.237,-5.337
0.177,0.048,0.239,-5.337
0.241,0.046,0.240,-5.337
0.228,0.049,0.241,-5.337
0.283,0.045,0.242,-5.337
0.271,0.048,0.241,-5.337
0.236,0.048,0.237,-5.337
0.237,0.050,0.238,-5.337
0.204,0.050,0.239,-5.337
0.162,0.051,0.239,-5.337
0.160,0.054,0.235,-5.337
0.145,0.055,0.237,-5.337
0.130,0.052,0.238,-5.337
0.149,0.049,0.239,-5.337
0.170,0.048,0.239,-5.337
0.161,0.051,0.239,-5.337
0.208,0.048,0.242,-5.337
0.273,0.051,0.243,-5.337
0.238,0.053,0.239,-5.337
0.132,0.052,0.240,-5.337
0.057,0.050,0.242,-5.337
0.090,0.051,0.240,-5.337
0.147,0.052,0.238,-5.337
0.178,0.053,0.238,-5.337
0.234,0.050,0.240,-5.337
0.270,0.047,0.242,-5.337
0.284,0.049,0.245,-5.337
0.275,0.049,0.240,-5.337
0.255,0.053,0.237,-5.337
0.234,0.054,0.237,-5.337
0.209,0.054,0.240,-5.337
0.215,0.050,0.241,-5.337
0.222,0.053,0.242,-5.337
0.213,0.054,0.241,-5.337
0.246,0.053,0.242,-5.337
0.257,0.051,0.242,-5.337
0.241,0.049,0.242,-5.337
0.181,0.048,0.242,-5.337
0.081,0.054,0.242,-5.337
0.140,0.053,0.244,-5.337
0.265,0.050,0.246,-5.337
0.204,0.050,0.243,-5.337
0.163,0.050,0.239,-5.337
0.207,0.049,0.236,-5.337
0.201,0.052,0.238,-5.337
0.193,0.051,0.238,-5.337
0.188,0.050,0.238,-5.337
0.221,0.050,0.241,-5.337
0.264,0.051,0.243,-5.337
0.177,0.049,0.240,-5.337
0.151,0.050,0.236,-5.337
0.211,0.046,0.236,-5.337
0.238,0.043,0.240,-5.337
0.244,0.046,0.244,-5.337
0.213,0.046,0.245,-5.337
0.211,0.043,0.244,-5.337
0.170,0.046,0.244,-5.337
0.137,0.047,0.244,-5.337
0.154,0.044,0.241,-5.337
0.229,0.045,0.239,-5.337
0.259,0.046,0.238,-5.337
0.198,0.046,0.241,-5.337
0.196,0.045,0.239,-5.337
0.195,0.046,0.239,-5.337
0.200,0.046,0.242,-5.337
0.236,0.043,0.240,-5.337
0.265,0.041,0.238,-5.337
0.269,0.044,0.237,-5.337
0.187,0.047,0.237,-5.337
0.197,0.043,0.234,-5.337
0.234,0.043,0.236,-5.337
0.203,0.043,0.239,-5.337
0.197,0.042,0.237,-5.337
0.187,0.041,0.239,-5.337
0.196,0.039,0.241,-5.337
0.212,0.041,0.243,-5.337
0.199,0.040,0.243,-5.337
0.206,0.041,0.242,-5.337
0.249,0.042,0.237,-5.337
0.274,0.042,0.235,-5.337
0.232,0.042,0.240,-5.337
0.253,0.043,0.242,-5.337
0.228,0.045,0.240,-5.337
0.173,0.045,0.238,-5.337
0.103,0.048,0.237,-5.337
0.063,0.047,0.234,-5.337
0.127,0.048,0.236,-5.337
0.151,0.045,0.240,-5.337
0.136,0.044,0.244,-5.337
0.210,0.039,0.242,-5.337
0.213,0.039,0.238,-5.337
0.231,0.044,0.237,-5.337
0.222,0.046,0.239,-5.337
0.187,0.045,0.244,-5.337
0.192,0.044,0.243,-5.337
0.259,0.040,0.236,-5.337
0.240,0.041,0.231,-5.337
0.163,0.044,0.232,-5.337
0.136,0.042,0.236,-5.337
0.168,0.043,0.242,-5.337
0.168,0.042,0.245,-5.337
0.150,0.041,0.244,-5.337
0.187,0.038,0.242,-5.337
0.219,0.039,0.243,-5.337
0.219,0.040,0.244,-5.337
0.205,0.036,0.241,-5.337
0.162,0.035,0.232,-5.337
0.151,0.037,0.232,-5.337
0.166,0.040,0.239,-5.337
0.143,0.038,0.243,-5.337
0.183,0.034,0.241,-5.337
0.195,0.032,0.239,-5.337
0.182,0.031,0.240,-5.337
0.235,0.037,0.243,-5.337
0.173,0.039,0.238,-5.337
0.141,0.037,0.236,-5.337
0.162,0.033,0.240,-5.337
0.167,0.035,0.244,-5.337
0.145,0.036,0.244,-5.337
0.160,0.036,0.243,-5.337
0.238,0.034,0.244,-5.337
0.258,0.035,0.246,-5.337
0.307,0.034,0.245,-5.337
0.244,0.040,0.238,-5.337
0.174,0.038,0.235,-5.337
0.185,0.033,0.237,-5.337
0.219,0.034,0.242,-5.337
0.215,0.038,0.241,-5.337
0.256,0.037,0.241,-5.337
0.232,0.035,0.238,-5.337
0.153,0.035,0.237,-5.337
0.158,0.033,0.236,-5.337
0.150,0.038,0.236,-5.337
0.126,0.038,0.235,-5.337
0.175,0.037,0.235,-5.337
0.212,0.038,0.241,-5.337
0.174,0.041,0.247,-5.337
0.127,0.038,0.249,-5.337
0.145,0.034,0.243,-5.337
0.181,0.033,0.234,-5.337
0.207,0.031,0.232,-5.337
0.226,0.032,0.234,-5.337
0.243,0.033,0.238,-5.337
0.205,0.032,0.238,-5.337
0.222,0.034,0.241,-5.337
0.207,0.034,0.243,-5.337
0.198,0.034,0.241,-5.337
0.179,0.035,0.241,-5.337
0.171,0.039,0.240,-5.337
0.171,0.036,0.241,-5.337
0.180,0.033,0.240,-5.337
0.165,0.034,0.240,-5.337
0.085,0.038,0.237,-5.337
0.114,0.036,0.242,-5.337
0.171,0.035,0.242,-5.337
0.219,0.036,0.240,-5.337
0.196,0.038,0.238,-5.337
0.197,0.035,0.242,-5.337
0.233,0.032,0.243,-5.337
0.222,0.032,0.242,-5.337
0.153,0.030,0.242,-5.337
0.145,0.032,0.244,-5.337
0.314,0.028,0.241,-5.337
0.345,0.029,0.235,-5.337
0.239,0.031,0.234,-5.337
0.191,0.033,0.236,-5.337
0.115,0.036,0.236,-5.337
0.138,0.038,0.239,-5.337
0.223,0.037,0.242,-5.337
0.181,0.036,0.241,-5.337
0.133,0.036,0.240,-5.337
0.070,0.034,0.244,-5.337
0.135,0.031,0.249,-5.337
0.227,0.032,0.250,-5.337
0.204,0.036,0.246,-5.337
0.146,0.038,0.242,-5.337
0.153,0.039,0.240,-5.337
0.204,0.036,0.235,-5.337
0.199,0.036,0.238,-5.337
0.126,0.034,0.239,-5.337
0.189,0.033,0.241,-5.337
0.236,0.035,0.242,-5.337
0.209,0.036,0.241,-5.337
0.151,0.034,0.237,-5.337
0.190,0.032,0.241,-5.337
0.228,0.032,0.244,-5.337
0.270,0.031,0.242,-5.337
0.267,0.031,0.240,-5.337
0.169,0.036,0.243,-5.337
0.134,0.034,0.245,-5.337
0.154,0.033,0.243,-5.337
0.159,0.031,0.243,-5.337
0.165,0.035,0.242,-5.337
0.216,0.034,0.238,-5.337
0.267,0.034,0.238,-5.337
0.246,0.034,0.241,-5.337
0.164,0.031,0.243,-5.337
0.169,0.029,0.243,-5.337
0.169,0.031,0.244,-5.337
0.137,0.031,0.245,-5.337
0.150,0.032,0.246,-5.337
0.146,0.034,0.245,-5.337
0.186,0.034,0.242,-5.337
0.181,0.036,0.239,-5.337
0.168,0.037,0.234,-5.337
0.113,0.037,0.238,-5.337
0.155,0.035,0.239,-5.337
0.224,0.031,0.242,-5.337
0.158,0.027,0.246,-5.337
0.126,0.031,0.247,-5.337
0.117,0.034,0.245,-5.337
0.120,0.036,0.245,-5.337
0.163,0.031,0.241,-5.337
0.188,0.032,0.237,-5.337
0.163,0.033,0.235,-5.337
0.158,0.030,0.237,-5.337
0.171,0.030,0.241,-5.337
0.205,0.028,0.242,-5.337
0.195,0.029,0.242,-5.337
0.186,0.028,0.242,-5.337
0.215,0.025,0.242,-5.337
0.300,0.021,0.242,-5.337
0.276,0.023,0.238,-5.337
0.197,0.023,0.237,-5.337
0.201,0.023,0.242,-5.337
0.176,0.027,0.244,-5.337
0.188,0.029,0.244,-5.337
0.186,0.026,0.241,-5.337
0.162,0.027,0.239,-5.337
0.186,0.026,0.237,-5.337
0.201,0.027,0.237,-5.337
0.161,0.025,0.237,-5.337
0.118,0.027,0.243,-5.337
0.149,0.027,0.241,-5.337
0.195,0.027,0.239,-5.337
0.225,0.024,0.240,-5.337
0.179,0.028,0.243,-5.337
0.120,0.029,0.243,-5.337
0.148,0.029,0.242,-5.337
0.136,0.028,0.244,-5.337
0.134,0.028,0.245,-5.337
0.187,0.027,0.241,-5.337
0.207,0.028,0.240,-5.337
0.174,0.030,0.239,-5.337
0.160,0.030,0.238,-5.337
0.190,0.030,0.240,-5.337
0.163,0.029,0.244,-5.337
0.160,0.028,0.240,-5.337
0.176,0.030,0.237,-5.337
0.202,0.030,0.239,-5.337
0.184,0.028,0.241,-5.337
0.134,0.031,0.242,-5.337
0.173,0.029,0.238,-5.337
0.259,0.026,0.239,-5.337
0.241,0.028,0.241,-5.337
0.175,0.028,0.239,-5.337
0.165,0.028,0.235,-5.337
0.182,0.032,0.239,-5.337
0.207,0.031,0.240,-5.337
0.176,0.031,0.240,-5.337
0.149,0.029,0.241,-5.337
0.142,0.030,0.245,-5.337
0.124,0.033,0.245,-5.337
0.123,0.036,0.248,-5.337
0.169,0.031,0.246,-5.337
0.187,0.030,0.243,-5.337
0.265,0.029,0.241,-5.337
0.244,0.031,0.238,-5.337
0.189,0.031,0.235,-5.337
0.193,0.028,0.239,-5.337
0.157,0.026,0.240,-5.337
0.151,0.025,0.242,-5.337
0.225,0.025,0.244,-5.337
0.249,0.027,0.243,-5.337
0.225,0.028,0.245,-5.337
0.227,0.028,0.242,-5.337
0.227,0.028,0.243,-5.337
0.186,0.030,0.240,-5.337
0.186,0.032,0.234,-5.337
0.167,0.029,0.231,-5.337
0.161,0.030,0.238,-5.337
0.212,0.030,0.244,-5.337
0.234,0.032,0.245,-5.337
0.242,0.029,0.245,-5.337
0.272,0.027,0.245,-5.337
0.218,0.030,0.243,-5.337
0.169,0.030,0.241,-5.337
0.167,0.032,0.241,-5.337
0.183,0.032,0.243,-5.337
0.216,0.031,0.243,-5.337
0.169,0.034,0.243,-5.337
0.148,0.034,0.245,-5.337
0.172,0.035,0.246,-5.337
0.102,0.036,0.241,-5.337
0.160,0.035,0.237,-5.337
0.193,0.037,0.238,-5.337
0.142,0.036,0.240,-5.337
0.184,0.035,0.240,-5.337
0.201,0.037,0.238,-5.337
0.198,0.037,0.239,-5.337
0.199,0.039,0.240,-5.337
0.150,0.040,0.242,-5.337
0.185,0.037,0.239,-5.337
0.228,0.035,0.241,-5.337
0.236,0.032,0.242,-5.337
0.220,0.035,0.244,-5.337
0.229,0.037,0.244,-5.337
0.152,0.038,0.244,-5.337
0.120,0.037,0.245,-5.337
0.205,0.039,0.244,-5.337
0.241,0.035,0.245,-5.337
0.273,0.039,0.245,-5.337
0.274,0.035,0.245,-5.337
0.221,0.037,0.244,-5.337
0.176,0.038,0.241,-5.337
0.150,0.036,0.239,-5.337
0.166,0.033,0.240,-5.337
0.196,0.033,0.242,-5.337
0.179,0.033,0.242,-5.337
0.166,0.037,0.242,-5.337
0.138,0.036,0.240,-5.337
0.149,0.035,0.242,-5.337
0.225,0.037,0.245,-5.337
0.253,0.036,0.244,-5.337
0.193,0.037,0.242,-5.337
0.141,0.037,0.241,-5.337
0.129,0.035,0.240,-5.337
0.123,0.036,0.237,-5.337
0.189,0.035,0.240,-5.337
0.229,0.033,0.243,-5.337
0.236,0.035,0.244,-5.337
0.215,0.035,0.242,-5.337
0.256,0.034,0.245,-5.337
0.321,0.036,0.245,-5.337
0.247,0.040,0.244,-5.337
0.174,0.042,0.240,-5.337
0.189,0.040,0.239,-5.337
0.215,0.038,0.241,-5.337
0.178,0.040,0.239,-5.337
0.167,0.037,0.238,-5.337
0.215,0.036,0.242,-5.337
0.239,0.037,0.239,-5.337
0.216,0.036,0.237,-5.337
0.149,0.040,0.235,-5.337
0.234,0.043,0.237,-5.337
0.325,0.036,0.240,-5.337
0.262,0.036,0.241,-5.337
0.160,0.039,0.242,-5.337
0.152,0.043,0.242,-5.337
0.224,0.042,0.244,-5.337
0.227,0.043,0.244,-5.337
0.169,0.043,0.244,-5.337
0.184,0.041,0.241,-5.337
0.197,0.039,0.242,-5.337
0.180,0.040,0.239,-5.337
0.224,0.040,0.239,-5.337
0.255,0.042,0.238,-5.337
0.251,0.044,0.240,-5.337
0.155,0.043,0.243,-5.337
0.094,0.044,0.243,-5.337
0.168,0.042,0.242,-5.337
0.262,0.041,0.239,-5.337
0.266,0.043,0.237,-5.337
0.209,0.048,0.238,-5.337
0.175,0.046,0.239,-5.337
0.262,0.041,0.237,-5.337
0.295,0.042,0.237,-5.337
0.239,0.043,0.240,-5.337
0.169,0.043,0.241,-5.337
0.175,0.042,0.239,-5.337
0.207,0.042,0.238,-5.337
0.223,0.040,0.239,-5.337
0.213,0.044,0.242,-5.337
0.210,0.042,0.244,-5.337
0.164,0.043,0.241,-5.337
0.143,0.044,0.239,-5.337
0.165,0.044,0.243,-5.337
0.153,0.045,0.245,-5.337
0.182,0.044,0.241,-5.337
0.212,0.044,0.237,-5.337
0.240,0.044,0.240,-5.337
0.206,0.046,0.240,-5.337
0.212,0.046,0.238,-5.337
0.213,0.049,0.237,-5.337
0.165,0.051,0.241,-5.337
0.139,0.048,0.244,-5.337
0.197,0.045,0.242,-5.337
0.203,0.047,0.241,-5.337
0.129,0.052,0.245,-5.337
0.104,0.049,0.248,-5.337
0.168,0.048,0.247,-5.337
0.243,0.046,0.241,-5.337
0.182,0.048,0.237,-5.337
0.122,0.049,0.239,-5.337
0.215,0.045,0.242,-5.337
0.240,0.047,0.243,-5.337
0.161,0.050,0.244,-5.337
0.127,0.052,0.240,-5.337
0.171,0.048,0.233,-5.337
0.208,0.049,0.235,-5.337
0.237,0.049,0.237,-5.337
0.205,0.052,0.239,-5.337
0.172,0.053,0.239,-5.337
0.204,0.052,0.241,-5.337
0.217,0.050,0.242,-5.337
0.249,0.052,0.243,-5.337
0.253,0.052,0.243,-5.337
0.252,0.049,0.239,-5.337
0.275,0.045,0.235,-5.337
0.242,0.045,0.236,-5.337
0.219,0.047,0.239,-5.337
0.230,0.051,0.241,-5.337
0.314,0.049,0.241,-5.337
0.314,0.049,0.241,-5.337
0.204,0.049,0.242,-5.337
0.158,0.048,0.244,-5.337
0.194,0.047,0.244,-5.337
0.244,0.051,0.245,-5.337
0.260,0.051,0.244,-5.337
0.238,0.052,0.244,-5.337
0.175,0.053,0.243,-5.337
0.175,0.055,0.239,-5.337
0.137,0.053,0.238,-5.337
0.162,0.052,0.239,-5.337
0.197,0.053,0.239,-5.337
0.209,0.053,0.237,-5.337
0.185,0.052,0.240,-5.337
0.175,0.050,0.241,-5.337
0.172,0.051,0.244,-5.337
0.223,0.049,0.241,-5.337
0.241,0.047,0.237,-5.337
0.198,0.049,0.237,-5.337
0.157,0.054,0.237,-5.337
0.173,0.052,0.239,-5.337
0.240,0.050,0.242,-5.337
0.214,0.052,0.245,-5.337
0.150,0.055,0.245,-5.337
0.172,0.053,0.243,-5.337
0.193,0.054,0.243,-5.337
0.239,0.053,0.243,-5.337
0.293,0.053,0.241,-5.337
0.240,0.053,0.241,-5.337
0.212,0.054,0.243,-5.337
0.143,0.056,0.243,-5.337
0.139,0.053,0.244,-5.337
0.169,0.054,0.245,-5.337
0.180,0.055,0.246,-5.337
0.182,0.055,0.245,-5.337
0.219,0.051,0.240,-5.337
0.245,0.053,0.238,-5.337
0.249,0.055,0.239,-5.337
0.239,0.056,0.244,-5.337
0.198,0.055,0.245,-5.337
0.171,0.058,0.246,-5.337
0.156,0.060,0.244,-5.337
0.146,0.060,0.241,-5.337
0.171,0.054,0.240,-5.337
0.231,0.049,0.241,-5.337
0.253,0.056,0.241,-5.337
0.201,0.061,0.240,-5.337
0.177,0.059,0.240,-5.337
0.167,0.057,0.240,-5.337
0.260,0.053,0.241,-5.337
0.288,0.057,0.243,-5.337
0.162,0.058,0.243,-5.337
0.142,0.058,0.245,-5.337
0.157,0.055,0.244,-5.337
0.253,0.050,0.245,-5.337
0.295,0.051,0.245,-5.337
0.201,0.057,0.242,-5.337
0.141,0.059,0.241,-5.337
0.181,0.056,0.241,-5.337
0.201,0.059,0.242,-5.337
0.194,0.056,0.243,-5.337
0.233,0.056,0.244,-5.337
0.228,0.060,0.245,-5.337
0.230,0.061,0.244,-5.337
0.224,0.058,0.239,-5.337
0.216,0.055,0.238,-5.337
0.242,0.053,0.239,-5.337
0.231,0.059,0.242,-5.337
0.232,0.063,0.244,-5.337
0.219,0.062,0.243,-5.337
0.236,0.056,0.242,-5.337
0.266,0.055,0.240,-5.337
0.334,0.053,0.238,-5.337
0.280,0.054,0.238,-5.337
0.195,0.055,0.238,-5.337
0.159,0.057,0.239,-5.337
0.141,0.059,0.240,-5.337
0.132,0.057,0.241,-5.337
0.230,0.053,0.242,-5.337
0.280,0.050,0.241,-5.337
0.222,0.056,0.238,-5.337
0.166,0.062,0.235,-5.337
0.194,0.057,0.238,-5.337
0.189,0.052,0.237,-5.337
0.189,0.052,0.239,-5.337
0.183,0.054,0.242,-5.337
0.207,0.054,0.246,-5.337
0.261,0.053,0.243,-5.337
0.241,0.057,0.243,-5.337
0.227,0.057,0.243,-5.337
0.235,0.056,0.244,-5.337
0.280,0.052,0.242,-5.337
0.321,0.054,0.239,-5.337
0.274,0.056,0.239,-5.337
0.301,0.057,0.240,-5.337
0.354,0.055,0.241,-5.337
0.267,0.058,0.240,-5.337
0.136,0.058,0.239,-5.337
0.152,0.054,0.242,-5.337
0.125,0.057,0.243,-5.337
0.117,0.058,0.239,-5.337
0.235,0.056,0.238,-5.337
0.307,0.057,0.238,-5.337
0.270,0.056,0.242,-5.337
0.234,0.055,0.242,-5.337
0.219,0.056,0.243,-5.337
0.204,0.058,0.243,-5.337
0.266,0.058,0.240,-5.337
0.317,0.053,0.237,-5.337
0.339,0.054,0.235,-5.337
0.243,0.059,0.233,-5.337
0.205,0.060,0.239,-5.337
0.219,0.056,0.244,-5.337
0.208,0.055,0.244,-5.337
0.208,0.056,0.243,-5.337
0.147,0.057,0.239,-5.337
0.116,0.053,0.235,-5.337
0.161,0.055,0.239,-5.337
0.212,0.054,0.242,-5.337
0.195,0.054,0.240,-5.337
0.161,0.054,0.238,-5.337
0.184,0.055,0.240,-5.337
0.264,0.051,0.244,-5.337
0.272,0.052,0.244,-5.337
0.210,0.048,0.245,-5.337
0.174,0.052,0.244,-5.337
0.210,0.052,0.240,-5.337
0.221,0.053,0.239,-5.337
0.242,0.056,0.237,-5.337
0.282,0.055,0.236,-5.337
0.222,0.056,0.237,-5.337
0.175,0.055,0.239,-5.337
0.172,0.055,0.240,-5.337
0.205,0.055,0.240,-5.337
0.161,0.054,0.241,-5.337
0.123,0.052,0.243,-5.337
0.186,0.049,0.245,-5.337
0.260,0.044,0.242,-5.337
0.247,0.044,0.238,-5.337
0.224,0.045,0.236,-5.337
0.235,0.048,0.239,-5.337
0.217,0.049,0.242,-5.337
0.235,0.049,0.244,-5.337
0.264,0.049,0.242,-5.337
0.249,0.049,0.245,-5.337
0.215,0.045,0.242,-5.337
0.200,0.047,0.241,-5.337
0.174,0.045,0.242,-5.337
0.176,0.043,0.240,-5.337
0.217,0.041,0.240,-5.337
0.218,0.043,0.240,-5.337
0.182,0.046,0.240,-5.337
0.104,0.050,0.241,-5.337
0.107,0.048,0.242,-5.337
0.148,0.047,0.242,-5.337
0.193,0.048,0.242,-5.337
0.203,0.044,0.243,-5.337
0.121,0.043,0.243,-5.337
0.152,0.042,0.240,-5.337
0.193,0.042,0.240,-5.337
0.222,0.041,0.241,-5.337
0.244,0.041,0.241,-5.337
0.186,0.044,0.243,-5.337
0.207,0.045,0.247,-5.337
0.221,0.043,0.243,-5.337
0.208,0.042,0.240,-5.337
0.156,0.044,0.238,-5.337
0.133,0.039,0.240,-5.337
0.173,0.036,0.243,-5.337
0.211,0.039,0.246,-5.337
0.180,0.039,0.243,-5.337
0.193,0.041,0.240,-5.337
0.164,0.041,0.241,-5.337
0.187,0.037,0.242,-5.337
0.224,0.036,0.240,-5.337
0.167,0.041,0.240,-5.337
0.164,0.039,0.243,-5.337
0.231,0.035,0.247,-5.337
0.255,0.036,0.247,-5.337
0.261,0.038,0.245,-5.337
0.246,0.040,0.240,-5.337
0.205,0.039,0.236,-5.337
0.205,0.039,0.238,-5.337
0.178,0.041,0.241,-5.337
0.134,0.042,0.240,-5.337
0.167,0.042,0.237,-5.337
0.170,0.041,0.237,-5.337
0.143,0.039,0.241,-5.337
0.136,0.040,0.243,-5.337
0.133,0.041,0.242,-5.337
0.153,0.043,0.242,-5.337
0.172,0.042,0.242,-5.337
0.256,0.043,0.238,-5.337
0.240,0.045,0.234,-5.337
0.172,0.045,0.235,-5.337
0.171,0.043,0.239,-5.337
0.193,0.038,0.243,-5.337
0.201,0.036,0.242,-5.337
0.181,0.039,0.240,-5.337
0.162,0.042,0.240,-5.337
0.166,0.043,0.241,-5.337
0.216,0.036,0.243,-5.337
0.221,0.040,0.244,-5.337
0.200,0.042,0.240,-5.337
0.184,0.043,0.238,-5.337
0.133,0.043,0.240,-5.337
0.135,0.041,0.244,-5.337
0.237,0.036,0.244,-5.337
0.227,0.041,0.242,-5.337
0.174,0.044,0.240,-5.337
0.224,0.037,0.239,-5.337
0.276,0.035,0.239,-5.337
0.224,0.037,0.238,-5.337
0.176,0.039,0.241,-5.337
0.204,0.037,0.242,-5.337
0.227,0.038,0.239,-5.337
0.203,0.038,0.235,-5.337
0.186,0.040,0.234,-5.337
0.216,0.039,0.236,-5.337
0.168,0.041,0.239,-5.337
0.172,0.038,0.240,-5.337
0.168,0.038,0.238,-5.337
0.149,0.039,0.236,-5.337
0.201,0.038,0.236,-5.337
0.230,0.037,0.237,-5.337
0.224,0.035,0.235,-5.337
0.229,0.038,0.236,-5.337
0.215,0.038,0.241,-5.337
0.216,0.036,0.240,-5.337
0.182,0.037,0.240,-5.337
0.184,0.035,0.242,-5.337
0.164,0.035,0.242,-5.337
0.162,0.035,0.240,-5.337
0.171,0.037,0.236,-5.337
0.123,0.035,0.236,-5.337
0.116,0.038,0.238,-5.337
0.167,0.038,0.243,-5.337
0.128,0.039,0.243,-5.337
0.139,0.039,0.244,-5.337
0.176,0.037,0.242,-5.337
0.208,0.033,0.242,-5.337
0.245,0.032,0.241,-5.337
0.198,0.033,0.239,-5.337
0.186,0.033,0.235,-5.337
0.242,0.036,0.237,-5.337
0.328,0.032,0.236,-5.337
0.300,0.035,0.236,-5.337
0.196,0.038,0.239,-5.337
0.179,0.036,0.241,-5.337
0.236,0.034,0.240,-5.337
0.244,0.035,0.237,-5.337
0.135,0.037,0.238,-5.337
0.091,0.039,0.242,-5.337
0.166,0.041,0.242,-5.337
0.231,0.040,0.239,-5.337
0.130,0.041,0.238,-5.337
0.087,0.038,0.241,-5.337
0.146,0.037,0.243,-5.337
0.194,0.036,0.242,-5.337
0.191,0.034,0.239,-5.337
0.187,0.031,0.237,-5.337
0.125,0.034,0.237,-5.337
0.082,0.038,0.239,-5.337
0.121,0.036,0.243,-5.337
0.228,0.033,0.240,-5.337
0.228,0.034,0.237,-5.337
0.205,0.036,0.237,-5.337
0.195,0.036,0.244,-5.337
0.236,0.031,0.244,-5.337
0.236,0.031,0.242,-5.337
0.189,0.036,0.238,-5.337
0.153,0.038,0.238,-5.337
0.195,0.036,0.234,-5.337
0.189,0.034,0.234,-5.337
0.197,0.035,0.237,-5.337
0.195,0.034,0.241,-5.337
0.173,0.032,0.244,-5.337
0.166,0.032,0.243,-5.337
0.201,0.031,0.238,-5.337
0.225,0.033,0.233,-5.337
0.253,0.033,0.235,-5.337
0.196,0.032,0.242,-5.337
0.186,0.031,0.243,-5.337
0.176,0.033,0.240,-5.337
0.128,0.036,0.241,-5.337
0.196,0.036,0.246,-5.337
0.231,0.035,0.247,-5.337
0.240,0.032,0.242,-5.337
0.200,0.031,0.237,-5.337
0.187,0.029,0.237,-5.337
0.203,0.029,0.239,-5.337
0.191,0.030,0.239,-5.337
0.168,0.030,0.238,-5.337
0.169,0.029,0.236,-5.337
0.147,0.031,0.239,-5.337
0.118,0.029,0.243,-5.337
0.185,0.029,0.247,-5.337
0.249,0.029,0.247,-5.337
0.219,0.028,0.247,-5.337
0.208,0.028,0.245,-5.337
0.191,0.029,0.239,-5.337
0.175,0.031,0.237,-5.337
0.201,0.031,0.239,-5.337
0.179,0.032,0.239,-5.337
0.197,0.028,0.242,-5.337
0.204,0.031,0.244,-5.337
0.206,0.029,0.244,-5.337
0.199,0.028,0.244,-5.337
0.212,0.027,0.241,-5.337
0.163,0.026,0.239,-5.337
0.223,0.028,0.236,-5.337
0.222,0.033,0.236,-5.337
0.184,0.032,0.241,-5.337
0.210,0.031,0.246,-5.337
0.180,0.030,0.243,-5.337
0.180,0.034,0.243,-5.337
0.217,0.036,0.243,-5.337
0.216,0.035,0.242,-5.337
0.187,0.034,0.241,-5.337
0.176,0.033,0.242,-5.337
0.128,0.034,0.243,-5.337
0.122,0.034,0.245,-5.337
0.139,0.031,0.243,-5.337
0.172,0.030,0.244,-5.337
0.169,0.028,0.242,-5.337
0.228,0.027,0.239,-5.337
0.244,0.029,0.240,-5.337
0.254,0.029,0.242,-5.337
0.283,0.028,0.242,-5.337
0.216,0.026,0.241,-5.337
0.146,0.024,0.240,-5.337
0.148,0.025,0.239,-5.337
0.153,0.026,0.238,-5.337
0.171,0.026,0.238,-5.337
0.208,0.028,0.240,-5.337
0.228,0.027,0.240,-5.337
0.193,0.029,0.241,-5.337
0.214,0.026,0.239,-5.337
0.237,0.028,0.237,-5.337
0.230,0.027,0.237,-5.337
0.221,0.030,0.242,-5.337
0.188,0.030,0.241,-5.337
0.212,0.029,0.242,-5.337
0.183,0.030,0.242,-5.337
0.177,0.028,0.246,-5.337
0.241,0.027,0.244,-5.337
0.178,0.032,0.240,-5.337
0.111,0.030,0.239,-5.337
0.178,0.027,0.240,-5.337
0.248,0.026,0.242,-5.337
0.202,0.029,0.242,-5.337
0.152,0.029,0.242,-5.337
0.180,0.027,0.242,-5.337
0.234,0.024,0.239,-5.337
0.188,0.024,0.239,-5.337
0.198,0.027,0.242,-5.337
0.167,0.028,0.245,-5.337
0.129,0.028,0.242,-5.337
0.169,0.032,0.239,-5.337
0.148,0.029,0.240,-5.337
0.123,0.030,0.241,-5.337
0.164,0.031,0.241,-5.337
0.181,0.031,0.235,-5.337
0.221,0.031,0.233,-5.337
0.223,0.033,0.236,-5.337
0.208,0.036,0.238,-5.337
0.243,0.034,0.243,-5.337
0.253,0.031,0.246,-5.337
0.208,0.030,0.243,-5.337
0.202,0.030,0.239,-5.337
0.135,0.032,0.237,-5.337
0.086,0.033,0.240,-5.337
0.153,0.031,0.243,-5.337
0.167,0.033,0.243,-5.337
0.142,0.033,0.244,-5.337
0.116,0.035,0.246,-5.337
0.164,0.033,0.243,-5.337
0.217,0.032,0.239,-5.337
0.249,0.029,0.238,-5.337
0.194,0.028,0.240,-5.337
0.189,0.029,0.243,-5.337
0.157,0.029,0.242,-5.337
0.185,0.026,0.240,-5.337
0.244,0.029,0.240,-5.337
0.210,0.031,0.242,-5.337
0.261,0.031,0.242,-5.337
0.316,0.032,0.242,-5.337
0.282,0.033,0.240,-5.337
0.227,0.032,0.239,-5.337
0.239,0.030,0.235,-5.337
0.207,0.033,0.233,-5.337
0.131,0.036,0.236,-5.337
0.127,0.035,0.242,-5.337
0.183,0.032,0.244,-5.337
0.223,0.033,0.244,-5.337
0.209,0.031,0.243,-5.337
0.179,0.033,0.242,-5.337
0.179,0.036,0.241,-5.337
0.195,0.037,0.240,-5.337
0.223,0.037,0.239,-5.337
0.196,0.037,0.237,-5.337
0.134,0.037,0.238,-5.337
0.111,0.034,0.241,-5.337
0.239,0.034,0.243,-5.337
0.243,0.036,0.244,-5.337
0.167,0.034,0.241,-5.337
0.173,0.031,0.239,-5.337
0.202,0.032,0.242,-5.337
0.153,0.036,0.244,-5.337
0.214,0.039,0.243,-5.337
0.265,0.036,0.241,-5.337
0.203,0.036,0.242,-5.337
0.191,0.035,0.240,-5.337
0.235,0.036,0.240,-5.337
0.201,0.037,0.241,-5.337
0.205,0.039,0.245,-5.337
0.232,0.036,0.244,-5.337
0.135,0.039,0.241,-5.337
0.103,0.041,0.241,-5.337
0.186,0.041,0.241,-5.337
0.238,0.037,0.242,-5.337
0.191,0.035,0.240,-5.337
0.191,0.034,0.237,-5.337
0.189,0.039,0.238,-5.337
0.195,0.037,0.239,-5.337
0.220,0.038,0.240,-5.337
0.264,0.035,0.242,-5.337
0.296,0.037,0.243,-5.337
0.284,0.040,0.242,-5.337
0.212,0.038,0.240,-5.337
0.219,0.037,0.239,-5.337
0.177,0.036,0.240,-5.337
0.206,0.031,0.241,-5.337
0.279,0.031,0.245,-5.337
0.266,0.035,0.248,-5.337
0.191,0.042,0.245,-5.337
0.152,0.042,0.246,-5.337
0.110,0.041,0.243,-5.337
0.106,0.041,0.237,-5.337
0.182,0.043,0.232,-5.337
0.210,0.044,0.235,-5.337
0.177,0.043,0.242,-5.337
0.119,0.038,0.246,-5.337
0.127,0.035,0.242,-5.337
0.160,0.038,0.239,-5.337
0.164,0.041,0.241,-5.337
0.181,0.041,0.242,-5.337
0.226,0.037,0.241,-5.337
0.264,0.038,0.240,-5.337
0.237,0.035,0.241,-5.337
0.209,0.036,0.245,-5.337
0.191,0.038,0.244,-5.337
0.151,0.039,0.241,-5.337
0.192,0.037,0.240,-5.337
0.236,0.039,0.241,-5.337
0.178,0.041,0.244,-5.337
0.194,0.041,0.242,-5.337
0.278,0.041,0.241,-5.337
0.300,0.040,0.239,-5.337
0.280,0.043,0.241,-5.337
0.207,0.047,0.244,-5.337
0.187,0.046,0.244,-5.337
0.179,0.045,0.240,-5.337
0.175,0.046,0.238,-5.337
0.213,0.046,0.239,-5.337
0.238,0.044,0.243,-5.337
0.139,0.045,0.240,-5.337
0.057,0.047,0.239,-5.337
0.156,0.043,0.238,-5.337
0.250,0.044,0.236,-5.337
0.219,0.044,0.236,-5.337
0.193,0.043,0.239,-5.337
0.191,0.040,0.239,-5.337
0.162,0.041,0.239,-5.337
0.161,0.046,0.237,-5.337
0.256,0.049,0.234,-5.337
0.299,0.049,0.233,-5.337
0.231,0.045,0.235,-5.337
0.218,0.045,0.239,-5.337
0.206,0.047,0.241,-5.337
0.153,0.046,0.241,-5.337
0.152,0.040,0.238,-5.337
0.203,0.038,0.238,-5.337
0.222,0.037,0.240,-5.337
0.260,0.035,0.244,-5.337
0.265,0.037,0.242,-5.337
0.210,0.038,0.240,-5.337
0.194,0.041,0.240,-5.337
0.227,0.042,0.244,-5.337
0.210,0.041,0.242,-5.337
0.149,0.043,0.240,-5.337
0.133,0.044,0.238,-5.337
0.235,0.043,0.237,-5.337
0.282,0.042,0.239,-5.337
0.205,0.046,0.240,-5.337
0.162,0.048,0.240,-5.337
0.173,0.046,0.240,-5.337
0.196,0.043,0.240,-5.337
0.119,0.047,0.242,-5.337
0.125,0.045,0.242,-5.337
0.206,0.041,0.238,-5.337
0.194,0.040,0.236,-5.337
0.159,0.039,0.238,-5.337
0.156,0.042,0.240,-5.337
0.231,0.042,0.242,-5.337
0.281,0.041,0.242,-5.337
0.215,0.042,0.238,-5.337
0.182,0.044,0.239,-5.337
0.222,0.043,0.242,-5.337
0.202,0.045,0.241,-5.337
0.192,0.048,0.237,-5.337
0.193,0.048,0.237,-5.337
0.204,0.047,0.238,-5.337
0.182,0.049,0.241,-5.337
0.142,0.049,0.239,-5.337
0.172,0.048,0.238,-5.337
0.229,0.049,0.239,-5.337
0.218,0.047,0.240,-5.337
0.226,0.046,0.241,-5.337
0.181,0.049,0.243,-5.337
0.123,0.049,0.244,-5.337
0.154,0.049,0.244,-5.337
0.175,0.049,0.244,-5.337
0.105,0.052,0.243,-5.337
0.158,0.054,0.244,-5.337
0.276,0.048,0.241,-5.337
0.323,0.044,0.236,-5.337
0.330,0.046,0.239,-5.337
0.312,0.050,0.242,-5.337
0.202,0.053,0.241,-5.337
0.126,0.049,0.238,-5.337
0.134,0.048,0.238,-5.337
0.178,0.047,0.240,-5.337
0.261,0.043,0.239,-5.337
0.302,0.043,0.240,-5.337
0.258,0.045,0.240,-5.337
0.279,0.047,0.242,-5.337
0.330,0.046,0.241,-5.337
0.273,0.044,0.238,-5.337
0.189,0.050,0.235,-5.337
0.244,0.051,0.236,-5.337
0.217,0.053,0.238,-5.337
0.207,0.054,0.240,-5.337
0.280,0.054,0.240,-5.337
0.269,0.051,0.239,-5.337
0.209,0.054,0.238,-5.337
0.152,0.058,0.241,-5.337
0.154,0.062,0.240,-5.337
0.166,0.058,0.238,-5.337
0.183,0.054,0.239,-5.337
0.161,0.057,0.242,-5.337
0.155,0.057,0.245,-5.337
0.189,0.055,0.246,-5.337
0.200,0.057,0.241,-5.337
0.220,0.052,0.239,-5.337
0.217,0.051,0.240,-5.337
0.246,0.053,0.243,-5.337
0.264,0.054,0.242,-5.337
0.206,0.054,0.241,-5.337
0.201,0.055,0.244,-5.337
0.191,0.058,0.244,-5.337
0.162,0.057,0.246,-5.337
0.151,0.054,0.246,-5.337
0.148,0.055,0.248,-5.337
0.116,0.056,0.246,-5.337
0.086,0.055,0.241,-5.337
0.105,0.054,0.235,-5.337
0.135,0.051,0.232,-5.337
0.166,0.048,0.231,-5.337
0.228,0.053,0.234,-5.337
0.256,0.059,0.239,-5.337
0.268,0.057,0.242,-5.337
0.275,0.055,0.243,-5.337
0.226,0.057,0.242,-5.337
0.198,0.060,0.239,-5.337
0.275,0.060,0.243,-5.337
0.315,0.059,0.245,-5.337
0.195,0.063,0.241,-5.337
0.178,0.063,0.239,-5.337
0.165,0.062,0.241,-5.337
0.142,0.061,0.243,-5.337
0.184,0.060,0.238,-5.337
0.212,0.056,0.236,-5.337
0.232,0.056,0.240,-5.337
0.225,0.056,0.246,-5.337
0.223,0.055,0.246,-5.337
0.175,0.055,0.241,-5.337
0.180,0.057,0.241,-5.337
0.252,0.056,0.245,-5.337
0.217,0.059,0.247,-5.337
0.160,0.060,0.245,-5.337
0.144,0.059,0.242,-5.337
0.196,0.056,0.243,-5.337
0.255,0.055,0.244,-5.337
0.307,0.053,0.243,-5.337
0.296,0.053,0.241,-5.337
0.239,0.055,0.242,-5.337
0.186,0.054,0.244,-5.337
0.176,0.058,0.241,-5.337
0.172,0.059,0.237,-5.337
0.184,0.053,0.236,-5.337
0.181,0.053,0.237,-5.337
0.159,0.052,0.237,-5.337
0.171,0.050,0.235,-5.337
0.221,0.051,0.239,-5.337
0.223,0.052,0.239,-5.337
0.229,0.056,0.236,-5.337
0.280,0.057,0.236,-5.337
0.283,0.057,0.241,-5.337
0.213,0.056,0.247,-5.337
0.115,0.061,0.248,-5.337
0.185,0.060,0.248,-5.337
0.245,0.058,0.246,-5.337
0.230,0.054,0.245,-5.337
0.173,0.055,0.245,-5.337
0.183,0.055,0.249,-5.337
0.229,0.053,0.248,-5.337
0.182,0.055,0.244,-5.337
0.090,0.050,0.241,-5.337
0.160,0.048,0.237,-5.337
0.244,0.049,0.236,-5.337
0.242,0.053,0.236,-5.337
0.197,0.052,0.235,-5.337
0.237,0.050,0.237,-5.337
0.242,0.050,0.239,-5.337
0.180,0.052,0.241,-5.337
0.188,0.054,0.242,-5.337
0.286,0.054,0.240,-5.337
0.326,0.053,0.238,-5.337
0.286,0.050,0.239,-5.337
0.276,0.049,0.239,-5.337
0.257,0.056,0.240,-5.337
0.203,0.056,0.245,-5.337
0.143,0.054,0.243,-5.337
0.149,0.051,0.236,-5.337
0.123,0.054,0.236,-5.337
0.100,0.056,0.242,-5.337
0.165,0.051,0.244,-5.337
0.185,0.048,0.246,-5.337
0.148,0.051,0.244,-5.337
0.148,0.056,0.240,-5.337
0.152,0.056,0.237,-5.337
0.236,0.050,0.241,-5.337
0.247,0.048,0.245,-5.337
0.165,0.052,0.243,-5.337
0.121,0.051,0.239,-5.337
0.149,0.051,0.239,-5.337
0.164,0.052,0.240,-5.337
0.195,0.050,0.237,-5.337
0.201,0.049,0.237,-5.337
0.154,0.050,0.240,-5.337
0.117,0.052,0.245,-5.337
0.161,0.051,0.245,-5.337
0.205,0.050,0.239,-5.337
0.213,0.046,0.240,-5.337
0.220,0.046,0.244,-5.337
0.253,0.047,0.239,-5.337
0.254,0.045,0.239,-5.337
0.235,0.047,0.243,-5.337
0.246,0.047,0.247,-5.337
0.248,0.047,0.242,-5.337
0.221,0.048,0.239,-5.337
0.250,0.044,0.235,-5.337
0.262,0.046,0.235,-5.337
0.224,0.049,0.237,-5.337
0.239,0.048,0.241,-5.337
0.236,0.044,0.242,-5.337
0.219,0.043,0.241,-5.337
0.172,0.045,0.241,-5.337
0.201,0.048,0.243,-5.337
0.241,0.046,0.245,-5.337
0.165,0.045,0.248,-5.337
0.121,0.045,0.245,-5.337
0.120,0.050,0.238,-5.337
0.128,0.050,0.234,-5.337
0.162,0.049,0.238,-5.337
0.197,0.044,0.243,-5.337
0.178,0.048,0.242,-5.337
0.155,0.048,0.240,-5.337
0.170,0.045,0.243,-5.337
0.187,0.046,0.244,-5.337
0.154,0.050,0.241,-5.337
0.148,0.047,0.245,-5.337
0.156,0.046,0.249,-5.337
0.211,0.043,0.248,-5.337
0.249,0.042,0.241,-5.337
0.268,0.042,0.239,-5.337
0.173,0.043,0.240,-5.337
0.155,0.041,0.241,-5.337
0.190,0.043,0.240,-5.337
0.144,0.045,0.241,-5.337
0.150,0.043,0.239,-5.337
0.167,0.042,0.239,-5.337
0.201,0.041,0.240,-5.337
0.235,0.043,0.241,-5.337
0.206,0.043,0.242,-5.337
0.178,0.043,0.241,-5.337
0.163,0.041,0.243,-5.337
0.181,0.043,0.245,-5.337
0.197,0.046,0.247,-5.337
0.242,0.046,0.245,-5.337
0.240,0.045,0.242,-5.337
0.183,0.048,0.240,-5.337
0.150,0.048,0.242,-5.337
0.132,0.047,0.242,-5.337
0.232,0.045,0.244,-5.337
0.243,0.048,0.245,-5.337
0.173,0.051,0.241,-5.337
0.182,0.047,0.234,-5.337
0.251,0.042,0.231,-5.337
0.155,0.045,0.236,-5.337
0.087,0.050,0.240,-5.337
0.142,0.049,0.242,-5.337
0.204,0.045,0.245,-5.337
0.162,0.048,0.242,-5.337
0.112,0.049,0.237,-5.337
0.196,0.044,0.234,-5.337
0.245,0.042,0.237,-5.337
0.200,0.043,0.244,-5.337
0.200,0.040,0.248,-5.337
0.207,0.039,0.247,-5.337
0.209,0.037,0.244,-5.337
0.170,0.041,0.240,-5.337
0.183,0.044,0.238,-5.337
0.148,0.045,0.238,-5.337
0.176,0.042,0.242,-5.337
0.224,0.042,0.242,-5.337
0.242,0.040,0.240,-5.337
0.237,0.038,0.238,-5.337
0.197,0.038,0.239,-5.337
0.128,0.041,0.242,-5.337
0.124,0.042,0.243,-5.337
0.176,0.041,0.242,-5.337
0.166,0.043,0.241,-5.337
0.156,0.044,0.242,-5.337
0.155,0.043,0.242,-5.337
0.124,0.043,0.242,-5.337
0.127,0.041,0.240,-5.337
0.157,0.041,0.242,-5.337
0.179,0.042,0.244,-5.337
0.189,0.041,0.244,-5.337
0.199,0.044,0.242,-5.337
0.138,0.046,0.237,-5.337
0.199,0.038,0.235,-5.337
0.352,0.036,0.237,-5.337
0.330,0.038,0.238,-5.337
0.218,0.039,0.238,-5.337
0.181,0.035,0.242,-5.337
0.221,0.033,0.239,-5.337
0.224,0.035,0.236,-5.337
0.166,0.039,0.241,-5.337
0.177,0.037,0.244,-5.337
0.267,0.036,0.243,-5.337
0.279,0.036,0.243,-5.337
0.190,0.038,0.242,-5.337
0.183,0.039,0.240,-5.337
0.239,0.041,0.237,-5.337
0.194,0.044,0.240,-5.337
0.212,0.044,0.242,-5.337
0.281,0.040,0.247,-5.337
0.222,0.038,0.245,-5.337
0.204,0.038,0.244,-5.337
0.249,0.037,0.241,-5.337
0.244,0.037,0.237,-5.337
0.212,0.038,0.233,-5.337
0.238,0.039,0.235,-5.337
0.151,0.041,0.240,-5.337
0.082,0.040,0.244,-5.337
0.063,0.038,0.246,-5.337
0.121,0.040,0.246,-5.337
0.102,0.041,0.242,-5.337
0.041,0.039,0.240,-5.337
0.047,0.038,0.240,-5.337
0.063,0.038,0.238,-5.337
0.202,0.035,0.238,-5.337
0.247,0.035,0.239,-5.337
0.232,0.035,0.240,-5.337
0.208,0.035,0.239,-5.337
0.183,0.033,0.240,-5.337
0.205,0.032,0.242,-5.337
0.155,0.033,0.245,-5.337
0.150,0.034,0.244,-5.337
0.168,0.035,0.240,-5.337
0.160,0.035,0.237,-5.337
0.180,0.033,0.238,-5.337
0.222,0.032,0.241,-5.337
0.185,0.034,0.245,-5.337
0.146,0.036,0.243,-5.337
0.146,0.038,0.239,-5.337
0.167,0.039,0.236,-5.337
0.194,0.039,0.237,-5.337
0.194,0.038,0.241,-5.337
0.180,0.037,0.244,-5.337
0.147,0.035,0.243,-5.337
0.187,0.034,0.242,-5.337
0.185,0.033,0.239,-5.337
0.239,0.030,0.239,-5.337
0.277,0.030,0.238,-5.337
0.263,0.029,0.239,-5.337
0.187,0.030,0.242,-5.337
0.116,0.033,0.240,-5.337
0.073,0.036,0.236,-5.337
0.081,0.035,0.236,-5.337
0.213,0.031,0.238,-5.337
0.211,0.032,0.238,-5.337
0.107,0.034,0.238,-5.337
0.132,0.030,0.239,-5.337
0.235,0.026,0.241,-5.337
0.278,0.027,0.241,-5.337
0.191,0.032,0.242,-5.337
0.089,0.031,0.239,-5.337
0.160,0.029,0.238,-5.337
0.229,0.027,0.240,-5.337
0.204,0.029,0.243,-5.337
0.138,0.033,0.242,-5.337
0.147,0.035,0.241,-5.337
0.154,0.032,0.241,-5.337
0.167,0.029,0.241,-5.337
0.261,0.029,0.238,-5.337
0.230,0.030,0.240,-5.337
0.112,0.030,0.238,-5.337
0.081,0.032,0.237,-5.337
0.225,0.028,0.240,-5.337
0.210,0.030,0.246,-5.337
0.205,0.030,0.246,-5.337
0.298,0.031,0.244,-5.337
0.270,0.031,0.241,-5.337
0.162,0.030,0.241,-5.337
0.174,0.026,0.242,-5.337
0.174,0.028,0.242,-5.337
0.174,0.027,0.240,-5.337
0.183,0.026,0.237,-5.337
0.195,0.026,0.238,-5.337
0.213,0.031,0.238,-5.337
0.208,0.033,0.242,-5.337
0.117,0.036,0.240,-5.337
0.120,0.034,0.237,-5.337
0.225,0.034,0.235,-5.337
0.265,0.035,0.239,-5.337
0.229,0.033,0.243,-5.337
0.230,0.034,0.246,-5.337
0.245,0.032,0.243,-5.337
0.268,0.033,0.242,-5.337
0.238,0.034,0.243,-5.337
0.226,0.033,0.242,-5.337
0.180,0.034,0.243,-5.337
0.168,0.035,0.241,-5.337
0.181,0.032,0.238,-5.337
0.151,0.037,0.240,-5.337
0.214,0.037,0.242,-5.337
0.204,0.037,0.246,-5.337
0.162,0.036,0.246,-5.337
0.187,0.035,0.242,-5.337
0.203,0.036,0.240,-5.337
0.181,0.037,0.241,-5.337
0.111,0.037,0.244,-5.337
0.108,0.036,0.243,-5.337
0.211,0.035,0.242,-5.337
0.214,0.034,0.241,-5.337
0.226,0.035,0.241,-5.337
0.190,0.037,0.240,-5.337
0.186,0.037,0.239,-5.337
0.203,0.033,0.241,-5.337
0.228,0.033,0.242,-5.337
0.163,0.034,0.240,-5.337
0.140,0.032,0.237,-5.337
0.155,0.034,0.234,-5.337
0.223,0.034,0.236,-5.337
0.253,0.036,0.242,-5.337
0.259,0.035,0.244,-5.337
0.270,0.037,0.245,-5.337
0.231,0.039,0.243,-5.337
0.173,0.039,0.245,-5.337
0.170,0.034,0.249,-5.337
0.200,0.034,0.244,-5.337
0.213,0.037,0.241,-5.337
0.274,0.039,0.242,-5.337
0.251,0.041,0.244,-5.337
0.183,0.039,0.247,-5.337
0.167,0.039,0.245,-5.337
0.203,0.040,0.243,-5.337
0.198,0.036,0.238,-5.337
0.197,0.036,0.238,-5.337
0.253,0.034,0.236,-5.337
0.281,0.037,0.237,-5.337
0.215,0.040,0.238,-5.337
0.204,0.038,0.241,-5.337
0.232,0.033,0.243,-5.337
0.290,0.031,0.245,-5.337
0.295,0.032,0.245,-5.337
0.205,0.032,0.243,-5.337
0.182,0.032,0.238,-5.337
0.190,0.038,0.236,-5.337
0.171,0.034,0.238,-5.337
0.193,0.034,0.239,-5.337
0.205,0.034,0.241,-5.337
0.207,0.032,0.248,-5.337
0.227,0.034,0.249,-5.337
0.182,0.034,0.242,-5.337
0.111,0.035,0.236,-5.337
0.150,0.035,0.238,-5.337
0.185,0.033,0.242,-5.337
0.175,0.034,0.243,-5.337
0.135,0.034,0.242,-5.337
0.221,0.032,0.241,-5.337
0.288,0.034,0.242,-5.337
0.194,0.038,0.241,-5.337
0.117,0.036,0.241,-5.337
0.203,0.036,0.242,-5.337
0.249,0.033,0.245,-5.337
0.215,0.033,0.243,-5.337
0.209,0.035,0.241,-5.337
0.169,0.034,0.237,-5.337
0.124,0.041,0.236,-5.337
0.156,0.040,0.240,-5.337
0.244,0.035,0.242,-5.337
0.251,0.037,0.242,-5.337
0.221,0.039,0.241,-5.337
0.222,0.041,0.238,-5.337
0.215,0.042,0.237,-5.337
0.218,0.043,0.235,-5.337
0.203,0.046,0.236,-5.337
0.250,0.044,0.236,-5.337
0.285,0.040,0.236,-5.337
0.216,0.041,0.242,-5.337
0.182,0.044,0.247,-5.337
0.176,0.045,0.246,-5.337
0.237,0.046,0.243,-5.337
0.261,0.049,0.243,-5.337
0.219,0.049,0.243,-5.337
0.200,0.048,0.243,-5.337
0.214,0.050,0.241,-5.337
0.184,0.049,0.241,-5.337
0.138,0.047,0.239,-5.337
0.129,0.043,0.242,-5.337
0.162,0.042,0.242,-5.337
0.184,0.042,0.246,-5.337
0.194,0.041,0.249,-5.337
0.239,0.038,0.249,-5.337
0.280,0.038,0.243,-5.337
0.295,0.040,0.238,-5.337
0.268,0.044,0.236,-5.337
0.272,0.043,0.239,-5.337
0.230,0.045,0.240,-5.337
0.136,0.049,0.240,-5.337
0.138,0.050,0.244,-5.337
0.196,0.049,0.242,-5.337
0.169,0.050,0.238,-5.337
0.125,0.046,0.237,-5.337
0.139,0.043,0.238,-5.337
0.193,0.039,0.243,-5.337
0.186,0.040,0.245,-5.337
0.202,0.041,0.242,-5.337
0.216,0.043,0.240,-5.337
0.228,0.042,0.237,-5.337
0.223,0.045,0.239,-5.337
0.312,0.043,0.240,-5.337
0.273,0.045,0.245,-5.337
0.241,0.045,0.248,-5.337
0.247,0.045,0.247,-5.337
0.214,0.043,0.242,-5.337
0.165,0.045,0.243,-5.337
0.157,0.050,0.246,-5.337
0.154,0.053,0.246,-5.337
0.202,0.052,0.241,-5.337
0.225,0.048,0.241,-5.337
0.211,0.045,0.242,-5.337
0.176,0.045,0.243,-5.337
0.210,0.045,0.244,-5.337
0.231,0.047,0.244,-5.337
0.225,0.045,0.246,-5.337
0.164,0.046,0.241,-5.337
0.171,0.045,0.239,-5.337
0.265,0.045,0.242,-5.337
0.229,0.049,0.246,-5.337
0.148,0.046,0.244,-5.337
0.143,0.044,0.241,-5.337
0.205,0.046,0.240,-5.337
0.210,0.049,0.237,-5.337
0.178,0.048,0.236,-5.337
0.160,0.046,0.235,-5.337
0.228,0.047,0.236,-5.337
0.287,0.049,0.238,-5.337
0.237,0.048,0.241,-5.337
0.215,0.047,0.242,-5.337
0.242,0.048,0.240,-5.337
0.248,0.048,0.239,-5.337
0.218,0.052,0.239,-5.337
0.219,0.051,0.239,-5.337
0.175,0.057,0.243,-5.337
0.192,0.055,0.246,-5.337
0.221,0.052,0.245,-5.337
0.168,0.055,0.243,-5.337
0.160,0.054,0.241,-5.337
0.167,0.051,0.240,-5.337
0.246,0.048,0.242,-5.337
0.266,0.052,0.243,-5.337
0.204,0.053,0.240,-5.337
0.177,0.051,0.239,-5.337
0.227,0.051,0.241,-5.337
0.289,0.049,0.244,-5.337
0.320,0.051,0.243,-5.337
0.216,0.055,0.242,-5.337
0.162,0.055,0.242,-5.337
0.142,0.054,0.243,-5.337
0.145,0.052,0.243,-5.337
0.217,0.052,0.241,-5.337
0.241,0.054,0.238,-5.337
0.243,0.051,0.232,-5.337
0.255,0.051,0.232,-5.337
0.219,0.053,0.233,-5.337
0.184,0.056,0.238,-5.337
0.178,0.057,0.241,-5.337
0.086,0.061,0.249,-5.337
0.096,0.060,0.246,-5.337
0.146,0.060,0.239,-5.337
0.189,0.059,0.237,-5.337
0.259,0.054,0.237,-5.337
0.268,0.055,0.238,-5.337
0.272,0.055,0.240,-5.337
0.272,0.053,0.242,-5.337
0.287,0.052,0.241,-5.337
0.278,0.055,0.241,-5.337
0.242,0.054,0.243,-5.337
0.197,0.057,0.242,-5.337
0.179,0.055,0.241,-5.337
0.255,0.051,0.240,-5.337
0.273,0.053,0.243,-5.337
0.172,0.056,0.242,-5.337
0.170,0.056,0.241,-5.337
0.215,0.056,0.241,-5.337
0.188,0.052,0.238,-5.337
0.212,0.051,0.241,-5.337
0.252,0.050,0.242,-5.337
0.289,0.047,0.243,-5.337
0.228,0.049,0.243,-5.337
0.140,0.052,0.242,-5.337
0.149,0.052,0.239,-5.337
0.139,0.053,0.239,-5.337
0.164,0.052,0.239,-5.337
0.213,0.050,0.239,-5.337
0.228,0.049,0.237,-5.337
0.238,0.050,0.239,-5.337
0.240,0.053,0.242,-5.337
0.219,0.052,0.243,-5.337
0.256,0.046,0.243,-5.337
0.262,0.050,0.241,-5.337
0.138,0.054,0.242,-5.337
0.209,0.055,0.242,-5.337
0.281,0.054,0.241,-5.337
0.249,0.055,0.242,-5.337
0.271,0.051,0.244,-5.337
0.247,0.049,0.242,-5.337
0.208,0.051,0.241,-5.337
0.194,0.056,0.242,-5.337
0.229,0.057,0.241,-5.337
0.294,0.056,0.237,-5.337
0.197,0.057,0.237,-5.337
0.119,0.055,0.237,-5.337
0.184,0.053,0.239,-5.337
0.300,0.051,0.239,-5.337
0.260,0.056,0.242,-5.337
0.194,0.060,0.241,-5.337
0.165,0.060,0.239,-5.337
0.217,0.059,0.238,-5.337
0.319,0.058,0.239,-5.337
0.295,0.058,0.242,-5.337
0.244,0.061,0.245,-5.337
0.254,0.057,0.244,-5.337
0.299,0.054,0.244,-5.337
0.311,0.054,0.236,-5.337
0.259,0.054,0.231,-5.337
0.213,0.055,0.234,-5.337
0.189,0.053,0.240,-5.337
0.208,0.056,0.242,-5.337
0.234,0.057,0.242,-5.337
0.183,0.057,0.241,-5.337
0.226,0.057,0.239,-5.337
0.266,0.057,0.239,-5.337
0.231,0.057,0.235,-5.337
0.238,0.052,0.237,-5.337
0.259,0.052,0.241,-5.337
0.172,0.055,0.245,-5.337
0.162,0.055,0.242,-5.337
0.236,0.053,0.239,-5.337
0.253,0.052,0.238,-5.337
0.229,0.057,0.239,-5.337
0.298,0.056,0.238,-5.337
0.282,0.055,0.242,-5.337
0.228,0.052,0.243,-5.337
0.179,0.050,0.243,-5.337
0.172,0.053,0.240,-5.337
0.204,0.053,0.235,-5.337
0.220,0.055,0.235,-5.337
0.198,0.055,0.239,-5.337
0.117,0.049,0.239,-5.337
0.136,0.048,0.241,-5.337
0.192,0.052,0.240,-5.337
0.230,0.053,0.239,-5.337
0.247,0.052,0.237,-5.337
0.250,0.053,0.236,-5.337
0.143,0.053,0.241,-5.337
0.146,0.053,0.245,-5.337
0.200,0.052,0.242,-5.337
0.224,0.049,0.239,-5.337
0.278,0.053,0.244,-5.337
0.299,0.052,0.246,-5.337
0.265,0.050,0.247,-5.337
0.235,0.049,0.243,-5.337
0.229,0.054,0.241,-5.337
0.226,0.055,0.242,-5.337
0.230,0.056,0.246,-5.337
0.193,0.055,0.245,-5.337
0.143,0.057,0.242,-5.337
0.167,0.056,0.235,-5.337
0.200,0.056,0.234,-5.337
0.223,0.054,0.236,-5.337
0.207,0.054,0.241,-5.337
0.208,0.053,0.240,-5.337
0.167,0.055,0.238,-5.337
0.131,0.053,0.236,-5.337
0.175,0.053,0.238,-5.337
0.197,0.054,0.240,-5.337
0.161,0.055,0.241,-5.337
0.195,0.054,0.241,-5.337
0.232,0.051,0.240,-5.337
0.253,0.050,0.240,-5.337
0.247,0.051,0.243,-5.337
0.224,0.053,0.245,-5.337
0.149,0.057,0.243,-5.337
0.144,0.057,0.243,-5.337
0.231,0.050,0.242,-5.337
0.257,0.050,0.242,-5.337
0.264,0.047,0.242,-5.337
0.283,0.050,0.243,-5.337
0.180,0.052,0.242,-5.337
0.097,0.052,0.242,-5.337
0.153,0.050,0.239,-5.337
0.228,0.048,0.240,-5.337
0.192,0.048,0.238,-5.337
0.181,0.050,0.237,-5.337
0.199,0.051,0.240,-5.337
0.171,0.053,0.242,-5.337
0.138,0.057,0.241,-5.337
0.151,0.053,0.239,-5.337
0.214,0.044,0.244,-5.337
0.244,0.044,0.248,-5.337
0.248,0.046,0.245,-5.337
0.265,0.045,0.243,-5.337
0.237,0.047,0.243,-5.337
0.189,0.048,0.240,-5.337
0.224,0.046,0.239,-5.337
0.149,0.046,0.242,-5.337
0.121,0.049,0.243,-5.337
0.163,0.050,0.238,-5.337
0.181,0.049,0.237,-5.337
0.171,0.050,0.240,-5.337
0.221,0.047,0.242,-5.337
0.230,0.044,0.240,-5.337
0.198,0.043,0.240,-5.337
0.189,0.045,0.238,-5.337
0.217,0.043,0.241,-5.337
0.210,0.043,0.241,-5.337
0.157,0.044,0.243,-5.337
0.251,0.043,0.244,-5.337
0.395,0.044,0.241,-5.337
0.291,0.047,0.238,-5.337
0.209,0.049,0.243,-5.337
0.213,0.046,0.248,-5.337
0.158,0.050,0.245,-5.337
0.131,0.052,0.241,-5.337
0.196,0.050,0.241,-5.337
0.166,0.050,0.241,-5.337
0.204,0.050,0.242,-5.337
0.246,0.049,0.242,-5.337
0.235,0.048,0.241,-5.337
0.217,0.045,0.238,-5.337
0.159,0.049,0.238,-5.337
0.102,0.052,0.240,-5.337
0.131,0.051,0.240,-5.337
0.190,0.051,0.241,-5.337
0.241,0.051,0.240,-5.337
0.161,0.051,0.241,-5.337
0.130,0.050,0.242,-5.337
0.174,0.051,0.241,-5.337
0.226,0.049,0.237,-5.337
0.205,0.048,0.234,-5.337
0.189,0.046,0.232,-5.337
0.207,0.047,0.237,-5.337
0.207,0.050,0.238,-5.337
0.196,0.048,0.242,-5.337
0.189,0.047,0.245,-5.337
0.067,0.050,0.245,-5.337
0.077,0.045,0.243,-5.337
0.170,0.047,0.246,-5.337
0.219,0.047,0.246,-5.337
0.230,0.047,0.246,-5.337
0.233,0.047,0.244,-5.337
0.219,0.045,0.242,-5.337
0.195,0.046,0.237,-5.337
0.233,0.047,0.236,-5.337
0.209,0.047,0.237,-5.337
0.167,0.049,0.237,-5.337
0.203,0.048,0.241,-5.337
0.250,0.045,0.244,-5.337
0.206,0.046,0.245,-5.337
0.139,0.049,0.242,-5.337
0.145,0.052,0.241,-5.337
0.161,0.051,0.240,-5.337
0.151,0.049,0.243,-5.337
0.163,0.045,0.242,-5.337
0.185,0.043,0.242,-5.337
0.245,0.042,0.243,-5.337
0.280,0.045,0.244,-5.337
0.315,0.041,0.244,-5.337
0.380,0.039,0.242,-5.337
0.310,0.037,0.242,-5.337
0.198,0.040,0.242,-5.337
0.184,0.041,0.242,-5.337
0.166,0.043,0.242,-5.337
0.131,0.041,0.238,-5.337
0.161,0.039,0.237,-5.337
0.212,0.040,0.239,-5.337
0.224,0.039,0.242,-5.337
0.149,0.038,0.243,-5.337
0.114,0.038,0.244,-5.337
0.169,0.040,0.243,-5.337
0.194,0.044,0.240,-5.337
0.143,0.043,0.242,-5.337
0.119,0.039,0.246,-5.337
0.183,0.035,0.243,-5.337
0.248,0.037,0.238,-5.337
0.162,0.039,0.240,-5.337
0.105,0.036,0.243,-5.337
0.164,0.037,0.245,-5.337
0.165,0.039,0.242,-5.337
0.097,0.038,0.239,-5.337
0.167,0.038,0.238,-5.337
0.235,0.042,0.238,-5.337
0.281,0.040,0.237,-5.337
0.270,0.044,0.239,-5.337
0.203,0.040,0.240,-5.337
0.138,0.037,0.241,-5.337
0.115,0.038,0.246,-5.337
0.108,0.041,0.245,-5.337
0.126,0.038,0.245,-5.337
0.188,0.034,0.247,-5.337
0.213,0.034,0.246,-5.337
0.184,0.037,0.240,-5.337
0.211,0.036,0.236,-5.337
0.280,0.036,0.237,-5.337
0.245,0.037,0.238,-5.337
0.143,0.040,0.241,-5.337
0.078,0.037,0.244,-5.337
0.070,0.032,0.244,-5.337
0.173,0.028,0.242,-5.337
0.248,0.027,0.236,-5.337
0.277,0.028,0.235,-5.337
0.240,0.030,0.235,-5.337
0.149,0.033,0.241,-5.337
0.108,0.035,0.244,-5.337
0.156,0.036,0.243,-5.337
0.172,0.036,0.239,-5.337
0.228,0.036,0.238,-5.337
0.211,0.036,0.240,-5.337
0.195,0.039,0.242,-5.337
0.177,0.035,0.245,-5.337
0.167,0.036,0.247,-5.337
0.201,0.036,0.245,-5.337
0.157,0.042,0.242,-5.337
0.115,0.040,0.240,-5.337
0.138,0.039,0.239,-5.337
0.227,0.037,0.237,-5.337
0.236,0.037,0.235,-5.337
0.211,0.040,0.236,-5.337
0.227,0.038,0.235,-5.337
0.217,0.039,0.239,-5.337
0.154,0.042,0.244,-5.337
0.117,0.041,0.243,-5.337
0.108,0.041,0.239,-5.337
0.160,0.040,0.241,-5.337
0.229,0.033,0.242,-5.337
0.212,0.033,0.243,-5.337
0.223,0.039,0.243,-5.337
0.192,0.039,0.243,-5.337
0.245,0.035,0.240,-5.337
0.249,0.034,0.243,-5.337
0.166,0.036,0.249,-5.337
0.169,0.038,0.246,-5.337
0.199,0.040,0.241,-5.337
0.119,0.040,0.236,-5.337
0.130,0.035,0.238,-5.337
0.253,0.033,0.242,-5.337
0.284,0.037,0.237,-5.337
0.209,0.038,0.233,-5.337
0.125,0.038,0.235,-5.337
0.093,0.043,0.241,-5.337
0.141,0.047,0.240,-5.337
0.118,0.049,0.239,-5.337
0.154,0.046,0.238,-5.337
0.247,0.043,0.238,-5.337
0.227,0.041,0.242,-5.337
0.174,0.039,0.246,-5.337
0.198,0.037,0.247,-5.337
0.246,0.036,0.244,-5.337
0.254,0.035,0.243,-5.337
0.260,0.037,0.240,-5.337
0.236,0.039,0.243,-5.337
0.171,0.038,0.246,-5.337
0.202,0.035,0.250,-5.337
0.246,0.032,0.245,-5.337
0.204,0.036,0.238,-5.337
0.140,0.038,0.235,-5.337
0.083,0.039,0.238,-5.337
0.052,0.035,0.240,-5.337
0.111,0.034,0.239,-5.337
0.176,0.039,0.237,-5.337
0.233,0.039,0.239,-5.337
0.237,0.039,0.241,-5.337
0.188,0.043,0.244,-5.337
0.206,0.041,0.242,-5.337
0.194,0.039,0.239,-5.337
0.160,0.038,0.239,-5.337
0.171,0.041,0.238,-5.337
0.161,0.039,0.239,-5.337
0.170,0.038,0.238,-5.337
0.165,0.036,0.239,-5.337
0.142,0.035,0.236,-5.337
0.109,0.033,0.236,-5.337
0.164,0.032,0.239,-5.337
0.233,0.034,0.240,-5.337
0.241,0.031,0.239,-5.337
0.210,0.031,0.241,-5.337
0.195,0.032,0.242,-5.337
0.206,0.035,0.244,-5.337
0.223,0.036,0.242,-5.337
0.213,0.033,0.241,-5.337
0.230,0.032,0.244,-5.337
0.240,0.034,0.245,-5.337
0.202,0.033,0.244,-5.337
0.178,0.037,0.240,-5.337
0.235,0.036,0.234,-5.337
0.175,0.036,0.234,-5.337
0.046,0.038,0.240,-5.337
0.117,0.039,0.239,-5.337
0.240,0.038,0.238,-5.337
0.243,0.038,0.238,-5.337
0.180,0.038,0.238,-5.337
0.128,0.036,0.242,-5.337
0.164,0.035,0.245,-5.337
0.194,0.035,0.242,-5.337
0.175,0.035,0.241,-5.337
0.128,0.032,0.238,-5.337
0.163,0.031,0.237,-5.337
0.214,0.030,0.236,-5.337
0.281,0.030,0.238,-5.337
0.282,0.033,0.239,-5.337
0.264,0.034,0.242,-5.337
0.159,0.034,0.241,-5.337
0.142,0.032,0.240,-5.337
0.204,0.028,0.241,-5.337
0.222,0.030,0.244,-5.337
0.232,0.030,0.242,-5.337
0.272,0.032,0.238,-5.337
0.265,0.028,0.234,-5.337
0.268,0.028,0.236,-5.337
0.300,0.028,0.238,-5.337
0.231,0.032,0.245,-5.337
0.150,0.036,0.244,-5.337
0.190,0.036,0.241,-5.337
0.190,0.035,0.241,-5.337
0.178,0.037,0.243,-5.337
0.193,0.035,0.241,-5.337
0.188,0.036,0.240,-5.337
0.224,0.036,0.240,-5.337
0.189,0.037,0.238,-5.337
0.167,0.037,0.239,-5.337
0.160,0.039,0.238,-5.337
0.137,0.040,0.239,-5.337
0.188,0.034,0.242,-5.337
0.194,0.035,0.246,-5.337
0.156,0.041,0.247,-5.337
0.195,0.043,0.247,-5.337
0.178,0.037,0.244,-5.337
0.227,0.034,0.243,-5.337
0.346,0.033,0.238,-5.337
0.315,0.033,0.237,-5.337
0.196,0.037,0.237,-5.337
0.132,0.039,0.236,-5.337
0.169,0.038,0.236,-5.337
0.210,0.035,0.237,-5.337
0.189,0.031,0.241,-5.337
0.176,0.032,0.245,-5.337
0.150,0.030,0.249,-5.337
0.077,0.033,0.245,-5.337
0.107,0.036,0.243,-5.337
0.115,0.036,0.245,-5.337
0.228,0.031,0.242,-5.337
0.295,0.032,0.239,-5.337
0.264,0.035,0.237,-5.337
0.195,0.039,0.239,-5.337
0.169,0.040,0.240,-5.337
0.167,0.036,0.239,-5.337
0.168,0.034,0.240,-5.337
0.193,0.035,0.242,-5.337
0.213,0.036,0.243,-5.337
0.186,0.035,0.244,-5.337
0.219,0.032,0.245,-5.337
0.247,0.033,0.246,-5.337
0.270,0.035,0.245,-5.337
0.246,0.035,0.242,-5.337
0.225,0.037,0.242,-5.337
0.295,0.038,0.241,-5.337
0.279,0.040,0.240,-5.337
0.194,0.039,0.242,-5.337
0.171,0.038,0.242,-5.337
0.216,0.040,0.236,-5.337
0.232,0.043,0.239,-5.337
0.250,0.041,0.243,-5.337
0.240,0.040,0.243,-5.337
0.266,0.036,0.241,-5.337
0.293,0.034,0.240,-5.337
0.287,0.035,0.241,-5.337
0.196,0.041,0.238,-5.337
0.181,0.044,0.237,-5.337
0.194,0.045,0.239,-5.337
0.205,0.040,0.247,-5.337
0.195,0.035,0.246,-5.337
0.170,0.036,0.243,-5.337
0.120,0.038,0.237,-5.337
0.167,0.041,0.238,-5.337
0.168,0.043,0.243,-5.337
0.145,0.041,0.250,-5.337
0.256,0.037,0.247,-5.337
0.323,0.033,0.242,-5.337
0.224,0.038,0.241,-5.337
0.170,0.039,0.244,-5.337
0.133,0.038,0.246,-5.337
0.141,0.040,0.246,-5.337
0.127,0.041,0.243,-5.337
0.191,0.036,0.241,-5.337
0.236,0.034,0.241,-5.337
0.197,0.038,0.239,-5.337
0.176,0.038,0.241,-5.337
0.162,0.044,0.243,-5.337
0.104,0.046,0.243,-5.337
0.166,0.044,0.243,-5.337
0.252,0.042,0.244,-5.337
0.233,0.043,0.244,-5.337
0.155,0.042,0.241,-5.337
0.157,0.039,0.239,-5.337
0.233,0.039,0.240,-5.337
0.225,0.040,0.241,-5.337
0.211,0.038,0.242,-5.337
0.216,0.039,0.241,-5.337
0.217,0.037,0.242,-5.337
0.179,0.038,0.240,-5.337
0.136,0.040,0.240,-5.337
0.112,0.042,0.240,-5.337
0.106,0.042,0.244,-5.337
0.168,0.037,0.244,-5.337
0.225,0.039,0.244,-5.337
0.210,0.041,0.240,-5.337
0.180,0.042,0.238,-5.337
0.151,0.042,0.240,-5.337
0.138,0.044,0.244,-5.337
0.155,0.040,0.244,-5.337
0.196,0.042,0.245,-5.337
0.215,0.042,0.246,-5.337
0.181,0.043,0.242,-5.337
0.211,0.040,0.237,-5.337
0.228,0.045,0.236,-5.337
0.209,0.047,0.240,-5.337
0.193,0.046,0.243,-5.337
0.195,0.047,0.245,-5.337
0.257,0.044,0.243,-5.337
0.282,0.044,0.240,-5.337
0.216,0.043,0.242,-5.337
0.212,0.040,0.242,-5.337
0.220,0.041,0.238,-5.337
0.230,0.042,0.237,-5.337
0.265,0.045,0.235,-5.337
0.229,0.045,0.238,-5.337
0.199,0.048,0.240,-5.337
0.247,0.049,0.245,-5.337
0.238,0.047,0.247,-5.337
0.240,0.045,0.248,-5.337
0.257,0.042,0.249,-5.337
0.281,0.041,0.251,-5.337
0.305,0.046,0.249,-5.337
0.240,0.047,0.244,-5.337
0.129,0.043,0.239,-5.337
0.110,0.045,0.239,-5.337
0.152,0.046,0.241,-5.337
0.211,0.046,0.241,-5.337
0.236,0.047,0.241,-5.337
0.219,0.049,0.240,-5.337
0.198,0.049,0.242,-5.337
0.196,0.053,0.243,-5.337
0.124,0.052,0.240,-5.337
0.043,0.050,0.239,-5.337
0.074,0.049,0.242,-5.337
0.191,0.049,0.242,-5.337
0.238,0.044,0.242,-5.337
0.243,0.045,0.242,-5.337
0.242,0.047,0.242,-5.337
0.243,0.049,0.240,-5.337
0.252,0.048,0.242,-5.337
0.243,0.045,0.242,-5.337
0.195,0.046,0.243,-5.337
0.185,0.046,0.238,-5.337
0.173,0.049,0.236,-5.337
0.195,0.050,0.238,-5.337
0.193,0.048,0.239,-5.337
0.249,0.045,0.239,-5.337
0.254,0.047,0.242,-5.337
0.250,0.047,0.242,-5.337
0.195,0.047,0.242,-5.337
0.175,0.046,0.245,-5.337
0.227,0.046,0.244,-5.337
0.191,0.048,0.241,-5.337
0.225,0.045,0.240,-5.337
0.287,0.046,0.239,-5.337
0.229,0.046,0.241,-5.337
0.202,0.046,0.246,-5.337
0.167,0.050,0.247,-5.337
0.192,0.050,0.244,-5.337
0.250,0.047,0.238,-5.337
0.286,0.046,0.238,-5.337
0.281,0.050,0.236,-5.337
0.243,0.046,0.236,-5.337
0.167,0.045,0.237,-5.337
0.196,0.047,0.240,-5.337
0.260,0.044,0.239,-5.337
0.244,0.045,0.237,-5.337
0.238,0.045,0.238,-5.337
0.227,0.050,0.237,-5.337
0.234,0.050,0.239,-5.337
0.186,0.046,0.239,-5.337
0.160,0.046,0.238,-5.337
0.178,0.046,0.235,-5.337
0.217,0.048,0.232,-5.337
0.269,0.048,0.237,-5.337
0.231,0.044,0.242,-5.337
0.229,0.045,0.243,-5.337
0.312,0.045,0.242,-5.337
0.355,0.049,0.242,-5.337
0.300,0.048,0.241,-5.337
0.200,0.049,0.239,-5.337
0.155,0.050,0.238,-5.337
0.149,0.057,0.240,-5.337
0.132,0.057,0.242,-5.337
0.154,0.054,0.242,-5.337
0.166,0.052,0.243,-5.337
0.147,0.051,0.241,-5.337
0.230,0.049,0.240,-5.337
0.246,0.048,0.239,-5.337
0.259,0.050,0.240,-5.337
0.250,0.052,0.238,-5.337
0.174,0.054,0.239,-5.337
0.164,0.050,0.242,-5.337
0.197,0.051,0.243,-5.337
0.155,0.054,0.236,-5.337
0.192,0.057,0.233,-5.337
0.186,0.054,0.237,-5.337
0.201,0.052,0.244,-5.337
0.229,0.050,0.244,-5.337
0.212,0.052,0.240,-5.337
0.161,0.052,0.235,-5.337
0.210,0.054,0.233,-5.337
0.230,0.052,0.235,-5.337
0.231,0.049,0.239,-5.337
0.191,0.049,0.240,-5.337
0.154,0.051,0.241,-5.337
0.166,0.051,0.245,-5.337
0.241,0.049,0.247,-5.337
0.274,0.046,0.246,-5.337
0.223,0.044,0.242,-5.337
0.236,0.043,0.243,-5.337
0.267,0.044,0.243,-5.337
0.265,0.043,0.241,-5.337
0.239,0.042,0.236,-5.337
0.257,0.043,0.237,-5.337
0.314,0.044,0.239,-5.337
0.354,0.045,0.240,-5.337
0.271,0.045,0.236,-5.337
0.240,0.050,0.234,-5.337
0.203,0.052,0.236,-5.337
0.135,0.051,0.242,-5.337
0.084,0.049,0.241,-5.337
0.118,0.048,0.240,-5.337
0.175,0.049,0.242,-5.337
0.218,0.047,0.242,-5.337
0.189,0.049,0.237,-5.337
0.184,0.049,0.235,-5.337
0.247,0.048,0.238,-5.337
0.275,0.048,0.240,-5.337
0.175,0.049,0.242,-5.337
0.130,0.050,0.241,-5.337
0.159,0.053,0.241,-5.337
0.171,0.051,0.240,-5.337
0.128,0.051,0.237,-5.337
0.116,0.049,0.236,-5.337
0.217,0.049,0.237,-5.337
0.254,0.052,0.240,-5.337
0.203,0.052,0.242,-5.337
0.164,0.054,0.241,-5.337
0.139,0.054,0.242,-5.337
0.130,0.053,0.243,-5.337
0.152,0.048,0.242,-5.337
0.232,0.045,0.239,-5.337
0.263,0.045,0.239,-5.337
0.251,0.046,0.237,-5.337
0.218,0.047,0.233,-5.337
0.229,0.045,0.235,-5.337
0.217,0.049,0.235,-5.337
0.226,0.047,0.236,-5.337
0.201,0.046,0.240,-5.337
0.250,0.047,0.243,-5.337
0.283,0.048,0.243,-5.337
0.220,0.051,0.242,-5.337
0.122,0.052,0.242,-5.337
0.092,0.051,0.242,-5.337
0.143,0.052,0.242,-5.337
0.151,0.051,0.238,-5.337
0.216,0.050,0.233,-5.337
0.209,0.051,0.235,-5.337
0.216,0.050,0.238,-5.337
0.200,0.049,0.242,-5.337
0.184,0.048,0.244,-5.337
0.182,0.047,0.243,-5.337
0.176,0.050,0.238,-5.337
0.164,0.048,0.234,-5.337
0.188,0.048,0.234,-5.337
0.204,0.050,0.241,-5.337
0.179,0.049,0.244,-5.337
0.121,0.048,0.238,-5.337
0.168,0.043,0.236,-5.337
0.227,0.047,0.241,-5.337
0.241,0.051,0.241,-5.337
0.191,0.050,0.240,-5.337
0.162,0.049,0.237,-5.337
0.192,0.049,0.239,-5.337
0.228,0.052,0.239,-5.337
0.208,0.050,0.240,-5.337
0.217,0.046,0.238,-5.337
0.228,0.048,0.237,-5.337
0.244,0.042,0.235,-5.337
0.239,0.039,0.235,-5.337
0.265,0.043,0.241,-5.337
0.213,0.047,0.244,-5.337
0.148,0.046,0.241,-5.337
0.180,0.045,0.235,-5.337
0.181,0.047,0.235,-5.337
0.172,0.047,0.238,-5.337
0.130,0.047,0.240,-5.337
0.142,0.044,0.240,-5.337
0.184,0.039,0.242,-5.337
0.223,0.041,0.239,-5.337
0.201,0.043,0.237,-5.337
0.188,0.048,0.235,-5.337
0.202,0.047,0.238,-5.337
0.183,0.045,0.240,-5.337
0.155,0.049,0.239,-5.337
0.165,0.050,0.237,-5.337
0.242,0.047,0.239,-5.337
0.254,0.046,0.240,-5.337
0.227,0.046,0.240,-5.337
0.201,0.047,0.240,-5.337
0.234,0.048,0.241,-5.337
0.222,0.045,0.241,-5.337
0.224,0.044,0.238,-5.337
0.216,0.044,0.233,-5.337
0.224,0.045,0.233,-5.337
0.180,0.046,0.239,-5.337
0.233,0.040,0.243,-5.337
0.303,0.037,0.239,-5.337
0.285,0.038,0.237,-5.337
0.173,0.041,0.242,-5.337
0.143,0.042,0.242,-5.337
0.201,0.044,0.242,-5.337
0.205,0.044,0.243,-5.337
0.186,0.047,0.242,-5.337
0.211,0.044,0.238,-5.337
0.188,0.042,0.235,-5.337
0.187,0.041,0.234,-5.337
0.175,0.045,0.234,-5.337
0.150,0.048,0.236,-5.337
0.173,0.048,0.239,-5.337
0.187,0.044,0.242,-5.337
0.210,0.041,0.249,-5.337
0.271,0.042,0.250,-5.337
0.205,0.046,0.247,-5.337
0.113,0.047,0.240,-5.337
0.110,0.047,0.237,-5.337
0.181,0.047,0.237,-5.337
0.197,0.046,0.239,-5.337
0.208,0.040,0.238,-5.337
0.245,0.040,0.236,-5.337
0.182,0.043,0.236,-5.337
0.184,0.042,0.237,-5.337
0.222,0.041,0.237,-5.337
0.220,0.042,0.239,-5.337
0.258,0.039,0.242,-5.337
0.252,0.039,0.244,-5.337
0.210,0.039,0.244,-5.337
0.171,0.040,0.243,-5.337
0.135,0.042,0.240,-5.337
0.146,0.041,0.236,-5.337
0.138,0.043,0.232,-5.337
0.088,0.047,0.232,-5.337
0.090,0.045,0.232,-5.337
0.142,0.043,0.234,-5.337
0.154,0.042,0.239,-5.337
0.105,0.042,0.241,-5.337
0.116,0.043,0.242,-5.337
0.177,0.039,0.240,-5.337
0.227,0.037,0.239,-5.337
0.227,0.037,0.239,-5.337
0.227,0.036,0.242,-5.337
0.239,0.036,0.240,-5.337
0.285,0.036,0.237,-5.337
0.259,0.038,0.239,-5.337
0.207,0.042,0.241,-5.337
0.244,0.042,0.243,-5.337
0.254,0.042,0.238,-5.337
0.197,0.042,0.238,-5.337
0.198,0.041,0.239,-5.337
0.186,0.042,0.241,-5.337
0.189,0.041,0.240,-5.337
0.172,0.040,0.240,-5.337
0.170,0.037,0.240,-5.337
0.170,0.041,0.240,-5.337
0.168,0.037,0.239,-5.337
0.164,0.036,0.240,-5.337
0.170,0.036,0.240,-5.337
0.195,0.040,0.238,-5.337
0.159,0.036,0.238,-5.337
0.224,0.036,0.238,-5.337
0.279,0.038,0.238,-5.337
0.305,0.037,0.239,-5.337
0.254,0.036,0.239,-5.337
0.171,0.039,0.241,-5.337
0.173,0.037,0.244,-5.337
0.195,0.034,0.242,-5.337
0.193,0.035,0.237,-5.337
0.227,0.036,0.239,-5.337
