File Version,253
# of Channels,2
Samples/Channel,10300
Scan Rate (Hz),10000
Timestamp,3807794595
Operating Mode,1
Trial #,0
Session #,32
Subject code 1,82
Subject code 2,88
Feedback Window,0
Feedback Ch,0
Ch B,0
Pre-Stim Acq. time (ms),100
Post-Stim Acq. time (ms),900
EMG Hi Limit,50
EMG Lo Limit,0.00025
Target Value (V),5
Stimulus Value (V),0.65
Stimulus duration (ms),1
EMG conditions time limit (sec),0.2
M-response Start (ms),2
M-response Duration (ms),2
H-response Duration (ms),2
H-response Start (ms),5
Proportioanl gain,0.003
Channel to monitor,0
SIU gain,20
FB Monitor value,0.745249
Inter-Stim delay (sec),5
M-Window Mean,0.012433
H-Window Mean,0.005681
Stimulus paradigm,2
# of Pulses in cond train,1
Cond duration (ms),1
Cond Train pulse period (ms),30
Cond Value (V),0.65
Start Delay (ms),0
# of Pulses in stim train,1
Stim Train pulse period (ms),30
EMG amp gain ch 1,500
EMG amp gain ch 2,500
EMG amp gain ch 3,1000
EMG amp gain ch 4,1000
EMG amp gain ch 5,1000
EMG amp gain ch 6,1000
Stim Type 1,2
Stim/Cond 1,0
Stim Type 2,3
Stim/Cond 2,0
Stim Type 3,3
Stim/Cond 3,0
Stim Type 4,3
Stim/Cond 4,0
Stim Value 1,0.65
Stim Value 2,0
Stim Value 3,0
Stim Value 4,0
1st PP Channel,-1
Pressure (g),0
Speed (mm/sec),0
Dwell (ms),0
Pressure limit (g),0
Travel limit (mm),0
Amp gain,0
Wait Trig?,0
Move Timeout (ms),0
Time Taken (ms),0
Actual Travel (mm),0
Recorded Data (mV),
0.037,-0.101
0.041,-0.098
0.04,-0.101
0.043,-0.099
0.036,-0.099
0.036,-0.098
0.035,-0.094
0.038,-0.096
0.04,-0.092
0.045,-0.092
0.043,-0.088
0.038,-0.086
0.031,-0.081
0.026,-0.074
0.023,-0.063
0.009,-0.048
-0.003,-0.061
0.008,-0.081
0.019,-0.093
0.019,-0.096
0.012,-0.096
0.017,-0.091
0.026,-0.092
0.038,-0.092
0.032,-0.094
0.027,-0.1
0.03,-0.1
0.031,-0.099
0.029,-0.093
0.028,-0.086
0.027,-0.08
0.026,-0.084
0.028,-0.079
0.032,-0.066
0.036,-0.067
0.034,-0.067
0.026,-0.059
0.017,-0.04
0.002,-0.026
-0.016,-0.039
-0.021,-0.059
0.004,-0.081
0.04,-0.091
0.069,-0.099
0.077,-0.101
0.075,-0.104
0.075,-0.098
0.062,-0.098
0.03,-0.099
0.007,-0.1
-0.012,-0.11
-0.055,-0.108
-0.076,-0.107
-0.044,-0.1
0.008,-0.101
0.03,-0.098
0.018,-0.099
0.014,-0.096
0.011,-0.094
0.019,-0.096
0.031,-0.096
0.055,-0.106
0.075,-0.109
0.1,-0.112
0.105,-0.116
0.093,-0.12
0.078,-0.124
0.061,-0.127
0.048,-0.13
0.036,-0.131
0.025,-0.132
0.015,-0.133
0.006,-0.134
-0.006,-0.134
-0.013,-0.134
-0.018,-0.136
-0.021,-0.151
-0.028,-0.154
-0.026,-0.149
-0.02,-0.139
-0.016,-0.134
-0.001,-0.131
0.032,-0.133
0.072,-0.14
0.107,-0.146
0.098,-0.161
0.063,-0.164
0.029,-0.144
0.007,-0.125
0.019,-0.123
0.079,-0.13
0.158,-0.141
0.141,-0.151
0.072,-0.159
0.023,-0.163
0.011,-0.163
0.022,-0.161
0.031,-0.161
0.04,-0.164
0.044,-0.164
0.041,-0.164
0.035,-0.165
0.032,-0.163
0.035,-0.163
0.032,-0.152
0.021,-0.141
0.007,-0.128
0.006,-0.127
0.011,-0.136
0.014,-0.158
0.011,-0.178
0.013,-0.189
0.02,-0.189
0.032,-0.189
0.037,-0.182
0.041,-0.181
0.044,-0.172
0.044,-0.17
0.041,-0.168
0.039,-0.166
0.035,-0.163
0.025,-0.161
0.019,-0.169
0.019,-0.171
0.027,-0.168
0.029,-0.159
0.015,-0.157
-0.007,-0.151
-0.036,-0.148
-0.061,-0.14
-0.056,-0.139
-0.005,-0.133
0.049,-0.122
0.077,-0.109
0.072,-0.098
0.069,-0.082
0.066,-0.06
0.062,-0.044
0.052,-0.026
0.039,-0.014
0.037,0.001
0.03,0.01
0.03,0.024
0.031,0.035
0.036,0.043
0.036,0.056
0.038,0.064
0.038,0.083
0.039,0.107
0.038,0.123
0.038,0.134
0.039,0.132
0.039,0.135
0.041,0.137
0.045,0.143
0.042,0.15
0.044,0.158
0.042,0.167
0.043,0.172
0.045,0.178
0.043,0.182
0.043,0.187
0.039,0.192
0.043,0.196
0.042,0.203
0.042,0.211
0.043,0.217
0.043,0.221
0.044,0.224
0.047,0.231
0.038,0.234
0.028,0.243
0.02,0.238
0.028,0.229
0.046,0.224
0.057,0.23
0.063,0.239
0.065,0.252
0.063,0.255
0.065,0.262
0.066,0.267
0.072,0.269
0.069,0.277
0.067,0.278
0.065,0.279
0.061,0.276
0.051,0.275
0.029,0.274
0.012,0.272
-0.005,0.269
-0.016,0.267
-0.012,0.273
0.027,0.279
0.085,0.281
0.134,0.287
0.151,0.285
0.143,0.289
0.119,0.288
0.098,0.288
0.087,0.283
0.083,0.283
0.077,0.281
0.073,0.275
0.065,0.274
0.065,0.277
0.065,0.279
0.066,0.275
0.067,0.278
0.061,0.281
0.052,0.278
0.044,0.282
0.036,0.278
0.041,0.274
0.045,0.274
0.058,0.272
0.064,0.271
0.071,0.264
0.068,0.266
0.076,0.263
0.089,0.269
0.089,0.276
0.067,0.275
0.048,0.269
0.043,0.262
0.044,0.257
0.049,0.262
0.054,0.26
0.068,0.224
0.076,0.206
0.076,0.258
0.074,0.32
0.072,0.365
0.065,0.375
0.066,0.347
0.069,0.296
0.076,0.254
0.08,0.225
0.086,0.216
0.084,0.226
0.076,0.244
0.054,0.266
0.03,0.251
-0.007,0.236
-0.02,0.233
0.023,0.257
0.067,0.283
0.087,0.262
0.08,0.244
0.082,0.227
0.091,0.23
0.088,0.228
0.076,0.217
0.064,0.177
0.059,0.147
0.056,0.147
0.054,0.168
0.053,0.173
0.056,0.165
0.062,0.156
0.067,0.151
0.074,0.155
0.077,0.164
0.082,0.158
0.085,0.109
0.091,0.092
0.09,0.156
0.097,0.231
0.095,0.278
0.092,0.301
0.084,0.299
0.076,0.273
0.066,0.255
0.056,0.253
0.054,0.258
0.06,0.218
0.056,0.134
0.029,0.054
-0.001,0.024
-0.033,0.053
-0.043,0.093
-0.002,0.119
0.091,0.117
0.145,0.101
0.143,0.099
0.117,0.104
0.091,0.121
0.073,0.128
0.064,0.134
0.063,0.129
0.07,0.126
0.068,0.12
0.071,0.114
0.069,0.11
0.075,0.102
0.072,0.101
0.07,0.094
0.063,0.094
0.052,0.089
0.049,0.089
0.037,0.09
0.035,0.095
0.039,0.097
0.053,0.093
0.067,0.09
0.077,0.087
0.081,0.088
0.078,0.091
0.076,0.08
0.074,0.068
0.068,0.062
0.067,0.07
0.065,0.082
0.067,0.085
0.064,0.082
0.062,0.076
0.062,0.068
0.062,0.066
0.057,0.068
0.049,0.069
0.047,0.068
0.048,0.067
0.048,0.067
0.058,0.065
0.059,0.067
0.059,0.065
0.059,0.063
0.058,0.06
0.06,0.061
0.057,0.062
0.058,0.062
0.055,0.065
0.054,0.063
0.052,0.065
0.055,0.066
0.057,0.068
0.056,0.073
0.056,0.075
0.056,0.086
0.053,0.089
0.056,0.089
0.058,0.073
0.062,0.053
0.062,0.032
0.064,0.024
0.054,0.031
0.047,0.037
0.036,0.048
0.025,0.051
0.02,0.056
0.033,0.056
0.054,0.047
0.062,0.045
0.062,0.046
0.057,0.055
0.057,0.057
0.054,0.06
0.053,0.057
0.052,0.056
0.051,0.057
0.049,0.054
0.049,0.057
0.049,0.056
0.049,0.058
0.047,0.057
0.048,0.059
0.046,0.058
0.051,0.06
0.053,0.057
0.057,0.064
0.054,0.06
0.054,0.062
0.048,0.062
0.049,0.06
0.045,0.064
0.043,0.065
0.041,0.068
0.046,0.066
0.049,0.074
0.048,0.079
0.05,0.075
0.047,0.056
0.054,0.05
0.056,0.054
0.058,0.055
0.055,0.062
0.049,0.059
0.04,0.057
0.028,0.065
0.017,0.08
0.006,0.099
0.018,0.106
0.048,0.106
0.072,0.071
0.072,0.002
0.061,-0.047
0.053,0.023
0.047,0.111
0.05,0.164
0.046,0.179
0.049,0.146
0.047,0.082
0.048,0.025
0.044,0.005
0.041,0.007
0.038,0.012
0.036,0.017
0.035,0.022
0.037,0.031
0.039,0.044
0.041,0.056
0.043,0.066
0.042,0.069
0.047,0.069
0.052,0.061
0.059,0.062
0.057,0.06
0.056,0.067
0.048,0.075
0.044,0.073
0.043,0.064
0.045,0.05
0.052,0.045
0.054,0.042
0.051,0.045
0.052,0.05
0.05,0.048
0.049,0.048
0.041,0.044
0.038,0.042
0.027,0.041
0.019,0.041
0.015,0.051
0.032,0.052
0.049,0.055
0.056,0.052
0.058,0.053
0.052,0.053
0.05,0.056
0.05,0.061
0.051,0.054
0.044,0.037
0.044,0.013
0.039,0.008
0.037,0.01
0.043,0.019
0.053,0.022
0.062,0.023
0.065,0.024
0.057,0.017
0.051,0.016
0.047,0.013
0.046,0.018
0.048,0.017
0.045,0.025
0.049,0.025
0.043,0.034
0.038,0.033
0.04,0.038
0.04,0.028
0.043,0.015
0.041,0.01
0.041,0.006
0.037,0.014
0.039,0.014
0.041,0.018
0.04,0.007
0.052,-0.006
0.057,-0.019
0.06,-0.016
0.059,0.021
0.058,0.056
0.051,0.081
0.037,0.039
0.032,-0.012
0.033,-0.025
0.039,-0.015
0.046,0.004
0.048,0.008
0.051,-0.002
0.043,-0.025
0.038,-0.031
0.031,-0.029
0.03,-0.022
0.027,-0.014
0.033,-0.009
0.043,-0.003
0.049,-0.002
0.05,-0.002
0.052,0.002
0.046,0
0.041,0.005
0.035,0.002
0.034,0.001
0.032,-0.002
0.035,-0.004
0.042,-0.002
0.052,-0.004
0.061,-0.002
0.061,-0.004
0.061,-0.005
0.059,-0.007
0.06,0
0.064,0.003
0.064,0.008
0.062,0.011
0.061,0.011
0.057,0.011
0.05,0.009
0.037,0.005
0.03,0.006
0.027,0.005
0.024,0.009
0.027,0.005
0.04,0.008
0.054,0.014
0.06,0.021
0.052,0.026
0.044,0.028
0.037,0.034
0.036,0.032
0.034,0.039
0.036,0.044
0.044,0.035
0.045,0.008
0.047,-0.005
0.048,-0.006
0.05,0.001
0.044,0.009
0.04,0.014
0.036,0.026
0.038,0.027
0.034,0.03
0.037,0.03
0.043,0.03
0.041,0.031
0.04,0.034
0.041,0.034
0.04,0.033
0.044,0.033
0.045,0.032
0.047,0.032
0.048,0.036
0.045,0.032
0.041,0.037
0.04,0.036
0.039,0.039
0.036,0.039
0.039,0.038
0.044,0.039
0.049,0.036
0.044,0.034
0.039,0.035
0.027,0.035
0.011,0.036
0.002,0.038
0.01,0.043
0.029,0.044
0.051,0.046
0.062,0.041
0.061,0.043
0.052,0.044
0.051,0.045
0.044,0.046
0.048,0.043
0.047,0.044
0.047,0.042
0.049,0.042
0.048,0.045
0.047,0.045
0.043,0.042
0.041,0.042
0.041,0.042
0.038,0.043
0.038,0.044
0.042,0.045
0.042,0.045
0.045,0.046
0.044,0.047
0.049,0.049
0.05,0.048
0.052,0.047
0.049,0.048
0.041,0.048
0.039,0.047
0.042,0.044
0.046,0.042
0.045,0.041
0.041,0.04
0.038,0.046
0.032,0.045
0.032,0.046
0.038,0.045
0.052,0.042
0.058,0.04
0.055,0.034
0.05,0.036
0.047,0.03
0.048,0.03
0.045,0.031
0.046,0.032
0.043,0.03
0.048,0.029
0.049,0.031
0.047,0.032
0.045,0.029
0.045,0.028
0.045,0.022
0.046,0.021
0.049,0.021
0.049,0.021
0.05,0.023
0.049,0.025
0.048,0.023
0.045,0.023
0.043,0.013
0.044,0.012
0.044,0.009
0.044,0.008
0.045,0.008
0.046,0.009
0.046,0.008
0.047,0.01
0.049,0.009
0.048,0.008
0.05,0.007
0.049,0.007
0.048,0.009
0.048,0.008
0.049,0.01
0.045,0.011
0.039,0.008
0.028,0.01
0.021,0.023
0.019,0.034
0.038,0.038
0.059,0.037
0.07,0.022
0.074,-0.003
0.067,-0.018
0.062,-0.022
0.058,-0.016
0.047,-0.013
0.049,-0.008
0.041,-0.007
0.042,-0.01
0.038,-0.004
0.039,-0.004
0.037,-0.001
0.038,-0.001
0.043,0.002
0.044,0.003
0.052,0.007
0.051,0.016
0.053,0.013
0.05,-0.006
0.048,-0.025
0.041,-0.028
0.036,-0.032
0.037,-0.024
0.039,-0.021
0.04,-0.015
0.035,-0.01
0.03,-0.01
0.021,-0.003
0.013,-0.001
0.025,0.003
0.039,0.003
0.057,0.002
0.056,0
0.058,-0.002
0.052,-0.001
0.049,-0.005
0.048,0.002
0.044,0.001
0.041,0.008
0.036,0.011
0.039,0.011
0.039,0.01
0.041,0.008
0.043,0.008
0.045,0.008
0.042,0.01
0.041,0.01
0.041,0.011
0.038,0.015
0.041,0.013
0.044,0.014
0.04,0.014
0.039,0.018
0.035,0.014
0.036,0.017
0.036,0.021
0.036,0.019
0.038,0.021
0.043,0.022
0.038,0.023
0.042,0.022
0.037,0.023
0.036,0.024
0.035,0.025
0.039,0.023
0.041,0.028
0.041,0.026
0.044,0.029
0.041,0.025
0.042,0.029
0.039,0.027
0.036,0.029
0.035,0.028
0.039,0.033
0.046,0.036
0.06,0.037
0.059,0.039
0.054,0.042
0.042,0.041
0.032,0.036
0.026,0.035
0.029,0.034
0.032,0.029
0.039,0.031
0.048,0.034
0.053,0.04
0.053,0.041
0.049,0.047
0.043,0.051
0.043,0.058
0.039,0.057
0.037,0.047
0.03,0.041
0.033,0.041
0.032,0.044
0.029,0.041
0.036,0.039
0.051,0.038
0.067,0.034
0.071,0.033
0.062,0.034
0.047,0.036
0.038,0.04
0.039,0.039
0.048,0.042
0.052,0.042
0.051,0.041
0.05,0.041
0.052,0.041
0.046,0.041
0.047,0.043
0.048,0.044
0.051,0.043
0.048,0.043
0.05,0.041
0.05,0.041
0.044,0.042
0.038,0.038
0.039,0.042
0.04,0.041
0.041,0.045
0.039,0.041
0.044,0.041
0.045,0.047
0.049,0.052
0.044,0.06
0.037,0.061
0.028,0.056
0.019,0.034
0.017,0.021
0.023,0.018
0.042,0.028
0.053,0.041
0.057,0.036
0.051,0.019
0.05,0.005
0.045,0.002
0.044,0.003
0.049,0.008
0.054,0.009
0.057,0.013
0.059,0.016
0.057,0.016
0.059,0.017
0.056,0.015
0.053,0.018
0.052,0.013
0.047,0.012
0.044,0.01
0.041,0.01
0.041,0.01
0.045,0.006
0.049,0.006
0.057,0.008
0.059,0.011
0.055,0.013
0.045,0.017
0.033,0.015
0.025,0.01
0.024,0.003
0.027,0.002
0.031,0
0.049,0.005
0.065,-0.005
0.072,-0.048
0.062,-0.078
0.044,-0.008
0.041,0.065
0.046,0.104
0.051,0.111
0.046,0.087
0.042,0.03
0.048,-0.023
0.05,-0.057
0.057,-0.059
0.049,-0.052
0.053,-0.038
0.048,-0.026
0.046,-0.018
0.047,-0.009
0.05,-0.009
0.054,-0.008
0.045,-0.011
0.038,-0.008
0.025,-0.005
0.013,-0.004
0.011,0.002
0.026,0.001
0.044,0.007
0.059,0.007
0.062,0.008
0.058,0
0.055,-0.011
0.051,-0.018
0.047,-0.02
0.046,-0.009
0.041,0.001
0.042,0.008
0.043,0.003
0.046,-0.002
0.044,0.008
0.044,0.017
0.038,0.036
0.037,0.037
0.04,0.026
0.04,0.005
0.042,-0.018
0.041,-0.026
0.041,-0.028
0.045,-0.02
0.043,-0.018
0.046,-0.01
0.045,-0.004
0.046,0.006
0.043,0.02
0.046,0.024
0.046,0.027
0.045,0.027
0.048,0.026
0.043,0.025
0.046,0.032
0.043,0.033
0.045,0.016
0.042,-0.003
0.047,-0.011
0.046,-0.01
0.046,-0.005
0.043,0.005
0.035,0.012
0.026,0.022
0.023,0.032
0.013,0.039
0.022,0.041
0.036,0.04
0.052,0.035
0.055,0.03
0.053,0.026
0.052,0.026
0.05,0.023
0.05,0.026
0.042,0.029
0.037,0.034
0.034,0.036
0.037,0.037
0.042,0.037
0.046,0.036
0.052,0.035
0.051,0.033
0.048,0.033
0.044,0.034
0.036,0.034
0.028,0.038
0.025,0.038
0.038,0.043
0.044,0.038
0.049,0.037
0.045,0.039
0.047,0.039
0.045,0.044
0.046,0.043
0.046,0.044
0.045,0.043
0.044,0.041
0.048,0.043
0.045,0.042
0.045,0.043
0.046,0.044
0.048,0.043
0.041,0.044
0.047,0.048
0.045,0.05
0.047,0.048
0.044,0.05
0.047,0.045
0.05,0.046
0.048,0.044
0.046,0.048
0.044,0.054
0.041,0.05
0.044,0.05
0.049,0.042
0.052,0.036
0.054,0.033
0.059,0.033
0.057,0.036
0.053,0.036
0.049,0.043
0.038,0.047
0.035,0.05
0.034,0.048
0.044,0.043
0.047,0.035
0.05,0.03
0.046,0.03
0.044,0.027
0.042,0.029
0.037,0.023
0.033,0.023
0.025,0.028
0.026,0.027
0.026,0.027
0.035,0.023
0.041,0.024
0.056,0.021
0.06,0.023
0.061,0.024
0.057,0.023
0.05,0.023
0.05,0.02
0.05,0.024
0.047,0.019
0.047,0.021
0.047,0.016
0.049,0.014
0.049,0.011
0.052,0.006
0.051,0.003
0.058,-0.001
0.057,0.001
0.057,0.001
0.058,0.003
0.055,-0.002
0.054,0.002
0.054,-0.001
0.052,-0.002
0.048,-0.002
0.054,0.003
0.051,-0.003
0.049,-0.002
0.036,0.005
0.026,0.004
0.01,0.005
0.009,0.005
0.024,0.013
0.045,0.019
0.06,0.027
0.062,0.028
0.053,0.014
0.054,-0.003
0.047,-0.019
0.044,-0.024
0.037,-0.023
0.033,-0.015
0.019,-0.008
0.023,-0.005
0.034,0.001
0.054,0.003
0.068,0.002
0.064,-0.004
0.053,-0.008
0.038,-0.006
0.034,-0.011
0.036,-0.01
0.042,-0.011
0.043,-0.005
0.044,0
0.043,0.004
0.042,0.003
0.043,-0.003
0.043,-0.003
0.042,-0.008
0.042,-0.003
0.039,-0.005
0.042,-0.002
0.037,0.001
0.074,0.015
0.071,0.015
0.073,0.013
0.071,0.009
0.073,0.008
0.073,0.007
0.07,0.007
0.068,0.007
0.066,0.011
0.062,0.015
0.02,0.005
0.022,0.009
0.023,0.022
0.024,0.039
0.026,0.065
0.026,0.078
0.032,0.082
0.031,0.095
0.032,0.106
0.032,0.102
0.03,0.053
0.025,-0.006
0.025,-0.059
0.024,-0.081
0.027,-0.064
0.031,-0.046
0.032,-0.023
0.034,-0.008
0.037,0.004
0.035,0.012
0.032,0.017
0.031,0.023
0.03,0.027
0.031,0.03
0.031,0.009
0.036,-0.044
0.045,-0.027
0.046,0.048
0.048,0.109
0.047,0.139
0.044,0.131
0.033,0.095
0.016,0.036
0.01,-0.001
0.016,-0.011
0.023,-0.005
0.033,0.004
0.039,0.01
0.042,0.012
0.042,0.019
0.042,0.027
0.043,0.028
0.04,0.032
0.039,0.032
0.041,0.034
0.038,0.03
0.039,0.032
0.038,0.036
0.037,0.04
0.037,0.043
0.037,0.048
0.037,0.044
0.038,0.045
0.041,0.043
0.041,0.04
0.04,0.04
0.04,0.043
0.038,0.04
0.041,0.037
0.037,0.038
0.04,0.036
0.04,0.04
0.04,0.035
0.04,0.04
0.041,0.043
0.043,0.044
0.043,0.042
0.047,0.044
0.044,0.046
0.047,0.047
0.046,0.046
0.047,0.047
0.049,0.045
0.044,0.041
0.042,0.035
0.034,0.035
0.025,0.034
0.015,0.037
0.015,0.04
0.027,0.045
0.049,0.041
0.063,0.037
0.057,0.032
0.05,0.028
0.034,0.029
0.026,0.028
0.021,0.031
0.035,0.03
0.061,0.032
0.075,0.027
0.077,0.028
0.057,0.033
0.043,0.042
0.03,0.052
0.028,0.056
0.029,0.052
0.035,0.036
0.042,0.023
0.049,0.007
0.049,0.006
0.048,0.005
0.049,0.008
0.051,0.01
0.054,0.007
0.058,0.01
0.06,0.005
0.057,0.006
0.055,0.004
0.05,0.006
0.04,0.004
0.038,0.008
0.04,0.009
0.052,0.009
0.055,0.009
0.058,0.006
0.051,0.013
0.049,0.014
0.047,0.016
0.046,0.015
0.053,0.018
0.049,0.019
0.048,0.022
0.038,0.028
0.037,0.018
0.033,-0.005
0.032,-0.024
0.033,-0.028
0.036,-0.028
0.044,-0.019
0.046,0.001
0.048,0.005
0.053,0.006
0.055,-0.002
0.057,-0.009
0.052,-0.015
0.047,-0.022
0.033,-0.052
0.018,-0.102
0.001,-0.056
-0.001,0.037
0.014,0.108
0.038,0.139
0.045,0.121
0.049,0.066
0.056,-0.002
0.069,-0.043
0.069,-0.053
0.061,-0.047
0.052,-0.038
0.049,-0.027
0.048,-0.017
0.049,-0.014
0.05,-0.007
0.049,-0.005
0.051,-0.003
0.049,-0.002
0.049,-0.002
0.043,0.004
0.042,0.005
0.037,0.003
0.037,0.002
0.039,0.002
0.041,0.005
0.041,0.003
0.042,0.009
0.041,0.006
0.041,0.012
0.04,0.01
0.042,0.008
0.043,0.005
0.044,0.005
0.044,0.01
0.044,0.01
0.04,0.015
0.042,0.014
0.045,0.019
0.041,0.018
0.047,0.022
0.047,0.024
0.052,0.027
0.05,0.023
0.052,0.018
0.044,0.016
0.039,0.017
0.027,0.022
0.024,0.022
0.018,0.029
0.024,0.028
0.032,0.032
0.042,0.03
0.046,0.028
0.05,0.025
0.049,0.025
0.049,0.026
0.05,0.028
0.049,0.031
0.047,0.035
0.036,0.036
0.037,0.036
0.037,0.039
0.037,0.039
0.036,0.041
0.04,0.043
0.047,0.043
0.048,0.041
0.046,0.041
0.041,0.041
0.04,0.037
0.031,0.037
0.027,0.033
0.024,0.032
0.039,0.03
0.056,0.037
0.069,0.042
0.065,0.056
0.05,0.072
0.043,0.075
0.037,0.076
0.042,0.076
0.044,0.083
0.047,0.077
0.04,0.067
0.036,0.059
0.027,0.045
0.024,0.023
0.025,-0.003
0.033,0.002
0.037,0.018
0.041,0.021
0.044,0.013
0.046,0.013
0.043,0.022
0.043,0.034
0.043,0.046
0.044,0.051
0.044,0.055
0.049,0.055
0.047,0.046
0.048,0.043
0.045,0.041
0.05,0.036
0.047,0.036
0.046,0.034
0.04,0.041
0.044,0.041
0.041,0.046
0.042,0.046
0.05,0.048
0.055,0.044
0.057,0.045
0.043,0.049
0.036,0.047
0.033,0.046
0.04,0.044
0.042,0.043
0.043,0.04
0.043,0.036
0.043,0.034
0.044,0.03
0.044,0.028
0.043,0.024
0.049,0.025
0.049,0.021
0.055,0.021
0.061,0.023
0.063,0.018
0.067,0.017
0.061,0.016
0.046,0.015
0.033,0.016
0.019,0.017
0.016,0.018
0.018,0.02
0.047,0.018
0.072,0.018
0.08,0.009
0.066,0.005
0.038,0
0.01,0.002
-0.02,0.01
-0.033,0.016
-0.003,0.02
0.046,0.019
0.086,0.016
0.099,0.011
0.097,0.008
0.076,0.007
0.055,0.004
0.047,0.01
0.044,0.002
0.043,0.003
0.045,0.001
0.051,0.002
0.05,0.001
0.054,0
0.045,-0.001
0.04,-0.003
0.036,-0.004
0.035,-0.004
0.036,-0.005
0.035,-0.003
0.04,-0.003
0.054,0.003
0.057,0
0.055,0.001
0.044,0.001
0.046,0.005
0.043,0.008
0.043,0.005
0.041,0.009
0.046,0.004
0.046,0.004
0.05,-0.001
0.054,-0.002
0.056,-0.005
0.055,-0.004
0.054,-0.002
0.043,-0.001
0.039,0
0.03,0.002
0.034,0.001
0.034,-0.001
0.041,-0.002
0.043,0.001
0.046,0.001
0.046,0.004
0.049,0.003
0.053,0.008
0.059,0.006
0.059,0.008
0.051,0.011
0.044,0.008
0.025,0.01
0.015,0.011
0.011,0.013
0.023,0.017
0.039,0.021
0.054,0.023
0.058,0.017
0.052,0.01
0.047,0.005
0.049,0.008
0.048,0.009
0.049,0.013
0.045,0.019
0.047,0.021
0.044,0.027
0.041,0.027
0.038,0.036
0.045,0.033
0.047,0.029
0.036,0.024
0.021,0.032
0,0.042
-0.017,0.061
-0.033,0.078
0.001,0.062
0.049,0.018
0.089,-0.007
0.087,-0.014
0.077,-0.007
0.064,0.007
0.055,0.017
0.049,0.028
0.049,0.032
0.046,0.036
0.044,0.038
0.042,0.039
0.042,0.039
0.043,0.039
0.04,0.039
0.04,0.038
0.04,0.042
0.041,0.039
0.039,0.042
0.04,0.035
0.044,0.043
0.044,0.039
0.043,0.041
0.042,0.043
0.043,0.045
0.039,0.047
0.036,0.047
0.031,0.049
0.026,0.047
0.028,0.051
0.021,0.053
0.025,0.056
0.038,0.056
0.06,0.052
0.064,0.05
0.059,0.047
0.049,0.042
0.051,0.039
0.049,0.041
0.052,0.047
0.057,0.05
0.055,0.052
0.056,0.046
0.052,0.048
0.046,0.044
0.044,0.048
0.035,0.049
0.032,0.046
0.024,0.048
0.024,0.047
0.023,0.05
0.036,0.048
0.046,0.047
0.056,0.05
0.056,0.048
0.055,0.05
0.054,0.05
0.056,0.049
0.05,0.048
0.052,0.045
0.049,0.048
0.05,0.044
0.052,0.045
0.056,0.039
0.057,0.04
0.056,0.035
0.051,0.034
0.042,0.038
0.037,0.038
0.037,0.037
0.043,0.034
0.05,0.032
0.052,0.031
0.051,0.028
0.051,0.032
0.051,0.029
0.05,0.03
0.047,0.026
0.043,0.026
0.045,0.025
0.047,0.026
0.05,0.02
0.069,0.02
0.075,0.012
0.073,0.012
0.055,0.01
0.042,0.011
0.022,0.018
0.018,0.022
0.02,0.025
0.034,0.024
0.032,0.027
0.029,0.022
0.04,0.018
0.059,0.012
0.072,0.008
0.065,0.007
0.055,0.004
0.044,0.004
0.046,0.001
0.048,0.004
0.051,0.001
0.051,0.003
0.053,0.007
0.055,0.003
0.051,0.004
0.049,0
0.048,0.002
0.041,-0.001
0.042,-0.003
0.043,0.001
0.045,0
0.047,-0.001
0.056,-0.001
0.058,0.003
0.056,0.004
0.046,0.002
0.037,0.007
0.036,0.018
0.044,0.029
0.044,0.039
0.049,0.036
0.048,0.02
0.047,-0.011
0.044,-0.024
0.044,-0.033
0.045,-0.026
0.044,-0.018
0.045,-0.011
0.043,-0.002
0.043,-0.003
0.042,0.006
0.045,0.005
0.044,0.008
0.044,0.005
0.047,0.009
0.049,0.006
0.05,0.005
0.047,0.006
0.048,0.004
0.047,0.003
0.045,0.003
0.044,0.006
0.04,0.005
0.041,0.009
0.04,0.013
0.041,0.011
0.039,0.01
0.041,0.006
0.041,0.007
0.045,0.006
0.042,0.01
0.046,0.015
0.043,0.023
0.04,0.037
0.04,0.036
0.04,0.016
0.045,0.005
0.043,0.004
0.045,0.004
0.043,0.014
0.043,0.021
0.04,0.023
0.038,0.026
0.036,0.024
0.036,0.024
0.041,0.021
0.041,0.025
0.045,0.023
0.045,0.027
0.046,0.028
0.048,0.03
0.046,0.03
0.051,0.029
0.047,0.031
0.048,0.032
0.048,0.039
0.047,0.04
0.05,0.044
0.046,0.04
0.034,0.043
0.023,0.04
0.011,0.041
-0.009,0.039
-0.003,0.044
0.024,0.046
0.061,0.042
0.074,0.042
0.073,0.038
0.057,0.038
0.049,0.038
0.04,0.038
0.041,0.036
0.043,0.032
0.044,0.031
0.039,0.031
0.039,0.036
0.04,0.035
0.043,0.045
0.036,0.043
0.034,0.047
0.037,0.048
0.046,0.042
0.053,0.036
0.055,0.034
0.055,0.033
0.054,0.032
0.05,0.034
0.049,0.037
0.045,0.042
0.041,0.048
0.044,0.05
0.048,0.057
0.056,0.06
0.057,0.063
0.045,0.067
0.025,0.067
0.004,0.06
-0.017,0.045
-0.024,0.033
-0.002,0.027
0.049,0.032
0.081,0.039
0.082,0.044
0.07,0.048
0.061,0.049
0.056,0.047
0.054,0.047
0.052,0.052
0.05,0.061
0.048,0.062
0.044,0.057
0.038,0.039
0.04,0.015
0.039,-0.003
0.046,-0.008
0.047,0.002
0.054,0.01
0.056,0.016
0.058,0.019
0.062,0.024
0.059,0.026
0.058,0.032
0.052,0.03
0.049,0.034
0.042,0.03
0.045,0.026
0.046,0.027
0.048,0.023
0.048,0.032
0.049,0.031
0.05,0.015
0.047,-0.006
0.04,-0.015
0.03,-0.017
0.019,-0.015
0.004,-0.005
0.004,0
0.025,0.009
0.055,0.009
0.075,0.011
0.081,0.013
0.079,0.01
0.067,0.009
0.055,0.005
0.043,0.007
0.043,0.003
0.041,0.005
0.04,0.001
0.045,0.001
0.047,0
0.051,0.002
0.053,0.002
0.056,-0.003
0.055,-0.001
0.058,-0.005
0.061,-0.005
0.062,-0.005
0.062,-0.002
0.059,-0.017
0.055,-0.07
0.05,-0.068
0.047,0.005
0.042,0.076
0.033,0.114
0.035,0.114
0.038,0.086
0.045,0.032
0.046,-0.016
0.049,-0.041
0.047,-0.04
0.049,-0.037
0.049,-0.031
0.05,-0.025
0.051,-0.017
0.062,-0.015
0.067,-0.013
0.062,-0.012
0.04,-0.004
0.016,0.002
-0.008,0.017
-0.023,0.029
-0.004,0.038
0.037,0.04
0.069,0.042
0.066,0.043
0.058,0.032
0.048,0.015
0.039,-0.006
0.032,-0.012
0.037,-0.01
0.047,-0.003
0.055,0.003
0.054,0.003
0.049,0.005
0.046,0.003
0.046,0.008
0.047,0.004
0.05,0.007
0.055,0.007
0.061,0.01
0.058,0.008
0.052,0.009
0.042,0.013
0.033,0.015
0.019,0.018
0.018,0.017
0.027,0.02
0.045,0.017
0.057,0.015
0.062,0.012
0.055,0.013
0.048,0.014
0.042,0.017
0.031,0.031
0.03,0.048
0.029,0.058
0.034,0.063
0.035,0.061
0.036,0.054
0.038,0.05
0.048,0.042
0.055,0.04
0.059,0.038
0.05,0.036
0.041,0.031
0.036,0.031
0.037,0.03
0.038,0.028
0.039,0.031
0.04,0.033
0.04,0.034
0.039,0.036
0.044,0.038
0.043,0.04
0.045,0.041
0.042,0.047
0.042,0.046
0.038,0.05
0.038,0.054
0.044,0.067
0.04,0.077
0.045,0.087
0.041,0.089
0.039,0.074
0.037,0.046
0.037,0.014
0.039,0.001
0.04,-0.001
0.041,0.005
0.041,0.013
0.036,0.016
0.034,0.028
0.029,0.036
0.027,0.05
0.027,0.051
0.043,0.054
0.06,0.049
0.065,0.047
0.061,0.044
0.052,0.044
0.046,0.041
0.046,0.037
0.047,0.034
0.049,0.038
0.049,0.035
0.055,0.036
0.054,0.036
0.059,0.033
0.057,0.034
0.062,0.036
0.065,0.045
0.063,0.045
0.05,0.014
0.028,-0.044
0.008,-0.015
-0.019,0.068
-0.032,0.13
-0.019,0.16
0.029,0.142
0.072,0.097
0.086,0.03
0.076,-0.008
0.058,-0.02
0.044,-0.013
0.043,0.002
0.049,0.006
0.056,0.012
0.059,0.013
0.061,0.017
0.061,0.014
0.06,0.019
0.053,0.016
0.047,0.022
0.031,0.02
0.019,0.018
0.005,0.017
0.009,0.015
0.021,0.015
0.04,0.015
0.055,0.018
0.06,0.014
0.054,0.017
0.049,0.013
0.045,0.011
0.037,0.007
0.039,0.007
0.034,0.01
0.041,0.011
0.046,0.014
0.052,0.013
0.047,0.013
0.045,0.007
0.047,0
0.049,-0.006
0.049,-0.005
0.049,0.001
0.051,0.002
0.052,0.005
0.055,0.006
0.06,0.016
0.053,0.029
0.052,0.035
0.042,0.028
0.04,-0.002
0.035,-0.021
0.037,-0.028
0.046,-0.023
0.047,-0.015
0.048,-0.006
0.043,0.002
0.04,0.006
0.036,0.01
0.032,0.021
0.027,0.041
0.035,0.038
0.044,0.019
0.054,0.004
0.053,-0.02
0.053,-0.036
0.044,-0.047
0.048,-0.045
0.045,-0.034
0.041,-0.026
0.036,-0.014
0.032,-0.01
0.031,0.005
0.031,0.01
0.035,0.015
0.043,0.012
0.051,0.007
0.05,0.01
0.048,0.007
0.048,0.007
0.044,0.008
0.045,0.008
0.04,0.005
0.042,0.004
0.038,0.008
0.043,0.009
0.039,0.008
0.039,0.006
0.039,0.009
0.037,0.01
0.039,0.014
0.039,0.015
0.038,0.013
0.037,0.014
0.038,0.017
0.039,0.016
0.043,0.017
0.044,0.016
0.049,0.013
0.054,0.01
0.058,0.011
0.057,0.011
0.053,0.014
0.037,0.016
0.02,0.02
0.005,0.022
-0.001,0.029
0.003,0.03
0.019,0.037
0.037,0.036
0.052,0.036
0.053,0.037
0.053,0.038
0.049,0.031
0.053,0.027
0.05,0.024
0.055,0.028
0.057,0.024
0.054,0.026
0.049,0.032
0.042,0.035
0.033,0.04
0.024,0.043
0.019,0.044
0.015,0.047
0.02,0.047
0.034,0.049
0.048,0.046
0.052,0.049
0.046,0.045
0.044,0.049
0.037,0.048
0.039,0.049
0.044,0.051
0.056,0.042
0.056,0.038
0.04,0.03
0.021,0.03
-0.004,0.033
-0.029,0.037
-0.023,0.044
0.02,0.046
0.065,0.047
0.082,0.049
0.07,0.049
0.05,0.049
0.036,0.049
0.024,0.052
0.019,0.049
0.018,0.051
0.024,0.042
0.039,0.044
0.054,0.04
0.065,0.038
0.061,0.041
0.055,0.04
0.045,0.04
0.043,0.038
0.043,0.041
0.043,0.037
0.044,0.037
0.046,0.038
0.046,0.038
0.046,0.041
0.046,0.037
0.045,0.038
0.045,0.035
0.052,0.035
0.046,0.033
0.047,0.031
0.045,0.033
0.049,0.031
0.047,0.03
0.046,0.026
0.049,0.028
0.046,0.025
0.044,0.025
0.047,0.026
0.043,0.026
0.044,0.023
0.043,0.026
0.047,0.025
0.047,0.025
0.05,0.021
0.05,0.02
0.05,0.02
0.05,0.018
0.048,0.015
0.048,0.011
0.044,0.01
0.043,0.012
0.039,0.01
0.037,0.014
0.036,0.013
0.032,0.015
0.032,0.014
0.034,0.014
0.038,0.009
0.043,0.009
0.044,0.006
0.046,0.007
0.045,0.007
0.048,0.003
0.044,0.004
0.047,-0.001
0.049,-0.001
0.05,-0.002
0.055,-0.002
0.056,0.001
0.056,-0.003
0.054,-0.003
0.049,-0.005
0.044,-0.004
0.035,0
0.033,0
0.036,-0.002
0.043,-0.003
0.046,-0.004
0.047,-0.006
0.046,-0.006
0.047,-0.005
0.043,-0.003
0.042,0
0.041,-0.002
0.042,-0.002
0.045,-0.003
0.047,-0.003
0.048,-0.005
0.048,-0.006
0.048,-0.003
0.044,-0.003
0.045,-0.003
0.037,-0.003
0.042,-0.001
0.038,0.002
0.038,0.001
0.036,0.004
0.04,0.004
0.038,0.004
0.04,0.003
0.043,0.001
0.045,0.002
0.045,0.001
0.042,0.008
0.047,0.006
0.052,0.009
0.046,0.006
0.037,0.006
0.023,0.009
0.014,0.008
-0.001,0.011
0,0.01
0.014,0.013
0.043,0.011
0.064,0.013
0.062,0.014
0.049,0.018
0.045,0.02
0.046,0.02
0.044,0.019
0.046,0.017
0.049,0.014
0.052,0.012
0.052,0.013
0.051,0.011
0.056,0.015
0.054,0.014
0.051,0.015
0.046,0.021
0.039,0.021
0.036,0.029
0.037,0.027
0.041,0.031
0.043,0.026
0.043,0.028
0.037,0.027
0.034,0.028
0.027,0.031
0.023,0.034
0.015,0.036
0.019,0.042
0.02,0.039
0.024,0.037
0.025,0.038
0.025,0.034
0.023,0.035
0.026,0.036
0.034,0.036
0.045,0.036
0.059,0.037
0.062,0.037
0.064,0.04
0.054,0.039
0.053,0.038
0.046,0.041
0.041,0.038
0.038,0.041
0.04,0.038
0.038,0.042
0.039,0.045
0.039,0.044
0.04,0.049
0.04,0.045
0.043,0.045
0.04,0.046
0.04,0.047
0.039,0.048
0.04,0.046
0.04,0.05
0.039,0.05
0.043,0.048
0.042,0.049
0.043,0.052
0.044,0.052
0.041,0.047
0.042,0.051
0.039,0.046
0.042,0.044
0.042,0.042
0.046,0.042
0.042,0.044
0.047,0.045
0.044,0.046
0.046,0.044
0.047,0.044
0.045,0.043
0.04,0.043
0.038,0.045
0.036,0.044
0.032,0.04
0.035,0.038
0.036,0.034
0.039,0.033
0.041,0.033
0.042,0.035
0.043,0.035
0.048,0.036
0.047,0.037
0.052,0.037
0.05,0.038
0.05,0.04
0.047,0.04
0.048,0.037
0.047,0.036
0.047,0.033
0.049,0.03
0.046,0.026
0.046,0.026
0.043,0.028
0.039,0.026
0.043,0.028
0.042,0.022
0.044,0.02
0.045,0.013
0.045,0.016
0.047,0.013
0.047,0.014
0.045,0.011
0.045,0.007
0.042,0.002
0.047,0.005
0.044,0.017
0.045,0.024
0.045,0.023
0.045,0.011
0.045,0.004
0.047,-0.002
0.045,0.001
0.043,0.008
0.049,0.014
0.047,0.012
0.048,0.01
0.045,0.01
0.046,0.007
0.044,0.003
0.043,0
0.049,-0.003
0.048,-0.001
0.044,0.002
0.047,0.006
0.049,0
0.05,0.004
0.046,0.004
0.045,0.009
0.039,0.01
0.039,0.008
0.038,0.007
0.043,-0.003
0.043,-0.006
0.046,-0.012
0.049,-0.012
0.047,-0.009
0.047,-0.006
0.041,-0.003
0.042,-0.001
0.038,0.005
0.034,0.004
0.032,0.011
0.031,0.013
0.035,0.01
0.037,0.011
0.045,0.007
0.05,0.005
0.053,0.002
0.058,0.002
0.054,-0.001
0.052,0.001
0.05,0.005
0.049,0.004
0.044,0.008
0.048,0.006
0.05,0.009
0.049,0.006
0.047,0.007
0.042,0.012
0.043,0.011
0.04,0.012
0.045,0.009
0.049,0.005
0.051,0.006
0.052,0.004
0.052,0.007
0.047,0.005
0.04,0.005
0.036,0.002
0.038,0.005
0.04,0.011
0.041,0.023
0.04,0.035
0.044,0.034
0.041,0.031
0.046,0.021
0.044,0.02
0.044,0.019
0.041,0.021
0.041,0.022
0.042,0.024
0.04,0.026
0.041,0.028
0.039,0.027
0.038,0.028
0.036,0.028
0.035,0.031
0.035,0.028
0.036,0.031
0.043,0.03
0.043,0.03
0.044,0.031
0.042,0.034
0.039,0.035
0.043,0.033
0.04,0.037
0.043,0.036
0.041,0.038
0.041,0.039
0.041,0.038
0.044,0.038
0.045,0.04
0.044,0.038
0.043,0.037
0.044,0.039
0.045,0.039
0.042,0.038
0.042,0.042
0.041,0.041
0.039,0.042
0.039,0.041
0.045,0.045
0.043,0.044
0.042,0.042
0.039,0.05
0.034,0.047
0.028,0.05
0.025,0.046
0.026,0.045
0.026,0.041
0.034,0.041
0.035,0.041
0.043,0.041
0.044,0.043
0.049,0.04
0.051,0.047
0.053,0.046
0.053,0.05
0.05,0.053
0.052,0.052
0.047,0.051
0.045,0.047
0.046,0.043
0.046,0.04
0.048,0.042
0.048,0.041
0.046,0.042
0.045,0.044
0.044,0.04
0.048,0.039
0.047,0.037
0.048,0.039
0.047,0.041
0.046,0.039
0.044,0.038
0.047,0.037
0.047,0.035
0.049,0.036
0.049,0.032
0.049,0.036
0.05,0.033
0.047,0.034
0.049,0.031
0.049,0.03
0.048,0.026
0.05,0.027
0.05,0.025
0.051,0.025
0.049,0.028
0.051,0.025
0.048,0.026
0.05,0.022
0.047,0.022
0.047,0.019
0.045,0.018
0.045,0.016
0.047,0.019
0.043,0.016
0.048,0.016
0.044,0.015
0.048,0.012
0.044,0.013
0.046,0.013
0.042,0.015
0.045,0.014
0.044,0.014
0.041,0.012
0.044,0.01
0.045,0.011
0.048,0.008
0.049,0.008
0.051,0.002
0.052,0.002
0.051,0.001
0.052,0.002
0.051,0.003
0.052,0.002
0.046,0.006
0.045,0.002
0.042,0.006
0.046,0.001
0.046,0.003
0.048,0
0.049,-0.002
0.048,0
0.048,-0.001
0.043,-0.002
0.046,-0.003
0.046,-0.002
0.047,-0.002
0.044,-0.001
0.045,0.004
0.046,-0.003
0.045,-0.001
0.045,-0.002
0.05,-0.002
0.046,-0.003
0.045,-0.001
0.043,0.004
0.044,0.001
0.043,0.002
0.041,-0.001
0.045,-0.001
0.044,0.002
0.043,0.001
0.045,0.004
0.043,0.002
0.044,0.006
0.044,0.002
0.044,0.006
0.043,0.006
0.043,0.003
0.042,0.006
0.043,0.004
0.041,0.007
0.042,0.007
0.044,0.01
0.043,0.01
0.043,0.009
0.042,0.013
0.042,0.009
0.039,0.013
0.039,0.012
0.043,0.013
0.041,0.013
0.041,0.013
0.04,0.016
0.043,0.014
0.041,0.018
0.045,0.017
0.045,0.02
0.045,0.015
0.046,0.019
0.04,0.016
0.039,0.019
0.036,0.018
0.035,0.023
0.03,0.024
0.032,0.031
0.03,0.029
0.035,0.033
0.035,0.03
0.039,0.03
0.042,0.031
0.047,0.03
0.046,0.031
0.05,0.03
0.044,0.033
0.047,0.033
0.045,0.032
0.047,0.03
0.046,0.033
0.046,0.033
0.046,0.036
0.047,0.038
0.046,0.039
0.042,0.038
0.045,0.039
0.045,0.04
0.045,0.035
0.045,0.036
0.047,0.036
0.046,0.037
0.043,0.041
0.044,0.039
0.045,0.041
0.042,0.038
0.042,0.043
0.042,0.044
0.04,0.045
0.04,0.045
0.041,0.046
0.039,0.045
0.038,0.043
0.038,0.043
0.043,0.043
0.041,0.04
0.04,0.044
0.038,0.043
0.041,0.045
0.039,0.042
0.043,0.043
0.042,0.046
0.042,0.045
0.036,0.05
0.039,0.048
0.039,0.047
0.043,0.044
0.045,0.044
0.045,0.044
0.046,0.042
0.045,0.043
0.043,0.04
0.041,0.039
0.039,0.039
0.036,0.038
0.033,0.041
0.029,0.041
0.033,0.044
0.036,0.04
0.045,0.039
0.045,0.035
0.047,0.036
0.044,0.036
0.044,0.034
0.045,0.033
0.049,0.031
0.05,0.03
0.05,0.028
0.052,0.026
0.05,0.026
0.05,0.027
0.048,0.03
0.048,0.028
0.046,0.029
0.044,0.026
0.044,0.026
0.044,0.022
0.049,0.023
0.049,0.016
0.053,0.017
0.053,0.013
0.053,0.013
0.049,0.01
0.05,0.009
0.046,0.013
0.047,0.01
0.043,0.013
0.047,0.009
0.043,0.013
0.044,0.008
0.044,0.011
0.041,0.009
0.042,0.007
0.043,0.006
0.045,0.003
0.044,0.006
0.047,0.003
0.048,0.002
0.048,0
0.048,0
0.047,0.001
0.049,0.002
0.045,0.004
0.043,0
0.045,0.002
0.044,-0.001
0.048,0.001
0.046,-0.002
0.046,0.001
0.039,0.003
0.039,0.002
0.042,-0.001
0.048,-0.009
0.05,-0.009
0.054,-0.008
0.053,-0.006
0.051,-0.006
0.049,-0.006
0.054,-0.008
0.051,-0.006
0.049,-0.008
0.044,-0.005
0.042,-0.007
0.034,-0.002
0.037,-0.002
0.039,-0.001
0.038,-0.003
0.037,-0.001
0.038,0
0.04,0
0.041,0
0.045,0.001
0.047,-0.003
0.048,-0.004
0.049,-0.001
0.048,0.001
0.044,0.002
0.041,0.004
0.041,0.006
0.043,0.007
0.043,0.005
0.046,0.003
0.046,0.007
0.047,0.006
0.042,0.008
0.044,0.01
0.042,0.01
0.042,0.009
0.042,0.007
0.042,0.009
0.042,0.008
0.04,0.013
0.041,0.009
0.042,0.012
0.04,0.011
0.044,0.012
0.04,0.01
0.045,0.016
0.04,0.012
0.041,0.014
0.036,0.015
0.039,0.02
0.036,0.023
0.04,0.021
0.037,0.024
0.039,0.024
0.037,0.028
0.041,0.027
0.038,0.027
0.043,0.026
0.039,0.029
0.042,0.031
0.042,0.03
0.044,0.03
0.042,0.031
0.041,0.031
0.037,0.032
0.037,0.036
0.036,0.034
0.035,0.036
0.036,0.037
0.041,0.038
0.042,0.034
0.044,0.036
0.044,0.038
0.045,0.035
0.043,0.039
0.039,0.039
0.043,0.039
0.042,0.037
0.043,0.039
0.041,0.046
0.04,0.044
0.039,0.045
0.039,0.045
0.039,0.046
0.041,0.044
0.044,0.043
0.043,0.042
0.04,0.04
0.038,0.042
0.037,0.039
0.036,0.042
0.036,0.039
0.038,0.04
0.039,0.042
0.043,0.043
0.038,0.048
0.043,0.046
0.044,0.049
0.046,0.045
0.044,0.043
0.044,0.044
0.045,0.043
0.043,0.044
0.043,0.043
0.045,0.042
0.044,0.038
0.047,0.039
0.044,0.036
0.048,0.035
0.046,0.041
0.044,0.041
0.044,0.041
0.043,0.037
0.045,0.039
0.041,0.039
0.042,0.038
0.038,0.038
0.042,0.037
0.043,0.036
0.046,0.032
0.048,0.032
0.049,0.03
0.048,0.03
0.048,0.033
0.045,0.029
0.043,0.031
0.047,0.028
0.046,0.031
0.045,0.027
0.051,0.028
0.049,0.026
0.051,0.024
0.049,0.021
0.05,0.018
0.048,0.017
0.048,0.015
0.047,0.015
0.049,0.011
0.046,0.015
0.048,0.012
0.045,0.015
0.045,0.012
0.046,0.012
0.041,0.011
0.046,0.009
0.044,0.011
0.045,0.008
0.043,0.011
0.046,0.009
0.046,0.008
0.047,0.006
0.05,0.008
0.049,0.002
0.048,0.004
0.047,0.006
0.048,0.002
0.046,0.005
0.046,0.003
0.051,0.004
0.048,0
0.05,-0.001
0.048,0.003
0.05,0
0.047,-0.003
0.048,-0.002
0.048,-0.003
0.047,-0.003
0.046,-0.005
0.045,0.001
0.045,0
0.048,-0.001
0.044,-0.002
0.05,-0.001
0.045,0.002
0.045,-0.002
0.044,0
0.044,-0.003
0.042,0.003
0.04,-0.002
0.042,0.001
0.037,0.002
0.039,0.003
0.039,0.002
0.044,-0.004
0.047,-0.001
0.05,-0.002
0.054,-0.002
0.054,0
0.052,0
0.046,0.006
0.043,0.003
0.046,0.007
0.045,0.006
0.045,0.009
0.043,0.009
0.043,0.012
0.042,0.01
0.043,0.008
0.041,0.009
0.041,0.008
0.041,0.01
0.041,0.01
0.042,0.009
0.044,0.013
0.044,0.014
0.049,0.014
0.046,0.013
0.049,0.013
0.044,0.013
0.044,0.015
0.041,0.018
0.043,0.018
0.043,0.02
0.042,0.021
0.039,0.025
0.04,0.022
0.039,0.026
0.038,0.025
0.041,0.028
0.041,0.029
0.042,0.031
0.041,0.032
0.045,0.033
0.042,0.032
0.045,0.032
0.043,0.031
0.045,0.031
0.044,0.03
0.042,0.031
0.041,0.033
0.041,0.034
0.038,0.036
0.04,0.035
0.042,0.037
0.041,0.036
0.043,0.036
0.044,0.038
0.043,0.038
0.04,0.042
0.043,0.041
0.041,0.041
0.038,0.037
0.039,0.039
0.04,0.04
0.042,0.039
0.039,0.041
0.043,0.041
0.042,0.044
0.046,0.041
0.045,0.047
0.045,0.043
0.045,0.044
0.043,0.045
0.043,0.044
0.043,0.047
0.042,0.046
0.041,0.045
0.042,0.043
0.043,0.043
0.045,0.044
0.043,0.045
0.045,0.048
0.043,0.046
0.043,0.047
0.043,0.047
0.047,0.043
0.047,0.045
0.048,0.044
0.048,0.046
0.051,0.043
0.048,0.043
0.047,0.044
0.047,0.039
0.042,0.043
0.037,0.04
0.034,0.045
0.034,0.041
0.041,0.041
0.046,0.038
0.055,0.037
0.056,0.036
0.059,0.036
0.054,0.038
0.051,0.035
0.049,0.035
0.05,0.032
0.052,0.031
0.05,0.031
0.046,0.032
0.048,0.034
0.046,0.033
0.05,0.029
0.049,0.027
0.048,0.024
0.048,0.025
0.049,0.023
0.049,0.024
0.047,0.022
0.049,0.023
0.049,0.023
0.044,0.02
0.042,0.018
0.038,0.016
0.035,0.014
0.036,0.013
0.041,0.008
0.051,0.009
0.061,0.005
0.065,0.007
0.063,0.009
0.06,0.009
0.05,0.014
0.047,0.01
0.039,0.012
0.039,0.011
0.042,0.012
0.045,0.004
0.046,0.003
0.048,0.002
0.048,0.001
0.045,0.002
0.046,0.002
0.047,0.004
0.047,0.001
0.044,0.001
0.045,0.004
0.049,0
0.052,0.001
0.053,-0.003
0.056,-0.002
0.055,-0.004
0.056,-0.003
0.053,-0.002
0.054,-0.004
0.048,0
0.047,-0.003
0.049,-0.003
0.049,-0.003
0.051,-0.004
0.05,-0.001
0.049,-0.003
0.044,0.001
0.046,-0.003
0.047,0
0.046,-0.004
0.048,-0.002
0.046,0
0.046,-0.002
0.043,-0.001
0.047,-0.002
0.049,0.003
0.049,0.001
0.048,0.002
0.043,0.005
0.045,0.004
0.042,0.005
0.044,0.004
0.044,0.006
0.045,0.005
0.045,0.006
0.047,0.01
0.046,0.01
0.044,0.01
0.047,0.009
0.047,0.01
0.045,0.01
0.046,0.008
0.045,0.008
0.045,0.009
0.042,0.013
0.044,0.014
0.045,0.013
0.041,0.016
0.042,0.016
0.043,0.016
0.043,0.014
0.043,0.019
0.044,0.017
0.045,0.019
0.043,0.018
0.042,0.019
0.04,0.021
0.039,0.021
0.038,0.024
0.038,0.025
0.037,0.028
0.038,0.028
0.04,0.029
0.039,0.03
0.042,0.03
0.042,0.029
0.043,0.029
0.042,0.027
0.043,0.03
0.042,0.032
0.041,0.033
0.039,0.032
0.041,0.036
0.04,0.037
0.042,0.039
0.043,0.036
0.045,0.039
0.044,0.04
0.044,0.038
0.045,0.042
0.045,0.038
0.047,0.037
0.046,0.036
0.046,0.038
0.044,0.04
0.041,0.041
0.038,0.045
0.037,0.044
0.037,0.044
0.039,0.041
0.042,0.043
0.04,0.045
0.043,0.043
0.042,0.048
0.052,0.046
0.071,0.048
0.079,0.046
0.08,0.046
0.071,0.042
0.065,0.043
0.052,0.045
0.043,0.043
0.034,0.047
0.028,0.046
0.022,0.048
0.017,0.046
0.022,0.046
0.024,0.048
0.029,0.043
0.032,0.045
0.037,0.043
0.045,0.045
0.05,0.041
0.066,0.043
0.068,0.046
0.073,0.041
0.066,0.041
0.061,0.041
0.058,0.041
0.049,0.037
0.044,0.037
0.038,0.038
0.036,0.035
0.031,0.037
0.024,0.034
0.022,0.035
0.02,0.034
0.021,0.033
0.026,0.034
0.028,0.033
0.03,0.034
0.029,0.031
0.034,0.031
0.03,0.03
0.036,0.031
0.035,0.029
0.04,0.028
0.038,0.029
0.045,0.024
0.045,0.025
0.054,0.021
0.066,0.017
0.08,0.016
0.095,0.015
0.108,0.014
0.113,0.014
0.105,0.011
0.094,0.011
0.075,0.011
0.063,0.011
0.037,0.009
0.014,0.01
0.001,0.013
0.005,0.01
0.016,0.01
0.026,0.01
0.033,0.009
0.037,0.007
0.039,0.005
0.041,0.008
0.039,0.007
0.041,0.004
0.04,0.002
0.042,0.004
0.04,0.001
0.044,0.002
0.042,0.007
0.044,0.001
0.042,0.002
0.044,0
0.045,0
0.047,-0.005
0.045,-0.007
0.044,-0.005
0.043,-0.003
0.041,-0.002
0.041,-0.001
0.043,-0.001
0.042,-0.003
0.043,-0.003
0.043,-0.001
0.045,-0.001
0.041,-0.002
0.042,-0.002
0.04,-0.003
0.041,-0.002
0.039,-0.004
0.037,0.001
0.037,-0.001
0.041,-0.001
0.038,0
0.047,-0.001
0.047,-0.002
0.051,-0.001
0.053,0.003
0.053,-0.002
0.055,-0.001
0.055,0.001
0.057,0.002
0.055,-0.001
0.052,0.001
0.04,0.005
0.036,0.003
0.03,0.007
0.033,0.008
0.034,0.009
0.031,0.009
0.035,0.011
0.034,0.013
0.037,0.011
0.036,0.013
0.041,0.013
0.043,0.015
0.043,0.014
0.048,0.014
0.047,0.015
0.05,0.015
0.049,0.019
0.052,0.016
0.048,0.018
0.047,0.017
0.042,0.017
0.035,0.018
0.03,0.02
0.027,0.018
0.027,0.021
0.029,0.022
0.029,0.026
0.03,0.026
0.024,0.028
0.017,0.029
0.012,0.03
0.007,0.034
0.008,0.032
0.01,0.035
0.017,0.035
0.019,0.034
0.027,0.034
0.028,0.039
0.037,0.037
0.043,0.038
0.052,0.038
0.059,0.036
0.061,0.04
0.062,0.038
0.058,0.04
0.041,0.035
0.015,0.04
-0.027,0.038
-0.059,0.038
-0.081,0.042
-0.074,0.04
-0.048,0.045
-0.016,0.041
0.021,0.044
0.043,0.043
0.064,0.044
0.071,0.046
0.082,0.046
0.08,0.048
0.081,0.046
0.065,0.048
0.041,0.044
-0.011,0.042
-0.042,0.041
-0.045,0.042
-0.018,0.043
0.028,0.043
0.068,0.044
0.098,0.044
0.115,0.046
0.12,0.043
0.122,0.046
0.117,0.051
0.117,0.05
0.11,0.051
0.105,0.049
0.098,0.046
0.087,0.044
0.077,0.043
0.065,0.045
0.055,0.042
0.05,0.045
0.046,0.041
0.05,0.039
0.05,0.04
0.05,0.039
0.047,0.044
0.045,0.04
0.047,0.038
0.046,0.036
0.053,0.035
0.06,0.034
0.074,0.035
0.083,0.037
0.091,0.033
0.082,0.033
0.062,0.033
0.04,0.03
0.032,0.031
0.024,0.029
0.019,0.031
0.015,0.029
0.018,0.027
0.024,0.026
0.035,0.025
0.042,0.021
0.051,0.021
0.049,0.018
0.051,0.016
0.05,0.015
0.047,0.012
0.045,0.014
0.04,0.012
0.038,0.014
0.035,0.012
0.029,0.014
0.028,0.011
0.03,0.013
0.031,0.01
0.01,0.01
-0.002,0.007
-0.001,0.01
-0.001,0.008
0.013,0.008
0.034,0.008
0.041,0.005
0.033,0.006
0.036,0.006
0.036,0.007
0.044,0.003
0.046,0.004
0.049,0.004
0.053,0.005
0.055,0.008
0.062,0.004
0.074,0.004
0.082,-0.001
0.087,-0.002
0.093,0.001
0.115,0
0.14,0.001
0.153,-0.001
0.14,0.001
0.106,-0.001
0.06,-0.001
0.017,0.002
-0.038,0
-0.075,-0.001
-0.081,-0.002
-0.069,-0.004
-0.042,-0.001
-0.016,-0.003
0.005,-0.002
0.023,0
0.036,0.002
0.043,-0.001
0.055,-0.001
0.06,0.002
0.07,0
0.074,0.004
0.08,0.004
0.08,0.006
0.078,0.005
0.079,0.006
0.077,0.003
0.083,0.005
0.087,0.004
0.094,0.003
0.101,0.007
0.103,0.005
0.094,0.007
0.081,0.005
0.063,0.007
0.047,0.011
0.016,0.013
-0.004,0.015
-0.014,0.012
-0.007,0.015
0,0.012
0.012,0.016
0.016,0.017
0.024,0.016
0.024,0.018
0.031,0.018
0.037,0.021
0.052,0.018
0.069,0.02
0.076,0.016
0.073,0.02
0.062,0.017
0.052,0.02
0.04,0.018
0.033,0.023
0.021,0.024
0.016,0.023
0.009,0.028
0.012,0.025
0.015,0.029
0.019,0.03
0.024,0.033
0.027,0.033
0.026,0.035
0.029,0.033
0.025,0.034
0.028,0.034
0.029,0.035
0.031,0.034
0.028,0.033
0.028,0.038
0.03,0.038
0.03,0.04
0.032,0.038
0.035,0.04
0.035,0.038
0.037,0.04
0.036,0.04
0.034,0.042
0.033,0.042
0.034,0.042
0.034,0.044
0.036,0.041
0.038,0.044
0.036,0.045
0.036,0.043
0.034,0.047
0.034,0.047
0.035,0.047
0.035,0.044
0.036,0.045
0.037,0.043
0.034,0.044
0.031,0.048
0.033,0.045
0.033,0.048
0.035,0.047
0.039,0.049
0.041,0.046
0.045,0.048
0.049,0.046
0.051,0.048
0.051,0.048
0.053,0.046
0.054,0.044
0.053,0.045
0.049,0.043
0.041,0.045
0.034,0.045
0.032,0.046
0.028,0.041
0.032,0.044
0.031,0.037
0.038,0.037
0.036,0.041
0.042,0.037
0.043,0.04
0.061,0.037
0.094,0.037
0.13,0.032
0.155,0.032
0.147,0.036
0.118,0.031
0.077,0.032
0.045,0.029
0.009,0.029
-0.019,0.026
-0.031,0.026
-0.022,0.03
-0.009,0.026
0.005,0.029
0.019,0.026
0.026,0.027
0.032,0.023
0.035,0.024
0.036,0.021
0.045,0.021
0.042,0.016
0.044,0.016
0.04,0.012
0.043,0.012
0.042,0.01
0.043,0.01
0.041,0.014
0.046,0.008
0.046,0.01
0.048,0.009
0.045,0.011
0.046,0.007
0.049,0.007
0.05,0.006
0.067,0.005
0.07,0.002
0.069,0.006
0.061,0.008
0.054,0.007
0.04,0.007
0.035,0.003
0.027,0.001
0.018,0.002
0.014,0.001
0.013,0.006
0.018,0.002
0.029,0.004
0.031,-0.003
0.039,-0.001
0.038,-0.003
0.041,-0.004
0.036,-0.001
0.038,-0.006
0.036,-0.002
0.037,-0.005
0.039,-0.002
0.036,-0.003
0.038,-0.003
0.036,-0.001
0.04,-0.001
0.038,0
0.039,-0.004
0.041,-0.002
0.04,-0.004
0.041,-0.003
0.04,-0.002
0.04,0.001
0.04,0.002
0.039,-0.003
0.044,0.002
0.041,0.001
0.042,0.001
0.04,0.004
0.041,0.004
0.038,0.002
0.039,0.001
0.039,-0.001
0.038,-0.001
0.037,0.002
0.036,0.006
0.034,0.004
0.034,0.005
0.033,0.007
0.037,0.008
0.035,0.007
0.042,0.007
0.041,0.01
0.046,0.01
0.044,0.015
0.044,0.013
0.042,0.016
0.041,0.014
0.043,0.015
0.043,0.013
0.055,0.016
0.067,0.019
0.084,0.018
0.091,0.019
0.103,0.018
0.094,0.021
0.079,0.023
0.065,0.02
0.048,0.022
0.023,0.023
0.003,0.024
-0.002,0.028
0.001,0.029
0.016,0.031
0.039,0.028
0.06,0.028
0.072,0.027
0.07,0.027
0.054,0.029
0.036,0.03
0.021,0.034
0.013,0.031
0.006,0.034
0.008,0.035
0.016,0.037
0.023,0.038
0.026,0.036
0.032,0.04
0.038,0.038
0.049,0.041
0.08,0.038
0.126,0.039
0.151,0.036
0.155,0.039
0.131,0.041
0.097,0.041
0.059,0.041
0.019,0.042
-0.011,0.041
-0.029,0.044
-0.022,0.043
-0.013,0.046
-0.001,0.045
0.007,0.047
0.013,0.047
0.027,0.047
0.031,0.042
0.039,0.044
0.04,0.045
0.037,0.043
0.036,0.046
0.037,0.045
0.033,0.049
0.032,0.048
0.034,0.049
0.031,0.046
0.036,0.045
0.038,0.049
0.046,0.045
0.046,0.046
0.047,0.045
0.046,0.043
0.044,0.042
0.044,0.042
0.043,0.046
0.043,0.04
0.04,0.043
0.04,0.04
0.045,0.04
0.043,0.038
0.045,0.039
0.04,0.041
0.041,0.039
0.038,0.035
0.042,0.035
0.043,0.035
0.043,0.032
0.042,0.033
0.041,0.036
0.044,0.035
0.042,0.034
0.041,0.033
0.046,0.032
0.044,0.031
0.043,0.029
0.043,0.032
0.043,0.028
0.042,0.03
0.041,0.028
0.044,0.027
0.045,0.025
0.045,0.023
0.047,0.019
0.048,0.019
0.043,0.016
0.047,0.017
0.046,0.011
0.047,0.011
0.042,0.008
0.046,0.008
0.045,0.01
0.045,0.011
0.045,0.014
0.048,0.009
0.047,0.008
0.046,0.006
0.049,0.005
0.048,0.004
0.05,0.003
0.047,0.006
0.047,0.002
0.047,0.002
0.045,0.001
0.047,0.004
0.045,0.002
0.044,0.002
0.047,0.007
0.044,0.005
0.045,0.005
0.046,0.003
0.046,0
0.041,0.001
0.036,-0.001
0.038,-0.002
0.041,-0.002
0.047,-0.004
0.048,-0.003
0.05,-0.001
0.05,-0.001
0.047,-0.001
0.048,-0.001
0.045,0
0.046,0
0.045,-0.001
0.048,-0.003
0.046,-0.001
0.044,0
0.042,0.002
0.042,0
0.045,0.001
0.042,-0.001
0.045,0
0.044,0.001
0.044,0.003
0.043,0.006
0.042,0.006
0.042,0.006
0.039,0.004
0.041,0.005
0.044,0.002
0.045,0.005
0.046,0.008
0.047,0.009
0.045,0.01
0.043,0.007
0.045,0.011
0.048,0.01
0.061,0.011
0.074,0.013
0.08,0.012
0.075,0.012
0.07,0.012
0.059,0.014
0.048,0.013
0.037,0.016
0.028,0.017
0.018,0.017
0.015,0.016
0.016,0.017
0.024,0.017
0.026,0.018
0.037,0.019
0.044,0.02
0.064,0.022
0.098,0.021
0.131,0.024
0.14,0.024
0.128,0.026
0.098,0.027
0.061,0.03
0.021,0.033
-0.013,0.03
-0.035,0.035
-0.033,0.035
-0.025,0.034
-0.004,0.033
0.01,0.036
0.019,0.034
0.03,0.037
0.031,0.035
0.038,0.033
0.035,0.04
0.039,0.037
0.038,0.04
0.039,0.04
0.038,0.04
0.037,0.038
0.039,0.037
0.037,0.036
0.036,0.037
0.034,0.041
0.037,0.04
0.034,0.04
0.035,0.04
0.038,0.042
0.039,0.044
0.042,0.045
0.042,0.045
0.039,0.045
0.041,0.047
0.043,0.045
0.048,0.045
0.041,0.043
0.044,0.043
0.041,0.048
0.039,0.046
0.039,0.046
0.039,0.043
0.039,0.045
0.039,0.047
0.04,0.047
0.04,0.05
0.038,0.049
0.039,0.052
0.038,0.049
0.046,0.049
0.043,0.043
0.046,0.043
0.045,0.046
0.046,0.044
0.043,0.045
0.039,0.043
0.044,0.044
0.041,0.041
0.042,0.039
0.039,0.041
0.04,0.04
0.035,0.042
0.036,0.039
0.044,0.039
0.045,0.037
0.049,0.035
0.049,0.038
0.052,0.035
0.055,0.034
0.055,0.031
0.056,0.032
0.05,0.031
0.046,0.031
0.045,0.034
0.045,0.03
0.044,0.029
0.045,0.031
0.043,0.03
0.047,0.03
0.047,0.027
0.046,0.027
0.047,0.025
0.049,0.023
0.049,0.021
0.05,0.021
0.049,0.019
0.049,0.021
0.046,0.015
0.043,0.014
0.041,0.014
0.042,0.01
0.037,0.011
0.045,0.011
0.05,0.01
0.056,0.01
0.062,0.009
0.06,0.006
0.061,0.01
0.06,0.01
0.06,0.009
0.058,0.006
0.056,0.007
0.043,0.007
0.04,0.008
0.035,0.006
0.039,0.006
0.041,0.004
0.043,0.004
0.048,0.001
0.047,0.003
0.049,0.001
0.049,0.003
0.058,0
0.08,0
0.087,-0.002
0.094,-0.003
0.081,-0.003
0.061,-0.003
0.04,0
0.027,-0.003
0.019,0
0.019,-0.002
0.021,-0.002
0.025,0
0.032,0
0.033,0.002
0.038,0
0.038,0
0.043,-0.003
0.043,-0.001
0.043,0.001
0.041,0
0.04,0.005
0.041,0.001
0.043,0.003
0.043,0.001
0.044,0.005
0.043,0.003
0.047,0.006
0.041,0.003
0.043,0.006
0.042,0.006
0.044,0.005
0.045,0.008
0.041,0.008
0.04,0.009
0.039,0.01
0.041,0.009
0.039,0.011
0.04,0.012
0.042,0.012
0.04,0.012
0.042,0.012
0.044,0.018
0.059,0.017
0.073,0.017
0.079,0.015
0.077,0.018
0.064,0.017
0.051,0.017
0.037,0.023
0.028,0.021
0.02,0.024
0.014,0.024
0.01,0.025
0.014,0.024
0.019,0.029
0.024,0.027
0.027,0.031
0.032,0.032
0.038,0.033
0.04,0.031
0.039,0.034
0.04,0.032
0.039,0.033
0.039,0.032
0.037,0.035
0.036,0.034
0.033,0.036
0.035,0.036
0.04,0.038
0.04,0.039
0.045,0.039
0.046,0.039
0.05,0.039
0.052,0.039
0.054,0.039
0.053,0.039
0.051,0.041
0.048,0.038
0.05,0.041
0.042,0.039
0.038,0.039
0.033,0.042
0.036,0.045
0.037,0.048
0.039,0.048
0.042,0.049
0.042,0.047
0.043,0.048
0.044,0.048
0.043,0.045
0.042,0.047
0.042,0.048
0.045,0.047
0.039,0.044
0.043,0.044
0.04,0.046
0.04,0.043
0.038,0.047
0.04,0.046
0.039,0.049
0.041,0.044
0.041,0.047
0.041,0.047
0.041,0.046
0.04,0.048
0.041,0.049
0.042,0.049
0.042,0.046
0.044,0.045
0.044,0.046
0.045,0.043
0.041,0.044
0.04,0.045
0.039,0.043
0.039,0.041
0.043,0.04
0.041,0.04
0.042,0.038
0.04,0.042
0.042,0.038
0.038,0.039
0.041,0.038
0.042,0.036
0.043,0.034
0.047,0.035
0.06,0.036
0.092,0.033
0.147,0.035
0.195,0.03
0.215,0.032
0.194,0.025
0.144,0.028
0.09,0.03
0.041,0.026
-0.015,0.028
-0.053,0.028
-0.064,0.024
-0.05,0.023
-0.026,0.021
-0.003,0.016
0.014,0.017
0.025,0.012
0.032,0.013
0.034,0.012
0.037,0.012
0.039,0.013
0.039,0.012
0.036,0.015
0.041,0.01
0.038,0.012
0.04,0.007
0.041,0.008
0.041,0.006
0.041,0.006
0.041,0.006
0.043,0.005
0.041,0.006
0.04,0.005
0.041,0.007
0.043,0.003
0.045,0.006
0.044,0.003
0.042,0.003
0.042,0.005
0.043,0.003
0.041,0
0.043,-0.003
0.042,-0.004
0.041,-0.004
0.042,-0.005
0.041,0
0.039,-0.001
0.04,-0.004
0.039,-0.002
0.04,-0.002
0.043,0
0.041,-0.001
0.043,0.003
0.039,0.003
0.04,0.003
0.038,0.001
0.043,0.001
0.041,-0.001
0.043,0
0.039,0.005
0.042,0
0.037,0.005
0.04,0.003
0.041,0.003
0.041,0.002
0.041,0.002
0.047,0.006
0.064,0.005
0.082,0.007
0.101,0.004
0.116,0.008
0.111,0.005
0.087,0.008
0.061,0.006
0.039,0.007
0.019,0.011
0.009,0.009
0.005,0.01
0.001,0.009
-0.001,0.01
0.004,0.012
0.008,0.013
0.014,0.013
0.019,0.014
0.024,0.014
0.03,0.015
0.032,0.015
0.034,0.017
0.038,0.018
0.043,0.02
0.042,0.018
0.041,0.023
0.041,0.022
0.042,0.026
0.044,0.023
0.041,0.026
0.039,0.028
0.038,0.032
0.038,0.031
0.04,0.034
0.039,0.03
0.04,0.032
0.039,0.03
0.041,0.029
0.038,0.03
0.042,0.031
0.039,0.033
0.041,0.033
0.037,0.038
0.04,0.036
0.035,0.04
0.035,0.037
0.039,0.039
0.039,0.037
0.04,0.038
0.041,0.041
0.04,0.041
0.038,0.043
0.041,0.043
0.042,0.043
0.043,0.039
0.042,0.039
0.042,0.042
0.042,0.043
0.039,0.046
0.041,0.047
0.041,0.047
0.04,0.046
0.043,0.047
0.041,0.049
0.043,0.049
0.041,0.05
0.041,0.051
0.039,0.048
0.04,0.047
0.043,0.045
0.043,0.045
0.041,0.047
0.042,0.05
0.044,0.05
0.044,0.052
0.043,0.047
0.045,0.049
0.045,0.048
0.045,0.049
0.044,0.05
0.049,0.049
0.062,0.05
0.096,0.047
0.138,0.046
0.151,0.044
0.144,0.043
0.111,0.044
0.078,0.043
0.04,0.044
0.003,0.043
-0.02,0.042
-0.025,0.043
-0.015,0.041
-0.002,0.041
0.01,0.04
0.023,0.037
0.031,0.035
0.035,0.037
0.041,0.037
0.044,0.038
0.044,0.034
0.045,0.035
0.047,0.036
0.047,0.031
0.047,0.032
0.043,0.031
0.044,0.029
0.044,0.029
0.044,0.029
0.043,0.03
0.044,0.028
0.043,0.026
0.047,0.023
0.044,0.022
0.047,0.019
0.047,0.019
0.047,0.015
0.048,0.016
0.046,0.013
0.044,0.012
0.046,0.014
0.045,0.011
0.044,0.013
0.043,0.011
0.044,0.012
0.046,0.01
0.046,0.01
0.049,0.006
0.049,0.008
0.047,0.01
0.049,0.009
0.043,0.008
0.041,0.008
0.043,0.008
0.043,0.006
0.045,0.005
0.047,0.009
0.045,0.006
0.046,0.007
0.045,0.004
0.047,0.006
0.047,0.002
0.048,0.003
0.044,-0.001
0.046,-0.003
0.043,-0.001
0.046,0
0.046,0
0.045,-0.004
0.045,-0.002
0.044,-0.001
0.045,0.003
0.044,0.004
0.043,0.003
0.046,0.002
0.046,0.002
0.048,0.002
0.049,0.001
0.06,0
0.076,0.004
0.085,-0.001
0.089,0
0.08,0
0.075,0
0.068,0.002
0.06,0.004
0.042,0.008
0.03,0.007
0.024,0.003
0.023,0.002
0.029,0.004
0.029,0.01
0.025,0.007
0.022,0.011
0.024,0.01
0.029,0.01
0.032,0.009
0.032,0.012
0.035,0.011
0.036,0.011
0.035,0.012
0.038,0.012
0.038,0.014
0.039,0.013
0.041,0.015
0.042,0.017
0.041,0.015
0.041,0.016
0.042,0.017
0.039,0.016
0.041,0.017
0.041,0.017
0.043,0.018
0.042,0.02
0.039,0.02
0.041,0.023
0.039,0.022
0.041,0.023
0.038,0.023
0.043,0.028
0.043,0.027
0.044,0.029
0.042,0.033
0.043,0.031
0.043,0.034
0.044,0.032
0.045,0.034
0.044,0.032
0.043,0.035
0.046,0.032
0.046,0.037
0.044,0.032
0.046,0.036
0.044,0.037
0.044,0.037
0.041,0.039
0.04,0.04
0.042,0.036
0.043,0.035
0.042,0.038
0.044,0.039
0.041,0.041
0.039,0.043
0.038,0.043
0.039,0.041
0.035,0.042
0.039,0.042
0.038,0.045
0.04,0.043
0.039,0.05
0.038,0.048
0.04,0.05
0.038,0.05
0.04,0.049
0.037,0.049
0.038,0.044
0.035,0.045
0.034,0.046
0.035,0.046
0.035,0.047
0.037,0.048
0.039,0.049
0.048,0.046
0.073,0.05
0.114,0.05
0.142,0.05
0.149,0.046
0.133,0.045
0.099,0.045
0.059,0.044
0.013,0.045
-0.024,0.043
-0.042,0.043
-0.032,0.042
-0.012,0.043
0.007,0.04
0.02,0.038
0.027,0.04
0.032,0.038
0.036,0.039
0.044,0.039
0.045,0.038
0.046,0.036
0.045,0.036
0.043,0.037
0.045,0.036
0.043,0.037
0.04,0.035
0.048,0.033
0.046,0.031
0.061,0.03
0.069,0.031
0.088,0.027
0.098,0.028
0.101,0.026
0.091,0.026
0.075,0.024
0.061,0.023
0.042,0.018
0.024,0.019
0.01,0.015
0.006,0.015
0.011,0.015
0.018,0.012
0.022,0.013
0.028,0.011
0.035,0.015
0.036,0.013
0.036,0.016
0.038,0.014
0.042,0.012
0.041,0.011
0.043,0.009
0.043,0.007
0.041,0.005
0.039,0.006
0.038,0.005
0.039,0.004
0.037,0.006
0.042,0.006
0.037,0.002
0.043,0.003
0.042,0.003
0.045,0.002
0.043,0.003
0.046,0
0.049,0
0.05,-0.001
0.051,-0.002
0.049,0
0.05,-0.002
0.049,0.001
0.053,-0.003
0.053,0
0.052,-0.004
0.052,-0.003
0.048,0
0.044,-0.002
0.038,-0.001
0.038,-0.003
0.039,0
0.042,-0.001
0.047,-0.001
0.046,0
0.044,-0.002
0.042,-0.003
0.043,-0.005
0.043,-0.002
0.042,-0.003
0.037,0
0.037,0.001
0.04,-0.001
0.054,0.003
0.064,0.002
0.073,0.003
0.075,0.004
0.079,0.004
0.071,0.006
0.066,0.006
0.052,0.008
0.04,0.008
0.029,0.009
0.024,0.009
0.026,0.007
0.023,0.009
0.019,0.01
0.019,0.012
0.019,0.009
0.023,0.011
0.03,0.011
0.036,0.013
0.035,0.014
0.037,0.014
0.035,0.018
0.036,0.014
0.036,0.017
0.037,0.015
0.036,0.017
0.038,0.017
0.039,0.02
0.036,0.018
0.039,0.024
0.035,0.021
0.038,0.027
0.037,0.026
0.038,0.026
0.038,0.029
0.04,0.03
0.04,0.031
0.041,0.03
0.038,0.032
0.038,0.033
0.047,0.036
0.075,0.035
0.113,0.035
0.14,0.036
0.141,0.038
0.12,0.036
0.081,0.036
0.047,0.034
0.01,0.035
-0.019,0.037
-0.029,0.041
-0.022,0.041
-0.01,0.039
0.006,0.038
0.016,0.041
0.023,0.039
0.028,0.044
0.029,0.043
0.033,0.042
0.032,0.04
0.036,0.044
0.032,0.044
0.032,0.043
0.028,0.047
0.028,0.046
0.027,0.047
0.027,0.043
0.033,0.045
0.037,0.046
0.046,0.043
0.047,0.045
0.044,0.043
0.042,0.047
0.037,0.047
0.036,0.047
0.034,0.046
0.038,0.046
0.035,0.047
0.034,0.048
0.033,0.051
0.036,0.048
0.04,0.048
0.045,0.046
0.052,0.047
0.052,0.046
0.053,0.044
0.05,0.042
0.049,0.041
0.046,0.042
0.045,0.042
0.045,0.043
0.043,0.044
0.044,0.041
0.042,0.044
0.044,0.041
0.047,0.042
0.047,0.038
0.046,0.037
0.044,0.04
0.044,0.037
0.043,0.035
0.041,0.032
0.045,0.03
0.045,0.028
0.044,0.028
0.041,0.03
0.039,0.03
0.041,0.03
0.037,0.028
0.04,0.026
0.038,0.025
0.05,0.026
0.056,0.024
0.061,0.023
0.065,0.019
0.077,0.018
0.09,0.018
0.095,0.015
0.089,0.017
0.074,0.018
0.053,0.019
0.034,0.016
0.025,0.016
0.027,0.01
0.042,0.015
0.034,0.01
0.002,0.01
-0.032,0.01
-0.052,0.005
-0.073,0.01
-0.081,0.006
-0.082,0.008
-0.05,0.002
-0.004,0.005
0.04,0.002
0.08,0.001
0.097,0.003
0.11,0.002
0.111,0.006
0.114,0.004
0.11,0.006
0.107,0.004
0.101,0.002
0.094,0.001
0.094,0.001
0.088,0.001
0.067,-0.002
0.037,-0.003
0.014,-0.003
0.009,-0.001
0,-0.001
-0.008,0.002
-0.026,0.001
-0.039,-0.001
-0.05,-0.001
-0.04,-0.001
-0.009,-0.003
0.033,0
0.081,-0.002
0.12,0.001
0.14,-0.002
0.144,0.001
0.131,-0.001
0.119,-0.004
0.098,0.004
0.077,0.003
0.06,0.007
0.056,0.004
0.063,0.008
0.061,0.004
0.065,0.005
0.068,0.008
0.072,0.006
0.067,0.008
0.067,0.008
0.063,0.007
0.059,0.008
0.054,0.011
0.049,0.014
0.05,0.014
0.045,0.014
0.044,0.012
0.046,0.015
0.042,0.013
0.045,0.015
0.043,0.017
0.044,0.016
0.043,0.017
0.043,0.018
0.03,0.016
0.011,0.015
-0.027,0.017
-0.066,0.017
-0.082,0.017
-0.071,0.02
-0.035,0.019
0.008,0.021
0.044,0.022
0.067,0.027
0.086,0.027
0.091,0.032
0.101,0.032
0.101,0.032
0.102,0.034
0.088,0.032
0.078,0.029
0.065,0.033
0.05,0.032
0.032,0.032
0.017,0.033
0.003,0.034
-0.024,0.036
-0.047,0.032
-0.049,0.038
-0.041,0.037
-0.021,0.039
0.012,0.037
0.05,0.037
0.075,0.039
0.095,0.037
0.106,0.043
0.11,0.041
0.108,0.044
0.103,0.039
0.1,0.044
0.093,0.044
0.098,0.048
0.125,0.05
0.16,0.049
0.181,0.051
0.185,0.047
0.157,0.048
0.117,0.044
0.068,0.046
0.021,0.045
-0.014,0.043
-0.031,0.046
-0.031,0.045
-0.02,0.048
-0.007,0.048
0.013,0.048
0.036,0.05
0.067,0.051
0.087,0.049
0.101,0.048
0.107,0.047
0.096,0.045
0.078,0.045
0.058,0.049
0.037,0.045
0.019,0.044
0.006,0.04
0.009,0.041
0.011,0.044
0.014,0.041
0.013,0.043
0.013,0.041
0.017,0.041
0.023,0.039
0.028,0.04
0.031,0.044
0.036,0.04
0.035,0.041
0.042,0.036
0.04,0.038
0.041,0.033
0.041,0.036
0.04,0.032
0.037,0.033
0.035,0.035
0.036,0.032
0.039,0.028
0.036,0.025
0.039,0.027
0.036,0.025
0.038,0.024
0.036,0.024
0.036,0.023
0.033,0.025
0.036,0.022
0.031,0.024
0.034,0.019
0.031,0.021
0.037,0.017
0.036,0.017
0.037,0.014
0.042,0.017
0.044,0.013
0.047,0.013
0.042,0.013
0.045,0.011
0.044,0.016
0.047,0.011
0.045,0.013
0.046,0.011
0.045,0.011
0.044,0.007
0.047,0.008
0.044,0.006
0.045,0.005
0.042,0.008
0.043,0.006
0.041,0.009
0.041,0.005
0.045,0.004
0.043,0.002
0.046,0.003
0.042,0.006
0.046,0.004
0.044,0.002
0.046,0
0.047,-0.003
0.045,-0.003
0.041,-0.004
0.039,-0.002
0.039,-0.002
0.038,-0.002
0.039,-0.001
0.042,-0.002
0.041,0.002
0.039,0
0.039,0.005
0.04,0.001
0.043,0.001
0.045,-0.003
0.049,-0.002
0.048,0.001
0.061,-0.003
0.075,0.002
0.081,0.001
0.071,0
0.044,0.001
0.009,0
-0.024,0.004
-0.064,0.003
-0.076,0.006
-0.065,0.006
-0.033,0.007
-0.001,0
0.034,0.005
0.058,0.004
0.079,0.004
0.089,0.007
0.098,0.007
0.094,0.009
0.094,0.007
0.085,0.01
0.076,0.005
0.069,0.008
0.062,0.009
0.056,0.007
0.05,0.012
0.049,0.014
0.045,0.013
0.044,0.013
0.041,0.015
0.04,0.015
0.039,0.018
0.039,0.02
0.039,0.016
0.041,0.02
0.042,0.019
0.041,0.02
0.039,0.02
0.044,0.024
0.039,0.023
0.043,0.025
0.037,0.028
0.041,0.027
0.041,0.028
0.044,0.028
0.043,0.031
0.043,0.029
0.041,0.033
0.04,0.031
0.039,0.034
0.037,0.035
0.034,0.038
0.019,0.038
-0.001,0.039
-0.052,0.037
-0.112,0.035
-0.14,0.035
-0.122,0.036
-0.069,0.04
-0.003,0.037
0.05,0.037
0.088,0.039
0.104,0.04
0.112,0.04
0.121,0.041
0.126,0.04
0.126,0.039
0.124,0.045
0.116,0.045
0.104,0.049
0.081,0.044
0.06,0.048
0.036,0.046
0.007,0.045
-0.044,0.047
-0.076,0.045
-0.093,0.049
-0.091,0.043
-0.067,0.045
-0.028,0.043
0.015,0.046
0.056,0.047
0.104,0.046
0.131,0.047
0.143,0.046
0.146,0.045
0.14,0.047
0.131,0.046
0.122,0.047
0.111,0.047
0.103,0.045
0.086,0.044
0.076,0.044
0.064,0.045
0.059,0.046
0.055,0.049
0.057,0.049
0.052,0.046
0.052,0.045
0.051,0.042
0.051,0.043
0.051,0.039
0.049,0.043
0.046,0.041
0.059,0.037
0.05,0.036
0.032,0.034
0.017,0.037
0.009,0.035
0.008,0.036
0.011,0.033
0.019,0.033
0.023,0.031
0.03,0.033
0.037,0.031
0.059,0.028
0.086,0.03
0.113,0.027
0.124,0.029
0.131,0.023
0.12,0.026
0.099,0.024
0.076,0.023
0.054,0.02
0.027,0.017
0.009,0.016
0.007,0.015
0.008,0.014
0.01,0.016
0.015,0.016
0.024,0.011
0.026,0.013
0.031,0.01
0.034,0.011
0.034,0.01
0.045,0.011
0.043,0.007
0.045,0.007
0.047,0.01
0.054,0.006
0.059,0.008
0.065,0.003
0.069,0.005
0.065,0.001
0.061,0.002
0.054,0.004
0.049,0.004
0.042,0.005
0.044,0.003
0.046,0.001
0.063,0.001
0.078,0
0.081,0.003
0.075,0
0.067,-0.002
0.054,-0.003
0.049,-0.003
0.042,-0.002
0.036,-0.001
0.03,0.002
0.028,-0.001
0.029,0.001
0.034,0.001
0.039,-0.002
0.041,-0.002
0.035,-0.005
0.028,0
0.024,-0.002
0.025,-0.001
0.024,0
0.032,-0.002
0.033,-0.001
0.034,0.001
0.036,0.003
0.036,0.002
0.036,0.004
0.037,0.003
0.04,0.004
0.037,0.003
0.038,0.002
0.038,0.007
0.04,0.005
0.039,0.008
0.051,0.008
0.071,0.008
0.081,0.008
0.084,0.011
0.073,0.013
0.051,0.012
0.034,0.014
0.022,0.01
0.014,0.012
0.011,0.01
0.014,0.015
0.017,0.013
0.025,0.016
0.024,0.017
0.029,0.018
0.029,0.019
0.033,0.019
0.034,0.021
0.039,0.016
0.041,0.02
0.042,0.018
0.04,0.02
0.038,0.02
0.038,0.024
0.035,0.023
0.04,0.027
0.049,0.028
0.061,0.027
0.077,0.032
0.088,0.03
0.096,0.035
0.091,0.033
0.076,0.036
0.063,0.037
0.046,0.036
0.015,0.037
-0.021,0.037
-0.058,0.035
-0.091,0.038
-0.116,0.042
-0.117,0.039
-0.096,0.04
-0.054,0.039
-0.003,0.04
0.032,0.038
0.057,0.037
0.07,0.041
0.08,0.037
0.097,0.041
0.139,0.039
0.182,0.043
0.202,0.042
0.199,0.043
0.163,0.042
0.122,0.046
0.077,0.047
0.03,0.047
-0.015,0.049
-0.042,0.047
-0.057,0.044
-0.066,0.043
-0.076,0.044
-0.087,0.047
-0.09,0.045
-0.091,0.046
-0.103,0.044
-0.089,0.046
-0.069,0.043
-0.025,0.044
0.018,0.047
0.058,0.048
0.083,0.048
0.103,0.05
0.114,0.049
0.127,0.048
0.138,0.047
0.15,0.044
0.135,0.043
0.08,0.046
0.03,0.047
0.014,0.046
0.011,0.042
0.026,0.044
0.048,0.045
0.07,0.042
0.087,0.047
0.098,0.041
0.107,0.039
0.117,0.037
0.124,0.036
0.097,0.039
0.071,0.036
0.037,0.037
0.012,0.033
0.008,0.034
0.017,0.031
0.027,0.028
0.045,0.031
0.063,0.03
0.071,0.03
0.082,0.029
0.088,0.028
0.089,0.025
0.089,0.026
0.087,0.023
0.091,0.022
0.084,0.018
0.065,0.018
0.013,0.012
-0.044,0.011
-0.087,0.014
-0.103,0.011
-0.106,0.013
-0.089,0.01
-0.06,0.011
-0.038,0.011
-0.009,0.01
0.025,0.01
0.07,0.008
0.101,0.004
0.129,0.003
0.144,0.005
0.151,0.003
0.151,0.006
0.152,0.004
0.145,0.005
0.137,0.004
0.122,0
0.102,0.006
0.079,0.006
0.056,0.008
0.039,0.003
0.032,0.003
0.028,0
0.038,-0.002
0.042,0
0.043,-0.003
0.036,-0.002
0.016,-0.007
0.004,-0.005
-0.006,-0.007
-0.016,-0.005
-0.023,-0.002
-0.014,0.001
0.003,0
0.033,0.001
0.062,0
0.088,-0.001
0.108,-0.003
0.13,0.001
0.17,0.001
0.21,0.002
0.24,0
0.244,0.001
0.208,-0.001
0.156,0.002
0.098,0.005
0.036,0.003
-0.009,0.003
-0.022,-0.001
-0.013,-0.001
0.009,0.004
0.014,0.005
-0.012,0.009
-0.066,0.007
-0.113,0.01
-0.128,0.009
-0.103,0.008
-0.057,0.012
-0.003,0.009
0.043,0.011
0.077,0.009
0.103,0.011
0.115,0.01
0.122,0.01
0.114,0.012
0.106,0.015
0.092,0.017
0.08,0.016
0.069,0.019
0.065,0.017
0.064,0.019
0.062,0.017
0.057,0.018
0.051,0.016
0.05,0.02
0.041,0.021
0.04,0.021
0.033,0.023
0.03,0.023
0.033,0.027
0.038,0.025
0.04,0.029
0.044,0.027
0.042,0.032
0.04,0.032
0.036,0.033
0.036,0.034
0.035,0.033
0.035,0.032
0.036,0.032
0.036,0.035
0.035,0.036
0.036,0.035
0.035,0.037
0.036,0.041
0.037,0.039
0.041,0.04
0.04,0.04
0.044,0.039
0.043,0.041
0.043,0.04
0.039,0.042
0.038,0.042
0.036,0.043
0.035,0.044
0.036,0.041
0.033,0.041
0.034,0.04
0.033,0.048
0.033,0.048
0.036,0.049
0.035,0.047
0.039,0.047
0.037,0.045
0.037,0.047
0.036,0.049
0.036,0.049
0.035,0.049
0.036,0.045
0.036,0.045
0.036,0.041
0.036,0.045
0.034,0.047
0.03,0.047
0.026,0.049
0.025,0.05
0.029,0.048
0.03,0.049
0.036,0.047
0.037,0.049
0.039,0.048
0.041,0.05
0.041,0.049
0.041,0.049
0.043,0.046
0.047,0.048
0.043,0.045
0.044,0.044
0.039,0.045
0.039,0.044
0.038,0.043
0.039,0.042
0.042,0.04
0.042,0.041
0.043,0.038
0.041,0.041
0.042,0.037
0.043,0.035
0.039,0.032
0.041,0.033
0.038,0.033
0.041,0.027
0.037,0.032
0.039,0.03
0.039,0.031
0.037,0.027
0.041,0.028
0.039,0.025
0.043,0.025
0.037,0.025
0.039,0.025
0.036,0.025
0.04,0.021
0.039,0.021
0.044,0.021
0.04,0.021
0.044,0.016
0.042,0.017
0.044,0.013
0.045,0.014
0.046,0.012
0.054,0.011
0.062,0.012
0.076,0.01
0.087,0.014
0.096,0.01
0.097,0.011
0.087,0.008
0.081,0.008
0.063,0.004
0.042,0.003
0.017,0.006
0.007,0.004
0.01,0.008
0.029,0.006
0.054,0.007
0.066,0.003
0.075,0.005
0.066,0.007
0.059,0.003
0.049,0.007
0.043,0.003
0.033,0.003
0.039,-0.001
0.049,-0.001
0.062,0.002
0.08,-0.001
0.107,0.003
0.125,-0.002
0.128,-0.002
0.108,-0.004
0.074,-0.004
0.035,0.001
0.001,-0.002
-0.031,-0.001
-0.044,-0.003
-0.04,-0.001
-0.027,-0.003
-0.013,0
0.004,0.002
0.012,0.002
0.016,0.001
0.023,0.001
0.028,0.001
0.03,0.002
0.036,0.004
0.041,0.006
0.046,0.002
0.048,0.005
0.056,0.004
0.07,0.006
0.078,0.004
0.099,0.007
0.109,0.009
0.115,0.01
0.106,0.012
0.084,0.011
0.043,0.012
-0.008,0.012
-0.048,0.01
-0.072,0.012
-0.083,0.011
-0.098,0.017
-0.084,0.014
-0.055,0.017
-0.022,0.017
0.011,0.019
0.036,0.016
0.06,0.019
0.074,0.018
0.096,0.02
0.109,0.019
0.117,0.015
0.103,0.02
0.081,0.019
0.058,0.026
0.032,0.025
0.013,0.031
0.016,0.028
0.022,0.029
0.036,0.028
0.048,0.029
0.058,0.031
0.079,0.034
0.09,0.032
0.104,0.034
0.109,0.032
0.128,0.036
0.158,0.039
0.179,0.039
0.165,0.039
0.125,0.04
0.073,0.039
0.022,0.038
-0.028,0.039
-0.091,0.044
-0.139,0.041
-0.209,0.043
-0.241,0.041
-0.216,0.04
-0.153,0.037
-0.062,0.038
0.032,0.038
0.104,0.042
0.156,0.044
0.188,0.047
0.198,0.049
0.183,0.05
0.158,0.051
0.107,0.049
0.061,0.045
0.004,0.045
-0.029,0.045
-0.04,0.045
-0.023,0.045
0.003,0.046
0.025,0.043
0.034,0.043
0.018,0.048
0.003,0.049
0.004,0.049
0.015,0.047
0.043,0.05
0.071,0.047
0.102,0.048
0.118,0.047
0.129,0.046
0.129,0.048
0.128,0.044
0.123,0.046
0.123,0.047
0.124,0.047
0.12,0.048
0.118,0.045
0.1,0.048
0.082,0.046
0.036,0.042
0.015,0.041
-0.004,0.04
-0.03,0.04
-0.024,0.039
-0.001,0.037
0.029,0.035
0.06,0.035
0.08,0.034
0.1,0.036
0.113,0.037
0.124,0.039
0.124,0.035
0.118,0.033
0.104,0.03
0.094,0.027
0.088,0.03
0.084,0.026
0.08,0.028
0.075,0.026
0.073,0.025
0.066,0.025
0.062,0.018
0.06,0.018
0.056,0.016
0.046,0.016
0.04,0.013
0.034,0.013
0.04,0.011
0.053,0.014
0.067,0.013
0.076,0.011
0.073,0.014
0.068,0.012
0.061,0.012
0.053,0.009
0.045,0.008
0.032,0.004
0.021,0.005
0.011,0.005
0.006,0.005
0.006,0.005
0.015,0.003
0.02,0.004
0.021,-0.004
0.021,0
0.017,0.001
0.015,0.001
0.013,-0.001
0.019,0.003
0.027,0
0.038,-0.004
0.053,-0.006
0.062,-0.008
0.061,-0.005
0.061,-0.004
0.053,-0.004
0.049,-0.004
0.043,-0.003
0.046,-0.004
0.049,-0.004
0.058,-0.002
0.059,-0.002
0.058,-0.004
0.057,-0.003
0.056,-0.005
0.073,-0.005
0.109,-0.001
0.14,-0.006
0.166,0
0.166,-0.005
0.147,-0.002
0.107,-0.004
0.06,0
0,0.001
-0.033,0.002
-0.052,0.003
-0.048,0.004
-0.036,0.002
-0.022,0.002
-0.007,0.002
0.007,0.004
0.017,0.007
0.024,0.01
0.026,0.012
0.027,0.008
0.025,0.007
0.036,0.007
0.053,0.006
0.042,0.006
-0.003,0.011
-0.031,0.01
-0.05,0.012
-0.077,0.012
-0.074,0.015
-0.047,0.013
0,0.012
0.039,0.012
0.071,0.014
0.087,0.019
0.093,0.019
0.09,0.023
0.088,0.022
0.078,0.024
0.071,0.02
0.061,0.025
0.05,0.024
0.041,0.03
0.033,0.029
0.03,0.034
0.032,0.03
0.041,0.031
0.049,0.03
0.058,0.03
0.058,0.03
0.058,0.031
0.052,0.033
0.049,0.033
0.043,0.039
0.042,0.038
0.034,0.04
0.031,0.04
0.037,0.039
0.043,0.038
0.062,0.037
0.099,0.039
0.136,0.039
0.157,0.041
0.152,0.037
0.133,0.04
0.096,0.035
0.055,0.036
0.008,0.039
-0.03,0.04
-0.05,0.044
-0.043,0.041
-0.03,0.047
-0.015,0.045
-0.003,0.047
0.006,0.051
0.013,0.047
0.008,0.049
0.004,0.047
0.005,0.047
0.014,0.044
0.038,0.044
0.072,0.047
0.087,0.046
0.092,0.049
0.088,0.046
0.066,0.049
0.035,0.046
0.017,0.049
0.011,0.048
0.013,0.048
0.014,0.047
0.022,0.047
0.031,0.046
0.053,0.046
0.073,0.047
0.083,0.044
0.076,0.044
0.062,0.047
0.04,0.043
0.023,0.044
0.011,0.039
0.01,0.037
0.006,0.039
0.009,0.036
0.012,0.04
0.016,0.037
0.029,0.038
0.035,0.037
0.047,0.036
0.049,0.036
0.051,0.033
0.042,0.034
0.043,0.032
0.042,0.032
0.043,0.028
0.044,0.029
0.041,0.026
0.042,0.024
0.042,0.027
0.043,0.021
0.043,0.025
0.041,0.021
0.04,0.023
0.039,0.019
0.041,0.019
0.039,0.015
0.041,0.012
0.037,0.012
0.042,0.01
0.041,0.007
0.043,0.006
0.042,0.009
0.04,0.008
0.041,0.009
0.041,0.008
0.041,0.01
0.04,0.008
0.036,0.007
0.042,0.006
0.049,0.005
0.047,0.003
0.048,0.002
0.041,0.003
0.038,0.002
0.034,0.006
0.03,0
0.035,0.001
0.045,0.001
0.051,-0.001
0.055,0.005
0.056,0.002
0.054,0.004
0.051,0
0.052,-0.003
0.046,-0.004
0.043,-0.003
0.041,-0.002
0.042,-0.003
0.041,0.001
0.043,-0.005
0.044,-0.002
0.047,-0.003
0.048,-0.003
0.047,-0.003
0.048,-0.003
0.049,-0.004
0.049,-0.007
0.046,-0.008
0.047,-0.006
0.046,-0.007
0.045,-0.003
0.046,-0.003
0.049,-0.001
0.046,-0.001
0.046,0.003
0.047,0.001
0.044,0.002
0.044,0.006
0.043,0.004
0.044,0.005
0.045,0.005
0.046,0.004
0.046,0.004
0.046,0.004
0.044,0.009
0.043,0.006
0.043,0.007
0.041,0.007
0.043,0.008
0.041,0.008
0.042,0.007
0.041,0.013
0.041,0.011
0.037,0.015
0.039,0.013
0.04,0.014
0.04,0.012
0.041,0.012
0.038,0.017
0.04,0.015
0.035,0.017
0.037,0.014
0.032,0.02
0.035,0.02
0.033,0.021
0.035,0.021
0.036,0.022
0.039,0.023
0.047,0.026
0.049,0.026
0.052,0.024
0.055,0.028
0.071,0.027
0.084,0.03
0.083,0.029
0.078,0.033
0.069,0.035
0.056,0.036
0.055,0.034
0.074,0.034
0.099,0.036
0.118,0.034
0.114,0.035
0.099,0.035
0.064,0.04
0.033,0.036
-0.005,0.038
-0.03,0.034
-0.035,0.04
-0.026,0.036
-0.006,0.036
0.003,0.038
0.017,0.04
0.022,0.041
0.028,0.041
0.032,0.04
0.033,0.041
0.036,0.043
0.035,0.041
0.036,0.045
0.032,0.048
0.029,0.046
0.025,0.048
0.029,0.046
0.032,0.046
0.032,0.042
0.032,0.045
0.031,0.049
0.032,0.047
0.034,0.049
0.047,0.048
0.056,0.049
0.065,0.046
0.065,0.047
0.066,0.048
0.059,0.046
0.055,0.049
0.05,0.046
0.053,0.046
0.062,0.045
0.08,0.043
0.088,0.047
0.087,0.044
0.077,0.042
0.057,0.04
0.047,0.043
0.03,0.04
0.023,0.038
0.022,0.043
0.041,0.04
0.057,0.037
0.079,0.036
0.093,0.037
0.101,0.037
0.092,0.035
0.079,0.037
0.068,0.036
0.053,0.036
0.044,0.035
0.044,0.031
0.043,0.032
0.043,0.03
0.037,0.033
0.034,0.032
0.026,0.03
0.023,0.029
0.02,0.027
0.023,0.028
0.023,0.025
0.028,0.022
0.037,0.025
0.042,0.02
0.044,0.021
0.045,0.016
0.038,0.016
0.03,0.016
0.031,0.015
0.033,0.015
0.039,0.013
0.038,0.012
0.042,0.012
0.043,0.012
0.047,0.007
0.047,0.01
0.049,0.008
0.047,0.007
0.048,0.008
0.047,0.006
0.047,0.005
0.045,0.002
0.047,0.004
0.045,0.003
0.046,0.003
0.045,0.004
0.044,0.006
0.042,0.006
0.045,0.002
0.047,0.001
0.049,0.002
0.049,-0.002
0.048,0.004
0.049,-0.001
0.048,0
0.047,-0.004
0.048,-0.005
0.046,-0.005
0.047,-0.003
0.042,-0.002
0.046,-0.005
0.047,-0.003
0.046,-0.003
0.045,-0.003
0.045,-0.003
0.047,-0.003
0.043,-0.002
0.042,-0.003
0.046,-0.004
0.044,-0.004
0.044,-0.004
0.045,-0.001
0.045,-0.001
0.053,0.004
0.077,0
0.116,0.002
0.14,-0.003
0.144,-0.001
0.124,0.002
0.093,0.002
0.056,0.003
0.017,0.003
-0.008,0.002
-0.022,0.003
-0.017,0.004
-0.008,0.006
0.009,0.005
0.018,0.009
0.029,0.006
0.039,0.01
0.038,0.008
0.043,0.007
0.04,0.013
0.043,0.013
0.04,0.014
0.04,0.013
0.038,0.016
0.041,0.013
0.04,0.016
0.041,0.012
0.042,0.014
0.041,0.014
0.045,0.015
0.045,0.018
0.045,0.019
0.043,0.022
0.043,0.021
0.04,0.025
0.042,0.026
0.039,0.029
0.043,0.029
0.041,0.032
0.043,0.032
0.039,0.034
0.04,0.033
0.04,0.034
0.042,0.03
0.046,0.032
0.045,0.034
0.047,0.033
0.044,0.037
0.042,0.036
0.04,0.039
0.036,0.036
0.041,0.038
0.036,0.036
0.04,0.037
0.037,0.04
0.042,0.039
0.042,0.042
0.046,0.039
0.053,0.042
0.067,0.038
0.084,0.04
0.088,0.04
0.083,0.043
0.066,0.045
0.046,0.045
0.032,0.047
0.022,0.043
0.015,0.046
0.015,0.047
0.018,0.045
0.024,0.046
0.031,0.044
0.036,0.044
0.038,0.042
0.04,0.043
0.036,0.044
0.035,0.046
0.03,0.047
0.03,0.048
0.031,0.047
0.032,0.046
0.031,0.043
0.037,0.045
0.042,0.045
0.046,0.045
0.044,0.043
0.049,0.043
0.05,0.04
0.052,0.037
0.049,0.04
0.048,0.038
0.045,0.041
0.043,0.037
0.045,0.04
0.043,0.036
0.048,0.036
0.044,0.038
0.047,0.034
0.042,0.036
0.044,0.034
0.046,0.032
0.054,0.03
0.065,0.031
0.084,0.033
0.106,0.03
0.147,0.03
0.192,0.026
0.218,0.026
0.205,0.024
0.164,0.024
0.094,0.024
0.029,0.024
-0.024,0.021
-0.059,0.021
-0.062,0.02
-0.047,0.02
-0.023,0.02
0,0.016
0.019,0.014
0.023,0.011
0.026,0.01
0.024,0.009
0.026,0.008
0.026,0.006
0.03,0.006
0.031,0.009
0.033,0.01
0.033,0.009
0.037,0.006
0.039,0.008
0.041,0.006
0.045,0.005
0.044,0
0.042,0.003
0.041,0.005
0.038,0.002
0.035,0.002
0.033,0.001
0.035,0.002
0.033,0
0.032,0
0.034,0.001
0.035,0.001
0.039,-0.002
0.047,-0.004
0.052,-0.005
0.057,-0.009
0.059,-0.01
0.059,-0.007
0.054,-0.007
0.052,-0.004
0.049,-0.006
0.051,-0.006
0.046,-0.006
0.047,-0.009
0.045,-0.003
0.049,-0.006
0.05,-0.003
0.05,-0.007
0.053,-0.005
0.045,-0.007
0.05,-0.006
0.046,-0.003
0.048,-0.005
0.046,-0.003
0.048,-0.005
0.047,-0.003
0.049,-0.004
0.05,-0.004
0.047,0.002
0.048,0.002
0.047,0
0.049,-0.001
0.05,0.003
0.048,0.001
0.047,0.002
0.048,0.004
0.048,0.002
0.045,0.003
0.05,0.003
0.056,0.003
0.075,0.004
0.099,0.004
0.123,0.005
0.121,0.006
0.103,0.006
0.074,0.007
0.049,0.008
0.025,0.006
0.012,0.007
0.003,0.009
-0.002,0.012
0,0.015
0.004,0.015
0.013,0.014
0.019,0.015
0.024,0.015
0.03,0.013
0.033,0.016
0.029,0.017
0.037,0.019
0.042,0.021
0.067,0.024
0.101,0.023
0.132,0.026
0.148,0.025
0.153,0.026
0.104,0.026
0.033,0.027
-0.025,0.029
-0.056,0.028
-0.069,0.03
-0.053,0.03
-0.029,0.03
0.003,0.03
0.031,0.033
0.05,0.034
0.058,0.036
0.062,0.038
0.059,0.037
0.053,0.036
0.05,0.037
0.055,0.036
0.063,0.035
0.073,0.033
0.083,0.036
0.088,0.035
0.091,0.038
0.079,0.039
0.066,0.043
0.048,0.04
0.032,0.04
0.012,0.043
0.005,0.044
0.006,0.045
0.012,0.042
0.019,0.043
0.024,0.043
0.026,0.042
0.028,0.043
0.026,0.041
0.031,0.046
0.035,0.043
0.038,0.047
0.043,0.044
0.051,0.044
0.052,0.043
0.051,0.043
0.048,0.044
0.044,0.044
0.039,0.045
0.041,0.041
0.042,0.042
0.045,0.038
0.044,0.038
0.042,0.041
0.041,0.041
0.04,0.041
0.038,0.04
0.043,0.038
0.042,0.038
0.045,0.037
0.05,0.038
0.062,0.036
0.079,0.035
0.081,0.032
0.082,0.031
0.068,0.033
0.05,0.03
0.031,0.033
0.022,0.032
0.015,0.032
0.015,0.026
0.024,0.029
0.033,0.026
0.04,0.027
0.042,0.029
0.045,0.024
0.046,0.029
0.047,0.024
0.049,0.025
0.052,0.023
0.06,0.019
0.08,0.017
0.118,0.018
0.141,0.012
0.151,0.014
0.131,0.011
0.101,0.01
0.065,0.011
0.029,0.008
-0.005,0.013
-0.022,0.008
-0.024,0.011
-0.01,0.007
0.006,0.009
0.017,0.006
0.033,0.003
0.041,0.002
0.057,0.001
0.071,0.003
0.078,0.002
0.074,0.003
0.067,0.002
0.058,0.001
0.046,0.001
0.036,-0.001
0.027,0.005
0.02,0.002
0.014,0.005
0.014,0.001
0.023,0.001
0.028,-0.003
0.033,-0.005
0.031,-0.003
0.038,-0.006
0.039,-0.003
0.04,-0.006
0.039,-0.007
0.04,-0.004
0.038,-0.003
0.036,-0.002
0.035,-0.001
0.036,-0.001
0.037,-0.003
0.04,-0.004
0.04,-0.004
0.039,-0.004
0.04,0.002
0.041,-0.002
0.041,0
0.04,-0.003
0.044,-0.003
0.04,-0.002
0.042,-0.001
0.039,0.003
0.043,0.001
0.044,0.002
0.045,-0.001
0.045,0.002
0.042,0.001
0.043,0.002
0.041,0.006
0.041,0.003
0.039,0.004
0.029,0.002
0.021,0.004
0.012,0.002
-0.002,0.003
-0.022,0.006
-0.016,0.006
0.007,0.008
0.04,0.007
0.062,0.01
0.074,0.009
0.073,0.013
0.071,0.012
0.072,0.014
0.068,0.018
0.066,0.015
0.059,0.017
0.055,0.018
0.052,0.018
0.053,0.016
0.05,0.018
0.05,0.02
0.046,0.021
0.046,0.021
0.046,0.024
0.045,0.022
0.046,0.022
0.045,0.024
0.047,0.023
0.045,0.026
0.047,0.025
0.046,0.028
0.044,0.026
0.043,0.029
0.046,0.03
0.045,0.032
0.042,0.029
0.041,0.032
0.04,0.031
0.044,0.034
0.041,0.036
0.042,0.037
0.041,0.041
0.043,0.038
0.042,0.04
0.042,0.037
0.041,0.037
0.041,0.037
0.038,0.037
0.034,0.038
0.032,0.04
0.036,0.041
0.038,0.041
0.045,0.042
0.048,0.047
0.046,0.045
0.045,0.049
0.044,0.047
0.044,0.045
0.04,0.043
0.045,0.045
0.041,0.044
0.043,0.043
0.039,0.044
0.039,0.042
0.04,0.046
0.043,0.045
0.056,0.045
0.085,0.044
0.121,0.043
0.141,0.049
0.136,0.045
0.118,0.049
0.085,0.041
0.047,0.043
0.006,0.043
-0.019,0.042
-0.035,0.045
-0.027,0.041
-0.013,0.041
0.004,0.041
0.02,0.04
0.044,0.04
0.065,0.04
0.079,0.037
0.078,0.036
0.071,0.036
0.05,0.031
0.04,0.032
0.025,0.035
0.017,0.032
0.018,0.034
0.022,0.033
0.033,0.03
0.035,0.028
0.04,0.026
0.041,0.026
0.039,0.025
0.04,0.025
0.04,0.024
0.037,0.024
0.039,0.026
0.039,0.024
0.041,0.024
0.045,0.021
0.045,0.017
0.046,0.015
0.044,0.013
0.044,0.013
0.043,0.013
0.044,0.013
0.044,0.013
0.045,0.011
0.042,0.011
0.047,0.008
0.042,0.011
0.039,0.01
0.04,0.012
0.042,0.008
0.043,0.009
0.044,0.006
0.043,0.006
0.043,0.008
0.042,0.006
0.045,0.006
0.045,0
0.048,0.001
0.044,0.003
0.045,0.002
0.043,0.005
0.044,0.003
0.047,0.003
0.045,0
0.048,0.001
0.045,0.001
0.045,-0.004
0.044,-0.002
0.05,-0.006
0.064,-0.005
0.073,-0.006
0.078,-0.007
0.074,-0.001
0.07,-0.001
0.06,-0.003
0.052,-0.004
0.046,-0.004
0.035,-0.003
0.028,-0.003
0.023,-0.002
0.025,-0.004
0.028,-0.003
0.031,-0.006
0.037,-0.005
0.038,-0.004
0.041,-0.003
0.04,0.001
0.039,-0.001
0.039,0.001
0.039,-0.001
0.041,0
0.041,0.002
0.04,0.003
0.039,0.006
0.041,0.006
0.04,0.007
0.041,0.006
0.043,0.005
0.041,0.005
0.041,0.006
0.042,0.012
0.039,0.008
0.039,0.011
0.039,0.005
0.044,0.009
0.039,0.008
0.042,0.01
0.037,0.011
0.038,0.01
0.036,0.013
0.039,0.013
0.041,0.016
0.041,0.011
0.042,0.015
0.038,0.013
0.038,0.014
0.037,0.016
0.036,0.015
0.03,0.019
0.033,0.021
0.037,0.023
0.057,0.024
0.089,0.026
0.122,0.026
0.139,0.027
0.136,0.03
0.112,0.03
0.079,0.028
0.047,0.032
0.009,0.032
-0.018,0.032
-0.024,0.029
-0.018,0.032
-0.004,0.034
0.005,0.035
0.016,0.039
0.024,0.039
0.031,0.038
0.032,0.038
0.036,0.037
0.039,0.037
0.039,0.036
0.036,0.037
0.035,0.038
0.038,0.04
0.036,0.036
0.041,0.038
0.038,0.038
0.037,0.036
0.036,0.043
0.036,0.042
0.037,0.046
0.038,0.046
0.041,0.045
0.044,0.044
0.043,0.045
0.04,0.048
0.04,0.044
0.04,0.046
0.038,0.044
0.043,0.044
0.043,0.043
0.045,0.043
0.04,0.046
0.042,0.044
0.041,0.048
0.04,0.045
0.042,0.049
0.044,0.045
0.051,0.044
0.062,0.046
0.07,0.044
0.075,0.046
0.072,0.041
0.067,0.043
0.055,0.04
0.042,0.041
0.032,0.043
0.024,0.041
0.018,0.043
0.014,0.039
0.02,0.036
0.022,0.036
0.029,0.035
0.033,0.034
0.034,0.036
0.034,0.036
0.039,0.037
0.046,0.034
0.044,0.031
0.047,0.026
0.045,0.029
0.044,0.028
0.042,0.03
0.039,0.028
0.043,0.026
0.04,0.024
0.041,0.027
0.042,0.023
0.045,0.023
0.044,0.025
0.047,0.022
0.045,0.023
0.046,0.019
0.047,0.021
0.044,0.017
0.04,0.014
0.043,0.013
0.043,0.013
0.045,0.011
0.061,0.015
0.073,0.009
0.094,0.009
0.104,0.006
0.11,0.007
0.103,0.006
0.101,0.006
0.112,0.003
0.112,0.003
0.103,0.001
0.092,0.002
0.075,-0.001
0.053,0
0.022,0
-0.006,0.001
-0.028,0.003
-0.027,0.001
-0.02,0.001
-0.003,0.002
0.01,0.006
0.019,0
0.028,-0.001
0.033,-0.005
0.038,-0.004
0.037,-0.008
0.041,-0.006
0.037,-0.005
0.041,-0.006
0.036,-0.007
0.039,-0.007
0.04,-0.004
0.042,-0.007
0.04,-0.006
0.042,-0.003
0.039,-0.005
0.038,-0.001
0.037,-0.005
0.041,-0.003
0.05,-0.005
0.068,-0.003
0.087,-0.004
0.118,-0.002
0.155,-0.001
0.189,-0.002
0.199,0
0.193,-0.002
0.129,0
0.062,0.004
0.006,0.004
-0.036,0.004
-0.048,0.002
-0.047,0.004
-0.04,0.004
-0.029,0.004
-0.015,0.008
-0.005,0.007
0.005,0.01
0.01,0.012
0.02,0.012
0.02,0.01
0.024,0.009
0.024,0.012
0.023,0.01
0.017,0.013
0.022,0.016
0.036,0.014
0.082,0.01
0.135,0.011
0.167,0.013
0.176,0.011
0.16,0.014
0.125,0.011
0.068,0.015
0.019,0.014
-0.015,0.02
-0.048,0.016
-0.061,0.02
-0.053,0.02
-0.037,0.025
-0.021,0.024
0,0.029
0.008,0.029
0.019,0.034
0.022,0.029
0.031,0.031
0.032,0.028
0.035,0.027
0.031,0.03
0.036,0.031
0.035,0.032
0.031,0.033
0.031,0.039
0.031,0.038
0.031,0.038
0.03,0.037
0.036,0.039
0.035,0.038
0.036,0.037
0.035,0.04
0.037,0.038
0.036,0.04
0.037,0.038
0.043,0.038
0.041,0.038
0.04,0.036
0.038,0.041
0.038,0.04
0.033,0.047
0.036,0.044
0.039,0.046
0.04,0.043
0.042,0.044
0.039,0.043
0.041,0.048
0.033,0.049
0.029,0.046
0.023,0.047
0.022,0.043
0.019,0.043
0.022,0.042
0.029,0.044
0.039,0.049
0.042,0.047
0.049,0.05
0.046,0.049
0.045,0.05
0.044,0.051
0.044,0.047
0.04,0.048
0.041,0.046
0.041,0.048
0.04,0.045
0.042,0.043
0.036,0.043
0.036,0.043
0.032,0.043
0.031,0.041
0.036,0.042
0.042,0.037
0.048,0.042
0.046,0.043
0.044,0.039
0.042,0.039
0.041,0.035
0.043,0.035
0.039,0.033
0.044,0.034
0.041,0.034
0.046,0.032
0.046,0.033
0.043,0.028
0.04,0.028
0.035,0.023
0.036,0.027
0.03,0.022
0.029,0.023
0.035,0.024
0.042,0.023
0.048,0.026
0.055,0.023
0.052,0.023
0.05,0.02
0.048,0.02
0.047,0.018
0.041,0.013
0.045,0.013
0.044,0.012
0.045,0.01
0.046,0.012
0.047,0.008
0.046,0.008
0.047,0.009
0.043,0.009
0.04,0.01
0.039,0.006
0.039,0.006
0.042,0.005
0.043,0.002
0.042,0.001
0.042,0
0.042,0.002
0.046,0.005
0.047,0.002
0.046,0.002
0.049,0
0.046,0
0.041,-0.003
0.042,0
0.038,-0.004
0.037,-0.002
0.036,-0.003
0.041,-0.004
0.039,-0.004
0.044,-0.007
0.042,-0.003
0.043,-0.003
0.042,-0.002
0.043,-0.003
0.047,-0.003
0.045,-0.004
0.046,-0.004
0.041,0.001
0.043,0
0.039,-0.003
0.04,-0.005
0.042,-0.004
0.043,-0.004
0.04,-0.004
0.041,0
0.041,-0.003
0.041,-0.001
0.04,-0.001
0.044,0
0.04,-0.003
0.041,0.001
0.041,0.003
0.041,0.003
0.039,0.005
0.041,0.003
0.042,0.005
0.042,0.004
0.04,0.003
0.041,0.008
0.04,0.005
0.038,0.005
0.039,0.007
0.041,0.009
0.04,0.005
0.04,0.009
0.04,0.013
0.041,0.013
0.04,0.016
0.04,0.013
0.042,0.012
0.039,0.011
0.04,0.014
0.041,0.016
0.039,0.016
0.039,0.019
0.04,0.019
0.036,0.018
0.039,0.021
0.035,0.02
0.037,0.018
0.035,0.023
0.038,0.022
0.036,0.024
0.039,0.023
0.038,0.029
0.041,0.026
0.042,0.029
0.04,0.029
0.043,0.033
0.038,0.029
0.039,0.032
0.036,0.03
0.038,0.035
0.038,0.034
0.042,0.034
0.043,0.036
0.049,0.037
0.047,0.037
0.045,0.034
0.043,0.036
0.043,0.036
0.043,0.037
0.044,0.038
0.042,0.037
0.036,0.038
0.033,0.035
0.036,0.038
0.034,0.04
0.032,0.042
0.03,0.043
0.034,0.045
0.039,0.045
0.041,0.045
0.035,0.044
0.03,0.047
0.03,0.041
0.031,0.04
0.038,0.039
0.043,0.04
0.041,0.037
0.043,0.039
0.039,0.041
0.04,0.04
0.04,0.047
0.041,0.043
0.046,0.045
0.049,0.044
0.053,0.041
0.055,0.037
0.062,0.04
0.063,0.04
0.066,0.04
0.06,0.041
0.054,0.042
0.045,0.045
0.031,0.045
0.023,0.045
0.013,0.046
0.008,0.044
0.017,0.044
0.033,0.04
0.049,0.038
0.055,0.032
0.061,0.034
0.062,0.032
0.063,0.03
0.061,0.031
0.055,0.03
0.05,0.03
0.044,0.028
0.037,0.03
0.034,0.032
0.027,0.036
0.034,0.034
0.044,0.034
0.05,0.031
0.056,0.029
0.058,0.026
0.056,0.024
0.057,0.02
0.061,0.017
0.06,0.016
0.056,0.013
0.038,0.012
0.023,0.015
0.014,0.015
0.006,0.016
-0.005,0.021
-0.003,0.025
0.016,0.024
0.055,0.021
0.077,0.011
0.082,0.007
0.073,0.003
0.065,0.002
0.057,0.003
0.054,0.005
0.056,0.004
0.057,0.003
0.059,0
0.053,-0.003
0.046,-0.002
0.035,0.001
0.031,0.002
0.025,0.003
0.019,0
0.015,0.005
0.018,0.006
0.037,0.002
0.063,0.002
0.082,-0.002
0.076,-0.001
0.069,-0.008
0.056,-0.005
0.049,-0.006
0.041,-0.003
0.038,-0.001
0.041,0.002
0.047,0.005
0.051,0.008
0.051,0.004
0.048,-0.002
0.042,-0.003
0.038,0.008
0.031,0.017
0.024,0.022
0.012,0.024
0.015,0.016
0.026,-0.005
0.051,-0.028
0.066,-0.039
0.071,-0.032
0.056,-0.024
0.046,-0.016
0.046,-0.008
0.045,-0.005
0.052,0.001
0.058,0.004
0.062,0.009
0.062,0.01
0.057,0.007
0.052,0.011
0.047,0.011
0.048,0.019
0.042,0.03
0.042,0.038
0.038,0.044
0.041,0.041
0.045,0.024
0.049,0.006
0.049,-0.008
0.042,-0.01
0.034,0.004
0.024,0.019
0.013,0.015
0.008,0.004
0.013,-0.001
0.03,-0.01
0.049,-0.014
0.061,-0.007
0.062,0.013
0.058,0.03
0.06,0.047
0.056,0.054
0.054,0.058
0.055,0.048
0.053,0.038
0.051,0.02
0.047,0.01
0.049,0.005
0.043,0.015
0.037,0.023
0.036,0.03
0.035,0.023
0.036,0.019
0.032,0.011
0.033,0.008
0.03,0.002
0.036,0.004
0.038,0.014
0.051,0.026
0.054,0.043
0.053,0.051
0.052,0.054
0.049,0.044
0.047,0.001
0.042,-0.053
0.045,-0.009
0.047,0.078
0.053,0.134
0.059,0.161
0.065,0.143
0.065,0.096
0.058,0.026
0.035,-0.025
0.004,-0.037
-0.025,-0.023
-0.04,0.003
-0.041,0.024
0,0.043
0.051,0.049
0.079,0.05
0.073,0.044
0.053,0.014
0.036,-0.028
0.036,-0.029
0.063,0.035
0.083,0.105
0.085,0.129
0.069,0.143
0.051,0.139
0.043,0.118
0.034,0.081
0.032,0.037
0.024,0
0.02,-0.022
0.021,-0.018
0.04,-0.014
0.053,-0.01
0.054,-0.025
0.046,-0.038
0.033,-0.022
0.035,0.05
0.038,0.103
0.05,0.126
0.053,0.122
0.059,0.114
0.064,0.107
0.062,0.09
0.062,0.068
0.059,0.036
0.051,0.02
0.042,0.002
0.035,-0.008
0.035,-0.016
0.031,-0.022
0.024,-0.018
0.017,-0.015
0.012,-0.007
0.013,-0.001
0.029,-0.003
0.046,-0.006
0.067,-0.003
0.079,0.007
0.079,0.018
0.074,0.022
0.069,0.021
0.071,0.014
0.077,0.012
0.08,0.006
0.063,0.007
0.036,0.011
0.006,0.017
-0.025,0.023
-0.035,0.02
-0.019,0.018
0.032,0.013
0.076,0.006
0.09,0.007
0.08,0.011
0.064,0.042
0.053,0.079
0.048,0.108
0.048,0.099
0.052,0.02
0.056,-0.032
0.052,-0.059
0.057,-0.073
0.053,-0.073
0.052,-0.064
0.041,-0.051
0.036,-0.042
0.029,-0.027
0.022,-0.021
0.019,-0.011
0.026,-0.004
0.037,-0.005
0.056,-0.006
0.079,-0.012
0.093,-0.017
0.085,-0.024
0.069,-0.02
0.05,-0.014
0.044,-0.009
0.043,-0.004
0.05,-0.003
0.055,0.001
0.055,0.01
0.052,0.015
0.052,0.028
0.049,0.036
0.046,0.036
0.042,0.013
0.046,-0.006
0.044,-0.032
0.045,-0.034
0.045,0.009
0.051,0.05
0.052,0.056
0.053,-0.035
0.058,-0.073
0.055,-0.039
0.051,0.01
0.042,0.055
0.036,0.061
0.024,0.038
0.023,-0.017
0.029,-0.046
0.038,-0.059
0.041,-0.057
0.046,-0.044
0.046,-0.035
0.045,-0.022
0.045,-0.018
0.044,-0.01
0.044,-0.004
0.049,0.001
0.048,0
0.05,0.006
0.046,0.009
0.051,0.011
0.047,0.011
0.05,0.01
0.052,0.015
0.048,0.015
0.044,0.019
0.04,0.017
0.039,0.015
0.038,0.014
0.039,0.01
0.039,0.009
0.045,0.01
0.045,0.013
0.043,0.015
0.029,0.016
0.007,0.02
-0.012,0.023
-0.029,0.027
-0.021,0.033
0.015,0.034
0.059,0.037
0.082,0.02
0.076,-0.003
0.056,-0.006
0.04,0.003
0.038,0.019
0.049,0.032
0.065,0.042
0.061,0.04
0.055,0.043
0.045,0.042
0.037,0.041
0.039,0.041
0.04,0.04
0.045,0.037
0.049,0.034
0.05,0.03
0.049,0.029
0.045,0.03
0.039,0.033
0.029,0.035
0.025,0.044
0.026,0.045
0.036,0.048
0.039,0.046
0.045,0.049
0.043,0.049
0.044,0.047
0.038,0.048
0.043,0.042
0.039,0.04
0.04,0.033
0.043,0.036
0.043,0.036
0.044,0.034
0.04,0.036
0.045,0.039
0.042,0.04
0.043,0.041
0.041,0.041
0.039,0.042
0.033,0.043
0.031,0.045
0.032,0.044
0.033,0.045
0.038,0.041
0.049,0.042
0.059,0.037
0.069,0.038
0.063,0.037
0.063,0.035
0.057,0.036
0.054,0.03
0.05,0.028
0.047,0.026
0.041,0.034
0.036,0.035
0.039,-0.004
0.045,-0.036
0.047,0.027
0.049,0.102
0.041,0.149
0.032,0.154
0.029,0.122
0.025,0.057
0.03,0.002
0.04,-0.025
0.057,-0.024
0.055,-0.016
0.051,-0.006
0.041,0.007
0.039,0.013
0.036,0.017
0.039,0.019
0.039,0.016
0.045,0.015
0.043,0.013
0.046,0.011
0.048,0.008
0.049,0.008
0.048,0.007
0.053,0.004
0.054,0.003
0.051,-0.001
0.042,0
0.032,0
0.023,-0.001
0.012,0.002
0.014,0.004
0.031,0.005
0.059,0.005
0.072,0.003
0.073,0.006
0.059,0.004
0.049,0.008
0.045,0.016
0.044,0.025
0.042,0.035
0.047,0.031
0.048,0.019
0.054,-0.002
0.053,-0.011
0.054,-0.011
0.053,-0.002
0.048,-0.008
0.035,-0.028
0.023,-0.029
0.017,-0.029
0.019,-0.022
0.024,-0.017
0.028,-0.009
0.035,-0.007
0.048,-0.002
0.047,-0.004
0.05,-0.002
0.053,-0.007
0.064,-0.013
0.063,-0.018
0.045,-0.02
0.019,-0.017
-0.003,-0.008
0.005,-0.003
0.049,0.001
0.093,0.001
0.104,-0.006
0.088,-0.007
0.069,-0.01
0.043,-0.007
0.019,-0.006
-0.003,0.003
-0.019,0.008
-0.02,0.013
-0.004,0.019
0.025,0.022
0.042,0.021
0.049,0.012
0.05,0.005
0.06,-0.002
0.062,-0.003
0.058,-0.003
0.051,-0.001
0.039,-0.002
0.035,-0.003
0.034,-0.001
0.036,0
0.036,0.009
0.036,0.01
0.039,0.013
0.037,0.015
0.039,0.023
0.042,0.032
0.052,0.038
0.055,0.04
0.056,0.035
0.048,0.033
0.043,0.017
0.037,-0.003
0.03,-0.016
0.03,-0.006
0.031,0.002
0.038,0.017
0.039,0.023
0.042,0.029
0.038,0.03
0.041,0.032
0.038,0.032
0.04,0.023
0.038,0.017
0.039,0.008
0.038,0.007
0.035,0.007
0.035,0.009
0.034,0.012
0.033,0.019
0.034,0.036
0.039,0.043
0.044,0.045
0.049,0.044
0.049,0.043
0.045,0.037
0.047,0.041
0.045,0.037
0.046,0.036
0.044,0.035
0.055,0.041
0.065,0.053
0.069,0.062
0.054,0.061
0.026,0.048
-0.002,0.031
-0.033,-0.006
-0.056,-0.053
-0.065,-0.018
-0.015,0.073
0.055,0.15
0.102,0.181
0.101,0.163
0.087,0.112
0.068,0.051
0.056,0.023
0.047,0.017
0.04,0.029
0.04,0.028
0.039,0.026
0.034,0.018
0.036,0.02
0.049,0.026
0.062,0.03
0.062,0.031
0.056,0.026
0.047,0.021
0.041,0.011
0.039,0.008
0.039,0.009
0.038,0.013
0.04,0.026
0.04,0.035
0.045,0.05
0.039,0.057
0.04,0.056
0.037,0.056
0.036,0.049
0.042,0.047
0.05,0.039
0.059,0.037
0.062,0.035
0.063,0.034
0.054,0.036
0.049,0.032
0.044,0.029
0.052,0.023
0.059,0.023
0.061,0.019
0.061,0.021
0.056,0.027
0.05,0.03
0.039,0.035
0.03,0.035
0.032,0.038
0.037,0.037
0.045,0.034
0.047,0.026
0.039,0.025
0.028,0.019
0.022,0.019
0.016,0.014
0.016,0.012
0.027,0.013
0.043,0.014
0.05,0.022
0.049,0.026
0.036,0.018
0.032,-0.004
0.046,-0.011
0.064,-0.016
0.078,-0.014
0.078,-0.015
0.069,-0.009
0.048,-0.003
0.036,-0.002
0.026,0.002
0.024,0.001
0.028,0.002
0.045,0.004
0.069,0.006
0.082,0.007
0.08,0.004
0.07,0.004
0.06,0.004
0.053,0.009
0.051,0.01
0.052,-0.016
0.048,-0.068
0.031,-0.061
0.007,0.014
-0.013,0.075
-0.032,0.107
-0.031,0.094
0.007,0.049
0.058,-0.011
0.088,-0.045
0.088,-0.052
0.075,-0.043
0.069,-0.028
0.062,-0.017
0.058,-0.012
0.056,-0.006
0.058,-0.01
0.059,-0.008
0.056,-0.013
0.058,-0.009
0.052,-0.008
0.052,-0.007
0.056,-0.003
0.066,-0.006
0.066,-0.004
0.065,-0.01
0.059,-0.006
0.049,0
0.043,0.01
0.04,0.016
0.041,0.012
0.039,0.012
0.032,0.01
0.03,0.011
0.023,0.008
0.014,0.01
0.013,0.01
0.021,0.012
0.034,0.014
0.046,0.012
0.051,0.011
0.048,0.006
0.043,0.004
0.037,0.007
0.023,0.01
0.019,0.014
0.023,0.017
0.041,0.017
0.054,0.017
0.061,0.017
0.057,0.019
0.051,0.019
0.044,0.017
0.041,0.019
0.041,0.021
0.037,0.022
0.042,0.027
0.041,0.029
0.04,0.036
0.038,0.034
0.038,0.038
0.041,0.037
0.045,0.036
0.047,0.034
0.049,0.033
0.046,0.034
0.046,0.036
0.043,0.033
0.041,0.036
0.042,0.037
0.043,0.035
0.044,0.034
0.05,0.03
0.049,0.027
0.036,0.024
0.019,0.028
0.002,0.032
-0.018,0.035
-0.021,0.042
0.004,0.049
0.044,0.061
0.065,0.071
0.07,0.08
0.063,0.073
0.067,0.056
0.069,0.038
0.077,0.026
0.08,0.023
0.078,0.025
0.075,0.036
0.068,0.036
0.058,0.039
0.044,0.044
0.038,0.044
0.028,0.043
0.027,0.047
0.027,0.05
0.039,0.055
0.052,0.048
0.066,0.048
0.062,0.047
0.041,0.045
0.018,0.045
-0.001,0.051
-0.01,0.053
-0.005,0.052
0.011,0.06
0.033,0.059
0.052,0.062
0.073,0.061
0.085,0.058
0.084,0.059
0.074,0.038
0.064,0.02
0.059,0.007
0.052,0.008
0.046,0.004
0.045,0.009
0.046,0.01
0.051,0.01
0.049,0.012
0.042,0.009
0.03,0.013
0.014,0.027
-0.003,0.037
-0.006,0.002
0.02,-0.035
0.05,0.025
0.065,0.097
0.059,0.149
0.051,0.155
0.045,0.124
0.04,0.065
0.043,0.016
0.047,-0.01
0.051,-0.014
0.054,-0.011
0.053,-0.006
0.053,0.002
0.049,0.002
0.045,0.004
0.041,0.001
0.036,0.004
0.031,0.005
0.036,0.008
0.043,0.006
0.053,0.012
0.067,0.02
0.079,0.031
0.075,0.041
0.066,0.043
0.054,0.033
0.047,0.01
0.041,-0.008
0.039,-0.012
0.045,-0.012
0.04,-0.006
0.042,-0.006
0.043,-0.004
0.046,-0.006
0.049,-0.003
0.049,-0.008
0.049,-0.005
0.05,-0.003
0.044,-0.001
0.036,0.001
0.029,0.002
0.025,0.004
0.028,0.004
0.032,0
0.044,0
0.056,-0.003
0.068,-0.001
0.062,-0.003
0.057,0
0.047,-0.001
0.04,0.001
0.03,0.002
0.028,0
0.033,-0.001
0.053,-0.003
0.069,-0.004
0.075,-0.01
0.071,-0.008
0.062,-0.01
0.052,-0.008
0.04,-0.006
0.032,-0.006
0.034,-0.003
0.037,-0.006
0.039,-0.002
0.043,0.001
0.049,0.001
0.055,0.007
0.056,0.008
0.049,0.011
0.038,0.008
0.033,0.011
0.034,0.01
0.038,0.01
0.037,0.016
0.043,0.014
0.043,0.015
0.041,0.017
0.041,0.022
0.043,0.026
0.048,0.027
0.052,0.031
0.052,0.028
0.05,0.036
0.046,0.039
0.046,0.034
0.043,0.012
0.045,0.003
0.041,0
0.039,0.009
0.032,0.02
0.02,0.028
0.009,0.037
0.003,0.039
-0.005,0.036
-0.003,0.033
0.001,0.032
0.015,0.031
0.035,0.032
0.063,0.027
0.082,0.023
0.086,0.017
0.086,0.012
0.089,0.007
0.088,0.008
0.084,0.014
0.072,0.018
0.061,0.024
0.046,0.031
0.031,0.038
0.023,0.048
0.024,0.061
0.026,0.073
0.036,0.071
0.044,0.06
0.037,0.043
0.023,0.035
0,0.032
-0.022,0.031
-0.026,0.034
0.004,0.042
0.038,0.044
0.061,0.041
0.057,0.045
0.05,0.041
0.042,0.04
0.044,0.041
0.054,0.042
0.058,0.041
0.06,0.046
0.067,0.058
0.069,0.066
0.059,0.074
0.045,0.07
0.043,0.066
0.05,0.056
0.059,0.05
0.052,0.048
0.049,0.051
0.042,0.05
0.038,0.049
0.035,0.049
0.033,0.047
0.03,0.052
0.032,0.062
0.034,0.064
0.037,0.061
0.042,0.062
0.049,0.07
0.048,0.078
0.044,0.084
0.045,0.08
0.047,0.06
0.048,0.043
0.043,0.033
0.047,0.044
0.05,0.059
0.062,0.073
0.065,0.062
0.064,0.036
0.057,0.019
0.055,0.003
0.051,-0.002
0.049,0.001
0.045,-0.021
0.045,-0.056
0.041,-0.01
0.038,0.073
0.037,0.13
0.038,0.148
0.038,0.121
0.04,0.063
0.033,0.002
0.034,-0.027
0.031,-0.028
0.03,-0.013
0.028,0.008
0.04,0.029
0.058,0.047
0.082,0.048
0.094,0.041
0.089,0.026
0.071,0.008
0.046,-0.009
0.015,-0.022
-0.012,-0.018
-0.005,-0.015
0.031,-0.005
0.072,-0.003
0.095,-0.001
0.092,-0.001
0.085,0
0.071,0.001
0.065,0.004
0.051,0.005
0.049,0.008
0.04,0.016
0.036,0.017
0.03,0.021
0.026,0.014
0.024,0.006
0.019,-0.005
0.02,-0.012
0.021,-0.014
0.024,-0.016
0.026,-0.013
0.035,-0.007
0.04,-0.003
0.037,-0.022
0.035,-0.065
0.036,-0.053
0.043,0.018
0.053,0.088
0.057,0.124
0.057,0.115
0.056,0.077
0.06,0.02
0.055,-0.026
0.061,-0.051
0.058,-0.046
0.058,-0.028
0.058,-0.004
0.059,0.002
0.058,-0.007
0.056,-0.017
0.052,-0.027
0.044,-0.021
0.034,-0.015
0.035,-0.007
0.029,-0.008
0.035,-0.002
0.036,0.001
0.042,0.001
0.047,0.007
0.051,0.009
0.047,0.016
0.049,0.011
0.049,0.013
0.05,0.017
0.052,0.019
0.046,0.015
0.044,0.012
0.036,0.008
0.027,0
0.026,-0.003
0.024,-0.001
0.025,0.003
0.04,0.014
0.053,0.015
0.062,0.02
0.059,0.021
0.056,0.016
0.052,0.013
0.054,0.012
0.052,0.018
0.052,0.018
0.044,0.023
0.044,0.02
0.045,0.019
0.042,0.017
0.028,0.017
0.014,0.015
-0.003,0.025
-0.023,0.04
-0.029,0.049
-0.015,0.032
0.028,0.019
0.05,0.015
0.052,0.013
0.045,0.016
0.048,0.019
0.062,0.023
0.074,0.026
0.077,0.029
0.075,0.027
0.07,0.03
0.065,0.031
0.064,0.03
0.064,0.03
0.062,0.032
0.062,0.037
0.062,0.04
0.061,0.049
0.05,0.056
0.033,0.064
0.016,0.061
0.011,0.052
0.009,0.04
0.012,0.039
0.016,0.046
0.023,0.05
0.032,0.054
0.036,0.052
0.037,0.06
0.04,0.067
0.044,0.074
0.053,0.081
0.06,0.072
0.059,0.052
0.057,0.034
0.057,0.031
0.047,0.036
0.037,0.048
0.027,0.056
0.026,0.052
0.029,0.047
0.038,0.035
0.043,0.03
0.044,0.023
0.039,0.029
0.038,0.04
0.038,0.053
0.041,0.056
0.039,0.055
0.046,0.049
0.045,0.045
0.044,0.043
0.043,0.044
0.042,0.04
0.043,0.041
0.041,0.035
0.049,0.038
0.05,0.036
0.054,0.04
0.053,0.041
0.055,0.038
0.049,0.044
0.049,0.045
0.044,0.044
0.038,0.045
0.037,0.047
0.042,0.049
0.045,0.049
0.049,0.054
0.049,0.048
0.052,0.039
0.048,0.017
0.043,0.004
0.034,0
0.034,0.009
0.026,0.016
0.027,0.02
0.026,0.02
0.027,0.022
0.032,0.023
0.042,0.023
0.056,0.024
0.061,0.025
0.068,0.024
0.07,0.021
0.069,0.014
0.068,0.013
0.063,0.009
0.057,0.006
0.059,0.006
0.063,0.005
0.068,0.006
0.073,0.007
0.074,0.01
0.075,0.013
0.07,0.015
0.068,0.013
0.064,0.016
0.059,0.013
0.048,0.01
0.036,0.009
0.024,0.006
0.011,0.006
0.012,0.008
0.023,0.01
0.038,0.01
0.047,0.007
0.051,0.006
0.061,0.001
0.065,0.001
0.06,-0.001
0.04,0.004
0.022,0.002
0.012,0.008
0.01,0.009
0.016,0.01
0.017,0.009
0.026,0.01
0.031,0.009
0.038,0.006
0.046,0.003
0.055,0.002
0.067,0
0.082,-0.002
0.083,-0.001
0.076,-0.001
0.068,0
0.058,0
0.052,-0.001
0.051,-0.003
0.052,-0.002
0.051,-0.006
0.052,-0.008
0.054,-0.016
0.056,-0.017
0.05,-0.019
0.049,-0.021
0.041,-0.034
0.04,-0.06
0.035,-0.084
0.032,-0.1
0.027,-0.089
0.03,-0.042
0.036,0.013
0.044,0.06
0.052,0.091
0.058,0.096
0.058,0.082
0.058,0.07
0.053,0.053
0.049,0.042
0.036,0.029
0.036,0.016
0.026,0.008
0.025,-0.001
0.025,0.006
0.03,0.015
0.035,0.026
0.036,0.028
0.042,0.03
0.041,0.026
0.04,0.025
0.038,0.024
0.035,0.022
0.035,0.025
0.034,0.028
0.035,0.032
0.036,0.031
0.031,0.033
0.032,0.029
0.03,0.027
0.035,0.023
0.034,0.02
0.045,0.014
0.044,0.019
0.047,0.02
0.051,0.023
0.049,0.027
0.044,0.037
0.036,0.043
0.031,0.041
0.036,0.041
0.041,0.034
0.043,0.034
0.036,0.03
0.026,0.032
0.007,0.03
-0.007,0.04
-0.013,0.057
0.011,0.073
0.042,0.089
0.063,0.089
0.069,0.073
0.063,0.04
0.062,0.023
0.061,0.019
0.062,0.022
0.056,0.034
0.057,0.043
0.053,0.053
0.051,0.057
0.049,0.06
0.044,0.064
0.04,0.074
0.033,0.076
0.03,0.055
0.031,0.032
0.03,0.026
0.039,0.028
0.04,0.032
0.045,0.034
0.042,0.046
0.047,0.046
0.045,0.047
0.044,0.044
0.046,0.046
0.046,0.049
0.048,0.053
0.049,0.058
0.05,0.06
0.051,0.061
0.049,0.057
0.049,0.048
0.041,0.032
0.034,0.022
0.025,0.025
0.03,0.006
0.034,-0.052
0.039,-0.109
0.043,-0.067
0.041,-0.02
0.039,0.025
0.033,0.076
0.031,0.107
0.031,0.101
0.036,0.072
0.04,0.058
0.043,0.056
0.045,0.056
0.047,0.061
0.049,0.055
0.049,0.049
0.054,0.036
0.058,0.031
0.056,0.024
0.059,0.023
0.059,0.018
0.059,0.022
0.053,0.018
0.052,0.018
0.048,0.02
0.044,0.018
0.035,0.019
0.034,0.02
0.027,0.023
0.025,0.026
0.024,0.028
0.033,0.028
0.035,0.034
0.037,0.027
0.041,0.014
0.041,-0.005
0.033,-0.014
0.026,-0.012
0.027,-0.006
0.041,-0.002
0.06,-0.003
0.069,-0.003
0.072,-0.005
0.067,-0.008
0.064,-0.011
0.063,-0.013
0.064,-0.017
0.057,-0.024
0.053,-0.019
0.041,-0.008
0.035,-0.006
0.029,-0.001
0.025,-0.005
0.023,-0.005
0.027,-0.001
0.036,0.01
0.047,0.019
0.058,0.023
0.065,0.026
0.063,0.023
0.059,0.026
0.052,0.02
0.048,0.014
0.039,0.003
0.037,-0.008
0.033,-0.034
0.036,-0.073
0.034,-0.12
0.041,-0.149
0.045,-0.129
0.05,-0.066
0.05,0.01
0.053,0.069
0.051,0.09
0.048,0.089
0.049,0.081
0.053,0.064
0.051,0.048
0.047,0.035
0.044,0.032
0.044,0.023
0.046,0.016
0.044,0.002
0.045,-0.005
0.041,-0.01
0.036,-0.014
0.029,-0.016
0.025,-0.022
0.015,-0.028
0.011,-0.031
0.013,-0.026
0.016,-0.007
0.02,0.021
0.038,0.047
0.049,0.051
0.046,0.049
0.036,0.042
0.036,0.036
0.036,0.029
0.043,0.03
0.042,0.027
0.047,0.028
0.048,0.025
0.055,0.024
0.053,0.024
0.054,0.022
0.047,0.026
0.049,0.022
0.047,0.025
0.045,0.026
0.041,0.033
0.039,0.034
0.038,0.04
0.039,0.039
0.04,0.041
0.04,0.039
0.043,0.038
0.041,0.035
0.042,0.036
0.04,0.037
0.042,0.038
0.04,0.045
0.044,0.042
0.045,0.046
0.048,0.047
0.049,0.046
0.049,0.046
0.048,0.042
0.043,0.047
0.047,0.043
0.047,0.047
0.043,0.044
0.047,0.047
0.044,0.049
0.043,0.051
0.037,0.059
0.039,0.054
0.037,0.052
0.04,0.046
0.043,0.047
0.042,0.05
0.042,0.061
0.041,0.063
0.043,0.056
0.038,0.051
0.042,0.048
0.04,0.049
0.043,0.05
0.043,0.052
0.041,0.052
0.045,0.05
0.044,0.053
0.045,0.05
0.051,0.054
0.05,0.049
0.054,0.046
0.044,0.045
0.032,0.049
0.014,0.054
0.004,0.049
-0.007,0.048
-0.013,0.039
0,0.035
0.016,0.031
0.023,0.028
0.025,0.031
0.031,0.031
0.042,0.028
0.06,0.024
0.071,0.023
0.072,0.028
0.068,0.031
0.063,0.035
0.054,0.039
0.051,0.042
0.047,0.04
0.048,0.036
0.043,0.036
0.043,0.033
0.039,0.04
0.041,0.047
0.042,0.049
0.045,0.042
0.051,0.038
0.049,0.033
0.049,0.028
0.053,0.019
0.055,0.016
0.056,0.019
0.055,0.017
0.052,0.023
0.043,0.023
0.042,0.024
0.037,0.019
0.031,0.014
0.023,0.008
0.019,0.002
0.014,0.002
0.013,0.002
0.019,0.004
0.041,0.004
0.055,0.003
0.054,-0.003
0.052,0.003
0.048,0.006
0.043,0.018
0.043,0.021
0.046,0.02
0.046,0.014
0.047,0.01
0.05,0.011
0.05,0.012
0.053,0.01
0.056,0.005
0.059,0.003
0.062,0.003
0.062,0.004
0.063,0.011
0.056,0.008
0.05,0.005
0.048,0.002
0.048,-0.001
0.043,0
0.039,0
0.035,0.002
0.036,0.001
0.037,0
0.037,-0.004
0.036,-0.003
0.036,-0.001
0.036,-0.003
0.037,0.001
0.039,-0.003
0.047,0.003
0.049,0.001
0.054,-0.002
0.052,0
0.05,-0.004
0.045,0.001
0.04,-0.002
0.038,0.001
0.036,0
0.039,0.007
0.034,0.011
0.035,0.014
0.032,0.019
0.035,0.013
0.038,0.012
0.043,0.009
0.044,0.006
0.046,0.001
0.045,0.002
0.044,0.005
0.046,0.005
0.044,0.007
0.044,0.005
0.045,0.008
0.045,0.005
0.048,0.008
0.046,0.011
0.046,0.016
0.039,0.018
0.037,0.018
0.03,0.019
0.025,0.015
0.021,0.017
0.02,0.019
0.02,0.023
0.022,0.023
0.026,0.025
0.037,0.023
0.05,0.024
0.054,0.025
0.058,0.023
0.052,0.026
0.053,0.025
0.049,0.024
0.05,0.023
0.05,0.027
0.047,0.029
0.049,0.031
0.046,0.034
0.045,0.035
0.047,0.041
0.047,0.042
0.046,0.044
0.049,0.042
0.05,0.045
0.051,0.041
0.054,0.041
0.049,0.039
0.05,0.039
0.038,0.038
0.041,0.037
0.039,0.034
0.039,0.026
0.038,0.03
0.038,0.039
0.033,0.049
0.028,0.054
0.031,0.054
0.032,0.056
0.037,0.055
0.042,0.051
0.05,0.043
0.052,0.037
0.049,0.033
0.038,0.033
0.027,0.037
0.016,0.04
0.012,0.043
0.013,0.049
0.019,0.05
0.024,0.052
0.054,0.056
0.069,0.059
0.066,0.058
0.055,0.058
0.044,0.057
0.039,0.056
0.038,0.055
0.038,0.05
0.041,0.045
0.041,0.035
0.043,0.036
0.043,0.038
0.048,0.044
0.048,0.047
0.052,0.045
0.049,0.047
0.049,0.043
0.048,0.047
0.045,0.044
0.048,0.044
0.045,0.041
0.047,0.039
0.043,0.04
0.043,0.041
0.041,0.044
0.045,0.041
0.045,0.042
0.046,0.033
0.046,0.035
0.048,0.036
0.045,0.036
0.046,0.035
0.045,0.033
0.048,0.028
0.045,0.024
0.046,0.019
0.044,0.015
0.045,0.023
0.041,0.036
0.044,0.046
0.043,0.047
0.045,0.042
0.045,0.035
0.047,0.029
0.046,0.026
0.047,0.023
0.045,0.02
0.045,0.018
0.045,0.02
0.046,0.018
0.043,0.016
0.045,0.011
0.044,0.009
0.045,0.008
0.046,0.01
0.043,0.014
0.044,0.012
0.044,0.011
0.047,0.01
0.046,0.012
0.048,0.01
0.046,0.012
0.046,0.013
0.047,0.014
0.048,0.015
0.048,0.013
0.053,0.011
0.048,0.004
0.047,-0.003
0.043,-0.003
0.039,-0.001
0.036,0.002
0.034,0
0.032,0
0.031,0.001
0.028,-0.001
0.026,0.001
0.024,-0.002
0.024,0
0.021,-0.004
0.022,-0.002
0.019,-0.002
0.026,0
0.029,0.005
0.042,0.002
0.049,0.001
0.058,-0.003
0.062,-0.001
0.062,-0.003
0.058,0
0.051,0.001
0.05,0.002
0.045,0.001
0.047,0.005
0.047,0.006
0.047,0.005
0.048,0.009
0.047,0.013
0.044,0.009
0.039,0.006
0.039,0.008
0.042,0.008
0.042,0.005
0.04,0.006
0.039,0.011
0.037,0.01
0.038,0.009
0.042,0.009
0.045,0.009
0.043,0.008
0.045,0.009
0.041,0.014
0.04,0.01
0.039,0.012
0.039,0.009
0.041,0.014
0.039,0.014
0.041,0.017
0.041,0.023
0.042,0.022
0.041,0.027
0.043,0.021
0.039,0.026
0.041,0.024
0.037,0.028
0.042,0.027
0.041,0.029
0.041,0.029
0.044,0.031
0.042,0.028
0.043,0.031
0.043,0.029
0.045,0.032
0.043,0.034
0.046,0.032
0.04,0.037
0.044,0.036
0.04,0.038
0.042,0.036
0.036,0.037
0.041,0.038
0.041,0.041
0.028,0.04
0.016,0.039
-0.017,0.045
-0.054,0.04
-0.065,0.042
-0.052,0.039
-0.018,0.042
0.017,0.039
0.041,0.042
0.051,0.041
0.065,0.039
0.076,0.044
0.096,0.042
0.111,0.047
0.133,0.048
0.146,0.053
0.151,0.053
0.146,0.052
0.127,0.05
0.102,0.049
0.067,0.047
0.027,0.044
-0.016,0.042
-0.061,0.042
-0.079,0.041
-0.074,0.047
-0.057,0.046
-0.026,0.048
0.002,0.045
0.036,0.045
0.06,0.047
0.079,0.047
0.093,0.05
0.105,0.048
0.108,0.048
0.111,0.048
0.112,0.049
0.108,0.047
0.105,0.047
0.107,0.046
0.106,0.045
0.096,0.043
0.072,0.039
0.053,0.041
0.039,0.037
0.034,0.037
0.033,0.04
0.037,0.038
0.039,0.037
0.045,0.034
0.049,0.033
0.05,0.035
0.049,0.034
0.048,0.036
0.052,0.036
0.056,0.033
0.057,0.034
0.057,0.031
0.054,0.034
0.044,0.029
0.036,0.032
0.031,0.029
0.03,0.03
0.033,0.025
0.036,0.025
0.038,0.024
0.044,0.021
0.046,0.018
0.047,0.018
0.044,0.013
0.044,0.012
0.042,0.011
0.044,0.013
0.046,0.013
0.049,0.013
0.046,0.012
0.05,0.013
0.047,0.011
0.047,0.008
0.049,0.007
0.047,0.006
0.047,0.005
0.047,0.006
0.043,0.005
0.039,0.006
0.036,0.005
0.037,0.007
0.032,0.007
0.03,0.007
0.031,0.006
0.034,0.004
0.033,0.007
0.036,0.002
0.042,0.005
0.046,-0.001
0.05,-0.004
0.048,-0.005
0.048,-0.007
0.045,-0.004
0.046,-0.005
0.045,-0.005
0.042,-0.006
0.042,-0.004
0.041,-0.002
0.039,-0.002
0.037,0.001
0.034,0.002
0.035,-0.002
0.036,-0.001
0.039,-0.002
0.043,-0.003
0.046,-0.005
0.055,-0.003
0.071,-0.002
0.08,-0.005
0.081,-0.003
0.077,-0.004
0.068,0.003
0.058,-0.001
0.044,0.003
0.033,0
0.021,0.002
0.011,-0.003
-0.002,0
-0.027,0.002
-0.056,0.003
-0.084,0.009
-0.092,0.006
-0.077,0.009
-0.035,0.007
0.015,0.011
0.06,0.009
0.089,0.011
0.1,0.015
0.102,0.013
0.096,0.018
0.096,0.015
0.091,0.014
0.085,0.014
0.071,0.015
0.022,0.015
-0.034,0.017
-0.063,0.017
-0.076,0.018
-0.075,0.02
-0.063,0.017
-0.041,0.02
-0.014,0.018
0.017,0.021
0.042,0.019
0.065,0.023
0.08,0.024
0.094,0.028
0.096,0.027
0.098,0.03
0.086,0.031
0.081,0.034
0.074,0.034
0.072,0.033
0.065,0.034
0.056,0.032
0.033,0.034
0.017,0.032
0.011,0.035
0.02,0.036
0.037,0.038
0.05,0.039
0.063,0.043
0.072,0.049
0.072,0.046
0.057,0.045
0.048,0.042
0.037,0.039
0.031,0.036
0.029,0.037
0.036,0.039
0.043,0.039
0.042,0.043
0.04,0.042
0.037,0.045
0.031,0.043
0.023,0.046
0.012,0.047
-0.002,0.046
-0.023,0.048
-0.04,0.046
-0.072,0.046
-0.128,0.044
-0.149,0.043
-0.126,0.044
-0.071,0.042
-0.004,0.048
0.05,0.046
0.084,0.048
0.1,0.048
0.109,0.047
0.108,0.046
0.118,0.047
0.12,0.052
0.13,0.048
0.139,0.046
0.139,0.04
0.127,0.043
0.11,0.043
0.088,0.044
0.07,0.044
0.043,0.046
-0.004,0.044
-0.026,0.041
-0.025,0.046
-0.007,0.042
0.03,0.042
0.068,0.041
0.097,0.041
0.114,0.039
0.116,0.038
0.106,0.036
0.082,0.036
0.063,0.036
0.058,0.034
0.067,0.032
0.082,0.033
0.089,0.031
0.094,0.029
0.093,0.03
0.093,0.026
0.092,0.03
0.086,0.028
0.081,0.028
0.072,0.025
0.07,0.024
0.045,0.021
0.04,0.021
0.043,0.014
0.058,0.016
0.067,0.014
0.078,0.011
0.081,0.013
0.087,0.013
0.082,0.017
0.073,0.015
0.058,0.016
0.051,0.012
0.049,0.014
0.047,0.01
0.048,0.01
0.045,0.007
0.045,0.008
0.044,0.01
0.043,0.006
0.035,0.007
0.026,0.003
0.015,0.005
0.007,0.006
-0.006,0.007
-0.018,0.006
-0.021,0.004
-0.015,0.006
0,0.004
0.018,0.005
0.028,0.001
0.046,0.001
0.055,0.001
0.062,-0.001
0.063,0
0.071,-0.002
0.076,-0.001
0.087,-0.003
0.104,-0.001
0.107,0
0.095,-0.001
0.07,0.001
0.052,0.002
0.034,0.002
0.016,-0.003
-0.005,-0.005
-0.009,-0.003
0.002,-0.005
0.02,-0.004
0.036,-0.006
0.051,-0.007
0.059,-0.004
0.065,-0.002
0.061,0.002
0.064,0.001
0.066,0.004
0.071,0.006
0.074,0.003
0.074,0.002
0.069,0.002
0.062,0.004
0.052,0.003
0.044,0.008
0.037,0.005
0.029,0.006
0.016,0.005
0.009,0.009
0.01,0.01
0.001,0.012
-0.018,0.016
-0.017,0.013
-0.016,0.011
-0.005,0.01
0.006,0.01
0.019,0.009
0.032,0.013
0.044,0.014
0.054,0.013
0.074,0.015
0.088,0.015
0.096,0.016
0.097,0.019
0.094,0.018
0.083,0.02
0.075,0.023
0.062,0.024
0.055,0.025
0.05,0.028
0.046,0.026
0.046,0.032
0.047,0.031
0.051,0.035
0.043,0.034
0.023,0.033
-0.004,0.03
-0.03,0.032
-0.052,0.028
-0.06,0.031
-0.058,0.03
-0.032,0.034
-0.005,0.036
0.026,0.039
0.05,0.046
0.08,0.049
0.106,0.051
0.131,0.05
0.153,0.047
0.156,0.048
0.153,0.043
0.153,0.044
0.14,0.042
0.115,0.044
0.069,0.041
0.024,0.041
-0.016,0.044
-0.038,0.044
-0.047,0.052
-0.049,0.05
-0.048,0.051
-0.036,0.048
-0.018,0.051
-0.003,0.049
0.015,0.049
0.021,0.051
0.028,0.047
0.025,0.051
0.028,0.047
0.024,0.047
0.022,0.045
0.022,0.046
0.026,0.048
0.037,0.049
0.048,0.053
0.051,0.05
0.058,0.05
0.061,0.048
0.061,0.047
0.053,0.046
0.036,0.045
0.011,0.046
-0.006,0.045
-0.022,0.044
-0.029,0.039
-0.026,0.038
-0.019,0.036
0,0.036
0.024,0.039
0.057,0.039
0.086,0.046
0.114,0.043
0.124,0.046
0.122,0.042
0.12,0.042
0.104,0.039
0.087,0.037
0.058,0.04
0.031,0.036
0.012,0.035
0.002,0.032
0.002,0.032
0.007,0.038
0.01,0.039
0.013,0.035
0.021,0.033
0.025,0.033
0.033,0.032
0.039,0.03
0.039,0.027
0.036,0.028
0.035,0.026
0.032,0.024
0.034,0.021
0.032,0.017
0.032,0.014
0.039,0.015
0.043,0.016
0.053,0.013
0.058,0.014
0.063,0.012
0.065,0.013
0.063,0.01
0.063,0.01
0.057,0.009
0.057,0.007
0.049,0.009
0.046,0.005
0.041,0.006
0.043,0.001
0.046,-0.003
0.044,-0.005
0.041,-0.004
0.023,-0.002
0.006,0.002
-0.033,0.006
-0.05,0.007
-0.043,0.01
-0.005,0.008
0.034,0.009
0.063,0.008
0.074,0.002
0.077,0
0.077,-0.004
0.079,-0.003
0.079,-0.004
0.082,-0.002
0.078,0.001
0.074,0.004
0.065,0
0.06,-0.002
0.053,-0.001
0.048,0
0.046,-0.001
0.052,-0.001
0.048,-0.003
0.031,-0.004
0.004,-0.005
-0.021,-0.004
-0.035,-0.003
-0.04,-0.002
-0.038,0
-0.018,-0.003
0.008,0.001
0.03,0.001
0.056,0.004
0.066,0.004
0.076,0.003
0.076,0.007
0.084,0.007
0.087,0.006
0.09,0.008
0.095,0.01
0.093,0.008
0.092,0.01
0.084,0.014
0.078,0.013
0.07,0.015
0.067,0.012
0.062,0.013
0.056,0.01
0.051,0.011
0.046,0.015
0.047,0.014
0.041,0.016
0.042,0.015
0.04,0.015
0.04,0.017
0.04,0.018
0.036,0.015
0.014,0.014
-0.015,0.018
-0.043,0.022
-0.065,0.022
-0.069,0.023
-0.053,0.03
-0.014,0.03
0.016,0.032
0.048,0.032
0.064,0.036
0.08,0.031
0.083,0.033
0.088,0.031
0.09,0.032
0.093,0.032
0.093,0.033
0.087,0.036
0.081,0.036
0.071,0.036
0.063,0.036
0.048,0.038
0.028,0.037
0.005,0.042
-0.017,0.037
-0.028,0.041
-0.041,0.041
-0.038,0.042
-0.029,0.044
-0.01,0.043
0.01,0.045
0.03,0.039
0.046,0.044
0.056,0.038
0.061,0.041
0.064,0.043
0.066,0.045
0.066,0.047
0.068,0.047
0.075,0.046
0.079,0.044
0.077,0.044
0.076,0.045
0.072,0.044
0.063,0.047
0.055,0.045
0.049,0.045
0.044,0.044
0.044,0.046
0.044,0.049
0.05,0.047
0.052,0.049
0.056,0.049
0.056,0.047
0.054,0.045
0.056,0.045
0.051,0.048
0.049,0.049
0.044,0.052
0.042,0.046
0.045,0.049
0.045,0.045
0.049,0.042
0.048,0.045
0.057,0.043
0.064,0.042
0.081,0.039
0.093,0.036
0.109,0.034
0.115,0.034
0.111,0.036
0.088,0.033
0.062,0.036
0.043,0.034
0.02,0.036
0.005,0.034
0.002,0.031
0.012,0.033
0.043,0.035
0.062,0.034
0.077,0.03
0.075,0.032
0.06,0.028
0.041,0.027
0.027,0.025
0.015,0.025
0.006,0.028
0.005,0.023
0.01,0.024
0.034,0.023
0.042,0.023
0.021,0.019
-0.003,0.017
-0.005,0.013
0.003,0.013
0.016,0.012
0.031,0.013
0.037,0.014
0.048,0.013
0.062,0.01
0.072,0.013
0.076,0.012
0.072,0.006
0.068,0.008
0.062,0.003
0.057,0.004
0.049,0
0.05,0.004
0.05,0.004
0.062,0.005
0.065,0.004
0.052,0.005
0.031,0.006
0.01,0.003
0.006,0.002
0.011,0
0.016,-0.001
0.019,0.001
0.024,-0.002
0.029,-0.004
0.032,-0.007
0.042,-0.014
0.045,-0.011
0.052,-0.007
0.056,-0.002
0.059,-0.001
0.061,0.002
0.061,-0.002
0.063,-0.003
0.062,-0.002
0.06,-0.003
0.053,-0.003
0.053,-0.004
0.047,-0.002
0.045,-0.006
0.043,-0.002
0.042,-0.002
0.041,-0.001
0.039,0.001
0.042,0
0.056,0
0.063,0
0.08,0
0.079,0.001
0.072,0.003
0.06,0.004
0.048,0.004
0.037,0.004
0.027,0.004
0.021,0.005
0.013,0.007
0.013,0.007
0.018,0.01
0.025,0.008
0.033,0.008
0.037,0.009
0.045,0.01
0.039,0.01
0.037,0.011
0.03,0.016
0.026,0.012
0.022,0.017
0.026,0.017
0.028,0.019
0.032,0.016
0.035,0.016
0.038,0.013
0.04,0.017
0.04,0.017
0.041,0.016
0.042,0.016
0.053,0.01
0.063,0.014
0.079,0.017
0.088,0.021
0.093,0.025
0.088,0.029
0.076,0.034
0.063,0.034
0.046,0.035
0.019,0.036
0,0.032
-0.006,0.033
-0.001,0.033
0.013,0.034
0.023,0.036
0.032,0.036
0.036,0.042
0.041,0.04
0.052,0.041
0.059,0.038
0.064,0.039
0.061,0.04
0.059,0.042
0.054,0.045
0.062,0.041
0.066,0.041
0.068,0.039
0.074,0.039
0.062,0.039
0.059,0.038
0.05,0.045
0.046,0.041
0.041,0.046
0.037,0.046
0.035,0.046
0.026,0.047
0.014,0.046
0.004,0.048
0,0.048
0.002,0.046
-0.007,0.044
-0.045,0.047
-0.084,0.044
-0.089,0.048
-0.076,0.051
-0.046,0.05
-0.016,0.052
0.019,0.053
0.044,0.051
0.067,0.05
0.082,0.053
0.098,0.05
0.105,0.049
0.102,0.051
0.094,0.05
0.07,0.048
0.036,0.047
-0.037,0.044
-0.082,0.042
-0.103,0.039
-0.091,0.042
-0.055,0.042
-0.028,0.044
-0.02,0.042
-0.004,0.042
0.009,0.044
0.022,0.042
0.035,0.045
0.048,0.044
0.048,0.042
0.036,0.039
0.032,0.034
0.041,0.032
0.056,0.032
0.068,0.033
0.074,0.032
0.078,0.032
0.069,0.029
0.043,0.027
0.019,0.025
0.011,0.027
0.016,0.025
0.038,0.028
0.06,0.028
0.083,0.025
0.096,0.025
0.109,0.019
0.111,0.02
0.114,0.016
0.11,0.018
0.11,0.014
0.118,0.015
0.114,0.014
0.116,0.015
0.111,0.015
0.109,0.013
0.102,0.014
0.095,0.01
0.086,0.01
0.073,0.008
0.059,0.006
0.046,0.003
0.029,0.004
0.004,0.006
-0.007,0.005
0.005,0.006
0.028,0.003
0.052,0.006
0.066,0.004
0.07,0.005
0.064,0.004
0.066,0.006
0.064,0.002
0.064,0.001
0.067,0
0.07,-0.003
0.073,-0.002
0.076,-0.001
0.071,-0.001
0.068,-0.001
0.062,-0.001
0.059,-0.003
0.051,-0.003
0.047,-0.002
0.045,0.001
0.041,0.001
0.043,0
0.043,-0.004
0.046,-0.003
0.045,-0.002
0.049,-0.002
0.045,-0.001
0.045,-0.003
0.046,-0.001
0.044,-0.003
0.048,-0.002
0.048,0.002
0.044,-0.001
0.045,0.002
0.043,0.002
0.045,0.004
0.043,0.002
0.043,0.002
0.042,0.003
0.042,0.003
0.04,0.006
0.04,0.003
0.038,0.002
0.037,0.004
0.041,0.004
0.04,0.005
0.045,0.004
0.04,0.007
0.032,0.008
0.019,0.011
0.01,0.012
-0.007,0.007
-0.021,0.01
-0.024,0.01
-0.014,0.013
-0.018,0.01
-0.028,0.015
-0.039,0.012
-0.068,0.017
-0.084,0.016
-0.098,0.017
-0.095,0.019
-0.067,0.023
-0.017,0.023
0.043,0.025
0.096,0.026
0.134,0.025
0.157,0.026
0.164,0.024
0.168,0.026
0.164,0.029
0.158,0.029
0.15,0.031
0.14,0.032
0.127,0.032
0.087,0.035
0.054,0.035
0.029,0.034
0.007,0.036
-0.006,0.034
-0.013,0.033
-0.019,0.036
-0.022,0.036
-0.014,0.036
-0.015,0.038
-0.021,0.038
-0.022,0.039
-0.016,0.036
0.002,0.037
0.031,0.036
0.06,0.038
0.087,0.039
0.106,0.04
0.117,0.042
0.123,0.042
0.129,0.044
0.126,0.042
0.119,0.043
0.112,0.049
0.101,0.047
0.096,0.049
0.091,0.045
0.101,0.043
0.105,0.042
0.116,0.042
0.115,0.046
0.114,0.046
0.096,0.05
0.08,0.048
0.063,0.049
0.042,0.048
0.022,0.049
0.004,0.052
0.001,0.049
0.011,0.048
0.022,0.044
0.03,0.045
0.035,0.042
0.039,0.044
0.038,0.041
0.04,0.042
0.039,0.043
0.04,0.043
0.039,0.039
0.039,0.037
0.041,0.036
0.041,0.038
0.04,0.036
0.038,0.04
0.038,0.037
0.037,0.035
0.036,0.036
0.04,0.034
0.037,0.036
0.039,0.032
0.035,0.034
0.033,0.032
0.036,0.033
0.034,0.031
0.036,0.033
0.036,0.034
0.039,0.032
0.041,0.033
0.044,0.027
0.043,0.026
0.047,0.021
0.045,0.017
0.044,0.015
0.043,0.012
0.041,0.012
0.045,0.01
0.043,0.01
0.044,0.009
0.041,0.009
0.039,0.011
0.039,0.014
0.039,0.012
0.038,0.014
0.04,0.012
0.04,0.011
0.038,0.008
0.043,0.011
0.04,0.011
0.044,0.01
0.04,0.01
0.041,0.008
0.038,0.009
0.037,0.003
0.036,0.003
0.033,0.001
0.035,0.004
0.03,0.003
0.03,0.001
0.028,0.004
0.033,0.001
0.032,0.002
0.04,-0.002
0.049,-0.004
0.053,-0.003
0.067,-0.002
0.078,0.001
0.082,-0.003
0.077,-0.001
0.063,-0.005
0.052,-0.002
0.037,-0.001
0.029,-0.002
0.02,0
0.014,-0.002
0.011,-0.004
0.015,-0.003
0.023,0
0.027,-0.003
0.03,-0.003
0.032,-0.002
0.032,-0.002
0.033,-0.003
0.033,-0.001
0.035,0
0.034,0.004
0.035,0.004
0.036,0.008
0.036,0.006
0.042,0.008
0.037,0.002
0.04,0.004
0.039,0.007
0.041,0.007
0.037,0.01
0.037,0.007
0.036,0.009
0.036,0.008
0.036,0.01
0.038,0.009
0.041,0.012
0.05,0.016
0.064,0.01
0.075,0.011
0.091,0.007
0.097,0.011
0.093,0.008
0.078,0.01
0.063,0.015
0.049,0.015
0.025,0.016
0.006,0.018
-0.006,0.019
-0.002,0.02
0.005,0.023
0.014,0.021
0.02,0.024
0.023,0.023
0.027,0.026
0.023,0.026
0.024,0.027
0.022,0.028
0.029,0.032
0.031,0.034
0.034,0.033
0.034,0.036
0.032,0.032
0.026,0.033
0.029,0.031
0.027,0.033
0.027,0.033
0.03,0.04
0.033,0.042
0.035,0.044
0.04,0.047
0.04,0.045
0.035,0.045
0.035,0.042
0.033,0.04
0.034,0.038
0.036,0.038
0.034,0.038
0.032,0.04
0.029,0.045
0.027,0.045
0.026,0.046
0.026,0.047
0.028,0.046
0.032,0.046
0.037,0.048
0.044,0.047
0.045,0.045
0.044,0.045
0.043,0.047
0.045,0.046
0.043,0.045
0.043,0.043
0.043,0.047
0.037,0.046
0.038,0.051
0.035,0.052
0.034,0.051
0.032,0.05
0.039,0.05
0.038,0.049
0.043,0.05
0.046,0.054
0.05,0.05
0.049,0.049
0.052,0.049
0.056,0.047
0.054,0.046
0.055,0.043
0.05,0.045
0.039,0.043
0.031,0.045
0.025,0.04
0.027,0.042
0.029,0.039
0.034,0.04
0.036,0.041
0.045,0.041
0.051,0.038
0.064,0.037
0.078,0.037
0.09,0.035
0.097,0.034
0.102,0.037
0.096,0.033
0.082,0.03
0.068,0.026
0.055,0.029
0.034,0.031
0.01,0.028
0.006,0.029
0.003,0.023
0.012,0.024
0.019,0.02
0.028,0.021
0.033,0.016
0.036,0.013
0.034,0.013
0.039,0.01
0.037,0.01
0.041,0.011
0.041,0.017
0.042,0.016
0.041,0.019
0.04,0.019
0.041,0.017
0.042,0.013
0.041,0.012
0.043,0.012
0.045,0.01
0.044,0.009
0.041,0.008
0.044,0.007
0.04,0.007
0.04,0.011
0.038,0.008
0.041,0.006
0.04,0.008
0.043,0.003
0.042,0.006
0.043,0.008
0.039,0.01
0.043,0.008
0.045,0.004
0.044,0
0.047,-0.003
0.042,-0.003
0.043,-0.007
0.038,-0.008
0.039,-0.009
0.038,-0.006
0.043,-0.006
0.044,-0.004
0.043,-0.003
0.042,-0.002
0.042,0.001
0.043,-0.002
0.047,-0.001
0.043,-0.005
0.046,-0.002
0.043,0
0.042,0.001
0.038,0.001
0.035,-0.001
0.027,-0.003
0.026,-0.002
0.026,-0.002
0.028,0.002
0.028,0.003
0.031,0.006
0.039,0.005
0.047,0.007
0.038,0.006
0.021,0.003
-0.011,0.001
-0.042,0.002
-0.067,0.005
-0.066,0.007
-0.044,0.007
-0.013,0.003
0.024,0.006
0.05,0.007
0.068,0.007
0.08,0.01
0.086,0.01
0.088,0.013
0.095,0.014
0.1,0.015
0.113,0.012
0.124,0.013
0.123,0.014
0.107,0.015
0.091,0.019
0.073,0.018
0.056,0.021
0.039,0.021
0.026,0.021
0.014,0.022
0.01,0.023
0.011,0.024
0.017,0.027
0.021,0.026
0.031,0.027
0.034,0.026
0.042,0.028
0.045,0.028
0.045,0.031
0.043,0.032
0.044,0.032
0.04,0.036
0.04,0.035
0.034,0.039
0.038,0.036
0.037,0.039
0.038,0.034
0.036,0.038
0.035,0.04
0.037,0.04
0.036,0.042
0.037,0.045
0.039,0.045
0.042,0.044
0.042,0.043
0.038,0.042
0.037,0.041
0.038,0.043
0.041,0.039
0.04,0.044
0.042,0.042
0.045,0.045
0.041,0.045
0.044,0.046
0.04,0.048
0.042,0.048
0.04,0.049
0.044,0.045
0.042,0.046
0.044,0.044
0.041,0.044
0.038,0.048
0.036,0.049
0.033,0.051
0.033,0.049
0.037,0.052
0.04,0.047
0.04,0.049
0.039,0.049
0.04,0.05
0.037,0.05
0.039,0.048
0.044,0.048
0.041,0.045
0.035,0.044
0.034,0.045
0.032,0.043
0.029,0.042
0.028,0.041
0.032,0.043
0.031,0.041
0.038,0.04
0.04,0.044
0.042,0.042
0.041,0.041
0.04,0.038
0.045,0.038
0.041,0.035
0.044,0.034
0.041,0.033
0.046,0.033
0.043,0.035
0.044,0.032
0.045,0.031
0.048,0.029
0.045,0.029
0.047,0.03
0.048,0.028
0.046,0.029
0.049,0.027
0.049,0.027
0.047,0.027
0.037,0.025
0.024,0.024
-0.003,0.022
-0.031,0.016
-0.045,0.015
-0.04,0.014
-0.014,0.013
0.023,0.011
0.063,0.01
0.067,0.011
0.063,0.013
0.062,0.013
0.063,0.011
0.066,0.011
0.072,0.011
0.076,0.011
0.077,0.006
0.076,0.004
0.078,0.006
0.082,0.003
0.081,0.003
0.079,0.002
0.08,0.002
0.072,0.001
0.065,0.001
0.06,0.006
0.061,0.004
0.055,0.003
0.05,0.001
0.053,0.003
0.047,0.003
0.045,-0.001
0.043,0
0.044,-0.001
0.043,-0.003
0.043,-0.004
0.047,-0.007
0.053,-0.005
0.064,-0.005
0.075,-0.005
0.086,-0.004
0.094,-0.004
0.088,-0.003
0.082,-0.003
0.065,-0.004
0.051,-0.003
0.026,-0.002
0.01,-0.003
0.002,-0.001
0.006,-0.002
0.011,-0.003
0.02,0
0.027,-0.002
0.025,0.002
0.032,0
0.034,0.004
0.036,0.003
0.039,0.004
0.038,0.004
0.043,0.004
0.039,0.009
0.039,0.003
0.037,0.005
0.035,-0.001
0.037,0.003
0.038,0.001
0.038,0.004
0.036,0.009
0.039,0.006
0.036,0.011
0.037,0.009
0.036,0.011
0.036,0.01
0.035,0.012
0.036,0.013
0.033,0.014
0.034,0.016
0.035,0.015
0.035,0.015
0.033,0.017
0.034,0.016
0.035,0.017
0.037,0.018
0.033,0.017
0.037,0.02
0.036,0.018
0.039,0.022
0.035,0.024
0.035,0.025
0.035,0.028
0.037,0.031
0.037,0.034
0.038,0.032
0.036,0.034
0.036,0.034
0.033,0.036
0.032,0.036
0.031,0.035
0.031,0.036
0.035,0.037
0.034,0.036
0.034,0.037
0.036,0.039
0.035,0.038
0.033,0.042
0.032,0.041
0.033,0.042
0.034,0.04
0.036,0.039
0.034,0.04
0.036,0.039
0.032,0.045
0.033,0.042
0.031,0.047
0.032,0.044
0.034,0.046
0.036,0.046
0.036,0.049
0.036,0.052
0.038,0.052
0.034,0.054
0.036,0.051
0.038,0.05
0.036,0.047
0.036,0.046
0.035,0.047
0.033,0.045
0.029,0.045
0.027,0.044
0.028,0.043
0.032,0.047
0.035,0.049
0.037,0.051
0.04,0.048
0.041,0.047
0.04,0.047
0.042,0.047
0.04,0.044
0.04,0.043
0.04,0.045
0.039,0.045
0.038,0.049
0.039,0.049
0.042,0.049
0.041,0.045
0.044,0.046
0.04,0.045
0.041,0.043
0.037,0.042
0.041,0.038
0.039,0.04
0.04,0.039
0.036,0.038
0.033,0.036
0.03,0.036
0.031,0.034
0.033,0.035
0.039,0.032
0.042,0.032
0.045,0.031
0.045,0.032
0.048,0.028
0.043,0.028
0.041,0.028
0.044,0.028
0.043,0.024
0.047,0.024
0.045,0.021
0.048,0.021
0.047,0.021
0.049,0.016
0.045,0.018
0.046,0.015
0.041,0.017
0.044,0.014
0.041,0.016
0.044,0.014
0.041,0.013
0.042,0.012
0.043,0.012
0.041,0.008
0.042,0.009
0.048,0.006
0.047,0.006
0.045,0.01
0.044,0.004
0.044,0.003
0.04,0.001
0.042,0.004
0.038,0.003
0.041,0.002
0.039,0.006
0.042,0.001
0.043,0.003
0.043,-0.002
0.045,0
0.043,-0.003
0.044,-0.002
0.043,-0.003
0.044,-0.003
0.04,0
0.044,-0.003
0.044,-0.004
0.043,-0.004
0.04,-0.004
0.039,0.001
0.039,-0.001
0.041,0.001
0.041,-0.001
0.046,-0.001
0.046,-0.003
0.045,-0.004
0.042,-0.004
0.042,-0.003
0.04,-0.003
0.04,-0.004
0.042,-0.004
0.04,-0.002
0.041,-0.001
0.037,0.003
0.037,0.003
0.039,0.003
0.037,-0.001
0.043,0.003
0.04,0.002
0.044,0.007
0.038,0.008
0.041,0.004
0.04,0.008
0.041,0.005
0.041,0.007
0.043,0.006
0.04,0.008
0.039,0.009
0.041,0.01
0.04,0.012
0.039,0.012
0.036,0.012
0.034,0.012
0.035,0.013
0.034,0.013
0.036,0.012
0.036,0.016
0.038,0.015
0.044,0.016
0.043,0.013
0.046,0.017
0.042,0.014
0.043,0.014
0.042,0.014
0.041,0.021
0.038,0.022
0.038,0.025
0.038,0.027
0.04,0.028
0.039,0.031
0.042,0.03
0.039,0.034
0.042,0.032
0.038,0.033
0.039,0.033
0.038,0.035
0.038,0.031
0.043,0.035
0.038,0.033
0.039,0.035
0.04,0.037
0.039,0.035
0.037,0.041
0.035,0.042
0.037,0.045
0.037,0.042
0.038,0.041
0.041,0.04
0.041,0.039
0.04,0.042
0.039,0.043
0.039,0.043
0.037,0.044
0.044,0.043
0.041,0.045
0.043,0.045
0.038,0.047
0.037,0.047
0.036,0.049
0.035,0.05
0.036,0.05
0.038,0.047
0.039,0.048
0.04,0.048
0.04,0.046
0.04,0.048
0.04,0.045
0.039,0.048
0.039,0.045
0.04,0.047
0.039,0.049
0.04,0.051
0.039,0.05
0.038,0.049
0.042,0.045
0.04,0.048
0.042,0.046
0.043,0.048
0.041,0.045
0.04,0.047
0.038,0.045
0.039,0.045
0.039,0.043
0.042,0.041
0.038,0.042
0.042,0.04
0.04,0.045
0.041,0.043
0.044,0.044
0.044,0.039
0.044,0.038
0.043,0.042
0.047,0.037
0.04,0.036
0.043,0.033
0.044,0.033
0.045,0.031
0.046,0.034
0.044,0.029
0.043,0.029
0.04,0.033
0.037,0.031
0.036,0.033
0.036,0.029
0.038,0.03
0.038,0.025
0.042,0.027
0.046,0.024
0.048,0.021
0.044,0.02
0.047,0.019
0.042,0.019
0.046,0.018
0.042,0.017
0.047,0.014
0.044,0.012
0.047,0.01
0.047,0.012
0.049,0.007
0.05,0.007
0.051,0.007
0.047,0.006
0.045,0.009
0.045,0.008
0.046,0.006
0.046,0.002
0.047,0.002
0.048,0
0.046,-0.002
0.046,0.003
0.043,0.003
0.042,0.004
0.04,0.003
0.044,0.004
0.04,0.004
0.044,0.001
0.043,0.005
0.044,0.001
0.043,-0.001
0.046,-0.003
0.047,-0.002
0.047,-0.003
0.045,-0.004
0.044,-0.002
0.044,-0.004
0.042,0
0.042,-0.002
0.043,-0.002
0.043,-0.007
0.045,-0.007
0.041,-0.003
0.047,-0.005
0.044,-0.004
0.041,-0.004
0.044,-0.006
0.044,-0.007
0.044,-0.002
0.043,-0.001
0.046,-0.002
0.041,0
0.044,-0.003
0.042,-0.001
0.042,-0.003
0.043,-0.002
0.047,0.003
0.042,0.001
0.04,0.006
0.042,0.006
0.042,0.007
0.042,0.005
0.045,0.007
0.044,0.009
0.044,0.007
0.042,0.01
0.044,0.011
0.041,0.009
0.038,0.01
0.044,0.011
0.043,0.01
0.043,0.01
0.042,0.013
0.043,0.014
0.043,0.015
0.04,0.014
0.042,0.012
0.041,0.01
0.044,0.011
0.043,0.012
0.045,0.014
0.045,0.017
0.044,0.018
0.045,0.023
0.043,0.023
0.042,0.031
0.042,0.033
0.039,0.037
0.039,0.033
0.037,0.034
0.04,0.034
0.039,0.034
0.04,0.034
0.042,0.036
0.042,0.033
0.044,0.033
0.042,0.03
0.041,0.032
0.039,0.035
0.044,0.036
0.041,0.039
0.042,0.04
0.042,0.04
0.042,0.042
0.044,0.038
0.041,0.038
0.038,0.038
0.042,0.043
0.038,0.042
0.039,0.045
0.038,0.043
0.04,0.043
0.038,0.041
0.039,0.044
0.037,0.049
0.039,0.046
0.038,0.049
0.039,0.049
0.043,0.049
0.039,0.046
0.043,0.046
0.042,0.046
0.039,0.047
0.038,0.051
0.039,0.047
0.037,0.05
0.037,0.047
0.036,0.048
0.038,0.047
0.038,0.048
0.038,0.052
0.039,0.049
0.038,0.05
0.039,0.046
0.043,0.048
0.037,0.049
0.041,0.047
0.037,0.048
0.041,0.048
0.038,0.047
0.04,0.046
0.042,0.048
0.042,0.043
0.04,0.045
0.038,0.044
0.038,0.044
0.039,0.042
0.038,0.04
0.041,0.039
0.042,0.04
0.041,0.04
0.042,0.039
0.041,0.037
0.042,0.037
0.041,0.031
0.044,0.032
0.037,0.033
0.038,0.03
0.033,0.032
0.034,0.027
0.036,0.027
0.037,0.028
0.04,0.025
0.041,0.027
0.043,0.026
0.044,0.027
0.044,0.022
0.044,0.023
0.044,0.019
0.041,0.023
0.043,0.017
0.043,0.016
0.042,0.014
0.041,0.015
0.038,0.015
0.042,0.013
0.041,0.013
0.043,0.014
0.044,0.012
0.044,0.009
0.045,0.012
0.045,0.007
0.044,0.01
0.042,0.008
0.045,0.008
0.041,0.005
0.045,0.005
0.045,0.007
0.047,0.003
0.042,0.005
0.043,0.005
0.043,0.003
0.044,0.003
0.042,0.003
0.045,0.005
0.047,0.002
0.042,0.004
0.046,0.002
0.046,0
0.045,-0.002
0.045,-0.001
0.042,-0.003
0.044,-0.002
0.041,-0.001
0.043,-0.002
0.042,0
0.043,-0.003
0.042,-0.002
0.044,0
0.04,0.001
0.043,0.001
0.041,-0.001
0.042,-0.001
0.041,0.001
0.042,0
0.042,0.003
0.04,0.001
0.04,0.005
0.039,0.005
0.042,0.004
0.041,0.004
0.043,0.001
0.041,0
0.041,-0.001
0.039,0.004
0.039,0.003
0.041,0.004
0.039,0.005
0.041,0.003
0.043,0.007
0.04,0.004
0.039,0.01
0.04,0.007
0.043,0.01
0.039,0.006
0.042,0.009
0.042,0.01
0.039,0.011
0.035,0.014
0.04,0.014
0.039,0.014
0.042,0.015
0.041,0.015
0.039,0.013
0.04,0.016
0.041,0.017
0.039,0.017
0.036,0.02
0.037,0.02
0.033,0.02
0.033,0.022
0.03,0.025
0.033,0.026
0.032,0.028
0.034,0.028
0.034,0.03
0.04,0.031
0.045,0.029
0.041,0.03
0.043,0.028
0.043,0.032
0.043,0.032
0.041,0.033
0.039,0.031
0.039,0.036
0.04,0.032
0.036,0.039
0.035,0.036
0.038,0.041
0.036,0.039
0.038,0.041
0.038,0.038
0.041,0.037
0.038,0.041
0.041,0.043
0.04,0.044
0.043,0.041
0.045,0.04
0.043,0.041
0.039,0.043
0.041,0.046
0.042,0.045
0.041,0.049
0.04,0.046
0.043,0.045
0.043,0.045
0.047,0.044
0.042,0.047
0.045,0.045
0.042,0.049
0.041,0.046
0.041,0.047
0.042,0.045
0.042,0.047
0.039,0.048
0.04,0.049
0.039,0.054
0.04,0.05
0.041,0.051
0.043,0.047
0.043,0.048
0.045,0.05
0.046,0.05
0.042,0.052
0.043,0.047
0.044,0.048
0.042,0.043
0.05,0.046
0.046,0.044
0.047,0.045
0.045,0.043
0.046,0.043
0.044,0.043
0.046,0.043
0.045,0.043
0.044,0.043
0.042,0.041
0.044,0.038
0.043,0.038
0.048,0.033
0.045,0.037
0.047,0.036
0.044,0.036
0.045,0.032
0.044,0.033
0.041,0.032
0.046,0.032
