File Version,253.000000
# of Channels,2.000000
Samples/Channel,10300.000000
Scan Rate (Hz),10000.000000
Timestamp,3807794793.763855
Operating Mode,1.000000
Trial #,0.000000
Session #,33.000000
Subject code 1,82.000000
Subject code 2,88.000000
Feedback Window,0.000000
Feedback Ch,0.000000
Ch B,0.000000
Pre-Stim Acq. time (ms),100.000000
Post-Stim Acq. time (ms),900.000000
EMG Hi Limit,50.000000
EMG Lo Limit,0.000250
Target Value (V),5.000000
Stimulus Value (V),0.650000
Stimulus duration (ms),1.000000
EMG conditions time limit (sec),0.200000
M-response Start (ms),2.000000
M-response Duration (ms),2.000000
H-response Duration (ms),2.000000
H-response Start (ms),5.000000
Proportioanl gain,0.003000
Channel to monitor,0.000000
SIU gain,20.000000
FB Monitor value,0.729096
Inter-Stim delay (sec),5.000000
M-Window Mean,0.010603
H-Window Mean,0.003073
Stimulus paradigm,2.000000
# of Pulses in cond train,1.000000
Cond duration (ms),1.000000
Cond Train pulse period (ms),30.000000
Cond Value (V),0.650000
Start Delay (ms),0.000000
# of Pulses in stim train,1.000000
Stim Train pulse period (ms),30.000000
EMG amp gain ch 1,500.000000
EMG amp gain ch 2,500.000000
EMG amp gain ch 3,1000.000000
EMG amp gain ch 4,1000.000000
EMG amp gain ch 5,1000.000000
EMG amp gain ch 6,1000.000000
Stim Type 1,2.000000
Stim/Cond 1,0.000000
Stim Type 2,3.000000
Stim/Cond 2,0.000000
Stim Type 3,3.000000
Stim/Cond 3,0.000000
Stim Type 4,3.000000
Stim/Cond 4,0.000000
Stim Value 1,0.650000
Stim Value 2,0.000000
Stim Value 3,0.000000
Stim Value 4,0.000000
1st PP Channel,-1.000000
Pressure (g),0.000000
Speed (mm/sec),0.000000
Dwell (ms),0.000000
Pressure limit (g),0.000000
Travel limit (mm),0.000000
Amp gain,0.000000
Wait Trig?,0.000000
Move Timeout (ms),0.000000
Time Taken (ms),0.000000
Actual Travel (mm),0.000000
Recorded Data (mV),
-0.074,-0.137
-0.035,-0.126
0.048,-0.113
0.138,-0.095
0.183,-0.085
0.128,-0.086
0.040,-0.094
-0.009,-0.107
-0.006,-0.124
0.015,-0.139
0.029,-0.140
0.026,-0.144
0.015,-0.142
-0.005,-0.144
-0.009,-0.147
-0.018,-0.152
-0.003,-0.150
0.008,-0.157
0.023,-0.157
0.027,-0.157
0.032,-0.160
0.035,-0.156
0.043,-0.154
0.045,-0.150
0.037,-0.145
0.038,-0.141
0.040,-0.143
0.049,-0.146
0.059,-0.147
0.073,-0.154
0.071,-0.154
0.059,-0.158
0.040,-0.162
0.025,-0.163
0.018,-0.165
0.022,-0.165
0.039,-0.166
0.036,-0.162
-0.015,-0.167
-0.065,-0.162
-0.108,-0.154
-0.130,-0.137
-0.062,-0.132
0.069,-0.133
0.148,-0.153
0.139,-0.176
0.081,-0.198
0.051,-0.197
0.034,-0.193
0.032,-0.187
0.020,-0.181
0.017,-0.180
0.017,-0.181
0.022,-0.184
0.025,-0.182
0.028,-0.185
0.030,-0.182
0.031,-0.182
0.029,-0.181
0.030,-0.180
0.026,-0.178
0.039,-0.177
0.044,-0.172
0.043,-0.172
0.023,-0.162
-0.003,-0.150
-0.037,-0.135
-0.074,-0.124
-0.064,-0.117
-0.007,-0.119
0.048,-0.123
0.071,-0.124
0.097,-0.117
0.108,-0.104
0.094,-0.087
0.057,-0.057
0.024,-0.037
0.023,-0.019
0.068,-0.011
0.134,-0.005
0.160,-0.000
0.087,0.011
-0.015,0.036
-0.040,0.054
0.039,0.062
0.103,0.059
0.073,0.058
0.011,0.063
-0.019,0.071
-0.016,0.083
0.013,0.095
0.031,0.102
0.045,0.108
0.050,0.117
0.056,0.129
0.062,0.142
0.062,0.153
0.060,0.162
0.056,0.164
0.054,0.168
0.054,0.170
0.051,0.175
0.049,0.181
0.049,0.186
0.049,0.187
0.055,0.192
0.049,0.197
0.040,0.208
0.020,0.210
0.008,0.212
0.017,0.211
0.038,0.209
0.060,0.216
0.089,0.217
0.114,0.223
0.107,0.232
0.083,0.239
0.062,0.252
0.054,0.253
0.056,0.253
0.057,0.251
0.058,0.246
0.061,0.244
0.064,0.241
0.073,0.238
0.072,0.239
0.070,0.240
0.066,0.245
0.067,0.249
0.069,0.249
0.064,0.257
0.058,0.262
0.053,0.274
0.050,0.280
0.052,0.293
0.051,0.302
0.054,0.296
0.049,0.268
0.050,0.245
0.049,0.247
0.051,0.252
0.054,0.260
0.066,0.262
0.079,0.265
0.088,0.261
0.093,0.258
0.088,0.258
0.091,0.256
0.095,0.258
0.107,0.256
0.114,0.248
0.112,0.243
0.100,0.248
0.075,0.264
0.038,0.277
0.001,0.293
-0.001,0.300
0.051,0.294
0.085,0.274
0.063,0.247
0.004,0.235
-0.080,0.229
-0.153,0.238
-0.156,0.255
-0.027,0.266
0.123,0.268
0.183,0.263
0.157,0.266
0.122,0.272
0.107,0.267
0.119,0.233
0.128,0.192
0.123,0.282
0.103,0.422
0.088,0.511
0.069,0.479
0.050,0.344
0.030,0.239
0.012,0.206
0.003,0.212
0.004,0.221
0.004,0.257
0.017,0.268
0.038,0.212
0.057,0.126
0.062,0.064
0.062,0.074
0.058,0.115
0.061,0.156
0.067,0.175
0.078,0.164
0.097,0.132
0.101,0.126
0.076,0.181
0.018,0.240
-0.056,0.274
-0.113,0.296
-0.112,0.300
-0.039,0.276
0.088,0.234
0.190,0.180
0.225,0.134
0.200,0.106
0.162,0.106
0.134,0.117
0.109,0.138
0.091,0.145
0.089,0.152
0.088,0.148
0.088,0.151
0.079,0.149
0.073,0.143
0.069,0.144
0.071,0.140
0.065,0.138
0.077,0.135
0.090,0.138
0.094,0.141
0.083,0.145
0.082,0.149
0.088,0.149
0.081,0.144
0.076,0.149
0.068,0.143
0.062,0.143
0.062,0.145
0.066,0.146
0.064,0.128
0.068,0.108
0.067,0.101
0.072,0.108
0.068,0.110
0.069,0.098
0.069,0.099
0.071,0.103
0.075,0.109
0.073,0.117
0.071,0.137
0.066,0.155
0.060,0.177
0.059,0.172
0.051,0.138
0.051,0.069
0.045,-0.012
0.049,-0.029
0.053,0.002
0.059,0.017
0.071,0.034
0.076,0.046
0.078,0.058
0.079,0.061
0.077,0.063
0.076,0.062
0.074,0.064
0.072,0.065
0.066,0.065
0.061,0.057
0.058,0.052
0.053,0.046
0.057,0.047
0.059,0.042
0.063,0.042
0.063,0.049
0.068,0.052
0.070,0.057
0.070,0.063
0.075,0.063
0.071,0.051
0.058,0.031
0.041,0.029
0.013,0.035
-0.018,0.049
-0.032,0.061
-0.003,0.060
0.044,0.057
0.071,0.046
0.067,0.047
0.049,0.042
0.050,0.043
0.060,0.043
0.071,0.047
0.068,0.051
0.064,0.025
0.055,-0.003
0.046,0.056
0.041,0.161
0.048,0.244
0.063,0.289
0.075,0.285
0.068,0.217
0.054,0.116
0.032,0.030
0.022,-0.052
0.025,-0.117
0.043,-0.150
0.053,-0.128
0.062,-0.078
0.066,-0.022
0.069,0.018
0.066,0.048
0.061,0.079
0.057,0.091
0.058,0.088
0.056,0.076
0.059,0.059
0.058,0.052
0.056,0.046
0.054,0.047
0.057,0.053
0.062,0.051
0.063,0.054
0.063,0.054
0.062,0.058
0.062,0.058
0.053,0.060
0.043,0.065
0.037,0.064
0.034,0.064
0.036,0.058
0.042,0.060
0.043,0.056
0.047,0.056
0.047,0.053
0.050,0.051
0.048,0.052
0.052,0.050
0.053,0.048
0.054,0.045
0.053,0.048
0.057,0.052
0.056,0.051
0.048,0.050
0.046,0.054
0.044,0.053
0.041,0.055
0.040,0.057
0.041,0.060
0.039,0.060
0.045,0.057
0.046,0.058
0.051,0.057
0.051,0.055
0.055,0.052
0.052,0.051
0.052,0.050
0.049,0.050
0.049,0.048
0.049,0.048
0.048,0.052
0.046,0.052
0.046,0.054
0.045,0.050
0.047,0.052
0.046,0.051
0.050,0.052
0.049,0.052
0.052,0.048
0.050,0.051
0.051,0.050
0.047,0.049
0.046,0.044
0.045,0.047
0.040,0.048
0.040,0.046
0.038,0.049
0.044,0.044
0.053,0.046
0.061,0.045
0.065,0.042
0.064,0.043
0.063,0.039
0.062,0.039
0.056,0.036
0.046,0.041
0.038,0.043
0.044,0.044
0.044,0.043
0.050,0.037
0.044,0.033
0.032,0.029
0.010,0.031
-0.004,0.035
-0.003,0.035
0.018,0.038
0.049,0.039
0.078,0.046
0.086,0.046
0.084,0.043
0.073,0.034
0.064,0.032
0.057,0.043
0.051,0.053
0.044,0.074
0.043,0.076
0.050,0.058
0.062,0.000
0.059,-0.036
0.049,-0.039
0.043,-0.027
0.033,-0.019
0.029,-0.009
0.024,-0.006
0.031,-0.009
0.032,-0.003
0.042,-0.001
0.052,0.008
0.060,0.006
0.070,0.007
0.075,0.002
0.074,0.002
0.071,0.006
0.061,0.003
0.060,0.007
0.046,0.003
0.045,0.006
0.039,0.012
0.042,0.011
0.040,0.011
0.047,0.004
0.052,0.002
0.054,-0.003
0.055,-0.007
0.052,-0.005
0.058,-0.010
0.060,-0.011
0.061,-0.011
0.057,-0.008
0.054,-0.002
0.049,-0.002
0.047,0.002
0.044,0.002
0.048,-0.000
0.049,-0.002
0.049,-0.003
0.048,-0.001
0.046,-0.005
0.045,-0.008
0.047,-0.009
0.048,-0.012
0.049,-0.009
0.048,-0.008
0.044,-0.002
0.040,0.001
0.034,0.011
0.032,0.019
0.038,0.034
0.044,0.036
0.056,0.021
0.063,0.001
0.063,-0.009
0.055,-0.005
0.047,0.002
0.034,0.013
0.023,0.005
0.022,-0.012
0.033,-0.020
0.047,-0.022
0.049,-0.019
0.050,-0.006
0.048,0.003
0.048,0.007
0.049,0.007
0.049,0.010
0.048,0.009
0.047,0.011
0.046,0.007
0.049,0.011
0.046,0.010
0.049,0.011
0.048,0.010
0.047,0.012
0.044,0.015
0.043,0.014
0.039,0.023
0.039,0.023
0.036,0.030
0.036,0.029
0.034,0.034
0.036,0.037
0.035,0.048
0.036,0.056
0.043,0.056
0.041,0.047
0.043,0.030
0.043,0.011
0.049,-0.018
0.051,-0.064
0.055,-0.046
0.049,0.038
0.046,0.110
0.035,0.151
0.023,0.141
0.016,0.101
0.022,0.043
0.032,0.003
0.043,-0.001
0.057,0.008
0.062,0.019
0.056,0.017
0.053,0.018
0.047,0.011
0.049,0.010
0.045,0.011
0.050,0.017
0.051,0.024
0.054,0.025
0.053,0.032
0.050,0.037
0.048,0.041
0.046,0.045
0.049,0.045
0.050,0.044
0.051,0.041
0.054,0.041
0.055,0.038
0.050,0.037
0.038,0.038
0.024,0.036
0.007,0.034
-0.014,0.036
-0.017,0.044
0.013,0.044
0.058,0.045
0.080,0.046
0.081,0.044
0.071,0.040
0.062,0.040
0.055,0.037
0.047,0.040
0.041,0.036
0.038,0.039
0.035,0.036
0.036,0.034
0.037,0.033
0.048,0.034
0.050,0.037
0.056,0.033
0.055,0.032
0.052,0.029
0.056,0.028
0.051,0.026
0.051,0.024
0.047,0.026
0.044,0.023
0.041,0.025
0.038,0.023
0.039,0.023
0.043,0.027
0.048,0.027
0.044,0.030
0.038,0.031
0.030,0.033
0.026,0.031
0.040,0.029
0.059,0.025
0.073,0.022
0.069,0.019
0.060,0.016
0.049,0.017
0.040,0.009
0.033,0.001
0.028,-0.005
0.031,-0.003
0.046,-0.001
0.063,0.003
0.072,0.010
0.074,0.010
0.063,0.011
0.061,0.017
0.050,0.015
0.044,0.017
0.036,0.016
0.037,0.011
0.035,0.008
0.042,0.008
0.050,0.013
0.053,0.004
0.058,-0.022
0.060,-0.033
0.059,-0.040
0.061,-0.039
0.056,-0.035
0.059,-0.023
0.055,-0.004
0.053,0.005
0.047,0.012
0.047,0.008
0.046,0.007
0.048,0.002
0.051,0.004
0.049,0.004
0.052,-0.002
0.050,0.006
0.050,0.013
0.053,0.024
0.054,0.033
0.052,0.035
0.048,0.026
0.047,-0.002
0.044,-0.022
0.034,-0.031
0.035,-0.025
0.040,-0.016
0.049,-0.004
0.052,-0.016
0.059,-0.064
0.057,-0.063
0.053,0.007
0.043,0.079
0.033,0.126
0.028,0.129
0.022,0.075
0.026,-0.003
0.038,-0.058
0.048,-0.071
0.052,-0.059
0.050,-0.038
0.050,-0.025
0.045,-0.014
0.043,-0.004
0.046,-0.002
0.044,0.000
0.046,0.003
0.046,0.006
0.044,0.003
0.044,0.007
0.044,0.009
0.043,0.007
0.039,0.007
0.038,0.007
0.036,0.017
0.036,0.016
0.038,0.016
0.046,0.016
0.063,0.018
0.068,0.016
0.065,0.016
0.049,0.013
0.035,0.011
0.018,0.011
0.005,0.017
0.000,0.023
0.010,0.029
0.030,0.036
0.047,0.036
0.053,0.034
0.048,0.027
0.047,0.023
0.042,0.022
0.041,0.023
0.037,0.023
0.041,0.026
0.042,0.028
0.045,0.031
0.041,0.026
0.042,0.032
0.040,0.033
0.042,0.037
0.037,0.038
0.042,0.038
0.042,0.040
0.045,0.040
0.045,0.038
0.046,0.041
0.048,0.039
0.048,0.038
0.045,0.036
0.042,0.036
0.036,0.036
0.033,0.034
0.025,0.039
0.021,0.041
0.020,0.047
0.011,0.051
0.013,0.060
0.022,0.065
0.042,0.072
0.052,0.074
0.062,0.071
0.060,0.073
0.059,0.058
0.054,0.043
0.047,0.040
0.047,0.034
0.046,0.027
0.046,0.011
0.047,0.009
0.046,0.012
0.048,0.024
0.043,0.035
0.039,0.043
0.036,0.044
0.040,0.041
0.040,0.043
0.041,0.040
0.036,0.042
0.036,0.045
0.036,0.043
0.034,0.041
0.032,0.039
0.039,0.035
0.045,0.031
0.054,0.029
0.053,0.031
0.055,0.029
0.050,0.032
0.047,0.030
0.049,0.028
0.047,0.023
0.046,0.025
0.046,0.028
0.047,0.028
0.049,0.028
0.050,0.025
0.050,0.023
0.049,0.024
0.043,0.022
0.039,0.024
0.040,0.024
0.044,0.025
0.054,0.022
0.071,0.022
0.070,0.015
0.059,0.014
0.040,0.010
0.024,0.011
0.012,0.012
0.016,0.014
0.027,0.019
0.048,0.016
0.065,0.014
0.076,0.007
0.063,0.005
0.034,0.006
0.007,0.008
-0.022,0.009
-0.008,0.012
0.037,0.012
0.082,0.009
0.091,0.011
0.082,0.010
0.063,0.008
0.054,0.005
0.050,0.002
0.051,0.001
0.053,-0.001
0.052,-0.001
0.051,-0.005
0.053,-0.004
0.053,-0.008
0.050,-0.005
0.045,-0.004
0.051,-0.006
0.056,-0.006
0.059,-0.004
0.062,0.001
0.060,0.004
0.048,0.005
0.040,0.006
0.031,0.007
0.028,0.005
0.025,-0.000
0.029,-0.001
0.034,0.000
0.044,-0.003
0.049,0.000
0.053,-0.003
0.054,-0.003
0.049,-0.005
0.049,-0.006
0.044,-0.002
0.042,-0.004
0.036,0.001
0.040,0.001
0.043,0.005
0.042,0.003
0.043,0.003
0.045,0.010
0.047,0.010
0.043,0.020
0.042,0.018
0.045,0.025
0.044,0.035
0.046,0.056
0.043,0.073
0.045,0.058
0.046,0.036
0.048,0.009
0.048,-0.013
0.050,-0.029
0.046,-0.042
0.044,-0.045
0.042,-0.037
0.037,-0.026
0.035,-0.017
0.035,-0.011
0.033,-0.005
0.029,-0.001
0.029,0.009
0.035,0.011
0.046,0.013
0.058,0.014
0.055,0.014
0.049,0.014
0.043,0.014
0.041,0.016
0.041,0.017
0.041,0.013
0.046,0.015
0.043,0.015
0.046,0.019
0.044,0.017
0.047,0.021
0.045,0.024
0.041,0.024
0.040,0.034
0.032,0.031
0.023,0.037
0.018,0.037
0.018,0.040
0.023,0.038
0.050,0.034
0.066,0.026
0.075,0.023
0.065,0.025
0.047,0.024
0.035,0.028
0.032,0.029
0.047,0.029
0.062,0.033
0.069,0.039
0.066,0.047
0.061,0.045
0.055,0.047
0.049,0.042
0.046,0.043
0.038,0.044
0.031,0.046
0.024,0.051
0.030,0.049
0.035,0.050
0.042,0.045
0.049,0.046
0.052,0.043
0.052,0.041
0.048,0.045
0.047,0.044
0.042,0.042
0.045,0.038
0.045,0.039
0.047,0.040
0.042,0.042
0.042,0.046
0.040,0.045
0.041,0.044
0.041,0.041
0.045,0.041
0.043,0.038
0.038,0.038
0.039,0.038
0.036,0.041
0.035,0.036
0.038,0.035
0.043,0.033
0.053,0.033
0.057,0.027
0.059,0.023
0.057,0.022
0.058,0.026
0.053,0.033
0.052,0.039
0.049,0.045
0.043,0.041
0.041,0.041
0.039,0.034
0.039,0.031
0.036,0.032
0.036,0.032
0.034,0.035
0.036,0.034
0.036,0.033
0.037,0.026
0.040,0.019
0.046,0.015
0.050,0.012
0.054,0.016
0.060,0.015
0.066,0.019
0.063,0.013
0.047,0.017
0.027,0.015
0.010,0.017
-0.001,0.017
0.015,0.021
0.048,0.017
0.077,0.019
0.083,0.014
0.075,0.009
0.061,0.003
0.056,-0.002
0.052,0.007
0.058,0.008
0.068,0.010
0.068,0.007
0.054,0.005
0.029,0.007
0.010,0.011
-0.014,0.020
-0.020,0.030
0.003,0.029
0.050,-0.012
0.080,-0.057
0.078,-0.005
0.062,0.070
0.049,0.100
0.037,0.093
0.032,0.063
0.029,0.010
0.033,-0.044
0.037,-0.067
0.044,-0.062
0.046,-0.047
0.047,-0.034
0.048,-0.024
0.047,-0.015
0.047,-0.012
0.044,-0.007
0.050,-0.011
0.053,-0.010
0.049,-0.015
0.051,-0.013
0.047,-0.014
0.047,-0.014
0.043,-0.014
0.046,-0.014
0.047,-0.014
0.046,-0.015
0.041,-0.015
0.035,-0.005
0.030,0.008
0.028,0.023
0.021,0.029
0.019,0.027
0.024,0.034
0.041,0.035
0.057,0.041
0.062,0.041
0.057,0.030
0.046,0.001
0.042,-0.027
0.037,-0.049
0.037,-0.054
0.031,-0.040
0.034,-0.021
0.038,-0.004
0.046,0.002
0.052,0.004
0.054,0.005
0.050,0.001
0.045,0.003
0.041,-0.001
0.031,0.005
0.024,0.004
0.029,0.009
0.043,0.012
0.058,0.016
0.059,0.018
0.053,0.019
0.045,0.021
0.043,0.018
0.041,0.017
0.041,0.016
0.038,0.020
0.038,0.018
0.040,0.019
0.042,0.016
0.047,0.019
0.050,0.019
0.053,0.021
0.054,0.019
0.059,0.020
0.054,0.024
0.049,0.026
0.041,0.033
0.033,0.029
0.023,0.035
0.018,0.037
0.023,0.040
0.033,0.039
0.045,0.036
0.053,0.033
0.051,0.025
0.048,0.027
0.048,0.022
0.047,0.023
0.043,0.026
0.044,0.032
0.039,0.038
0.040,0.043
0.037,0.049
0.043,0.046
0.085,0.056
0.091,0.056
0.093,0.058
0.088,0.041
0.089,-0.010
0.087,-0.002
0.088,0.066
0.080,0.135
0.055,0.176
0.031,0.174
-0.036,0.113
-0.055,0.044
-0.049,-0.012
-0.002,-0.045
0.050,-0.054
0.075,-0.040
0.074,-0.024
0.063,-0.006
0.052,0.011
0.047,0.026
0.038,0.039
0.032,0.050
0.023,0.053
0.015,0.054
0.018,0.057
0.034,0.053
0.046,0.052
0.053,0.043
0.049,0.044
0.044,0.040
0.040,0.036
0.039,0.035
0.049,0.031
0.060,0.030
0.058,0.028
0.049,0.030
0.034,0.036
0.034,0.037
0.041,0.038
0.047,0.034
0.052,0.031
0.049,0.026
0.048,0.024
0.042,0.028
0.040,0.027
0.037,0.029
0.039,0.027
0.043,0.028
0.044,0.028
0.043,0.026
0.044,0.027
0.041,0.023
0.039,0.023
0.041,0.022
0.042,0.022
0.046,0.019
0.047,0.018
0.048,0.016
0.047,0.016
0.049,0.015
0.049,0.016
0.047,0.015
0.047,0.013
0.047,0.014
0.048,0.009
0.050,0.007
0.051,0.004
0.054,0.004
0.054,-0.002
0.055,-0.001
0.055,-0.001
0.053,-0.002
0.047,0.002
0.047,0.004
0.048,0.006
0.048,0.007
0.050,0.010
0.052,0.008
0.050,0.004
0.049,0.008
0.044,0.006
0.044,0.003
0.033,-0.000
0.032,-0.003
0.034,-0.006
0.038,-0.011
0.043,-0.009
0.049,-0.012
0.058,-0.013
0.060,-0.015
0.062,-0.011
0.061,-0.004
0.058,-0.003
0.050,0.003
0.046,0.010
0.041,0.013
0.041,0.007
0.043,-0.000
0.044,0.005
0.043,0.006
0.044,0.023
0.039,0.028
0.024,0.023
0.008,0.003
0.004,-0.013
0.024,-0.021
0.053,-0.027
0.070,-0.026
0.065,-0.017
0.052,-0.009
0.044,-0.002
0.040,-0.003
0.045,-0.000
0.042,-0.003
0.045,0.006
0.039,0.020
0.042,0.025
0.049,0.016
0.056,-0.008
0.051,-0.020
0.037,-0.031
0.021,-0.023
-0.002,-0.015
-0.022,-0.003
-0.021,0.011
0.020,0.015
0.058,0.020
0.078,0.018
0.071,0.020
0.059,0.016
0.046,0.011
0.044,0.011
0.047,0.006
0.053,0.010
0.056,0.009
0.060,0.014
0.058,0.015
0.055,0.019
0.049,0.019
0.044,0.025
0.037,0.026
0.036,0.031
0.030,0.031
0.032,0.034
0.033,0.032
0.036,0.026
0.038,0.026
0.041,0.025
0.048,0.026
0.050,0.022
0.050,0.025
0.052,0.023
0.051,0.026
0.050,0.024
0.049,0.025
0.043,0.029
0.037,0.034
0.024,0.041
0.010,0.045
0.002,0.052
0.011,0.042
0.032,-0.002
0.054,-0.035
0.063,0.021
0.060,0.095
0.053,0.134
0.043,0.146
0.032,0.113
0.030,0.055
0.023,0.004
0.019,-0.013
0.020,-0.002
0.030,0.009
0.042,0.023
0.049,0.040
0.055,0.055
0.051,0.063
0.053,0.070
0.057,0.066
0.066,0.049
0.057,0.028
0.047,0.015
0.036,0.011
0.030,0.013
0.036,0.018
0.041,0.028
0.046,0.032
0.050,0.036
0.053,0.032
0.055,0.034
0.052,0.031
0.050,0.034
0.047,0.036
0.047,0.038
0.043,0.038
0.045,0.037
0.046,0.038
0.048,0.042
0.048,0.037
0.047,0.040
0.045,0.036
0.048,0.036
0.049,0.034
0.051,0.034
0.048,0.034
0.046,0.032
0.044,0.039
0.036,0.038
0.036,0.039
0.031,0.033
0.031,0.031
0.030,0.032
0.035,0.030
0.042,0.029
0.051,0.026
0.055,0.030
0.054,0.030
0.052,0.034
0.049,0.037
0.049,0.042
0.050,0.045
0.051,0.032
0.052,0.012
0.051,-0.007
0.051,-0.013
0.050,-0.015
0.053,-0.012
0.050,-0.011
0.052,-0.007
0.050,-0.002
0.047,-0.001
0.045,0.010
0.048,0.022
0.044,0.044
0.040,0.050
0.040,0.037
0.037,0.005
0.036,-0.009
0.032,-0.018
0.043,-0.011
0.055,-0.005
0.070,-0.003
0.065,-0.000
0.058,-0.004
0.052,-0.003
0.049,-0.003
0.047,-0.005
0.046,-0.003
0.043,-0.004
0.046,-0.002
0.045,-0.003
0.044,0.000
0.049,-0.000
0.054,0.001
0.054,0.001
0.056,0.002
0.055,-0.002
0.050,-0.003
0.047,-0.007
0.045,-0.005
0.032,-0.011
0.013,-0.011
-0.003,-0.007
-0.011,-0.003
-0.017,0.002
-0.002,0.006
0.038,0.012
0.081,0.012
0.109,0.013
0.099,0.005
0.087,-0.003
0.069,-0.005
0.060,-0.007
0.049,-0.002
0.048,-0.002
0.045,-0.001
0.049,-0.007
0.052,-0.003
0.054,0.001
0.052,-0.001
0.046,0.003
0.039,0.007
0.032,0.009
0.022,0.013
0.013,0.017
0.004,0.024
0.015,0.023
0.037,0.025
0.058,0.018
0.065,0.014
0.062,0.014
0.056,0.015
0.053,0.020
0.049,0.018
0.051,0.020
0.051,0.014
0.050,0.002
0.047,-0.008
0.045,-0.010
0.041,-0.004
0.040,0.003
0.036,0.017
0.039,0.018
0.041,0.020
0.046,0.016
0.049,0.019
0.044,0.021
0.040,0.029
0.024,0.033
0.020,0.030
0.014,0.024
0.024,0.021
0.030,0.019
0.033,0.021
0.036,0.025
0.040,0.024
0.051,0.031
0.056,0.038
0.047,0.049
0.033,0.055
0.023,0.060
0.017,0.052
0.002,0.034
-0.003,0.020
0.017,0.014
0.063,0.023
0.083,0.036
0.083,0.047
0.065,0.051
0.056,0.049
0.048,0.049
0.049,0.043
0.039,0.043
0.040,0.040
0.039,0.039
0.040,0.032
0.043,0.029
0.040,0.029
0.044,0.026
0.044,0.029
0.044,0.028
0.041,0.030
0.039,0.028
0.038,0.030
0.034,0.034
0.032,0.034
0.036,0.034
0.049,0.032
0.063,0.035
0.060,0.034
0.048,0.035
0.034,0.038
0.030,0.041
0.032,0.043
0.043,0.041
0.049,0.039
0.052,0.036
0.049,0.036
0.046,0.038
0.042,0.036
0.041,0.034
0.043,0.032
0.048,0.031
0.049,0.034
0.050,0.036
0.050,0.039
0.049,0.037
0.049,0.040
0.042,0.039
0.041,0.041
0.035,0.049
0.039,0.036
0.038,0.013
0.044,-0.007
0.049,-0.011
0.049,-0.011
0.048,0.004
0.046,0.023
0.044,0.025
0.038,0.028
0.034,0.034
0.041,0.040
0.042,0.038
0.047,0.036
0.049,0.034
0.053,0.028
0.054,0.023
0.058,0.022
0.055,0.021
0.054,0.023
0.046,0.018
0.047,0.014
0.053,0.010
0.060,0.004
0.062,0.007
0.055,0.005
0.044,0.005
0.034,0.012
0.023,0.017
0.016,0.030
0.020,0.036
0.032,0.032
0.051,0.019
0.058,0.016
0.057,0.016
0.050,-0.013
0.046,-0.051
0.039,-0.023
0.020,0.053
-0.004,0.101
-0.026,0.112
-0.048,0.089
-0.023,0.041
0.031,-0.017
0.088,-0.064
0.103,-0.090
0.090,-0.092
0.073,-0.074
0.061,-0.047
0.052,-0.025
0.049,0.002
0.050,0.012
0.051,0.008
0.051,-0.003
0.052,-0.008
0.049,-0.004
0.052,-0.004
0.047,0.001
0.048,0.001
0.046,0.006
0.045,0.004
0.037,-0.000
0.033,-0.001
0.036,-0.006
0.035,-0.009
0.042,-0.013
0.046,-0.013
0.045,-0.014
0.045,-0.010
0.046,-0.005
0.042,-0.002
0.041,0.001
0.041,0.002
0.041,0.007
0.043,0.009
0.044,0.012
0.042,0.012
0.047,0.009
0.049,0.004
0.050,-0.002
0.053,-0.002
0.052,0.000
0.045,0.006
0.040,0.014
0.031,0.017
0.032,0.016
0.037,0.014
0.042,0.013
0.044,0.011
0.044,0.011
0.043,0.015
0.044,0.010
0.044,0.010
0.043,0.007
0.049,0.007
0.046,0.006
0.047,0.008
0.046,0.011
0.045,0.013
0.047,0.015
0.048,0.012
0.051,0.015
0.049,0.015
0.050,0.018
0.050,0.019
0.043,0.021
0.035,0.022
0.022,0.026
0.016,0.027
0.016,0.029
0.016,0.028
0.026,0.034
0.035,0.036
0.044,0.037
0.053,0.039
0.051,0.035
0.049,0.039
0.044,0.038
0.042,0.039
0.043,0.038
0.045,0.042
0.045,0.041
0.043,0.040
0.041,0.044
0.040,0.041
0.043,0.045
0.041,0.038
0.043,0.042
0.044,0.041
0.048,0.046
0.042,0.050
0.041,0.051
0.040,0.050
0.043,0.048
0.043,0.049
0.041,0.048
0.037,0.045
0.036,0.046
0.033,0.044
0.039,0.045
0.039,0.047
0.042,0.044
0.043,0.044
0.042,0.039
0.042,0.041
0.044,0.040
0.045,0.038
0.045,0.038
0.048,0.039
0.047,0.038
0.046,0.036
0.039,0.039
0.038,0.038
0.032,0.039
0.029,0.039
0.031,0.044
0.033,0.044
0.037,0.044
0.045,0.045
0.056,0.039
0.063,0.037
0.061,0.030
0.062,0.028
0.057,0.028
0.051,0.032
0.044,0.035
0.039,0.037
0.038,0.038
0.039,0.034
0.038,0.032
0.039,0.033
0.045,0.027
0.047,0.027
0.048,0.024
0.055,0.025
0.055,0.028
0.057,0.026
0.054,0.029
0.051,0.025
0.046,0.026
0.038,0.023
0.032,0.029
0.022,0.029
0.021,0.034
0.017,0.033
0.029,0.028
0.045,0.029
0.061,0.021
0.058,0.019
0.049,0.015
0.043,0.014
0.035,0.007
0.038,0.007
0.041,0.008
0.048,0.011
0.052,0.010
0.054,0.008
0.052,0.012
0.050,0.009
0.050,0.008
0.048,0.006
0.054,0.004
0.052,-0.000
0.055,-0.002
0.055,0.004
0.056,-0.002
0.058,0.000
0.057,-0.002
0.061,-0.004
0.051,-0.002
0.048,-0.002
0.044,-0.001
0.042,-0.002
0.042,-0.000
0.051,0.002
0.061,0.003
0.067,0.003
0.067,-0.002
0.060,-0.004
0.056,-0.003
0.052,-0.003
0.043,-0.000
0.036,0.001
0.032,0.003
0.036,0.004
0.047,0.001
0.056,-0.003
0.060,-0.003
0.055,-0.003
0.048,-0.006
0.035,-0.004
0.019,-0.005
0.009,0.003
0.010,0.004
0.025,0.010
0.049,0.016
0.067,0.014
0.066,0.011
0.065,0.007
0.059,0.006
0.053,0.004
0.047,0.003
0.046,0.007
0.045,0.004
0.043,0.003
0.047,-0.002
0.045,-0.002
0.043,-0.003
0.035,0.001
0.027,0.007
0.028,0.011
0.043,0.011
0.054,0.011
0.058,0.010
0.057,0.007
0.053,0.007
0.047,0.008
0.050,0.012
0.049,0.011
0.049,0.012
0.054,0.010
0.050,0.012
0.045,0.010
0.036,0.013
0.031,0.015
0.028,0.020
0.026,0.017
0.032,0.022
0.045,0.021
0.055,0.021
0.059,0.024
0.054,0.023
0.044,0.026
0.045,0.027
0.047,0.026
0.046,0.027
0.047,0.029
0.049,0.030
0.058,0.028
0.063,0.025
0.053,0.025
0.036,0.024
0.013,0.025
-0.011,0.030
-0.023,0.040
-0.010,0.045
0.036,0.045
0.071,0.043
0.081,0.042
0.065,0.040
0.051,0.038
0.045,0.037
0.044,0.039
0.045,0.039
0.046,0.042
0.046,0.040
0.043,0.040
0.040,0.040
0.040,0.041
0.038,0.042
0.041,0.043
0.040,0.045
0.039,0.043
0.042,0.045
0.042,0.045
0.050,0.044
0.048,0.041
0.053,0.040
0.046,0.039
0.042,0.037
0.033,0.037
0.027,0.036
0.020,0.038
0.011,0.040
0.015,0.046
0.031,0.048
0.044,0.049
0.043,0.047
0.043,0.047
0.050,0.046
0.055,0.043
0.058,0.040
0.056,0.043
0.051,0.043
0.047,0.042
0.045,0.041
0.046,0.038
0.046,0.038
0.041,0.036
0.044,0.038
0.042,0.037
0.048,0.036
0.046,0.033
0.049,0.030
0.050,0.033
0.049,0.031
0.047,0.030
0.047,0.026
0.049,0.024
0.046,0.025
0.047,0.028
0.044,0.037
0.047,0.036
0.046,0.034
0.044,0.040
0.049,0.049
0.047,0.058
0.049,0.063
0.048,0.065
0.046,0.050
0.048,0.034
0.045,0.002
0.041,-0.018
0.039,-0.017
0.041,-0.015
0.043,-0.009
0.045,-0.003
0.048,-0.001
0.052,-0.005
0.055,-0.004
0.062,-0.003
0.066,0.001
0.066,0.004
0.061,0.009
0.055,0.013
0.044,0.016
0.032,0.017
0.022,0.018
0.010,0.019
0.012,0.017
0.031,0.012
0.055,0.004
0.065,-0.002
0.066,-0.005
0.060,-0.009
0.054,-0.009
0.052,-0.007
0.051,-0.004
0.051,-0.001
0.049,0.000
0.049,0.002
0.045,0.004
0.042,-0.000
0.040,-0.004
0.040,-0.005
0.041,-0.007
0.039,-0.007
0.038,-0.007
0.039,-0.003
0.038,0.000
0.040,0.001
0.045,0.002
0.052,0.001
0.065,-0.001
0.077,-0.004
0.075,-0.007
0.067,-0.003
0.056,-0.007
0.049,-0.007
0.040,-0.007
0.040,-0.004
0.028,-0.004
0.025,-0.003
0.023,0.001
0.040,-0.002
0.049,0.000
0.057,-0.002
0.058,0.005
0.054,0.010
0.051,0.013
0.049,0.012
0.046,0.009
0.047,0.005
0.052,0.004
0.053,0.001
0.052,0.002
0.040,0.001
0.022,0.001
0.006,0.001
-0.010,0.008
-0.022,0.007
0.004,0.007
0.042,0.004
0.062,0.005
0.053,0.009
0.048,0.010
0.046,0.019
0.048,0.020
0.052,0.022
0.058,0.018
0.062,0.017
0.059,0.016
0.048,0.013
0.042,0.017
0.047,0.019
0.054,0.022
0.059,0.024
0.057,0.025
0.052,0.027
0.045,0.029
0.040,0.029
0.039,0.030
0.039,0.024
0.044,0.024
0.047,0.025
0.049,0.025
0.048,0.029
0.045,0.029
0.042,0.035
0.043,0.032
0.044,0.035
0.046,0.035
0.049,0.036
0.048,0.035
0.043,0.036
0.039,0.038
0.042,0.036
0.041,0.035
0.045,0.031
0.047,0.034
0.047,0.029
0.043,0.031
0.040,0.033
0.041,0.036
0.039,0.038
0.040,0.037
0.041,0.036
0.043,0.038
0.041,0.039
0.040,0.037
0.043,0.036
0.044,0.037
0.042,0.036
0.048,0.036
0.048,0.040
0.052,0.047
0.052,0.048
0.051,0.045
0.045,0.052
0.041,0.059
0.041,0.069
0.039,0.075
0.039,0.067
0.042,0.052
0.044,0.029
0.048,0.016
0.048,0.013
0.050,0.017
0.044,0.024
0.045,0.027
0.039,0.036
0.040,0.035
0.040,0.037
0.039,0.033
0.042,0.036
0.044,0.037
0.047,0.036
0.048,0.036
0.051,0.032
0.051,0.032
0.050,0.030
0.050,0.032
0.049,0.033
0.050,0.032
0.050,0.032
0.054,0.028
0.057,0.029
0.056,0.024
0.054,0.023
0.050,0.024
0.048,0.022
0.045,0.021
0.043,0.017
0.041,0.019
0.047,0.017
0.053,0.020
0.054,0.017
0.055,0.017
0.059,0.015
0.061,0.012
0.058,0.014
0.055,0.013
0.048,0.016
0.044,0.015
0.045,0.014
0.049,0.012
0.054,0.011
0.053,0.008
0.057,0.010
0.054,0.010
0.053,0.006
0.050,0.010
0.049,0.006
0.051,0.004
0.052,0.000
0.057,0.000
0.054,-0.002
0.052,0.001
0.047,0.003
0.047,-0.001
0.051,0.000
0.052,-0.001
0.054,-0.002
0.053,0.000
0.056,-0.002
0.056,0.000
0.053,0.000
0.056,-0.003
0.049,-0.002
0.048,-0.002
0.046,-0.001
0.045,-0.003
0.041,-0.003
0.040,-0.003
0.042,-0.001
0.037,0.004
0.039,0.003
0.036,0.005
0.042,0.001
0.052,0.002
0.055,-0.004
0.056,-0.007
0.054,-0.003
0.053,-0.003
0.048,-0.002
0.049,-0.005
0.054,-0.003
0.050,-0.007
0.052,-0.004
0.048,-0.002
0.051,-0.003
0.046,-0.001
0.048,-0.002
0.050,-0.001
0.049,-0.002
0.052,-0.002
0.049,0.004
0.050,0.001
0.049,0.003
0.051,-0.001
0.047,0.003
0.048,0.001
0.045,0.003
0.046,0.007
0.042,0.005
0.043,0.010
0.041,0.009
0.049,0.007
0.045,0.007
0.047,0.008
0.045,0.012
0.045,0.011
0.045,0.009
0.046,0.011
0.051,0.009
0.051,0.011
0.047,0.008
0.046,0.011
0.041,0.009
0.039,0.014
0.031,0.014
0.030,0.017
0.028,0.019
0.031,0.025
0.038,0.025
0.043,0.029
0.050,0.030
0.048,0.031
0.050,0.030
0.050,0.032
0.049,0.031
0.049,0.031
0.047,0.029
0.045,0.029
0.044,0.035
0.043,0.032
0.042,0.035
0.044,0.033
0.046,0.037
0.043,0.032
0.046,0.034
0.045,0.036
0.047,0.036
0.045,0.037
0.050,0.037
0.051,0.035
0.052,0.031
0.050,0.035
0.047,0.036
0.044,0.038
0.039,0.039
0.037,0.042
0.038,0.044
0.036,0.042
0.035,0.042
0.039,0.044
0.037,0.040
0.043,0.041
0.038,0.039
0.047,0.041
0.045,0.037
0.046,0.041
0.041,0.043
0.039,0.044
0.036,0.046
0.036,0.043
0.041,0.039
0.040,0.039
0.043,0.036
0.040,0.041
0.040,0.040
0.042,0.041
0.037,0.042
0.036,0.042
0.038,0.044
0.037,0.041
0.037,0.043
0.036,0.041
0.040,0.040
0.038,0.036
0.044,0.037
0.042,0.039
0.047,0.037
0.043,0.036
0.048,0.034
0.053,0.030
0.055,0.029
0.056,0.030
0.054,0.032
0.054,0.031
0.049,0.031
0.044,0.030
0.038,0.033
0.041,0.030
0.044,0.033
0.049,0.031
0.054,0.029
0.051,0.026
0.052,0.027
0.050,0.024
0.043,0.024
0.041,0.026
0.040,0.024
0.039,0.024
0.045,0.021
0.049,0.022
0.053,0.017
0.053,0.017
0.054,0.015
0.053,0.015
0.050,0.012
0.051,0.009
0.052,0.011
0.049,0.010
0.050,0.011
0.050,0.013
0.049,0.015
0.049,0.013
0.050,0.010
0.052,0.011
0.051,0.007
0.056,0.006
0.052,0.004
0.054,0.005
0.047,0.006
0.049,0.003
0.049,0.004
0.049,-0.001
0.048,0.002
0.045,0.006
0.048,0.006
0.047,0.007
0.046,0.003
0.049,0.003
0.049,0.002
0.049,-0.001
0.049,0.000
0.045,0.001
0.043,-0.003
0.042,-0.003
0.045,-0.004
0.043,-0.006
0.046,-0.005
0.041,-0.003
0.041,-0.001
0.043,-0.002
0.042,0.000
0.047,-0.003
0.047,-0.003
0.049,-0.004
0.050,-0.002
0.050,-0.002
0.053,-0.002
0.048,-0.002
0.053,-0.001
0.049,0.003
0.047,-0.001
0.045,0.004
0.047,0.002
0.048,0.002
0.048,0.001
0.049,0.002
0.044,0.004
0.043,0.002
0.043,0.004
0.045,0.004
0.046,0.006
0.047,0.004
0.044,0.006
0.042,0.009
0.044,0.008
0.044,0.006
0.046,0.007
0.047,0.009
0.045,0.010
0.045,0.011
0.045,0.013
0.045,0.014
0.043,0.014
0.043,0.015
0.047,0.014
0.044,0.015
0.046,0.016
0.046,0.017
0.047,0.016
0.048,0.018
0.047,0.015
0.044,0.019
0.041,0.021
0.041,0.022
0.040,0.024
0.042,0.024
0.044,0.025
0.048,0.025
0.046,0.026
0.046,0.027
0.047,0.030
0.044,0.029
0.048,0.030
0.045,0.028
0.044,0.032
0.045,0.031
0.043,0.032
0.044,0.030
0.046,0.034
0.044,0.031
0.045,0.034
0.044,0.036
0.044,0.034
0.041,0.038
0.043,0.036
0.043,0.035
0.044,0.032
0.043,0.035
0.042,0.037
0.042,0.037
0.039,0.040
0.040,0.038
0.040,0.040
0.041,0.039
0.040,0.039
0.040,0.043
0.041,0.042
0.042,0.047
0.041,0.046
0.043,0.047
0.043,0.040
0.045,0.042
0.044,0.040
0.045,0.039
0.041,0.042
0.043,0.043
0.043,0.041
0.042,0.040
0.045,0.041
0.045,0.044
0.044,0.040
0.043,0.043
0.041,0.041
0.045,0.041
0.043,0.040
0.046,0.039
0.043,0.040
0.047,0.039
0.043,0.042
0.047,0.037
0.051,0.037
0.048,0.034
0.049,0.036
0.046,0.037
0.047,0.036
0.043,0.036
0.044,0.032
0.047,0.032
0.047,0.031
0.047,0.031
0.044,0.034
0.047,0.030
0.044,0.032
0.043,0.027
0.046,0.027
0.045,0.025
0.047,0.026
0.043,0.025
0.046,0.024
0.046,0.027
0.046,0.021
0.049,0.024
0.049,0.020
0.051,0.023
0.050,0.020
0.051,0.019
0.046,0.020
0.046,0.019
0.041,0.019
0.044,0.016
0.041,0.016
0.046,0.013
0.046,0.012
0.047,0.011
0.047,0.011
0.046,0.010
0.049,0.007
0.047,0.008
0.050,0.006
0.049,0.010
0.046,0.005
0.045,0.004
0.047,0.002
0.050,0.000
0.047,0.001
0.048,-0.001
0.047,0.005
0.042,0.000
0.047,0.001
0.045,-0.001
0.048,0.002
0.045,0.002
0.047,-0.000
0.045,0.003
0.045,-0.002
0.050,-0.002
0.049,-0.006
0.048,-0.006
0.047,-0.001
0.045,-0.003
0.043,-0.001
0.042,-0.004
0.049,-0.002
0.044,-0.003
0.046,-0.002
0.044,0.002
0.049,-0.001
0.049,0.000
0.049,-0.004
0.046,-0.004
0.046,-0.001
0.045,-0.003
0.046,-0.000
0.045,-0.003
0.047,-0.003
0.046,-0.001
0.047,0.000
0.044,0.005
0.045,0.002
0.042,0.005
0.044,0.004
0.047,0.004
0.044,0.004
0.044,0.004
0.044,0.006
0.045,0.006
0.044,0.006
0.047,0.005
0.045,0.006
0.045,0.009
0.045,0.008
0.042,0.010
0.044,0.010
0.045,0.008
0.043,0.005
0.046,0.007
0.044,0.011
0.045,0.011
0.043,0.014
0.042,0.013
0.043,0.012
0.045,0.012
0.047,0.013
0.048,0.015
0.045,0.015
0.045,0.016
0.043,0.011
0.042,0.018
0.044,0.018
0.042,0.022
0.040,0.023
0.040,0.024
0.040,0.022
0.041,0.025
0.043,0.025
0.045,0.025
0.043,0.026
0.045,0.025
0.044,0.027
0.044,0.025
0.045,0.030
0.044,0.029
0.043,0.033
0.042,0.031
0.045,0.032
0.043,0.032
0.046,0.035
0.045,0.032
0.047,0.034
0.046,0.038
0.045,0.034
0.045,0.036
0.048,0.036
0.048,0.034
0.047,0.034
0.043,0.037
0.037,0.038
0.039,0.037
0.039,0.041
0.038,0.040
0.040,0.043
0.040,0.042
0.045,0.042
0.043,0.043
0.044,0.043
0.042,0.043
0.045,0.041
0.044,0.039
0.048,0.039
0.045,0.039
0.043,0.043
0.043,0.041
0.041,0.043
0.043,0.043
0.046,0.042
0.043,0.043
0.042,0.041
0.044,0.043
0.044,0.043
0.046,0.044
0.046,0.042
0.050,0.041
0.049,0.042
0.049,0.041
0.045,0.042
0.044,0.038
0.044,0.036
0.043,0.033
0.047,0.036
0.046,0.039
0.045,0.036
0.042,0.037
0.043,0.037
0.047,0.036
0.044,0.030
0.049,0.032
0.047,0.033
0.049,0.030
0.043,0.032
0.048,0.029
0.047,0.028
0.046,0.028
0.048,0.028
0.044,0.030
0.048,0.027
0.042,0.029
0.045,0.022
0.047,0.023
0.049,0.021
0.048,0.020
0.049,0.019
0.049,0.019
0.050,0.014
0.050,0.012
0.050,0.016
0.050,0.011
0.046,0.014
0.047,0.009
0.045,0.009
0.048,0.008
0.049,0.010
0.044,0.006
0.049,0.012
0.046,0.012
0.047,0.010
0.044,0.012
0.047,0.008
0.047,0.008
0.050,0.006
0.048,0.007
0.048,0.004
0.047,0.002
0.045,0.003
0.046,0.000
0.047,0.002
0.051,-0.001
0.047,-0.001
0.050,0.002
0.048,-0.001
0.049,0.001
0.047,-0.001
0.051,-0.001
0.049,-0.006
0.051,-0.009
0.050,-0.005
0.049,-0.004
0.046,-0.007
0.047,-0.005
0.047,-0.004
0.047,-0.004
0.045,-0.002
0.045,-0.002
0.045,0.000
0.048,-0.002
0.045,-0.005
0.047,-0.006
0.046,-0.005
0.045,-0.005
0.044,-0.002
0.044,-0.002
0.045,0.001
0.042,-0.002
0.047,-0.003
0.044,-0.001
0.047,-0.002
0.044,-0.001
0.045,0.000
0.048,0.001
0.047,0.000
0.047,-0.001
0.045,0.004
0.043,0.004
0.043,0.007
0.042,0.004
0.046,0.006
0.042,0.004
0.044,0.006
0.042,0.012
0.042,0.010
0.042,0.012
0.043,0.010
0.044,0.011
0.043,0.012
0.042,0.015
0.043,0.016
0.042,0.016
0.044,0.015
0.044,0.016
0.043,0.014
0.042,0.013
0.043,0.013
0.039,0.015
0.039,0.015
0.038,0.018
0.040,0.020
0.039,0.023
0.038,0.023
0.038,0.026
0.038,0.027
0.038,0.031
0.041,0.028
0.047,0.030
0.044,0.024
0.046,0.028
0.042,0.028
0.045,0.028
0.041,0.031
0.040,0.030
0.037,0.036
0.041,0.034
0.040,0.036
0.042,0.033
0.044,0.035
0.045,0.032
0.046,0.036
0.043,0.037
0.045,0.037
0.040,0.035
0.043,0.035
0.041,0.036
0.044,0.036
0.042,0.037
0.040,0.036
0.038,0.037
0.037,0.042
0.036,0.039
0.042,0.044
0.040,0.044
0.044,0.044
0.043,0.046
0.042,0.044
0.044,0.041
0.043,0.042
0.045,0.042
0.046,0.040
0.044,0.043
0.045,0.045
0.042,0.043
0.041,0.045
0.040,0.043
0.043,0.045
0.045,0.045
0.043,0.043
0.045,0.048
0.044,0.043
0.044,0.046
0.041,0.044
0.045,0.042
0.043,0.041
0.049,0.039
0.044,0.043
0.044,0.042
0.043,0.040
0.044,0.036
0.046,0.038
0.046,0.039
0.046,0.037
0.044,0.037
0.044,0.036
0.041,0.036
0.042,0.034
0.047,0.035
0.042,0.032
0.045,0.033
0.042,0.032
0.044,0.031
0.044,0.029
0.046,0.026
0.047,0.026
0.046,0.027
0.045,0.026
0.042,0.027
0.041,0.024
0.045,0.024
0.045,0.019
0.045,0.021
0.047,0.022
0.047,0.016
0.049,0.021
0.049,0.016
0.049,0.016
0.049,0.012
0.047,0.016
0.048,0.011
0.047,0.012
0.046,0.008
0.047,0.009
0.046,0.004
0.049,0.006
0.047,0.007
0.054,0.004
0.050,0.007
0.054,0.002
0.049,0.001
0.050,0.002
0.049,0.001
0.049,0.001
0.049,-0.000
0.045,0.002
0.048,0.002
0.045,0.003
0.046,-0.002
0.046,-0.002
0.049,-0.000
0.045,-0.003
0.047,-0.001
0.048,-0.002
0.049,-0.002
0.050,-0.007
0.051,-0.007
0.050,-0.005
0.049,-0.003
0.046,-0.004
0.047,-0.008
0.050,-0.008
0.046,-0.006
0.046,-0.007
0.048,-0.003
0.047,-0.003
0.050,-0.005
0.045,-0.006
0.049,-0.009
0.048,-0.007
0.046,-0.008
0.048,-0.004
0.046,-0.007
0.047,-0.006
0.042,-0.006
0.048,-0.005
0.044,-0.003
0.044,-0.003
0.043,-0.001
0.045,-0.003
0.046,-0.004
0.045,-0.006
0.050,-0.005
0.048,-0.002
0.049,-0.001
0.046,0.003
0.045,0.000
0.048,0.001
0.045,-0.001
0.049,-0.000
0.042,0.001
0.046,0.001
0.044,0.001
0.045,0.002
0.044,0.004
0.046,0.005
0.045,0.004
0.046,0.009
0.044,0.010
0.043,0.008
0.046,0.008
0.047,0.007
0.045,0.008
0.047,0.010
0.046,0.009
0.045,0.008
0.045,0.010
0.043,0.011
0.043,0.014
0.044,0.015
0.040,0.019
0.041,0.018
0.041,0.021
0.042,0.021
0.042,0.024
0.042,0.023
0.044,0.025
0.043,0.024
0.047,0.026
0.044,0.024
0.046,0.023
0.042,0.025
0.045,0.024
0.041,0.030
0.041,0.027
0.040,0.032
0.040,0.032
0.043,0.034
0.043,0.031
0.046,0.033
0.043,0.035
0.043,0.035
0.039,0.036
0.041,0.035
0.044,0.035
0.044,0.034
0.044,0.032
0.045,0.034
0.041,0.036
0.038,0.038
0.036,0.039
0.033,0.042
0.031,0.040
0.037,0.040
0.040,0.041
0.048,0.038
0.050,0.038
0.052,0.041
0.052,0.038
0.050,0.037
0.044,0.036
0.043,0.041
0.042,0.037
0.041,0.040
0.040,0.038
0.046,0.040
0.044,0.040
0.045,0.039
0.045,0.041
0.044,0.039
0.045,0.040
0.043,0.039
0.050,0.039
0.045,0.035
0.049,0.034
0.046,0.032
0.045,0.028
0.044,0.028
0.045,0.024
0.045,0.027
0.045,0.031
0.043,0.033
0.044,0.039
0.043,0.036
0.042,0.036
0.040,0.032
0.043,0.036
0.038,0.031
0.041,0.032
0.039,0.031
0.043,0.029
0.041,0.026
0.041,0.025
0.046,0.026
0.048,0.026
0.046,0.024
0.044,0.023
0.044,0.023
0.043,0.022
0.043,0.021
0.045,0.021
0.046,0.018
0.047,0.020
0.046,0.015
0.048,0.015
0.046,0.011
0.047,0.011
0.047,0.012
0.045,0.010
0.045,0.014
0.047,0.010
0.047,0.012
0.046,0.010
0.049,0.012
0.048,0.009
0.048,0.004
0.043,0.010
0.044,0.007
0.044,0.008
0.046,0.004
0.050,0.006
0.050,0.002
0.050,0.003
0.046,0.002
0.048,0.001
0.044,0.002
0.045,0.000
0.046,0.003
0.049,-0.000
0.047,-0.001
0.047,0.002
0.045,-0.003
0.047,-0.002
0.045,-0.006
0.049,-0.005
0.047,-0.002
0.046,-0.003
0.043,-0.002
0.044,-0.003
0.045,-0.003
0.047,-0.002
0.048,-0.004
0.046,-0.001
0.046,-0.004
0.044,-0.001
0.045,-0.003
0.048,-0.003
0.045,-0.004
0.045,-0.002
0.044,-0.002
0.044,-0.004
0.044,-0.002
0.045,-0.003
0.044,-0.001
0.046,0.000
0.045,0.001
0.045,0.003
0.044,0.002
0.043,0.002
0.045,-0.001
0.045,-0.001
0.046,0.003
0.044,0.002
0.044,0.007
0.043,0.003
0.044,0.006
0.043,0.006
0.046,0.007
0.046,0.008
0.046,0.007
0.043,0.009
0.045,0.007
0.047,0.009
0.047,0.006
0.045,0.010
0.046,0.011
0.044,0.010
0.042,0.012
0.043,0.009
0.044,0.013
0.044,0.009
0.044,0.015
0.042,0.011
0.044,0.015
0.042,0.013
0.044,0.018
0.042,0.020
0.045,0.020
0.042,0.023
0.045,0.023
0.038,0.025
0.043,0.027
0.042,0.027
0.043,0.025
0.043,0.026
0.041,0.026
0.043,0.030
0.039,0.028
0.043,0.028
0.042,0.030
0.043,0.031
0.041,0.036
0.043,0.034
0.040,0.037
0.042,0.036
0.044,0.037
0.045,0.034
0.045,0.036
0.042,0.039
0.041,0.040
0.039,0.041
0.037,0.038
0.038,0.039
0.034,0.036
0.037,0.037
0.039,0.040
0.043,0.041
0.043,0.044
0.046,0.043
0.046,0.043
0.046,0.041
0.045,0.041
0.046,0.043
0.044,0.041
0.041,0.042
0.037,0.041
0.037,0.040
0.036,0.040
0.039,0.040
0.037,0.044
0.035,0.044
0.034,0.044
0.035,0.042
0.040,0.044
0.039,0.043
0.041,0.043
0.040,0.045
0.044,0.043
0.045,0.042
0.047,0.040
0.050,0.039
0.050,0.036
0.049,0.036
0.045,0.038
0.046,0.034
0.044,0.038
0.045,0.033
0.047,0.034
0.045,0.033
0.046,0.032
0.042,0.035
0.043,0.033
0.046,0.033
0.046,0.028
0.050,0.028
0.049,0.031
0.051,0.027
0.045,0.032
0.047,0.028
0.045,0.027
0.047,0.023
0.047,0.023
0.049,0.023
0.045,0.022
0.043,0.026
0.042,0.023
0.047,0.021
0.057,0.019
0.073,0.021
0.084,0.018
0.104,0.018
0.112,0.012
0.105,0.013
0.086,0.011
0.075,0.013
0.057,0.012
0.039,0.010
0.019,0.010
0.017,0.008
0.020,0.007
0.028,0.007
0.033,0.010
0.041,0.004
0.045,0.004
0.056,0.004
0.061,0.003
0.065,0.003
0.074,0.002
0.080,0.002
0.085,0.000
0.083,0.002
0.083,0.003
0.074,0.001
0.068,0.003
0.063,-0.001
0.055,-0.000
0.042,-0.000
0.026,0.000
0.013,-0.002
0.008,-0.004
0.009,-0.003
0.014,-0.004
0.021,-0.006
0.024,-0.004
0.027,-0.005
0.033,-0.003
0.034,-0.005
0.038,-0.004
0.037,-0.006
0.039,-0.006
0.038,-0.003
0.038,-0.003
0.042,-0.003
0.042,-0.004
0.043,-0.002
0.040,-0.003
0.041,-0.002
0.038,-0.002
0.038,-0.003
0.037,0.002
0.041,-0.002
0.039,0.000
0.042,0.002
0.042,0.001
0.040,0.003
0.039,0.003
0.041,0.004
0.041,0.002
0.043,0.003
0.042,0.006
0.043,0.006
0.044,0.008
0.062,0.006
0.075,0.005
0.082,0.004
0.075,0.006
0.065,0.007
0.052,0.008
0.044,0.008
0.035,0.009
0.030,0.010
0.022,0.010
0.014,0.010
0.002,0.013
-0.006,0.013
-0.010,0.014
-0.027,0.015
-0.047,0.016
-0.041,0.015
-0.026,0.017
-0.001,0.016
0.029,0.019
0.056,0.019
0.080,0.023
0.093,0.020
0.099,0.024
0.098,0.026
0.097,0.027
0.095,0.029
0.096,0.028
0.087,0.030
0.082,0.029
0.070,0.030
0.055,0.027
0.038,0.030
0.022,0.026
0.015,0.031
0.009,0.031
0.007,0.030
0.002,0.033
0.001,0.032
-0.012,0.035
-0.020,0.034
-0.022,0.037
-0.028,0.035
-0.034,0.035
-0.060,0.036
-0.072,0.036
-0.062,0.039
-0.029,0.036
0.021,0.039
0.067,0.038
0.104,0.040
0.128,0.039
0.139,0.040
0.141,0.043
0.141,0.046
0.131,0.047
0.125,0.044
0.113,0.045
0.103,0.044
0.090,0.040
0.076,0.041
0.058,0.042
0.044,0.041
0.027,0.043
0.011,0.042
-0.022,0.045
-0.042,0.045
-0.043,0.045
-0.037,0.042
-0.015,0.045
0.010,0.040
0.036,0.041
0.052,0.042
0.071,0.041
0.080,0.041
0.086,0.037
0.093,0.040
0.094,0.039
0.095,0.038
0.093,0.042
0.091,0.037
0.091,0.039
0.088,0.034
0.082,0.038
0.077,0.035
0.072,0.036
0.064,0.035
0.060,0.033
0.056,0.033
0.057,0.031
0.055,0.028
0.051,0.030
0.049,0.030
0.047,0.031
0.046,0.029
0.046,0.026
0.049,0.026
0.047,0.023
0.048,0.026
0.048,0.026
0.047,0.025
0.046,0.023
0.047,0.024
0.049,0.021
0.049,0.021
0.046,0.017
0.049,0.015
0.045,0.012
0.046,0.012
0.047,0.010
0.047,0.010
0.046,0.010
0.057,0.011
0.070,0.010
0.086,0.009
0.094,0.008
0.085,0.006
0.063,0.004
0.026,0.005
-0.017,0.005
-0.061,0.002
-0.098,0.004
-0.099,0.002
-0.081,0.003
-0.038,0.000
0.003,-0.001
0.039,0.000
0.061,0.003
0.076,-0.002
0.087,0.003
0.092,-0.001
0.099,0.001
0.100,-0.002
0.095,-0.002
0.070,-0.002
0.024,-0.004
-0.057,-0.007
-0.096,-0.005
-0.101,-0.004
-0.062,-0.004
-0.010,-0.005
0.041,-0.003
0.075,-0.003
0.096,-0.003
0.103,-0.005
0.109,-0.003
0.115,0.001
0.119,-0.001
0.119,-0.003
0.119,-0.002
0.119,-0.004
0.098,0.002
0.067,-0.002
0.047,0.002
0.035,0.002
0.036,-0.000
0.023,0.001
0.010,0.001
-0.008,0.004
-0.044,0.002
-0.080,0.007
-0.094,-0.000
-0.079,0.004
-0.046,0.002
-0.006,0.003
0.031,0.006
0.063,0.005
0.081,0.007
0.094,0.007
0.101,0.008
0.103,0.006
0.103,0.008
0.108,0.011
0.113,0.012
0.120,0.013
0.124,0.015
0.133,0.013
0.140,0.012
0.140,0.013
0.130,0.014
0.107,0.015
0.078,0.019
0.061,0.019
0.043,0.018
0.033,0.016
0.025,0.018
0.026,0.016
0.026,0.021
0.025,0.024
0.031,0.023
0.032,0.024
0.037,0.026
0.040,0.029
0.044,0.027
0.048,0.031
0.060,0.031
0.068,0.033
0.077,0.032
0.078,0.033
0.076,0.032
0.070,0.033
0.058,0.032
0.044,0.035
0.034,0.036
0.026,0.035
0.024,0.037
0.023,0.035
0.023,0.038
0.026,0.035
0.032,0.036
0.032,0.035
0.031,0.035
0.034,0.038
0.035,0.039
0.035,0.039
0.034,0.038
0.037,0.041
0.040,0.039
0.040,0.041
0.041,0.043
0.041,0.042
0.043,0.043
0.043,0.044
0.043,0.043
0.042,0.042
0.039,0.039
0.038,0.040
0.034,0.039
0.034,0.039
0.038,0.037
0.061,0.040
0.078,0.039
0.098,0.040
0.105,0.045
0.102,0.044
0.085,0.042
0.070,0.038
0.053,0.039
0.028,0.043
0.006,0.040
-0.004,0.042
-0.000,0.042
0.009,0.041
0.016,0.036
0.024,0.037
0.026,0.036
0.030,0.038
0.031,0.038
0.037,0.037
0.043,0.035
0.050,0.033
0.059,0.032
0.066,0.035
0.071,0.034
0.079,0.032
0.085,0.032
0.092,0.031
0.086,0.032
0.076,0.028
0.063,0.029
0.055,0.026
0.047,0.025
0.033,0.022
0.019,0.024
0.007,0.023
0.006,0.022
0.011,0.025
0.018,0.021
0.026,0.024
0.031,0.021
0.030,0.020
0.031,0.017
0.032,0.016
0.036,0.013
0.038,0.013
0.039,0.010
0.039,0.012
0.039,0.008
0.041,0.010
0.039,0.010
0.041,0.010
0.034,0.012
0.040,0.009
0.041,0.011
0.041,0.004
0.041,0.005
0.046,0.004
0.045,0.002
0.042,0.003
0.039,0.003
0.043,0.001
0.033,-0.001
0.024,0.001
0.014,0.003
0.014,0.002
0.016,0.002
0.021,0.000
0.029,-0.001
0.036,-0.001
0.040,-0.002
0.041,0.001
0.042,-0.003
0.046,-0.002
0.051,-0.005
0.061,-0.003
0.063,-0.005
0.064,-0.001
0.061,-0.000
0.056,-0.005
0.057,-0.003
0.060,-0.004
0.078,-0.003
0.101,-0.000
0.134,-0.001
0.155,-0.002
0.157,-0.002
0.132,-0.003
0.091,-0.003
0.044,-0.003
0.002,0.001
-0.040,-0.001
-0.062,-0.001
-0.064,-0.002
-0.043,-0.001
-0.019,-0.000
0.011,0.001
0.030,0.001
0.047,-0.001
0.056,-0.002
0.063,-0.002
0.064,-0.001
0.059,-0.002
0.052,0.002
0.043,0.006
0.038,0.009
0.036,0.012
0.031,0.010
0.029,0.011
0.025,0.011
0.029,0.008
0.033,0.010
0.039,0.009
0.043,0.010
0.041,0.008
0.047,0.010
0.047,0.012
0.047,0.011
0.043,0.014
0.041,0.015
0.039,0.018
0.039,0.017
0.039,0.018
0.038,0.022
0.038,0.021
0.037,0.021
0.037,0.025
0.037,0.023
0.038,0.025
0.036,0.025
0.038,0.025
0.037,0.028
0.041,0.028
0.037,0.030
0.040,0.029
0.036,0.033
0.038,0.032
0.036,0.036
0.035,0.032
0.037,0.035
0.038,0.034
0.038,0.034
0.039,0.035
0.037,0.036
0.036,0.040
0.036,0.036
0.034,0.039
0.030,0.037
0.033,0.037
0.026,0.038
0.028,0.036
0.025,0.039
0.032,0.036
0.038,0.040
0.043,0.039
0.046,0.041
0.045,0.042
0.046,0.044
0.043,0.046
0.047,0.046
0.053,0.042
0.059,0.039
0.076,0.041
0.086,0.043
0.081,0.039
0.069,0.040
0.053,0.040
0.039,0.040
0.026,0.040
0.019,0.042
0.009,0.042
0.011,0.041
0.013,0.044
0.023,0.043
0.034,0.043
0.039,0.041
0.042,0.039
0.046,0.040
0.044,0.038
0.044,0.043
0.039,0.039
0.043,0.040
0.037,0.041
0.043,0.038
0.041,0.042
0.041,0.039
0.045,0.039
0.057,0.039
0.073,0.039
0.084,0.036
0.095,0.035
0.091,0.037
0.084,0.035
0.069,0.035
0.059,0.029
0.039,0.030
0.020,0.031
0.010,0.030
0.008,0.029
0.016,0.028
0.029,0.030
0.031,0.025
0.039,0.027
0.040,0.025
0.047,0.024
0.044,0.024
0.050,0.022
0.049,0.021
0.051,0.021
0.049,0.017
0.054,0.015
0.056,0.015
0.058,0.011
0.060,0.014
0.060,0.009
0.061,0.011
0.056,0.012
0.050,0.010
0.040,0.011
0.036,0.010
0.034,0.010
0.036,0.008
0.038,0.006
0.041,0.003
0.042,0.004
0.041,0.007
0.040,0.004
0.041,0.005
0.039,0.001
0.042,0.002
0.037,0.001
0.039,0.000
0.035,0.004
0.037,0.003
0.043,0.003
0.045,-0.002
0.053,-0.003
0.063,-0.001
0.085,-0.003
0.097,-0.002
0.104,-0.005
0.101,-0.006
0.084,-0.005
0.060,-0.005
0.041,-0.003
0.025,-0.003
0.018,-0.002
0.011,-0.003
0.018,-0.001
0.021,-0.002
0.030,-0.003
0.030,-0.002
0.038,-0.003
0.040,-0.003
0.042,-0.007
0.041,-0.003
0.042,-0.000
0.041,-0.001
0.035,0.002
0.042,0.001
0.060,0.002
0.066,-0.002
0.046,-0.002
0.013,0.001
0.005,0.002
0.005,0.004
0.015,0.004
0.025,0.005
0.037,0.003
0.051,0.004
0.062,0.009
0.069,0.009
0.074,0.008
0.071,0.008
0.068,0.010
0.062,0.009
0.056,0.008
0.048,0.012
0.047,0.011
0.044,0.012
0.040,0.012
0.031,0.013
0.010,0.011
-0.003,0.015
-0.018,0.018
-0.017,0.020
-0.007,0.023
0.012,0.020
0.028,0.020
0.044,0.020
0.052,0.021
0.059,0.021
0.063,0.024
0.075,0.023
0.108,0.028
0.151,0.027
0.180,0.028
0.189,0.029
0.177,0.028
0.148,0.033
0.100,0.030
0.032,0.035
-0.028,0.033
-0.058,0.033
-0.080,0.034
-0.083,0.033
-0.075,0.035
-0.046,0.035
-0.019,0.037
0.012,0.036
0.032,0.038
0.041,0.034
0.051,0.036
0.052,0.035
0.057,0.037
0.054,0.037
0.056,0.036
0.050,0.040
0.053,0.038
0.053,0.039
0.055,0.039
0.055,0.039
0.054,0.046
0.053,0.042
0.051,0.046
0.048,0.043
0.049,0.046
0.047,0.043
0.046,0.041
0.043,0.045
0.044,0.043
0.042,0.042
0.040,0.043
0.040,0.042
0.040,0.040
0.040,0.043
0.040,0.046
0.036,0.046
0.041,0.044
0.037,0.045
0.041,0.043
0.042,0.041
0.039,0.042
0.040,0.043
0.042,0.042
0.048,0.041
0.063,0.039
0.082,0.038
0.080,0.037
0.076,0.038
0.062,0.038
0.053,0.038
0.040,0.036
0.047,0.036
0.057,0.034
0.062,0.035
0.058,0.031
0.046,0.037
0.030,0.033
0.026,0.031
0.017,0.028
0.012,0.028
0.007,0.030
0.014,0.027
0.017,0.026
0.020,0.024
0.028,0.026
0.031,0.022
0.034,0.023
0.037,0.023
0.037,0.022
0.037,0.023
0.038,0.022
0.034,0.021
0.037,0.019
0.039,0.019
0.044,0.015
0.047,0.014
0.047,0.011
0.049,0.011
0.042,0.008
0.036,0.008
0.035,0.010
0.039,0.006
0.041,0.009
0.047,0.008
0.048,0.010
0.051,0.006
0.054,0.006
0.057,0.002
0.071,0.005
0.102,0.004
0.137,0.002
0.147,0.003
0.141,0.001
0.113,0.003
0.078,-0.001
0.041,0.000
0.001,0.001
-0.025,0.000
-0.031,-0.002
-0.022,-0.003
-0.004,-0.002
0.008,-0.002
0.019,-0.004
0.026,-0.005
0.031,-0.005
0.036,-0.006
0.037,-0.009
0.037,-0.004
0.038,-0.004
0.038,-0.003
0.041,-0.003
0.041,-0.008
0.044,-0.006
0.042,-0.003
0.044,-0.005
0.045,-0.003
0.042,-0.006
0.045,-0.006
0.042,-0.005
0.042,-0.004
0.040,-0.004
0.040,-0.005
0.036,0.000
0.036,-0.004
0.034,0.001
0.036,0.000
0.036,0.001
0.039,0.002
0.040,0.000
0.045,0.001
0.050,0.002
0.054,0.002
0.052,0.004
0.051,0.000
0.052,0.007
0.047,0.004
0.044,0.007
0.044,0.007
0.048,0.006
0.043,0.008
0.045,0.008
0.039,0.011
0.041,0.013
0.041,0.013
0.042,0.012
0.045,0.011
0.041,0.011
0.037,0.010
0.037,0.015
0.037,0.012
0.038,0.017
0.041,0.014
0.046,0.016
0.040,0.015
0.042,0.016
0.038,0.019
0.036,0.021
0.033,0.022
0.034,0.022
0.041,0.024
0.045,0.025
0.052,0.027
0.061,0.026
0.072,0.030
0.085,0.029
0.098,0.026
0.099,0.025
0.095,0.029
0.083,0.029
0.066,0.031
0.048,0.031
0.025,0.036
0.004,0.037
0.000,0.036
0.005,0.037
0.015,0.031
0.023,0.034
0.032,0.034
0.034,0.035
0.039,0.038
0.040,0.039
0.037,0.036
0.036,0.038
0.039,0.039
0.040,0.036
0.037,0.039
0.038,0.045
0.039,0.041
0.037,0.044
0.038,0.046
0.041,0.044
0.041,0.043
0.040,0.042
0.038,0.043
0.040,0.042
0.038,0.041
0.041,0.043
0.041,0.041
0.039,0.039
0.040,0.038
0.039,0.043
0.037,0.044
0.040,0.043
0.037,0.042
0.042,0.040
0.041,0.038
0.042,0.039
0.039,0.041
0.042,0.040
0.041,0.040
0.047,0.037
0.059,0.038
0.073,0.037
0.084,0.037
0.078,0.037
0.073,0.037
0.061,0.036
0.053,0.033
0.043,0.034
0.036,0.032
0.026,0.032
0.019,0.035
0.019,0.032
0.023,0.034
0.025,0.030
0.032,0.030
0.034,0.029
0.036,0.028
0.035,0.028
0.037,0.026
0.039,0.026
0.043,0.021
0.043,0.024
0.044,0.023
0.043,0.023
0.043,0.024
0.043,0.024
0.043,0.023
0.041,0.018
0.044,0.018
0.045,0.015
0.048,0.014
0.045,0.011
0.044,0.012
0.045,0.013
0.044,0.010
0.043,0.012
0.042,0.011
0.042,0.010
0.041,0.009
0.043,0.007
0.044,0.006
0.045,0.005
0.041,0.004
0.047,0.004
0.045,0.005
0.048,0.004
0.051,0.002
0.050,0.001
0.051,-0.001
0.049,0.003
0.046,0.000
0.045,0.001
0.043,-0.002
0.048,-0.002
0.047,-0.006
0.050,-0.003
0.050,-0.003
0.061,-0.006
0.086,-0.004
0.131,-0.008
0.176,-0.005
0.190,-0.009
0.174,-0.006
0.131,-0.005
0.078,-0.005
0.020,-0.004
-0.023,-0.007
-0.051,-0.006
-0.053,-0.002
-0.040,-0.003
-0.021,-0.003
-0.004,-0.005
0.009,-0.004
0.018,-0.005
0.024,-0.004
0.028,-0.004
0.035,-0.003
0.038,-0.003
0.041,-0.002
0.048,-0.002
0.047,-0.003
0.047,-0.001
0.045,0.002
0.044,0.001
0.041,0.000
0.041,-0.002
0.043,-0.003
0.041,-0.002
0.044,-0.001
0.044,0.004
0.044,0.003
0.042,0.006
0.040,0.006
0.044,0.005
0.043,0.004
0.044,0.005
0.042,0.009
0.043,0.007
0.040,0.010
0.039,0.007
0.043,0.007
0.041,0.009
0.041,0.009
0.041,0.013
0.039,0.010
0.039,0.013
0.038,0.014
0.041,0.012
0.039,0.015
0.043,0.015
0.039,0.015
0.040,0.018
0.041,0.019
0.040,0.020
0.042,0.023
0.041,0.021
0.043,0.028
0.042,0.025
0.042,0.029
0.039,0.027
0.042,0.030
0.039,0.027
0.043,0.027
0.038,0.026
0.042,0.029
0.041,0.027
0.042,0.031
0.040,0.033
0.039,0.035
0.041,0.035
0.039,0.036
0.045,0.037
0.043,0.034
0.044,0.034
0.042,0.039
0.041,0.034
0.043,0.038
0.041,0.035
0.044,0.036
0.040,0.036
0.043,0.037
0.042,0.039
0.039,0.039
0.038,0.042
0.041,0.039
0.040,0.043
0.041,0.038
0.041,0.038
0.041,0.038
0.041,0.040
0.041,0.040
0.047,0.040
0.057,0.040
0.069,0.038
0.078,0.040
0.078,0.041
0.071,0.041
0.057,0.043
0.042,0.041
0.037,0.042
0.030,0.036
0.027,0.040
0.021,0.040
0.019,0.040
0.020,0.043
0.025,0.040
0.030,0.038
0.034,0.034
0.036,0.035
0.037,0.037
0.037,0.035
0.039,0.038
0.038,0.035
0.044,0.031
0.040,0.033
0.046,0.033
0.044,0.033
0.048,0.030
0.043,0.033
0.047,0.030
0.046,0.031
0.047,0.027
0.045,0.027
0.045,0.027
0.044,0.025
0.045,0.026
0.049,0.024
0.066,0.023
0.084,0.019
0.092,0.018
0.088,0.022
0.072,0.021
0.051,0.023
0.036,0.023
0.019,0.019
0.012,0.018
0.015,0.014
0.021,0.010
0.036,0.012
0.043,0.008
0.050,0.009
0.049,0.007
0.048,0.007
0.044,0.008
0.047,0.006
0.045,0.008
0.050,0.007
0.046,0.004
0.048,-0.001
0.049,0.001
0.044,0.002
0.045,-0.002
0.043,0.003
0.043,-0.002
0.044,-0.000
0.043,-0.003
0.041,-0.001
0.041,0.002
0.039,0.000
0.041,-0.001
0.047,-0.001
0.056,0.002
0.057,-0.001
0.060,-0.004
0.055,-0.000
0.053,-0.006
0.046,-0.007
0.044,-0.006
0.045,-0.006
0.047,-0.003
0.051,-0.004
0.050,-0.001
0.052,-0.003
0.053,-0.001
0.049,-0.005
0.052,-0.004
0.048,-0.002
0.049,-0.005
0.045,-0.005
0.045,-0.005
0.045,-0.001
0.044,-0.005
0.043,-0.002
0.042,-0.002
0.043,-0.001
0.041,-0.002
0.041,-0.003
0.045,-0.001
0.043,-0.001
0.044,-0.003
0.044,0.003
0.040,0.003
0.042,0.004
0.039,0.001
0.041,0.002
0.036,0.001
0.034,0.002
0.034,0.006
0.036,0.004
0.041,0.005
0.044,0.004
0.046,0.006
0.049,0.008
0.051,0.005
0.047,0.010
0.047,0.010
0.046,0.011
0.045,0.009
0.045,0.009
0.043,0.009
0.045,0.010
0.048,0.013
0.061,0.012
0.074,0.013
0.095,0.011
0.124,0.014
0.158,0.012
0.181,0.018
0.176,0.017
0.151,0.020
0.097,0.021
0.039,0.024
-0.008,0.024
-0.041,0.024
-0.055,0.027
-0.047,0.024
-0.031,0.030
-0.008,0.028
0.005,0.030
0.014,0.028
0.023,0.029
0.026,0.026
0.032,0.030
0.036,0.030
0.037,0.030
0.036,0.036
0.042,0.033
0.049,0.036
0.058,0.034
0.070,0.036
0.080,0.033
0.086,0.035
0.084,0.032
0.078,0.032
0.063,0.035
0.054,0.034
0.043,0.036
0.036,0.036
0.019,0.037
0.007,0.039
-0.002,0.041
0.002,0.040
0.008,0.041
0.019,0.039
0.022,0.038
0.029,0.038
0.034,0.039
0.032,0.040
0.034,0.038
0.035,0.039
0.037,0.041
0.040,0.040
0.044,0.041
0.048,0.043
0.054,0.043
0.062,0.044
0.079,0.043
0.083,0.042
0.090,0.042
0.086,0.037
0.055,0.041
0.011,0.040
-0.015,0.039
-0.019,0.036
-0.009,0.036
-0.001,0.035
0.012,0.036
0.025,0.039
0.043,0.035
0.056,0.036
0.064,0.034
0.067,0.035
0.065,0.032
0.065,0.033
0.057,0.033
0.055,0.030
0.052,0.031
0.050,0.028
0.049,0.028
0.057,0.027
0.067,0.026
0.070,0.027
0.067,0.026
0.063,0.024
0.053,0.020
0.044,0.023
0.027,0.021
0.015,0.022
0.007,0.023
0.010,0.021
0.013,0.020
0.029,0.019
0.044,0.015
0.061,0.015
0.072,0.012
0.075,0.009
0.077,0.008
0.073,0.004
0.065,0.005
0.060,0.007
0.052,0.008
0.047,0.009
0.042,0.010
0.041,0.008
0.043,0.009
0.049,0.005
0.055,0.004
0.059,-0.000
0.059,0.001
0.055,-0.001
0.054,0.001
0.049,-0.002
0.049,-0.002
0.046,-0.003
0.047,-0.000
0.043,0.003
0.044,0.000
0.047,-0.001
0.046,-0.005
0.049,-0.006
0.047,-0.004
0.045,-0.005
0.043,-0.006
0.042,-0.009
0.031,-0.008
-0.000,-0.010
-0.035,-0.008
-0.067,-0.006
-0.079,-0.006
-0.070,-0.005
-0.036,-0.005
-0.001,-0.005
0.039,-0.009
0.067,-0.007
0.084,-0.003
0.087,-0.003
0.091,-0.001
0.090,-0.004
0.102,-0.004
0.104,-0.006
0.105,-0.007
0.098,-0.002
0.094,-0.001
0.097,-0.003
0.117,-0.005
0.154,-0.004
0.176,0.000
0.180,0.002
0.147,0.004
0.080,0.001
0.005,0.005
-0.065,0.002
-0.122,0.003
-0.142,0.005
-0.124,0.002
-0.084,0.004
-0.038,0.005
0.001,0.003
0.027,0.001
0.044,0.004
0.054,0.009
0.071,0.009
0.083,0.011
0.093,0.011
0.093,0.013
0.092,0.011
0.081,0.012
0.070,0.012
0.056,0.011
0.031,0.015
-0.015,0.011
-0.062,0.015
-0.127,0.015
-0.191,0.016
-0.216,0.019
-0.184,0.020
-0.103,0.023
-0.014,0.024
0.063,0.023
0.128,0.024
0.178,0.021
0.205,0.025
0.214,0.024
0.206,0.027
0.187,0.026
0.157,0.025
0.130,0.027
0.099,0.029
0.073,0.032
0.060,0.030
0.060,0.034
0.054,0.032
0.055,0.035
0.048,0.036
0.049,0.036
0.047,0.036
0.047,0.035
0.047,0.032
0.048,0.034
0.043,0.032
0.044,0.037
0.043,0.035
0.041,0.038
0.038,0.035
0.043,0.038
0.043,0.040
0.040,0.038
0.038,0.046
0.042,0.042
0.042,0.043
0.041,0.039
0.045,0.042
0.045,0.041
0.045,0.039
0.044,0.044
0.043,0.042
0.037,0.042
0.036,0.041
0.036,0.045
0.036,0.045
0.036,0.048
0.037,0.049
0.041,0.046
0.040,0.045
0.042,0.043
0.043,0.042
0.039,0.039
0.038,0.041
0.036,0.041
0.039,0.042
0.038,0.040
0.040,0.040
0.042,0.042
0.043,0.038
0.044,0.037
0.043,0.036
0.042,0.036
0.044,0.037
0.047,0.033
0.049,0.034
0.054,0.035
0.063,0.035
0.076,0.035
0.089,0.034
0.103,0.033
0.101,0.030
0.093,0.026
0.077,0.028
0.062,0.026
0.043,0.029
0.019,0.027
0.006,0.025
-0.002,0.022
0.004,0.022
-0.017,0.021
-0.022,0.018
-0.031,0.021
-0.046,0.019
-0.040,0.020
-0.019,0.016
0.006,0.014
0.034,0.015
0.054,0.013
0.064,0.011
0.087,0.011
0.101,0.010
0.114,0.008
0.116,0.010
0.109,0.008
0.099,0.012
0.099,0.007
0.120,0.008
0.145,0.004
0.161,0.004
0.152,0.003
0.122,0.003
0.080,0.003
0.053,0.001
0.020,0.002
-0.008,-0.001
-0.022,-0.002
-0.020,0.001
-0.006,-0.002
0.007,-0.001
0.018,0.000
0.029,0.000
0.033,-0.002
0.037,-0.002
0.038,0.002
0.041,-0.003
0.039,-0.002
0.040,-0.005
0.042,-0.005
0.044,-0.003
0.042,-0.004
0.038,-0.003
0.036,-0.003
0.038,-0.004
0.034,-0.005
0.036,-0.004
0.041,-0.004
0.044,-0.006
0.047,-0.002
0.046,-0.004
0.048,-0.004
0.044,-0.006
0.046,-0.003
0.042,-0.002
0.042,-0.003
0.038,0.002
0.044,-0.000
0.054,-0.001
0.070,-0.002
0.083,-0.000
0.091,0.004
0.093,0.002
0.085,0.001
0.069,0.002
0.059,0.003
0.043,0.001
0.023,0.005
0.007,0.008
0.003,0.008
0.005,0.010
0.013,0.010
0.023,0.010
0.028,0.011
0.030,0.010
0.032,0.012
0.031,0.012
0.036,0.013
0.035,0.010
0.038,0.013
0.037,0.015
0.038,0.014
0.036,0.017
0.038,0.013
0.036,0.019
0.039,0.013
0.035,0.019
0.040,0.018
0.038,0.019
0.039,0.019
0.042,0.022
0.040,0.024
0.044,0.025
0.045,0.023
0.062,0.024
0.077,0.024
0.089,0.026
0.079,0.028
0.072,0.027
0.051,0.029
0.030,0.028
0.006,0.032
-0.014,0.033
-0.031,0.035
-0.065,0.032
-0.098,0.035
-0.122,0.034
-0.157,0.035
-0.152,0.037
-0.114,0.035
-0.063,0.037
-0.005,0.036
0.045,0.039
0.082,0.033
0.115,0.033
0.136,0.035
0.161,0.036
0.174,0.041
0.176,0.036
0.165,0.041
0.145,0.037
0.127,0.037
0.102,0.040
0.082,0.040
0.057,0.043
0.046,0.042
0.028,0.044
-0.003,0.041
-0.041,0.042
-0.078,0.044
-0.127,0.044
-0.150,0.044
-0.135,0.044
-0.089,0.041
-0.034,0.041
0.014,0.042
0.053,0.046
0.084,0.045
0.108,0.047
0.130,0.048
0.160,0.046
0.180,0.042
0.192,0.038
0.191,0.040
0.178,0.038
0.158,0.038
0.139,0.037
0.125,0.040
0.108,0.035
0.097,0.039
0.081,0.039
0.076,0.039
0.058,0.036
0.041,0.035
-0.013,0.032
-0.096,0.036
-0.150,0.034
-0.157,0.032
-0.125,0.028
-0.074,0.026
-0.016,0.025
0.036,0.025
0.079,0.026
0.110,0.023
0.140,0.028
0.164,0.027
0.180,0.028
0.186,0.026
0.185,0.024
0.169,0.022
0.154,0.023
0.124,0.020
0.096,0.019
0.068,0.016
0.029,0.014
-0.024,0.014
-0.057,0.010
-0.074,0.011
-0.072,0.008
-0.047,0.010
-0.012,0.010
0.031,0.009
0.075,0.009
0.116,0.008
0.143,0.008
0.163,0.006
0.169,0.004
0.162,0.001
0.155,0.002
0.139,0.002
0.113,0.001
0.081,0.006
0.052,0.003
0.041,0.003
0.031,0.001
0.042,-0.000
0.061,0.004
0.067,0.002
0.041,0.001
0.026,-0.003
0.006,-0.002
-0.054,-0.004
-0.126,-0.007
-0.136,-0.005
-0.095,-0.006
-0.036,-0.004
0.027,-0.008
0.078,-0.004
0.109,-0.003
0.121,-0.001
0.120,-0.001
0.113,-0.003
0.105,-0.004
0.111,-0.006
0.115,-0.005
0.121,-0.007
0.125,-0.008
0.128,-0.007
0.128,-0.006
0.124,-0.005
0.115,-0.004
0.101,-0.003
0.104,0.002
0.102,-0.001
0.093,0.001
0.071,0.002
0.055,0.001
0.044,0.007
0.045,0.003
0.040,0.004
0.034,0.004
0.026,0.004
0.005,0.007
-0.032,0.006
-0.076,0.008
-0.083,0.008
-0.070,0.009
-0.051,0.005
-0.024,0.009
0.004,0.008
0.029,0.009
0.049,0.012
0.068,0.013
0.079,0.012
0.091,0.011
0.096,0.012
0.098,0.010
0.091,0.011
0.082,0.010
0.072,0.014
0.065,0.016
0.055,0.014
0.049,0.016
0.046,0.017
0.044,0.021
0.044,0.019
0.040,0.022
0.038,0.025
0.038,0.025
0.036,0.024
0.036,0.028
0.036,0.028
0.037,0.026
0.035,0.027
0.032,0.028
0.029,0.031
0.028,0.029
0.027,0.032
0.025,0.031
0.028,0.034
0.025,0.036
0.031,0.036
0.032,0.036
0.040,0.036
0.037,0.036
0.039,0.035
0.038,0.036
0.037,0.035
0.036,0.036
0.036,0.036
0.035,0.036
0.030,0.038
0.035,0.035
0.033,0.037
0.033,0.036
0.034,0.039
0.033,0.038
0.033,0.036
0.035,0.040
0.036,0.039
0.034,0.040
0.036,0.040
0.038,0.042
0.038,0.038
0.039,0.041
0.034,0.041
0.036,0.040
0.030,0.043
0.031,0.043
0.032,0.042
0.034,0.039
0.032,0.041
0.034,0.044
0.038,0.042
0.035,0.044
0.036,0.043
0.036,0.044
0.037,0.041
0.037,0.039
0.037,0.041
0.035,0.039
0.035,0.036
0.036,0.036
0.039,0.034
0.039,0.034
0.039,0.033
0.037,0.034
0.039,0.034
0.039,0.032
0.041,0.034
0.040,0.034
0.041,0.034
0.041,0.030
0.041,0.032
0.043,0.029
0.049,0.028
0.047,0.025
0.047,0.025
0.027,0.029
0.003,0.026
-0.018,0.028
-0.041,0.024
-0.041,0.026
-0.031,0.021
-0.008,0.023
0.008,0.021
0.031,0.021
0.042,0.021
0.050,0.018
0.056,0.019
0.070,0.018
0.080,0.017
0.092,0.014
0.094,0.011
0.091,0.008
0.084,0.012
0.075,0.008
0.070,0.010
0.065,0.008
0.063,0.009
0.057,0.010
0.057,0.009
0.049,0.010
0.044,0.006
0.023,0.005
-0.012,0.002
-0.024,0.000
-0.037,0.003
-0.046,0.001
-0.033,0.004
-0.008,0.000
0.022,0.003
0.048,0.002
0.074,0.001
0.094,0.003
0.118,0.002
0.132,0.001
0.134,-0.004
0.126,-0.002
0.103,-0.003
0.067,-0.004
0.027,-0.005
-0.014,-0.006
-0.048,-0.006
-0.081,-0.004
-0.100,-0.006
-0.106,-0.002
-0.091,-0.005
-0.066,-0.005
-0.057,-0.006
-0.050,-0.005
-0.041,-0.007
-0.013,-0.007
0.022,-0.002
0.064,-0.001
0.105,-0.002
0.139,-0.003
0.164,-0.002
0.179,0.002
0.185,0.000
0.183,0.006
0.176,0.004
0.172,0.007
0.161,0.002
0.161,0.002
0.179,0.004
0.198,0.002
0.197,0.006
0.173,0.003
0.127,0.005
0.070,0.008
0.015,0.007
-0.036,0.010
-0.066,0.008
-0.069,0.007
-0.053,0.010
-0.032,0.009
-0.009,0.013
0.011,0.014
0.027,0.014
0.035,0.010
0.046,0.013
0.047,0.012
0.052,0.012
0.050,0.016
0.059,0.015
0.064,0.018
0.080,0.017
0.097,0.018
0.111,0.020
0.120,0.019
0.121,0.020
0.120,0.022
0.108,0.024
0.089,0.024
0.072,0.025
0.061,0.026
0.052,0.029
0.028,0.028
0.013,0.030
0.003,0.029
-0.004,0.030
-0.001,0.030
0.003,0.031
0.006,0.030
0.007,0.033
0.010,0.033
0.016,0.034
0.022,0.038
0.023,0.036
0.025,0.037
0.027,0.036
0.031,0.037
0.031,0.034
0.031,0.035
0.032,0.037
0.031,0.035
0.024,0.036
0.027,0.037
0.036,0.039
0.051,0.037
0.045,0.039
0.021,0.039
0.003,0.039
-0.006,0.044
-0.001,0.043
0.007,0.044
0.023,0.040
0.042,0.041
0.054,0.039
0.068,0.039
0.069,0.042
0.069,0.043
0.066,0.044
0.063,0.044
0.056,0.046
0.051,0.044
0.049,0.045
0.042,0.046
0.043,0.044
0.041,0.045
0.043,0.044
0.043,0.044
0.046,0.047
0.051,0.044
0.061,0.046
0.071,0.042
0.085,0.042
0.093,0.036
0.093,0.038
0.084,0.040
0.074,0.039
0.075,0.038
0.076,0.038
0.068,0.037
0.049,0.037
0.032,0.036
0.021,0.036
0.017,0.036
0.021,0.033
0.019,0.030
0.016,0.030
0.010,0.032
0.008,0.028
0.007,0.031
0.013,0.027
0.021,0.025
0.024,0.022
0.028,0.024
0.028,0.024
0.032,0.022
0.030,0.026
0.035,0.023
0.033,0.024
0.038,0.020
0.038,0.021
0.040,0.018
0.041,0.017
0.038,0.013
0.042,0.013
0.041,0.014
0.043,0.011
0.042,0.010
0.043,0.007
0.043,0.011
0.040,0.009
0.039,0.008
0.039,0.009
0.040,0.008
0.039,0.007
0.041,0.003
0.037,0.006
0.036,0.004
0.035,0.006
0.034,0.002
0.039,0.002
0.036,-0.000
0.035,-0.001
0.036,0.003
0.039,0.003
0.045,0.004
0.047,0.000
0.049,0.001
0.054,0.002
0.050,-0.002
0.048,-0.002
0.046,-0.003
0.050,-0.002
0.048,-0.006
0.049,-0.003
0.049,-0.001
0.052,-0.003
0.049,-0.002
0.053,-0.003
0.051,-0.002
0.051,-0.005
0.049,-0.002
0.044,-0.002
0.034,-0.001
0.015,-0.002
-0.007,-0.002
-0.021,-0.005
-0.012,-0.001
0.001,-0.003
-0.001,0.002
0.003,0.004
0.015,0.002
0.020,-0.000
0.031,0.001
0.037,0.002
0.043,0.004
0.039,0.007
0.036,0.005
0.031,0.006
0.008,0.004
-0.005,0.007
-0.012,0.007
0.002,0.006
0.026,0.011
0.054,0.010
0.078,0.010
0.088,0.009
0.098,0.010
0.099,0.015
0.099,0.015
0.101,0.018
0.100,0.012
0.100,0.015
0.091,0.013
0.082,0.012
0.071,0.016
0.065,0.014
0.051,0.019
0.041,0.015
0.026,0.017
0.015,0.016
-0.011,0.019
-0.032,0.017
-0.040,0.023
-0.039,0.024
-0.027,0.026
-0.007,0.026
0.002,0.028
0.006,0.030
-0.037,0.030
-0.083,0.030
-0.104,0.030
-0.086,0.032
-0.034,0.032
0.021,0.033
0.071,0.032
0.100,0.033
0.115,0.034
0.131,0.038
0.142,0.036
0.156,0.035
0.160,0.040
0.163,0.036
0.156,0.037
0.145,0.034
0.145,0.037
0.145,0.033
0.144,0.036
0.119,0.040
0.085,0.039
0.047,0.040
-0.001,0.037
-0.062,0.039
-0.109,0.042
-0.129,0.041
-0.116,0.041
-0.079,0.040
-0.029,0.043
0.013,0.038
0.048,0.040
0.065,0.041
0.077,0.041
0.081,0.043
0.087,0.041
0.091,0.041
0.099,0.040
0.110,0.040
0.118,0.041
0.118,0.040
0.119,0.042
0.115,0.040
0.116,0.041
0.104,0.039
0.099,0.041
0.088,0.044
0.081,0.040
0.073,0.040
0.065,0.037
0.063,0.039
0.056,0.036
0.055,0.039
0.050,0.039
0.050,0.038
0.045,0.039
0.037,0.035
0.028,0.035
0.015,0.036
-0.007,0.033
-0.032,0.034
-0.033,0.030
-0.013,0.031
0.023,0.030
0.065,0.028
0.096,0.031
0.122,0.028
0.138,0.027
0.143,0.027
0.139,0.026
0.123,0.024
0.103,0.021
0.077,0.025
0.048,0.022
0.026,0.022
0.019,0.023
0.016,0.023
0.023,0.018
0.027,0.017
0.033,0.014
0.032,0.015
0.034,0.012
0.036,0.011
0.038,0.012
0.038,0.010
0.036,0.012
0.035,0.010
0.036,0.010
0.044,0.010
0.050,0.010
0.055,0.004
0.055,0.006
0.047,0.004
0.037,0.005
0.028,0.005
0.026,0.001
0.028,0.001
0.032,0.000
0.032,0.001
0.030,0.003
0.029,0.001
0.030,0.001
0.031,-0.002
0.039,-0.003
0.048,-0.001
0.057,-0.001
0.064,0.000
0.067,-0.002
0.070,-0.003
0.063,-0.006
0.061,-0.006
0.055,-0.003
0.052,-0.004
0.048,-0.005
0.047,-0.005
0.045,-0.004
0.043,-0.003
0.040,-0.003
0.037,0.000
0.035,-0.005
0.034,-0.004
0.028,-0.009
0.029,-0.005
0.025,-0.003
0.027,-0.004
0.026,-0.005
0.025,-0.007
0.028,-0.010
0.044,-0.008
0.057,-0.007
0.039,-0.007
0.010,-0.007
0.004,-0.006
0.005,-0.001
0.020,0.002
0.037,0.008
0.054,0.005
0.067,0.005
0.080,0.002
0.088,0.004
0.085,0.000
0.084,0.005
0.072,0.010
0.065,0.009
0.046,0.008
0.041,0.009
0.013,0.009
-0.049,0.004
-0.090,0.006
-0.117,0.010
-0.128,0.010
-0.125,0.014
-0.100,0.012
-0.055,0.015
-0.002,0.013
0.056,0.015
0.101,0.016
0.139,0.016
0.150,0.014
0.156,0.016
0.152,0.017
0.145,0.015
0.133,0.021
0.125,0.021
0.109,0.026
0.095,0.028
0.081,0.028
0.068,0.026
0.064,0.028
0.054,0.024
0.053,0.029
0.048,0.026
0.050,0.030
0.043,0.031
0.044,0.032
0.040,0.034
0.040,0.031
0.040,0.034
0.043,0.035
0.045,0.036
0.045,0.035
0.041,0.034
0.039,0.037
0.038,0.033
0.032,0.035
0.030,0.032
0.033,0.034
0.037,0.030
0.044,0.033
0.048,0.035
0.050,0.036
0.048,0.037
0.048,0.037
0.049,0.039
0.052,0.039
0.063,0.037
0.077,0.040
0.086,0.040
0.088,0.039
0.084,0.038
0.081,0.037
0.079,0.036
0.082,0.036
0.075,0.040
0.070,0.038
0.054,0.041
0.039,0.039
0.029,0.040
0.006,0.041
-0.005,0.040
-0.010,0.044
-0.000,0.041
0.012,0.043
0.021,0.038
0.027,0.036
0.034,0.039
0.034,0.036
0.032,0.042
0.036,0.038
0.034,0.038
0.034,0.033
0.040,0.032
0.040,0.031
0.041,0.031
0.040,0.032
0.051,0.032
0.067,0.030
0.077,0.028
0.075,0.027
0.069,0.029
0.054,0.028
0.045,0.026
0.034,0.025
0.030,0.023
0.023,0.023
0.016,0.024
0.013,0.025
0.014,0.019
0.018,0.024
0.021,0.020
0.029,0.023
0.030,0.021
0.038,0.021
0.035,0.017
0.037,0.018
0.040,0.017
0.038,0.015
0.037,0.013
0.040,0.010
0.037,0.012
0.040,0.006
0.041,0.008
0.043,0.001
0.046,0.004
0.046,0.003
0.049,0.004
0.047,0.005
0.047,0.005
0.045,0.006
0.044,0.002
0.040,0.002
0.041,-0.001
0.042,-0.001
0.046,-0.001
0.054,-0.003
0.041,-0.002
0.020,-0.001
0.015,0.001
0.010,-0.002
0.009,-0.004
0.009,-0.003
0.015,-0.005
0.019,-0.001
0.030,-0.003
0.046,-0.006
0.060,-0.008
0.064,-0.009
0.065,-0.006
0.063,-0.009
0.053,-0.007
0.044,-0.011
0.044,-0.009
0.039,-0.009
0.044,-0.006
0.039,-0.007
0.040,-0.007
0.041,-0.008
0.046,-0.012
0.056,-0.007
0.060,-0.010
0.060,-0.008
0.055,-0.005
0.053,-0.007
0.050,-0.007
0.047,-0.007
0.045,-0.006
0.043,-0.004
0.039,-0.002
0.036,-0.001
0.034,-0.003
0.039,-0.000
0.038,-0.006
0.046,-0.005
0.047,-0.002
0.050,-0.003
0.047,0.002
0.049,0.002
0.050,0.001
0.049,0.001
0.055,0.001
0.064,0.006
0.079,0.004
0.079,0.009
0.070,0.006
0.062,0.008
0.053,0.007
0.045,0.005
0.036,0.010
0.033,0.008
0.020,0.010
0.014,0.009
0.016,0.012
0.018,0.007
0.025,0.011
0.026,0.008
0.030,0.010
0.031,0.011
0.049,0.012
0.065,0.015
0.078,0.015
0.080,0.021
0.072,0.017
0.052,0.022
0.037,0.022
0.021,0.024
0.017,0.023
0.019,0.023
0.021,0.024
0.031,0.024
0.036,0.024
0.041,0.026
0.049,0.027
0.045,0.026
0.047,0.032
0.054,0.029
0.065,0.031
0.077,0.029
0.093,0.032
0.089,0.030
0.080,0.032
0.063,0.034
0.050,0.032
0.027,0.034
0.004,0.029
-0.004,0.032
-0.005,0.033
0.000,0.034
0.006,0.037
0.013,0.038
0.024,0.037
0.034,0.036
0.041,0.036
0.043,0.039
0.042,0.039
0.041,0.041
0.038,0.042
0.040,0.042
0.037,0.038
0.039,0.036
0.034,0.037
0.036,0.039
0.032,0.043
0.035,0.043
0.034,0.044
0.035,0.043
0.036,0.040
0.036,0.044
0.034,0.041
0.036,0.042
0.032,0.039
0.035,0.043
0.036,0.041
0.039,0.041
0.043,0.041
0.044,0.041
0.045,0.042
0.042,0.039
0.045,0.038
0.040,0.037
0.043,0.033
0.041,0.034
0.040,0.034
0.042,0.034
0.047,0.035
0.049,0.033
0.048,0.033
0.048,0.034
0.047,0.035
0.045,0.032
0.042,0.035
0.041,0.030
0.046,0.028
0.045,0.026
0.044,0.024
0.041,0.028
0.045,0.026
0.041,0.026
0.043,0.026
0.043,0.026
0.043,0.024
0.045,0.023
0.045,0.019
0.049,0.017
0.045,0.013
0.048,0.010
0.045,0.010
0.046,0.009
0.045,0.007
0.045,0.005
0.045,0.005
0.043,0.004
0.042,0.003
0.043,0.002
0.048,0.000
0.047,0.005
0.046,0.002
0.049,0.004
0.047,0.001
0.047,0.002
0.046,-0.003
0.047,-0.002
0.042,-0.001
0.045,0.000
0.038,0.001
0.034,-0.002
0.035,0.001
0.036,-0.003
0.042,-0.003
0.045,-0.002
0.050,-0.008
0.052,-0.004
0.055,-0.005
0.051,-0.007
0.037,-0.007
0.017,-0.007
-0.003,-0.006
-0.015,-0.008
-0.012,-0.005
0.005,-0.007
0.025,-0.008
0.042,-0.008
0.053,-0.006
0.057,-0.007
0.062,-0.005
0.066,-0.007
0.069,-0.008
0.074,-0.009
0.076,-0.003
0.078,-0.004
0.082,-0.003
0.092,-0.006
0.100,-0.004
0.099,-0.003
0.091,-0.004
0.081,0.000
0.064,-0.002
0.054,0.000
0.042,-0.003
0.037,-0.004
0.030,0.001
0.026,-0.001
0.023,0.003
0.028,0.003
0.030,0.004
0.034,0.001
0.037,-0.002
0.038,0.005
0.036,0.002
0.039,0.007
0.039,0.005
0.038,0.007
0.040,0.008
0.044,0.011
0.042,0.011
0.045,0.011
0.042,0.017
0.045,0.015
0.042,0.016
0.041,0.014
0.041,0.014
0.040,0.012
0.045,0.014
0.042,0.014
0.041,0.016
0.045,0.019
0.055,0.018
0.069,0.022
0.084,0.022
0.094,0.025
0.099,0.025
0.091,0.028
0.078,0.028
0.062,0.030
0.043,0.028
0.019,0.029
0.002,0.027
-0.005,0.030
-0.001,0.032
0.013,0.032
0.037,0.035
0.056,0.034
0.071,0.036
0.069,0.034
0.062,0.034
0.041,0.035
0.029,0.034
0.020,0.039
0.012,0.033
0.008,0.034
0.015,0.033
0.023,0.034
0.027,0.035
0.034,0.033
0.038,0.037
0.044,0.038
0.037,0.041
0.037,0.042
0.038,0.043
0.038,0.041
0.037,0.041
0.040,0.041
0.036,0.040
0.036,0.040
0.038,0.038
0.037,0.041
0.036,0.038
0.039,0.039
0.037,0.042
0.039,0.042
0.035,0.043
0.038,0.042
0.040,0.043
0.042,0.041
0.044,0.042
0.042,0.041
0.040,0.042
0.041,0.044
0.041,0.040
0.041,0.039
0.043,0.038
0.043,0.037
0.044,0.038
0.043,0.036
0.041,0.038
0.044,0.036
0.048,0.035
0.047,0.034
0.046,0.036
0.044,0.036
0.045,0.035
0.046,0.035
0.046,0.031
0.046,0.028
0.046,0.031
0.044,0.026
0.047,0.028
0.047,0.025
0.049,0.027
0.046,0.022
0.049,0.024
0.049,0.023
0.046,0.020
0.042,0.025
0.046,0.021
0.043,0.023
0.047,0.016
0.043,0.017
0.046,0.014
0.049,0.016
0.047,0.012
0.048,0.012
0.047,0.010
0.046,0.008
0.044,0.011
0.047,0.009
0.043,0.012
0.046,0.008
0.044,0.008
0.046,0.006
0.049,0.006
0.049,0.005
0.050,0.003
0.052,0.004
0.050,0.002
0.047,0.004
0.047,0.000
0.049,-0.001
0.046,-0.003
0.047,0.000
0.042,0.001
0.043,-0.001
0.041,-0.000
0.043,-0.002
0.045,-0.001
0.046,-0.000
0.046,-0.001
0.047,-0.000
0.050,-0.007
0.048,-0.007
0.049,-0.011
0.049,-0.009
0.048,-0.007
0.045,-0.011
0.046,-0.005
0.043,-0.007
0.048,-0.005
0.045,-0.008
0.049,-0.006
0.047,-0.005
0.049,-0.005
0.045,-0.005
0.049,-0.009
0.048,-0.007
0.047,-0.005
0.047,-0.006
0.045,-0.003
0.045,-0.005
0.043,-0.001
0.042,-0.004
0.047,-0.003
0.045,-0.003
0.047,-0.005
0.044,-0.002
0.042,-0.002
0.041,-0.001
0.041,-0.002
0.045,-0.003
0.045,-0.001
0.044,0.002
0.039,0.003
0.040,0.004
0.039,0.003
0.040,0.003
0.044,0.007
0.043,0.003
0.042,0.006
0.042,0.008
0.041,0.008
0.039,0.010
0.038,0.009
0.042,0.010
0.040,0.008
0.042,0.010
0.044,0.011
0.042,0.011
0.040,0.013
0.044,0.013
0.042,0.013
0.046,0.013
0.044,0.014
0.046,0.013
0.047,0.016
0.044,0.014
0.039,0.018
0.036,0.020
0.035,0.020
0.037,0.024
0.040,0.023
0.042,0.027
0.047,0.027
0.047,0.028
0.048,0.027
0.046,0.028
0.045,0.027
0.045,0.029
0.042,0.029
0.043,0.028
0.041,0.031
0.041,0.033
0.041,0.034
0.041,0.032
0.043,0.036
0.042,0.028
0.043,0.031
0.044,0.033
0.041,0.031
0.037,0.034
0.040,0.032
0.040,0.037
0.039,0.031
0.041,0.037
0.040,0.035
0.040,0.038
0.037,0.041
0.043,0.041
0.039,0.039
0.041,0.037
0.041,0.039
0.041,0.038
0.041,0.037
0.040,0.040
0.040,0.038
0.039,0.038
0.039,0.035
0.046,0.037
0.050,0.040
0.066,0.041
0.077,0.043
0.079,0.040
0.075,0.040
0.063,0.035
0.054,0.035
0.045,0.039
0.036,0.037
0.027,0.041
0.021,0.035
0.024,0.035
0.023,0.032
0.032,0.033
0.034,0.035
0.040,0.034
0.036,0.035
0.037,0.034
0.042,0.033
0.039,0.031
0.044,0.032
0.039,0.033
0.044,0.033
0.041,0.033
0.042,0.030
0.045,0.028
0.045,0.026
0.042,0.024
0.043,0.026
0.039,0.024
0.037,0.024
0.040,0.021
0.043,0.025
0.043,0.023
0.047,0.023
0.047,0.024
0.049,0.021
0.050,0.022
0.050,0.022
0.049,0.019
0.049,0.015
0.049,0.013
0.045,0.010
0.049,0.010
0.049,0.009
0.051,0.008
0.053,0.005
0.052,0.003
0.054,0.006
0.058,0.005
0.059,0.005
0.057,0.004
0.058,0.001
0.048,0.003
0.045,0.003
0.040,0.004
0.039,0.002
0.034,0.003
0.034,0.002
0.037,0.002
0.040,-0.002
0.048,-0.004
0.048,-0.002
0.053,-0.004
0.047,-0.001
0.050,-0.002
0.049,-0.003
0.048,-0.005
0.049,-0.007
0.048,-0.005
0.047,-0.007
0.047,-0.009
0.045,-0.010
0.050,-0.007
0.048,-0.008
0.050,-0.009
0.045,-0.007
0.049,-0.008
0.044,-0.005
0.048,-0.008
0.048,-0.006
0.048,-0.009
0.047,-0.009
0.046,-0.006
0.046,-0.007
0.044,-0.009
0.047,-0.007
0.046,-0.007
0.047,-0.004
0.046,-0.003
0.047,-0.001
0.044,-0.005
0.049,-0.004
0.049,-0.003
0.047,-0.004
0.046,-0.001
0.045,0.001
0.043,-0.001
0.046,-0.002
0.047,-0.001
0.046,0.001
0.047,-0.000
0.046,0.007
0.043,0.003
0.046,0.004
0.044,0.000
0.047,0.001
0.045,0.004
0.048,0.003
0.045,0.008
0.044,0.008
0.045,0.011
0.045,0.007
0.047,0.010
0.044,0.008
0.046,0.008
0.048,0.010
0.050,0.011
0.044,0.015
0.046,0.013
0.042,0.016
0.046,0.015
0.039,0.018
0.042,0.015
0.039,0.022
0.039,0.020
0.041,0.023
0.041,0.022
0.046,0.024
0.043,0.023
0.046,0.026
0.050,0.029
0.057,0.026
0.068,0.030
0.078,0.025
0.076,0.030
0.072,0.027
0.062,0.029
0.050,0.027
0.043,0.032
0.033,0.032
0.024,0.033
0.016,0.035
0.018,0.036
0.019,0.035
0.023,0.033
0.032,0.033
0.034,0.038
0.036,0.035
0.038,0.039
0.038,0.040
0.041,0.041
0.041,0.039
0.044,0.038
0.042,0.039
0.045,0.037
0.043,0.042
0.045,0.040
0.045,0.043
0.043,0.041
0.047,0.040
0.042,0.038
0.044,0.036
0.042,0.040
0.043,0.039
0.040,0.041
0.042,0.040
0.044,0.041
0.042,0.039
0.042,0.042
0.042,0.044
0.042,0.042
0.043,0.045
0.044,0.039
0.046,0.039
0.046,0.036
0.048,0.036
0.046,0.038
0.044,0.038
0.045,0.036
0.045,0.037
0.046,0.036
0.048,0.036
0.046,0.031
0.049,0.037
0.047,0.035
0.048,0.033
0.046,0.033
0.047,0.033
0.047,0.032
0.048,0.030
0.046,0.030
0.047,0.028
0.046,0.030
0.048,0.027
0.049,0.030
0.045,0.029
0.046,0.029
0.042,0.030
0.044,0.025
0.044,0.023
0.046,0.022
0.046,0.021
0.049,0.018
0.051,0.021
0.051,0.021
0.051,0.016
0.049,0.016
0.051,0.012
0.049,0.017
0.049,0.011
0.048,0.014
0.047,0.010
0.049,0.012
0.048,0.008
0.051,0.010
0.050,0.006
0.051,0.005
0.049,0.009
0.049,0.004
0.046,0.005
0.049,0.001
0.051,0.004
0.051,-0.003
0.049,-0.002
0.046,0.001
0.042,0.002
0.039,0.001
0.036,0.001
0.034,0.004
0.040,0.000
0.045,0.002
0.049,0.004
0.047,0.001
0.049,-0.001
0.050,-0.001
0.052,-0.003
0.047,-0.006
0.049,-0.007
0.048,-0.004
0.058,-0.005
0.073,-0.005
0.084,-0.006
0.088,-0.005
0.078,0.000
0.063,-0.005
0.046,-0.000
0.036,-0.004
0.030,-0.003
0.025,-0.002
0.025,-0.006
0.027,-0.002
0.031,-0.006
0.036,-0.003
0.037,-0.004
0.039,-0.003
0.037,-0.003
0.039,-0.002
0.036,-0.000
0.038,-0.003
0.041,-0.001
0.048,0.000
0.052,-0.000
0.062,0.003
0.072,0.003
0.085,0.004
0.096,0.002
0.102,0.002
0.101,0.002
0.088,0.004
0.072,0.008
0.055,0.008
0.029,0.008
0.010,0.010
0.004,0.009
0.003,0.009
0.010,0.008
0.020,0.011
0.027,0.011
0.032,0.015
0.034,0.010
0.041,0.015
0.039,0.010
0.040,0.012
0.038,0.013
0.041,0.012
0.037,0.017
0.041,0.014
0.034,0.021
0.037,0.019
0.034,0.022
0.036,0.022
0.034,0.027
0.034,0.024
0.036,0.026
0.037,0.026
0.046,0.027
0.056,0.026
0.070,0.027
0.076,0.028
0.073,0.028
0.061,0.030
0.048,0.028
0.034,0.031
0.025,0.031
0.016,0.034
0.012,0.036
0.017,0.034
0.022,0.033
0.029,0.032
0.033,0.037
0.036,0.034
0.039,0.037
0.038,0.033
0.042,0.034
0.040,0.034
0.042,0.036
0.038,0.038
0.040,0.037
0.036,0.041
0.040,0.038
0.040,0.040
0.042,0.039
0.043,0.041
0.042,0.042
0.044,0.039
0.039,0.039
0.038,0.039
0.038,0.039
0.040,0.038
0.037,0.039
0.035,0.042
0.032,0.042
0.035,0.045
0.038,0.044
0.043,0.044
0.045,0.043
0.045,0.043
0.045,0.045
0.044,0.040
0.041,0.041
0.040,0.044
0.042,0.040
0.042,0.039
0.043,0.039
0.044,0.041
0.041,0.038
0.041,0.037
0.040,0.034
0.044,0.033
0.042,0.032
0.046,0.033
0.043,0.034
0.044,0.033
0.042,0.033
0.042,0.032
0.045,0.034
0.043,0.027
0.047,0.028
0.044,0.029
0.048,0.029
0.041,0.029
0.046,0.027
0.046,0.027
0.048,0.022
0.046,0.023
0.043,0.023
0.045,0.022
0.043,0.023
0.046,0.022
0.044,0.022
0.042,0.023
0.047,0.020
0.047,0.017
0.049,0.015
0.048,0.013
0.048,0.011
0.044,0.012
0.046,0.008
0.043,0.010
0.044,0.009
0.044,0.010
0.044,0.010
0.046,0.009
0.046,0.006
0.046,0.006
0.048,0.002
0.046,0.001
0.046,0.002
0.046,-0.001
0.048,0.000
0.046,-0.001
0.046,-0.002
0.047,0.002
0.047,-0.002
0.046,0.001
0.045,-0.003
0.046,-0.004
0.044,-0.006
0.049,-0.008
0.045,-0.006
0.050,-0.006
0.049,-0.003
0.049,-0.002
0.048,-0.001
0.048,-0.002
0.049,-0.004
0.047,-0.002
0.045,-0.005
0.043,-0.000
0.043,-0.002
0.044,-0.002
0.043,-0.007
0.048,-0.003
0.045,-0.001
0.046,-0.003
0.043,-0.003
0.046,-0.006
0.045,-0.003
0.043,-0.004
0.040,-0.004
0.041,-0.002
0.038,-0.003
0.037,-0.002
0.041,-0.003
0.040,-0.002
0.041,-0.003
0.041,-0.002
0.045,0.001
0.043,0.002
0.044,0.003
0.042,0.004
0.046,0.004
0.043,0.005
0.044,0.004
0.041,0.004
0.043,0.005
0.045,0.007
0.043,0.003
0.047,0.008
0.044,0.010
0.042,0.008
0.043,0.012
0.043,0.010
0.043,0.010
0.042,0.009
0.045,0.011
0.044,0.008
0.046,0.010
0.043,0.014
0.043,0.015
0.039,0.013
0.041,0.015
0.040,0.015
0.039,0.018
0.040,0.019
0.042,0.020
0.044,0.021
0.041,0.024
0.041,0.024
0.043,0.023
0.045,0.025
0.047,0.027
0.046,0.028
0.047,0.027
0.047,0.027
0.043,0.031
0.042,0.030
0.039,0.033
0.043,0.031
0.039,0.031
0.041,0.030
0.042,0.035
0.042,0.034
0.039,0.035
0.038,0.040
0.044,0.037
0.046,0.038
0.049,0.036
0.054,0.036
0.053,0.038
0.054,0.036
0.048,0.040
0.047,0.037
0.045,0.040
0.044,0.037
0.043,0.043
0.044,0.043
0.041,0.042
0.040,0.046
0.042,0.043
0.041,0.044
0.041,0.044
0.046,0.045
0.044,0.043
0.044,0.041
0.041,0.043
0.043,0.039
0.038,0.041
0.039,0.040
0.042,0.044
0.039,0.040
0.042,0.043
0.039,0.045
0.043,0.045
0.040,0.046
0.043,0.043
0.042,0.044
0.043,0.039
0.046,0.039
0.044,0.043
0.046,0.041
0.057,0.041
0.072,0.036
0.084,0.038
0.082,0.035
0.072,0.037
0.060,0.037
0.050,0.037
0.039,0.034
0.035,0.034
0.027,0.033
0.025,0.035
0.020,0.033
0.022,0.032
0.027,0.033
0.033,0.032
0.037,0.028
0.037,0.026
0.039,0.028
0.040,0.025
0.041,0.027
0.041,0.024
0.044,0.024
0.043,0.022
0.046,0.023
0.044,0.021
0.047,0.019
0.048,0.019
0.047,0.017
0.047,0.020
0.051,0.017
0.045,0.017
0.044,0.016
0.041,0.014
0.043,0.014
0.044,0.012
0.043,0.011
0.045,0.010
0.046,0.011
0.047,0.009
0.047,0.010
0.047,0.010
0.044,0.010
0.047,0.008
0.047,0.004
0.049,0.004
0.049,0.002
0.048,0.003
0.045,0.004
0.045,0.003
0.044,0.003
0.048,0.002
0.045,-0.001
0.047,-0.000
0.044,0.001
0.049,0.001
0.049,-0.000
0.049,-0.003
0.053,-0.005
0.050,-0.003
0.048,-0.003
0.047,-0.003
0.045,-0.003
0.049,-0.004
0.048,-0.003
0.048,-0.006
0.048,-0.001
0.045,-0.002
0.045,-0.000
0.044,-0.003
0.048,-0.001
0.043,-0.003
0.044,-0.003
0.044,-0.002
0.044,-0.001
0.045,0.001
0.047,-0.001
0.047,-0.003
0.047,0.001
0.046,0.002
0.044,0.001
0.044,-0.001
0.046,0.001
0.045,-0.002
0.044,-0.001
0.042,0.003
0.042,0.004
0.039,0.005
0.040,0.003
0.042,0.004
0.042,0.004
0.041,0.006
0.041,0.004
0.043,0.007
0.044,0.007
0.041,0.007
0.042,0.005
0.043,0.009
0.041,0.005
0.040,0.012
0.042,0.012
0.043,0.011
0.043,0.010
0.046,0.011
0.046,0.010
0.047,0.008
0.044,0.007
0.047,0.012
0.042,0.014
0.043,0.015
0.040,0.021
0.042,0.020
0.038,0.023
0.039,0.023
0.039,0.024
0.039,0.026
0.043,0.026
0.043,0.027
0.045,0.024
0.044,0.027
0.043,0.029
0.042,0.028
0.039,0.030
0.036,0.028
0.030,0.031
0.030,0.034
0.034,0.035
0.039,0.036
0.044,0.036
0.050,0.035
0.049,0.036
0.047,0.034
0.045,0.037
0.045,0.036
0.045,0.037
0.041,0.036
0.045,0.037
0.039,0.037
0.041,0.036
0.038,0.039
0.037,0.039
0.037,0.042
0.043,0.040
0.059,0.040
0.092,0.043
0.130,0.042
0.149,0.044
0.142,0.041
0.120,0.043
0.081,0.038
0.050,0.037
0.010,0.043
-0.015,0.041
-0.030,0.042
-0.025,0.041
-0.007,0.044
0.005,0.040
0.018,0.043
0.026,0.046
0.032,0.045
0.034,0.043
0.039,0.042
0.042,0.041
0.044,0.040
0.041,0.040
0.043,0.042
0.040,0.040
0.039,0.040
0.040,0.039
0.044,0.040
0.042,0.038
0.045,0.037
0.040,0.041
0.043,0.039
0.042,0.038
0.043,0.036
0.047,0.036
0.044,0.030
0.044,0.034
0.045,0.035
0.045,0.033
0.044,0.035
0.045,0.029
0.047,0.030
0.043,0.024
0.045,0.026
0.042,0.028
0.043,0.026
0.041,0.026
0.044,0.025
0.041,0.025
0.043,0.022
0.044,0.023
0.044,0.019
0.045,0.019
0.046,0.015
0.049,0.016
0.046,0.015
0.047,0.013
0.043,0.011
0.044,0.011
0.042,0.013
0.043,0.010
0.046,0.010
0.046,0.006
0.044,0.007
0.045,0.011
0.047,0.010
0.045,0.010
0.044,0.008
0.047,0.009
0.044,0.006
0.046,0.005
0.044,0.003
0.044,0.002
0.043,0.003
0.044,0.002
0.047,0.001
0.047,-0.001
0.050,-0.002
0.073,0.002
0.082,-0.002
0.084,0.000
0.075,-0.001
0.071,0.000
0.058,-0.005
0.049,-0.004
0.036,-0.003
0.030,-0.004
0.021,-0.003
0.018,-0.007
0.021,-0.006
0.024,-0.005
0.030,-0.005
0.032,-0.003
0.037,-0.004
0.040,-0.004
0.045,-0.007
0.047,-0.005
0.046,-0.004
0.043,-0.005
0.044,-0.005
0.044,-0.006
0.044,-0.005
0.046,-0.007
0.045,-0.006
0.046,-0.003
0.046,-0.002
0.043,0.002
0.046,0.000
0.045,0.001
0.047,0.002
0.047,0.002
0.046,0.004
0.046,0.003
0.047,0.007
0.044,0.004
0.049,0.004
0.045,0.004
0.050,0.005
0.046,0.007
0.043,0.006
0.040,0.009
0.042,0.009
0.043,0.009
0.044,0.008
0.052,0.009
0.067,0.010
0.086,0.012
0.090,0.014
0.091,0.011
0.080,0.012
0.065,0.011
0.074,0.014
0.103,0.015
0.119,0.014
0.122,0.016
0.104,0.015
0.072,0.024
0.044,0.021
0.010,0.026
-0.019,0.026
-0.032,0.026
-0.034,0.026
-0.016,0.029
-0.004,0.026
0.011,0.026
0.014,0.024
0.022,0.025
0.022,0.029
0.030,0.029
0.037,0.031
0.044,0.032
0.044,0.032
0.044,0.035
0.042,0.036
0.041,0.038
0.041,0.039
0.039,0.036
0.039,0.037
0.039,0.039
0.038,0.040
0.039,0.036
0.038,0.035
0.043,0.036
0.049,0.037
0.064,0.038
0.077,0.041
0.095,0.039
0.103,0.044
0.099,0.040
0.082,0.044
0.059,0.043
0.036,0.044
0.006,0.045
-0.006,0.044
-0.006,0.044
0.004,0.040
0.015,0.043
0.020,0.040
0.026,0.040
0.029,0.045
0.029,0.045
0.030,0.045
0.033,0.042
0.037,0.044
0.039,0.042
0.038,0.044
0.038,0.046
0.038,0.047
0.040,0.044
0.041,0.043
0.041,0.042
0.041,0.045
0.041,0.041
0.040,0.044
0.043,0.040
0.043,0.041
0.039,0.041
0.043,0.037
0.038,0.038
0.042,0.037
0.040,0.040
0.043,0.037
0.046,0.037
0.052,0.033
0.067,0.034
0.100,0.033
0.150,0.033
0.192,0.033
0.213,0.031
0.198,0.029
0.155,0.026
0.109,0.024
0.066,0.026
0.024,0.025
-0.004,0.025
-0.017,0.026
-0.013,0.026
-0.004,0.022
0.008,0.022
0.005,0.020
-0.004,0.019
-0.013,0.016
-0.016,0.017
-0.011,0.017
-0.005,0.014
0.000,0.013
0.016,0.012
0.024,0.011
0.031,0.010
0.036,0.012
0.045,0.008
0.054,0.008
0.086,0.005
0.134,0.006
0.203,0.008
0.266,0.004
0.280,0.003
0.241,0.002
0.175,0.002
0.113,0.004
0.041,-0.001
-0.009,0.002
-0.053,-0.002
-0.075,-0.003
-0.091,-0.003
-0.089,-0.001
-0.075,0.003
-0.047,0.002
-0.026,-0.000
-0.005,-0.004
0.012,-0.003
0.020,-0.008
0.024,-0.008
0.030,-0.004
0.031,-0.007
0.030,-0.003
0.030,-0.007
0.036,-0.005
0.037,-0.008
0.037,-0.005
0.037,-0.004
0.038,-0.005
0.034,-0.003
0.036,-0.007
0.037,-0.003
0.036,-0.004
0.035,-0.006
0.035,-0.003
0.035,-0.000
0.036,-0.002
0.039,-0.003
0.039,-0.002
0.040,-0.001
0.037,-0.002
0.039,0.001
0.038,0.001
0.040,0.001
0.038,0.001
0.041,0.002
0.037,0.006
0.038,0.005
0.035,0.007
0.038,0.004
0.039,0.008
0.039,0.007
0.038,0.007
0.039,0.009
0.038,0.008
0.035,0.012
0.035,0.011
0.038,0.015
0.039,0.012
0.041,0.012
0.040,0.015
0.040,0.012
0.038,0.016
0.042,0.013
0.038,0.015
0.041,0.014
0.041,0.020
0.039,0.017
0.039,0.018
0.037,0.018
0.039,0.021
0.037,0.020
0.042,0.020
0.039,0.025
0.041,0.025
0.042,0.030
0.054,0.028
0.079,0.030
0.114,0.029
0.134,0.028
0.134,0.028
0.106,0.030
0.056,0.031
0.032,0.028
0.006,0.034
-0.016,0.032
-0.016,0.038
-0.009,0.036
0.008,0.038
0.016,0.037
0.028,0.034
0.030,0.034
0.036,0.034
0.035,0.040
0.036,0.039
0.035,0.039
0.037,0.034
0.040,0.038
0.039,0.037
0.040,0.036
0.035,0.040
0.037,0.039
0.034,0.041
0.038,0.038
0.041,0.041
0.043,0.039
0.038,0.041
0.038,0.041
0.040,0.040
0.041,0.040
0.040,0.036
0.043,0.039
0.040,0.036
0.042,0.041
0.038,0.043
0.039,0.043
0.035,0.043
0.039,0.044
0.043,0.043
0.042,0.040
0.041,0.042
0.044,0.043
0.043,0.042
0.042,0.041
0.043,0.038
0.046,0.039
0.045,0.038
0.044,0.037
0.043,0.038
0.042,0.036
0.041,0.035
0.041,0.033
0.045,0.033
0.042,0.034
0.045,0.033
0.042,0.035
0.042,0.031
0.043,0.031
0.046,0.030
0.048,0.030
0.046,0.032
0.044,0.028
0.043,0.031
0.044,0.028
0.048,0.026
0.045,0.022
0.049,0.022
0.044,0.023
0.045,0.020
0.044,0.022
0.049,0.020
0.049,0.020
0.052,0.017
0.051,0.020
0.054,0.015
0.054,0.014
0.051,0.009
0.052,0.007
0.048,0.010
0.046,0.007
0.043,0.007
0.041,0.008
0.036,0.010
0.037,0.008
0.034,0.009
0.039,0.008
0.043,0.008
0.048,0.003
0.049,0.003
0.051,0.002
0.048,0.002
0.046,0.006
0.046,0.001
0.046,0.002
0.044,-0.001
0.046,0.000
0.042,-0.001
0.047,0.001
0.042,0.000
0.047,-0.003
0.047,-0.002
0.052,-0.002
0.047,-0.003
0.046,-0.004
0.044,-0.006
0.045,-0.007
0.044,-0.008
0.041,-0.008
0.040,-0.003
0.039,-0.003
0.041,-0.003
0.041,-0.005
0.044,-0.005
0.042,-0.006
0.045,-0.006
0.041,0.000
0.044,-0.004
0.042,-0.002
0.045,-0.006
0.049,-0.005
0.052,-0.006
0.052,-0.005
0.052,-0.003
0.049,-0.002
0.047,0.000
0.045,-0.001
0.042,0.001
0.036,0.001
0.035,0.002
0.034,0.001
0.040,0.003
0.039,0.002
0.040,-0.000
0.040,0.001
0.046,0.000
0.049,0.002
0.053,0.003
0.053,0.003
0.055,0.004
0.049,0.003
0.043,0.004
0.036,0.007
0.029,0.008
0.028,0.014
0.026,0.010
0.034,0.011
0.039,0.010
0.049,0.012
0.048,0.015
0.049,0.015
0.042,0.020
0.040,0.017
0.037,0.019
0.037,0.016
0.040,0.014
0.041,0.012
0.042,0.012
0.046,0.015
0.050,0.017
0.051,0.015
0.051,0.019
0.050,0.019
0.050,0.020
0.046,0.023
0.037,0.023
0.033,0.031
0.030,0.032
0.036,0.035
0.041,0.033
0.045,0.032
0.045,0.032
0.050,0.032
0.049,0.032
0.049,0.032
0.045,0.035
0.045,0.036
0.038,0.040
0.035,0.039
0.035,0.038
0.034,0.035
0.038,0.033
0.037,0.030
0.039,0.027
0.041,0.032
0.040,0.031
0.036,0.034
0.035,0.032
0.034,0.036
0.032,0.039
0.033,0.038
0.035,0.042
0.036,0.039
0.047,0.041
0.057,0.039
0.067,0.040
0.068,0.037
0.062,0.037
0.052,0.040
0.045,0.041
0.041,0.043
0.039,0.038
0.038,0.039
0.035,0.038
0.032,0.035
0.033,0.037
0.026,0.034
0.021,0.037
0.013,0.038
0.023,0.039
0.037,0.041
0.052,0.041
0.049,0.045
0.044,0.043
0.040,0.041
0.040,0.037
0.043,0.043
0.043,0.052
0.042,0.060
0.044,0.070
0.056,0.065
0.055,0.053
0.048,0.026
0.037,0.010
0.031,0.007
0.032,0.007
0.045,0.012
0.056,0.013
0.061,0.019
0.058,0.024
0.052,0.026
0.043,0.033
0.033,0.043
0.027,0.055
0.023,0.048
0.031,0.035
0.047,0.035
0.061,0.039
0.063,0.043
0.062,0.031
0.053,0.015
0.051,-0.006
0.050,-0.017
0.053,-0.022
0.065,-0.019
0.069,-0.009
0.067,0.004
0.056,0.015
0.043,0.024
0.036,0.033
0.030,0.030
0.027,0.038
0.022,0.049
0.018,0.059
0.017,0.011
0.032,-0.072
0.043,-0.092
0.046,-0.003
0.042,0.074
0.037,0.115
0.039,0.106
0.046,0.061
0.053,-0.005
0.056,-0.064
0.054,-0.091
0.052,-0.091
0.046,-0.083
0.049,-0.066
0.050,-0.049
0.060,-0.028
0.063,-0.013
0.062,-0.002
0.058,-0.005
0.049,-0.027
0.044,-0.011
0.039,0.033
0.036,0.070
0.030,0.084
0.039,0.091
0.047,0.088
0.061,0.068
0.063,0.041
0.056,-0.003
0.049,-0.038
0.042,-0.050
0.043,-0.046
0.039,-0.036
0.036,-0.050
0.037,-0.091
0.034,-0.133
0.033,-0.135
0.038,-0.084
0.046,-0.008
0.047,0.059
0.051,0.106
0.051,0.130
0.054,0.125
0.058,0.097
0.065,0.058
0.070,0.016
0.076,-0.029
0.073,-0.055
0.071,-0.061
0.061,-0.054
0.052,-0.048
0.044,-0.044
0.040,-0.048
0.036,-0.039
0.026,-0.032
0.022,-0.014
0.018,0.003
0.024,0.014
0.030,0.026
0.038,0.027
0.042,0.025
0.039,0.027
0.038,0.028
0.035,0.031
0.036,0.025
0.037,0.023
0.039,0.015
0.041,0.012
0.041,0.007
0.041,0.010
0.044,0.011
0.048,0.013
0.050,0.013
0.058,0.016
0.057,0.016
0.062,0.016
0.059,0.018
0.059,0.018
0.050,0.017
0.043,0.014
0.036,0.008
0.029,0.002
0.028,0.005
0.036,0.005
0.037,0.013
0.042,0.013
0.044,0.024
0.039,0.031
0.037,0.042
0.029,0.044
0.023,0.043
0.017,0.048
0.026,0.045
0.045,0.041
0.064,0.036
0.073,0.035
0.069,0.034
0.061,0.038
0.053,0.049
0.050,0.051
0.043,0.056
0.036,0.060
0.033,0.068
0.027,0.072
0.023,0.072
0.016,0.072
0.022,0.059
0.038,0.048
0.055,0.039
0.061,0.024
0.058,0.003
0.049,-0.002
0.044,0.006
0.045,0.011
0.045,0.012
0.047,0.014
0.043,0.019
0.039,0.025
0.034,0.026
0.032,0.027
0.021,0.027
0.021,0.029
0.024,0.030
0.036,0.038
0.037,0.028
0.044,-0.017
0.055,-0.029
0.066,0.035
0.062,0.107
0.050,0.149
0.029,0.147
0.014,0.117
0.010,0.055
0.023,0.009
0.053,-0.020
0.078,-0.027
0.082,-0.021
0.074,-0.003
0.057,0.014
0.048,0.028
0.045,0.033
0.045,0.035
0.047,0.024
0.045,0.010
0.038,0.006
0.029,0.009
0.024,0.015
0.023,0.018
0.030,0.018
0.035,0.020
0.040,0.015
0.049,0.018
0.065,0.015
0.073,0.010
0.076,0.007
0.065,0.006
0.049,0.007
0.039,0.006
0.037,0.008
0.040,0.011
0.045,0.017
0.051,-0.008
0.056,-0.045
0.056,-0.049
0.061,0.020
0.059,0.090
0.062,0.129
0.060,0.138
0.053,0.106
0.045,0.045
0.039,-0.031
0.033,-0.079
0.026,-0.087
0.016,-0.075
0.016,-0.052
0.030,-0.034
0.050,-0.024
0.058,-0.019
0.062,-0.011
0.056,-0.006
0.054,-0.009
0.048,-0.004
0.046,-0.004
0.045,-0.003
0.043,-0.002
0.043,-0.005
0.042,-0.012
0.042,-0.018
0.041,-0.015
0.042,-0.018
0.045,-0.012
0.045,-0.009
0.044,-0.008
0.041,-0.007
0.043,-0.011
0.047,-0.013
0.047,-0.019
0.049,-0.016
0.050,-0.011
0.052,-0.011
0.050,-0.007
0.049,-0.005
0.045,-0.002
0.038,-0.001
0.027,0.001
0.025,-0.000
0.026,-0.007
0.036,-0.014
0.044,-0.019
0.052,-0.017
0.050,-0.004
0.046,-0.002
0.041,-0.007
0.043,-0.012
0.049,-0.002
0.047,0.003
0.045,0.015
0.039,0.023
0.039,0.032
0.037,0.037
0.041,0.033
0.040,0.023
0.039,0.007
0.040,-0.003
0.047,-0.014
0.055,-0.021
0.058,-0.025
0.045,-0.024
0.031,-0.010
0.012,-0.020
-0.003,-0.051
-0.022,-0.047
-0.004,0.025
0.034,0.090
0.065,0.140
0.065,0.138
0.049,0.114
0.033,0.046
0.035,-0.014
0.044,-0.052
0.060,-0.060
0.062,-0.044
0.058,-0.029
0.052,-0.006
0.049,0.010
0.045,0.019
0.039,0.020
0.036,0.024
0.031,0.023
0.028,0.023
0.026,0.027
0.028,0.027
0.028,0.031
0.033,0.031
0.039,0.032
0.047,0.028
0.049,0.024
0.051,0.024
0.049,0.023
0.050,0.034
0.047,0.039
0.045,0.045
0.047,0.045
0.048,0.045
0.042,0.046
0.042,0.046
0.036,0.053
0.041,0.054
0.038,0.062
0.041,0.064
0.045,0.063
0.045,0.049
0.043,0.028
0.036,0.019
0.027,0.016
0.015,0.025
0.008,0.030
0.014,0.038
0.028,0.037
0.046,0.035
0.049,0.036
0.050,0.035
0.045,0.035
0.049,0.036
0.051,0.038
0.054,0.039
0.057,0.040
0.052,0.042
0.047,0.037
0.041,0.033
0.032,0.028
0.030,0.028
0.027,0.030
0.030,0.026
0.039,0.023
0.046,0.018
0.055,0.013
0.061,0.039
0.063,0.081
0.058,0.135
0.050,0.156
0.037,0.097
0.038,0.023
0.035,-0.018
0.038,-0.027
0.045,-0.015
0.046,0.003
0.045,0.009
0.045,0.011
0.046,0.007
0.050,0.009
0.047,0.007
0.046,0.013
0.045,0.019
0.045,0.020
0.042,0.021
0.043,0.019
0.043,0.019
0.042,0.016
0.044,0.016
0.049,0.009
0.051,0.008
0.053,0.004
0.053,0.006
0.050,0.006
0.048,0.007
0.041,0.010
0.042,0.011
0.043,0.010
0.049,0.010
0.054,0.008
0.054,0.007
0.053,0.007
0.049,0.004
0.048,0.002
0.044,0.005
0.045,0.003
0.042,0.002
0.043,-0.002
0.045,0.000
0.037,0.001
0.035,0.003
0.032,0.006
0.037,0.006
0.046,0.006
0.053,0.004
0.060,0.001
0.067,0.003
0.068,0.001
0.062,0.003
0.051,0.000
0.050,0.004
0.046,0.002
0.052,-0.002
0.054,-0.001
0.055,-0.007
0.051,-0.006
0.053,-0.011
0.052,-0.014
0.052,-0.015
0.049,-0.014
0.048,-0.009
0.049,-0.009
0.047,-0.004
0.047,-0.003
0.042,-0.003
0.046,0.003
0.050,0.002
0.048,0.002
0.034,0.001
0.012,0.001
-0.029,-0.002
-0.069,0.001
-0.079,0.006
-0.026,0.009
0.056,0.008
0.115,0.000
0.119,0.001
0.101,-0.002
0.079,0.000
0.061,0.013
0.049,0.027
0.051,0.039
0.049,0.046
0.054,0.048
0.051,0.037
0.051,0.016
0.046,0.004
0.039,-0.003
0.032,0.003
0.037,0.010
0.037,0.017
0.039,0.024
0.041,0.031
0.042,0.014
0.043,-0.004
0.041,-0.008
0.041,-0.009
0.038,-0.000
0.037,0.008
0.034,0.014
0.034,0.017
0.031,0.023
0.031,0.021
0.027,0.026
0.027,0.028
0.028,0.027
0.029,0.030
0.031,0.031
0.040,0.036
0.043,0.035
0.046,0.039
0.049,0.038
0.049,0.047
0.046,0.053
0.048,0.063
0.043,0.060
0.044,0.047
0.044,0.029
0.045,0.020
0.041,0.028
0.042,0.035
0.042,0.040
0.042,0.032
0.047,0.030
0.045,0.025
0.046,0.024
0.049,0.027
0.056,0.024
0.060,0.024
0.062,0.022
0.059,0.026
0.051,0.032
0.039,0.037
0.030,0.043
0.028,0.049
0.036,0.052
0.038,0.055
0.039,0.057
0.030,0.063
0.019,0.061
0.010,0.065
0.007,0.062
0.010,0.055
0.023,0.054
0.036,0.049
0.039,0.051
0.033,0.048
0.023,0.054
0.020,0.045
0.030,0.034
0.047,0.023
0.066,0.019
0.065,0.023
0.060,0.022
0.049,0.029
0.049,0.030
0.048,0.036
0.051,0.034
0.050,0.035
0.049,0.034
0.048,0.037
0.046,0.040
0.041,0.042
0.040,0.042
0.039,0.040
0.042,0.037
0.045,0.033
0.045,0.032
0.042,0.033
0.037,0.032
0.042,0.033
0.049,0.034
0.052,0.031
0.054,0.029
0.052,0.030
0.049,0.029
0.044,0.031
0.043,0.033
0.038,0.038
0.038,0.034
0.045,0.036
0.055,0.025
0.057,0.021
0.046,0.011
0.024,0.010
-0.001,0.008
-0.021,0.010
-0.019,0.010
0.025,0.010
0.073,0.011
0.099,0.023
0.090,0.032
0.081,0.037
0.065,0.040
0.062,0.035
0.055,0.032
0.054,0.024
0.056,0.020
0.056,0.010
0.062,0.007
0.058,-0.002
0.054,-0.005
0.047,-0.001
0.045,-0.001
0.037,-0.001
0.032,0.001
0.032,0.005
0.038,0.014
0.050,0.020
0.056,0.028
0.048,0.007
0.042,-0.008
0.034,-0.018
0.032,-0.016
0.033,-0.007
0.039,0.002
0.043,0.003
0.047,0.002
0.043,0.004
0.047,0.015
0.053,0.022
0.054,0.034
0.051,0.033
0.051,0.023
0.047,0.002
0.049,-0.016
0.043,-0.020
0.049,-0.017
0.054,-0.004
0.062,-0.003
0.058,0.004
0.046,0.005
0.043,0.010
0.039,0.017
0.041,0.018
0.040,0.011
0.045,-0.006
0.048,-0.016
0.051,-0.019
0.049,-0.018
0.043,-0.012
0.035,-0.009
0.029,-0.005
0.020,-0.003
0.019,0.002
0.025,0.005
0.046,0.006
0.062,0.003
0.068,-0.001
0.064,0.000
0.060,0.000
0.054,0.003
0.049,0.006
0.049,0.007
0.047,0.009
0.049,0.010
0.045,0.014
0.042,0.012
0.039,0.009
0.034,0.006
0.034,0.008
0.031,0.010
0.030,0.010
0.032,0.014
0.040,0.009
0.039,0.013
0.042,0.011
0.038,0.013
0.032,0.014
0.028,0.023
0.025,0.026
0.042,0.031
0.058,0.032
0.073,0.034
0.071,0.035
0.065,0.032
0.052,0.035
0.044,0.034
0.036,0.033
0.036,0.029
0.035,0.029
0.038,0.025
0.039,0.028
0.044,0.028
0.048,0.026
0.048,0.024
0.047,0.027
0.041,0.032
0.031,0.033
0.018,0.038
0.011,0.042
0.014,0.043
0.029,0.040
0.051,0.043
0.071,0.039
0.078,0.042
0.067,0.040
0.052,0.040
0.036,0.040
0.024,0.040
0.014,0.045
0.016,0.051
0.029,0.054
0.043,0.058
0.054,0.057
0.061,0.053
0.059,0.048
0.060,0.043
0.053,0.040
0.054,0.036
0.056,0.036
0.055,0.031
0.059,0.033
0.061,0.033
0.062,0.038
0.060,0.043
0.058,0.050
0.050,0.060
0.042,0.062
0.030,0.068
0.020,0.066
0.014,0.059
0.011,0.054
0.013,0.045
0.025,0.040
0.037,0.036
0.049,0.031
0.054,0.027
0.057,0.030
0.052,0.032
0.048,0.036
0.044,0.037
0.044,0.035
0.044,0.032
0.040,0.029
0.036,0.028
0.037,0.031
0.037,0.030
0.030,0.036
0.027,0.040
0.037,0.040
0.049,0.038
0.059,0.036
0.061,0.037
0.056,0.030
0.048,0.027
0.041,0.023
0.051,0.021
0.054,0.014
0.061,0.015
0.059,0.019
0.059,0.023
0.046,0.029
0.044,0.025
0.034,0.031
0.033,0.041
0.032,0.051
0.048,0.056
0.058,0.047
0.058,0.024
0.048,-0.005
0.033,-0.027
0.013,-0.033
-0.005,-0.026
0.007,-0.021
0.049,-0.009
0.087,-0.005
0.101,-0.002
0.101,-0.002
0.103,0.003
0.090,0.001
0.072,0.005
0.053,0.008
0.045,0.009
0.040,0.006
0.039,0.003
0.040,0.004
0.043,0.006
0.042,0.004
0.042,0.003
0.043,-0.001
0.049,-0.002
0.049,-0.003
0.050,-0.006
0.048,-0.002
0.046,-0.004
0.051,-0.002
0.049,-0.007
0.055,-0.003
0.049,0.002
0.044,-0.001
0.036,-0.000
0.033,0.001
0.033,0.003
0.037,0.002
0.050,0.005
0.066,0.009
0.077,0.005
0.076,0.008
0.073,0.006
0.071,0.010
0.065,0.011
0.061,0.016
0.051,0.019
0.045,0.022
0.035,0.021
0.029,0.019
0.030,0.014
0.032,0.010
0.034,-0.002
0.035,-0.004
0.036,-0.011
0.046,-0.007
0.047,-0.007
0.054,-0.006
0.054,-0.003
0.054,-0.005
0.049,0.000
0.042,0.002
0.033,0.011
0.021,0.010
0.016,0.019
0.019,0.023
0.037,0.019
0.052,0.020
0.062,0.018
0.057,0.018
0.054,0.018
0.050,0.023
0.045,0.023
0.047,0.032
0.050,0.046
0.053,0.061
0.055,0.080
0.056,0.069
0.049,0.048
0.047,0.013
0.041,-0.013
0.045,-0.021
0.045,-0.012
0.040,-0.001
0.034,0.010
0.028,0.013
0.023,0.016
0.021,0.017
0.020,0.023
0.028,0.025
0.047,0.024
0.052,0.025
0.052,0.024
0.045,0.038
0.046,0.051
0.053,0.068
0.053,0.069
0.048,0.063
0.036,0.051
0.031,0.036
0.023,0.032
0.024,0.031
0.025,0.033
0.035,0.035
0.047,0.040
0.055,0.043
0.054,0.048
0.049,0.050
0.046,0.047
0.046,0.046
0.045,0.042
0.046,0.044
0.043,0.048
0.047,0.052
0.040,0.056
0.042,0.055
0.040,0.056
0.042,0.047
0.042,0.043
0.046,0.038
0.047,0.032
0.046,0.028
0.048,0.024
0.046,0.021
0.038,0.020
0.024,0.018
0.013,0.024
-0.002,0.033
-0.005,0.045
0.011,0.050
0.055,0.051
0.080,0.048
0.082,0.044
0.069,0.047
0.055,0.047
0.044,0.050
0.039,0.050
0.038,0.050
0.036,0.048
0.037,0.047
0.037,0.047
0.040,0.040
0.049,0.039
0.049,0.034
0.053,0.033
0.050,0.033
0.054,0.033
0.053,0.032
0.054,0.028
0.055,0.028
0.054,0.028
0.051,0.028
0.048,0.035
0.049,0.034
0.046,0.034
0.051,0.032
0.056,0.031
0.060,0.026
0.065,0.025
0.063,0.023
0.062,0.022
0.059,0.023
0.056,0.020
0.051,0.020
0.049,0.017
0.045,0.018
0.043,0.018
0.042,0.019
0.036,0.020
0.034,0.024
0.030,0.024
0.028,0.024
0.026,0.025
0.030,0.023
0.032,0.027
0.037,0.021
0.040,0.023
0.041,0.026
0.051,0.032
0.053,0.032
0.056,0.027
0.055,0.010
0.056,0.003
0.055,0.007
0.054,0.011
0.052,0.010
0.053,0.003
0.053,-0.013
0.056,-0.022
0.058,-0.022
0.059,-0.019
0.050,-0.016
0.039,-0.013
0.024,-0.007
0.017,-0.005
0.013,-0.005
0.026,-0.006
0.046,-0.004
0.067,-0.006
0.077,-0.009
0.079,-0.006
0.075,-0.009
0.066,-0.008
0.057,-0.006
0.056,-0.003
0.051,0.002
0.052,0.006
0.048,0.010
0.045,0.011
0.046,0.011
0.041,0.009
0.044,0.010
0.042,0.011
0.042,0.005
0.041,0.004
0.047,-0.003
0.050,-0.006
0.054,-0.007
0.054,-0.008
0.049,-0.004
0.045,-0.006
0.032,0.001
0.026,0.000
0.024,0.008
0.019,0.008
0.017,0.014
0.029,0.016
0.047,0.017
0.058,0.015
0.064,0.010
0.062,0.009
0.054,0.009
0.047,0.011
0.047,0.015
0.047,0.011
0.051,0.013
0.051,0.010
0.052,0.010
0.049,0.015
0.044,0.014
0.041,0.019
0.038,0.015
0.038,0.020
0.036,0.020
0.036,0.021
0.038,0.022
0.038,0.025
0.038,0.025
0.040,0.029
0.039,0.031
0.041,0.035
0.043,0.033
0.051,0.034
0.053,0.032
0.055,0.032
0.049,0.030
0.048,0.034
0.038,0.038
0.032,0.039
0.026,0.044
0.030,0.043
0.035,0.048
0.041,0.045
0.041,0.043
0.044,0.041
0.042,0.036
0.040,0.033
0.036,0.033
0.037,0.033
0.035,0.035
0.036,0.037
0.039,0.036
0.038,0.036
0.040,0.040
0.042,0.041
0.046,0.044
0.042,0.042
0.046,0.044
0.047,0.045
0.047,0.044
0.048,0.043
0.051,0.043
0.053,0.043
0.054,0.044
0.055,0.045
0.056,0.050
0.052,0.048
0.043,0.049
0.037,0.046
0.035,0.044
0.026,0.042
0.028,0.042
0.033,0.047
0.049,0.047
0.059,0.044
0.062,0.041
0.060,0.041
0.049,0.040
0.047,0.038
0.041,0.041
0.045,0.036
0.043,0.035
0.042,0.034
0.039,0.036
0.036,0.036
0.029,0.037
0.029,0.038
0.028,0.038
0.031,0.041
0.035,0.037
0.044,0.039
0.048,0.036
0.049,0.035
0.047,0.035
0.048,0.035
0.047,0.035
0.046,0.032
0.045,0.029
0.042,0.031
0.041,0.030
0.042,0.032
0.042,0.026
0.043,0.027
0.041,0.024
0.046,0.027
0.047,0.025
0.049,0.023
0.049,0.023
0.053,0.019
0.052,0.018
0.053,0.017
0.049,0.020
0.050,0.015
0.047,0.017
0.044,0.016
0.044,0.014
0.042,0.011
0.044,0.011
0.044,0.009
0.045,0.010
0.041,0.013
0.045,0.011
0.045,0.012
0.051,0.009
0.058,0.007
0.060,0.000
0.063,-0.001
0.060,0.000
0.059,-0.002
0.060,0.001
0.055,0.003
0.058,0.005
0.056,0.006
0.055,0.005
0.050,0.005
0.049,0.002
0.053,-0.002
0.050,-0.003
0.052,-0.004
0.052,-0.003
0.049,-0.006
0.050,-0.009
0.051,-0.010
0.056,-0.010
0.055,-0.010
0.057,-0.007
0.052,-0.002
0.052,-0.001
0.048,0.002
0.047,-0.001
0.048,0.003
0.044,0.003
0.040,0.005
0.035,0.005
0.033,0.006
0.034,0.006
0.036,0.001
0.040,0.003
0.042,0.004
0.044,0.005
0.047,0.010
0.046,0.006
0.048,0.007
0.047,0.007
0.048,0.005
0.045,0.004
0.047,0.005
0.048,0.007
0.048,0.006
0.046,0.009
0.045,0.005
0.046,0.002
0.044,0.000
0.039,0.004
0.036,0.010
0.034,0.009
0.033,0.013
0.034,0.014
0.039,0.014
0.037,0.016
0.040,0.015
0.038,0.018
0.042,0.015
0.043,0.016
0.042,0.013
0.044,0.015
0.044,0.016
0.044,0.012
0.040,0.016
0.045,0.015
0.041,0.017
0.041,0.019
0.040,0.022
0.040,0.023
0.035,0.027
0.037,0.030
0.034,0.032
0.036,0.035
0.040,0.035
0.038,0.034
0.044,0.034
0.041,0.033
0.042,0.035
0.043,0.032
0.042,0.031
0.041,0.029
0.039,0.027
0.037,0.029
0.038,0.030
0.041,0.032
0.043,0.032
0.044,0.033
0.045,0.039
0.046,0.037
0.044,0.039
0.044,0.041
0.046,0.040
0.044,0.040
0.043,0.039
0.038,0.042
0.038,0.038
0.039,0.039
0.036,0.036
0.038,0.040
0.038,0.039
0.039,0.039
0.039,0.044
0.040,0.041
0.040,0.043
0.038,0.041
0.045,0.044
0.045,0.042
0.045,0.043
0.040,0.044
0.040,0.045
0.037,0.044
0.038,0.044
0.040,0.041
0.042,0.035
0.043,0.031
0.040,0.029
0.040,0.029
0.038,0.031
0.038,0.035
0.041,0.039
0.041,0.039
0.042,0.043
0.043,0.049
0.041,0.050
0.043,0.052
0.042,0.049
0.047,0.046
0.046,0.043
0.047,0.041
0.045,0.044
0.044,0.042
0.041,0.041
0.047,0.038
0.048,0.036
0.046,0.035
0.047,0.032
0.046,0.036
0.046,0.034
0.045,0.031
0.044,0.031
0.048,0.031
0.046,0.028
0.045,0.027
0.046,0.031
0.047,0.026
0.046,0.028
0.044,0.026
0.047,0.024
0.046,0.021
0.052,0.018
0.050,0.016
0.052,0.016
0.054,0.016
0.054,0.015
0.050,0.016
0.054,0.016
0.050,0.015
0.052,0.012
0.045,0.012
0.048,0.012
0.046,0.013
0.050,0.010
0.051,0.009
0.052,0.008
0.053,0.008
0.050,0.009
0.049,0.007
0.052,0.009
0.048,0.007
0.051,0.007
0.049,0.005
0.050,0.005
0.048,0.004
0.051,0.002
0.051,0.005
0.053,0.003
0.050,0.004
0.049,0.006
0.047,0.005
0.048,0.001
0.049,-0.001
0.049,-0.001
0.049,0.003
0.050,0.000
0.047,0.003
0.045,0.001
0.052,0.002
0.049,0.001
0.050,-0.002
0.045,-0.001
0.046,0.000
0.049,-0.000
0.047,-0.003
0.049,-0.005
0.047,-0.000
0.045,-0.002
0.042,-0.001
0.041,-0.005
0.045,-0.002
0.047,-0.003
0.046,-0.004
0.043,-0.002
0.046,-0.002
0.040,0.000
0.044,-0.002
0.047,0.005
0.045,0.003
0.048,0.008
0.043,0.010
0.043,0.010
0.041,0.009
0.042,0.008
0.046,0.008
0.047,0.007
0.046,0.008
0.048,0.013
0.047,0.010
0.044,0.012
0.045,0.010
0.047,0.010
0.046,0.013
0.048,0.015
0.046,0.018
0.045,0.018
0.047,0.018
0.046,0.020
0.048,0.019
0.046,0.017
0.047,0.018
0.047,0.019
0.045,0.020
0.041,0.025
0.039,0.022
0.036,0.025
0.035,0.023
0.036,0.023
0.034,0.022
0.041,0.024
0.038,0.026
0.041,0.026
0.041,0.029
0.045,0.030
0.041,0.032
0.041,0.033
0.041,0.035
0.039,0.036
0.039,0.036
0.041,0.033
0.040,0.033
0.040,0.032
0.041,0.034
0.043,0.035
0.045,0.036
0.046,0.038
0.045,0.036
0.046,0.036
0.046,0.037
0.047,0.038
0.049,0.036
0.050,0.039
0.048,0.038
0.046,0.037
0.041,0.037
0.037,0.034
0.036,0.032
0.036,0.035
0.037,0.035
0.040,0.038
0.039,0.041
0.039,0.044
0.037,0.044
0.038,0.044
0.033,0.044
0.036,0.046
0.034,0.044
0.037,0.041
0.034,0.045
0.040,0.049
0.047,0.054
0.050,0.051
0.051,0.051
0.050,0.049
0.048,0.049
0.045,0.051
0.044,0.047
0.046,0.047
0.047,0.043
0.050,0.042
0.047,0.042
0.047,0.040
0.048,0.039
0.046,0.038
0.047,0.035
0.046,0.033
0.044,0.036
0.046,0.038
0.043,0.037
0.046,0.037
0.045,0.035
0.048,0.037
0.046,0.036
0.044,0.036
0.047,0.037
0.046,0.035
0.050,0.033
0.046,0.031
0.050,0.030
0.044,0.028
0.045,0.025
0.044,0.029
0.047,0.026
0.045,0.025
0.049,0.025
0.049,0.023
0.052,0.023
0.052,0.019
0.053,0.018
0.049,0.015
0.053,0.017
0.051,0.013
0.053,0.017
0.050,0.014
0.049,0.014
0.047,0.012
0.049,0.013
0.049,0.013
0.050,0.009
0.052,0.007
0.052,0.005
0.052,0.008
0.051,0.003
0.047,0.005
0.046,0.002
0.045,0.004
0.042,-0.001
0.042,0.002
0.039,0.005
0.044,0.004
0.048,0.004
0.050,0.003
0.049,0.001
0.049,0.004
0.047,0.004
0.048,0.004
0.045,0.002
0.047,0.003
0.050,0.000
0.050,-0.002
0.048,-0.001
0.049,-0.003
0.050,-0.001
0.051,-0.001
0.051,0.002
0.051,-0.000
0.049,-0.000
0.048,0.003
0.047,-0.002
0.048,0.001
0.045,-0.001
0.052,-0.002
0.049,-0.004
0.049,-0.003
0.047,0.000
0.045,-0.002
0.045,0.000
0.045,-0.002
0.048,0.000
0.047,0.001
0.049,-0.000
0.044,0.005
0.045,0.004
0.047,0.006
0.041,0.005
0.040,0.007
0.041,0.011
0.043,0.011
0.043,0.012
0.042,0.010
0.046,0.011
0.048,0.008
0.046,0.005
0.045,0.008
0.045,0.007
0.039,0.009
0.040,0.009
0.045,0.009
0.043,0.011
0.043,0.008
0.045,0.014
0.044,0.012
0.043,0.013
0.043,0.013
0.045,0.014
0.041,0.013
0.045,0.015
0.044,0.014
0.044,0.013
0.045,0.019
0.041,0.018
0.041,0.021
0.037,0.021
0.041,0.027
0.038,0.027
0.039,0.027
0.038,0.027
0.042,0.026
0.041,0.028
0.043,0.032
0.041,0.030
0.043,0.033
0.039,0.032
0.040,0.033
0.038,0.034
0.039,0.031
0.034,0.035
0.037,0.037
0.037,0.034
0.039,0.033
0.042,0.033
0.043,0.039
0.041,0.034
0.042,0.037
0.041,0.036
0.040,0.036
0.037,0.036
0.044,0.036
0.038,0.036
0.039,0.038
0.035,0.042
0.039,0.038
0.040,0.041
0.040,0.038
0.042,0.038
0.038,0.041
0.043,0.041
0.040,0.043
0.039,0.041
0.041,0.043
0.043,0.041
0.044,0.042
0.043,0.044
0.042,0.039
0.043,0.043
0.042,0.039
0.044,0.043
0.044,0.043
0.046,0.044
0.043,0.045
0.042,0.043
0.039,0.045
0.042,0.043
0.041,0.043
0.044,0.041
0.042,0.040
0.041,0.041
0.040,0.041
0.038,0.039
0.039,0.037
0.043,0.039
0.044,0.038
0.043,0.036
0.045,0.038
0.045,0.036
0.044,0.037
0.043,0.036
0.047,0.035
0.045,0.033
0.045,0.033
0.044,0.036
0.046,0.034
0.043,0.036
0.044,0.031
0.048,0.029
0.046,0.025
0.046,0.023
0.042,0.025
0.044,0.022
0.044,0.024
0.042,0.024
0.045,0.022
0.045,0.020
0.048,0.019
0.045,0.019
0.047,0.017
0.048,0.018
0.048,0.012
0.047,0.014
0.046,0.006
0.049,0.005
0.046,0.006
0.046,0.006
0.041,0.010
0.040,0.013
0.037,0.013
0.037,0.014
0.039,0.016
0.041,0.014
0.043,0.011
0.045,0.009
0.047,0.006
0.054,0.004
0.053,0.002
0.052,0.004
0.049,0.002
0.049,0.004
0.045,0.001
0.050,0.000
0.047,0.001
0.050,-0.000
0.047,0.004
0.049,0.003
0.048,0.003
0.048,-0.002
0.050,-0.002
0.051,-0.004
0.052,-0.002
0.051,-0.000
0.050,-0.003
0.049,-0.003
0.049,-0.004
0.050,-0.004
0.050,-0.002
0.048,-0.003
0.049,0.000
0.051,-0.006
0.051,-0.005
0.052,-0.007
0.053,-0.004
0.049,-0.002
0.048,-0.002
0.047,-0.001
0.047,-0.001
0.047,-0.003
0.049,-0.002
0.046,-0.001
0.047,0.001
0.046,0.004
0.045,0.002
0.042,0.001
0.043,0.005
0.045,0.004
0.046,0.002
0.047,0.006
0.044,0.005
0.047,0.006
0.044,0.006
0.051,0.007
0.047,0.008
0.049,0.010
0.043,0.011
0.048,0.011
0.046,0.011
0.045,0.008
0.045,0.010
0.046,0.012
0.044,0.011
0.043,0.014
0.046,0.011
0.045,0.017
0.044,0.013
0.044,0.016
0.042,0.013
0.042,0.017
0.040,0.016
0.042,0.015
0.046,0.018
0.053,0.018
0.053,0.022
0.056,0.021
0.051,0.027
0.047,0.024
0.044,0.030
0.043,0.029
0.043,0.027
0.039,0.028
0.043,0.028
0.040,0.026
0.045,0.029
0.037,0.027
0.039,0.030
0.037,0.032
0.039,0.031
0.035,0.036
0.037,0.036
0.040,0.036
0.040,0.035
0.043,0.034
0.045,0.039
0.044,0.034
0.043,0.039
0.043,0.035
0.045,0.038
0.045,0.033
0.045,0.036
0.042,0.036
0.041,0.038
0.035,0.042
0.036,0.044
0.036,0.045
0.038,0.044
0.040,0.043
0.041,0.037
0.042,0.039
0.043,0.039
0.041,0.039
0.041,0.037
0.040,0.039
0.043,0.039
0.041,0.040
0.039,0.039
0.042,0.042
0.038,0.044
0.038,0.046
0.038,0.043
0.043,0.043
0.041,0.042
0.041,0.041
0.040,0.044
0.042,0.043
0.042,0.044
0.041,0.039
0.043,0.038
0.045,0.038
0.044,0.036
0.043,0.039
0.045,0.039
0.043,0.039
0.040,0.036
0.042,0.037
0.039,0.033
0.040,0.032
0.037,0.033
0.042,0.030
0.044,0.031
0.044,0.025
0.048,0.029
0.049,0.025
0.048,0.025
0.045,0.026
0.045,0.023
0.045,0.027
0.047,0.024
0.048,0.024
0.049,0.022
0.046,0.022
0.045,0.022
0.044,0.020
0.045,0.023
0.047,0.019
0.047,0.020
0.047,0.017
0.049,0.019
0.046,0.012
0.049,0.014
0.048,0.011
0.049,0.010
0.050,0.009
0.049,0.009
0.047,0.010
0.048,0.008
0.046,0.010
0.049,0.007
0.045,0.004
0.048,0.002
0.050,0.002
0.049,-0.002
0.047,0.002
0.046,0.001
0.048,0.002
0.048,-0.001
0.049,-0.002
0.046,-0.002
0.047,0.001
0.044,0.003
0.045,0.000
0.045,0.000
0.049,-0.001
0.049,-0.002
0.050,-0.004
0.047,-0.002
0.048,-0.002
0.047,-0.003
0.046,-0.004
0.049,-0.004
0.047,-0.004
0.047,-0.004
0.042,-0.002
0.043,-0.003
0.045,-0.003
0.046,-0.007
0.047,-0.006
0.047,-0.003
0.047,-0.002
0.046,-0.004
0.047,-0.004
0.049,-0.006
0.047,-0.006
0.047,-0.006
0.048,-0.001
0.043,-0.002
0.045,-0.002
0.046,-0.004
0.048,-0.004
0.045,-0.001
0.048,0.000
0.045,0.003
0.045,0.003
0.046,0.004
0.045,0.003
0.047,0.002
0.045,0.008
0.046,0.005
0.043,0.010
0.047,0.007
0.047,0.009
0.045,0.004
0.046,0.008
0.045,0.010
0.045,0.009
0.044,0.012
0.042,0.011
0.045,0.014
0.043,0.010
0.047,0.012
0.045,0.014
0.045,0.019
0.041,0.019
0.039,0.020
0.038,0.019
0.039,0.017
0.037,0.017
0.038,0.017
0.038,0.020
0.040,0.020
0.041,0.024
0.042,0.022
0.045,0.025
0.041,0.026
0.046,0.026
0.041,0.027
0.042,0.027
0.041,0.031
0.045,0.029
0.041,0.033
0.040,0.033
0.040,0.034
0.040,0.032
0.043,0.035
0.042,0.034
0.043,0.035
0.043,0.036
0.045,0.037
0.043,0.041
0.041,0.036
0.042,0.039
0.039,0.036
0.043,0.038
0.041,0.038
0.043,0.038
0.040,0.039
0.043,0.037
0.042,0.039
0.040,0.037
0.042,0.039
0.041,0.043
0.041,0.040
0.041,0.041
0.040,0.042
0.042,0.043
0.041,0.040
0.045,0.040
0.045,0.044
0.047,0.041
0.044,0.044
0.043,0.043
0.042,0.042
0.040,0.041
0.041,0.043
0.041,0.041
0.039,0.041
0.037,0.047
0.042,0.044
0.040,0.043
0.043,0.042
0.044,0.039
0.042,0.041
0.043,0.042
0.043,0.043
0.044,0.039
0.045,0.039
0.043,0.037
0.047,0.038
0.045,0.038
0.044,0.039
0.043,0.039
0.043,0.037
0.044,0.036
0.046,0.036
0.046,0.035
0.046,0.037
0.045,0.034
0.047,0.035
0.046,0.029
0.051,0.029
0.047,0.029
0.047,0.026
0.041,0.030
0.043,0.026
0.042,0.026
0.046,0.024
0.046,0.026
0.045,0.024
0.045,0.025
0.046,0.029
0.048,0.022
0.046,0.026
0.047,0.024
0.045,0.023
0.049,0.019
0.048,0.015
0.049,0.014
0.048,0.013
0.049,0.009
0.048,0.013
0.049,0.011
0.047,0.010
0.047,0.012
0.047,0.013
0.046,0.013
0.044,0.011
0.046,0.013
0.046,0.008
0.045,0.008
0.047,0.009
0.048,0.007
0.046,0.007
0.047,0.006
0.049,0.004
0.048,0.004
0.049,0.002
0.046,0.006
0.045,0.005
0.047,0.004
0.046,0.004
0.048,0.002
0.048,0.001
0.047,-0.000
0.047,0.001
0.047,-0.001
0.048,-0.003
0.046,-0.006
0.047,-0.003
0.045,-0.003
0.046,0.000
0.044,0.001
0.045,-0.000
0.046,-0.001
0.049,0.000
0.050,0.001
0.049,0.001
0.047,-0.001
0.045,0.001
0.045,-0.000
0.047,-0.000
0.046,0.001
0.048,0.001
0.042,0.005
0.042,0.001
0.042,-0.001
0.041,0.000
0.046,0.000
0.045,0.005
0.043,0.002
0.042,0.006
0.043,0.003
0.043,0.006
0.040,0.004
0.046,0.007
0.042,0.006
0.044,0.008
0.042,0.011
0.043,0.010
0.042,0.012
0.040,0.009
0.042,0.011
0.040,0.010
0.043,0.010
0.038,0.017
0.041,0.016
0.042,0.015
0.043,0.013
0.043,0.012
0.043,0.017
0.043,0.016
0.042,0.020
0.043,0.016
0.042,0.020
0.043,0.021
0.042,0.023
0.039,0.021
0.044,0.026
0.041,0.022
0.042,0.027
0.040,0.025
0.046,0.028
0.042,0.029
0.044,0.028
0.043,0.032
0.046,0.033
0.042,0.034
0.043,0.031
0.039,0.035
0.041,0.032
0.040,0.036
0.040,0.034
0.040,0.037
0.041,0.036
0.042,0.037
0.040,0.035
0.042,0.036
0.041,0.037
0.044,0.037
0.047,0.039
0.047,0.039
0.043,0.039
0.042,0.041
0.042,0.038
0.040,0.040
0.043,0.036
0.047,0.039
0.043,0.040
0.044,0.044
0.040,0.043
0.045,0.045
0.045,0.044
0.048,0.041
0.046,0.043
0.047,0.042
0.046,0.043
0.042,0.042
0.043,0.042
0.042,0.040
0.041,0.043
0.043,0.045
0.040,0.047
0.041,0.045
0.040,0.047
0.041,0.045
0.043,0.045
0.042,0.044
0.046,0.044
0.042,0.045
0.043,0.043
0.040,0.046
0.044,0.042
0.045,0.040
0.046,0.040
0.045,0.040
0.045,0.042
0.044,0.039
0.044,0.039
0.046,0.039
0.048,0.040
0.046,0.036
0.047,0.037
0.043,0.038
0.047,0.037
0.046,0.038
0.047,0.036
0.047,0.033
0.048,0.033
0.045,0.031
0.043,0.032
0.045,0.031
0.046,0.026
0.049,0.025
0.049,0.023
0.048,0.026
0.049,0.024
0.048,0.023
0.045,0.023
0.045,0.023
0.047,0.021
0.049,0.019
0.048,0.017
0.051,0.014
0.049,0.013
0.050,0.014
0.049,0.012
0.048,0.011
0.047,0.011
0.048,0.010
0.047,0.012
0.047,0.012
0.045,0.011
0.046,0.010
0.049,0.010
0.049,0.010
0.047,0.008
0.048,0.010
0.048,0.007
0.048,0.007
0.044,0.000
0.049,-0.001
0.047,0.000
0.045,-0.002
0.043,0.003
0.042,0.003
0.044,0.005
0.044,0.002
0.048,0.004
0.047,0.000
0.049,-0.001
0.045,0.002
0.047,-0.001
0.045,-0.001
0.048,-0.005
0.049,-0.004
0.042,0.001
0.044,0.002
0.044,0.004
0.045,0.001
0.049,0.004
0.047,-0.002
0.048,0.000
0.047,0.004
0.047,-0.000
0.042,0.002
0.044,0.001
0.047,0.001
0.047,-0.002
0.046,0.002
0.043,0.002
0.042,0.003
0.040,0.004
0.043,0.004
0.042,0.006
0.043,0.008
0.042,0.007
0.045,0.009
0.044,0.007
0.045,0.007
0.044,0.004
0.042,0.006
0.041,0.003
0.044,0.006
0.042,0.008
0.043,0.008
0.043,0.007
0.046,0.006
0.047,0.009
0.049,0.010
0.044,0.010
0.042,0.012
0.044,0.014
0.041,0.013
0.044,0.012
0.044,0.013
0.044,0.015
0.042,0.013
0.044,0.017
0.045,0.015
0.043,0.017
0.043,0.015
0.041,0.017
0.041,0.016
0.041,0.021
0.040,0.022
0.043,0.023
0.040,0.024
0.041,0.026
0.039,0.026
0.042,0.028
0.042,0.028
0.044,0.028
0.040,0.033
0.042,0.029
0.038,0.034
0.038,0.029
0.039,0.035
0.040,0.031
0.039,0.036
0.039,0.035
0.044,0.035
0.037,0.035
0.041,0.036
0.040,0.037
0.045,0.036
0.039,0.036
0.043,0.037
0.045,0.036
0.044,0.038
0.042,0.038
0.040,0.040
0.036,0.039
0.037,0.040
0.037,0.038
0.042,0.041
0.040,0.038
0.042,0.039
0.039,0.044
0.041,0.043
0.041,0.045
0.042,0.041
0.043,0.041
0.043,0.039
0.042,0.041
0.042,0.040
0.041,0.043
0.040,0.044
0.038,0.040
0.040,0.041
0.042,0.040
0.043,0.042
0.043,0.046
0.043,0.043
0.045,0.046
0.045,0.042
0.048,0.042
0.045,0.039
0.048,0.041
0.048,0.041
0.048,0.039
0.044,0.039
0.046,0.036
0.048,0.037
0.047,0.036
0.045,0.034
0.045,0.036
0.043,0.036
0.048,0.037
0.047,0.032
0.047,0.034
0.047,0.032
0.047,0.033
0.045,0.033
0.045,0.033
0.047,0.031
0.046,0.030
0.046,0.029
0.045,0.030
0.044,0.028
0.046,0.025
0.043,0.025
0.045,0.025
0.047,0.022
0.047,0.023
0.049,0.022
0.048,0.022
0.049,0.021
0.047,0.020
0.047,0.017
0.046,0.016
0.046,0.017
0.046,0.013
0.044,0.013
0.044,0.011
0.049,0.012
0.045,0.007
0.049,0.007
0.049,0.008
0.050,0.010
0.045,0.008
0.048,0.007
0.049,0.006
0.049,0.003
0.049,0.004
0.050,0.004
0.046,0.001
0.046,0.003
0.045,-0.001
0.048,0.002
0.045,-0.001
0.051,-0.001
0.047,0.002
0.048,-0.000
0.044,0.004
0.047,-0.002
0.048,0.000
0.050,-0.005
0.049,-0.005
0.047,-0.003
0.046,-0.001
0.045,-0.002
0.045,-0.005
0.048,-0.004
0.046,-0.003
0.046,-0.002
0.046,0.002
0.047,0.000
0.052,0.001
0.049,-0.004
0.053,-0.004
0.049,-0.003
0.050,-0.004
0.046,-0.003
0.048,-0.003
0.046,-0.004
0.047,-0.004
0.047,-0.002
0.045,0.001
0.044,-0.002
0.043,-0.001
0.041,-0.002
0.047,-0.003
0.044,-0.003
0.045,-0.001
0.040,0.007
0.042,0.003
0.044,0.005
0.042,0.006
0.046,0.005
0.043,0.006
0.045,0.005
0.041,0.010
0.043,0.009
0.043,0.009
0.042,0.006
0.042,0.009
0.043,0.009
0.043,0.011
0.044,0.012
0.042,0.014
0.047,0.012
0.042,0.013
0.046,0.011
0.043,0.012
0.043,0.010
0.044,0.017
0.043,0.015
0.042,0.019
0.042,0.016
0.041,0.019
0.040,0.020
0.038,0.022
0.038,0.022
0.037,0.024
0.039,0.024
0.038,0.025
0.041,0.023
0.043,0.028
0.041,0.026
0.041,0.029
0.039,0.029
0.039,0.031
0.040,0.033
0.040,0.031
0.037,0.032
0.038,0.032
0.040,0.035
0.040,0.032
0.042,0.034
0.041,0.037
0.042,0.034
0.039,0.038
0.041,0.036
0.043,0.036
0.041,0.032
0.043,0.035
0.040,0.036
0.040,0.036
0.034,0.037
0.038,0.036
0.037,0.041
0.038,0.038
0.039,0.038
0.040,0.039
0.039,0.040
0.037,0.040
0.040,0.037
0.038,0.037
0.040,0.036
0.039,0.036
0.042,0.037
0.041,0.037
0.038,0.040
0.038,0.039
0.043,0.042
0.039,0.040
0.042,0.042
0.041,0.043
0.043,0.041
0.039,0.043
0.040,0.040
0.041,0.039
0.042,0.039
0.042,0.039
0.043,0.039
0.040,0.039
0.038,0.037
0.038,0.037
0.039,0.037
0.039,0.034
0.041,0.033
0.042,0.037
0.041,0.035
0.041,0.036
0.041,0.032
0.045,0.031
0.043,0.031
0.044,0.031
0.039,0.034
0.044,0.030
0.045,0.030
0.046,0.027
0.045,0.024
0.045,0.028
0.045,0.026
0.042,0.026
0.041,0.025
0.042,0.026
0.042,0.021
0.049,0.022
0.046,0.019
0.049,0.021
0.047,0.018
0.050,0.016
0.046,0.015
0.048,0.015
0.046,0.016
0.048,0.011
0.046,0.011
0.046,0.008
0.049,0.010
0.046,0.007
0.049,0.009
0.046,0.007
0.048,0.008
0.047,0.010
0.049,0.007
0.046,0.008
0.047,0.006
0.049,0.004
0.050,0.003
0.049,0.003
0.047,0.006
0.048,0.002
0.048,0.004
0.046,0.002
0.049,0.004
0.046,-0.001
0.047,-0.001
0.047,0.001
0.049,0.002
0.048,0.002
0.051,-0.001
0.052,-0.002
0.050,-0.005
0.050,-0.004
0.047,-0.006
0.048,-0.006
0.047,-0.005
0.047,-0.007
0.047,-0.008
0.047,-0.004
0.045,-0.004
0.046,-0.001
0.045,-0.002
0.049,-0.003
0.049,-0.006
0.046,-0.006
0.045,-0.003
0.047,-0.004
0.045,-0.003
0.043,-0.003
0.045,-0.002
0.043,-0.001
0.040,-0.003
0.041,0.003
0.043,-0.001
0.043,0.004
0.044,-0.001
0.045,0.003
0.045,0.006
0.046,0.005
0.043,0.006
0.043,0.001
0.045,0.006
0.044,0.004
0.042,0.003
0.041,0.008
0.044,0.008
0.040,0.007
0.041,0.008
0.041,0.009
0.043,0.007
0.041,0.007
0.042,0.011
0.044,0.012
0.043,0.013
0.042,0.012
0.043,0.011
0.041,0.010
0.042,0.013
0.041,0.013
0.042,0.013
0.039,0.015
0.040,0.017
0.038,0.019
0.037,0.018
0.035,0.021
0.037,0.023
0.036,0.026
0.036,0.026
0.036,0.027
0.037,0.028
0.041,0.027
0.038,0.026
0.042,0.029
0.039,0.025
0.037,0.028
0.040,0.029
0.037,0.029
0.036,0.030
0.036,0.032
0.034,0.034
0.036,0.035
0.035,0.033
0.038,0.034
0.037,0.037
0.038,0.038
0.036,0.036
0.036,0.040
0.036,0.036
0.039,0.037
0.037,0.035
0.041,0.038
0.038,0.040
0.039,0.042
0.037,0.041
0.040,0.043
0.038,0.043
0.037,0.040
0.038,0.039
0.040,0.042
0.038,0.039
0.039,0.041
0.039,0.040
0.042,0.043
0.038,0.038
0.043,0.039
0.037,0.040
0.038,0.041
0.035,0.043
0.037,0.041
0.036,0.043
0.041,0.039
0.040,0.040
0.039,0.042
0.038,0.039
0.039,0.040
0.040,0.040
0.038,0.038
0.040,0.039
0.042,0.037
0.042,0.039
0.041,0.038
0.043,0.035
0.041,0.035
0.044,0.035
0.042,0.035
0.043,0.035
0.042,0.035
0.043,0.034
0.040,0.033
0.040,0.031
0.040,0.031
0.041,0.031
0.041,0.030
0.041,0.031
0.040,0.028
0.045,0.026
0.043,0.025
0.044,0.022
0.041,0.027
0.041,0.025
0.042,0.027
0.041,0.021
0.041,0.021
0.039,0.021
0.046,0.022
0.044,0.017
0.048,0.019
0.046,0.013
0.049,0.012
0.046,0.013
0.047,0.011
0.046,0.015
0.046,0.010
0.045,0.011
0.049,0.007
0.047,0.006
0.047,0.003
0.050,0.004
0.047,0.003
0.046,0.002
0.045,0.005
0.046,-0.000
0.045,0.004
0.048,0.001
0.048,0.000
0.049,-0.004
0.048,-0.003
0.045,0.001
0.046,-0.001
0.045,0.002
0.046,-0.002
0.047,-0.001
0.048,-0.001
0.046,-0.003
0.044,0.000
0.044,-0.003
0.046,-0.003
0.047,-0.005
0.047,-0.006
0.048,-0.006
0.043,-0.006
0.044,-0.006
0.042,-0.007
0.047,-0.008
0.045,-0.008
0.044,-0.005
0.044,-0.002
0.043,-0.002
0.046,-0.002
0.045,-0.005
0.049,-0.004
0.046,-0.004
0.047,-0.008
0.043,-0.004
0.042,-0.005
0.045,-0.003
0.042,-0.004
0.047,-0.004
0.044,-0.001
0.044,-0.002
0.039,-0.001
0.041,-0.002
0.042,0.001
0.044,-0.002
0.043,0.000
0.041,0.001
0.043,0.001
0.041,0.001
0.042,0.002
0.046,0.001
0.045,0.002
0.043,0.000
0.042,0.006
0.041,0.006
0.042,0.006
0.039,0.005
0.045,0.007
0.041,0.008
0.042,0.007
0.038,0.012
0.039,0.013
0.040,0.015
0.039,0.014
0.041,0.014
0.039,0.014
0.044,0.013
0.042,0.015
0.040,0.014
0.042,0.016
0.036,0.015
0.039,0.019
0.038,0.020
0.037,0.026
0.035,0.024
0.036,0.025
0.035,0.024
0.038,0.023
0.038,0.025
0.042,0.024
0.042,0.024
0.041,0.024
0.038,0.029
0.038,0.027
0.039,0.030
0.038,0.027
0.037,0.033
0.037,0.031
0.039,0.033
0.038,0.030
0.042,0.033
0.039,0.036
0.042,0.035
0.037,0.039
0.039,0.036
0.040,0.035
0.040,0.033
0.039,0.033
0.039,0.037
0.036,0.035
0.035,0.040
0.035,0.038
0.039,0.042
0.039,0.040
0.041,0.041
0.040,0.042
0.043,0.041
0.038,0.044
0.041,0.041
0.042,0.040
0.043,0.038
0.042,0.039
0.038,0.039
0.036,0.042
0.038,0.041
0.039,0.041
0.041,0.042
0.040,0.043
0.039,0.042
0.041,0.049
0.040,0.046
0.039,0.045
0.039,0.044
0.044,0.045
0.041,0.042
0.043,0.039
0.041,0.041
0.044,0.039
0.041,0.040
0.043,0.037
0.044,0.038
0.044,0.036
0.043,0.035
0.040,0.036
0.041,0.033
0.045,0.032
0.042,0.031
0.046,0.033
0.044,0.034
0.047,0.032
0.044,0.031
0.045,0.029
0.045,0.027
0.046,0.028
0.047,0.027
0.047,0.028
0.045,0.026
0.044,0.029
0.043,0.026
0.042,0.024
0.044,0.023
0.048,0.023
0.048,0.019
0.049,0.020
0.051,0.017
0.049,0.015
0.049,0.013
0.048,0.011
0.046,0.011
0.046,0.008
0.043,0.013
0.042,0.009
0.045,0.011
0.041,0.007
0.047,0.007
0.045,0.007
0.046,0.006
0.043,0.011
0.046,0.004
0.043,0.004
0.044,0.003
0.046,0.004
0.046,0.001
0.047,-0.002
0.045,0.002
0.047,0.001
0.045,0.002
0.044,-0.002
0.048,0.001
0.049,-0.002
0.049,-0.001
0.046,0.000
0.047,-0.003
0.046,0.000
0.047,-0.005
0.047,-0.003
0.046,-0.007
0.046,-0.003
0.041,-0.002
0.040,-0.003
0.039,-0.003
0.044,-0.003
0.042,-0.005
0.047,-0.004
0.043,-0.003
0.043,-0.002
0.044,-0.003
0.047,-0.004
0.043,-0.004
0.043,-0.006
0.041,-0.003
0.043,-0.004
0.042,-0.002
0.043,-0.002
0.046,-0.002
0.043,-0.002
0.044,-0.000
0.042,0.000
0.041,0.001
0.043,0.001
0.042,-0.000
0.043,0.002
0.042,-0.002
0.044,0.001
0.039,0.005
0.040,0.006
0.039,0.005
0.041,0.008
0.045,0.008
0.045,0.008
0.042,0.006
0.042,0.010
0.042,0.009
0.042,0.009
0.039,0.010
0.043,0.010
0.043,0.013
0.040,0.010
0.041,0.011
0.040,0.013
0.040,0.013
0.040,0.013
0.041,0.011
0.039,0.012
0.043,0.014
0.041,0.011
0.042,0.016
0.043,0.014
0.040,0.019
0.042,0.021
0.041,0.021
0.040,0.024
0.041,0.023
0.038,0.027
0.042,0.026
0.039,0.029
0.042,0.026
0.042,0.030
0.042,0.025
0.044,0.027
0.040,0.024
0.043,0.029
0.043,0.031
0.043,0.030
0.039,0.033
0.043,0.034
0.043,0.036
0.041,0.033
0.043,0.033
0.043,0.032
0.040,0.034
0.043,0.035
0.040,0.037
0.045,0.034
0.040,0.033
0.043,0.036
0.042,0.037
0.043,0.040
0.045,0.041
0.042,0.041
0.041,0.041
0.044,0.042
0.045,0.043
0.046,0.044
0.043,0.039
0.044,0.044
0.044,0.043
0.044,0.040
0.041,0.039
0.044,0.040
0.044,0.041
0.042,0.040
0.042,0.046
0.039,0.044
0.043,0.046
0.043,0.043
0.049,0.045
0.046,0.040
0.045,0.042
0.042,0.043
0.044,0.043
0.043,0.043
0.045,0.040
0.047,0.042
0.046,0.037
0.046,0.036
0.044,0.037
0.046,0.036
0.049,0.037
0.047,0.034
0.049,0.034
0.047,0.036
0.045,0.035
0.044,0.035
0.046,0.034
0.047,0.035
0.049,0.031
0.048,0.032
0.047,0.028
0.046,0.029
0.044,0.029
0.045,0.029
0.047,0.025
0.046,0.024
0.045,0.026
0.046,0.027
0.044,0.024
0.044,0.026
0.045,0.022
0.046,0.020
0.046,0.021
0.049,0.019
0.047,0.013
0.050,0.013
0.047,0.011
0.047,0.013
0.046,0.012
0.046,0.010
0.044,0.011
0.047,0.010
0.045,0.010
0.047,0.009
0.049,0.007
0.046,0.008
0.046,0.003
0.049,0.006
0.048,0.006
0.046,0.008
0.046,0.003
0.047,0.003
0.045,-0.002
0.049,0.002
0.045,-0.002
0.047,0.001
0.041,0.002
0.045,-0.001
0.045,-0.000
0.049,0.000
0.050,-0.001
0.049,0.001
0.049,-0.003
0.050,-0.003
0.046,-0.003
0.051,-0.003
0.048,-0.003
0.046,-0.003
0.044,0.000
0.047,-0.002
0.046,-0.000
0.046,-0.002
0.045,-0.001
0.048,-0.003
0.046,-0.003
0.046,-0.001
0.043,-0.003
0.044,-0.002
0.043,-0.003
0.044,-0.003
0.044,0.000
0.044,-0.002
0.044,0.000
0.042,-0.001
0.046,0.001
0.046,-0.002
0.046,-0.001
0.046,0.003
0.044,0.002
0.040,0.005
0.042,0.003
0.044,0.002
0.045,0.001
0.047,-0.000
0.044,0.003
0.042,-0.001
0.042,0.004
0.041,0.003
0.043,0.007
0.040,0.005
0.041,0.005
0.041,0.006
0.042,0.004
0.039,0.009
0.043,0.008
0.045,0.008
0.045,0.010
0.044,0.010
0.045,0.011
0.045,0.010
0.044,0.013
0.045,0.011
0.042,0.016
0.044,0.014
0.042,0.016
0.043,0.016
0.043,0.020
0.039,0.020
0.042,0.022
0.040,0.022
0.043,0.026
0.042,0.026
0.043,0.026
0.043,0.027
0.043,0.026
0.043,0.030
0.043,0.029
0.040,0.032
0.038,0.031
0.043,0.030
0.041,0.033
0.042,0.033
0.041,0.032
0.040,0.034
0.040,0.037
0.040,0.036
0.041,0.036
0.043,0.037
0.045,0.036
0.042,0.035
0.046,0.036
0.042,0.037
0.042,0.036
0.041,0.039
0.040,0.039
0.042,0.038
0.043,0.039
0.044,0.036
0.043,0.040
0.044,0.038
0.044,0.043
0.040,0.038
0.045,0.042
