File Version,253.000000
# of Channels,2.000000
Samples/Channel,10300.000000
Scan Rate (Hz),10000.000000
Timestamp,3807794991.914160
Operating Mode,1.000000
Trial #,0.000000
Session #,34.000000
Subject code 1,82.000000
Subject code 2,88.000000
Feedback Window,0.000000
Feedback Ch,0.000000
Ch B,0.000000
Pre-Stim Acq. time (ms),100.000000
Post-Stim Acq. time (ms),900.000000
EMG Hi Limit,50.000000
EMG Lo Limit,0.000250
Target Value (V),5.000000
Stimulus Value (V),0.650000
Stimulus duration (ms),1.000000
EMG conditions time limit (sec),0.200000
M-response Start (ms),2.000000
M-response Duration (ms),2.000000
H-response Duration (ms),2.000000
H-response Start (ms),5.000000
Proportioanl gain,0.003000
Channel to monitor,0.000000
SIU gain,20.000000
FB Monitor value,0.582228
Inter-Stim delay (sec),5.000000
M-Window Mean,0.007274
H-Window Mean,0.007020
Stimulus paradigm,2.000000
# of Pulses in cond train,1.000000
Cond duration (ms),1.000000
Cond Train pulse period (ms),30.000000
Cond Value (V),0.650000
Start Delay (ms),0.000000
# of Pulses in stim train,1.000000
Stim Train pulse period (ms),30.000000
EMG amp gain ch 1,500.000000
EMG amp gain ch 2,500.000000
EMG amp gain ch 3,1000.000000
EMG amp gain ch 4,1000.000000
EMG amp gain ch 5,1000.000000
EMG amp gain ch 6,1000.000000
Stim Type 1,2.000000
Stim/Cond 1,0.000000
Stim Type 2,3.000000
Stim/Cond 2,0.000000
Stim Type 3,3.000000
Stim/Cond 3,0.000000
Stim Type 4,3.000000
Stim/Cond 4,0.000000
Stim Value 1,0.650000
Stim Value 2,0.000000
Stim Value 3,0.000000
Stim Value 4,0.000000
1st PP Channel,-1.000000
Pressure (g),0.000000
Speed (mm/sec),0.000000
Dwell (ms),0.000000
Pressure limit (g),0.000000
Travel limit (mm),0.000000
Amp gain,0.000000
Wait Trig?,0.000000
Move Timeout (ms),0.000000
Time Taken (ms),0.000000
Actual Travel (mm),0.000000
Recorded Data (mV),
0.033,-0.078
0.030,-0.081
0.031,-0.081
0.030,-0.085
0.031,-0.087
0.033,-0.091
0.034,-0.093
0.031,-0.095
0.035,-0.096
0.037,-0.103
0.042,-0.100
0.045,-0.103
0.048,-0.109
0.052,-0.108
0.058,-0.111
0.052,-0.112
0.040,-0.119
0.030,-0.121
0.020,-0.123
0.014,-0.121
0.018,-0.123
0.037,-0.120
0.050,-0.121
0.044,-0.123
0.027,-0.126
0.021,-0.126
0.021,-0.128
0.032,-0.134
0.043,-0.138
0.052,-0.142
0.054,-0.146
0.050,-0.145
0.038,-0.145
0.018,-0.137
-0.012,-0.133
-0.025,-0.125
-0.004,-0.133
0.019,-0.142
0.023,-0.151
0.017,-0.163
0.006,-0.166
0.007,-0.165
0.008,-0.166
0.019,-0.172
0.020,-0.173
0.018,-0.171
0.012,-0.164
0.016,-0.161
0.030,-0.159
0.040,-0.161
0.040,-0.161
0.019,-0.161
-0.006,-0.165
-0.025,-0.163
-0.024,-0.167
0.004,-0.164
0.031,-0.171
0.054,-0.169
0.068,-0.178
0.078,-0.177
0.075,-0.179
0.091,-0.177
0.102,-0.176
0.092,-0.176
0.060,-0.178
0.019,-0.183
-0.028,-0.185
-0.037,-0.189
0.011,-0.184
0.062,-0.186
0.085,-0.182
0.075,-0.189
0.060,-0.190
0.025,-0.195
-0.007,-0.194
-0.026,-0.192
-0.015,-0.183
0.049,-0.175
0.146,-0.169
0.188,-0.173
0.117,-0.177
0.032,-0.181
-0.008,-0.176
-0.002,-0.169
0.021,-0.161
0.034,-0.157
0.034,-0.163
0.022,-0.172
0.013,-0.174
0.006,-0.173
-0.002,-0.154
0.003,-0.135
0.027,-0.119
0.047,-0.119
0.036,-0.128
-0.008,-0.141
-0.068,-0.147
-0.131,-0.141
-0.141,-0.129
-0.042,-0.129
0.098,-0.137
0.153,-0.155
0.094,-0.167
0.026,-0.157
-0.014,-0.145
-0.039,-0.126
-0.035,-0.107
0.028,-0.091
0.060,-0.096
0.045,-0.114
0.003,-0.132
-0.008,-0.150
-0.009,-0.159
0.007,-0.159
0.029,-0.143
0.017,-0.121
-0.009,-0.095
0.049,-0.071
0.157,-0.061
0.176,-0.059
0.102,-0.063
0.044,-0.046
0.029,-0.020
0.066,-0.008
0.166,-0.031
0.239,-0.049
0.158,-0.037
0.023,-0.005
-0.097,0.033
-0.156,0.064
-0.159,0.088
-0.065,0.096
0.082,0.092
0.166,0.079
0.144,0.061
0.083,0.056
0.040,0.058
0.032,0.067
0.033,0.077
0.043,0.083
0.051,0.096
0.049,0.100
0.047,0.105
0.039,0.107
0.035,0.112
0.025,0.119
0.032,0.133
0.048,0.147
0.060,0.150
0.061,0.160
0.068,0.158
0.069,0.182
0.075,0.226
0.067,0.290
0.051,0.293
0.034,0.180
0.022,0.097
0.012,0.135
0.011,0.197
0.025,0.231
0.051,0.240
0.069,0.218
0.087,0.182
0.090,0.166
0.090,0.171
0.083,0.168
0.079,0.138
0.073,0.124
0.071,0.126
0.070,0.140
0.069,0.157
0.067,0.168
0.068,0.175
0.066,0.181
0.067,0.186
0.064,0.193
0.063,0.195
0.061,0.197
0.071,0.193
0.086,0.194
0.092,0.195
0.086,0.199
0.068,0.206
0.039,0.211
0.007,0.223
-0.011,0.245
-0.001,0.270
0.028,0.301
0.049,0.322
0.048,0.324
0.058,0.297
0.085,0.230
0.102,0.171
0.100,0.155
0.095,0.179
0.093,0.176
0.095,0.146
0.087,0.127
0.067,0.130
0.041,0.152
0.006,0.178
0.002,0.198
0.033,0.211
0.070,0.197
0.057,0.180
0.038,0.161
0.011,0.160
0.004,0.179
0.049,0.208
0.118,0.233
0.101,0.252
0.006,0.259
-0.085,0.281
-0.094,0.305
0.013,0.324
0.141,0.288
0.203,0.199
0.185,0.105
0.143,0.047
0.104,0.048
0.080,0.055
0.066,0.026
0.059,0.050
0.059,0.143
0.071,0.216
0.080,0.245
0.077,0.229
0.072,0.168
0.076,0.100
0.082,0.062
0.091,0.060
0.093,0.082
0.087,0.112
0.078,0.123
0.074,0.112
0.071,0.102
0.065,0.099
0.061,0.100
0.053,0.100
0.050,0.099
0.048,0.097
0.048,0.096
0.045,0.096
0.048,0.096
0.054,0.091
0.065,0.089
0.071,0.088
0.073,0.087
0.076,0.086
0.084,0.093
0.088,0.092
0.095,0.094
0.098,0.095
0.101,0.093
0.098,0.091
0.099,0.078
0.095,0.069
0.088,0.060
0.078,0.058
0.068,0.064
0.055,0.066
0.045,0.076
0.048,0.078
0.067,0.073
0.084,0.068
0.086,0.063
0.080,0.059
0.070,0.061
0.062,0.062
0.062,0.051
0.060,0.044
0.063,0.045
0.064,0.080
0.066,0.123
0.062,0.151
0.062,0.109
0.058,0.057
0.056,0.027
0.056,0.021
0.059,-0.011
0.072,-0.040
0.076,0.028
0.081,0.116
0.080,0.176
0.076,0.194
0.069,0.176
0.059,0.133
0.054,0.094
0.055,0.051
0.054,0.003
0.057,-0.019
0.058,-0.027
0.062,-0.018
0.058,0.000
0.060,0.020
0.060,0.032
0.061,0.039
0.065,0.039
0.071,0.041
0.076,0.039
0.082,0.040
0.071,0.036
0.059,0.039
0.032,0.043
0.011,0.051
0.017,0.055
0.053,0.055
0.075,0.057
0.075,0.052
0.063,0.052
0.058,0.047
0.050,0.051
0.049,0.054
0.050,0.058
0.064,0.056
0.071,0.058
0.061,0.059
0.059,0.060
0.051,0.060
0.054,0.061
0.054,0.059
0.059,0.054
0.054,0.056
0.050,0.052
0.047,0.052
0.046,0.054
0.048,0.059
0.061,0.066
0.072,0.073
0.072,0.075
0.065,0.071
0.062,0.082
0.058,0.088
0.061,0.102
0.060,0.105
0.064,0.095
0.060,0.066
0.061,0.050
0.057,0.072
0.053,0.142
0.052,0.240
0.047,0.318
0.044,0.298
0.041,0.174
0.045,0.037
0.044,-0.033
0.043,-0.069
0.049,-0.085
0.054,-0.038
0.050,0.045
0.051,0.102
0.061,0.130
0.071,0.119
0.066,0.080
0.057,0.031
0.043,0.010
0.043,0.010
0.043,0.023
0.051,0.031
0.062,0.041
0.072,0.053
0.074,0.061
0.064,0.073
0.055,0.081
0.049,0.085
0.049,0.062
0.052,0.040
0.053,0.035
0.054,0.041
0.052,0.051
0.057,0.061
0.052,0.068
0.057,0.071
0.060,0.074
0.062,0.067
0.058,0.050
0.058,0.040
0.056,0.034
0.055,0.031
0.057,0.036
0.053,0.044
0.039,0.055
0.026,0.062
0.027,0.067
0.035,0.069
0.045,0.068
0.036,0.048
0.034,0.025
0.038,0.012
0.047,0.004
0.042,0.014
0.041,0.020
0.049,0.014
0.062,-0.003
0.079,-0.009
0.084,-0.006
0.075,0.001
0.057,0.018
0.028,0.030
0.006,0.043
0.015,0.041
0.056,0.039
0.084,0.026
0.088,0.023
0.077,0.017
0.071,0.015
0.062,0.011
0.061,0.010
0.057,0.009
0.059,0.007
0.057,0.008
0.059,0.004
0.056,0.006
0.054,0.001
0.054,0.002
0.051,0.000
0.051,0.001
0.049,0.003
0.050,0.006
0.049,0.008
0.049,0.008
0.055,0.006
0.055,-0.001
0.055,-0.007
0.053,-0.006
0.054,-0.003
0.050,0.004
0.048,0.005
0.048,0.011
0.047,0.011
0.046,0.013
0.041,0.017
0.038,0.012
0.038,0.003
0.042,-0.006
0.049,-0.009
0.052,-0.016
0.049,-0.021
0.038,-0.021
0.032,-0.017
0.030,-0.016
0.036,-0.013
0.055,-0.009
0.074,-0.004
0.085,-0.007
0.086,-0.003
0.079,-0.004
0.080,-0.005
0.076,-0.006
0.072,-0.005
0.066,-0.000
0.056,-0.001
0.045,0.004
0.041,0.000
0.041,0.002
0.039,0.002
0.036,0.003
0.032,0.007
0.035,0.008
0.044,0.011
0.053,0.010
0.060,0.010
0.051,0.010
0.050,0.010
0.045,0.016
0.044,0.012
0.044,0.012
0.047,0.006
0.052,0.011
0.051,0.016
0.054,0.019
0.046,0.027
0.041,0.038
0.033,0.052
0.036,0.044
0.038,0.031
0.044,0.018
0.046,0.003
0.044,-0.015
0.044,-0.017
0.046,-0.014
0.044,-0.004
0.044,0.008
0.045,0.010
0.045,0.019
0.046,0.019
0.043,0.024
0.045,0.023
0.046,0.025
0.048,0.023
0.050,0.026
0.046,0.025
0.049,0.028
0.045,0.026
0.048,0.029
0.044,0.029
0.046,0.028
0.043,0.034
0.044,0.032
0.043,0.033
0.045,0.032
0.041,0.034
0.038,0.035
0.035,0.036
0.030,0.038
0.028,0.040
0.024,0.040
0.033,0.037
0.050,0.037
0.064,0.034
0.061,0.036
0.051,0.043
0.039,0.043
0.029,0.004
0.024,-0.036
0.030,0.023
0.035,0.102
0.043,0.143
0.044,0.146
0.053,0.113
0.063,0.051
0.068,0.007
0.066,-0.005
0.057,0.009
0.053,0.015
0.053,0.027
0.061,0.027
0.068,0.032
0.070,0.034
0.068,0.036
0.059,0.039
0.050,0.036
0.041,0.043
0.039,0.043
0.041,0.039
0.046,0.027
0.050,0.018
0.043,0.023
0.038,0.036
0.035,0.045
0.038,0.045
0.036,0.047
0.035,0.045
0.032,0.047
0.030,0.046
0.040,0.043
0.057,0.039
0.068,0.037
0.066,0.033
0.059,0.029
0.056,0.031
0.049,0.030
0.050,0.030
0.045,0.025
0.045,0.022
0.046,0.021
0.047,0.020
0.048,0.018
0.049,0.020
0.049,0.023
0.049,0.023
0.048,0.017
0.047,0.016
0.051,0.014
0.050,0.008
0.049,0.008
0.050,0.017
0.049,0.032
0.051,0.040
0.048,0.036
0.052,0.021
0.049,0.004
0.050,-0.006
0.051,-0.003
0.046,0.008
0.042,0.013
0.036,0.015
0.036,0.016
0.035,0.016
0.042,0.015
0.045,0.018
0.046,0.031
0.046,0.038
0.047,0.019
0.049,-0.003
0.049,0.001
0.049,0.001
0.045,0.008
0.044,0.007
0.045,-0.004
0.044,-0.029
0.048,-0.039
0.044,-0.038
0.045,-0.031
0.042,-0.019
0.046,-0.015
0.044,-0.012
0.042,-0.013
0.048,-0.011
0.045,-0.012
0.050,-0.014
0.051,-0.012
0.061,-0.016
0.064,-0.017
0.066,-0.021
0.059,-0.022
0.049,-0.019
0.036,-0.014
0.028,-0.007
0.033,-0.003
0.045,0.001
0.049,0.000
0.049,-0.002
0.033,-0.004
0.016,-0.006
-0.008,-0.003
-0.012,-0.001
0.000,0.000
0.023,-0.001
0.047,0.001
0.059,0.003
0.062,-0.002
0.065,0.002
0.069,-0.004
0.068,-0.002
0.064,-0.005
0.064,-0.003
0.059,-0.003
0.057,0.001
0.048,0.004
0.047,0.003
0.041,0.004
0.039,0.003
0.041,0.004
0.046,0.007
0.047,0.010
0.053,0.011
0.055,0.011
0.061,0.009
0.060,0.009
0.058,0.009
0.055,0.010
0.052,0.006
0.044,0.011
0.037,0.014
0.030,0.019
0.030,0.019
0.036,0.020
0.036,0.017
0.029,0.015
0.014,0.014
0.003,0.018
-0.016,0.022
-0.014,0.025
0.018,0.022
0.068,0.023
0.091,0.021
0.087,0.023
0.074,0.025
0.061,0.023
0.051,0.029
0.046,0.030
0.043,0.030
0.041,0.030
0.047,0.028
0.052,0.030
0.054,0.029
0.057,0.026
0.057,0.023
0.060,0.023
0.056,0.022
0.051,0.026
0.044,0.035
0.040,0.036
0.036,0.045
0.038,0.039
0.037,0.042
0.036,0.039
0.040,0.042
0.039,0.043
0.043,0.045
0.037,0.045
0.040,0.042
0.042,0.039
0.042,0.034
0.041,0.033
0.043,0.038
0.041,0.040
0.040,0.045
0.041,0.046
0.045,0.053
0.049,0.056
0.058,0.051
0.058,0.048
0.057,0.048
0.047,0.051
0.032,0.033
0.009,0.024
-0.008,0.031
-0.002,0.039
0.029,0.043
0.056,0.041
0.061,0.034
0.047,0.032
0.036,0.032
0.037,0.035
0.042,0.034
0.051,0.038
0.060,0.038
0.061,0.039
0.058,0.032
0.059,0.030
0.056,0.035
0.053,0.036
0.048,0.039
0.049,0.038
0.053,0.033
0.050,0.023
0.043,0.014
0.036,0.010
0.023,0.011
0.011,0.019
0.016,0.026
0.038,0.031
0.057,0.030
0.073,0.031
0.073,0.028
0.065,0.025
0.060,0.026
0.063,0.020
0.063,0.020
0.071,0.014
0.067,0.012
0.063,0.012
0.055,0.014
0.049,0.010
0.047,0.008
0.047,0.004
0.050,0.002
0.051,0.003
0.049,0.004
0.047,0.004
0.047,0.004
0.047,0.008
0.053,0.015
0.068,0.022
0.080,0.015
0.076,0.017
0.057,0.026
0.026,0.024
-0.013,0.022
-0.052,0.013
-0.057,0.006
-0.015,-0.012
0.045,-0.026
0.089,-0.029
0.104,-0.026
0.095,-0.020
0.080,-0.020
0.067,-0.014
0.056,-0.006
0.053,-0.002
0.050,0.005
0.049,0.002
0.048,0.001
0.046,-0.006
0.047,-0.004
0.046,-0.011
0.048,-0.010
0.045,-0.007
0.045,-0.009
0.046,-0.011
0.050,-0.016
0.052,-0.019
0.058,-0.017
0.061,-0.017
0.057,-0.016
0.053,-0.011
0.045,-0.010
0.032,-0.009
0.020,-0.006
0.014,0.003
0.019,0.006
0.036,0.009
0.053,0.005
0.062,0.002
0.059,-0.003
0.057,-0.003
0.049,-0.004
0.049,-0.002
0.047,-0.001
0.046,-0.001
0.045,-0.000
0.045,0.001
0.047,0.001
0.051,0.003
0.051,0.002
0.050,0.004
0.049,0.005
0.048,0.011
0.039,0.011
0.036,0.012
0.033,0.017
0.037,0.013
0.040,0.011
0.052,0.008
0.059,0.008
0.059,0.003
0.061,0.005
0.053,0.006
0.049,0.009
0.042,0.012
0.040,0.014
0.037,0.018
0.034,0.017
0.028,0.021
0.024,0.018
0.025,0.016
0.030,0.010
0.036,0.016
0.045,0.015
0.047,0.023
0.046,0.023
0.040,0.025
0.033,0.027
0.032,0.028
0.034,0.030
0.049,0.029
0.065,0.032
0.067,0.026
0.059,0.031
0.050,0.030
0.042,0.034
0.033,0.036
0.028,0.038
0.021,0.041
0.013,0.041
0.015,0.042
0.031,0.039
0.048,0.035
0.054,0.033
0.047,0.035
0.039,0.039
0.036,0.040
0.036,0.045
0.036,0.044
0.044,0.042
0.042,0.039
0.045,0.037
0.045,0.039
0.042,0.043
0.036,0.049
0.030,0.042
0.025,0.035
0.025,0.036
0.034,0.036
0.042,0.040
0.051,0.036
0.053,0.036
0.054,0.034
0.058,0.038
0.057,0.037
0.057,0.041
0.055,0.047
0.056,0.044
0.053,0.049
0.048,0.058
0.044,0.067
0.044,0.074
0.047,0.075
0.047,0.060
0.054,0.037
0.053,0.017
0.049,0.010
0.044,0.011
0.047,0.017
0.045,0.019
0.042,0.026
0.040,0.026
0.042,0.027
0.040,0.028
0.043,0.029
0.041,0.030
0.046,0.028
0.049,0.030
0.048,0.027
0.051,0.029
0.049,0.028
0.047,0.029
0.042,0.032
0.044,0.029
0.045,0.025
0.052,0.021
0.052,0.019
0.051,0.018
0.045,0.016
0.039,0.013
0.037,0.011
0.043,0.008
0.059,0.007
0.077,0.007
0.079,0.005
0.069,0.008
0.057,0.008
0.040,0.015
0.036,0.017
0.040,0.019
0.046,0.019
0.052,0.025
0.047,0.027
0.039,0.033
0.034,0.031
0.038,0.033
0.037,0.024
0.044,0.004
0.049,-0.011
0.058,-0.018
0.062,-0.018
0.058,-0.011
0.057,-0.011
0.052,-0.010
0.057,-0.007
0.060,-0.010
0.058,-0.013
0.047,-0.016
0.039,-0.011
0.031,-0.011
0.023,-0.001
0.016,0.003
0.037,0.003
0.063,-0.003
0.072,-0.019
0.063,-0.024
0.054,-0.027
0.051,-0.020
0.051,-0.014
0.052,-0.005
0.053,-0.000
0.052,0.004
0.050,0.007
0.046,0.008
0.046,0.010
0.044,0.009
0.047,0.007
0.046,0.004
0.041,0.005
0.034,0.008
0.032,0.005
0.025,-0.001
0.019,-0.007
0.021,-0.009
0.034,-0.003
0.049,0.009
0.058,0.009
0.055,-0.006
0.056,-0.020
0.052,-0.024
0.049,-0.020
0.051,-0.008
0.044,-0.005
0.043,-0.004
0.040,-0.002
0.043,-0.001
0.041,-0.002
0.044,0.000
0.039,0.008
0.044,0.010
0.042,0.012
0.043,0.012
0.045,0.015
0.042,0.015
0.043,0.015
0.043,0.014
0.047,0.010
0.049,0.011
0.053,0.008
0.049,0.011
0.046,0.011
0.044,0.016
0.035,0.018
0.035,0.024
0.031,0.021
0.036,0.024
0.040,0.022
0.050,0.020
0.050,0.017
0.054,0.015
0.049,0.018
0.047,0.015
0.034,0.025
0.023,0.036
0.016,0.048
0.020,0.053
0.031,0.055
0.039,0.051
0.052,0.047
0.057,0.041
0.058,0.042
0.052,0.049
0.049,0.051
0.045,0.050
0.084,0.046
0.084,0.028
0.083,0.016
0.079,0.014
0.076,0.020
0.070,0.023
0.068,0.032
0.065,0.034
0.067,0.039
0.068,0.038
0.025,0.031
0.025,0.041
0.021,0.028
0.017,-0.011
0.010,-0.047
0.010,0.022
0.002,0.098
0.004,0.153
0.014,0.159
0.039,0.118
0.053,0.061
0.054,0.013
0.043,-0.007
0.032,-0.010
0.032,0.005
0.033,0.026
0.041,0.038
0.043,0.047
0.045,0.050
0.046,0.053
0.046,0.057
0.045,0.044
0.043,0.034
0.040,0.020
0.041,0.021
0.040,0.025
0.041,0.035
0.039,0.039
0.037,0.038
0.047,0.038
0.056,0.031
0.062,0.028
0.049,0.024
0.031,0.026
0.003,0.033
-0.025,0.043
-0.030,0.049
0.005,0.049
0.057,0.044
0.082,0.037
0.082,0.032
0.071,0.031
0.059,0.027
0.053,0.027
0.049,0.022
0.051,0.023
0.046,0.019
0.048,0.018
0.046,0.019
0.047,0.019
0.045,0.020
0.046,0.018
0.044,0.021
0.045,0.019
0.043,0.020
0.045,0.013
0.045,0.012
0.048,0.009
0.049,0.009
0.050,0.005
0.051,0.006
0.048,0.003
0.048,0.005
0.044,0.003
0.045,0.002
0.044,0.001
0.046,0.001
0.050,0.001
0.054,-0.003
0.057,-0.006
0.055,-0.004
0.049,-0.006
0.046,-0.007
0.034,-0.004
0.024,-0.001
0.012,0.003
0.019,0.003
0.034,0.008
0.046,0.009
0.051,0.009
0.059,0.012
0.071,0.017
0.069,0.007
0.060,-0.017
0.049,-0.025
0.040,-0.029
0.043,-0.024
0.041,-0.019
0.048,-0.013
0.046,-0.007
0.048,-0.007
0.048,-0.004
0.047,-0.005
0.049,-0.002
0.049,-0.005
0.053,-0.007
0.052,-0.006
0.050,-0.007
0.046,-0.003
0.045,-0.005
0.046,-0.007
0.047,-0.011
0.045,-0.010
0.044,-0.008
0.040,-0.007
0.036,-0.001
0.031,-0.003
0.034,-0.003
0.043,-0.006
0.057,0.001
0.058,0.012
0.042,0.021
0.016,0.024
-0.011,0.016
-0.028,-0.003
-0.037,-0.017
-0.014,-0.023
0.037,-0.016
0.072,-0.016
0.072,-0.008
0.061,-0.006
0.056,0.003
0.062,0.009
0.072,0.015
0.069,0.018
0.067,0.011
0.059,0.011
0.052,0.009
0.052,0.010
0.049,0.009
0.048,0.011
0.043,0.013
0.045,0.015
0.038,0.020
0.039,0.015
0.037,0.008
0.038,-0.006
0.036,-0.014
0.036,-0.023
0.033,-0.018
0.029,-0.004
0.031,0.015
0.027,0.038
0.030,0.060
0.034,0.073
0.045,0.065
0.059,0.019
0.061,0.018
0.056,0.101
0.052,0.160
0.044,0.181
0.041,0.168
0.038,0.125
0.034,0.036
0.036,-0.039
0.036,-0.071
0.036,-0.062
0.029,-0.029
0.029,-0.005
0.034,0.013
0.038,0.017
0.044,0.023
0.045,0.028
0.041,0.029
0.037,0.032
0.037,0.034
0.037,0.036
0.038,0.034
0.040,0.034
0.040,0.037
0.041,0.038
0.042,0.041
0.043,0.040
0.045,0.041
0.043,0.037
0.041,0.041
0.042,0.041
0.040,0.043
0.037,0.043
0.038,0.044
0.041,0.045
0.041,0.045
0.044,0.045
0.045,0.044
0.045,0.042
0.045,0.037
0.047,0.035
0.051,0.035
0.045,0.037
0.046,0.036
0.042,0.039
0.049,0.039
0.052,0.039
0.055,0.032
0.055,0.034
0.050,0.031
0.043,0.034
0.025,0.037
0.020,0.038
0.027,0.040
0.051,0.037
0.063,0.033
0.062,0.032
0.049,0.031
0.035,0.035
0.027,0.036
0.026,0.037
0.039,0.033
0.056,0.032
0.061,0.026
0.059,0.023
0.052,0.024
0.046,0.024
0.042,0.026
0.048,0.028
0.052,0.030
0.056,0.025
0.056,0.025
0.052,0.024
0.051,0.020
0.052,0.019
0.050,0.018
0.050,0.015
0.053,0.012
0.054,0.011
0.058,0.013
0.056,0.015
0.059,0.014
0.053,0.017
0.049,0.029
0.044,0.036
0.038,0.037
0.030,0.026
0.025,0.008
0.015,-0.019
0.006,-0.032
0.012,-0.033
0.035,-0.022
0.058,-0.014
0.069,0.000
0.064,0.003
0.059,0.001
0.057,-0.003
0.057,-0.005
0.058,-0.007
0.060,-0.006
0.056,-0.006
0.051,0.000
0.042,0.000
0.042,0.004
0.048,-0.001
0.061,-0.009
0.064,-0.013
0.052,-0.021
0.019,-0.022
-0.018,-0.021
-0.045,-0.012
-0.038,-0.013
0.019,-0.013
0.067,-0.008
0.082,-0.008
0.065,0.003
0.060,-0.011
0.061,-0.056
0.060,-0.062
0.060,0.013
0.056,0.084
0.052,0.123
0.053,0.122
0.057,0.065
0.057,-0.021
0.055,-0.076
0.052,-0.081
0.047,-0.062
0.044,-0.035
0.042,-0.013
0.041,0.003
0.043,0.008
0.043,0.012
0.038,0.012
0.038,0.010
0.038,0.002
0.041,-0.001
0.038,-0.002
0.045,-0.002
0.045,-0.001
0.045,0.000
0.048,0.005
0.051,0.002
0.053,0.005
0.054,0.005
0.056,0.005
0.055,0.010
0.052,0.010
0.045,0.017
0.043,0.016
0.040,0.018
0.045,0.015
0.051,0.015
0.049,0.015
0.046,0.015
0.038,0.016
0.034,0.016
0.034,0.013
0.032,0.014
0.035,0.016
0.036,0.016
0.041,0.020
0.041,0.022
0.034,0.029
0.029,0.036
0.023,0.037
0.019,0.041
0.020,0.045
0.038,0.046
0.068,0.047
0.094,0.044
0.089,0.036
0.071,0.033
0.052,0.026
0.040,0.024
0.033,0.022
0.031,0.026
0.031,0.026
0.033,0.030
0.030,0.037
0.033,0.044
0.035,0.050
0.044,0.058
0.050,0.064
0.045,0.071
0.037,0.068
0.023,0.068
0.000,0.055
-0.020,0.042
-0.012,0.022
0.033,0.017
0.070,0.015
0.083,0.019
0.075,0.027
0.069,0.034
0.053,0.038
0.042,0.037
0.036,0.039
0.023,0.036
0.015,0.039
0.013,0.044
0.029,0.044
0.043,0.045
0.059,0.044
0.061,0.044
0.058,0.042
0.051,0.043
0.049,0.043
0.047,0.043
0.047,0.046
0.045,0.045
0.050,0.047
0.047,0.044
0.048,0.043
0.048,0.046
0.048,0.042
0.046,0.040
0.048,0.038
0.049,0.036
0.049,0.039
0.048,0.036
0.043,0.040
0.042,0.035
0.041,0.036
0.037,0.036
0.038,0.040
0.034,0.045
0.044,0.040
0.056,0.038
0.068,0.031
0.067,0.034
0.048,0.035
0.039,0.041
0.035,0.050
0.048,0.043
0.056,0.019
0.060,0.001
0.053,-0.002
0.048,-0.006
0.048,-0.007
0.053,-0.004
0.052,0.004
0.050,0.006
0.047,0.007
0.041,0.008
0.033,0.005
0.027,0.012
0.037,0.010
0.045,0.012
0.052,0.007
0.058,0.010
0.056,0.009
0.055,0.011
0.048,0.008
0.048,0.005
0.041,0.005
0.035,-0.000
0.028,-0.001
0.023,-0.003
0.019,0.001
0.022,0.000
0.046,0.002
0.062,-0.003
0.066,-0.004
0.048,-0.002
0.026,-0.003
-0.006,0.002
-0.016,0.004
0.008,0.014
0.042,0.009
0.060,-0.029
0.061,-0.074
0.064,-0.013
0.071,0.063
0.082,0.102
0.086,0.105
0.071,0.086
0.054,0.039
0.044,-0.000
0.049,-0.022
0.057,-0.029
0.056,-0.026
0.043,-0.035
0.036,-0.040
0.032,-0.037
0.039,-0.038
0.046,-0.037
0.049,-0.031
0.049,-0.023
0.049,-0.019
0.051,-0.012
0.049,-0.008
0.055,-0.004
0.056,-0.004
0.062,-0.003
0.060,0.001
0.063,-0.000
0.057,-0.001
0.052,-0.001
0.044,0.002
0.036,0.006
0.030,0.012
0.032,0.015
0.036,0.010
0.039,0.010
0.040,0.007
0.039,0.009
0.038,0.016
0.037,0.027
0.037,0.035
0.036,0.036
0.035,0.025
0.039,0.008
0.041,-0.013
0.044,-0.017
0.046,-0.013
0.046,-0.004
0.047,-0.001
0.047,0.007
0.044,0.006
0.040,0.015
0.037,0.012
0.033,0.016
0.030,0.019
0.026,0.022
0.031,0.025
0.041,0.029
0.041,0.031
0.046,0.034
0.048,0.035
0.045,0.033
0.047,0.028
0.046,0.024
0.051,0.023
0.049,0.022
0.049,0.026
0.046,0.029
0.042,0.035
0.039,0.036
0.041,0.034
0.042,0.033
0.046,0.030
0.046,0.034
0.047,0.034
0.048,0.032
0.047,0.033
0.042,0.029
0.035,0.029
0.028,0.027
0.021,0.032
0.014,0.034
0.024,0.040
0.035,0.039
0.056,0.042
0.058,0.039
0.056,0.038
0.051,0.043
0.050,0.043
0.047,0.044
0.048,0.041
0.050,0.038
0.050,0.035
0.052,0.037
0.043,0.039
0.041,0.037
0.036,0.042
0.039,0.042
0.040,0.043
0.039,0.042
0.037,0.041
0.035,0.043
0.037,0.047
0.033,0.049
0.029,0.051
0.039,0.053
0.056,0.047
0.075,0.043
0.075,0.041
0.065,0.039
0.049,0.039
0.038,0.039
0.036,0.040
0.041,0.041
0.049,0.040
0.043,0.039
0.024,0.033
0.002,0.033
-0.019,0.036
-0.015,0.038
0.022,0.041
0.070,0.038
0.095,0.042
0.092,0.036
0.079,0.036
0.067,0.034
0.062,0.034
0.055,0.039
0.055,0.039
0.050,0.013
0.054,-0.035
0.060,0.000
0.058,0.082
0.053,0.155
0.040,0.166
0.031,0.121
0.033,0.055
0.037,-0.018
0.042,-0.050
0.048,-0.052
0.048,-0.020
0.048,0.001
0.041,0.006
0.037,-0.009
0.034,-0.015
0.023,-0.012
0.023,-0.004
0.028,0.005
0.045,0.004
0.050,0.006
0.047,0.002
0.041,0.008
0.050,0.003
0.065,0.002
0.074,-0.001
0.071,-0.003
0.055,-0.001
0.037,0.006
0.023,0.013
0.027,0.012
0.037,0.008
0.047,-0.003
0.049,-0.003
0.051,-0.008
0.053,-0.011
0.050,-0.009
0.049,-0.011
0.049,-0.009
0.050,-0.012
0.057,-0.011
0.059,-0.013
0.047,-0.012
0.029,-0.016
0.010,-0.017
-0.008,-0.016
-0.018,-0.014
0.004,-0.011
0.050,-0.009
0.078,-0.005
0.075,0.000
0.057,0.010
0.048,0.013
0.044,0.011
0.051,0.005
0.052,0.002
0.057,-0.006
0.054,-0.001
0.051,-0.003
0.051,-0.002
0.048,-0.002
0.049,0.000
0.044,0.006
0.044,0.007
0.042,0.007
0.044,0.003
0.046,0.000
0.042,-0.006
0.041,-0.005
0.037,0.002
0.039,0.004
0.040,0.010
0.044,0.006
0.050,0.011
0.049,0.011
0.052,0.015
0.052,0.018
0.054,0.014
0.049,0.014
0.046,0.011
0.041,0.014
0.039,0.015
0.031,0.017
0.024,0.021
0.033,0.018
0.047,0.014
0.056,0.013
0.053,0.012
0.040,0.016
0.032,0.024
0.029,0.030
0.028,0.018
0.032,0.003
0.039,-0.001
0.048,0.004
0.048,0.010
0.049,0.020
0.046,0.024
0.043,0.028
0.044,0.027
0.043,0.033
0.040,0.035
0.040,0.036
0.042,0.034
0.043,0.036
0.044,0.033
0.045,0.032
0.045,0.030
0.043,0.028
0.041,0.029
0.039,0.026
0.036,0.021
0.041,0.024
0.046,0.028
0.053,0.033
0.052,0.034
0.047,0.039
0.039,0.053
0.032,0.064
0.032,0.074
0.036,0.074
0.037,0.067
0.034,0.043
0.040,0.027
0.043,0.020
0.047,0.022
0.045,0.024
0.047,0.027
0.044,0.035
0.044,0.036
0.035,0.038
0.031,0.037
0.030,0.040
0.031,0.037
0.038,0.039
0.052,0.037
0.060,0.034
0.053,0.038
0.033,0.036
0.010,0.004
-0.013,-0.036
-0.005,0.012
0.039,0.077
0.082,0.129
0.101,0.151
0.091,0.133
0.072,0.084
0.050,0.033
0.027,0.003
0.014,0.004
0.012,0.012
0.024,0.023
0.039,0.031
0.051,0.036
0.045,0.031
0.040,0.026
0.030,0.029
0.023,0.029
0.033,0.036
0.044,0.034
0.058,0.036
0.060,0.033
0.073,0.028
0.072,0.027
0.066,0.026
0.056,0.027
0.045,0.027
0.041,0.030
0.038,0.035
0.037,0.032
0.040,0.035
0.049,0.027
0.053,0.028
0.057,0.020
0.058,0.020
0.056,0.019
0.059,0.019
0.052,0.014
0.048,0.017
0.041,0.013
0.042,0.011
0.044,0.010
0.047,0.005
0.047,0.005
0.045,0.003
0.047,0.003
0.043,0.002
0.044,0.001
0.045,0.000
0.047,-0.001
0.047,0.002
0.050,0.002
0.049,0.004
0.054,0.003
0.054,-0.001
0.057,-0.003
0.057,-0.006
0.056,-0.003
0.053,-0.005
0.049,0.000
0.044,-0.002
0.040,-0.001
0.038,-0.003
0.041,-0.007
0.038,-0.003
0.042,-0.006
0.040,-0.005
0.040,-0.009
0.039,-0.008
0.038,-0.011
0.043,-0.011
0.041,-0.010
0.045,-0.013
0.047,-0.009
0.057,-0.016
0.057,-0.019
0.044,-0.023
0.024,-0.023
0.005,-0.015
-0.015,-0.011
-0.018,-0.005
0.019,-0.002
0.066,-0.002
0.084,-0.005
0.071,-0.005
0.048,-0.001
0.029,0.004
0.030,0.007
0.044,0.003
0.063,0.002
0.066,-0.001
0.060,-0.004
0.050,-0.004
0.045,-0.008
0.044,-0.007
0.043,-0.006
0.044,-0.005
0.044,-0.001
0.046,0.001
0.046,0.003
0.043,0.001
0.044,0.005
0.042,0.005
0.046,0.007
0.047,0.006
0.045,0.009
0.039,0.011
0.036,0.012
0.033,0.009
0.032,0.006
0.035,0.004
0.046,0.004
0.057,0.003
0.055,0.009
0.043,0.010
0.030,0.018
0.035,0.022
0.049,0.024
0.050,0.022
0.049,0.022
0.039,0.024
0.039,0.024
0.037,0.023
0.044,0.022
0.048,0.019
0.051,0.016
0.051,0.019
0.050,0.021
0.046,0.024
0.039,0.028
0.032,0.032
0.028,0.033
0.026,0.035
0.030,0.034
0.036,0.036
0.036,0.036
0.039,0.040
0.032,0.043
0.028,0.044
0.029,0.038
0.038,0.031
0.045,0.026
0.049,0.020
0.049,0.022
0.053,0.026
0.051,0.031
0.050,0.031
0.051,0.029
0.048,0.029
0.047,0.029
0.042,0.033
0.038,0.037
0.028,0.044
0.026,0.053
0.033,0.051
0.039,0.045
0.045,0.038
0.053,0.034
0.053,0.033
0.054,0.033
0.050,0.035
0.045,0.035
0.037,0.036
0.034,0.037
0.029,0.038
0.012,0.039
-0.013,0.039
-0.027,0.043
-0.028,0.046
-0.009,0.047
0.030,0.044
0.081,0.041
0.108,0.039
0.104,0.035
0.082,0.036
0.065,0.032
0.051,0.037
0.047,0.035
0.048,0.038
0.051,0.038
0.054,0.038
0.052,0.038
0.050,0.036
0.050,0.038
0.049,0.036
0.047,0.036
0.042,0.031
0.041,0.029
0.036,0.026
0.027,0.023
0.024,0.027
0.026,0.028
0.041,0.026
0.052,0.029
0.062,0.029
0.062,0.032
0.058,0.031
0.054,0.037
0.048,0.035
0.041,0.034
0.042,0.031
0.043,0.024
0.047,0.018
0.054,0.013
0.054,0.005
0.056,0.002
0.054,-0.000
0.057,0.002
0.054,0.002
0.050,0.002
0.050,0.004
0.052,0.004
0.050,0.004
0.049,0.008
0.048,0.008
0.047,0.011
0.046,0.007
0.049,0.006
0.051,0.003
0.053,0.004
0.056,0.001
0.052,0.003
0.051,0.004
0.049,0.003
0.042,0.002
0.040,0.001
0.044,-0.001
0.041,0.000
0.042,-0.002
0.043,-0.001
0.042,-0.003
0.049,-0.003
0.047,-0.006
0.045,-0.006
0.044,-0.003
0.043,-0.005
0.044,-0.006
0.045,-0.009
0.048,-0.008
0.048,-0.010
0.048,-0.007
0.044,-0.005
0.043,-0.005
0.041,-0.004
0.045,-0.004
0.050,-0.004
0.050,-0.003
0.045,-0.005
0.046,-0.004
0.053,-0.005
0.054,-0.005
0.052,-0.007
0.055,-0.005
0.053,-0.007
0.049,-0.005
0.036,-0.001
0.022,0.001
0.013,0.002
0.014,0.000
0.013,0.000
0.019,0.001
0.031,0.005
0.048,0.007
0.063,0.004
0.065,0.003
0.059,0.001
0.054,0.003
0.047,0.001
0.045,0.000
0.040,0.003
0.042,0.003
0.037,0.004
0.039,0.006
0.041,0.006
0.041,0.009
0.039,0.010
0.038,0.013
0.039,0.014
0.044,0.015
0.042,0.014
0.038,0.016
0.036,0.014
0.031,0.014
0.032,0.015
0.034,0.017
0.038,0.019
0.040,0.016
0.043,0.020
0.048,0.015
0.048,0.019
0.046,0.023
0.043,0.025
0.037,0.025
0.034,0.031
0.032,0.030
0.030,0.034
0.026,0.031
0.030,0.034
0.031,0.031
0.033,0.028
0.031,0.030
0.032,0.033
0.029,0.039
0.038,0.036
0.041,0.038
0.048,0.032
0.053,0.033
0.052,0.036
0.052,0.035
0.051,0.038
0.048,0.036
0.048,0.033
0.049,0.032
0.050,0.031
0.050,0.034
0.047,0.034
0.047,0.030
0.042,0.030
0.040,0.032
0.030,0.028
0.032,0.028
0.033,0.038
0.037,0.045
0.039,0.050
0.041,0.045
0.040,0.041
0.039,0.037
0.040,0.036
0.041,0.037
0.040,0.041
0.043,0.049
0.045,0.046
0.045,0.047
0.048,0.043
0.050,0.043
0.046,0.044
0.046,0.043
0.041,0.048
0.041,0.041
0.042,0.041
0.043,0.039
0.044,0.040
0.042,0.039
0.037,0.039
0.036,0.038
0.035,0.032
0.034,0.030
0.038,0.025
0.040,0.024
0.042,0.026
0.044,0.028
0.045,0.032
0.047,0.035
0.054,0.037
0.049,0.036
0.049,0.040
0.042,0.042
0.043,0.042
0.045,0.038
0.044,0.037
0.044,0.036
0.042,0.033
0.040,0.026
0.038,0.024
0.041,0.019
0.041,0.019
0.044,0.017
0.047,0.019
0.049,0.015
0.047,0.014
0.049,0.012
0.052,0.012
0.050,0.012
0.050,0.010
0.051,0.009
0.048,0.006
0.048,0.010
0.047,0.008
0.045,0.006
0.045,0.007
0.043,0.008
0.043,0.005
0.046,0.005
0.044,0.003
0.048,0.003
0.045,0.004
0.046,0.001
0.041,0.002
0.041,0.002
0.042,0.001
0.043,-0.002
0.045,0.000
0.043,0.004
0.041,0.001
0.041,0.001
0.043,-0.003
0.046,-0.002
0.042,-0.003
0.047,-0.003
0.043,-0.002
0.044,-0.004
0.042,-0.007
0.041,-0.011
0.038,-0.007
0.035,-0.009
0.034,-0.010
0.033,-0.011
0.036,-0.009
0.036,-0.011
0.042,-0.011
0.046,-0.005
0.050,-0.003
0.049,-0.003
0.047,0.001
0.047,-0.001
0.045,-0.002
0.045,-0.007
0.046,-0.005
0.046,-0.004
0.043,0.000
0.042,0.001
0.042,0.002
0.038,-0.002
0.039,-0.003
0.038,-0.005
0.041,-0.007
0.040,-0.005
0.039,-0.001
0.039,-0.001
0.041,-0.002
0.043,0.001
0.047,0.001
0.043,0.002
0.045,0.002
0.040,0.009
0.044,0.007
0.045,0.007
0.045,0.004
0.048,0.005
0.044,0.007
0.047,0.007
0.043,0.011
0.044,0.010
0.041,0.011
0.041,0.014
0.044,0.013
0.042,0.013
0.039,0.011
0.039,0.015
0.039,0.014
0.036,0.017
0.038,0.018
0.036,0.020
0.036,0.019
0.037,0.023
0.040,0.023
0.037,0.025
0.039,0.024
0.040,0.029
0.040,0.024
0.043,0.026
0.041,0.026
0.044,0.026
0.042,0.030
0.043,0.028
0.040,0.032
0.038,0.031
0.036,0.032
0.037,0.029
0.038,0.031
0.039,0.028
0.042,0.031
0.041,0.032
0.043,0.034
0.039,0.036
0.041,0.035
0.041,0.035
0.040,0.034
0.040,0.035
0.041,0.034
0.038,0.035
0.038,0.041
0.036,0.039
0.036,0.041
0.038,0.040
0.039,0.042
0.039,0.040
0.042,0.040
0.038,0.042
0.041,0.041
0.042,0.044
0.043,0.043
0.043,0.039
0.042,0.042
0.042,0.039
0.041,0.043
0.040,0.040
0.044,0.041
0.039,0.039
0.039,0.039
0.041,0.044
0.042,0.043
0.041,0.046
0.040,0.042
0.045,0.042
0.042,0.039
0.043,0.038
0.036,0.039
0.033,0.040
0.028,0.043
0.033,0.040
0.040,0.042
0.044,0.037
0.047,0.038
0.049,0.037
0.049,0.036
0.049,0.038
0.049,0.035
0.051,0.035
0.048,0.035
0.048,0.035
0.046,0.038
0.049,0.036
0.046,0.033
0.045,0.030
0.047,0.030
0.049,0.026
0.049,0.026
0.048,0.030
0.046,0.027
0.043,0.031
0.042,0.027
0.041,0.029
0.041,0.023
0.045,0.023
0.042,0.023
0.050,0.021
0.049,0.019
0.053,0.016
0.048,0.019
0.050,0.016
0.046,0.014
0.046,0.013
0.049,0.016
0.047,0.009
0.048,0.008
0.048,0.007
0.049,0.008
0.049,0.005
0.049,0.006
0.045,0.009
0.046,0.004
0.042,0.010
0.041,0.004
0.043,0.004
0.042,0.001
0.041,-0.000
0.044,0.002
0.045,-0.002
0.045,0.001
0.046,-0.001
0.049,0.001
0.048,-0.002
0.049,-0.001
0.046,-0.002
0.048,-0.003
0.045,-0.003
0.045,-0.004
0.045,-0.003
0.045,-0.007
0.044,-0.005
0.044,-0.005
0.041,-0.003
0.043,-0.005
0.042,-0.006
0.047,-0.006
0.046,-0.003
0.049,-0.003
0.043,-0.002
0.043,-0.005
0.047,-0.004
0.043,-0.007
0.045,-0.005
0.046,-0.003
0.045,-0.003
0.041,0.000
0.043,-0.000
0.042,0.004
0.044,0.001
0.046,0.002
0.044,0.003
0.040,0.005
0.039,0.006
0.039,0.003
0.041,0.004
0.045,0.000
0.044,0.003
0.045,0.001
0.047,0.006
0.043,0.006
0.046,0.006
0.045,0.006
0.045,0.007
0.045,0.006
0.044,0.010
0.043,0.010
0.042,0.012
0.041,0.011
0.044,0.009
0.045,0.011
0.050,0.008
0.047,0.012
0.045,0.010
0.041,0.015
0.037,0.014
0.038,0.018
0.036,0.015
0.036,0.018
0.035,0.018
0.038,0.019
0.036,0.020
0.040,0.023
0.037,0.020
0.042,0.024
0.043,0.024
0.048,0.025
0.044,0.028
0.042,0.027
0.039,0.033
0.038,0.031
0.035,0.032
0.036,0.031
0.036,0.034
0.036,0.033
0.040,0.037
0.038,0.035
0.039,0.037
0.039,0.041
0.038,0.041
0.042,0.042
0.041,0.039
0.042,0.040
0.039,0.037
0.039,0.036
0.035,0.038
0.036,0.036
0.038,0.039
0.038,0.037
0.045,0.039
0.043,0.038
0.043,0.042
0.040,0.044
0.039,0.044
0.036,0.046
0.039,0.043
0.039,0.044
0.040,0.042
0.041,0.043
0.042,0.044
0.040,0.044
0.042,0.042
0.037,0.038
0.041,0.039
0.038,0.041
0.038,0.042
0.040,0.046
0.043,0.047
0.043,0.045
0.045,0.042
0.045,0.043
0.047,0.045
0.045,0.043
0.044,0.043
0.043,0.042
0.046,0.042
0.043,0.041
0.047,0.040
0.044,0.043
0.045,0.039
0.042,0.041
0.043,0.037
0.044,0.039
0.043,0.038
0.045,0.037
0.042,0.039
0.043,0.037
0.042,0.036
0.043,0.034
0.047,0.033
0.046,0.034
0.048,0.031
0.044,0.034
0.046,0.031
0.046,0.031
0.045,0.027
0.049,0.029
0.047,0.028
0.045,0.027
0.040,0.028
0.044,0.024
0.041,0.024
0.045,0.022
0.046,0.022
0.048,0.018
0.047,0.021
0.047,0.014
0.048,0.018
0.049,0.013
0.049,0.013
0.047,0.010
0.045,0.010
0.040,0.011
0.044,0.009
0.041,0.007
0.044,0.006
0.044,0.007
0.049,0.004
0.049,0.004
0.049,0.005
0.048,0.005
0.045,0.007
0.043,0.002
0.042,0.003
0.041,-0.002
0.045,0.003
0.044,-0.001
0.044,-0.001
0.041,0.004
0.043,0.001
0.044,0.002
0.046,-0.003
0.051,-0.002
0.050,-0.003
0.047,-0.005
0.047,-0.003
0.047,-0.007
0.047,-0.004
0.048,-0.008
0.046,-0.006
0.045,-0.004
0.041,-0.005
0.044,-0.003
0.042,-0.004
0.044,-0.002
0.043,-0.004
0.043,-0.005
0.041,0.000
0.041,-0.003
0.040,-0.005
0.041,-0.006
0.043,-0.007
0.044,-0.004
0.043,-0.007
0.042,-0.001
0.041,-0.003
0.042,-0.003
0.039,-0.004
0.043,-0.003
0.040,-0.000
0.043,0.001
0.041,0.004
0.039,0.000
0.040,0.005
0.040,0.001
0.044,0.006
0.040,0.004
0.043,0.005
0.037,0.006
0.040,0.007
0.040,0.007
0.041,0.007
0.041,0.009
0.040,0.013
0.039,0.010
0.040,0.012
0.039,0.011
0.044,0.012
0.043,0.009
0.044,0.012
0.042,0.013
0.043,0.012
0.039,0.016
0.042,0.017
0.039,0.017
0.039,0.018
0.037,0.016
0.037,0.019
0.036,0.020
0.038,0.022
0.041,0.023
0.040,0.023
0.042,0.026
0.042,0.024
0.042,0.026
0.045,0.026
0.043,0.026
0.046,0.029
0.042,0.029
0.043,0.030
0.041,0.030
0.041,0.034
0.038,0.032
0.044,0.031
0.042,0.033
0.042,0.035
0.040,0.038
0.039,0.038
0.042,0.041
0.041,0.037
0.045,0.037
0.041,0.037
0.042,0.036
0.039,0.038
0.039,0.037
0.040,0.038
0.040,0.036
0.044,0.038
0.046,0.039
0.044,0.037
0.043,0.043
0.045,0.042
0.044,0.046
0.043,0.040
0.045,0.041
0.043,0.040
0.045,0.038
0.042,0.043
0.046,0.041
0.037,0.042
0.043,0.041
0.042,0.041
0.045,0.039
0.043,0.037
0.043,0.042
0.041,0.043
0.042,0.044
0.041,0.042
0.044,0.041
0.042,0.043
0.042,0.039
0.040,0.045
0.039,0.040
0.040,0.042
0.039,0.037
0.045,0.039
0.042,0.038
0.044,0.038
0.039,0.037
0.045,0.036
0.041,0.036
0.044,0.032
0.049,0.032
0.044,0.030
0.046,0.031
0.042,0.034
0.043,0.030
0.046,0.029
0.044,0.025
0.049,0.027
0.044,0.029
0.046,0.028
0.042,0.025
0.046,0.019
0.049,0.021
0.045,0.020
0.046,0.020
0.045,0.020
0.047,0.020
0.047,0.020
0.050,0.018
0.046,0.018
0.048,0.013
0.047,0.014
0.048,0.012
0.045,0.011
0.045,0.008
0.043,0.010
0.045,0.007
0.046,0.006
0.046,0.004
0.048,0.003
0.047,0.009
0.046,0.006
0.043,0.007
0.043,0.003
0.045,0.003
0.044,-0.001
0.047,0.001
0.046,0.002
0.047,0.002
0.045,0.003
0.046,0.001
0.045,0.000
0.045,-0.000
0.045,-0.002
0.045,-0.003
0.046,-0.002
0.046,-0.001
0.046,-0.005
0.048,-0.005
0.045,-0.010
0.047,-0.008
0.046,-0.006
0.043,-0.010
0.044,-0.005
0.045,-0.008
0.048,-0.005
0.043,-0.007
0.046,-0.007
0.044,-0.003
0.046,-0.003
0.045,-0.005
0.047,-0.005
0.049,-0.006
0.048,-0.005
0.050,-0.006
0.049,-0.001
0.045,-0.007
0.047,-0.004
0.046,-0.006
0.050,-0.003
0.046,-0.003
0.047,-0.002
0.046,-0.001
0.047,-0.002
0.044,-0.002
0.046,-0.001
0.044,0.001
0.043,-0.001
0.041,-0.001
0.045,0.000
0.045,-0.000
0.050,0.005
0.046,0.002
0.049,0.004
0.046,0.005
0.047,0.002
0.044,0.006
0.045,0.005
0.043,0.007
0.044,0.003
0.043,0.008
0.044,0.010
0.046,0.010
0.041,0.011
0.041,0.010
0.042,0.010
0.045,0.012
0.047,0.012
0.048,0.010
0.047,0.014
0.043,0.014
0.041,0.017
0.039,0.018
0.039,0.021
0.038,0.021
0.041,0.023
0.044,0.026
0.043,0.026
0.042,0.029
0.042,0.024
0.043,0.028
0.040,0.024
0.043,0.025
0.039,0.025
0.042,0.025
0.044,0.025
0.041,0.026
0.038,0.032
0.039,0.029
0.041,0.034
0.038,0.030
0.043,0.032
0.041,0.032
0.043,0.033
0.040,0.036
0.043,0.035
0.041,0.035
0.038,0.036
0.041,0.036
0.039,0.036
0.039,0.033
0.039,0.039
0.039,0.038
0.040,0.039
0.039,0.036
0.042,0.039
0.041,0.037
0.043,0.037
0.040,0.042
0.041,0.038
0.039,0.040
0.041,0.036
0.045,0.035
0.044,0.033
0.040,0.036
0.039,0.037
0.041,0.039
0.041,0.040
0.042,0.036
0.042,0.035
0.045,0.039
0.045,0.041
0.043,0.043
0.042,0.041
0.049,0.039
0.048,0.036
0.046,0.036
0.043,0.036
0.041,0.036
0.036,0.038
0.033,0.036
0.038,0.036
0.043,0.036
0.051,0.032
0.056,0.035
0.054,0.034
0.055,0.031
0.051,0.030
0.052,0.031
0.048,0.030
0.049,0.031
0.048,0.029
0.050,0.029
0.047,0.026
0.049,0.024
0.050,0.025
0.049,0.023
0.046,0.022
0.044,0.024
0.047,0.023
0.044,0.021
0.047,0.021
0.047,0.022
0.050,0.016
0.049,0.018
0.047,0.013
0.047,0.013
0.045,0.011
0.046,0.011
0.049,0.011
0.048,0.010
0.046,0.012
0.045,0.008
0.045,0.009
0.046,0.008
0.049,0.009
0.047,0.006
0.052,0.007
0.050,0.004
0.054,0.002
0.050,0.002
0.052,0.000
0.046,0.001
0.047,-0.003
0.048,-0.000
0.047,-0.003
0.048,-0.005
0.045,-0.001
0.048,-0.001
0.049,-0.003
0.050,-0.003
0.052,-0.003
0.050,-0.004
0.049,-0.007
0.051,-0.006
0.051,-0.007
0.053,-0.010
0.050,-0.012
0.050,-0.010
0.049,-0.006
0.045,-0.009
0.043,-0.006
0.044,-0.006
0.047,-0.005
0.046,-0.003
0.046,-0.006
0.047,-0.001
0.047,-0.006
0.045,-0.003
0.041,-0.009
0.048,-0.007
0.045,-0.007
0.048,-0.007
0.043,-0.004
0.046,-0.005
0.044,-0.004
0.045,-0.008
0.045,-0.004
0.043,-0.003
0.045,-0.001
0.042,0.000
0.043,0.000
0.046,-0.002
0.045,-0.002
0.045,-0.001
0.046,0.002
0.044,0.001
0.044,0.004
0.043,0.001
0.044,0.004
0.042,0.001
0.047,0.002
0.046,0.003
0.045,0.003
0.041,0.006
0.040,0.005
0.044,0.007
0.043,0.006
0.045,0.006
0.046,0.010
0.042,0.010
0.041,0.013
0.040,0.011
0.038,0.011
0.039,0.010
0.040,0.012
0.039,0.010
0.043,0.016
0.043,0.013
0.043,0.017
0.040,0.019
0.043,0.020
0.042,0.022
0.042,0.023
0.042,0.026
0.042,0.023
0.039,0.027
0.041,0.025
0.040,0.028
0.040,0.026
0.040,0.029
0.038,0.027
0.041,0.029
0.039,0.029
0.041,0.030
0.039,0.030
0.041,0.032
0.040,0.036
0.041,0.033
0.042,0.033
0.043,0.033
0.044,0.032
0.043,0.035
0.041,0.035
0.039,0.037
0.039,0.035
0.040,0.038
0.036,0.037
0.036,0.039
0.034,0.037
0.041,0.040
0.041,0.042
0.046,0.040
0.046,0.042
0.048,0.037
0.046,0.039
0.044,0.041
0.041,0.039
0.040,0.038
0.041,0.039
0.041,0.036
0.039,0.038
0.037,0.040
0.041,0.044
0.039,0.042
0.039,0.042
0.038,0.041
0.039,0.041
0.037,0.041
0.037,0.042
0.041,0.044
0.041,0.043
0.043,0.039
0.045,0.038
0.049,0.037
0.050,0.037
0.047,0.037
0.047,0.042
0.044,0.037
0.045,0.037
0.043,0.035
0.047,0.036
0.045,0.037
0.044,0.033
0.042,0.036
0.044,0.031
0.045,0.032
0.046,0.029
0.047,0.028
0.044,0.032
0.043,0.030
0.043,0.030
0.046,0.024
0.046,0.026
0.047,0.027
0.043,0.025
0.044,0.027
0.041,0.026
0.043,0.025
0.043,0.024
0.044,0.024
0.044,0.021
0.048,0.020
0.045,0.015
0.048,0.018
0.048,0.011
0.049,0.013
0.044,0.012
0.046,0.012
0.042,0.012
0.046,0.008
0.044,0.010
0.047,0.007
0.045,0.011
0.047,0.007
0.046,0.008
0.048,0.006
0.048,0.003
0.045,0.005
0.047,0.004
0.043,0.003
0.043,0.000
0.046,0.001
0.045,-0.002
0.044,-0.002
0.044,0.002
0.042,0.001
0.042,0.002
0.044,-0.000
0.048,0.000
0.046,-0.005
0.046,-0.005
0.045,-0.004
0.046,-0.003
0.045,-0.003
0.044,-0.005
0.047,-0.008
0.046,-0.010
0.042,-0.016
0.041,-0.015
0.039,-0.016
0.040,-0.012
0.040,-0.013
0.041,-0.008
0.037,-0.003
0.042,-0.002
0.039,-0.003
0.039,-0.007
0.041,-0.006
0.041,-0.006
0.039,-0.004
0.040,-0.003
0.041,-0.004
0.039,-0.003
0.040,-0.004
0.040,-0.002
0.043,-0.006
0.042,-0.001
0.043,0.001
0.040,0.001
0.040,0.002
0.038,0.001
0.042,0.002
0.042,-0.003
0.044,-0.001
0.042,0.003
0.042,0.005
0.040,0.006
0.042,0.005
0.042,0.005
0.041,0.003
0.044,0.004
0.044,0.005
0.044,0.006
0.043,0.010
0.040,0.010
0.040,0.011
0.036,0.009
0.036,0.009
0.032,0.011
0.037,0.013
0.040,0.017
0.048,0.015
0.043,0.020
0.030,0.017
0.003,0.021
-0.039,0.019
-0.065,0.023
-0.067,0.023
-0.043,0.027
-0.003,0.026
0.036,0.026
0.062,0.026
0.083,0.028
0.089,0.026
0.097,0.027
0.098,0.029
0.100,0.028
0.099,0.033
0.094,0.031
0.085,0.035
0.076,0.032
0.068,0.035
0.057,0.037
0.042,0.036
0.026,0.039
0.002,0.036
-0.030,0.037
-0.043,0.036
-0.044,0.034
-0.033,0.033
-0.006,0.036
0.016,0.034
0.044,0.036
0.060,0.035
0.073,0.038
0.082,0.039
0.085,0.037
0.088,0.039
0.086,0.044
0.087,0.045
0.088,0.043
0.087,0.041
0.089,0.041
0.085,0.039
0.080,0.038
0.073,0.042
0.067,0.040
0.062,0.042
0.057,0.041
0.058,0.041
0.051,0.040
0.051,0.038
0.047,0.044
0.048,0.042
0.049,0.042
0.045,0.038
0.046,0.038
0.044,0.039
0.045,0.039
0.045,0.041
0.045,0.035
0.047,0.037
0.048,0.036
0.048,0.036
0.045,0.037
0.045,0.036
0.044,0.035
0.046,0.033
0.048,0.033
0.048,0.032
0.045,0.031
0.047,0.030
0.042,0.028
0.045,0.030
0.045,0.028
0.047,0.026
0.045,0.029
0.045,0.028
0.043,0.031
0.045,0.025
0.044,0.024
0.043,0.023
0.046,0.023
0.044,0.021
0.049,0.021
0.048,0.021
0.050,0.019
0.047,0.018
0.049,0.014
0.045,0.017
0.046,0.014
0.045,0.014
0.044,0.010
0.045,0.009
0.044,0.008
0.046,0.009
0.044,0.006
0.044,0.007
0.043,0.007
0.042,0.007
0.044,0.006
0.042,0.004
0.042,0.002
0.042,0.003
0.044,0.002
0.043,0.001
0.044,-0.004
0.042,0.002
0.043,-0.002
0.041,-0.001
0.041,-0.002
0.047,-0.002
0.041,0.000
0.044,-0.003
0.041,-0.002
0.044,-0.003
0.041,-0.002
0.044,-0.006
0.045,-0.004
0.045,-0.006
0.045,-0.007
0.044,-0.004
0.042,-0.005
0.045,-0.005
0.043,-0.008
0.045,-0.006
0.044,-0.006
0.044,-0.005
0.040,-0.005
0.045,-0.006
0.044,-0.006
0.046,-0.008
0.043,-0.006
0.042,-0.005
0.043,-0.006
0.042,-0.004
0.039,-0.005
0.043,-0.005
0.041,-0.006
0.045,-0.006
0.043,-0.005
0.043,-0.002
0.040,0.000
0.040,-0.001
0.042,0.002
0.041,-0.002
0.043,0.001
0.042,0.001
0.041,-0.000
0.037,0.004
0.041,0.005
0.038,0.005
0.044,0.005
0.044,0.005
0.041,0.009
0.040,0.009
0.039,0.011
0.041,0.010
0.041,0.011
0.038,0.010
0.041,0.010
0.039,0.013
0.040,0.011
0.039,0.012
0.041,0.013
0.040,0.016
0.041,0.014
0.040,0.017
0.039,0.012
0.040,0.016
0.038,0.015
0.042,0.017
0.036,0.018
0.041,0.020
0.041,0.026
0.041,0.024
0.037,0.029
0.040,0.027
0.039,0.027
0.040,0.028
0.042,0.028
0.040,0.030
0.040,0.031
0.041,0.031
0.040,0.029
0.036,0.029
0.041,0.032
0.043,0.035
0.041,0.033
0.040,0.036
0.040,0.034
0.043,0.034
0.042,0.031
0.041,0.034
0.042,0.037
0.043,0.037
0.037,0.036
0.039,0.035
0.041,0.036
0.042,0.036
0.040,0.039
0.040,0.040
0.042,0.042
0.039,0.042
0.038,0.041
0.042,0.043
0.042,0.040
0.041,0.041
0.039,0.043
0.036,0.044
0.030,0.042
0.007,0.040
-0.025,0.041
-0.057,0.039
-0.070,0.042
-0.064,0.043
-0.035,0.044
0.001,0.045
0.036,0.045
0.065,0.046
0.078,0.043
0.089,0.043
0.094,0.047
0.095,0.045
0.098,0.044
0.098,0.043
0.098,0.042
0.089,0.042
0.082,0.041
0.073,0.044
0.064,0.042
0.058,0.043
0.054,0.040
0.054,0.039
0.050,0.038
0.050,0.036
0.043,0.039
0.045,0.036
0.046,0.036
0.045,0.032
0.047,0.032
0.048,0.034
0.049,0.031
0.046,0.032
0.047,0.028
0.047,0.030
0.047,0.026
0.045,0.026
0.042,0.026
0.042,0.024
0.037,0.028
0.037,0.026
0.037,0.025
0.045,0.021
0.051,0.023
0.056,0.016
0.060,0.019
0.056,0.015
0.056,0.013
0.053,0.011
0.050,0.011
0.049,0.014
0.049,0.012
0.045,0.011
0.048,0.007
0.045,0.007
0.047,0.008
0.047,0.008
0.048,0.005
0.048,0.005
0.048,0.003
0.047,0.003
0.048,0.005
0.045,0.002
0.049,0.002
0.046,0.003
0.047,0.002
0.045,0.003
0.046,0.005
0.044,0.004
0.047,0.003
0.049,0.000
0.050,-0.000
0.051,-0.001
0.048,0.001
0.047,-0.003
0.046,-0.003
0.043,-0.005
0.047,-0.006
0.045,-0.005
0.046,-0.006
0.045,-0.002
0.044,-0.005
0.045,-0.002
0.044,-0.003
0.047,-0.004
0.044,-0.002
0.047,-0.004
0.043,-0.004
0.047,-0.005
0.046,-0.006
0.046,-0.006
0.047,-0.004
0.046,-0.002
0.043,-0.001
0.041,0.001
0.042,-0.002
0.044,-0.000
0.045,-0.001
0.046,-0.002
0.043,0.001
0.044,0.001
0.043,0.001
0.043,-0.001
0.048,-0.002
0.046,0.000
0.047,0.002
0.045,0.006
0.045,0.004
0.047,0.007
0.047,0.008
0.049,0.008
0.046,0.004
0.050,0.006
0.045,0.009
0.048,0.008
0.044,0.011
0.045,0.008
0.045,0.010
0.045,0.010
0.043,0.011
0.044,0.013
0.046,0.013
0.042,0.013
0.046,0.015
0.043,0.015
0.042,0.014
0.041,0.017
0.042,0.018
0.044,0.019
0.043,0.019
0.043,0.023
0.043,0.022
0.045,0.024
0.045,0.025
0.043,0.025
0.042,0.032
0.040,0.029
0.040,0.033
0.040,0.032
0.041,0.033
0.042,0.028
0.043,0.029
0.043,0.033
0.044,0.030
0.041,0.035
0.038,0.035
0.041,0.034
0.042,0.035
0.044,0.034
0.044,0.035
0.045,0.036
0.043,0.039
0.038,0.036
0.041,0.037
0.037,0.036
0.041,0.038
0.038,0.039
0.043,0.038
0.038,0.042
0.039,0.040
0.041,0.045
0.040,0.041
0.044,0.039
0.044,0.039
0.042,0.039
0.040,0.041
0.043,0.038
0.040,0.041
0.041,0.040
0.042,0.038
0.042,0.041
0.044,0.043
0.042,0.045
0.044,0.041
0.045,0.044
0.046,0.041
0.047,0.044
0.043,0.043
0.045,0.043
0.041,0.042
0.046,0.041
0.046,0.037
0.049,0.037
0.045,0.036
0.044,0.039
0.043,0.038
0.045,0.038
0.044,0.038
0.047,0.037
0.047,0.037
0.046,0.035
0.043,0.036
0.044,0.033
0.045,0.037
0.042,0.032
0.046,0.033
0.044,0.033
0.048,0.030
0.044,0.030
0.047,0.031
0.044,0.031
0.043,0.025
0.047,0.026
0.047,0.026
0.047,0.025
0.048,0.026
0.050,0.024
0.047,0.026
0.049,0.023
0.048,0.024
0.048,0.019
0.051,0.018
0.049,0.013
0.052,0.015
0.050,0.011
0.052,0.010
0.047,0.012
0.049,0.008
0.045,0.012
0.047,0.010
0.046,0.009
0.045,0.009
0.047,0.008
0.048,0.004
0.050,0.004
0.047,0.003
0.049,0.003
0.045,0.007
0.046,0.003
0.049,0.004
0.047,-0.001
0.047,-0.001
0.048,0.001
0.045,-0.000
0.046,0.002
0.046,0.000
0.047,0.001
0.047,-0.001
0.048,0.001
0.048,0.002
0.048,-0.001
0.044,0.000
0.043,-0.003
0.044,-0.005
0.041,-0.005
0.045,-0.008
0.042,-0.004
0.041,-0.004
0.041,0.000
0.041,-0.003
0.047,-0.004
0.044,-0.003
0.047,-0.007
0.045,-0.000
0.045,-0.002
0.038,0.000
0.040,-0.002
0.043,-0.000
0.042,-0.003
0.044,-0.004
0.041,-0.000
0.043,-0.001
0.038,0.001
0.038,-0.001
0.036,0.001
0.033,-0.000
0.033,0.005
0.034,0.007
0.040,0.004
0.047,0.004
0.049,0.003
0.054,0.004
0.049,0.004
0.049,0.004
0.044,0.010
0.044,0.007
0.041,0.008
0.042,0.008
0.045,0.009
0.041,0.009
0.040,0.008
0.036,0.011
0.039,0.010
0.040,0.013
0.039,0.009
0.042,0.011
0.040,0.012
0.041,0.015
0.040,0.018
0.044,0.017
0.039,0.016
0.041,0.016
0.038,0.019
0.038,0.018
0.037,0.019
0.041,0.019
0.039,0.023
0.040,0.022
0.042,0.026
0.041,0.025
0.042,0.026
0.042,0.028
0.045,0.024
0.040,0.027
0.042,0.028
0.039,0.030
0.038,0.031
0.036,0.032
0.039,0.030
0.038,0.033
0.035,0.032
0.037,0.033
0.035,0.034
0.035,0.036
0.038,0.040
0.042,0.037
0.045,0.040
0.045,0.035
0.045,0.037
0.047,0.038
0.047,0.037
0.037,0.039
0.039,0.039
0.035,0.037
0.036,0.038
0.039,0.039
0.039,0.043
0.041,0.043
0.040,0.043
0.040,0.044
0.040,0.042
0.037,0.043
0.037,0.043
0.034,0.041
0.036,0.039
0.035,0.042
0.036,0.041
0.041,0.044
0.042,0.040
0.048,0.044
0.046,0.044
0.048,0.045
0.043,0.049
0.046,0.046
0.045,0.046
0.046,0.041
0.046,0.043
0.045,0.043
0.045,0.042
0.045,0.041
0.043,0.039
0.046,0.039
0.044,0.038
0.041,0.037
0.039,0.038
0.042,0.036
0.039,0.036
0.040,0.035
0.043,0.034
0.046,0.032
0.044,0.032
0.045,0.034
0.046,0.034
0.046,0.033
0.044,0.030
0.047,0.028
0.045,0.027
0.048,0.024
0.046,0.030
0.044,0.027
0.047,0.028
0.043,0.024
0.046,0.025
0.043,0.023
0.049,0.023
0.047,0.021
0.049,0.017
0.028,0.020
0.014,0.015
-0.028,0.017
-0.045,0.011
-0.056,0.013
-0.033,0.012
0.000,0.010
0.036,0.011
0.060,0.009
0.076,0.008
0.092,0.009
0.102,0.007
0.110,0.005
0.116,0.007
0.113,0.006
0.108,0.005
0.096,0.003
0.091,0.003
0.079,0.002
0.063,0.000
0.042,0.002
0.031,-0.000
0.003,0.001
-0.027,-0.005
-0.034,-0.002
-0.034,0.001
-0.021,-0.002
0.000,0.000
0.027,-0.002
0.049,-0.003
0.068,-0.004
0.079,-0.006
0.085,-0.003
0.086,-0.009
0.089,-0.007
0.089,-0.009
0.095,-0.008
0.090,-0.007
0.092,-0.003
0.088,-0.003
0.087,-0.002
0.083,-0.003
0.078,-0.005
0.075,-0.008
0.069,-0.005
0.061,-0.005
0.036,-0.001
0.003,-0.005
-0.030,-0.003
-0.059,-0.006
-0.059,-0.004
-0.043,-0.003
-0.005,-0.001
0.025,0.000
0.056,-0.001
0.076,0.002
0.089,0.001
0.095,0.001
0.096,0.003
0.100,0.004
0.100,0.006
0.098,0.003
0.093,0.004
0.087,0.003
0.076,0.005
0.070,0.008
0.061,0.008
0.054,0.008
0.049,0.007
0.053,0.008
0.049,0.006
0.050,0.009
0.045,0.011
0.046,0.009
0.042,0.010
0.043,0.012
0.046,0.012
0.044,0.013
0.045,0.012
0.045,0.016
0.043,0.014
0.042,0.019
0.042,0.016
0.041,0.021
0.041,0.017
0.042,0.022
0.039,0.021
0.041,0.025
0.040,0.024
0.045,0.025
0.040,0.024
0.045,0.026
0.041,0.027
0.043,0.026
0.041,0.028
0.040,0.025
0.041,0.032
0.039,0.032
0.040,0.034
0.039,0.033
0.042,0.036
0.039,0.033
0.042,0.032
0.040,0.035
0.041,0.035
0.038,0.034
0.041,0.034
0.041,0.035
0.044,0.033
0.040,0.035
0.038,0.039
0.039,0.036
0.037,0.040
0.040,0.039
0.040,0.038
0.039,0.039
0.039,0.041
0.038,0.040
0.040,0.039
0.039,0.042
0.040,0.039
0.041,0.039
0.042,0.039
0.043,0.040
0.040,0.043
0.038,0.040
0.039,0.043
0.040,0.040
0.043,0.043
0.040,0.040
0.048,0.042
0.053,0.045
0.046,0.045
0.024,0.045
0.016,0.041
0.014,0.043
0.013,0.037
0.017,0.038
0.020,0.040
0.027,0.039
0.030,0.040
0.043,0.036
0.059,0.035
0.070,0.034
0.071,0.032
0.070,0.035
0.063,0.033
0.057,0.034
0.053,0.030
0.052,0.032
0.048,0.031
0.048,0.031
0.044,0.031
0.044,0.030
0.043,0.028
0.045,0.025
0.045,0.025
0.046,0.029
0.043,0.026
0.044,0.025
0.041,0.025
0.046,0.025
0.042,0.025
0.047,0.023
0.045,0.019
0.048,0.016
0.046,0.018
0.047,0.016
0.048,0.018
0.046,0.017
0.046,0.017
0.047,0.015
0.044,0.015
0.045,0.010
0.046,0.011
0.043,0.010
0.046,0.010
0.044,0.008
0.047,0.005
0.043,0.003
0.047,0.004
0.041,0.006
0.045,0.002
0.042,0.006
0.042,0.000
0.045,0.002
0.044,0.000
0.044,-0.002
0.046,0.000
0.043,-0.000
0.046,0.000
0.046,-0.003
0.047,-0.002
0.045,-0.000
0.044,-0.001
0.039,-0.000
0.040,-0.003
0.044,-0.003
0.048,-0.008
0.051,-0.006
0.047,-0.005
0.048,-0.006
0.046,-0.006
0.046,-0.005
0.046,-0.003
0.046,-0.005
0.046,-0.005
0.046,-0.002
0.044,-0.003
0.044,-0.003
0.043,-0.003
0.046,-0.001
0.046,-0.003
0.047,-0.002
0.045,0.000
0.046,0.000
0.046,-0.000
0.045,-0.002
0.045,-0.003
0.047,-0.001
0.045,-0.003
0.045,0.003
0.044,-0.000
0.044,0.001
0.043,0.001
0.051,0.004
0.044,0.003
0.047,0.002
0.045,0.009
0.046,0.006
0.046,0.008
0.045,0.005
0.046,0.008
0.046,0.007
0.044,0.008
0.041,0.012
0.042,0.010
0.039,0.010
0.042,0.009
0.043,0.010
0.046,0.009
0.042,0.013
0.040,0.013
0.038,0.011
0.035,0.014
0.034,0.014
0.033,0.017
0.040,0.016
0.044,0.015
0.047,0.018
0.047,0.022
0.045,0.019
0.045,0.026
0.042,0.022
0.042,0.027
0.040,0.024
0.042,0.027
0.042,0.026
0.042,0.026
0.039,0.031
0.040,0.030
0.039,0.034
0.036,0.033
0.037,0.032
0.040,0.028
0.044,0.032
0.044,0.032
0.043,0.033
0.042,0.036
0.040,0.037
0.039,0.035
0.038,0.035
0.034,0.033
0.033,0.037
0.029,0.033
0.029,0.036
0.036,0.036
0.047,0.038
0.050,0.035
0.051,0.039
0.046,0.042
0.047,0.041
0.041,0.042
0.043,0.042
0.044,0.043
0.045,0.042
0.043,0.042
0.041,0.043
0.039,0.041
0.039,0.042
0.038,0.039
0.042,0.041
0.040,0.039
0.041,0.041
0.042,0.041
0.044,0.043
0.043,0.044
0.040,0.043
0.042,0.042
0.041,0.042
0.038,0.041
0.040,0.046
0.037,0.045
0.038,0.046
0.039,0.042
0.044,0.040
0.044,0.039
0.049,0.039
0.046,0.040
0.047,0.039
0.045,0.039
0.044,0.038
0.046,0.039
0.046,0.035
0.046,0.036
0.046,0.035
0.043,0.034
0.045,0.031
0.047,0.030
0.045,0.030
0.046,0.033
0.041,0.032
0.041,0.031
0.041,0.030
0.046,0.027
0.043,0.024
0.046,0.026
0.041,0.027
0.023,0.027
-0.010,0.026
-0.039,0.027
-0.066,0.024
-0.062,0.022
-0.040,0.020
-0.006,0.018
0.032,0.015
0.060,0.014
0.080,0.012
0.087,0.010
0.093,0.008
0.097,0.010
0.100,0.008
0.103,0.010
0.102,0.009
0.096,0.010
0.087,0.006
0.080,0.006
0.073,0.003
0.069,0.002
0.062,0.004
0.059,0.002
0.053,0.004
0.052,-0.001
0.051,0.001
0.049,-0.002
0.050,-0.001
0.047,0.002
0.049,-0.001
0.048,0.001
0.051,-0.003
0.052,-0.002
0.053,-0.004
0.053,-0.003
0.048,-0.002
0.048,-0.006
0.046,-0.006
0.047,-0.008
0.047,-0.008
0.046,-0.010
0.046,-0.008
0.039,-0.007
0.029,-0.005
0.019,-0.007
0.009,-0.007
-0.023,-0.007
-0.033,-0.005
-0.032,-0.006
-0.011,-0.003
0.011,-0.006
0.037,-0.007
0.057,-0.008
0.080,-0.006
0.091,-0.003
0.098,-0.005
0.097,-0.002
0.095,-0.003
0.084,-0.001
0.073,-0.003
0.034,-0.001
-0.035,-0.001
-0.072,0.000
-0.076,0.001
-0.054,-0.000
-0.018,0.000
0.019,-0.001
0.053,0.000
0.073,0.005
0.090,0.005
0.104,0.007
0.118,0.006
0.127,0.007
0.127,0.005
0.122,0.005
0.104,0.008
0.089,0.008
0.069,0.011
0.055,0.011
0.038,0.013
0.010,0.011
-0.043,0.014
-0.091,0.015
-0.123,0.015
-0.142,0.018
-0.138,0.015
-0.107,0.018
-0.058,0.017
0.002,0.018
0.047,0.017
0.083,0.020
0.103,0.020
0.119,0.023
0.130,0.024
0.146,0.024
0.154,0.024
0.156,0.026
0.153,0.031
0.139,0.029
0.123,0.032
0.104,0.032
0.083,0.036
0.061,0.034
0.050,0.037
0.045,0.036
0.047,0.037
0.042,0.038
0.039,0.036
0.032,0.040
0.030,0.036
0.034,0.037
0.035,0.036
0.043,0.037
0.052,0.041
0.062,0.037
0.070,0.039
0.072,0.038
0.073,0.038
0.067,0.039
0.062,0.040
0.054,0.043
0.051,0.043
0.052,0.042
0.049,0.041
0.038,0.044
0.014,0.043
-0.078,0.045
-0.131,0.046
-0.144,0.044
-0.108,0.042
-0.050,0.043
0.010,0.043
0.050,0.043
0.076,0.046
0.094,0.050
0.110,0.048
0.126,0.051
0.130,0.051
0.133,0.048
0.125,0.047
0.115,0.043
0.099,0.044
0.078,0.043
0.043,0.048
0.021,0.042
-0.011,0.045
-0.057,0.041
-0.082,0.041
-0.083,0.044
-0.056,0.040
-0.016,0.040
0.029,0.037
0.065,0.037
0.085,0.035
0.097,0.036
0.103,0.038
0.107,0.037
0.114,0.036
0.118,0.033
0.127,0.031
0.127,0.034
0.121,0.031
0.112,0.036
0.105,0.031
0.101,0.031
0.091,0.026
0.088,0.025
0.078,0.028
0.071,0.024
0.062,0.028
0.059,0.026
0.055,0.026
0.052,0.021
0.050,0.020
0.049,0.015
0.051,0.017
0.049,0.013
0.049,0.011
0.047,0.011
0.047,0.010
0.044,0.013
0.045,0.010
0.044,0.013
0.046,0.010
0.044,0.011
0.045,0.007
0.047,0.006
0.045,0.004
0.026,0.003
-0.006,0.005
-0.039,0.001
-0.066,0.006
-0.064,0.002
-0.042,0.002
-0.012,-0.001
0.026,0.002
0.051,0.001
0.075,0.002
0.080,0.002
0.090,0.000
0.096,0.000
0.104,-0.004
0.106,-0.003
0.098,-0.002
0.092,0.000
0.081,-0.004
0.074,-0.003
0.065,-0.003
0.060,-0.003
0.055,-0.003
0.052,-0.001
0.047,-0.000
0.047,-0.001
0.043,-0.002
0.042,-0.004
0.036,-0.003
0.036,-0.002
0.039,-0.004
0.043,-0.002
0.049,-0.002
0.053,0.001
0.054,-0.001
0.050,0.000
0.046,-0.002
0.045,-0.002
0.041,-0.000
0.046,0.000
0.044,-0.001
0.041,-0.001
0.043,0.002
0.040,0.005
0.040,0.006
0.037,0.005
0.041,0.004
0.040,0.005
0.041,0.005
0.041,0.008
0.039,0.008
0.039,0.007
0.039,0.009
0.038,0.010
0.037,0.010
0.034,0.010
0.035,0.012
0.031,0.011
0.028,0.014
0.031,0.010
0.035,0.015
0.036,0.010
0.041,0.014
0.036,0.014
0.039,0.013
0.039,0.016
0.045,0.017
0.044,0.019
0.049,0.019
0.044,0.024
0.045,0.022
0.038,0.025
0.036,0.027
0.036,0.029
0.035,0.027
0.038,0.032
0.042,0.028
0.063,0.030
0.071,0.028
0.075,0.029
0.069,0.031
0.059,0.032
0.043,0.036
0.036,0.036
0.028,0.034
0.023,0.035
0.022,0.033
0.018,0.033
0.022,0.032
0.025,0.039
0.031,0.035
0.036,0.038
0.037,0.037
0.042,0.034
0.035,0.037
0.036,0.038
0.031,0.040
0.035,0.040
0.033,0.043
0.034,0.038
0.031,0.042
0.011,0.043
-0.009,0.043
-0.026,0.046
-0.031,0.044
-0.021,0.042
-0.003,0.041
0.021,0.041
0.036,0.038
0.048,0.036
0.053,0.041
0.053,0.038
0.058,0.043
0.070,0.043
0.090,0.043
0.106,0.041
0.123,0.041
0.128,0.047
0.121,0.043
0.094,0.044
0.062,0.040
0.033,0.040
-0.001,0.039
-0.033,0.040
-0.044,0.043
-0.049,0.041
-0.046,0.041
-0.048,0.035
-0.062,0.036
-0.065,0.034
-0.053,0.033
-0.022,0.033
0.020,0.032
0.062,0.034
0.099,0.032
0.124,0.032
0.145,0.030
0.157,0.031
0.161,0.032
0.153,0.030
0.139,0.029
0.121,0.025
0.108,0.023
0.090,0.026
0.068,0.025
0.045,0.029
0.028,0.025
0.025,0.025
0.026,0.024
0.036,0.022
0.039,0.019
0.044,0.018
0.047,0.021
0.050,0.016
0.043,0.016
0.044,0.012
0.042,0.014
0.042,0.011
0.044,0.013
0.043,0.008
0.043,0.010
0.043,0.010
0.042,0.008
0.041,0.010
0.043,0.006
0.044,0.012
0.046,0.009
0.049,0.006
0.048,0.004
0.052,0.004
0.049,-0.000
0.051,-0.002
0.048,0.004
0.048,0.002
0.045,0.004
0.038,0.001
0.034,0.000
0.019,-0.001
0.010,-0.001
-0.004,-0.001
-0.003,-0.001
0.008,-0.005
0.019,-0.007
0.034,-0.007
0.049,-0.007
0.060,-0.007
0.068,-0.006
0.075,-0.004
0.078,-0.002
0.076,-0.005
0.077,-0.003
0.075,-0.002
0.071,0.000
0.061,-0.000
0.057,-0.002
0.055,-0.001
0.051,-0.005
0.046,-0.003
0.044,-0.001
0.043,-0.003
0.040,-0.002
0.040,-0.003
0.042,-0.001
0.041,-0.000
0.041,0.000
0.038,0.001
0.039,0.002
0.041,0.002
0.037,0.001
0.042,0.003
0.043,0.003
0.039,0.002
0.041,0.004
0.041,0.005
0.045,0.006
0.055,0.008
0.042,0.006
0.025,0.008
0.014,0.008
0.009,0.009
0.005,0.010
0.010,0.012
0.016,0.011
0.023,0.012
0.030,0.014
0.049,0.014
0.056,0.016
0.067,0.015
0.063,0.017
0.062,0.015
0.056,0.018
0.051,0.016
0.048,0.017
0.046,0.017
0.045,0.019
0.043,0.022
0.044,0.024
0.041,0.029
0.042,0.028
0.037,0.030
0.040,0.029
0.036,0.031
0.038,0.031
0.038,0.030
0.040,0.028
0.041,0.031
0.042,0.029
0.044,0.029
0.042,0.031
0.040,0.036
0.036,0.035
0.039,0.035
0.038,0.036
0.042,0.033
0.044,0.034
0.045,0.037
0.043,0.036
0.041,0.039
0.043,0.040
0.042,0.039
0.039,0.037
0.043,0.036
0.040,0.036
0.041,0.038
0.039,0.044
0.040,0.043
0.041,0.047
0.039,0.046
0.042,0.047
0.042,0.046
0.042,0.046
0.039,0.050
0.040,0.047
0.037,0.045
0.039,0.043
0.037,0.043
0.037,0.044
0.037,0.045
0.036,0.047
0.037,0.046
0.041,0.045
0.044,0.042
0.049,0.049
0.053,0.045
0.068,0.046
0.080,0.049
0.089,0.047
0.089,0.043
0.079,0.041
0.062,0.042
0.049,0.044
0.038,0.043
0.026,0.045
0.021,0.045
0.026,0.045
0.028,0.043
0.033,0.039
0.033,0.046
0.036,0.042
0.035,0.040
0.033,0.038
0.038,0.038
0.035,0.036
0.037,0.033
0.037,0.036
0.040,0.034
0.027,0.033
0.004,0.030
-0.023,0.031
-0.049,0.028
-0.055,0.028
-0.042,0.031
-0.010,0.025
0.023,0.027
0.054,0.025
0.074,0.027
0.085,0.023
0.093,0.024
0.095,0.022
0.102,0.021
0.101,0.018
0.104,0.015
0.097,0.013
0.089,0.013
0.076,0.016
0.069,0.013
0.060,0.015
0.055,0.011
0.056,0.011
0.050,0.009
0.057,0.010
0.054,0.009
0.055,0.006
0.051,0.010
0.051,0.007
0.047,0.006
0.046,0.006
0.048,0.005
0.050,0.003
0.050,0.001
0.055,0.004
0.071,0.001
0.085,0.003
0.093,0.000
0.093,0.001
0.074,-0.000
0.052,-0.000
0.036,0.000
0.029,-0.001
0.019,-0.003
0.019,-0.002
0.023,-0.004
0.032,-0.002
0.035,-0.003
0.041,-0.002
0.043,-0.002
0.052,-0.003
0.053,-0.002
0.056,-0.005
0.052,0.001
0.052,-0.003
0.051,-0.002
0.048,-0.006
0.048,-0.004
0.047,-0.005
0.047,-0.004
0.041,-0.004
0.042,-0.005
0.036,-0.002
0.037,-0.002
0.038,-0.003
0.035,-0.003
0.030,-0.001
0.023,0.001
0.022,0.003
0.040,0.006
0.056,0.002
0.044,0.002
0.029,0.005
0.028,0.006
0.034,0.007
0.034,0.008
0.028,0.008
0.020,0.008
0.020,0.008
0.004,0.007
0.000,0.007
0.007,0.010
0.019,0.008
0.038,0.013
0.051,0.011
0.073,0.010
0.082,0.011
0.096,0.010
0.111,0.012
0.120,0.012
0.106,0.014
0.083,0.012
0.063,0.015
0.052,0.013
0.054,0.017
0.055,0.016
0.071,0.020
0.102,0.021
0.145,0.023
0.168,0.023
0.162,0.024
0.135,0.029
0.104,0.028
0.077,0.030
0.049,0.030
-0.016,0.028
-0.063,0.032
-0.073,0.030
-0.084,0.031
-0.076,0.032
-0.053,0.033
-0.025,0.032
0.002,0.035
0.032,0.034
0.055,0.037
0.080,0.034
0.106,0.036
0.116,0.037
0.117,0.037
0.104,0.038
0.088,0.036
0.059,0.036
0.032,0.037
0.004,0.037
-0.029,0.035
-0.042,0.038
-0.074,0.041
-0.104,0.040
-0.118,0.045
-0.081,0.046
-0.034,0.044
0.018,0.043
0.060,0.043
0.090,0.044
0.104,0.041
0.115,0.042
0.125,0.044
0.139,0.043
0.146,0.042
0.144,0.044
0.135,0.046
0.133,0.047
0.129,0.046
0.133,0.043
0.134,0.041
0.127,0.044
0.107,0.041
0.081,0.044
0.055,0.041
0.030,0.043
0.003,0.040
-0.011,0.043
-0.013,0.045
-0.007,0.044
-0.005,0.041
0.004,0.041
0.012,0.038
0.017,0.039
0.011,0.039
0.001,0.039
-0.057,0.038
-0.091,0.036
-0.088,0.033
-0.052,0.032
-0.001,0.032
0.049,0.029
0.074,0.034
0.087,0.030
0.085,0.032
0.079,0.029
0.062,0.030
0.049,0.026
0.040,0.025
-0.002,0.026
-0.010,0.023
-0.007,0.025
0.005,0.023
0.015,0.021
0.004,0.019
-0.049,0.016
-0.110,0.016
-0.129,0.013
-0.105,0.011
-0.039,0.010
0.032,0.012
0.072,0.011
0.091,0.013
0.093,0.012
0.094,0.016
0.086,0.012
0.094,0.014
0.093,0.012
0.080,0.009
0.054,0.004
0.058,0.004
0.077,-0.000
0.110,-0.001
0.136,0.002
0.151,0.000
0.151,0.002
0.138,-0.000
0.110,0.000
0.070,-0.002
0.051,0.000
0.051,0.001
0.058,0.002
0.073,0.002
0.084,0.002
0.095,0.000
0.100,-0.002
0.109,-0.002
0.136,-0.004
0.172,-0.007
0.203,-0.007
0.210,-0.008
0.186,-0.010
0.127,-0.007
0.064,-0.007
-0.015,-0.008
-0.080,-0.003
-0.106,-0.004
-0.088,-0.003
-0.038,-0.007
0.018,-0.007
0.057,-0.011
0.087,-0.010
0.101,-0.006
0.114,-0.008
0.118,-0.004
0.130,-0.004
0.132,-0.002
0.125,-0.004
0.113,-0.003
0.098,0.000
0.086,0.000
0.073,0.002
0.065,-0.000
0.059,0.002
0.055,-0.000
0.050,0.002
0.047,0.004
0.043,0.004
0.041,0.005
0.041,0.004
0.042,0.004
0.042,0.003
0.045,0.004
0.044,0.006
0.043,0.006
0.039,0.006
0.038,0.010
0.037,0.010
0.038,0.009
0.043,0.012
0.044,0.013
0.045,0.012
0.046,0.013
0.046,0.013
0.046,0.013
0.044,0.013
0.039,0.014
0.042,0.012
0.044,0.013
0.043,0.012
0.044,0.018
0.043,0.018
0.040,0.023
0.041,0.026
0.040,0.023
0.039,0.031
0.037,0.030
0.036,0.031
0.035,0.030
0.035,0.032
0.036,0.029
0.037,0.032
0.038,0.031
0.040,0.032
0.035,0.030
0.040,0.030
0.036,0.031
0.036,0.031
0.036,0.034
0.036,0.036
0.034,0.039
0.034,0.038
0.035,0.037
0.027,0.039
0.008,0.036
-0.010,0.037
-0.018,0.037
-0.014,0.039
-0.004,0.038
0.011,0.041
0.023,0.046
0.030,0.045
0.042,0.045
0.043,0.040
0.052,0.041
0.055,0.044
0.064,0.041
0.068,0.043
0.083,0.043
0.097,0.042
0.101,0.043
0.097,0.047
0.076,0.045
0.052,0.044
0.031,0.049
0.016,0.046
0.007,0.047
0.000,0.042
0.005,0.043
0.013,0.043
0.029,0.044
0.036,0.045
0.041,0.042
0.040,0.044
0.042,0.039
0.039,0.043
0.039,0.043
0.039,0.044
0.034,0.042
0.033,0.037
0.036,0.034
0.040,0.035
0.047,0.030
0.071,0.033
0.113,0.035
0.144,0.034
0.148,0.035
0.131,0.032
0.094,0.033
0.061,0.034
0.019,0.038
-0.016,0.035
-0.034,0.034
-0.024,0.030
-0.006,0.031
0.011,0.031
0.025,0.027
0.034,0.028
0.038,0.023
0.042,0.027
0.046,0.023
0.049,0.020
0.045,0.018
0.050,0.020
0.037,0.015
0.031,0.013
0.023,0.012
0.026,0.010
0.029,0.011
0.035,0.010
0.039,0.011
0.045,0.010
0.047,0.013
0.048,0.011
0.049,0.007
0.045,0.004
0.048,0.002
0.042,-0.003
0.042,-0.003
0.049,0.004
0.061,0.005
0.076,0.008
0.091,0.005
0.101,0.003
0.097,0.002
0.084,0.000
0.066,0.004
0.048,0.001
0.020,-0.001
-0.002,-0.004
-0.005,-0.003
-0.002,-0.002
0.010,-0.002
0.014,-0.001
0.026,-0.003
0.036,-0.003
0.062,-0.007
0.077,-0.005
0.083,-0.007
0.086,-0.007
0.093,-0.003
0.087,-0.006
0.074,-0.006
0.050,-0.005
0.022,-0.005
-0.001,-0.002
-0.011,-0.005
-0.013,-0.002
-0.007,-0.003
0.005,-0.003
0.013,-0.006
0.022,-0.005
0.026,-0.002
0.031,-0.004
0.029,-0.001
0.033,-0.000
0.035,-0.001
0.037,-0.001
0.036,-0.001
0.036,0.002
0.035,0.002
0.034,0.006
0.033,0.004
0.038,0.002
0.028,0.003
0.005,0.002
-0.023,0.006
-0.028,0.004
-0.056,0.005
-0.061,0.004
-0.036,0.005
-0.010,0.003
0.022,0.004
0.047,0.010
0.073,0.009
0.082,0.013
0.101,0.013
0.110,0.013
0.113,0.013
0.106,0.013
0.093,0.010
0.079,0.013
0.069,0.013
0.061,0.017
0.051,0.016
0.048,0.018
0.043,0.022
0.038,0.021
0.037,0.022
0.036,0.021
0.038,0.025
0.038,0.020
0.044,0.023
0.044,0.020
0.050,0.025
0.047,0.025
0.047,0.026
0.044,0.030
0.045,0.030
0.041,0.033
0.044,0.032
0.042,0.035
0.041,0.027
0.045,0.029
0.043,0.027
0.043,0.031
0.042,0.035
0.044,0.034
0.043,0.036
0.041,0.033
0.041,0.034
0.041,0.034
0.038,0.035
0.038,0.040
0.038,0.039
0.038,0.041
0.032,0.036
0.034,0.039
0.037,0.036
0.060,0.037
0.058,0.038
0.033,0.039
0.017,0.039
0.011,0.040
0.020,0.037
0.028,0.038
0.038,0.037
0.047,0.043
0.061,0.041
0.090,0.042
0.132,0.041
0.169,0.040
0.175,0.039
0.157,0.038
0.116,0.041
0.075,0.040
0.028,0.039
-0.015,0.041
-0.037,0.041
-0.035,0.041
-0.024,0.042
-0.009,0.043
0.004,0.040
0.015,0.036
0.025,0.039
0.034,0.039
0.041,0.041
0.043,0.041
0.046,0.037
0.041,0.034
0.047,0.032
0.053,0.031
0.063,0.028
0.078,0.031
0.088,0.030
0.086,0.031
0.080,0.029
0.069,0.029
0.055,0.028
0.045,0.026
0.036,0.026
0.030,0.024
0.026,0.025
0.027,0.022
0.034,0.026
0.039,0.023
0.043,0.020
0.044,0.018
0.042,0.018
0.042,0.015
0.043,0.014
0.043,0.013
0.045,0.013
0.049,0.011
0.069,0.010
0.084,0.008
0.088,0.007
0.083,0.005
0.067,0.006
0.043,0.004
0.030,0.006
0.020,0.004
0.014,0.006
0.018,0.003
0.032,0.002
0.054,-0.002
0.071,-0.005
0.082,-0.004
0.091,-0.003
0.063,0.004
0.020,0.007
-0.012,0.007
-0.043,0.002
-0.094,-0.004
-0.129,-0.005
-0.160,-0.006
-0.174,-0.005
-0.130,-0.005
-0.066,-0.005
0.010,-0.008
0.076,-0.007
0.115,-0.007
0.128,-0.009
0.136,-0.003
0.146,-0.004
0.144,-0.003
0.127,-0.009
0.123,-0.011
0.115,-0.007
0.099,-0.008
0.076,-0.007
0.055,-0.005
0.042,-0.007
0.029,-0.007
0.014,-0.008
0.023,-0.004
0.041,-0.008
0.060,-0.007
0.077,-0.009
0.094,-0.007
0.098,-0.007
0.102,-0.004
0.099,-0.002
0.103,-0.004
0.105,-0.003
0.101,-0.003
0.094,-0.000
0.083,0.001
0.074,0.000
0.062,0.003
0.054,0.002
0.050,0.002
0.048,0.002
0.044,0.002
0.042,0.007
0.040,0.007
0.040,0.009
0.038,0.010
0.042,0.010
0.044,0.009
0.048,0.010
0.049,0.010
0.051,0.007
0.048,0.011
0.045,0.010
0.035,0.009
0.017,0.010
-0.002,0.009
-0.033,0.008
-0.047,0.011
-0.044,0.010
-0.018,0.011
0.014,0.012
0.043,0.012
0.058,0.018
0.063,0.020
0.060,0.028
0.063,0.029
0.065,0.035
0.066,0.035
0.062,0.031
0.065,0.028
0.067,0.029
0.065,0.029
0.061,0.030
0.058,0.031
0.052,0.030
0.050,0.032
0.047,0.034
0.022,0.034
-0.033,0.032
-0.039,0.033
-0.031,0.030
-0.004,0.033
0.026,0.036
0.056,0.037
0.078,0.034
0.094,0.031
0.108,0.033
0.113,0.033
0.110,0.031
0.104,0.035
0.090,0.037
0.081,0.038
0.065,0.036
0.056,0.038
0.045,0.044
0.041,0.040
0.035,0.043
0.039,0.042
0.043,0.042
0.039,0.041
0.036,0.041
0.033,0.045
0.031,0.043
0.028,0.046
0.032,0.042
0.038,0.043
0.044,0.041
0.054,0.041
0.064,0.044
0.091,0.042
0.131,0.043
0.161,0.037
0.166,0.044
0.143,0.042
0.108,0.045
0.069,0.049
0.029,0.047
-0.003,0.044
-0.016,0.041
-0.008,0.038
0.015,0.036
0.041,0.038
0.063,0.034
0.082,0.034
0.091,0.033
0.083,0.034
0.072,0.033
0.055,0.036
0.031,0.034
0.006,0.036
-0.009,0.032
0.003,0.030
0.026,0.026
0.052,0.022
0.065,0.025
0.071,0.023
0.058,0.024
0.041,0.023
0.030,0.024
0.019,0.020
0.013,0.023
0.013,0.019
0.018,0.019
0.022,0.020
0.028,0.017
0.031,0.016
0.031,0.011
0.032,0.012
0.034,0.007
0.034,0.007
0.035,0.006
0.040,0.006
0.040,0.003
0.050,0.004
0.052,-0.001
0.059,0.002
0.069,0.003
0.075,0.001
0.067,0.004
0.062,0.002
0.052,0.001
0.047,-0.002
0.038,-0.001
0.030,-0.004
0.025,-0.002
0.015,-0.001
0.015,-0.005
0.022,-0.005
0.026,-0.006
0.032,-0.005
0.036,-0.003
0.035,-0.005
0.035,-0.003
0.036,-0.006
0.039,-0.005
0.037,-0.009
0.037,-0.007
0.038,-0.007
0.036,-0.008
0.036,-0.010
0.035,-0.007
0.037,-0.010
0.039,-0.009
0.040,-0.007
0.039,-0.006
0.039,-0.007
0.041,-0.010
0.040,-0.011
0.039,-0.009
0.037,-0.007
0.038,-0.006
0.034,-0.005
0.034,-0.007
0.035,-0.006
0.035,-0.009
0.036,-0.008
0.037,-0.009
0.037,-0.004
0.039,-0.005
0.038,-0.005
0.044,-0.004
0.045,-0.004
0.047,-0.005
0.049,0.002
0.046,-0.003
0.042,0.003
0.042,0.001
0.042,-0.000
0.041,0.001
0.042,0.000
0.040,0.003
0.040,0.002
0.037,0.006
0.039,0.005
0.036,0.006
0.038,0.004
0.039,0.005
0.039,0.006
0.041,0.006
0.036,0.011
0.037,0.008
0.039,0.011
0.038,0.010
0.038,0.012
0.038,0.009
0.041,0.015
0.040,0.012
0.041,0.016
0.039,0.015
0.041,0.020
0.041,0.022
0.049,0.022
0.067,0.027
0.107,0.025
0.136,0.031
0.140,0.026
0.117,0.028
0.084,0.026
0.047,0.028
0.014,0.024
-0.015,0.028
-0.029,0.027
-0.022,0.028
-0.015,0.033
-0.003,0.033
0.004,0.034
0.010,0.033
0.014,0.034
0.018,0.032
0.023,0.032
0.031,0.034
0.039,0.032
0.041,0.036
0.043,0.033
0.044,0.034
0.041,0.033
0.043,0.036
0.039,0.037
0.039,0.039
0.036,0.041
0.040,0.041
0.040,0.041
0.041,0.039
0.039,0.041
0.040,0.039
0.039,0.038
0.036,0.040
0.037,0.040
0.036,0.040
0.038,0.039
0.038,0.040
0.036,0.045
0.038,0.043
0.042,0.043
0.046,0.043
0.064,0.043
0.078,0.041
0.087,0.041
0.080,0.043
0.067,0.042
0.042,0.044
0.030,0.040
0.022,0.043
0.016,0.040
0.017,0.037
0.021,0.039
0.027,0.036
0.031,0.038
0.033,0.035
0.037,0.037
0.037,0.035
0.037,0.034
0.037,0.037
0.040,0.035
0.045,0.033
0.059,0.032
0.075,0.031
0.092,0.031
0.101,0.029
0.100,0.030
0.087,0.029
0.075,0.028
0.058,0.027
0.038,0.025
0.015,0.024
0.004,0.023
0.005,0.024
0.011,0.022
0.021,0.023
0.028,0.021
0.032,0.020
0.036,0.017
0.038,0.016
0.042,0.011
0.041,0.012
0.041,0.007
0.041,0.007
0.040,0.005
0.042,0.004
0.040,0.006
0.041,0.006
0.035,0.009
0.037,0.006
0.031,0.005
0.033,0.002
0.036,0.003
0.040,0.000
0.044,0.001
0.046,0.000
0.050,0.003
0.049,-0.000
0.049,-0.000
0.050,-0.001
0.043,-0.004
0.040,-0.005
0.035,-0.003
0.037,-0.004
0.041,-0.002
0.044,-0.007
0.048,-0.005
0.041,-0.009
0.043,-0.008
0.057,-0.006
0.068,-0.008
0.047,-0.005
0.026,-0.009
0.023,-0.008
0.038,-0.008
0.053,-0.005
0.059,-0.003
0.063,-0.006
0.066,-0.005
0.068,-0.008
0.064,-0.007
0.054,-0.007
0.045,-0.007
0.036,-0.007
0.035,-0.008
0.036,-0.006
0.038,-0.007
0.037,-0.007
0.037,-0.004
0.033,-0.003
0.031,-0.000
0.030,0.002
0.035,0.001
0.034,0.000
0.041,-0.002
0.042,0.005
0.045,-0.003
0.044,-0.000
0.043,-0.003
0.048,0.001
0.053,-0.001
0.092,0.002
0.126,0.003
0.136,0.001
0.108,0.003
0.064,0.004
0.024,0.006
-0.005,0.004
-0.031,0.007
-0.038,0.008
-0.029,0.006
-0.006,0.008
0.015,0.008
0.032,0.009
0.043,0.008
0.052,0.010
0.055,0.009
0.058,0.011
0.058,0.009
0.057,0.013
0.053,0.014
0.049,0.016
0.045,0.020
0.046,0.021
0.039,0.024
0.038,0.025
0.032,0.028
0.036,0.023
0.037,0.026
0.037,0.023
0.039,0.028
0.037,0.025
0.037,0.027
0.036,0.028
0.036,0.030
0.034,0.032
0.034,0.032
0.033,0.032
0.035,0.033
0.038,0.033
0.036,0.034
0.036,0.035
0.037,0.038
0.036,0.038
0.039,0.037
0.038,0.036
0.042,0.038
0.039,0.039
0.041,0.039
0.028,0.043
0.019,0.042
-0.021,0.044
-0.035,0.041
-0.043,0.042
-0.060,0.041
-0.043,0.040
-0.019,0.044
0.013,0.041
0.043,0.044
0.068,0.043
0.092,0.043
0.106,0.041
0.119,0.042
0.115,0.043
0.108,0.043
0.092,0.044
0.084,0.041
0.071,0.044
0.064,0.043
0.058,0.045
0.052,0.046
0.051,0.044
0.051,0.042
0.049,0.041
0.055,0.040
0.070,0.040
0.082,0.040
0.088,0.039
0.082,0.039
0.071,0.037
0.051,0.035
0.036,0.034
0.022,0.036
0.015,0.034
0.013,0.035
0.020,0.032
0.026,0.032
0.032,0.029
0.036,0.028
0.039,0.032
0.041,0.029
0.042,0.032
0.043,0.027
0.046,0.027
0.046,0.024
0.045,0.025
0.043,0.028
0.046,0.028
0.043,0.026
0.046,0.024
0.043,0.024
0.044,0.023
0.044,0.023
0.045,0.017
0.050,0.015
0.048,0.012
0.049,0.011
0.047,0.011
0.044,0.007
0.042,0.009
0.041,0.008
0.036,0.008
0.040,0.006
0.043,0.007
0.046,0.006
0.049,0.004
0.051,0.004
0.053,0.002
0.051,0.005
0.052,0.004
0.050,0.006
0.047,0.000
0.047,-0.002
0.045,-0.002
0.044,-0.002
0.043,-0.003
0.041,-0.001
0.042,-0.005
0.044,-0.007
0.051,-0.008
0.061,-0.004
0.075,-0.007
0.080,-0.004
0.075,-0.007
0.065,-0.006
0.052,-0.010
0.047,-0.009
0.036,-0.008
0.030,-0.008
0.020,-0.009
0.020,-0.011
0.022,-0.010
0.024,-0.010
0.030,-0.011
0.033,-0.009
0.033,-0.010
0.037,-0.011
0.034,-0.012
0.038,-0.011
0.038,-0.010
0.038,-0.011
0.037,-0.006
0.037,-0.009
0.038,-0.007
0.035,-0.010
0.039,-0.008
0.037,-0.007
0.040,-0.007
0.038,-0.003
0.039,-0.004
0.037,-0.003
0.037,-0.003
0.041,-0.001
0.040,-0.001
0.042,0.001
0.048,0.003
0.064,0.004
0.103,0.006
0.137,0.003
0.149,0.006
0.136,0.006
0.100,0.008
0.060,0.008
0.026,0.007
-0.012,0.007
-0.026,0.006
-0.024,0.008
-0.011,0.011
0.001,0.009
0.013,0.013
0.023,0.011
0.033,0.011
0.035,0.014
0.042,0.011
0.042,0.014
0.039,0.012
0.037,0.015
0.036,0.017
0.034,0.016
0.033,0.020
0.034,0.022
0.035,0.023
0.038,0.026
0.035,0.026
0.034,0.030
0.030,0.030
0.031,0.032
0.037,0.028
0.039,0.028
0.037,0.028
0.038,0.034
0.033,0.030
0.035,0.033
0.032,0.035
0.039,0.037
0.039,0.037
0.046,0.035
0.050,0.036
0.052,0.033
0.050,0.036
0.050,0.040
0.047,0.040
0.043,0.039
0.041,0.036
0.038,0.036
0.039,0.036
0.037,0.036
0.036,0.039
0.034,0.041
0.038,0.041
0.037,0.040
0.043,0.041
0.042,0.038
0.043,0.039
0.041,0.041
0.041,0.040
0.041,0.041
0.042,0.039
0.042,0.037
0.040,0.040
0.038,0.040
0.039,0.046
0.040,0.042
0.040,0.045
0.040,0.045
0.049,0.047
0.053,0.046
0.081,0.045
0.117,0.048
0.142,0.044
0.140,0.045
0.118,0.040
0.083,0.043
0.048,0.039
0.011,0.038
-0.022,0.040
-0.037,0.041
-0.032,0.040
-0.016,0.036
0.001,0.036
0.014,0.040
0.023,0.040
0.031,0.039
0.036,0.036
0.041,0.034
0.039,0.032
0.039,0.034
0.031,0.032
0.030,0.031
0.031,0.032
0.037,0.030
0.046,0.028
0.054,0.030
0.058,0.030
0.057,0.030
0.059,0.025
0.056,0.028
0.067,0.023
0.080,0.023
0.088,0.022
0.088,0.019
0.074,0.015
0.059,0.015
0.043,0.011
0.041,0.010
0.061,0.012
0.072,0.009
0.075,0.009
0.070,0.009
0.057,0.012
0.044,0.010
0.025,0.010
0.009,0.010
0.002,0.008
0.001,0.006
0.010,0.005
0.014,0.004
0.022,0.002
0.023,0.003
0.027,0.000
0.029,-0.002
0.030,-0.001
0.033,-0.002
0.036,0.002
0.042,-0.000
0.046,-0.001
0.043,-0.002
0.048,-0.002
0.046,-0.002
0.047,-0.003
0.045,-0.001
0.044,-0.004
0.042,-0.005
0.041,-0.006
0.043,-0.007
0.043,-0.003
0.043,-0.007
0.041,-0.005
0.051,-0.009
0.068,-0.006
0.086,-0.009
0.105,-0.008
0.113,-0.004
0.107,-0.005
0.085,-0.007
0.063,-0.005
0.035,-0.009
0.007,-0.005
-0.003,-0.009
0.003,-0.007
0.012,-0.006
0.023,-0.004
0.027,-0.005
0.034,-0.003
0.036,-0.003
0.038,-0.003
0.036,0.002
0.035,0.003
0.036,0.004
0.036,0.003
0.038,0.002
0.034,0.001
0.037,0.003
0.037,0.005
0.039,0.003
0.042,0.003
0.044,0.003
0.049,0.002
0.050,0.002
0.047,0.004
0.046,0.010
0.044,0.008
0.042,0.011
0.039,0.007
0.042,0.008
0.041,0.007
0.042,0.007
0.038,0.011
0.043,0.011
0.039,0.014
0.052,0.012
0.077,0.014
0.126,0.013
0.169,0.017
0.200,0.018
0.205,0.019
0.182,0.019
0.127,0.020
0.045,0.021
-0.017,0.021
-0.048,0.024
-0.056,0.023
-0.040,0.026
-0.002,0.026
0.036,0.026
0.065,0.023
0.070,0.026
0.060,0.025
0.043,0.029
0.017,0.028
-0.004,0.032
-0.009,0.034
-0.003,0.034
0.006,0.036
0.016,0.034
0.026,0.033
0.030,0.032
0.034,0.031
0.032,0.035
0.032,0.033
0.032,0.034
0.033,0.035
0.032,0.036
0.034,0.036
0.033,0.036
0.030,0.040
0.026,0.038
0.029,0.044
0.027,0.042
0.033,0.040
0.037,0.037
0.047,0.036
0.044,0.037
0.044,0.038
0.040,0.041
0.047,0.040
0.057,0.043
0.079,0.041
0.094,0.044
0.094,0.047
0.079,0.046
0.064,0.046
0.049,0.045
0.037,0.045
0.014,0.042
0.004,0.041
-0.004,0.045
0.001,0.042
0.007,0.044
0.014,0.040
0.023,0.041
0.030,0.035
0.041,0.036
0.049,0.036
0.080,0.034
0.112,0.035
0.132,0.033
0.124,0.034
0.092,0.034
0.051,0.031
0.044,0.035
0.025,0.032
0.014,0.032
0.011,0.031
0.021,0.030
0.028,0.031
0.024,0.029
0.011,0.031
0.004,0.031
0.004,0.028
0.010,0.023
0.020,0.020
0.035,0.023
0.051,0.021
0.069,0.026
0.085,0.021
0.101,0.023
0.113,0.019
0.114,0.018
0.102,0.017
0.094,0.015
0.091,0.011
0.086,0.012
0.081,0.011
0.080,0.008
0.061,0.010
0.030,0.007
0.011,0.009
0.001,0.006
-0.012,0.009
-0.018,0.006
-0.013,0.007
-0.004,0.003
0.014,0.001
0.024,0.002
0.032,0.001
0.035,0.003
0.036,0.002
0.034,0.001
0.034,0.001
0.035,0.001
0.036,-0.000
0.038,0.001
0.038,0.004
0.039,-0.002
0.042,0.001
0.040,-0.002
0.043,-0.004
0.041,-0.005
0.041,-0.005
0.038,-0.007
0.037,-0.009
0.037,-0.010
0.042,-0.006
0.040,-0.005
0.041,-0.002
0.039,-0.004
0.037,-0.002
0.038,-0.003
0.042,-0.005
0.041,-0.008
0.040,-0.006
0.039,-0.003
0.040,-0.006
0.038,-0.003
0.040,-0.006
0.039,-0.004
0.037,-0.003
0.038,-0.003
0.035,0.000
0.035,0.002
0.037,-0.001
0.037,-0.004
0.040,0.000
0.039,0.002
0.037,0.000
0.035,-0.000
0.036,0.000
0.037,0.002
0.033,0.002
0.035,0.002
0.034,0.003
0.038,0.002
0.040,0.007
0.042,0.004
0.042,0.008
0.042,0.006
0.043,0.008
0.040,0.006
0.040,0.008
0.042,0.012
0.041,0.011
0.040,0.012
0.039,0.012
0.040,0.014
0.039,0.010
0.042,0.015
0.043,0.013
0.042,0.016
0.040,0.016
0.040,0.018
0.038,0.019
0.041,0.021
0.038,0.024
0.041,0.023
0.039,0.028
0.040,0.025
0.039,0.028
0.039,0.025
0.042,0.028
0.040,0.028
0.040,0.029
0.040,0.031
0.040,0.031
0.039,0.035
0.038,0.034
0.036,0.036
0.039,0.034
0.040,0.036
0.040,0.035
0.040,0.037
0.040,0.039
0.038,0.038
0.038,0.038
0.039,0.034
0.043,0.036
0.040,0.036
0.039,0.035
0.037,0.038
0.039,0.039
0.037,0.038
0.036,0.039
0.039,0.041
0.039,0.042
0.041,0.040
0.040,0.044
0.041,0.042
0.042,0.044
0.039,0.042
0.042,0.041
0.040,0.039
0.040,0.041
0.039,0.044
0.038,0.043
0.040,0.045
0.039,0.041
0.044,0.043
0.042,0.044
0.045,0.045
0.040,0.048
0.043,0.046
0.044,0.044
0.048,0.042
0.049,0.041
0.045,0.042
0.045,0.042
0.044,0.043
0.042,0.043
0.043,0.042
0.039,0.037
0.041,0.040
0.041,0.039
0.041,0.039
0.042,0.039
0.044,0.037
0.044,0.035
0.044,0.035
0.043,0.034
0.045,0.036
0.047,0.031
0.046,0.033
0.045,0.030
0.049,0.029
0.044,0.029
0.048,0.027
0.044,0.030
0.047,0.028
0.048,0.026
0.047,0.023
0.052,0.026
0.049,0.023
0.052,0.023
0.050,0.021
0.051,0.021
0.049,0.022
0.045,0.020
0.045,0.018
0.046,0.016
0.044,0.014
0.045,0.013
0.047,0.013
0.046,0.012
0.049,0.013
0.051,0.009
0.053,0.009
0.051,0.005
0.050,0.005
0.049,0.003
0.048,0.006
0.048,0.004
0.050,0.006
0.057,0.003
0.056,-0.003
0.052,-0.003
0.049,0.000
0.046,-0.002
0.043,-0.001
0.037,-0.001
0.044,0.000
0.043,0.002
0.047,-0.001
0.048,0.001
0.046,-0.002
0.047,-0.001
0.046,-0.006
0.045,-0.006
0.043,-0.003
0.043,-0.008
0.040,-0.005
0.041,-0.005
0.041,-0.003
0.042,-0.005
0.048,-0.005
0.048,-0.005
0.051,-0.008
0.048,-0.006
0.050,-0.012
0.053,-0.010
0.051,-0.010
0.052,-0.009
0.050,-0.005
0.052,-0.004
0.055,-0.005
0.061,-0.008
0.064,-0.008
0.062,-0.008
0.058,-0.006
0.056,-0.005
0.045,-0.004
0.031,-0.003
0.022,0.000
0.021,0.005
0.019,0.005
0.014,0.008
0.019,0.010
0.037,0.006
0.052,0.007
0.057,0.006
0.059,0.004
0.058,0.002
0.057,0.003
0.057,0.008
0.056,0.003
0.057,0.004
0.057,0.002
0.061,0.003
0.054,0.008
0.053,0.005
0.044,0.011
0.042,0.010
0.042,0.012
0.041,0.010
0.042,0.014
0.035,0.011
0.028,0.012
0.022,0.014
0.019,0.014
0.018,0.016
0.022,0.015
0.025,0.022
0.034,0.022
0.038,0.023
0.041,0.024
0.040,0.024
0.037,0.026
0.040,0.026
0.047,0.027
0.059,0.026
0.061,0.028
0.056,0.024
0.049,0.028
0.045,0.027
0.044,0.030
0.043,0.028
0.044,0.029
0.043,0.030
0.049,0.033
0.047,0.031
0.048,0.029
0.049,0.033
0.055,0.030
0.054,0.033
0.059,0.032
0.062,0.032
0.065,0.027
0.064,0.026
0.055,0.027
0.045,0.026
0.031,0.025
0.015,0.031
0.001,0.041
-0.009,0.050
-0.003,0.055
0.016,0.058
0.022,0.058
0.024,0.062
0.037,0.053
0.062,0.050
0.071,0.049
0.071,0.060
0.062,0.072
0.062,0.078
0.068,0.077
0.064,0.063
0.055,0.046
0.041,0.044
0.029,0.055
0.016,0.037
0.018,-0.040
0.033,-0.050
0.041,0.025
0.049,0.091
0.047,0.127
0.043,0.121
0.036,0.104
0.039,0.057
0.043,0.022
0.038,0.008
0.029,0.017
0.019,0.034
0.023,0.042
0.045,0.035
0.065,0.027
0.072,0.017
0.064,0.020
0.061,0.006
0.066,-0.002
0.064,-0.017
0.060,-0.016
0.047,-0.006
0.043,0.009
0.040,0.021
0.039,0.028
0.035,0.042
0.036,0.047
0.038,0.051
0.044,0.054
0.047,0.055
0.046,0.053
0.050,0.045
0.048,0.035
0.049,0.019
0.048,-0.002
0.047,-0.022
0.052,-0.027
0.048,-0.020
0.049,-0.016
0.051,-0.048
0.053,-0.077
0.051,-0.020
0.050,0.060
0.044,0.110
0.042,0.130
0.037,0.117
0.034,0.077
0.029,0.026
0.035,-0.015
0.044,-0.030
0.058,-0.034
0.064,-0.031
0.051,-0.036
0.041,-0.038
0.026,-0.039
0.029,-0.054
0.039,-0.081
0.055,-0.089
0.061,-0.031
0.064,0.031
0.055,0.075
0.054,0.099
0.058,0.098
0.062,0.067
0.052,0.013
0.036,-0.050
0.011,-0.083
-0.007,-0.043
-0.028,0.019
-0.022,0.071
0.020,0.057
0.064,-0.013
0.084,-0.061
0.077,-0.077
0.068,-0.073
0.059,-0.058
0.061,-0.048
0.061,-0.034
0.052,-0.031
0.047,-0.025
0.036,-0.023
0.030,-0.019
0.023,-0.021
0.032,-0.026
0.049,-0.029
0.067,-0.034
0.067,-0.031
0.056,-0.025
0.040,-0.019
0.026,-0.007
0.018,0.002
0.020,0.019
0.024,0.025
0.023,0.025
0.034,0.023
0.050,0.015
0.058,0.007
0.057,0.000
0.049,-0.006
0.042,-0.014
0.043,-0.008
0.049,-0.006
0.053,-0.003
0.045,-0.003
0.033,0.001
0.017,0.001
-0.003,0.006
-0.020,0.012
-0.012,0.023
0.030,0.022
0.074,0.025
0.095,0.016
0.094,-0.021
0.080,-0.053
0.068,0.003
0.055,0.078
0.040,0.138
0.022,0.140
0.017,0.095
0.019,0.030
0.036,-0.016
0.047,0.010
0.049,0.059
0.049,0.121
0.047,0.116
0.041,0.057
0.040,-0.008
0.039,-0.031
0.033,-0.047
0.036,-0.057
0.034,-0.063
0.039,-0.045
0.043,-0.019
0.045,0.002
0.043,0.022
0.042,0.035
0.042,0.040
0.042,0.041
0.040,0.039
0.042,0.042
0.044,0.040
0.040,0.040
0.039,0.038
0.040,0.039
0.033,0.038
0.033,0.037
0.032,0.045
0.036,0.047
0.049,0.055
0.062,0.056
0.072,0.054
0.065,0.034
0.055,0.024
0.040,0.029
0.029,0.037
0.020,0.050
0.024,0.062
0.033,0.079
0.042,0.097
0.043,0.124
0.042,0.152
0.039,0.172
0.042,0.184
0.041,0.159
0.043,0.076
0.039,-0.035
0.041,-0.133
0.040,-0.086
0.044,0.012
0.045,0.088
0.044,0.124
0.044,0.125
0.043,0.082
0.044,0.019
0.043,-0.020
0.048,-0.033
0.058,-0.028
0.062,-0.018
0.058,-0.005
0.044,0.009
0.028,0.015
0.005,0.022
-0.010,0.029
-0.012,0.036
0.012,0.038
0.052,0.032
0.084,0.034
0.093,0.025
0.082,0.024
0.065,0.020
0.055,0.022
0.050,0.019
0.050,0.020
0.048,0.016
0.036,0.014
0.015,0.012
-0.003,0.012
-0.020,0.013
-0.022,0.016
0.011,0.016
0.065,0.017
0.097,0.015
0.099,0.013
0.086,0.011
0.072,0.009
0.062,0.014
0.055,0.027
0.055,0.034
0.051,0.032
0.047,0.028
0.038,0.008
0.034,-0.019
0.039,-0.034
0.047,-0.036
0.050,-0.035
0.045,-0.026
0.043,-0.021
0.036,-0.016
0.026,-0.016
0.017,-0.013
0.017,-0.011
0.031,-0.008
0.046,-0.007
0.058,-0.003
0.053,-0.003
0.046,-0.002
0.044,-0.005
0.050,-0.011
0.055,-0.017
0.058,-0.016
0.055,-0.021
0.056,-0.021
0.050,-0.024
0.049,-0.023
0.044,-0.017
0.043,-0.020
0.042,-0.016
0.041,-0.016
0.043,-0.010
0.045,-0.010
0.044,-0.010
0.043,-0.009
0.045,-0.009
0.049,-0.010
0.051,-0.011
0.058,-0.009
0.063,-0.009
0.066,-0.011
0.066,-0.003
0.059,-0.002
0.050,0.000
0.040,0.002
0.032,0.005
0.028,0.004
0.026,-0.005
0.022,-0.006
0.026,-0.008
0.026,-0.018
0.033,-0.027
0.042,-0.019
0.052,-0.010
0.060,-0.008
0.058,-0.007
0.053,-0.011
0.037,-0.008
0.014,-0.008
-0.004,-0.004
-0.026,0.003
-0.033,0.011
-0.007,0.015
0.046,0.013
0.077,0.009
0.082,0.005
0.073,0.003
0.069,0.008
0.062,0.007
0.054,0.010
0.041,0.016
0.025,0.024
0.004,0.032
-0.008,0.034
-0.004,0.028
0.020,0.019
0.040,0.011
0.055,-0.004
0.056,-0.054
0.057,-0.076
0.054,-0.003
0.050,0.075
0.047,0.129
0.045,0.125
0.048,0.092
0.051,0.027
0.055,-0.010
0.052,-0.009
0.049,0.015
0.034,0.034
0.027,0.053
0.016,0.054
0.019,0.048
0.034,0.038
0.051,0.023
0.052,0.012
0.050,0.004
0.048,0.007
0.047,0.011
0.049,0.015
0.049,0.021
0.049,0.022
0.050,0.026
0.046,0.032
0.048,0.034
0.047,0.034
0.045,0.030
0.043,0.037
0.044,0.037
0.045,0.040
0.045,0.038
0.046,0.039
0.045,0.041
0.045,0.043
0.040,0.046
0.035,0.042
0.032,0.041
0.033,0.035
0.033,0.035
0.036,0.035
0.037,0.036
0.039,0.044
0.040,0.047
0.042,0.049
0.038,0.050
0.041,0.055
0.040,0.052
0.042,0.047
0.036,0.044
0.038,0.030
0.043,0.024
0.044,0.023
0.045,0.026
0.045,0.030
0.047,0.030
0.044,0.034
0.046,0.029
0.051,0.029
0.052,0.020
0.054,0.019
0.056,0.024
0.054,0.023
0.050,0.024
0.045,0.026
0.042,0.031
0.039,0.032
0.037,0.034
0.041,0.034
0.039,0.035
0.035,0.029
0.031,0.026
0.032,0.021
0.029,0.020
0.032,0.018
0.028,0.019
0.030,0.016
0.035,0.019
0.040,0.016
0.045,0.017
0.052,0.017
0.060,0.020
0.057,0.019
0.059,0.019
0.055,0.013
0.056,0.012
0.055,0.010
0.055,0.008
0.045,0.016
0.035,0.021
0.032,0.011
0.037,-0.011
0.043,-0.016
0.051,-0.015
0.062,-0.010
0.074,-0.006
0.070,-0.004
0.057,0.001
0.046,0.003
0.035,0.006
0.022,0.004
0.026,0.002
0.037,-0.003
0.056,-0.008
0.053,-0.005
0.049,-0.008
0.038,-0.003
0.043,-0.000
0.050,-0.001
0.056,-0.007
0.056,-0.008
0.050,-0.016
0.052,-0.017
0.051,-0.011
0.054,-0.023
0.061,-0.062
0.068,-0.081
0.057,-0.016
0.038,0.061
0.015,0.103
0.001,0.100
-0.015,0.062
0.003,-0.004
0.046,-0.042
0.083,-0.053
0.088,-0.045
0.076,-0.031
0.062,-0.019
0.049,-0.015
0.039,-0.019
0.031,-0.019
0.030,-0.025
0.034,-0.027
0.033,-0.028
0.037,-0.013
0.038,0.010
0.040,0.033
0.037,0.045
0.041,0.040
0.040,0.013
0.048,-0.018
0.042,-0.030
0.043,-0.030
0.038,-0.024
0.034,-0.009
0.031,-0.003
0.032,0.002
0.026,0.003
0.039,0.003
0.049,0.003
0.056,-0.002
0.049,0.001
0.042,-0.001
0.043,0.000
0.049,0.002
0.053,0.009
0.046,0.013
0.037,0.015
0.029,0.023
0.026,0.024
0.024,0.025
0.032,-0.008
0.034,-0.051
0.041,-0.025
0.042,0.053
0.047,0.106
0.050,0.133
0.049,0.113
0.049,0.073
0.044,0.013
0.042,-0.023
0.043,-0.028
0.049,-0.019
0.048,0.004
0.042,0.006
0.033,0.001
0.029,-0.004
0.030,0.004
0.039,0.011
0.056,0.017
0.067,0.022
0.069,0.026
0.057,0.035
0.052,0.037
0.039,0.043
0.037,0.041
0.040,0.038
0.041,0.030
0.024,0.025
0.009,0.023
-0.006,0.026
-0.027,0.035
-0.020,0.038
0.021,0.039
0.069,0.034
0.087,0.035
0.083,0.032
0.069,0.035
0.055,0.039
0.045,0.038
0.042,0.042
0.037,0.043
0.036,0.045
0.032,0.044
0.034,0.041
0.033,0.041
0.037,0.041
0.038,0.040
0.037,0.040
0.036,0.041
0.034,0.041
0.034,0.044
0.035,0.045
0.041,0.047
0.050,0.048
0.052,0.046
0.054,0.044
0.055,0.050
0.049,0.050
0.045,0.062
0.050,0.069
0.062,0.079
0.066,0.079
0.057,0.058
0.046,0.030
0.045,0.010
0.044,0.002
0.042,0.006
0.039,0.009
0.036,0.019
0.030,0.026
0.030,0.030
0.029,0.028
0.028,0.033
0.028,0.042
0.044,0.049
0.057,0.053
0.066,0.041
0.053,0.018
0.043,-0.009
0.035,-0.019
0.039,-0.017
0.047,-0.003
0.048,0.004
0.047,0.010
0.043,0.020
0.040,0.024
0.033,0.030
0.029,0.023
0.036,0.024
0.052,0.019
0.066,0.017
0.061,0.013
0.056,0.012
0.055,0.009
0.060,0.003
0.059,0.000
0.047,-0.007
0.032,-0.003
0.011,-0.003
-0.010,0.007
-0.012,0.014
0.028,0.019
0.071,0.017
0.095,0.018
0.086,0.015
0.071,0.013
0.050,0.019
0.037,0.016
0.027,0.012
0.023,0.009
0.030,0.005
0.049,-0.005
0.065,-0.010
0.069,-0.002
0.063,-0.005
0.057,-0.020
0.051,-0.029
0.048,-0.029
0.047,-0.023
0.049,-0.016
0.042,-0.015
0.046,-0.013
0.045,-0.013
0.047,-0.016
0.046,-0.017
0.049,-0.014
0.048,-0.018
0.049,-0.020
0.049,-0.019
0.050,-0.016
0.051,-0.015
0.048,-0.003
0.050,0.010
0.051,0.010
0.050,0.006
0.054,-0.003
0.061,-0.007
0.056,-0.012
0.052,-0.010
0.041,-0.002
0.033,0.003
0.021,0.006
0.022,0.008
0.037,0.008
0.049,0.008
0.048,0.006
0.040,0.012
0.036,0.009
0.033,0.007
0.039,0.004
0.041,0.002
0.040,0.000
0.038,0.000
0.036,0.002
0.036,0.005
0.036,-0.003
0.040,-0.045
0.047,-0.071
0.052,-0.004
0.053,0.075
0.051,0.124
0.047,0.119
0.047,0.084
0.047,0.020
0.049,-0.021
0.049,-0.033
0.050,-0.026
0.047,-0.018
0.043,-0.008
0.036,-0.005
0.027,-0.002
0.025,0.001
0.034,0.003
0.043,0.010
0.046,0.017
0.045,0.026
0.039,0.033
0.034,0.047
0.034,0.059
0.032,0.067
0.038,0.056
0.045,0.040
0.045,0.016
0.049,0.012
0.046,0.012
0.041,0.016
0.036,0.023
0.035,0.028
0.036,0.030
0.037,0.033
0.044,0.035
0.050,0.038
0.057,0.037
0.062,0.036
0.063,0.030
0.066,0.027
0.057,0.024
0.050,0.027
0.034,0.038
0.022,0.046
0.010,0.055
0.019,0.054
0.039,0.057
0.056,0.054
0.054,0.056
0.042,0.054
0.033,0.054
0.028,0.056
0.033,0.042
0.035,0.026
0.038,0.014
0.036,0.017
0.039,0.027
0.044,0.034
0.050,0.037
0.053,0.036
0.058,0.037
0.059,0.036
0.056,0.041
0.055,0.049
0.052,0.055
0.055,0.044
0.054,0.019
0.038,0.008
0.010,0.012
-0.018,0.020
-0.042,0.039
-0.055,0.049
-0.022,0.058
0.047,0.059
0.108,0.036
0.113,-0.019
0.101,-0.030
0.076,0.040
0.064,0.105
0.048,0.141
0.037,0.130
0.033,0.097
0.040,0.036
0.050,-0.008
0.056,-0.028
0.058,-0.029
0.055,-0.024
0.049,-0.012
0.042,0.002
0.041,0.014
0.037,0.017
0.036,0.022
0.036,0.022
0.041,0.023
0.044,0.021
0.049,0.018
0.050,0.020
0.056,0.023
0.049,0.024
0.050,0.023
0.048,0.020
0.049,0.011
0.048,0.003
0.049,0.000
0.043,-0.001
0.040,0.005
0.032,0.006
0.028,0.001
0.025,0.003
0.032,0.003
0.048,0.002
0.063,0.004
0.059,0.002
0.053,-0.000
0.045,-0.002
0.036,-0.002
0.033,-0.003
0.036,-0.001
0.043,-0.003
0.052,-0.005
0.055,-0.007
0.046,-0.008
0.042,-0.008
0.039,-0.008
0.044,-0.010
0.044,-0.007
0.048,-0.013
0.044,-0.015
0.046,-0.015
0.046,-0.012
0.042,-0.013
0.037,-0.006
0.034,0.006
0.036,0.006
0.038,0.007
0.042,0.004
0.046,0.019
0.047,0.024
0.052,0.036
0.050,0.034
0.053,0.016
0.051,-0.015
0.052,-0.034
0.052,-0.039
0.055,-0.035
0.051,-0.029
0.047,-0.018
0.038,-0.015
0.036,-0.010
0.029,-0.010
0.029,-0.007
0.032,-0.004
0.039,-0.004
0.044,-0.001
0.049,-0.006
0.051,-0.004
0.047,-0.005
0.043,-0.002
0.036,-0.001
0.031,0.001
0.020,0.009
0.028,0.009
0.038,0.011
0.050,0.010
0.048,0.011
0.039,0.010
0.040,0.010
0.041,0.013
0.049,0.009
0.047,0.010
0.046,0.008
0.045,0.015
0.042,0.012
0.045,0.015
0.046,0.016
0.049,0.014
0.047,0.014
0.049,0.010
0.048,0.009
0.049,0.013
0.044,0.012
0.043,0.009
0.042,0.011
0.041,0.014
0.038,0.017
0.038,0.018
0.038,0.022
0.039,0.024
0.040,0.025
0.043,0.026
0.041,0.027
0.036,0.030
0.035,0.033
0.032,0.033
0.034,0.033
0.037,0.037
0.041,0.034
0.041,0.033
0.045,0.034
0.044,0.032
0.043,0.034
0.043,0.035
0.042,0.031
0.040,0.026
0.040,0.024
0.039,0.019
0.040,0.020
0.037,0.024
0.039,0.029
0.039,0.036
0.038,0.048
0.038,0.055
0.037,0.062
0.039,0.058
0.043,0.054
0.042,0.046
0.047,0.041
0.043,0.031
0.042,0.030
0.039,0.030
0.039,0.027
0.033,0.028
0.040,0.029
0.045,0.032
0.055,0.033
0.057,0.036
0.054,0.039
0.049,0.040
0.040,0.043
0.032,0.044
0.031,0.045
0.026,0.047
0.028,0.047
0.029,0.045
0.036,0.044
0.040,0.045
0.042,0.041
0.045,0.038
0.045,0.034
0.046,0.035
0.044,0.037
0.046,0.036
0.043,0.035
0.047,0.035
0.049,0.034
0.049,0.033
0.048,0.034
0.046,0.036
0.043,0.034
0.043,0.036
0.037,0.038
0.039,0.036
0.039,0.031
0.041,0.026
0.042,0.026
0.045,0.023
0.042,0.023
0.043,0.023
0.048,0.023
0.047,0.023
0.048,0.023
0.050,0.022
0.051,0.020
0.052,0.022
0.049,0.016
0.049,0.017
0.049,0.015
0.046,0.016
0.043,0.010
0.044,0.014
0.041,0.013
0.044,0.010
0.043,0.008
0.049,0.006
0.052,0.005
0.049,0.001
0.048,0.004
0.048,0.000
0.047,0.002
0.047,-0.002
0.050,0.000
0.049,-0.002
0.048,-0.003
0.043,0.001
0.041,-0.002
0.038,0.005
0.038,0.002
0.038,0.004
0.040,0.002
0.037,0.002
0.038,0.004
0.036,0.000
0.038,0.002
0.041,-0.003
0.046,-0.004
0.048,-0.004
0.051,-0.002
0.050,-0.004
0.052,-0.006
0.055,-0.006
0.052,-0.004
0.050,-0.001
0.047,0.004
0.046,0.002
0.043,0.003
0.040,0.001
0.045,0.001
0.038,-0.006
0.040,-0.003
0.035,0.004
0.036,0.004
0.034,0.004
0.036,-0.004
0.040,-0.009
0.040,-0.014
0.040,-0.019
0.038,-0.023
0.041,-0.023
0.042,-0.022
0.042,-0.015
0.040,-0.009
0.041,-0.004
0.040,-0.002
0.042,0.005
0.041,0.007
0.039,0.010
0.036,0.008
0.040,0.007
0.037,0.002
0.038,0.001
0.033,-0.004
0.034,-0.003
0.032,-0.003
0.031,-0.005
0.034,-0.001
0.039,0.010
0.041,0.018
0.045,0.024
0.046,0.024
0.051,0.025
0.047,0.023
0.047,0.026
0.040,0.027
0.042,0.025
0.039,0.027
0.040,0.023
0.037,0.026
0.040,0.021
0.041,0.023
0.043,0.020
0.045,0.027
0.046,0.024
0.047,0.026
0.044,0.024
0.043,0.029
0.043,0.030
0.046,0.031
0.041,0.029
0.043,0.030
0.043,0.024
0.045,0.023
0.042,0.019
0.042,0.013
0.040,0.021
0.042,0.030
0.040,0.043
0.037,0.044
0.039,0.043
0.037,0.044
0.035,0.042
0.036,0.051
0.038,0.056
0.044,0.057
0.043,0.054
0.044,0.044
0.039,0.038
0.042,0.040
0.040,0.041
0.040,0.042
0.041,0.044
0.036,0.045
0.032,0.044
0.032,0.047
0.033,0.046
0.038,0.045
0.039,0.044
0.045,0.044
0.047,0.044
0.045,0.043
0.043,0.046
0.041,0.046
0.042,0.048
0.039,0.044
0.039,0.046
0.035,0.045
0.033,0.045
0.032,0.049
0.032,0.046
0.036,0.049
0.037,0.045
0.044,0.047
0.048,0.045
0.050,0.046
0.050,0.046
0.047,0.043
0.049,0.042
0.046,0.040
0.047,0.039
0.047,0.042
0.046,0.040
0.043,0.041
0.044,0.040
0.046,0.038
0.047,0.035
0.045,0.034
0.046,0.037
0.047,0.034
0.046,0.032
0.041,0.031
0.038,0.032
0.033,0.033
0.033,0.032
0.028,0.035
0.030,0.032
0.031,0.033
0.032,0.029
0.037,0.033
0.040,0.027
0.044,0.025
0.045,0.024
0.051,0.020
0.051,0.019
0.051,0.014
0.046,0.016
0.047,0.013
0.042,0.012
0.038,0.010
0.036,0.011
0.035,0.010
0.038,0.011
0.039,0.010
0.041,0.008
0.046,0.012
0.045,0.008
0.047,0.011
0.051,0.008
0.051,0.009
0.051,0.008
0.053,0.007
0.051,0.007
0.050,0.010
0.047,0.011
0.051,0.004
0.049,0.003
0.049,-0.001
0.048,0.001
0.048,0.003
0.048,0.004
0.048,0.003
0.049,0.000
0.050,-0.000
0.048,0.000
0.044,-0.003
0.045,-0.000
0.041,-0.002
0.042,-0.000
0.039,-0.003
0.041,-0.000
0.039,-0.003
0.041,-0.001
0.041,-0.001
0.041,-0.003
0.046,0.001
0.047,-0.005
0.042,-0.004
0.042,0.002
0.038,0.001
0.037,-0.000
0.036,-0.002
0.041,-0.001
0.040,-0.001
0.044,-0.002
0.042,0.002
0.043,0.001
0.041,0.002
0.042,0.002
0.041,0.003
0.040,0.001
0.041,0.005
0.041,0.010
0.043,0.008
0.045,0.006
0.043,0.006
0.046,0.008
0.042,0.008
0.043,0.008
0.043,0.012
0.043,0.011
0.042,0.012
0.041,0.014
0.042,0.014
0.041,0.011
0.045,0.013
0.041,0.017
0.039,0.017
0.038,0.017
0.036,0.015
0.036,0.017
0.035,0.017
0.037,0.022
0.040,0.021
0.044,0.020
0.050,0.022
0.047,0.019
0.043,0.024
0.041,0.024
0.039,0.027
0.042,0.027
0.041,0.032
0.039,0.031
0.043,0.034
0.042,0.029
0.045,0.033
0.043,0.030
0.044,0.032
0.041,0.032
0.042,0.029
0.041,0.033
0.045,0.030
0.041,0.034
0.042,0.036
0.040,0.041
0.041,0.042
0.040,0.045
0.039,0.042
0.043,0.041
0.038,0.043
0.041,0.040
0.043,0.043
0.044,0.040
0.041,0.044
0.040,0.045
0.037,0.042
0.037,0.041
0.037,0.039
0.041,0.040
0.041,0.040
0.042,0.042
0.042,0.046
0.043,0.046
0.040,0.045
0.044,0.046
0.044,0.045
0.044,0.044
0.042,0.044
0.042,0.047
0.037,0.048
0.038,0.048
0.037,0.048
0.045,0.049
0.045,0.047
0.044,0.047
0.045,0.052
0.040,0.052
0.043,0.050
0.045,0.044
0.048,0.042
0.046,0.038
0.048,0.036
0.043,0.040
0.044,0.041
0.044,0.041
0.048,0.039
0.046,0.038
0.045,0.037
0.042,0.039
0.046,0.042
0.044,0.040
0.048,0.039
0.045,0.038
0.046,0.037
0.044,0.039
0.046,0.035
0.046,0.036
0.049,0.034
0.049,0.033
0.049,0.033
0.047,0.029
0.046,0.034
0.045,0.030
0.049,0.029
0.044,0.026
0.050,0.027
0.045,0.023
0.049,0.023
0.045,0.024
0.048,0.022
0.048,0.024
0.049,0.021
0.048,0.021
0.045,0.017
0.047,0.016
0.044,0.012
0.046,0.011
0.043,0.007
0.047,0.008
0.045,0.006
0.049,0.006
0.044,0.003
0.047,0.005
0.044,0.009
0.043,0.012
0.042,0.015
0.043,0.011
0.047,0.010
0.045,0.010
0.051,0.006
0.049,0.007
0.050,0.005
0.049,0.007
0.046,0.004
0.047,0.004
0.049,0.003
0.048,0.004
0.045,0.003
0.047,0.001
0.049,-0.001
0.050,-0.004
0.049,-0.004
0.049,0.000
0.046,-0.003
0.046,-0.002
0.043,-0.000
0.046,-0.003
0.047,-0.004
0.046,-0.003
0.045,-0.000
0.042,0.002
0.045,0.002
0.045,-0.001
0.046,-0.004
0.040,-0.001
0.043,-0.003
0.040,-0.001
0.042,-0.001
0.042,-0.002
0.043,-0.003
0.048,-0.001
0.049,-0.000
0.049,0.001
0.047,0.006
0.047,0.006
0.049,0.008
0.046,0.005
0.047,0.006
0.043,0.004
0.047,0.002
0.041,0.004
0.043,0.002
0.043,0.005
0.044,0.001
0.045,0.003
0.047,0.004
0.043,0.004
0.043,0.010
0.038,0.008
0.038,0.009
0.036,0.013
0.037,0.015
0.041,0.021
0.043,0.019
0.044,0.020
0.045,0.016
0.050,0.017
0.047,0.013
0.050,0.017
0.046,0.014
0.047,0.018
0.043,0.019
0.045,0.017
0.042,0.022
0.042,0.021
0.040,0.024
0.041,0.024
0.040,0.028
0.041,0.030
0.039,0.029
0.043,0.031
0.042,0.031
0.042,0.032
0.043,0.030
0.044,0.029
0.044,0.030
0.044,0.032
0.039,0.033
0.041,0.037
0.039,0.037
0.040,0.036
0.043,0.036
0.043,0.036
0.042,0.039
0.039,0.036
0.038,0.041
0.040,0.037
0.043,0.039
0.042,0.037
0.043,0.037
0.040,0.040
0.040,0.037
0.036,0.044
0.040,0.043
0.041,0.043
0.041,0.041
0.039,0.043
0.042,0.044
0.043,0.043
0.043,0.045
0.041,0.041
0.042,0.043
0.041,0.041
0.042,0.042
0.043,0.041
0.043,0.043
0.039,0.044
0.041,0.046
0.042,0.045
0.043,0.046
0.044,0.046
0.043,0.045
0.040,0.047
0.042,0.049
0.042,0.047
0.046,0.044
0.045,0.043
0.045,0.041
0.046,0.043
0.043,0.042
0.044,0.044
0.042,0.041
0.044,0.041
0.042,0.039
0.046,0.037
0.045,0.041
0.046,0.037
0.039,0.039
0.042,0.039
0.044,0.038
0.047,0.037
0.048,0.034
0.047,0.036
0.047,0.033
0.046,0.032
0.047,0.030
0.047,0.031
0.043,0.029
0.049,0.028
0.046,0.029
0.047,0.027
0.046,0.025
0.046,0.026
0.048,0.028
0.047,0.023
0.049,0.021
0.047,0.021
0.046,0.019
0.047,0.019
0.045,0.014
0.048,0.016
0.046,0.013
0.045,0.012
0.047,0.011
0.047,0.012
0.045,0.011
0.047,0.009
0.046,0.008
0.046,0.008
0.050,0.009
0.048,0.008
0.048,0.009
0.047,0.006
0.046,0.005
0.046,0.002
0.049,0.006
0.046,0.006
0.047,0.004
0.045,0.006
0.049,0.003
0.049,0.002
0.049,0.001
0.046,0.001
0.049,0.005
0.046,0.001
0.050,0.003
0.048,-0.003
0.049,0.000
0.049,-0.005
0.049,-0.007
0.047,-0.006
0.046,-0.005
0.046,-0.003
0.048,-0.004
0.050,-0.003
0.050,-0.003
0.048,-0.002
0.044,-0.002
0.040,-0.003
0.038,-0.003
0.038,-0.004
0.037,-0.003
0.039,-0.007
0.040,-0.002
0.042,0.001
0.045,0.001
0.047,0.002
0.049,0.002
0.051,0.004
0.047,0.000
0.047,0.004
0.046,0.005
0.045,0.005
0.044,0.006
0.046,0.005
0.045,0.006
0.044,0.004
0.043,0.005
0.043,0.009
0.043,0.008
0.043,0.008
0.042,0.008
0.044,0.008
0.045,0.011
0.045,0.009
0.041,0.010
0.041,0.010
0.044,0.010
0.043,0.010
0.046,0.009
0.044,0.013
0.046,0.012
0.044,0.016
0.046,0.018
0.042,0.019
0.044,0.019
0.044,0.020
0.042,0.018
0.043,0.018
0.041,0.019
0.042,0.023
0.041,0.023
0.044,0.026
0.042,0.030
0.043,0.025
0.044,0.032
0.043,0.031
0.045,0.034
0.043,0.031
0.043,0.033
0.040,0.033
0.042,0.033
0.041,0.034
0.045,0.034
0.041,0.034
0.041,0.032
0.039,0.035
0.042,0.036
0.042,0.039
0.042,0.037
0.045,0.036
0.043,0.035
0.044,0.037
0.042,0.038
0.044,0.036
0.039,0.041
0.042,0.039
0.042,0.040
0.040,0.040
0.042,0.041
0.041,0.047
0.042,0.045
0.039,0.046
0.041,0.046
0.044,0.046
0.045,0.049
0.043,0.047
0.043,0.048
0.043,0.047
0.045,0.046
0.042,0.044
0.047,0.043
0.045,0.045
0.045,0.046
0.044,0.048
0.044,0.044
0.042,0.046
0.044,0.043
0.050,0.047
0.045,0.047
0.049,0.045
0.046,0.049
0.048,0.047
0.047,0.047
0.047,0.043
0.048,0.043
0.046,0.044
0.049,0.042
0.045,0.042
0.045,0.041
0.044,0.043
0.045,0.041
0.049,0.041
0.047,0.038
0.046,0.037
0.044,0.041
0.045,0.038
0.047,0.037
0.049,0.034
0.050,0.038
0.048,0.037
0.049,0.034
0.046,0.035
0.049,0.032
0.049,0.033
0.049,0.030
0.049,0.030
0.047,0.031
0.045,0.029
0.047,0.028
0.047,0.027
0.050,0.023
0.049,0.023
0.052,0.021
0.050,0.018
0.051,0.015
0.052,0.016
0.050,0.015
0.052,0.015
0.047,0.016
0.049,0.017
0.049,0.015
0.047,0.013
0.047,0.013
0.049,0.012
0.047,0.008
0.051,0.009
0.049,0.009
0.052,0.005
0.046,0.005
0.049,0.003
0.045,0.005
0.048,0.004
0.049,0.003
0.050,0.004
0.047,0.005
0.047,0.007
0.048,0.003
0.050,0.001
0.048,-0.001
0.052,0.000
0.051,0.003
0.053,-0.001
0.052,0.002
0.049,-0.003
0.051,-0.003
0.049,-0.004
0.047,-0.005
0.045,-0.003
0.046,-0.003
0.042,0.000
0.044,-0.003
0.047,-0.001
0.048,-0.003
0.046,-0.001
0.049,0.001
0.047,0.000
0.049,-0.002
0.045,-0.005
0.049,-0.005
0.048,-0.003
0.046,-0.001
0.043,0.003
0.045,0.000
0.045,-0.001
0.043,-0.001
0.045,0.001
0.048,0.002
0.043,0.000
0.044,0.006
0.043,0.004
0.043,0.005
0.041,0.002
0.047,0.004
0.044,0.004
0.043,0.004
0.042,0.008
0.043,0.006
0.045,0.010
0.043,0.007
0.044,0.009
0.043,0.009
0.043,0.012
0.040,0.014
0.043,0.011
0.043,0.014
0.044,0.014
0.045,0.014
0.045,0.016
0.046,0.013
0.044,0.018
0.041,0.016
0.041,0.016
0.042,0.017
0.043,0.020
0.037,0.023
0.041,0.023
0.037,0.023
0.041,0.026
0.039,0.025
0.044,0.029
0.042,0.029
0.045,0.029
0.043,0.029
0.044,0.031
0.040,0.032
0.041,0.033
0.038,0.031
0.038,0.032
0.041,0.034
0.043,0.034
0.041,0.036
0.039,0.036
0.039,0.036
0.041,0.040
0.039,0.039
0.039,0.043
0.039,0.044
0.043,0.042
0.042,0.041
0.044,0.040
0.044,0.040
0.042,0.041
0.038,0.043
0.037,0.041
0.042,0.042
0.041,0.041
0.042,0.040
0.037,0.047
0.039,0.046
0.040,0.047
0.042,0.047
0.045,0.047
0.044,0.047
0.042,0.044
0.043,0.048
0.041,0.045
0.041,0.047
0.037,0.045
0.043,0.045
0.042,0.044
0.044,0.043
0.040,0.048
0.043,0.048
0.041,0.050
0.042,0.047
0.042,0.048
0.042,0.043
0.044,0.041
0.042,0.045
0.043,0.043
0.045,0.043
0.044,0.042
0.044,0.040
0.045,0.040
0.041,0.038
0.043,0.043
0.041,0.039
0.046,0.037
0.044,0.036
0.047,0.039
0.046,0.041
0.047,0.039
0.046,0.040
0.048,0.036
0.050,0.034
0.048,0.034
0.047,0.031
0.048,0.035
0.045,0.033
0.048,0.031
0.047,0.030
0.049,0.028
0.047,0.026
0.048,0.024
0.048,0.025
0.045,0.023
0.045,0.023
0.045,0.024
0.047,0.024
0.045,0.022
0.049,0.018
0.047,0.016
0.052,0.015
0.048,0.011
0.049,0.012
0.047,0.010
0.046,0.010
0.045,0.012
0.046,0.009
0.046,0.012
0.050,0.006
0.047,0.011
0.048,0.008
0.050,0.006
0.050,0.004
0.050,0.005
0.047,0.008
0.047,0.004
0.047,0.003
0.047,-0.002
0.048,0.000
0.049,0.002
0.048,0.001
0.045,0.003
0.046,0.000
0.046,-0.001
0.048,-0.001
0.047,-0.003
0.048,0.001
0.046,-0.001
0.045,0.002
0.044,-0.005
0.048,-0.002
0.046,-0.006
0.046,-0.005
0.043,-0.001
0.044,-0.003
0.042,-0.000
0.044,-0.004
0.048,-0.004
0.047,-0.003
0.049,-0.003
0.044,-0.001
0.046,-0.002
0.043,-0.000
0.045,-0.004
0.046,-0.003
0.046,-0.002
0.044,-0.003
0.045,0.000
0.043,-0.002
0.044,0.002
0.044,-0.002
0.048,0.001
0.043,0.002
0.041,0.002
0.041,0.006
0.042,0.004
0.041,0.003
0.042,0.001
0.041,0.005
0.042,0.006
0.044,0.005
0.043,0.010
0.044,0.007
0.044,0.011
0.044,0.010
0.048,0.011
0.046,0.010
0.046,0.010
0.042,0.012
0.043,0.012
0.045,0.012
0.045,0.010
0.042,0.011
0.043,0.012
0.045,0.014
0.042,0.019
0.043,0.017
0.041,0.022
0.044,0.018
0.041,0.020
0.041,0.020
0.043,0.023
0.042,0.021
0.044,0.026
0.042,0.025
0.043,0.026
0.045,0.027
0.042,0.028
0.044,0.029
0.044,0.029
0.045,0.032
0.043,0.030
0.042,0.030
0.040,0.030
0.042,0.030
0.040,0.033
0.027,0.036
0.008,0.036
-0.029,0.039
-0.060,0.040
-0.068,0.038
-0.046,0.036
-0.006,0.035
0.033,0.035
0.064,0.037
0.085,0.036
0.093,0.039
0.095,0.037
0.099,0.040
0.100,0.039
0.102,0.041
0.097,0.043
0.091,0.042
0.080,0.046
0.070,0.046
0.062,0.046
0.044,0.043
0.033,0.044
0.013,0.044
-0.020,0.042
-0.040,0.045
-0.044,0.042
-0.037,0.044
-0.015,0.040
0.014,0.042
0.041,0.046
0.061,0.041
0.074,0.045
0.083,0.043
0.089,0.046
0.088,0.044
0.095,0.046
0.092,0.044
0.092,0.042
0.087,0.043
0.089,0.043
0.090,0.043
0.086,0.041
0.080,0.039
0.075,0.043
0.066,0.038
0.060,0.039
0.057,0.038
0.056,0.037
0.052,0.039
0.054,0.036
0.047,0.038
0.049,0.035
0.049,0.036
0.049,0.033
0.049,0.032
0.047,0.033
0.048,0.031
0.046,0.030
0.046,0.030
0.045,0.029
0.045,0.027
0.045,0.028
0.042,0.029
0.044,0.027
0.044,0.028
0.043,0.025
0.047,0.024
0.046,0.022
0.051,0.022
0.048,0.018
0.048,0.017
0.049,0.013
0.050,0.012
0.046,0.013
0.046,0.012
0.046,0.010
0.048,0.010
0.045,0.012
0.049,0.008
0.045,0.008
0.047,0.005
0.046,0.006
0.049,0.002
0.046,0.003
0.047,0.006
0.049,0.004
0.045,0.003
0.045,0.003
0.047,0.003
0.041,0.004
0.044,0.001
0.043,0.004
0.044,0.002
0.045,0.003
0.043,0.003
0.049,0.000
0.047,0.002
0.049,-0.003
0.047,-0.001
0.048,-0.004
0.047,-0.003
0.048,-0.005
0.048,-0.006
0.046,-0.003
0.047,-0.003
0.043,0.001
0.044,-0.003
0.045,-0.001
0.048,-0.005
0.047,-0.006
0.047,-0.005
0.046,-0.007
0.042,-0.005
0.043,-0.003
0.045,-0.003
0.042,-0.006
0.042,-0.003
0.042,-0.002
0.042,-0.000
0.040,0.000
0.042,-0.000
0.044,0.003
0.042,0.003
0.041,0.003
0.041,0.007
0.041,0.005
0.042,0.005
0.040,0.004
0.047,0.007
0.047,0.004
0.045,0.006
0.043,0.009
0.041,0.008
0.042,0.008
0.042,0.004
0.047,0.005
0.044,0.007
0.046,0.009
0.042,0.012
0.042,0.010
0.042,0.013
0.041,0.008
0.044,0.010
0.040,0.009
0.044,0.011
0.041,0.014
0.042,0.014
0.040,0.019
0.043,0.017
0.042,0.020
0.040,0.017
0.040,0.021
0.041,0.021
0.041,0.025
0.040,0.021
0.045,0.024
0.041,0.023
0.045,0.026
0.042,0.025
0.045,0.026
0.043,0.027
0.045,0.026
0.044,0.029
0.044,0.031
0.043,0.032
0.042,0.032
0.042,0.030
0.041,0.032
0.043,0.032
0.045,0.036
0.044,0.033
0.041,0.035
0.044,0.034
0.045,0.037
0.042,0.037
0.049,0.036
0.047,0.036
0.048,0.033
0.044,0.036
0.047,0.036
0.042,0.038
0.043,0.038
0.045,0.039
0.045,0.041
0.044,0.043
0.043,0.043
0.044,0.044
0.046,0.043
0.048,0.041
0.046,0.041
0.048,0.044
0.046,0.042
0.044,0.043
0.043,0.040
0.047,0.042
0.047,0.041
0.045,0.041
0.042,0.045
0.045,0.042
0.042,0.041
0.043,0.042
0.044,0.040
0.047,0.042
0.043,0.042
0.043,0.043
0.042,0.041
0.045,0.042
0.047,0.038
0.049,0.036
0.048,0.037
0.045,0.037
0.049,0.039
0.045,0.036
0.048,0.038
0.046,0.034
0.048,0.034
0.050,0.033
0.048,0.034
0.047,0.036
0.048,0.034
0.049,0.032
0.049,0.031
0.049,0.030
0.052,0.029
0.047,0.026
0.046,0.024
0.045,0.022
0.050,0.025
0.049,0.024
0.050,0.023
0.051,0.024
0.049,0.025
0.047,0.023
0.051,0.022
0.047,0.020
0.049,0.019
0.049,0.017
0.049,0.016
0.050,0.015
0.049,0.009
0.050,0.009
0.047,0.008
0.047,0.009
0.047,0.011
0.048,0.008
0.047,0.008
0.049,0.006
0.047,0.007
0.050,0.004
0.050,0.006
0.051,0.003
0.050,0.002
0.050,0.001
0.048,0.002
0.045,0.003
0.046,-0.002
0.047,-0.000
0.048,-0.001
0.049,-0.000
0.046,0.004
0.049,0.001
0.047,0.002
0.051,-0.001
0.052,-0.002
0.053,-0.003
0.051,-0.006
0.051,-0.002
0.049,-0.003
0.052,-0.007
0.049,-0.006
0.050,-0.007
0.049,-0.006
0.049,-0.009
0.045,-0.004
0.044,-0.004
0.049,-0.003
0.047,-0.006
0.049,-0.005
0.044,-0.003
0.046,-0.006
0.045,-0.008
0.048,-0.008
0.047,-0.006
0.048,-0.006
0.047,-0.003
0.047,-0.002
0.045,-0.000
0.044,0.001
0.045,-0.002
0.048,0.002
0.048,-0.003
0.046,-0.002
0.046,-0.000
0.047,0.002
0.044,0.002
0.047,0.000
0.049,0.003
0.050,0.002
0.048,0.003
0.048,0.007
0.047,0.006
0.045,0.008
0.044,0.008
0.045,0.008
0.042,0.009
0.045,0.009
0.042,0.013
0.045,0.010
0.044,0.013
0.043,0.013
0.045,0.014
0.045,0.013
0.044,0.015
0.045,0.016
0.044,0.016
0.043,0.021
0.043,0.018
0.039,0.021
0.041,0.019
0.038,0.021
0.042,0.023
0.039,0.028
0.043,0.029
0.041,0.028
0.042,0.027
0.043,0.030
0.042,0.028
0.043,0.030
0.041,0.031
0.044,0.030
0.046,0.034
0.043,0.032
0.043,0.035
0.042,0.034
0.044,0.037
0.044,0.037
0.047,0.040
0.043,0.039
0.044,0.037
0.041,0.041
0.043,0.037
0.046,0.040
0.044,0.037
0.049,0.036
0.043,0.037
0.045,0.040
0.040,0.042
0.041,0.041
0.040,0.044
0.042,0.040
0.042,0.043
0.044,0.044
0.043,0.043
0.043,0.044
0.044,0.045
0.046,0.045
0.046,0.040
0.048,0.040
0.043,0.043
0.044,0.042
0.041,0.045
0.042,0.043
0.043,0.045
0.044,0.042
0.044,0.042
0.043,0.045
0.047,0.045
0.042,0.048
0.044,0.043
0.046,0.047
0.045,0.041
0.048,0.044
0.045,0.044
0.048,0.044
0.045,0.043
0.046,0.042
0.046,0.045
0.046,0.042
0.044,0.041
0.045,0.043
0.045,0.041
0.043,0.039
0.043,0.040
0.041,0.037
0.045,0.037
0.042,0.035
0.044,0.039
0.042,0.034
0.046,0.035
0.045,0.030
0.048,0.028
0.045,0.029
0.047,0.027
0.043,0.029
0.045,0.025
0.045,0.026
0.044,0.024
0.047,0.022
0.047,0.021
0.046,0.022
0.045,0.022
0.047,0.018
0.048,0.022
0.049,0.017
0.047,0.020
0.047,0.014
0.048,0.017
0.048,0.010
0.050,0.011
0.046,0.008
0.049,0.010
0.045,0.008
0.051,0.008
0.048,0.009
0.048,0.005
0.048,0.008
0.049,0.005
0.047,0.006
0.044,0.001
0.054,0.002
0.048,0.002
0.049,0.001
0.044,0.005
0.045,0.002
0.046,0.000
0.048,-0.001
0.048,-0.002
0.047,0.001
0.048,0.001
0.048,0.003
0.048,-0.001
0.051,-0.002
0.051,-0.004
0.050,-0.005
0.048,-0.006
0.048,-0.005
0.049,-0.007
0.048,-0.006
0.047,-0.007
0.049,-0.004
0.046,-0.007
0.047,-0.004
0.046,-0.005
0.052,-0.005
0.050,-0.007
0.052,-0.006
0.048,-0.002
0.049,-0.003
0.047,-0.003
0.049,-0.003
0.048,-0.003
0.050,-0.003
0.049,-0.002
0.046,0.001
0.047,0.001
0.047,0.001
0.048,-0.001
0.049,-0.000
0.049,0.002
0.048,0.004
0.046,0.005
0.046,0.006
0.046,0.007
0.044,0.006
0.049,0.008
0.046,0.007
0.049,0.008
0.044,0.010
0.048,0.009
0.047,0.010
0.046,0.009
0.047,0.008
0.045,0.010
0.044,0.011
0.048,0.016
0.045,0.013
0.049,0.016
0.045,0.013
0.048,0.014
0.045,0.014
0.047,0.016
0.042,0.017
0.045,0.016
0.040,0.019
0.043,0.018
0.039,0.023
0.043,0.023
0.039,0.028
0.041,0.026
0.040,0.029
0.040,0.026
0.041,0.029
0.042,0.027
0.043,0.033
0.040,0.030
0.044,0.033
0.043,0.034
0.042,0.032
0.039,0.037
0.043,0.035
0.040,0.037
0.043,0.037
0.045,0.037
0.045,0.036
0.044,0.037
0.042,0.041
0.043,0.041
0.042,0.041
0.041,0.040
0.044,0.040
0.044,0.038
0.042,0.039
0.041,0.041
0.041,0.045
0.040,0.042
0.041,0.043
0.042,0.042
0.043,0.041
0.043,0.042
0.044,0.043
0.042,0.046
0.042,0.046
0.043,0.044
0.044,0.043
0.044,0.043
0.042,0.043
0.040,0.043
0.043,0.044
0.043,0.044
0.042,0.044
0.044,0.044
0.041,0.047
0.045,0.046
0.041,0.047
0.040,0.047
0.045,0.047
0.046,0.045
0.047,0.044
0.048,0.046
0.049,0.042
0.046,0.044
0.045,0.039
0.049,0.041
0.047,0.037
0.050,0.040
0.049,0.041
0.050,0.041
0.043,0.040
0.047,0.039
0.048,0.039
0.051,0.036
0.047,0.036
0.045,0.038
0.048,0.036
0.047,0.036
0.049,0.034
0.048,0.032
0.047,0.031
0.045,0.030
0.045,0.031
0.047,0.032
0.047,0.029
0.047,0.026
0.049,0.028
0.049,0.025
0.049,0.026
0.050,0.023
0.053,0.023
0.051,0.023
0.049,0.017
0.048,0.019
0.050,0.015
0.049,0.017
0.052,0.011
0.046,0.014
0.039,0.012
0.022,0.012
0.001,0.007
-0.033,0.010
-0.049,0.005
-0.047,0.008
-0.019,0.008
0.015,0.008
0.049,0.008
0.071,0.003
0.090,0.002
0.099,-0.002
0.104,-0.000
0.105,0.002
0.104,0.003
0.102,0.005
0.097,0.002
0.094,-0.000
0.081,-0.002
0.077,-0.001
0.069,0.002
0.066,0.000
0.058,-0.003
0.048,-0.003
0.036,-0.007
0.019,-0.004
-0.012,-0.006
-0.034,-0.002
-0.040,-0.002
-0.028,-0.004
-0.009,-0.003
0.021,-0.003
0.042,-0.002
0.066,-0.004
0.076,-0.001
0.085,-0.004
0.092,-0.005
0.092,-0.005
0.096,-0.003
0.095,-0.003
0.096,-0.004
0.089,0.001
0.091,-0.000
0.088,-0.001
0.081,-0.003
0.076,-0.003
0.071,0.000
0.064,0.001
0.059,0.005
0.056,0.003
0.056,0.004
0.054,0.004
0.050,0.005
0.050,0.006
0.049,0.006
0.047,0.006
0.046,0.005
0.049,0.004
0.046,0.002
0.045,0.006
0.045,0.007
0.041,0.006
0.042,0.009
0.040,0.007
0.044,0.009
0.042,0.011
0.043,0.009
0.042,0.014
0.043,0.011
0.043,0.013
0.040,0.014
0.046,0.016
0.042,0.013
0.041,0.018
0.039,0.016
0.040,0.016
0.040,0.020
0.041,0.023
0.041,0.025
0.042,0.024
0.037,0.028
0.042,0.028
0.040,0.031
0.041,0.032
0.037,0.032
0.039,0.032
0.040,0.031
0.039,0.029
0.044,0.030
0.043,0.031
0.042,0.032
0.041,0.036
0.038,0.034
0.039,0.038
0.038,0.036
0.043,0.038
0.040,0.035
0.043,0.036
0.042,0.039
0.044,0.041
0.039,0.039
0.039,0.036
0.042,0.037
0.040,0.036
0.040,0.039
0.039,0.039
0.038,0.043
0.033,0.046
0.037,0.045
0.039,0.045
0.038,0.044
0.041,0.047
0.042,0.044
0.039,0.044
0.040,0.044
0.040,0.042
0.042,0.044
0.043,0.044
0.041,0.044
0.039,0.047
0.038,0.046
0.038,0.046
0.041,0.045
0.040,0.044
0.045,0.044
0.045,0.044
0.042,0.046
0.041,0.045
0.041,0.045
0.043,0.045
0.046,0.044
0.042,0.045
0.042,0.041
0.040,0.043
0.040,0.042
0.044,0.040
0.041,0.036
0.044,0.037
0.044,0.037
0.043,0.035
0.043,0.037
0.044,0.036
0.045,0.037
0.047,0.036
0.047,0.035
0.047,0.037
0.047,0.033
0.046,0.034
0.046,0.030
0.050,0.030
0.048,0.027
0.046,0.026
0.044,0.027
0.046,0.026
0.041,0.028
0.046,0.024
0.046,0.025
0.046,0.021
0.048,0.022
0.046,0.020
0.050,0.021
0.047,0.018
0.049,0.015
0.046,0.016
0.049,0.011
0.044,0.015
0.047,0.010
0.045,0.012
0.046,0.010
0.044,0.011
0.044,0.008
0.046,0.010
0.045,0.007
0.049,0.007
0.047,0.007
0.049,0.006
0.044,0.007
0.046,0.003
0.050,0.006
0.049,-0.001
0.050,0.001
0.044,0.003
0.047,-0.001
0.046,-0.002
0.047,0.001
0.049,-0.001
0.049,0.001
0.048,-0.001
0.049,0.003
0.051,-0.001
0.050,-0.001
0.048,-0.003
0.050,-0.004
0.047,-0.003
0.047,-0.007
0.046,-0.002
0.047,-0.001
0.048,-0.001
0.046,-0.003
0.048,-0.002
0.045,0.001
0.046,-0.001
0.044,0.000
0.044,-0.004
0.048,-0.005
0.046,-0.007
0.045,-0.006
0.042,-0.001
0.046,-0.002
0.046,0.000
0.047,-0.002
0.051,0.004
0.047,0.002
0.045,0.004
0.043,0.006
0.044,0.006
0.042,0.002
0.045,0.003
0.046,0.004
0.045,0.006
0.045,0.002
0.043,0.008
0.044,0.009
0.041,0.014
0.043,0.010
0.046,0.008
0.043,0.009
0.045,0.009
0.042,0.013
0.041,0.013
0.040,0.013
0.043,0.012
0.042,0.010
0.043,0.012
0.043,0.011
0.040,0.012
0.041,0.015
0.040,0.016
0.041,0.018
0.042,0.020
0.041,0.017
0.042,0.017
0.039,0.019
0.038,0.019
0.040,0.021
0.040,0.022
0.040,0.026
0.041,0.027
0.042,0.032
0.041,0.028
0.041,0.033
0.040,0.031
0.040,0.034
0.040,0.030
0.038,0.032
0.037,0.031
0.041,0.033
0.040,0.034
0.041,0.036
0.038,0.038
0.041,0.036
0.039,0.038
0.038,0.040
0.041,0.040
0.039,0.036
0.044,0.036
0.041,0.041
0.044,0.039
0.041,0.040
0.041,0.037
0.041,0.038
0.040,0.038
0.038,0.037
0.039,0.042
0.037,0.042
0.041,0.044
0.039,0.042
0.046,0.041
0.042,0.041
0.045,0.044
0.043,0.044
0.045,0.044
0.043,0.042
0.045,0.041
0.045,0.041
0.043,0.040
0.043,0.042
0.044,0.047
0.042,0.045
0.043,0.046
0.043,0.045
0.048,0.046
0.045,0.044
0.046,0.044
0.044,0.045
0.044,0.043
0.045,0.044
0.045,0.043
0.047,0.043
0.044,0.042
0.047,0.041
0.044,0.042
0.046,0.041
0.046,0.041
0.048,0.038
0.049,0.040
0.047,0.041
0.046,0.038
0.043,0.041
0.045,0.037
0.048,0.037
0.047,0.034
0.049,0.034
0.047,0.034
0.048,0.034
0.047,0.033
0.045,0.028
0.046,0.030
0.047,0.028
0.045,0.027
0.049,0.030
0.047,0.026
0.047,0.026
0.047,0.027
0.047,0.026
0.046,0.023
0.048,0.022
0.048,0.019
0.050,0.019
0.049,0.016
0.052,0.016
0.050,0.015
0.047,0.013
0.048,0.014
0.046,0.011
0.046,0.014
0.047,0.010
0.045,0.013
0.046,0.010
0.048,0.009
0.045,0.006
0.050,0.007
0.046,0.007
0.045,0.004
0.045,0.007
0.045,0.002
0.049,0.003
0.043,0.001
0.049,0.002
0.045,0.003
0.048,0.001
0.044,0.004
0.046,0.003
0.047,0.002
0.049,0.000
0.047,-0.002
0.047,-0.002
0.045,-0.003
0.045,-0.003
0.043,-0.007
0.049,-0.004
0.046,-0.009
0.047,-0.004
0.045,-0.003
0.045,-0.003
0.042,-0.004
0.041,-0.005
0.046,-0.004
0.047,-0.003
0.048,-0.006
0.047,-0.002
0.047,-0.005
0.048,0.000
0.045,-0.004
0.049,-0.002
0.047,-0.003
0.047,-0.002
0.045,0.001
0.046,-0.003
0.047,0.001
0.046,-0.002
0.047,-0.001
0.044,0.002
0.032,0.004
0.004,0.004
-0.029,0.005
-0.057,0.006
-0.067,0.003
-0.053,0.006
-0.020,0.008
0.017,0.007
0.047,0.013
0.068,0.008
0.082,0.009
0.088,0.006
0.095,0.009
0.097,0.009
0.103,0.009
0.099,0.012
0.098,0.011
0.090,0.014
0.079,0.011
0.073,0.013
0.067,0.014
0.062,0.015
0.055,0.019
0.053,0.016
0.049,0.020
0.049,0.022
0.044,0.023
0.045,0.024
0.043,0.027
0.042,0.025
0.045,0.026
0.044,0.025
0.048,0.029
0.044,0.028
0.046,0.030
0.046,0.032
0.046,0.032
0.047,0.033
0.044,0.033
0.046,0.035
0.043,0.034
0.045,0.036
0.044,0.033
0.047,0.034
0.043,0.040
0.047,0.038
0.044,0.041
0.043,0.038
0.044,0.040
0.042,0.036
0.043,0.039
0.044,0.042
0.042,0.039
0.039,0.042
0.041,0.041
0.043,0.043
0.043,0.044
0.041,0.043
0.041,0.047
0.042,0.047
0.041,0.049
0.041,0.046
0.047,0.045
0.044,0.044
0.048,0.042
0.044,0.045
0.049,0.044
0.046,0.045
0.045,0.044
0.043,0.046
0.044,0.042
0.046,0.044
0.044,0.045
0.044,0.045
0.043,0.049
0.045,0.048
0.045,0.049
0.047,0.044
0.044,0.046
0.047,0.046
0.045,0.045
0.045,0.047
0.045,0.046
0.048,0.046
0.047,0.043
0.046,0.043
0.044,0.043
0.046,0.046
0.045,0.041
0.046,0.042
0.049,0.039
0.047,0.040
0.047,0.039
0.043,0.037
0.045,0.036
0.050,0.034
0.050,0.036
0.050,0.032
0.050,0.033
0.050,0.029
0.050,0.029
0.049,0.028
0.050,0.026
0.047,0.028
0.048,0.026
0.046,0.026
0.049,0.024
0.047,0.028
0.048,0.024
0.049,0.026
0.052,0.021
0.048,0.019
0.049,0.016
0.051,0.014
0.050,0.012
0.048,0.012
0.047,0.013
0.047,0.012
0.047,0.014
0.045,0.013
0.046,0.015
0.046,0.013
0.048,0.013
0.044,0.011
0.049,0.011
0.046,0.005
0.048,0.007
0.047,0.011
0.045,0.006
0.046,0.008
0.043,0.002
0.047,0.005
0.044,0.004
0.046,0.002
0.044,0.005
0.046,0.005
0.045,0.004
0.046,0.004
0.046,0.002
0.048,0.002
0.049,0.000
0.043,0.002
0.046,-0.003
0.048,0.001
0.046,-0.003
0.048,-0.003
0.044,-0.001
0.044,0.001
0.044,0.000
0.046,-0.001
0.047,-0.000
0.049,-0.002
0.046,-0.003
0.047,0.002
0.045,-0.001
0.045,-0.001
0.046,-0.003
0.048,-0.003
0.046,-0.002
0.048,-0.000
0.042,0.000
0.043,0.001
0.043,0.003
0.046,0.000
0.045,0.001
0.045,0.004
0.047,0.004
0.044,0.006
0.045,0.004
0.045,0.004
0.046,0.004
0.046,0.004
0.047,0.010
0.042,0.008
0.043,0.010
0.043,0.008
0.045,0.009
0.045,0.004
0.044,0.010
0.043,0.010
0.046,0.012
0.042,0.014
0.044,0.013
0.042,0.013
0.045,0.011
0.044,0.012
0.045,0.017
0.044,0.015
0.046,0.015
0.045,0.018
0.044,0.017
0.045,0.016
0.042,0.017
0.041,0.019
0.043,0.022
0.040,0.021
0.043,0.024
0.043,0.025
0.043,0.029
0.045,0.026
0.044,0.026
0.046,0.027
0.045,0.027
0.043,0.032
0.041,0.032
0.041,0.035
0.041,0.034
0.043,0.034
0.042,0.032
0.046,0.035
0.043,0.032
0.045,0.034
0.041,0.036
0.043,0.036
0.042,0.039
0.043,0.036
0.045,0.038
0.045,0.036
0.044,0.034
0.043,0.037
0.043,0.038
0.042,0.039
0.043,0.039
0.043,0.040
0.042,0.042
0.041,0.045
0.041,0.045
0.043,0.045
0.047,0.044
0.044,0.041
0.048,0.043
0.045,0.045
0.047,0.045
0.047,0.044
0.045,0.041
0.045,0.042
0.043,0.045
0.044,0.046
0.043,0.046
0.041,0.046
0.042,0.050
0.042,0.047
0.044,0.046
0.044,0.046
0.046,0.043
0.043,0.045
0.044,0.041
0.044,0.044
0.045,0.044
0.051,0.044
0.048,0.042
0.050,0.039
0.048,0.041
0.048,0.038
0.044,0.041
0.047,0.039
0.047,0.042
0.047,0.037
0.048,0.037
0.046,0.041
0.046,0.038
0.046,0.039
0.045,0.036
0.049,0.036
0.049,0.034
0.050,0.034
0.046,0.033
0.050,0.034
0.047,0.032
0.050,0.031
0.050,0.030
0.048,0.029
0.049,0.026
0.048,0.027
0.049,0.025
0.048,0.026
0.052,0.023
0.049,0.021
0.051,0.018
0.051,0.018
0.050,0.015
0.052,0.014
0.047,0.012
0.047,0.012
0.049,0.012
0.048,0.010
0.049,0.011
0.047,0.009
0.047,0.013
0.048,0.011
0.049,0.012
0.049,0.006
0.050,0.006
0.049,0.003
0.052,0.004
0.047,0.007
0.048,0.007
0.047,0.004
0.048,0.006
0.051,0.002
0.049,0.004
0.046,0.001
0.049,0.007
0.050,0.004
0.049,0.003
0.046,0.002
0.050,0.002
0.047,0.000
0.047,-0.000
0.047,0.003
0.046,-0.004
0.047,-0.002
0.046,-0.003
0.047,-0.004
0.045,-0.000
0.048,0.001
0.047,0.000
0.045,-0.002
0.048,-0.005
0.049,-0.005
0.048,-0.008
0.046,-0.001
0.045,-0.003
0.042,0.001
0.042,-0.003
0.044,-0.001
0.041,-0.003
0.045,-0.002
0.044,0.000
0.044,-0.001
0.043,0.004
0.043,0.000
0.047,0.002
0.045,0.003
0.045,0.004
0.042,0.004
0.045,0.003
0.044,0.005
0.046,0.003
0.045,0.003
0.045,0.005
0.045,0.006
0.043,0.010
0.042,0.010
0.043,0.014
0.041,0.011
0.044,0.013
0.041,0.013
0.044,0.013
0.040,0.013
0.042,0.016
0.039,0.015
0.042,0.014
0.043,0.014
0.044,0.016
0.042,0.016
0.043,0.017
0.043,0.015
0.042,0.019
0.037,0.021
0.028,0.023
0.012,0.024
-0.010,0.024
-0.045,0.026
-0.059,0.027
-0.055,0.030
-0.025,0.030
0.014,0.028
0.049,0.031
0.073,0.030
0.088,0.030
0.095,0.031
0.099,0.031
0.100,0.036
0.100,0.035
0.098,0.038
0.091,0.038
0.088,0.039
0.078,0.035
0.070,0.036
0.064,0.039
0.058,0.039
0.052,0.041
0.051,0.038
0.050,0.042
0.048,0.042
0.047,0.040
0.045,0.044
0.043,0.040
0.045,0.044
0.042,0.041
0.044,0.045
0.043,0.045
0.049,0.045
0.044,0.048
0.048,0.046
0.047,0.046
0.048,0.043
0.051,0.043
0.048,0.039
0.044,0.043
0.030,0.043
0.016,0.046
-0.015,0.043
-0.042,0.043
-0.052,0.042
-0.045,0.045
-0.020,0.045
0.012,0.048
0.041,0.044
0.064,0.046
0.080,0.045
0.091,0.046
0.095,0.047
0.098,0.045
0.099,0.047
0.098,0.046
0.093,0.046
0.091,0.041
0.089,0.039
0.079,0.043
0.071,0.043
0.066,0.042
0.061,0.038
0.058,0.040
0.054,0.038
0.054,0.038
0.049,0.041
0.049,0.037
0.050,0.037
0.050,0.031
0.051,0.032
0.049,0.032
0.047,0.031
0.047,0.031
0.046,0.029
0.047,0.028
0.047,0.027
0.049,0.023
0.051,0.027
0.050,0.026
0.050,0.028
0.049,0.023
0.049,0.023
0.048,0.022
0.049,0.021
0.047,0.020
0.052,0.017
0.048,0.013
0.052,0.011
0.048,0.010
0.050,0.012
0.047,0.011
0.047,0.010
0.045,0.010
0.047,0.014
0.045,0.011
0.046,0.010
0.048,0.009
0.047,0.004
0.047,0.005
0.047,0.007
0.046,0.005
0.045,0.002
0.045,0.003
0.048,0.002
0.046,0.004
0.046,0.002
0.042,0.005
0.045,0.002
0.045,0.004
0.045,0.002
0.049,0.003
0.044,0.002
0.047,0.001
0.043,0.000
0.046,-0.002
0.048,-0.001
0.045,-0.003
0.047,-0.003
0.044,-0.001
0.045,-0.003
0.044,-0.001
0.044,-0.002
0.047,-0.001
0.042,-0.003
0.047,-0.003
0.043,-0.000
0.045,-0.002
0.042,0.002
0.045,-0.002
0.046,-0.002
0.044,-0.004
0.046,-0.001
0.042,0.003
0.041,0.003
0.039,0.003
0.043,0.002
0.045,0.003
0.047,0.005
0.045,0.002
0.044,0.006
0.043,0.006
0.041,0.009
0.041,0.007
0.043,0.006
0.043,0.004
0.043,0.007
0.042,0.010
0.040,0.011
0.043,0.011
0.040,0.006
0.042,0.006
0.041,0.012
0.043,0.010
0.043,0.014
0.041,0.012
0.048,0.016
0.045,0.010
0.048,0.015
0.043,0.017
0.042,0.015
0.039,0.019
0.042,0.015
0.040,0.019
0.041,0.018
0.039,0.022
0.039,0.021
0.038,0.025
0.038,0.023
0.041,0.026
0.041,0.027
0.045,0.031
0.042,0.031
0.046,0.030
0.042,0.029
0.043,0.031
0.044,0.032
0.042,0.032
0.042,0.031
0.042,0.031
0.038,0.033
0.040,0.035
0.038,0.036
0.041,0.036
0.041,0.037
0.042,0.037
0.040,0.037
0.040,0.036
0.040,0.039
0.041,0.037
0.041,0.036
0.043,0.039
0.042,0.041
0.041,0.038
0.039,0.041
0.040,0.040
0.041,0.045
0.039,0.043
0.043,0.043
0.043,0.045
0.044,0.048
0.041,0.047
0.042,0.043
0.044,0.044
0.045,0.043
0.043,0.042
0.044,0.046
0.043,0.046
0.044,0.042
0.038,0.043
0.042,0.044
0.041,0.046
0.044,0.044
0.043,0.048
0.043,0.048
0.047,0.047
0.046,0.047
0.046,0.047
0.045,0.049
0.046,0.048
0.046,0.048
0.045,0.042
0.048,0.044
0.047,0.042
0.049,0.040
0.048,0.041
0.049,0.038
0.046,0.042
0.046,0.043
0.048,0.041
0.047,0.038
0.050,0.038
0.049,0.040
0.048,0.038
0.045,0.039
0.048,0.035
0.048,0.036
0.046,0.031
0.045,0.030
0.046,0.033
0.045,0.030
0.046,0.029
0.046,0.027
0.049,0.028
0.049,0.025
0.049,0.026
0.050,0.026
0.051,0.024
0.049,0.025
0.050,0.023
0.049,0.021
0.050,0.019
0.049,0.018
0.049,0.016
0.049,0.016
0.049,0.014
0.050,0.013
0.050,0.010
0.046,0.011
0.048,0.010
0.048,0.011
0.046,0.013
0.047,0.012
0.046,0.009
0.048,0.009
0.049,0.009
0.049,0.006
0.050,0.006
0.050,0.005
0.046,0.004
0.049,0.006
0.048,0.001
0.048,0.002
0.050,0.001
0.050,0.004
0.047,0.005
0.046,0.004
0.047,0.005
0.050,0.004
0.050,0.002
0.049,0.002
0.047,-0.001
0.048,0.000
0.042,-0.002
0.046,-0.004
0.043,-0.004
0.047,-0.005
0.045,-0.003
0.045,-0.004
0.045,0.000
0.046,-0.005
0.048,-0.000
0.049,-0.002
0.049,-0.002
0.046,0.000
0.046,0.001
0.043,0.001
0.044,0.000
0.044,0.002
0.044,0.000
0.043,0.001
0.040,0.004
0.022,0.003
-0.011,0.004
-0.043,0.004
-0.065,0.002
-0.066,0.003
-0.042,0.005
-0.003,0.005
0.032,0.005
0.058,0.007
0.075,0.008
0.083,0.007
0.093,0.010
0.097,0.010
0.098,0.010
0.100,0.009
0.099,0.011
0.091,0.012
0.088,0.013
0.075,0.011
0.070,0.014
0.061,0.018
0.054,0.015
0.038,0.017
0.019,0.015
-0.001,0.018
-0.025,0.016
-0.041,0.018
-0.045,0.017
-0.032,0.018
-0.011,0.019
0.016,0.020
0.034,0.022
0.053,0.023
0.061,0.025
0.069,0.030
0.072,0.032
0.078,0.031
0.082,0.031
0.084,0.031
0.090,0.032
0.091,0.029
0.088,0.032
0.087,0.032
0.079,0.033
0.073,0.035
0.066,0.036
0.060,0.036
0.055,0.036
0.055,0.038
0.054,0.039
0.052,0.039
0.049,0.043
0.049,0.041
0.050,0.040
0.048,0.039
0.048,0.036
0.046,0.037
0.045,0.039
0.043,0.040
0.041,0.041
0.044,0.041
0.043,0.041
0.045,0.046
0.045,0.046
0.046,0.046
0.046,0.048
0.044,0.044
0.045,0.043
0.044,0.042
0.048,0.042
0.044,0.044
0.047,0.044
0.043,0.044
0.047,0.043
0.048,0.045
0.049,0.044
0.049,0.045
0.047,0.050
0.047,0.047
0.046,0.049
0.048,0.046
0.050,0.048
0.049,0.044
0.051,0.045
0.047,0.047
0.049,0.048
0.045,0.047
0.048,0.047
0.049,0.042
0.051,0.039
0.049,0.038
0.050,0.044
0.048,0.040
0.048,0.040
0.045,0.039
0.049,0.038
0.046,0.039
0.049,0.037
0.046,0.037
0.047,0.034
0.053,0.031
0.048,0.029
0.050,0.031
0.046,0.034
0.049,0.032
0.045,0.032
0.047,0.029
0.048,0.028
0.046,0.027
0.046,0.027
0.046,0.029
0.045,0.026
0.046,0.026
0.045,0.023
0.045,0.021
0.048,0.018
0.049,0.014
0.047,0.014
0.049,0.014
0.049,0.012
0.048,0.011
0.048,0.009
0.049,0.010
0.047,0.009
0.048,0.011
0.048,0.012
0.050,0.010
0.048,0.010
0.049,0.008
0.048,0.008
0.049,0.003
0.048,0.004
0.048,0.007
0.047,0.004
0.045,0.004
0.046,0.006
0.048,0.003
0.049,0.004
0.047,0.003
0.049,0.008
0.047,0.008
0.049,0.003
0.046,-0.001
0.050,-0.001
0.049,-0.001
0.050,-0.002
0.046,0.000
0.047,-0.002
0.045,-0.001
0.046,-0.004
0.046,-0.003
0.048,-0.001
0.049,0.000
0.048,-0.002
0.048,-0.003
0.049,-0.002
0.049,-0.003
0.049,-0.003
0.045,0.002
0.046,-0.002
0.045,-0.002
0.044,-0.003
0.049,-0.001
0.045,-0.004
0.047,-0.001
0.042,0.002
0.044,0.002
0.042,0.004
0.045,0.002
0.047,0.003
0.049,0.001
0.048,0.003
0.049,0.008
0.049,0.008
0.047,0.008
0.044,0.006
0.049,0.007
0.049,0.005
0.049,0.004
0.046,0.009
0.046,0.011
0.045,0.010
0.045,0.008
0.046,0.009
0.045,0.009
0.047,0.012
0.046,0.013
0.047,0.014
0.045,0.015
0.046,0.013
0.045,0.013
0.047,0.013
0.046,0.014
0.042,0.017
0.043,0.018
0.043,0.021
0.044,0.018
0.040,0.021
0.044,0.021
0.040,0.025
0.044,0.025
0.045,0.025
0.044,0.026
0.048,0.028
