File Version,253.000000
# of Channels,2.000000
Samples/Channel,10300.000000
Scan Rate (Hz),10000.000000
Timestamp,3807795184.788994
Operating Mode,1.000000
Trial #,0.000000
Session #,35.000000
Subject code 1,82.000000
Subject code 2,88.000000
Feedback Window,0.000000
Feedback Ch,0.000000
Ch B,0.000000
Pre-Stim Acq. time (ms),100.000000
Post-Stim Acq. time (ms),900.000000
EMG Hi Limit,50.000000
EMG Lo Limit,0.000250
Target Value (V),5.000000
Stimulus Value (V),0.650000
Stimulus duration (ms),1.000000
EMG conditions time limit (sec),0.200000
M-response Start (ms),2.000000
M-response Duration (ms),2.000000
H-response Duration (ms),2.000000
H-response Start (ms),5.000000
Proportioanl gain,0.003000
Channel to monitor,0.000000
SIU gain,20.000000
FB Monitor value,0.529613
Inter-Stim delay (sec),5.000000
M-Window Mean,0.017034
H-Window Mean,0.005228
Stimulus paradigm,2.000000
# of Pulses in cond train,1.000000
Cond duration (ms),1.000000
Cond Train pulse period (ms),30.000000
Cond Value (V),0.650000
Start Delay (ms),0.000000
# of Pulses in stim train,1.000000
Stim Train pulse period (ms),30.000000
EMG amp gain ch 1,500.000000
EMG amp gain ch 2,500.000000
EMG amp gain ch 3,1000.000000
EMG amp gain ch 4,1000.000000
EMG amp gain ch 5,1000.000000
EMG amp gain ch 6,1000.000000
Stim Type 1,2.000000
Stim/Cond 1,0.000000
Stim Type 2,3.000000
Stim/Cond 2,0.000000
Stim Type 3,3.000000
Stim/Cond 3,0.000000
Stim Type 4,3.000000
Stim/Cond 4,0.000000
Stim Value 1,0.650000
Stim Value 2,0.000000
Stim Value 3,0.000000
Stim Value 4,0.000000
1st PP Channel,-1.000000
Pressure (g),0.000000
Speed (mm/sec),0.000000
Dwell (ms),0.000000
Pressure limit (g),0.000000
Travel limit (mm),0.000000
Amp gain,0.000000
Wait Trig?,0.000000
Move Timeout (ms),0.000000
Time Taken (ms),0.000000
Actual Travel (mm),0.000000
Recorded Data (mV),
-0.004,-0.120
-0.026,-0.102
-0.041,-0.082
-0.031,-0.072
-0.007,-0.072
-0.010,-0.080
0.002,-0.089
0.021,-0.101
0.035,-0.108
0.037,-0.112
0.038,-0.108
0.040,-0.108
0.049,-0.103
0.049,-0.100
0.045,-0.084
0.041,-0.075
0.038,-0.071
0.030,-0.080
0.032,-0.090
0.030,-0.101
0.032,-0.110
0.027,-0.111
0.024,-0.108
-0.003,-0.093
-0.035,-0.076
-0.058,-0.056
-0.044,-0.048
0.017,-0.059
0.099,-0.079
0.153,-0.096
0.102,-0.104
0.045,-0.106
0.014,-0.101
0.021,-0.096
0.026,-0.095
0.030,-0.092
0.022,-0.089
0.017,-0.087
0.008,-0.088
0.006,-0.085
0.001,-0.086
-0.000,-0.087
-0.002,-0.089
0.004,-0.091
-0.002,-0.095
0.005,-0.097
0.015,-0.099
0.035,-0.101
0.051,-0.104
0.066,-0.100
0.073,-0.096
0.069,-0.096
0.051,-0.094
0.042,-0.095
0.033,-0.097
0.032,-0.100
0.028,-0.100
0.025,-0.103
0.023,-0.103
0.025,-0.105
0.042,-0.109
0.060,-0.109
0.062,-0.116
0.042,-0.119
0.022,-0.120
0.008,-0.116
0.007,-0.117
0.018,-0.114
0.030,-0.115
0.033,-0.114
0.035,-0.118
0.027,-0.115
0.021,-0.112
0.023,-0.112
0.023,-0.111
0.027,-0.114
0.023,-0.105
0.017,-0.095
0.010,-0.081
-0.006,-0.073
0.004,-0.070
0.018,-0.078
0.050,-0.084
0.065,-0.086
0.059,-0.089
0.028,-0.085
-0.039,-0.078
-0.110,-0.058
-0.134,-0.030
-0.086,-0.009
-0.015,0.012
0.062,0.040
0.081,0.070
-0.010,0.088
-0.106,0.102
-0.051,0.094
0.107,0.073
0.195,0.037
0.140,0.017
0.058,0.018
0.021,0.035
0.015,0.055
0.024,0.072
0.036,0.090
0.054,0.097
0.065,0.104
0.056,0.103
0.037,0.110
0.016,0.117
0.016,0.131
0.031,0.144
0.120,0.154
0.212,0.161
0.192,0.161
0.099,0.163
0.023,0.166
-0.006,0.170
0.005,0.177
0.030,0.177
0.046,0.174
0.052,0.174
0.052,0.179
0.043,0.180
0.037,0.188
0.028,0.192
0.018,0.193
0.012,0.189
0.014,0.187
0.020,0.192
0.042,0.208
0.053,0.221
0.056,0.234
0.088,0.232
0.130,0.215
0.141,0.192
0.135,0.187
0.123,0.192
0.112,0.210
0.087,0.189
0.066,0.156
0.045,0.222
0.043,0.306
0.067,0.351
0.088,0.334
0.091,0.267
0.084,0.189
0.072,0.140
0.069,0.128
0.064,0.136
0.064,0.150
0.060,0.171
0.063,0.185
0.062,0.199
0.062,0.204
0.070,0.203
0.079,0.193
0.103,0.184
0.135,0.175
0.157,0.170
0.164,0.166
0.141,0.174
0.092,0.180
0.039,0.188
0.003,0.193
-0.006,0.201
0.014,0.204
0.051,0.192
0.071,0.178
0.067,0.165
0.053,0.172
0.006,0.183
-0.039,0.194
-0.017,0.212
0.071,0.212
0.137,0.202
0.131,0.189
0.104,0.181
0.082,0.167
0.079,0.160
0.084,0.155
0.080,0.191
0.063,0.203
0.040,0.212
0.008,0.223
0.003,0.230
0.062,0.228
0.112,0.219
0.093,0.192
0.064,0.150
0.058,0.119
0.073,0.098
0.083,0.094
0.085,0.104
0.085,0.121
0.083,0.138
0.082,0.141
0.082,0.151
0.079,0.157
0.077,0.168
0.072,0.172
0.069,0.172
0.055,0.169
0.050,0.171
0.041,0.168
0.038,0.166
0.033,0.166
0.031,0.161
0.032,0.162
0.039,0.158
0.048,0.157
0.061,0.153
0.073,0.154
0.081,0.153
0.085,0.157
0.080,0.155
0.082,0.142
0.085,0.139
0.092,0.143
0.087,0.151
0.080,0.153
0.069,0.165
0.060,0.179
0.054,0.190
0.052,0.203
0.058,0.195
0.066,0.183
0.074,0.176
0.081,0.196
0.077,0.208
0.073,0.185
0.064,0.142
0.056,0.120
0.054,0.115
0.053,0.124
0.057,0.145
0.060,0.144
0.065,0.130
0.072,0.130
0.074,0.127
0.077,0.131
0.075,0.140
0.080,0.149
0.072,0.145
0.066,0.140
0.056,0.144
0.052,0.144
0.059,0.171
0.070,0.299
0.076,0.369
0.072,0.347
0.063,0.265
0.061,0.160
0.065,0.050
0.056,-0.021
0.038,-0.038
0.013,-0.024
-0.016,0.010
-0.005,0.037
0.050,0.054
0.093,0.061
0.101,0.077
0.084,0.097
0.067,0.113
0.052,0.127
0.042,0.119
0.038,0.093
0.051,0.066
0.074,0.060
0.086,0.067
0.079,0.080
0.065,0.095
0.053,0.091
0.050,0.086
0.047,0.075
0.048,0.075
0.041,0.076
0.041,0.075
0.042,0.079
0.050,0.081
0.059,0.081
0.070,0.081
0.071,0.079
0.068,0.071
0.068,0.063
0.065,0.055
0.062,0.050
0.059,0.041
0.052,0.033
0.049,0.022
0.045,0.019
0.044,0.024
0.049,0.040
0.052,0.071
0.062,0.084
0.065,0.081
0.073,0.075
0.073,0.068
0.073,0.052
0.072,0.050
0.072,0.046
0.072,0.045
0.067,0.050
0.063,0.057
0.063,0.074
0.060,0.087
0.057,0.105
0.053,0.128
0.055,0.149
0.054,0.159
0.058,0.108
0.057,0.056
0.054,-0.009
0.054,-0.055
0.055,-0.064
0.059,-0.048
0.063,-0.024
0.066,-0.006
0.073,0.001
0.072,0.004
0.063,0.007
0.050,0.011
0.024,0.016
0.003,0.024
-0.001,0.030
0.017,0.034
0.040,0.033
0.064,0.031
0.073,0.024
0.074,0.017
0.068,0.015
0.069,0.015
0.069,0.016
0.066,0.016
0.064,0.017
0.063,0.016
0.062,0.015
0.066,0.016
0.070,0.012
0.070,0.017
0.062,0.014
0.053,0.013
0.040,0.011
0.038,0.017
0.041,0.021
0.064,0.022
0.077,0.023
0.072,0.019
0.050,0.020
0.019,0.021
-0.012,0.027
-0.001,0.032
0.044,0.030
0.078,0.028
0.091,0.024
0.086,0.025
0.067,-0.002
0.040,-0.047
0.012,-0.026
-0.015,0.066
0.007,0.141
0.074,0.172
0.102,0.136
0.082,0.046
0.061,-0.039
0.049,-0.083
0.053,-0.083
0.051,-0.045
0.052,0.012
0.051,0.058
0.049,0.074
0.047,0.074
0.053,0.062
0.056,0.054
0.062,0.043
0.057,0.037
0.052,0.039
0.038,0.045
0.031,0.046
0.026,0.052
0.023,0.060
0.026,0.072
0.050,0.089
0.070,0.110
0.073,0.129
0.061,0.143
0.047,0.136
0.031,0.082
0.016,0.000
0.008,-0.063
0.018,-0.061
0.032,0.001
0.044,0.071
0.048,0.111
0.056,0.079
0.071,0.023
0.084,-0.015
0.088,-0.020
0.077,-0.010
0.063,0.009
0.043,0.022
0.042,0.036
0.047,0.042
0.061,0.048
0.060,0.055
0.055,0.058
0.047,0.059
0.047,0.058
0.049,0.062
0.052,0.057
0.050,0.052
0.051,0.051
0.051,0.047
0.048,0.045
0.047,0.040
0.049,0.041
0.046,0.041
0.051,0.040
0.049,0.039
0.053,0.040
0.051,0.044
0.052,0.043
0.050,0.043
0.052,0.043
0.055,0.042
0.057,0.036
0.051,0.040
0.050,0.039
0.051,0.039
0.046,0.039
0.046,0.040
0.047,0.041
0.045,0.037
0.051,0.036
0.050,0.034
0.051,0.032
0.047,0.037
0.051,0.034
0.049,0.035
0.052,0.030
0.054,0.030
0.056,0.031
0.057,0.031
0.052,0.031
0.049,0.030
0.041,0.029
0.041,0.027
0.039,0.025
0.042,0.023
0.045,0.024
0.047,0.022
0.045,0.023
0.049,0.019
0.049,0.015
0.049,0.015
0.049,0.015
0.048,0.013
0.040,0.011
0.033,0.014
0.030,0.012
0.030,0.013
0.037,0.015
0.051,0.015
0.057,0.014
0.065,0.014
0.062,0.010
0.065,0.008
0.062,0.003
0.064,0.002
0.062,0.003
0.061,-0.002
0.058,-0.005
0.054,-0.003
0.050,0.001
0.042,0.000
0.036,0.003
0.036,0.009
0.034,0.007
0.038,0.007
0.039,0.005
0.043,0.003
0.046,0.001
0.049,-0.002
0.049,-0.002
0.049,-0.002
0.050,-0.001
0.049,-0.003
0.049,0.001
0.050,-0.004
0.056,-0.003
0.054,-0.006
0.051,-0.004
0.045,-0.005
0.040,-0.006
0.030,-0.005
0.025,-0.004
0.027,-0.006
0.028,-0.008
0.025,-0.005
0.018,-0.002
0.019,0.000
0.038,0.000
0.058,0.000
0.075,-0.002
0.072,-0.005
0.063,-0.005
0.052,-0.000
0.050,0.002
0.041,0.009
0.040,0.015
0.046,0.017
0.050,0.015
0.056,0.007
0.056,0.007
0.056,0.011
0.049,0.025
0.046,0.034
0.040,0.036
0.037,0.023
0.044,0.007
0.041,-0.019
0.049,-0.026
0.053,-0.025
0.055,-0.021
0.045,-0.011
0.038,-0.007
0.023,-0.001
0.012,0.002
0.016,0.010
0.029,0.011
0.051,0.014
0.062,0.013
0.059,0.012
0.052,0.012
0.049,0.012
0.047,0.013
0.046,0.013
0.048,0.014
0.051,0.018
0.050,0.019
0.049,0.022
0.046,0.023
0.044,0.025
0.041,0.025
0.037,0.024
0.034,0.026
0.031,0.027
0.032,0.029
0.032,0.030
0.029,0.031
0.032,0.029
0.030,0.033
0.032,0.034
0.031,0.036
0.034,0.035
0.037,0.033
0.045,0.034
0.047,0.035
0.048,0.035
0.049,0.037
0.047,0.039
0.043,0.041
0.044,0.043
0.043,0.043
0.043,0.042
0.042,0.042
0.041,0.042
0.040,0.042
0.041,0.039
0.038,0.041
0.037,0.046
0.034,0.044
0.034,0.045
0.036,0.041
0.037,0.044
0.036,0.044
0.040,0.044
0.043,0.046
0.046,0.040
0.047,0.037
0.047,0.038
0.047,0.040
0.037,0.040
0.036,0.046
0.035,0.047
0.046,0.045
0.045,0.045
0.049,0.040
0.048,0.042
0.045,0.037
0.045,0.036
0.046,0.040
0.046,0.037
0.043,0.042
0.044,0.043
0.047,0.045
0.046,0.041
0.046,0.042
0.047,0.045
0.046,0.041
0.043,0.040
0.042,0.040
0.044,0.037
0.042,0.036
0.047,0.035
0.048,0.034
0.049,0.029
0.047,0.032
0.045,0.030
0.045,0.030
0.046,0.029
0.050,0.030
0.050,0.026
0.053,0.022
0.051,0.021
0.045,0.018
0.043,0.022
0.035,0.020
0.023,0.026
0.025,0.025
0.042,0.024
0.061,0.019
0.064,0.013
0.062,0.008
0.057,0.009
0.050,0.010
0.053,0.009
0.047,0.006
0.053,0.007
0.049,0.005
0.050,0.005
0.050,0.006
0.053,0.002
0.055,0.007
0.058,0.001
0.050,0.003
0.042,0.001
0.036,-0.004
0.028,-0.004
0.025,-0.001
0.036,0.004
0.054,0.002
0.059,0.004
0.060,-0.003
0.056,-0.005
0.052,-0.009
0.051,-0.004
0.054,-0.002
0.060,0.001
0.065,0.007
0.054,0.010
0.039,0.019
0.035,0.032
0.037,0.044
0.039,0.050
0.038,0.045
0.040,0.037
0.041,0.001
0.048,-0.034
0.052,-0.061
0.058,-0.064
0.050,-0.052
0.042,-0.033
0.029,-0.016
0.027,-0.008
0.024,-0.004
0.045,-0.006
0.055,-0.005
0.060,-0.009
0.056,-0.008
0.053,-0.009
0.048,-0.007
0.047,-0.006
0.042,-0.002
0.037,-0.002
0.032,-0.007
0.036,-0.007
0.033,-0.006
0.035,-0.004
0.032,0.002
0.033,0.004
0.041,0.008
0.044,0.009
0.048,0.009
0.045,0.007
0.046,0.008
0.046,0.008
0.047,0.007
0.052,0.009
0.059,0.004
0.051,0.002
0.036,-0.001
0.015,0.001
-0.006,0.005
-0.020,0.013
-0.006,0.016
0.043,0.017
0.081,0.017
0.085,0.017
0.075,0.019
0.067,0.015
0.058,0.018
0.054,0.016
0.046,0.022
0.041,0.021
0.036,0.024
0.033,0.023
0.032,0.023
0.030,0.024
0.027,0.023
0.021,0.024
0.022,0.028
0.018,0.031
0.026,0.035
0.039,0.035
0.067,0.036
0.076,0.035
0.073,0.033
0.068,0.038
0.058,0.037
0.057,0.040
0.054,0.040
0.052,0.035
0.045,0.025
0.048,0.026
0.047,0.029
0.053,0.033
0.049,0.040
0.047,0.038
0.041,0.035
0.038,0.029
0.039,0.024
0.042,0.022
0.047,0.019
0.052,0.031
0.055,0.037
0.050,0.051
0.042,0.055
0.036,0.054
0.024,0.050
0.017,0.049
0.027,0.051
0.051,0.049
0.060,0.049
0.063,0.047
0.062,0.044
0.059,0.041
0.057,0.040
0.052,0.043
0.045,0.043
0.037,0.049
0.033,0.050
0.035,0.050
0.043,0.049
0.052,0.048
0.052,0.044
0.051,0.046
0.046,0.048
0.045,0.043
0.035,0.044
0.033,0.040
0.027,0.043
0.021,0.041
0.014,0.043
0.029,0.047
0.048,0.045
0.063,0.044
0.063,0.046
0.058,0.041
0.049,0.040
0.051,0.039
0.048,0.037
0.051,0.033
0.044,0.030
0.047,0.027
0.045,0.030
0.043,0.025
0.048,0.030
0.046,0.030
0.050,0.030
0.051,0.031
0.054,0.030
0.054,0.033
0.054,0.034
0.053,0.032
0.054,0.026
0.049,0.027
0.046,0.023
0.045,0.021
0.050,0.014
0.053,0.011
0.053,0.011
0.052,0.010
0.048,0.008
0.047,0.009
0.048,0.009
0.047,0.007
0.049,0.009
0.050,0.008
0.052,0.009
0.051,0.004
0.053,0.006
0.051,0.003
0.052,0.003
0.049,-0.002
0.047,-0.002
0.040,-0.000
0.037,-0.003
0.037,0.002
0.043,-0.003
0.050,-0.001
0.053,-0.004
0.053,-0.003
0.051,-0.006
0.051,-0.005
0.051,-0.003
0.054,-0.005
0.052,-0.008
0.053,-0.009
0.054,-0.011
0.054,-0.011
0.054,-0.012
0.047,-0.011
0.032,-0.015
0.018,-0.014
0.002,-0.008
-0.002,-0.002
-0.000,0.006
0.027,0.010
0.060,0.013
0.081,0.009
0.075,0.008
0.065,0.006
0.054,0.005
0.047,0.006
0.048,0.015
0.044,0.021
0.042,0.002
0.039,-0.010
0.039,-0.015
0.038,-0.013
0.037,-0.014
0.042,-0.007
0.040,-0.010
0.042,-0.005
0.049,0.000
0.054,0.000
0.045,-0.002
0.032,-0.003
0.010,-0.003
-0.015,0.000
-0.033,0.008
-0.014,0.010
0.034,0.008
0.074,0.010
0.081,0.008
0.077,0.010
0.071,0.009
0.067,0.009
0.060,0.010
0.056,0.013
0.052,0.015
0.049,0.017
0.051,0.021
0.053,0.020
0.052,0.021
0.052,0.020
0.051,0.019
0.047,0.020
0.046,0.029
0.034,0.036
0.029,0.051
0.023,0.049
0.028,0.036
0.029,0.016
0.032,0.008
0.036,0.006
0.041,0.011
0.048,0.019
0.050,0.026
0.049,0.030
0.048,0.032
0.046,0.035
0.047,0.036
0.041,0.036
0.041,0.035
0.041,0.036
0.042,0.034
0.045,0.036
0.046,0.035
0.045,0.036
0.043,0.041
0.043,0.043
0.038,0.042
0.036,0.044
0.039,0.041
0.040,0.039
0.040,0.037
0.039,0.039
0.036,0.036
0.034,0.042
0.034,0.042
0.036,0.047
0.035,0.044
0.041,0.044
0.038,0.044
0.040,0.042
0.041,0.046
0.043,0.045
0.039,0.044
0.042,0.041
0.042,0.041
0.043,0.038
0.044,0.039
0.044,0.042
0.044,0.044
0.044,0.044
0.043,0.043
0.045,0.044
0.046,0.042
0.049,0.042
0.049,0.041
0.046,0.041
0.048,0.041
0.046,0.043
0.043,0.044
0.043,0.043
0.043,0.041
0.042,0.040
0.043,0.039
0.045,0.041
0.044,0.038
0.045,0.039
0.043,0.036
0.048,0.033
0.045,0.031
0.048,0.032
0.043,0.034
0.045,0.034
0.041,0.036
0.045,0.034
0.042,0.033
0.044,0.030
0.046,0.030
0.047,0.027
0.045,0.025
0.049,0.028
0.053,0.028
0.055,0.025
0.060,0.023
0.063,0.022
0.063,0.017
0.063,0.016
0.053,0.009
0.045,0.010
0.031,0.011
0.030,0.015
0.031,0.017
0.049,0.017
0.060,0.020
0.059,0.017
0.049,0.020
0.042,0.016
0.036,0.020
0.040,0.013
0.042,0.015
0.044,0.010
0.046,0.012
0.051,0.008
0.066,0.009
0.069,0.006
0.065,0.004
0.059,0.003
0.057,0.000
0.048,0.004
0.049,0.001
0.046,0.001
0.047,0.002
0.048,0.003
0.047,0.004
0.043,0.001
0.037,0.001
0.032,-0.001
0.029,0.000
0.023,0.000
0.027,-0.001
0.045,-0.002
0.063,-0.007
0.064,-0.007
0.059,-0.012
0.056,-0.012
0.054,-0.015
0.055,-0.015
0.052,-0.014
0.049,-0.013
0.048,-0.003
0.046,-0.003
0.049,0.000
0.048,0.005
0.049,0.003
0.047,0.005
0.041,0.005
0.075,0.015
0.081,0.007
0.082,0.004
0.083,-0.001
0.084,-0.003
0.078,-0.003
0.076,-0.002
0.072,0.002
0.071,-0.000
0.068,0.005
0.031,-0.002
0.029,-0.003
0.030,-0.003
0.034,0.002
0.034,0.013
0.033,0.019
0.033,0.028
0.035,0.021
0.036,0.004
0.034,-0.014
0.037,-0.020
0.040,-0.018
0.041,-0.013
0.036,-0.003
0.027,0.001
0.018,0.007
0.014,0.010
0.019,0.015
0.030,0.020
0.030,0.023
0.023,0.024
0.023,0.029
0.030,0.026
0.050,0.025
0.062,0.018
0.074,0.020
0.070,0.017
0.062,0.019
0.049,0.018
0.046,0.022
0.037,0.023
0.037,0.027
0.031,0.034
0.033,0.033
0.036,0.036
0.042,0.031
0.042,0.034
0.044,0.037
0.043,0.042
0.043,0.042
0.046,0.045
0.045,0.042
0.046,0.044
0.044,0.042
0.041,0.040
0.038,0.036
0.038,0.036
0.040,0.033
0.042,0.029
0.041,0.031
0.042,0.033
0.042,0.037
0.040,0.043
0.039,0.044
0.038,0.047
0.041,0.047
0.044,0.045
0.043,0.043
0.048,0.044
0.046,0.045
0.047,0.043
0.047,0.045
0.049,0.041
0.046,0.039
0.049,0.037
0.050,0.040
0.047,0.041
0.048,0.043
0.045,0.050
0.043,0.050
0.043,0.054
0.047,0.059
0.055,0.061
0.056,0.039
0.056,0.024
0.053,0.021
0.050,0.023
0.043,0.029
0.038,0.035
0.031,0.040
0.027,0.041
0.040,0.043
0.050,0.044
0.054,0.042
0.049,0.047
0.048,0.042
0.047,0.040
0.045,0.030
0.053,0.022
0.052,0.020
0.056,0.024
0.055,0.032
0.059,0.028
0.060,0.033
0.066,0.027
0.061,0.023
0.036,0.020
0.013,0.026
-0.008,0.032
-0.022,0.037
-0.014,0.036
0.033,0.032
0.067,0.027
0.069,0.025
0.059,0.029
0.053,0.029
0.061,0.032
0.067,0.031
0.064,0.030
0.062,0.019
0.058,0.014
0.055,0.009
0.056,0.004
0.056,0.006
0.054,0.010
0.052,0.017
0.053,0.023
0.056,0.024
0.063,0.022
0.058,0.027
0.043,0.027
0.039,0.035
0.034,0.033
0.033,0.024
0.028,0.009
0.039,-0.004
0.052,-0.007
0.065,-0.013
0.061,-0.014
0.053,-0.019
0.045,-0.014
0.045,-0.012
0.045,-0.006
0.045,-0.002
0.046,-0.002
0.046,-0.003
0.048,-0.006
0.046,-0.006
0.049,-0.004
0.048,-0.004
0.048,-0.002
0.049,-0.003
0.051,-0.005
0.051,-0.007
0.057,-0.008
0.056,-0.010
0.053,-0.013
0.048,-0.012
0.044,-0.016
0.035,-0.012
0.036,-0.013
0.032,-0.009
0.040,-0.009
0.046,-0.009
0.050,-0.007
0.054,-0.010
0.059,-0.012
0.062,-0.001
0.067,0.018
0.068,0.030
0.056,0.043
0.033,0.045
0.007,0.032
-0.021,0.019
-0.032,0.003
-0.003,-0.006
0.049,-0.004
0.085,-0.003
0.085,0.000
0.073,0.002
0.064,0.005
0.058,0.007
0.059,0.008
0.056,0.006
0.054,0.013
0.044,0.002
0.043,-0.040
0.029,-0.054
0.024,0.022
0.027,0.092
0.045,0.119
0.056,0.111
0.057,0.081
0.054,0.034
0.057,-0.001
0.057,-0.015
0.049,-0.018
0.042,-0.015
0.034,-0.006
0.037,0.001
0.038,0.009
0.043,0.012
0.042,0.016
0.049,0.016
0.049,0.023
0.051,0.026
0.048,0.029
0.049,0.027
0.046,0.031
0.043,0.033
0.039,0.032
0.039,0.028
0.044,0.030
0.048,0.029
0.046,0.029
0.045,0.025
0.042,0.026
0.038,0.034
0.033,0.036
0.038,0.039
0.052,0.036
0.070,0.035
0.071,0.029
0.062,0.030
0.052,0.034
0.043,0.042
0.039,0.044
0.036,0.041
0.038,0.040
0.043,0.041
0.041,0.047
0.041,0.046
0.038,0.046
0.040,0.048
0.044,0.049
0.046,0.049
0.046,0.046
0.048,0.048
0.047,0.045
0.048,0.043
0.050,0.045
0.048,0.043
0.048,0.046
0.046,0.046
0.044,0.050
0.039,0.051
0.038,0.055
0.036,0.056
0.043,0.056
0.047,0.056
0.050,0.052
0.051,0.054
0.050,0.050
0.047,0.046
0.038,0.037
0.031,0.035
0.028,0.033
0.024,0.033
0.020,0.036
0.021,0.036
0.027,0.035
0.016,0.037
0.013,0.039
0.035,0.039
0.074,0.039
0.078,0.044
0.062,0.042
0.036,0.049
0.030,0.049
0.044,0.047
0.068,0.038
0.086,0.034
0.086,0.031
0.078,0.030
0.067,0.032
0.063,0.033
0.060,0.041
0.049,0.053
0.043,0.064
0.036,0.056
0.032,0.041
0.033,0.036
0.040,0.035
0.044,0.036
0.050,0.020
0.050,0.001
0.052,-0.014
0.051,-0.013
0.050,-0.007
0.046,0.003
0.042,0.007
0.043,0.002
0.043,-0.006
0.048,-0.008
0.051,-0.002
0.057,0.006
0.062,0.011
0.054,0.013
0.049,0.017
0.044,0.014
0.045,0.013
0.047,0.007
0.055,0.004
0.053,-0.003
0.057,-0.003
0.054,-0.001
0.053,-0.003
0.047,0.003
0.047,0.002
0.047,0.003
0.049,0.001
0.050,0.004
0.050,0.001
0.052,0.001
0.048,0.003
0.048,-0.000
0.045,-0.001
0.045,-0.005
0.046,-0.006
0.047,-0.002
0.048,-0.001
0.048,0.004
0.048,0.002
0.047,0.003
0.041,-0.002
0.041,-0.003
0.031,-0.004
0.029,-0.004
0.032,-0.003
0.049,-0.003
0.057,0.000
0.057,-0.000
0.051,0.000
0.048,-0.003
0.046,-0.005
0.047,-0.005
0.047,-0.003
0.043,0.001
0.045,0.001
0.044,0.004
0.045,-0.001
0.048,0.003
0.049,0.001
0.049,0.001
0.050,0.002
0.054,0.001
0.052,-0.003
0.052,-0.006
0.050,-0.006
0.047,-0.003
0.043,-0.003
0.041,0.003
0.040,0.007
0.039,0.015
0.036,0.023
0.041,0.032
0.034,0.038
0.046,0.040
0.056,0.048
0.072,0.039
0.067,0.004
0.055,0.027
0.039,0.095
0.034,0.104
0.031,0.085
0.036,0.056
0.049,0.018
0.052,-0.021
0.053,-0.034
0.042,-0.018
0.033,0.001
0.020,0.013
0.028,0.019
0.035,0.015
0.041,0.012
0.043,0.017
0.039,0.019
0.037,0.022
0.041,0.023
0.049,0.027
0.053,0.026
0.057,0.029
0.062,0.030
0.058,0.026
0.043,0.023
0.030,0.022
0.013,0.024
-0.007,0.033
0.001,0.046
0.030,0.049
0.040,0.059
0.024,0.056
0.022,0.058
0.042,0.047
0.078,0.043
0.087,0.038
0.081,0.034
0.062,0.033
0.052,0.035
0.044,0.041
0.047,0.038
0.045,0.042
0.046,0.042
0.042,0.045
0.038,0.045
0.032,0.049
0.030,0.053
0.030,0.052
0.034,0.052
0.035,0.056
0.031,0.059
0.027,0.065
0.017,0.067
0.009,0.062
0.016,0.053
0.031,0.040
0.042,0.024
0.050,0.023
0.045,0.021
0.047,0.024
0.046,0.031
0.047,0.036
0.045,0.040
0.047,0.039
0.051,0.039
0.052,0.030
0.048,0.023
0.046,0.022
0.046,0.026
0.049,0.036
0.049,0.038
0.057,0.044
0.056,0.045
0.060,0.044
0.056,0.046
0.054,0.041
0.046,0.041
0.042,0.039
0.035,0.039
0.037,0.034
0.045,0.032
0.049,0.030
0.052,0.029
0.052,0.031
0.048,0.032
0.043,0.030
0.042,0.027
0.041,0.027
0.040,0.025
0.046,0.024
0.045,0.023
0.051,0.019
0.051,0.017
0.055,0.013
0.054,0.010
0.056,0.010
0.056,0.006
0.063,0.007
0.063,0.006
0.066,0.004
0.061,0.008
0.057,0.008
0.040,0.012
0.028,0.016
0.019,0.017
0.033,0.013
0.052,0.009
0.063,0.002
0.065,-0.001
0.065,-0.000
0.068,-0.001
0.067,0.002
0.050,0.008
0.037,0.015
0.015,0.009
-0.007,-0.010
-0.001,-0.017
0.039,-0.026
0.061,-0.025
0.055,-0.024
0.047,-0.013
0.046,-0.009
0.049,0.000
0.058,0.007
0.069,0.008
0.073,0.008
0.068,0.002
0.057,0.000
0.047,-0.002
0.048,-0.002
0.049,-0.002
0.052,-0.005
0.052,-0.003
0.050,-0.008
0.048,-0.005
0.046,-0.009
0.045,-0.007
0.040,-0.010
0.041,-0.010
0.041,-0.006
0.052,-0.009
0.054,-0.002
0.060,-0.002
0.054,0.003
0.049,0.004
0.042,0.008
0.038,0.008
0.035,0.005
0.043,0.004
0.049,0.000
0.051,-0.001
0.050,-0.001
0.053,0.001
0.049,0.000
0.045,0.003
0.032,0.012
0.031,0.018
0.034,0.024
0.045,0.023
0.045,0.019
0.045,0.007
0.046,0.004
0.046,0.002
0.041,0.003
0.043,0.006
0.044,0.008
0.045,0.010
0.047,0.009
0.047,0.013
0.042,0.010
0.045,0.014
0.041,0.015
0.043,0.019
0.041,0.018
0.044,0.021
0.043,0.025
0.043,0.037
0.043,0.042
0.049,0.048
0.059,0.042
0.064,0.027
0.056,0.016
0.052,0.011
0.046,0.019
0.045,0.028
0.041,0.043
0.038,0.046
0.030,0.045
0.023,0.032
0.016,0.021
0.006,0.008
-0.007,0.010
-0.023,0.021
-0.002,0.031
0.040,0.035
0.077,0.039
0.082,0.039
0.080,0.040
0.067,0.041
0.056,0.040
0.042,0.034
0.030,0.032
0.017,0.035
0.011,0.037
0.010,0.039
0.035,0.041
0.059,0.045
0.076,0.043
0.073,0.043
0.066,0.043
0.050,0.044
0.042,0.041
0.039,0.041
0.039,0.039
0.044,0.042
0.044,0.044
0.044,0.043
0.044,0.047
0.042,0.046
0.047,0.049
0.044,0.046
0.047,0.046
0.047,0.047
0.050,0.045
0.047,0.047
0.050,0.049
0.047,0.049
0.037,0.049
0.034,0.045
0.035,0.040
0.034,0.041
0.032,0.042
0.037,0.045
0.052,0.048
0.064,0.046
0.069,0.047
0.065,0.046
0.058,0.051
0.058,0.052
0.060,0.028
0.067,0.014
0.069,0.008
0.069,0.010
0.062,0.015
0.054,0.032
0.040,0.043
0.035,0.046
0.028,0.041
0.031,0.036
0.041,0.031
0.046,0.023
0.049,0.024
0.050,0.023
0.050,0.022
0.050,0.024
0.048,0.021
0.045,0.023
0.047,0.023
0.047,0.025
0.045,0.025
0.045,0.027
0.045,0.022
0.048,0.019
0.047,0.014
0.047,0.014
0.046,0.008
0.052,0.006
0.051,0.006
0.057,0.008
0.057,0.006
0.064,0.003
0.070,-0.003
0.065,-0.008
0.043,-0.009
0.015,-0.005
-0.011,0.004
-0.030,0.014
-0.016,0.022
0.035,0.026
0.088,0.026
0.106,0.025
0.091,0.030
0.062,0.034
0.041,0.029
0.034,0.021
0.043,0.009
0.059,-0.017
0.071,-0.033
0.068,-0.042
0.061,-0.038
0.050,-0.031
0.047,-0.018
0.042,-0.011
0.043,-0.006
0.038,-0.001
0.037,-0.002
0.037,-0.002
0.042,-0.003
0.045,-0.003
0.044,-0.005
0.047,-0.005
0.046,-0.005
0.046,-0.006
0.047,-0.003
0.043,-0.005
0.044,-0.002
0.044,-0.003
0.042,-0.003
0.039,0.001
0.040,-0.001
0.042,0.001
0.045,-0.001
0.049,0.000
0.054,-0.003
0.057,-0.005
0.056,-0.003
0.053,-0.003
0.046,-0.001
0.043,-0.002
0.041,0.006
0.040,0.002
0.044,0.007
0.042,0.001
0.046,0.002
0.040,0.003
0.048,0.002
0.045,0.006
0.047,0.007
0.044,0.013
0.048,0.017
0.047,0.019
0.044,0.016
0.043,0.016
0.042,0.017
0.043,0.017
0.041,0.020
0.040,0.020
0.039,0.020
0.039,0.024
0.037,0.024
0.039,0.026
0.039,0.025
0.041,0.026
0.042,0.023
0.041,0.022
0.045,0.025
0.043,0.026
0.044,0.026
0.044,0.027
0.044,0.029
0.050,0.028
0.049,0.026
0.049,0.030
0.047,0.028
0.046,0.035
0.045,0.038
0.043,0.043
0.039,0.046
0.042,0.049
0.039,0.048
0.030,0.048
0.019,0.045
0.021,0.040
0.029,0.037
0.036,0.032
0.036,0.031
0.033,0.028
0.030,0.032
0.036,0.036
0.048,0.041
0.058,0.047
0.065,0.047
0.061,0.048
0.055,0.048
0.051,0.046
0.049,0.043
0.050,0.043
0.051,0.044
0.049,0.040
0.048,0.042
0.047,0.042
0.052,0.041
0.050,0.040
0.051,0.036
0.050,0.039
0.054,0.036
0.048,0.041
0.028,0.043
-0.005,0.050
-0.028,0.054
-0.032,0.055
-0.015,0.056
0.026,0.052
0.080,0.047
0.101,0.042
0.099,0.043
0.085,0.042
0.078,0.041
0.069,0.037
0.067,0.037
0.062,0.037
0.059,0.039
0.054,0.043
0.052,0.043
0.048,0.046
0.046,0.044
0.049,0.043
0.046,0.045
0.050,0.046
0.043,0.049
0.043,0.042
0.045,0.036
0.045,0.029
0.051,0.028
0.054,0.023
0.057,0.024
0.058,0.025
0.061,0.026
0.062,0.024
0.065,0.019
0.061,0.023
0.051,0.017
0.044,0.021
0.040,0.025
0.031,0.036
0.009,0.045
-0.003,0.051
-0.000,0.039
0.025,0.026
0.048,0.010
0.063,-0.002
0.059,-0.003
0.060,-0.005
0.052,0.002
0.053,0.005
0.050,0.006
0.053,0.006
0.052,0.003
0.050,0.003
0.051,0.003
0.051,0.004
0.050,0.002
0.049,0.005
0.047,0.006
0.049,0.002
0.044,0.002
0.047,0.002
0.047,0.003
0.049,0.003
0.045,0.002
0.046,0.001
0.046,0.003
0.046,0.001
0.049,-0.002
0.050,-0.003
0.049,-0.005
0.047,0.000
0.046,-0.003
0.045,0.000
0.043,-0.001
0.050,-0.002
0.048,-0.003
0.052,-0.004
0.050,-0.001
0.051,-0.001
0.046,0.002
0.048,-0.003
0.049,-0.003
0.048,-0.005
0.048,-0.003
0.048,-0.003
0.047,-0.002
0.045,0.000
0.047,0.003
0.043,0.002
0.042,-0.000
0.043,0.002
0.044,0.001
0.044,0.001
0.046,0.006
0.046,0.003
0.053,0.003
0.053,0.003
0.053,0.004
0.046,0.001
0.041,0.002
0.026,0.005
0.020,0.007
0.023,0.010
0.036,0.013
0.041,0.012
0.040,0.013
0.041,0.016
0.049,0.013
0.054,0.013
0.057,0.014
0.057,0.013
0.056,0.015
0.051,0.015
0.051,0.020
0.049,0.018
0.050,0.020
0.047,0.018
0.046,0.020
0.039,0.019
0.030,0.021
0.027,0.024
0.020,0.026
0.020,0.029
0.033,0.032
0.048,0.032
0.055,0.033
0.048,0.036
0.042,0.035
0.040,0.034
0.042,0.035
0.048,0.033
0.047,0.032
0.046,0.031
0.041,0.030
0.036,0.033
0.038,0.035
0.038,0.038
0.039,0.046
0.037,0.050
0.031,0.055
0.025,0.051
0.021,0.050
0.013,0.046
0.012,0.040
0.011,0.038
0.024,0.036
0.037,0.038
0.049,0.039
0.053,0.043
0.055,0.041
0.052,0.042
0.046,0.040
0.046,0.042
0.041,0.046
0.045,0.048
0.043,0.049
0.044,0.045
0.040,0.048
0.041,0.044
0.042,0.047
0.041,0.045
0.039,0.047
0.039,0.050
0.037,0.048
0.039,0.049
0.036,0.047
0.040,0.047
0.042,0.046
0.042,0.043
0.044,0.048
0.042,0.046
0.041,0.049
0.043,0.051
0.046,0.049
0.045,0.047
0.048,0.045
0.048,0.046
0.051,0.041
0.049,0.042
0.049,0.040
0.049,0.041
0.046,0.039
0.047,0.042
0.037,0.039
0.035,0.039
0.037,0.046
0.043,0.043
0.042,0.040
0.044,0.036
0.042,0.029
0.040,0.030
0.042,0.031
0.044,0.031
0.045,0.033
0.047,0.035
0.047,0.036
0.050,0.036
0.049,0.034
0.050,0.033
0.047,0.032
0.046,0.030
0.041,0.032
0.040,0.030
0.041,0.031
0.040,0.027
0.041,0.026
0.041,0.023
0.042,0.023
0.041,0.021
0.043,0.019
0.040,0.017
0.044,0.017
0.044,0.015
0.049,0.012
0.047,0.009
0.052,0.010
0.051,0.010
0.052,0.009
0.050,0.013
0.051,0.011
0.049,0.010
0.049,0.009
0.049,0.009
0.050,0.003
0.048,0.007
0.048,0.005
0.049,0.003
0.048,0.005
0.049,0.002
0.051,0.001
0.051,0.001
0.054,0.001
0.054,0.001
0.055,-0.001
0.051,0.000
0.049,-0.002
0.050,-0.004
0.049,-0.006
0.049,-0.010
0.050,-0.012
0.046,-0.015
0.041,-0.010
0.037,-0.009
0.032,-0.001
0.028,-0.001
0.030,0.004
0.030,0.006
0.038,0.006
0.042,0.010
0.049,0.008
0.048,0.004
0.047,-0.002
0.043,-0.001
0.040,-0.005
0.036,0.000
0.038,0.000
0.037,0.001
0.038,0.005
0.043,0.007
0.044,0.007
0.049,0.005
0.050,0.006
0.050,0.006
0.049,0.006
0.048,0.006
0.044,0.007
0.041,0.007
0.038,0.008
0.039,0.009
0.038,0.006
0.046,0.009
0.047,0.009
0.049,0.007
0.047,0.010
0.046,0.012
0.042,0.015
0.036,0.015
0.034,0.013
0.028,0.013
0.026,0.014
0.030,0.017
0.031,0.021
0.038,0.021
0.046,0.019
0.050,0.019
0.049,0.016
0.049,0.017
0.046,0.019
0.044,0.020
0.040,0.023
0.043,0.024
0.042,0.024
0.041,0.030
0.040,0.029
0.037,0.030
0.040,0.030
0.037,0.029
0.039,0.030
0.039,0.031
0.042,0.033
0.039,0.033
0.041,0.033
0.042,0.033
0.040,0.037
0.041,0.036
0.041,0.037
0.041,0.034
0.047,0.037
0.044,0.037
0.044,0.038
0.043,0.042
0.042,0.043
0.040,0.045
0.039,0.044
0.037,0.045
0.034,0.042
0.036,0.043
0.038,0.045
0.041,0.040
0.041,0.045
0.043,0.041
0.045,0.047
0.046,0.045
0.046,0.050
0.045,0.046
0.046,0.047
0.045,0.045
0.045,0.045
0.043,0.047
0.044,0.044
0.044,0.044
0.044,0.040
0.042,0.041
0.043,0.045
0.042,0.045
0.042,0.047
0.038,0.047
0.039,0.047
0.039,0.045
0.040,0.045
0.042,0.045
0.043,0.044
0.043,0.046
0.045,0.046
0.043,0.044
0.041,0.041
0.048,0.040
0.045,0.038
0.048,0.037
0.044,0.038
0.045,0.034
0.043,0.037
0.043,0.036
0.044,0.038
0.046,0.035
0.047,0.035
0.049,0.034
0.049,0.034
0.048,0.037
0.047,0.035
0.045,0.034
0.047,0.028
0.049,0.030
0.047,0.028
0.051,0.027
0.046,0.025
0.046,0.026
0.048,0.027
0.051,0.025
0.049,0.026
0.053,0.023
0.049,0.024
0.050,0.019
0.049,0.021
0.053,0.013
0.052,0.016
0.048,0.013
0.048,0.015
0.043,0.011
0.045,0.012
0.040,0.011
0.042,0.011
0.040,0.013
0.043,0.012
0.042,0.014
0.046,0.009
0.048,0.007
0.053,0.003
0.055,0.004
0.053,0.001
0.054,0.001
0.052,0.005
0.051,0.003
0.048,0.004
0.048,0.001
0.049,0.004
0.049,0.002
0.049,0.003
0.050,0.003
0.050,0.002
0.047,-0.002
0.047,-0.003
0.048,-0.005
0.048,-0.007
0.049,-0.008
0.046,-0.004
0.041,-0.004
0.037,-0.001
0.035,0.001
0.036,0.002
0.038,-0.001
0.043,0.002
0.043,-0.003
0.049,-0.001
0.050,-0.002
0.052,-0.002
0.047,0.000
0.054,-0.003
0.048,-0.002
0.048,-0.004
0.048,0.000
0.046,-0.001
0.044,0.001
0.042,0.004
0.044,0.004
0.042,0.003
0.045,0.003
0.046,0.005
0.046,0.003
0.046,0.005
0.047,0.006
0.046,0.007
0.045,0.009
0.045,0.007
0.048,0.007
0.045,0.007
0.048,0.009
0.044,0.010
0.044,0.007
0.040,0.011
0.039,0.012
0.037,0.013
0.040,0.014
0.042,0.014
0.045,0.014
0.045,0.014
0.043,0.016
0.043,0.016
0.042,0.017
0.044,0.018
0.044,0.021
0.043,0.020
0.041,0.019
0.038,0.020
0.039,0.023
0.038,0.024
0.041,0.026
0.041,0.026
0.041,0.029
0.042,0.027
0.043,0.030
0.044,0.028
0.045,0.032
0.044,0.030
0.049,0.033
0.046,0.029
0.045,0.032
0.044,0.033
0.044,0.033
0.040,0.040
0.040,0.037
0.039,0.039
0.039,0.037
0.043,0.041
0.046,0.037
0.048,0.039
0.046,0.042
0.049,0.041
0.045,0.043
0.045,0.038
0.046,0.041
0.049,0.036
0.049,0.041
0.048,0.041
0.047,0.043
0.045,0.045
0.044,0.045
0.042,0.047
0.041,0.044
0.044,0.045
0.043,0.047
0.041,0.045
0.042,0.048
0.043,0.045
0.041,0.047
0.041,0.043
0.046,0.044
0.042,0.044
0.043,0.042
0.044,0.044
0.045,0.044
0.044,0.048
0.045,0.048
0.043,0.050
0.045,0.047
0.045,0.045
0.044,0.045
0.045,0.045
0.044,0.047
0.045,0.043
0.043,0.044
0.043,0.043
0.046,0.041
0.044,0.039
0.048,0.039
0.045,0.043
0.047,0.042
0.042,0.043
0.046,0.038
0.046,0.040
0.044,0.036
0.047,0.040
0.043,0.037
0.046,0.040
0.042,0.039
0.042,0.037
0.044,0.036
0.043,0.033
0.043,0.032
0.043,0.032
0.041,0.032
0.040,0.035
0.040,0.031
0.038,0.031
0.040,0.030
0.039,0.032
0.036,0.027
0.039,0.027
0.039,0.025
0.046,0.023
0.046,0.020
0.047,0.018
0.049,0.016
0.049,0.015
0.049,0.014
0.047,0.013
0.046,0.012
0.047,0.013
0.043,0.015
0.045,0.017
0.043,0.016
0.044,0.013
0.045,0.011
0.046,0.011
0.048,0.010
0.047,0.008
0.045,0.009
0.044,0.012
0.043,0.011
0.045,0.008
0.042,0.007
0.046,0.006
0.046,0.003
0.046,0.001
0.048,0.007
0.048,0.002
0.047,0.006
0.047,0.002
0.051,0.002
0.046,-0.002
0.046,-0.002
0.040,-0.001
0.039,-0.002
0.037,-0.001
0.037,-0.001
0.038,-0.001
0.038,-0.003
0.039,-0.002
0.038,-0.001
0.040,-0.003
0.039,0.002
0.042,-0.003
0.043,-0.004
0.046,-0.004
0.049,-0.002
0.046,-0.005
0.047,-0.004
0.042,-0.004
0.043,-0.003
0.041,-0.002
0.045,-0.001
0.043,0.002
0.046,0.002
0.043,0.001
0.046,0.002
0.046,0.002
0.045,0.006
0.042,0.002
0.039,0.007
0.041,0.006
0.044,0.007
0.046,0.006
0.046,0.007
0.045,0.010
0.042,0.010
0.044,0.011
0.045,0.013
0.046,0.011
0.043,0.014
0.045,0.012
0.044,0.016
0.044,0.014
0.041,0.016
0.041,0.015
0.039,0.019
0.040,0.018
0.042,0.017
0.042,0.017
0.042,0.020
0.039,0.021
0.041,0.021
0.041,0.022
0.043,0.024
0.042,0.025
0.041,0.026
0.041,0.027
0.041,0.027
0.041,0.029
0.043,0.026
0.045,0.031
0.041,0.030
0.041,0.033
0.039,0.035
0.037,0.037
0.035,0.035
0.037,0.036
0.035,0.033
0.041,0.037
0.039,0.036
0.044,0.035
0.040,0.039
0.041,0.039
0.038,0.044
0.039,0.041
0.042,0.042
0.041,0.042
0.043,0.042
0.041,0.042
0.045,0.044
0.041,0.045
0.041,0.045
0.038,0.047
0.040,0.045
0.044,0.048
0.042,0.048
0.041,0.044
0.040,0.046
0.043,0.044
0.041,0.043
0.042,0.041
0.043,0.042
0.044,0.044
0.044,0.046
0.043,0.049
0.043,0.051
0.038,0.055
0.039,0.056
0.036,0.055
0.039,0.052
0.043,0.051
0.042,0.052
0.040,0.049
0.041,0.052
0.043,0.050
0.042,0.053
0.043,0.050
0.046,0.047
0.043,0.047
0.045,0.046
0.043,0.047
0.043,0.045
0.041,0.049
0.045,0.045
0.042,0.045
0.042,0.041
0.042,0.043
0.043,0.043
0.042,0.039
0.037,0.040
0.041,0.039
0.041,0.036
0.044,0.035
0.044,0.033
0.043,0.033
0.041,0.035
0.043,0.036
0.042,0.034
0.041,0.032
0.043,0.033
0.047,0.031
0.047,0.029
0.051,0.028
0.052,0.025
0.053,0.025
0.049,0.024
0.052,0.024
0.048,0.021
0.049,0.019
0.049,0.019
0.047,0.018
0.046,0.020
0.047,0.017
0.044,0.017
0.043,0.014
0.041,0.016
0.042,0.016
0.043,0.017
0.043,0.011
0.044,0.013
0.043,0.013
0.043,0.010
0.044,0.013
0.048,0.008
0.046,0.009
0.046,0.005
0.048,0.009
0.048,0.005
0.047,0.006
0.042,0.009
0.047,0.006
0.043,0.007
0.045,0.004
0.045,0.006
0.047,0.003
0.045,0.005
0.047,0.000
0.043,-0.002
0.042,-0.000
0.043,-0.000
0.041,0.001
0.040,-0.001
0.045,0.001
0.045,0.000
0.045,-0.000
0.043,0.002
0.043,0.001
0.045,0.002
0.042,-0.000
0.045,0.002
0.043,-0.000
0.046,0.000
0.044,0.002
0.041,0.003
0.040,0.003
0.039,0.002
0.043,0.004
0.042,0.004
0.042,0.004
0.042,0.009
0.044,0.006
0.041,0.009
0.042,0.006
0.044,0.006
0.041,0.006
0.045,0.008
0.042,0.006
0.046,0.009
0.043,0.010
0.045,0.008
0.040,0.012
0.042,0.010
0.044,0.014
0.042,0.011
0.043,0.015
0.045,0.016
0.044,0.017
0.041,0.020
0.042,0.018
0.039,0.017
0.040,0.016
0.039,0.015
0.039,0.015
0.040,0.017
0.039,0.019
0.038,0.020
0.038,0.018
0.039,0.019
0.041,0.020
0.039,0.022
0.040,0.024
0.040,0.027
0.042,0.029
0.038,0.032
0.037,0.036
0.039,0.034
0.039,0.035
0.038,0.032
0.039,0.034
0.038,0.031
0.041,0.037
0.041,0.031
0.043,0.035
0.039,0.033
0.043,0.037
0.039,0.037
0.038,0.041
0.038,0.042
0.038,0.042
0.040,0.042
0.043,0.041
0.043,0.039
0.045,0.039
0.042,0.039
0.040,0.042
0.041,0.041
0.041,0.043
0.039,0.041
0.041,0.041
0.039,0.042
0.044,0.043
0.040,0.046
0.040,0.044
0.040,0.050
0.042,0.046
0.040,0.046
0.038,0.043
0.041,0.048
0.043,0.045
0.043,0.044
0.037,0.049
0.040,0.045
0.037,0.048
0.037,0.047
0.039,0.050
0.040,0.050
0.043,0.050
0.043,0.051
0.042,0.051
0.042,0.054
0.039,0.047
0.042,0.049
0.040,0.045
0.044,0.045
0.041,0.046
0.043,0.046
0.039,0.045
0.042,0.044
0.043,0.042
0.043,0.041
0.042,0.042
0.044,0.042
0.043,0.041
0.042,0.043
0.040,0.039
0.040,0.040
0.038,0.038
0.043,0.038
0.043,0.037
0.046,0.033
0.044,0.036
0.045,0.032
0.043,0.033
0.041,0.030
0.046,0.032
0.041,0.027
0.046,0.027
0.043,0.025
0.047,0.025
0.044,0.025
0.045,0.023
0.045,0.023
0.045,0.022
0.044,0.019
0.049,0.017
0.047,0.018
0.050,0.014
0.047,0.013
0.047,0.012
0.042,0.013
0.042,0.012
0.046,0.010
0.044,0.010
0.048,0.010
0.045,0.010
0.045,0.007
0.045,0.008
0.046,0.005
0.046,0.009
0.045,0.002
0.047,0.006
0.046,0.002
0.050,0.005
0.047,0.005
0.049,0.005
0.045,0.005
0.049,0.006
0.044,0.006
0.046,0.004
0.048,0.004
0.049,0.002
0.050,0.003
0.049,0.005
0.050,-0.001
0.050,-0.001
0.047,-0.003
0.049,-0.003
0.047,-0.002
0.051,-0.003
0.047,0.002
0.047,-0.003
0.046,0.001
0.048,0.001
0.048,0.002
0.047,0.000
0.052,0.001
0.049,-0.002
0.045,-0.004
0.043,0.001
0.044,0.002
0.043,0.004
0.046,0.001
0.048,0.000
0.045,0.001
0.045,0.001
0.046,0.006
0.044,0.004
0.042,0.007
0.042,0.006
0.045,0.006
0.044,0.006
0.048,0.005
0.044,0.008
0.047,0.007
0.044,0.013
0.047,0.009
0.045,0.013
0.045,0.009
0.047,0.010
0.043,0.008
0.048,0.010
0.045,0.010
0.044,0.014
0.042,0.016
0.043,0.018
0.043,0.018
0.044,0.016
0.045,0.018
0.043,0.021
0.041,0.021
0.041,0.024
0.042,0.022
0.039,0.024
0.039,0.024
0.040,0.024
0.041,0.023
0.039,0.029
0.043,0.026
0.040,0.030
0.042,0.030
0.042,0.035
0.042,0.034
0.042,0.033
0.041,0.032
0.043,0.031
0.043,0.033
0.044,0.031
0.042,0.032
0.042,0.034
0.044,0.036
0.041,0.034
0.043,0.042
0.042,0.041
0.043,0.043
0.039,0.042
0.042,0.041
0.041,0.040
0.043,0.042
0.041,0.041
0.042,0.039
0.039,0.043
0.042,0.041
0.040,0.045
0.042,0.042
0.045,0.046
0.042,0.047
0.041,0.047
0.041,0.047
0.039,0.048
0.041,0.049
0.041,0.046
0.045,0.047
0.042,0.046
0.047,0.046
0.045,0.043
0.046,0.045
0.042,0.045
0.041,0.047
0.039,0.048
0.038,0.046
0.043,0.049
0.043,0.049
0.043,0.047
0.045,0.053
0.041,0.051
0.044,0.053
0.043,0.049
0.049,0.048
0.044,0.046
0.047,0.047
0.046,0.049
0.047,0.047
0.044,0.049
0.044,0.047
0.041,0.045
0.043,0.041
0.042,0.043
0.045,0.040
0.044,0.041
0.043,0.041
0.044,0.042
0.045,0.039
0.044,0.038
0.045,0.039
0.043,0.038
0.046,0.036
0.043,0.037
0.044,0.036
0.042,0.036
0.041,0.034
0.043,0.034
0.045,0.032
0.043,0.033
0.045,0.029
0.045,0.029
0.044,0.027
0.045,0.026
0.044,0.027
0.044,0.026
0.040,0.024
0.039,0.024
0.036,0.019
0.040,0.018
0.044,0.016
0.051,0.015
0.055,0.015
0.058,0.011
0.056,0.013
0.054,0.012
0.050,0.012
0.047,0.014
0.045,0.012
0.042,0.013
0.043,0.011
0.041,0.010
0.045,0.007
0.048,0.010
0.048,0.008
0.052,0.007
0.050,0.005
0.047,0.007
0.046,0.008
0.046,0.008
0.047,0.006
0.049,0.005
0.049,0.002
0.050,0.007
0.050,0.003
0.049,0.004
0.048,-0.001
0.050,0.001
0.048,-0.003
0.051,-0.002
0.049,-0.007
0.052,-0.004
0.054,-0.003
0.060,-0.002
0.055,0.000
0.058,-0.002
0.040,0.000
0.024,-0.003
-0.025,-0.003
-0.064,-0.003
-0.070,-0.003
-0.043,0.001
0.003,-0.002
0.038,-0.000
0.069,-0.003
0.084,-0.003
0.093,-0.001
0.101,0.000
0.101,0.005
0.103,0.005
0.101,0.007
0.100,0.003
0.097,0.005
0.090,0.003
0.079,0.004
0.067,0.007
0.049,0.006
0.032,0.007
-0.004,0.009
-0.037,0.010
-0.048,0.007
-0.042,0.010
-0.019,0.009
0.008,0.011
0.035,0.011
0.055,0.014
0.071,0.014
0.080,0.014
0.087,0.015
0.090,0.017
0.092,0.019
0.093,0.022
0.087,0.020
0.087,0.023
0.083,0.019
0.079,0.024
0.073,0.022
0.067,0.023
0.062,0.024
0.055,0.026
0.050,0.027
0.049,0.026
0.044,0.028
0.049,0.029
0.041,0.030
0.043,0.032
0.040,0.032
0.042,0.031
0.041,0.033
0.045,0.034
0.044,0.035
0.049,0.034
0.045,0.037
0.048,0.037
0.043,0.039
0.042,0.040
0.041,0.040
0.040,0.039
0.043,0.042
0.043,0.042
0.041,0.039
0.039,0.045
0.039,0.041
0.037,0.044
0.037,0.042
0.041,0.043
0.042,0.039
0.044,0.042
0.042,0.047
0.044,0.046
0.038,0.048
0.039,0.049
0.041,0.049
0.041,0.045
0.041,0.047
0.044,0.047
0.042,0.047
0.044,0.046
0.041,0.047
0.039,0.048
0.039,0.045
0.041,0.045
0.040,0.046
0.040,0.046
0.039,0.051
0.041,0.047
0.039,0.049
0.044,0.047
0.064,0.050
0.074,0.045
0.079,0.048
0.070,0.049
0.061,0.050
0.049,0.051
0.042,0.048
0.035,0.047
0.027,0.040
0.023,0.043
0.022,0.040
0.025,0.040
0.027,0.043
0.030,0.043
0.032,0.045
0.034,0.041
0.036,0.042
0.036,0.038
0.042,0.038
0.040,0.038
0.043,0.037
0.037,0.038
0.039,0.038
0.037,0.036
0.039,0.032
0.041,0.031
0.042,0.032
0.040,0.032
0.041,0.035
0.040,0.032
0.041,0.031
0.044,0.030
0.043,0.026
0.043,0.027
0.046,0.025
0.042,0.022
0.047,0.019
0.043,0.015
0.045,0.012
0.044,0.010
0.045,0.012
0.042,0.013
0.041,0.007
0.039,0.009
0.041,0.001
0.040,0.001
0.038,-0.001
0.041,0.003
0.041,0.003
0.046,0.008
0.046,0.008
0.052,0.010
0.053,0.010
0.052,0.008
0.047,0.011
0.046,0.009
0.038,0.009
0.028,0.006
0.017,0.007
0.004,0.005
-0.029,0.006
-0.036,0.006
-0.036,0.004
-0.042,0.000
-0.060,0.000
-0.068,-0.001
-0.066,-0.003
-0.040,-0.002
-0.001,-0.002
0.046,-0.003
0.081,-0.002
0.110,0.000
0.124,-0.001
0.135,0.001
0.140,0.001
0.119,0.002
0.107,0.000
0.091,0.003
0.078,-0.002
0.064,-0.002
0.055,-0.002
0.048,0.002
0.041,-0.002
0.046,0.002
0.059,0.002
0.077,0.002
0.085,0.003
0.094,0.004
0.107,0.003
0.112,0.002
0.118,0.003
0.117,0.008
0.104,0.005
0.086,0.008
0.072,0.007
0.067,0.010
0.060,0.009
0.060,0.009
0.048,0.012
0.036,0.011
0.019,0.015
0.004,0.012
-0.001,0.017
-0.003,0.012
0.002,0.014
0.016,0.015
0.033,0.016
0.050,0.017
0.071,0.017
0.087,0.017
0.098,0.016
0.094,0.019
0.088,0.019
0.077,0.020
0.063,0.017
0.047,0.021
0.029,0.021
0.009,0.024
0.003,0.025
0.006,0.027
0.011,0.029
0.018,0.029
0.024,0.029
0.024,0.032
0.029,0.032
0.030,0.034
0.030,0.036
0.032,0.035
0.030,0.037
0.027,0.035
0.026,0.038
0.029,0.037
0.034,0.038
0.037,0.037
0.041,0.039
0.042,0.039
0.040,0.041
0.038,0.043
0.037,0.044
0.034,0.043
0.033,0.042
0.032,0.042
0.035,0.041
0.032,0.041
0.035,0.041
0.032,0.042
0.034,0.047
0.033,0.045
0.036,0.045
0.033,0.044
0.039,0.046
0.036,0.046
0.039,0.046
0.035,0.051
0.038,0.047
0.036,0.049
0.036,0.045
0.038,0.048
0.037,0.045
0.039,0.048
0.036,0.049
0.038,0.049
0.037,0.050
0.037,0.050
0.036,0.049
0.037,0.046
0.039,0.049
0.038,0.049
0.039,0.048
0.037,0.052
0.036,0.049
0.037,0.050
0.036,0.048
0.039,0.047
0.036,0.045
0.038,0.045
0.037,0.045
0.038,0.044
0.035,0.045
0.038,0.042
0.039,0.047
0.042,0.044
0.045,0.044
0.044,0.043
0.044,0.042
0.042,0.043
0.043,0.042
0.039,0.039
0.038,0.037
0.042,0.037
0.038,0.033
0.039,0.033
0.041,0.035
0.042,0.034
0.041,0.034
0.042,0.034
0.041,0.033
0.040,0.030
0.040,0.028
0.041,0.027
0.042,0.026
0.041,0.021
0.042,0.022
0.043,0.019
0.043,0.018
0.042,0.020
0.042,0.016
0.042,0.021
0.043,0.015
0.043,0.022
0.044,0.013
0.040,0.015
0.043,0.012
0.042,0.014
0.042,0.010
0.043,0.010
0.042,0.006
0.046,0.007
0.044,0.007
0.044,0.006
0.042,0.006
0.045,0.007
0.044,0.006
0.043,0.003
0.042,0.004
0.043,0.005
0.045,0.004
0.049,0.009
0.051,0.004
0.055,0.004
0.056,0.001
0.062,-0.001
0.057,-0.002
0.060,-0.003
0.057,0.001
0.054,-0.003
0.057,-0.000
0.065,0.001
0.073,0.003
0.079,0.000
0.091,-0.002
0.094,0.001
0.091,0.000
0.068,0.002
0.043,0.001
0.016,0.000
-0.002,-0.002
-0.007,-0.003
-0.001,-0.001
0.009,0.000
0.018,0.004
0.025,0.002
0.033,0.003
0.033,0.001
0.040,0.002
0.038,0.002
0.038,0.003
0.037,0.006
0.038,0.005
0.033,0.005
0.036,0.005
0.038,0.006
0.039,0.007
0.044,0.008
0.046,0.010
0.048,0.011
0.045,0.014
0.048,0.011
0.047,0.013
0.047,0.010
0.045,0.011
0.039,0.012
0.034,0.015
0.028,0.016
0.028,0.014
0.027,0.016
0.029,0.014
0.033,0.016
0.038,0.013
0.042,0.017
0.045,0.017
0.043,0.018
0.046,0.015
0.047,0.020
0.047,0.020
0.044,0.025
0.043,0.026
0.044,0.028
0.042,0.028
0.042,0.029
0.037,0.030
0.039,0.030
0.035,0.034
0.036,0.030
0.034,0.033
0.036,0.035
0.030,0.035
0.029,0.036
0.032,0.036
0.037,0.035
0.044,0.038
0.047,0.040
0.047,0.039
0.045,0.042
0.043,0.041
0.037,0.042
0.040,0.037
0.042,0.039
0.044,0.038
0.047,0.039
0.048,0.040
0.047,0.042
0.043,0.046
0.041,0.047
0.044,0.048
0.039,0.047
0.039,0.047
0.040,0.051
0.040,0.049
0.038,0.050
0.040,0.048
0.043,0.047
0.041,0.044
0.045,0.045
0.042,0.044
0.046,0.043
0.041,0.049
0.041,0.047
0.039,0.053
0.043,0.052
0.042,0.052
0.044,0.049
0.042,0.050
0.044,0.051
0.043,0.049
0.039,0.049
0.040,0.050
0.040,0.047
0.042,0.045
0.045,0.047
0.046,0.042
0.045,0.042
0.043,0.046
0.042,0.047
0.042,0.049
0.041,0.044
0.044,0.044
0.041,0.041
0.045,0.043
0.042,0.043
0.044,0.043
0.041,0.043
0.043,0.039
0.045,0.041
0.045,0.036
0.047,0.038
0.045,0.035
0.043,0.034
0.047,0.036
0.046,0.031
0.047,0.034
0.044,0.031
0.046,0.030
0.043,0.028
0.048,0.030
0.047,0.027
0.047,0.027
0.047,0.027
0.046,0.023
0.047,0.022
0.047,0.018
0.047,0.019
0.045,0.017
0.044,0.017
0.045,0.017
0.046,0.016
0.045,0.014
0.042,0.014
0.045,0.016
0.046,0.016
0.046,0.011
0.046,0.011
0.045,0.009
0.045,0.008
0.046,0.008
0.045,0.010
0.047,0.006
0.042,0.004
0.047,0.002
0.045,0.004
0.044,0.003
0.043,0.005
0.046,0.003
0.043,0.006
0.045,0.002
0.047,0.004
0.047,-0.003
0.050,0.001
0.049,-0.003
0.049,-0.004
0.050,-0.002
0.048,-0.002
0.046,-0.003
0.046,-0.002
0.046,-0.003
0.045,-0.001
0.046,-0.002
0.046,0.001
0.043,0.001
0.045,0.002
0.045,-0.001
0.044,0.000
0.044,-0.005
0.046,-0.003
0.041,-0.001
0.043,0.000
0.043,0.001
0.043,0.001
0.044,0.001
0.045,0.003
0.045,0.002
0.045,0.006
0.045,0.002
0.044,0.006
0.044,0.006
0.046,0.009
0.044,0.006
0.045,0.006
0.043,0.005
0.045,0.006
0.043,0.007
0.045,0.008
0.039,0.011
0.042,0.010
0.041,0.015
0.040,0.011
0.040,0.014
0.041,0.012
0.041,0.014
0.042,0.018
0.041,0.018
0.042,0.016
0.041,0.018
0.043,0.020
0.040,0.016
0.044,0.017
0.041,0.020
0.042,0.017
0.043,0.019
0.041,0.018
0.043,0.021
0.039,0.022
0.040,0.024
0.040,0.024
0.038,0.028
0.037,0.028
0.039,0.032
0.041,0.031
0.038,0.033
0.037,0.032
0.037,0.036
0.036,0.035
0.036,0.037
0.036,0.035
0.041,0.036
0.039,0.035
0.041,0.039
0.043,0.036
0.061,0.039
0.071,0.042
0.078,0.039
0.074,0.039
0.068,0.039
0.060,0.038
0.053,0.038
0.044,0.039
0.032,0.042
0.024,0.037
0.020,0.041
0.020,0.039
0.024,0.043
0.024,0.041
0.033,0.044
0.032,0.044
0.036,0.046
0.034,0.047
0.039,0.046
0.036,0.045
0.038,0.043
0.038,0.041
0.039,0.044
0.041,0.043
0.051,0.045
0.064,0.044
0.079,0.048
0.090,0.049
0.098,0.048
0.083,0.045
0.071,0.047
0.055,0.048
0.039,0.047
0.016,0.047
0.008,0.044
0.009,0.047
0.016,0.043
0.025,0.044
0.030,0.043
0.034,0.044
0.034,0.045
0.037,0.046
0.039,0.043
0.040,0.041
0.042,0.040
0.044,0.041
0.042,0.038
0.041,0.043
0.040,0.041
0.040,0.040
0.039,0.037
0.044,0.038
0.040,0.034
0.042,0.035
0.039,0.034
0.041,0.033
0.039,0.035
0.044,0.031
0.040,0.032
0.041,0.029
0.043,0.031
0.039,0.027
0.042,0.028
0.039,0.029
0.044,0.023
0.047,0.025
0.051,0.020
0.053,0.023
0.054,0.018
0.051,0.021
0.050,0.016
0.049,0.019
0.046,0.016
0.046,0.016
0.044,0.013
0.047,0.016
0.046,0.013
0.049,0.014
0.045,0.011
0.048,0.012
0.046,0.011
0.047,0.008
0.045,0.009
0.048,0.006
0.046,0.007
0.047,0.002
0.049,0.003
0.048,0.004
0.048,0.006
0.047,0.005
0.045,0.003
0.045,0.003
0.045,0.002
0.047,0.001
0.046,0.002
0.048,-0.001
0.049,0.001
0.047,-0.002
0.044,0.001
0.043,-0.003
0.046,0.000
0.043,-0.001
0.044,-0.002
0.043,-0.001
0.043,0.001
0.041,-0.000
0.044,-0.001
0.048,-0.000
0.047,-0.002
0.047,-0.001
0.046,0.001
0.042,-0.002
0.043,-0.002
0.042,-0.003
0.045,-0.001
0.043,-0.001
0.048,-0.002
0.044,0.001
0.046,0.003
0.053,0.006
0.070,0.004
0.087,0.004
0.090,0.003
0.082,0.002
0.061,0.004
0.040,0.003
0.029,0.009
0.016,0.007
0.010,0.011
0.010,0.006
0.020,0.008
0.028,0.007
0.039,0.008
0.043,0.008
0.047,0.010
0.044,0.013
0.045,0.011
0.039,0.014
0.042,0.012
0.044,0.015
0.044,0.009
0.044,0.013
0.052,0.012
0.065,0.015
0.082,0.016
0.096,0.016
0.101,0.019
0.093,0.018
0.074,0.020
0.061,0.022
0.041,0.022
0.017,0.025
0.002,0.028
0.002,0.028
0.010,0.032
0.017,0.032
0.025,0.031
0.030,0.029
0.030,0.030
0.033,0.032
0.034,0.031
0.035,0.033
0.036,0.032
0.037,0.035
0.039,0.034
0.038,0.038
0.037,0.035
0.037,0.039
0.039,0.039
0.043,0.039
0.042,0.039
0.040,0.039
0.041,0.038
0.039,0.039
0.037,0.041
0.039,0.041
0.038,0.039
0.037,0.038
0.035,0.040
0.036,0.043
0.033,0.042
0.033,0.046
0.033,0.045
0.033,0.045
0.035,0.048
0.036,0.049
0.036,0.048
0.038,0.048
0.037,0.048
0.041,0.045
0.036,0.049
0.039,0.043
0.037,0.044
0.039,0.045
0.041,0.047
0.028,0.048
0.010,0.048
-0.024,0.048
-0.061,0.046
-0.073,0.048
-0.060,0.048
-0.045,0.046
-0.038,0.044
-0.035,0.047
-0.029,0.043
-0.012,0.044
0.020,0.043
0.057,0.044
0.094,0.043
0.117,0.043
0.128,0.042
0.127,0.041
0.124,0.041
0.119,0.041
0.112,0.041
0.097,0.042
0.075,0.039
0.043,0.037
0.004,0.036
-0.018,0.034
-0.025,0.037
-0.017,0.034
0.007,0.035
0.031,0.031
0.054,0.030
0.072,0.028
0.091,0.028
0.099,0.027
0.102,0.024
0.100,0.029
0.089,0.024
0.063,0.028
0.037,0.024
0.004,0.025
-0.016,0.019
-0.020,0.020
-0.003,0.016
0.019,0.018
0.048,0.013
0.072,0.015
0.085,0.014
0.094,0.015
0.099,0.012
0.101,0.014
0.101,0.012
0.100,0.010
0.101,0.010
0.108,0.010
0.116,0.008
0.116,0.009
0.109,0.008
0.093,0.003
0.074,0.002
0.062,0.004
0.049,0.002
0.038,0.004
0.028,0.001
0.026,0.004
0.023,0.003
0.031,0.002
0.035,0.005
0.041,0.002
0.042,-0.001
0.045,-0.000
0.049,-0.002
0.048,-0.003
0.049,-0.008
0.046,-0.004
0.045,-0.005
0.042,-0.003
0.044,-0.005
0.045,-0.003
0.046,-0.005
0.049,-0.004
0.045,-0.004
0.047,-0.003
0.044,-0.001
0.045,-0.003
0.045,-0.002
0.045,-0.006
0.043,-0.003
0.043,-0.002
0.041,0.001
0.044,0.003
0.039,0.001
0.039,0.003
0.036,0.004
0.037,0.002
0.038,0.005
0.040,0.002
0.037,0.004
0.037,0.003
0.039,0.007
0.035,0.005
0.039,0.006
0.037,0.007
0.037,0.007
0.037,0.006
0.035,0.008
0.035,0.011
0.035,0.010
0.031,0.014
0.034,0.012
0.036,0.013
0.034,0.011
0.037,0.013
0.035,0.015
0.038,0.015
0.039,0.017
0.041,0.016
0.044,0.019
0.046,0.016
0.042,0.018
0.039,0.017
0.036,0.021
0.034,0.022
0.034,0.023
0.036,0.021
0.037,0.025
0.036,0.025
0.037,0.028
0.036,0.026
0.040,0.028
0.036,0.028
0.039,0.028
0.036,0.027
0.040,0.028
0.036,0.032
0.038,0.032
0.036,0.033
0.042,0.036
0.037,0.037
0.037,0.040
0.036,0.040
0.038,0.039
0.041,0.039
0.040,0.037
0.041,0.037
0.037,0.042
0.039,0.042
0.037,0.042
0.039,0.039
0.039,0.040
0.039,0.041
0.037,0.042
0.039,0.045
0.038,0.045
0.036,0.046
0.035,0.046
0.036,0.047
0.037,0.046
0.039,0.046
0.039,0.046
0.041,0.048
0.040,0.049
0.040,0.049
0.037,0.050
0.039,0.049
0.036,0.049
0.037,0.045
0.038,0.051
0.036,0.049
0.036,0.048
0.034,0.048
0.035,0.050
0.036,0.049
0.036,0.048
0.039,0.050
0.040,0.047
0.041,0.047
0.041,0.050
0.042,0.047
0.038,0.048
0.042,0.046
0.039,0.047
0.042,0.044
0.041,0.043
0.043,0.043
0.041,0.039
0.042,0.043
0.043,0.038
0.045,0.041
0.044,0.036
0.046,0.039
0.044,0.035
0.046,0.035
0.042,0.039
0.044,0.035
0.042,0.034
0.043,0.029
0.044,0.030
0.042,0.027
0.042,0.031
0.041,0.028
0.043,0.028
0.041,0.028
0.044,0.025
0.041,0.028
0.043,0.025
0.038,0.023
0.039,0.021
0.039,0.022
0.044,0.020
0.044,0.017
0.049,0.017
0.059,0.017
0.057,0.013
0.037,0.012
0.026,0.012
0.019,0.009
0.016,0.010
0.022,0.007
0.029,0.007
0.036,0.007
0.043,0.007
0.052,0.005
0.069,0.004
0.076,0.002
0.078,0.001
0.072,0.002
0.066,0.003
0.053,0.007
0.050,0.005
0.045,0.005
0.048,0.003
0.051,0.004
0.054,0.003
0.051,0.002
0.049,0.004
0.042,0.003
0.029,0.001
0.006,-0.005
-0.039,-0.003
-0.105,-0.003
-0.125,-0.001
-0.096,-0.000
-0.034,-0.002
0.029,0.001
0.078,-0.002
0.105,0.001
0.114,0.001
0.120,0.000
0.128,0.000
0.125,-0.003
0.115,0.001
0.098,0.001
0.081,0.002
0.067,-0.002
0.060,0.001
0.046,-0.002
0.032,0.001
0.016,0.000
-0.021,0.002
-0.070,0.003
-0.087,0.005
-0.075,0.008
-0.041,0.006
0.004,0.006
0.047,0.005
0.076,0.005
0.097,0.010
0.104,0.010
0.108,0.013
0.109,0.013
0.110,0.013
0.109,0.011
0.108,0.013
0.105,0.014
0.118,0.013
0.138,0.016
0.153,0.012
0.155,0.015
0.147,0.011
0.121,0.013
0.092,0.015
0.063,0.013
0.036,0.014
0.008,0.015
-0.010,0.019
-0.001,0.018
0.010,0.021
0.031,0.023
0.036,0.024
0.044,0.024
0.046,0.026
0.041,0.028
0.040,0.030
0.040,0.031
0.039,0.031
0.039,0.030
0.040,0.029
0.040,0.029
0.038,0.032
0.038,0.035
0.037,0.034
0.036,0.037
0.036,0.034
0.034,0.039
0.035,0.037
0.035,0.039
0.037,0.040
0.037,0.040
0.037,0.038
0.037,0.041
0.035,0.042
0.036,0.039
0.036,0.040
0.037,0.040
0.040,0.038
0.038,0.040
0.036,0.039
0.034,0.045
0.035,0.043
0.034,0.045
0.035,0.046
0.036,0.049
0.036,0.046
0.039,0.047
0.038,0.047
0.042,0.048
0.038,0.047
0.041,0.044
0.039,0.048
0.041,0.044
0.038,0.046
0.040,0.044
0.036,0.046
0.037,0.050
0.033,0.049
0.030,0.048
0.027,0.049
0.029,0.048
0.031,0.046
0.038,0.046
0.041,0.047
0.046,0.045
0.051,0.047
0.052,0.047
0.052,0.045
0.047,0.044
0.050,0.044
0.046,0.043
0.042,0.041
0.031,0.044
0.023,0.040
0.010,0.042
-0.013,0.038
-0.029,0.040
-0.025,0.039
-0.017,0.039
0.005,0.039
0.026,0.037
0.047,0.039
0.060,0.035
0.076,0.034
0.083,0.030
0.086,0.030
0.086,0.029
0.082,0.026
0.073,0.030
0.069,0.029
0.061,0.030
0.059,0.028
0.056,0.027
0.054,0.027
0.052,0.023
0.050,0.021
0.054,0.018
0.051,0.018
0.052,0.015
0.052,0.016
0.049,0.015
0.050,0.018
0.046,0.012
0.044,0.013
0.045,0.014
0.044,0.014
0.044,0.013
0.047,0.013
0.046,0.011
0.050,0.012
0.048,0.008
0.049,0.008
0.048,0.008
0.050,0.003
0.048,0.007
0.048,0.006
0.047,0.007
0.042,0.005
0.048,0.007
0.045,0.003
0.046,0.002
0.046,0.006
0.050,0.002
0.045,0.003
0.047,0.002
0.046,0.002
0.050,-0.003
0.049,-0.000
0.051,-0.002
0.047,-0.005
0.046,-0.002
0.048,-0.003
0.048,-0.003
0.047,-0.004
0.050,-0.003
0.050,-0.001
0.049,-0.003
0.049,0.000
0.047,-0.002
0.047,-0.002
0.046,-0.004
0.048,-0.004
0.047,-0.003
0.048,-0.003
0.048,0.004
0.045,-0.001
0.047,0.003
0.044,0.000
0.045,0.001
0.043,0.002
0.047,0.002
0.043,0.006
0.048,0.005
0.043,0.006
0.046,0.004
0.045,0.007
0.046,0.004
0.047,0.004
0.044,0.007
0.044,0.008
0.042,0.008
0.044,0.010
0.043,0.010
0.043,0.008
0.044,0.011
0.044,0.013
0.041,0.014
0.042,0.017
0.041,0.014
0.042,0.016
0.040,0.014
0.042,0.017
0.039,0.015
0.043,0.017
0.040,0.016
0.044,0.018
0.038,0.019
0.044,0.019
0.040,0.020
0.041,0.021
0.041,0.024
0.045,0.024
0.044,0.027
0.042,0.026
0.042,0.031
0.043,0.031
0.042,0.033
0.044,0.033
0.042,0.034
0.043,0.035
0.042,0.035
0.043,0.036
0.042,0.035
0.041,0.035
0.045,0.037
0.045,0.037
0.044,0.040
0.042,0.041
0.042,0.041
0.042,0.042
0.039,0.036
0.043,0.041
0.043,0.036
0.047,0.037
0.045,0.040
0.045,0.042
0.038,0.044
0.043,0.045
0.042,0.047
0.043,0.046
0.040,0.046
0.042,0.048
0.041,0.049
0.042,0.049
0.038,0.049
0.031,0.047
0.004,0.048
-0.022,0.044
-0.057,0.046
-0.084,0.044
-0.091,0.051
-0.100,0.049
-0.087,0.053
-0.055,0.049
-0.010,0.051
0.040,0.050
0.086,0.050
0.116,0.049
0.139,0.050
0.152,0.051
0.157,0.049
0.153,0.049
0.146,0.048
0.136,0.049
0.121,0.044
0.110,0.045
0.091,0.045
0.063,0.045
0.035,0.048
0.006,0.043
-0.018,0.045
-0.039,0.041
-0.038,0.043
-0.033,0.039
-0.062,0.040
-0.076,0.041
-0.071,0.037
-0.056,0.036
-0.017,0.036
0.030,0.035
0.066,0.036
0.100,0.031
0.126,0.035
0.150,0.031
0.163,0.035
0.166,0.031
0.156,0.032
0.145,0.030
0.136,0.030
0.120,0.028
0.115,0.028
0.100,0.022
0.095,0.021
0.085,0.022
0.080,0.020
0.078,0.022
0.078,0.019
0.070,0.021
0.050,0.017
0.040,0.017
0.034,0.013
0.030,0.014
0.027,0.012
0.032,0.013
0.033,0.010
0.041,0.013
0.042,0.012
0.050,0.011
0.057,0.009
0.066,0.009
0.073,0.008
0.075,0.005
0.073,0.006
0.070,0.008
0.063,0.008
0.054,0.011
0.045,0.006
0.044,0.006
0.059,0.006
0.067,0.006
0.046,0.001
0.024,0.002
0.016,0.003
0.023,0.002
0.028,0.004
0.037,0.001
0.049,0.000
0.060,-0.001
0.073,-0.001
0.076,0.002
0.076,-0.002
0.070,0.003
0.064,-0.001
0.059,0.001
0.055,-0.002
0.053,-0.002
0.047,-0.004
0.046,-0.002
0.044,-0.004
0.044,-0.009
0.039,-0.008
0.039,-0.008
0.039,-0.004
0.040,-0.005
0.041,0.000
0.042,0.007
0.043,0.003
0.041,0.010
0.041,0.007
0.043,0.009
0.039,0.008
0.042,0.010
0.038,0.007
0.039,0.007
0.036,0.012
0.037,0.009
0.036,0.013
0.037,0.010
0.042,0.010
0.043,0.009
0.046,0.011
0.041,0.011
0.041,0.012
0.038,0.015
0.039,0.016
0.038,0.016
0.036,0.015
0.039,0.017
0.038,0.015
0.038,0.018
0.039,0.016
0.040,0.019
0.039,0.019
0.036,0.018
0.035,0.022
0.036,0.020
0.033,0.023
0.034,0.024
0.033,0.027
0.032,0.027
0.029,0.032
0.028,0.031
0.029,0.032
0.030,0.033
0.033,0.033
0.039,0.034
0.044,0.035
0.049,0.032
0.049,0.038
0.044,0.033
0.045,0.037
0.041,0.037
0.041,0.039
0.038,0.042
0.042,0.041
0.041,0.041
0.040,0.039
0.037,0.040
0.038,0.039
0.036,0.042
0.034,0.042
0.028,0.043
0.024,0.044
0.022,0.043
0.024,0.046
0.028,0.044
0.030,0.040
0.024,0.046
0.022,0.047
0.017,0.046
0.021,0.047
0.026,0.049
0.034,0.045
0.046,0.048
0.058,0.044
0.064,0.046
0.063,0.046
0.062,0.047
0.056,0.049
0.051,0.049
0.047,0.049
0.037,0.047
0.034,0.050
0.031,0.053
0.033,0.049
0.032,0.051
0.031,0.049
0.033,0.048
0.026,0.046
0.027,0.049
0.021,0.046
0.024,0.044
0.023,0.047
0.028,0.047
0.033,0.046
0.045,0.047
0.059,0.046
0.064,0.043
0.070,0.043
0.075,0.045
0.072,0.041
0.064,0.041
0.061,0.038
0.057,0.039
0.050,0.036
0.054,0.035
0.052,0.032
0.050,0.033
0.043,0.035
0.047,0.031
0.039,0.034
0.042,0.032
0.043,0.033
0.046,0.028
0.049,0.029
0.048,0.027
0.048,0.026
0.048,0.026
0.049,0.023
0.049,0.023
0.049,0.019
0.047,0.019
0.048,0.018
0.045,0.017
0.046,0.016
0.042,0.015
0.044,0.015
0.044,0.016
0.043,0.013
0.045,0.015
0.046,0.012
0.045,0.009
0.048,0.012
0.045,0.009
0.047,0.010
0.046,0.009
0.046,0.010
0.043,0.006
0.047,0.007
0.046,0.006
0.046,0.006
0.042,0.006
0.047,0.005
0.043,0.006
0.043,0.006
0.045,0.004
0.045,0.004
0.047,0.002
0.047,0.003
0.047,-0.001
0.044,0.002
0.047,0.002
0.046,-0.000
0.046,-0.002
0.046,-0.001
0.044,-0.002
0.045,0.000
0.042,0.001
0.044,0.001
0.043,0.002
0.046,0.002
0.048,-0.000
0.044,-0.001
0.045,-0.000
0.041,0.002
0.042,-0.001
0.040,0.003
0.041,0.001
0.042,0.004
0.040,-0.002
0.037,-0.002
0.035,0.002
0.038,0.005
0.042,0.005
0.060,0.003
0.078,0.004
0.096,0.003
0.104,0.004
0.099,0.006
0.082,0.005
0.067,0.008
0.050,0.008
0.026,0.010
0.007,0.009
0.001,0.011
0.003,0.012
0.014,0.010
0.023,0.011
0.026,0.013
0.028,0.016
0.030,0.012
0.035,0.013
0.035,0.014
0.040,0.015
0.037,0.013
0.039,0.014
0.037,0.017
0.039,0.016
0.037,0.019
0.036,0.016
0.033,0.021
0.036,0.021
0.035,0.025
0.036,0.025
0.035,0.028
0.037,0.028
0.036,0.030
0.038,0.028
0.040,0.031
0.039,0.032
0.043,0.030
0.040,0.030
0.040,0.033
0.037,0.032
0.037,0.033
0.034,0.036
0.030,0.035
0.029,0.039
0.033,0.036
0.036,0.039
0.041,0.037
0.047,0.038
0.047,0.037
0.047,0.038
0.044,0.040
0.045,0.037
0.039,0.042
0.040,0.040
0.039,0.041
0.039,0.037
0.039,0.042
0.038,0.040
0.038,0.041
0.039,0.045
0.040,0.043
0.036,0.046
0.044,0.046
0.041,0.047
0.041,0.047
0.043,0.049
0.041,0.047
0.042,0.043
0.040,0.049
0.039,0.046
0.040,0.050
0.039,0.048
0.041,0.050
0.041,0.046
0.040,0.047
0.038,0.048
0.041,0.047
0.037,0.049
0.039,0.047
0.042,0.045
0.042,0.046
0.043,0.042
0.045,0.046
0.046,0.044
0.043,0.047
0.042,0.042
0.046,0.039
0.043,0.037
0.046,0.039
0.044,0.039
0.046,0.039
0.036,0.037
0.026,0.039
0.014,0.039
0.004,0.036
-0.024,0.036
-0.029,0.036
-0.025,0.035
-0.007,0.036
0.016,0.035
0.039,0.033
0.059,0.031
0.073,0.031
0.081,0.029
0.092,0.028
0.094,0.028
0.093,0.025
0.088,0.027
0.078,0.026
0.073,0.024
0.064,0.024
0.057,0.024
0.054,0.021
0.049,0.019
0.049,0.018
0.048,0.018
0.048,0.014
0.050,0.014
0.046,0.013
0.049,0.011
0.049,0.008
0.049,0.013
0.048,0.010
0.050,0.010
0.050,0.010
0.050,0.008
0.048,0.010
0.047,0.007
0.048,0.007
0.050,0.003
0.051,0.002
0.049,0.007
0.048,0.004
0.045,0.007
0.046,0.003
0.047,0.003
0.047,-0.001
0.049,0.003
0.050,0.001
0.049,-0.001
0.048,-0.000
0.049,0.000
0.046,-0.001
0.046,-0.001
0.048,-0.005
0.046,-0.004
0.046,-0.004
0.047,-0.002
0.045,-0.003
0.043,0.002
0.046,-0.003
0.047,-0.002
0.046,-0.002
0.050,-0.005
0.048,-0.004
0.046,-0.004
0.042,-0.002
0.042,-0.003
0.044,-0.001
0.044,-0.006
0.046,-0.004
0.043,-0.004
0.043,-0.003
0.041,-0.000
0.041,0.001
0.038,0.003
0.042,0.001
0.043,0.003
0.042,0.001
0.041,0.002
0.041,0.004
0.043,0.002
0.045,0.006
0.043,0.006
0.047,0.008
0.044,0.006
0.046,0.009
0.045,0.006
0.047,0.007
0.047,0.010
0.043,0.010
0.043,0.012
0.042,0.012
0.045,0.012
0.044,0.010
0.047,0.010
0.047,0.011
0.048,0.010
0.045,0.014
0.042,0.013
0.043,0.019
0.042,0.016
0.042,0.020
0.046,0.019
0.044,0.022
0.045,0.023
0.044,0.024
0.044,0.027
0.043,0.026
0.043,0.028
0.045,0.027
0.040,0.029
0.045,0.029
0.043,0.028
0.039,0.029
0.021,0.029
-0.023,0.028
-0.089,0.034
-0.123,0.030
-0.115,0.035
-0.068,0.035
-0.004,0.039
0.051,0.037
0.086,0.036
0.103,0.037
0.117,0.039
0.123,0.039
0.127,0.040
0.124,0.040
0.120,0.037
0.108,0.041
0.093,0.039
0.082,0.040
0.070,0.038
0.062,0.042
0.055,0.043
0.052,0.044
0.050,0.048
0.047,0.047
0.048,0.048
0.047,0.044
0.048,0.047
0.045,0.044
0.045,0.044
0.039,0.045
0.040,0.046
0.043,0.047
0.041,0.048
0.044,0.047
0.046,0.048
0.044,0.049
0.044,0.049
0.045,0.047
0.044,0.048
0.044,0.047
0.047,0.047
0.048,0.047
0.048,0.043
0.045,0.047
0.045,0.045
0.044,0.050
0.041,0.045
0.044,0.046
0.042,0.041
0.048,0.041
0.045,0.041
0.046,0.040
0.044,0.042
0.045,0.039
0.042,0.037
0.040,0.037
0.042,0.036
0.039,0.037
0.023,0.035
0.004,0.036
-0.034,0.035
-0.054,0.034
-0.057,0.033
-0.025,0.030
0.009,0.029
0.047,0.028
0.072,0.027
0.091,0.027
0.096,0.031
0.101,0.028
0.104,0.030
0.108,0.026
0.103,0.027
0.099,0.022
0.089,0.023
0.082,0.016
0.072,0.017
0.063,0.015
0.059,0.017
0.055,0.012
0.052,0.012
0.042,0.012
0.029,0.008
0.013,0.013
-0.018,0.011
-0.031,0.013
-0.036,0.009
-0.024,0.009
-0.002,0.008
0.026,0.007
0.027,0.002
0.017,0.002
-0.003,0.002
-0.012,0.002
-0.005,0.008
0.023,0.004
0.054,0.005
0.088,0.005
0.115,0.006
0.126,0.002
0.136,0.003
0.133,0.004
0.131,0.003
0.125,0.003
0.120,0.000
0.108,-0.001
0.097,-0.004
0.085,-0.002
0.075,0.001
0.068,0.001
0.062,-0.001
0.061,-0.001
0.060,-0.002
0.057,-0.003
0.056,-0.003
0.051,0.002
0.051,-0.002
0.049,-0.002
0.050,0.000
0.050,-0.000
0.050,-0.003
0.050,-0.002
0.047,0.002
0.046,0.000
0.045,0.002
0.045,-0.000
0.047,0.004
0.045,0.002
0.048,0.002
0.049,0.005
0.049,0.005
0.036,0.006
0.030,0.008
0.027,0.009
0.027,0.009
0.027,0.006
0.028,0.005
0.027,0.009
0.029,0.010
0.028,0.011
0.031,0.010
0.039,0.010
0.054,0.012
0.060,0.013
0.067,0.012
0.063,0.014
0.063,0.014
0.053,0.018
0.049,0.014
0.041,0.016
0.040,0.017
0.040,0.020
0.044,0.017
0.046,0.018
0.051,0.020
0.053,0.021
0.051,0.021
0.047,0.023
0.043,0.022
0.043,0.024
0.043,0.026
0.042,0.027
0.044,0.028
0.044,0.029
0.043,0.032
0.041,0.030
0.041,0.031
0.040,0.031
0.039,0.028
0.037,0.029
0.038,0.033
0.037,0.034
0.035,0.036
0.035,0.036
0.033,0.036
0.034,0.039
0.034,0.041
0.037,0.041
0.037,0.039
0.041,0.039
0.041,0.039
0.047,0.039
0.045,0.043
0.048,0.041
0.045,0.045
0.042,0.043
0.040,0.045
0.043,0.042
0.043,0.044
0.041,0.043
0.047,0.045
0.045,0.046
0.045,0.044
0.045,0.047
0.045,0.046
0.040,0.043
0.038,0.041
0.038,0.043
0.035,0.044
0.031,0.047
0.032,0.047
0.038,0.048
0.041,0.049
0.046,0.047
0.049,0.045
0.047,0.050
0.045,0.046
0.040,0.050
0.040,0.047
0.045,0.046
0.037,0.043
0.043,0.043
0.042,0.044
0.045,0.040
0.044,0.045
0.048,0.042
0.045,0.042
0.045,0.039
0.049,0.037
0.044,0.036
0.045,0.037
0.043,0.038
0.043,0.036
0.042,0.039
0.043,0.037
0.042,0.035
0.045,0.032
0.046,0.031
0.046,0.031
0.047,0.028
0.048,0.031
0.047,0.031
0.045,0.032
0.043,0.030
0.046,0.030
0.043,0.026
0.047,0.028
0.038,0.024
0.034,0.025
0.020,0.022
0.011,0.019
-0.003,0.020
0.005,0.018
0.017,0.018
0.035,0.015
0.045,0.019
0.057,0.014
0.059,0.016
0.069,0.014
0.069,0.016
0.074,0.012
0.075,0.011
0.075,0.010
0.076,0.011
0.069,0.006
0.067,0.005
0.061,0.009
0.058,0.004
0.055,0.008
0.051,0.003
0.052,0.002
0.049,0.000
0.052,0.004
0.047,0.004
0.049,0.002
0.045,0.007
0.048,0.006
0.046,0.007
0.048,0.004
0.048,0.002
0.047,-0.002
0.047,-0.002
0.047,-0.001
0.045,-0.003
0.045,-0.004
0.047,-0.003
0.044,-0.005
0.043,-0.003
0.043,-0.007
0.042,-0.002
0.044,-0.003
0.047,-0.002
0.046,-0.004
0.051,-0.004
0.046,-0.005
0.050,-0.003
0.046,-0.003
0.047,-0.003
0.043,0.003
0.041,0.001
0.043,0.003
0.043,-0.001
0.045,-0.000
0.045,0.002
0.041,0.001
0.041,0.004
0.043,0.002
0.041,0.004
0.039,0.004
0.044,0.002
0.043,0.004
0.044,0.001
0.043,0.007
0.046,0.004
0.041,0.007
0.045,0.009
0.051,0.008
0.059,0.008
0.042,0.010
0.030,0.011
0.021,0.009
0.013,0.015
0.016,0.013
0.017,0.015
0.022,0.015
0.029,0.017
0.041,0.014
0.058,0.016
0.068,0.011
0.076,0.016
0.067,0.014
0.066,0.018
0.058,0.017
0.054,0.019
0.050,0.020
0.051,0.022
0.046,0.027
0.048,0.026
0.044,0.029
0.046,0.027
0.040,0.027
0.045,0.028
0.040,0.031
0.041,0.030
0.041,0.033
0.042,0.029
0.043,0.034
0.041,0.031
0.037,0.035
0.037,0.036
0.041,0.037
0.047,0.037
0.058,0.041
0.075,0.040
0.091,0.038
0.104,0.040
0.104,0.038
0.091,0.037
0.073,0.041
0.056,0.040
0.039,0.041
0.011,0.041
0.002,0.045
-0.000,0.042
0.010,0.043
0.018,0.046
0.027,0.044
0.030,0.046
0.031,0.046
0.036,0.043
0.036,0.043
0.036,0.041
0.038,0.040
0.036,0.038
0.036,0.047
0.038,0.046
0.039,0.049
0.040,0.046
0.045,0.049
0.043,0.045
0.044,0.048
0.044,0.048
0.042,0.051
0.041,0.051
0.042,0.050
0.041,0.050
0.043,0.049
0.043,0.047
0.041,0.045
0.043,0.041
0.045,0.046
0.043,0.043
0.043,0.047
0.041,0.042
0.046,0.042
0.043,0.040
0.049,0.039
0.044,0.041
0.045,0.039
0.043,0.040
0.044,0.036
0.046,0.037
0.045,0.033
0.047,0.035
0.044,0.038
0.045,0.036
0.044,0.034
0.046,0.034
0.045,0.033
0.044,0.028
0.046,0.031
0.045,0.029
0.043,0.029
0.047,0.029
0.045,0.024
0.047,0.026
0.045,0.023
0.047,0.021
0.044,0.020
0.045,0.020
0.046,0.018
0.045,0.018
0.047,0.016
0.043,0.016
0.042,0.014
0.044,0.013
0.038,0.012
0.040,0.012
0.036,0.010
0.043,0.009
0.046,0.009
0.052,0.007
0.049,0.010
0.050,0.007
0.049,0.007
0.048,0.003
0.049,0.004
0.049,0.004
0.046,0.001
0.044,0.004
0.046,0.001
0.044,0.004
0.045,0.002
0.046,0.002
0.045,0.000
0.046,-0.002
0.047,-0.001
0.048,-0.003
0.045,0.000
0.046,-0.003
0.045,-0.003
0.046,-0.004
0.044,-0.004
0.044,-0.005
0.044,-0.003
0.044,-0.001
0.044,-0.001
0.044,-0.001
0.045,-0.001
0.045,-0.003
0.039,-0.004
0.026,-0.004
0.019,-0.001
0.007,-0.002
-0.020,0.001
-0.034,0.000
-0.023,-0.000
-0.011,-0.002
0.015,-0.002
0.034,0.003
0.057,0.000
0.064,0.005
0.078,0.002
0.086,0.003
0.091,0.003
0.090,0.003
0.083,0.004
0.077,0.003
0.068,0.007
0.062,0.008
0.055,0.010
0.052,0.007
0.051,0.010
0.047,0.008
0.049,0.008
0.049,0.008
0.047,0.011
0.044,0.012
0.045,0.012
0.043,0.010
0.046,0.008
0.047,0.012
0.046,0.010
0.043,0.009
0.045,0.014
0.043,0.017
0.042,0.019
0.040,0.020
0.039,0.020
0.038,0.022
0.039,0.024
0.039,0.025
0.039,0.026
0.041,0.026
0.042,0.028
0.041,0.030
0.039,0.030
0.043,0.032
0.042,0.030
0.044,0.030
0.044,0.033
0.044,0.032
0.044,0.033
0.042,0.031
0.042,0.033
0.042,0.034
0.040,0.035
0.040,0.038
0.036,0.037
0.039,0.039
0.036,0.038
0.038,0.039
0.038,0.039
0.044,0.040
0.047,0.042
0.046,0.041
0.044,0.044
0.042,0.041
0.034,0.042
0.010,0.041
-0.020,0.042
-0.048,0.045
-0.061,0.042
-0.048,0.049
-0.021,0.044
0.014,0.047
0.045,0.044
0.072,0.046
0.080,0.045
0.093,0.043
0.095,0.046
0.099,0.044
0.099,0.046
0.096,0.045
0.088,0.046
0.078,0.044
0.071,0.047
0.063,0.047
0.060,0.046
0.055,0.047
0.052,0.046
0.052,0.045
0.046,0.045
0.030,0.043
0.004,0.041
-0.065,0.039
-0.113,0.041
-0.112,0.041
-0.069,0.044
-0.008,0.040
0.050,0.040
0.083,0.035
0.102,0.039
0.114,0.039
0.121,0.038
0.116,0.039
0.093,0.036
0.062,0.038
0.024,0.037
0.002,0.035
-0.004,0.030
0.015,0.029
0.049,0.032
0.070,0.031
0.064,0.032
0.070,0.032
0.069,0.032
0.067,0.029
0.072,0.029
0.079,0.026
0.084,0.025
0.088,0.023
0.093,0.022
0.097,0.024
0.094,0.023
0.090,0.023
0.091,0.017
0.090,0.017
0.089,0.015
0.084,0.016
0.076,0.011
0.070,0.013
0.063,0.009
0.058,0.010
0.057,0.010
0.057,0.012
0.052,0.014
0.054,0.008
0.051,0.010
0.051,0.007
0.053,0.006
0.037,0.001
0.026,0.003
-0.008,0.001
-0.039,0.000
-0.051,0.002
-0.040,0.003
-0.002,0.004
0.035,0.003
0.066,0.002
0.087,0.001
0.099,0.001
0.102,0.002
0.107,0.000
0.106,-0.003
0.104,-0.005
0.101,-0.005
0.089,-0.005
0.081,-0.004
0.070,-0.004
0.062,-0.004
0.058,-0.001
0.053,-0.003
0.054,-0.002
0.051,-0.005
0.054,-0.006
0.052,-0.005
0.053,-0.006
0.049,-0.003
0.043,-0.004
0.027,-0.001
0.017,-0.003
-0.014,-0.002
-0.033,-0.002
-0.040,-0.003
-0.032,0.001
-0.007,0.001
0.023,0.004
0.049,0.000
0.071,0.004
0.077,0.004
0.089,0.004
0.090,0.004
0.094,0.006
0.092,0.009
0.094,0.007
0.089,0.009
0.086,0.005
0.083,0.009
0.075,0.004
0.069,0.007
0.061,0.009
0.057,0.010
0.050,0.013
0.046,0.013
0.044,0.014
0.042,0.013
0.042,0.013
0.041,0.013
0.039,0.012
0.036,0.015
0.038,0.014
0.042,0.017
0.041,0.018
0.042,0.019
0.042,0.020
0.040,0.022
0.037,0.021
0.040,0.026
0.037,0.026
0.041,0.029
0.037,0.027
0.041,0.031
0.040,0.030
0.042,0.030
0.040,0.029
0.043,0.031
0.042,0.031
0.042,0.032
0.040,0.036
0.040,0.037
0.038,0.039
0.037,0.037
0.039,0.039
0.038,0.038
0.038,0.039
0.040,0.040
0.042,0.039
0.041,0.041
0.041,0.039
0.041,0.041
0.039,0.038
0.043,0.039
0.038,0.036
0.038,0.039
0.032,0.040
0.028,0.043
0.019,0.047
0.021,0.046
0.020,0.046
0.026,0.043
0.028,0.043
0.031,0.044
0.032,0.048
0.035,0.049
0.040,0.047
0.045,0.046
0.053,0.045
0.059,0.047
0.062,0.047
0.060,0.048
0.054,0.047
0.052,0.047
0.049,0.049
0.046,0.049
0.044,0.050
0.042,0.048
0.042,0.048
0.036,0.045
0.035,0.045
0.029,0.046
0.030,0.042
0.026,0.045
0.028,0.040
0.031,0.040
0.034,0.038
0.036,0.038
0.036,0.043
0.037,0.040
0.037,0.042
0.042,0.041
0.050,0.041
0.053,0.039
0.062,0.038
0.063,0.036
0.065,0.034
0.062,0.037
0.062,0.037
0.055,0.035
0.054,0.034
0.050,0.034
0.048,0.031
0.047,0.031
0.044,0.032
0.041,0.029
0.042,0.032
0.041,0.028
0.042,0.030
0.043,0.027
0.047,0.026
0.045,0.023
0.047,0.023
0.046,0.018
0.048,0.019
0.046,0.013
0.045,0.017
0.045,0.014
0.046,0.015
0.045,0.015
0.047,0.012
0.045,0.016
0.045,0.014
0.045,0.016
0.045,0.011
0.046,0.011
0.044,0.006
0.046,0.007
0.044,0.006
0.046,0.008
0.042,0.006
0.042,0.007
0.042,0.006
0.045,0.006
0.043,0.005
0.045,0.006
0.045,0.004
0.045,0.006
0.043,0.004
0.045,0.004
0.043,0.002
0.046,0.001
0.045,-0.001
0.049,-0.002
0.046,-0.002
0.047,-0.003
0.043,0.001
0.046,0.001
0.043,0.003
0.044,-0.001
0.043,-0.002
0.047,-0.002
0.046,-0.002
0.046,-0.000
0.046,-0.001
0.044,0.000
0.043,-0.003
0.044,0.001
0.043,-0.001
0.048,0.002
0.045,-0.003
0.046,0.000
0.041,0.003
0.044,0.001
0.042,0.004
0.043,-0.001
0.045,0.004
0.046,0.006
0.045,0.005
0.043,0.007
0.042,0.010
0.043,0.010
0.043,0.008
0.043,0.007
0.044,0.006
0.044,0.007
0.045,0.011
0.042,0.010
0.041,0.012
0.040,0.012
0.044,0.014
0.041,0.013
0.045,0.015
0.040,0.019
0.042,0.015
0.039,0.015
0.040,0.015
0.041,0.017
0.042,0.016
0.044,0.019
0.044,0.016
0.043,0.018
0.042,0.018
0.043,0.020
0.040,0.024
0.040,0.024
0.042,0.024
0.041,0.025
0.042,0.029
0.043,0.030
0.041,0.033
0.043,0.030
0.043,0.034
0.042,0.034
0.040,0.034
0.043,0.034
0.044,0.038
0.042,0.035
0.043,0.035
0.040,0.034
0.045,0.037
0.041,0.035
0.043,0.036
0.040,0.041
0.042,0.038
0.040,0.043
0.039,0.042
0.041,0.040
0.041,0.038
0.041,0.040
0.039,0.044
0.040,0.043
0.037,0.045
0.041,0.048
0.037,0.047
0.041,0.048
0.041,0.048
0.042,0.049
0.043,0.047
0.047,0.048
0.044,0.048
0.042,0.050
0.039,0.046
0.039,0.047
0.033,0.044
0.036,0.046
0.036,0.048
0.040,0.047
0.045,0.049
0.048,0.049
0.045,0.051
0.045,0.049
0.047,0.051
0.044,0.050
0.045,0.050
0.044,0.051
0.046,0.048
0.045,0.049
0.043,0.044
0.047,0.046
0.045,0.042
0.048,0.043
0.044,0.043
0.046,0.041
0.044,0.044
0.044,0.040
0.045,0.040
0.043,0.035
0.046,0.037
0.043,0.037
0.047,0.037
0.042,0.037
0.045,0.036
0.047,0.036
0.048,0.032
0.050,0.034
0.049,0.032
0.047,0.030
0.046,0.033
0.046,0.031
0.048,0.031
0.044,0.028
0.047,0.030
0.044,0.026
0.049,0.027
0.049,0.023
0.052,0.024
0.049,0.023
0.048,0.022
0.049,0.019
0.048,0.017
0.049,0.017
0.050,0.017
0.047,0.017
0.047,0.016
0.046,0.016
0.045,0.014
0.043,0.016
0.046,0.014
0.043,0.014
0.043,0.011
0.046,0.011
0.048,0.009
0.047,0.010
0.047,0.010
0.045,0.008
0.043,0.008
0.042,0.008
0.046,0.006
0.045,0.004
0.048,0.004
0.045,0.007
0.044,0.002
0.045,0.004
0.043,0.002
0.047,0.004
0.048,0.001
0.050,-0.001
0.047,-0.003
0.048,-0.002
0.044,0.000
0.045,-0.002
0.041,-0.002
0.044,-0.002
0.044,-0.003
0.045,-0.004
0.046,-0.002
0.045,-0.001
0.045,-0.001
0.044,-0.001
0.043,-0.003
0.048,-0.003
0.047,-0.005
0.047,-0.005
0.047,-0.001
0.048,-0.001
0.044,0.001
0.043,0.002
0.043,0.003
0.042,0.003
0.046,0.002
0.044,0.001
0.045,0.002
0.044,0.006
0.042,0.002
0.044,0.004
0.042,0.005
0.045,0.007
0.041,0.006
0.045,0.006
0.044,0.007
0.042,0.005
0.040,0.009
0.039,0.011
0.041,0.008
0.039,0.007
0.043,0.008
0.039,0.011
0.041,0.011
0.040,0.012
0.044,0.012
0.041,0.014
0.043,0.016
0.043,0.016
0.041,0.014
0.045,0.017
0.044,0.017
0.045,0.017
0.042,0.019
0.044,0.019
0.043,0.021
0.043,0.022
0.041,0.023
0.042,0.024
0.041,0.026
0.040,0.023
0.040,0.031
0.042,0.028
0.041,0.032
0.040,0.029
0.042,0.033
0.040,0.030
0.046,0.034
0.042,0.032
0.046,0.036
0.042,0.035
0.047,0.036
0.042,0.037
0.043,0.036
0.041,0.038
0.040,0.037
0.027,0.041
0.010,0.038
-0.047,0.039
-0.096,0.039
-0.107,0.039
-0.095,0.042
-0.044,0.039
0.002,0.041
0.030,0.041
0.037,0.042
0.019,0.043
-0.009,0.046
-0.050,0.048
-0.054,0.047
-0.023,0.048
0.027,0.045
0.074,0.044
0.108,0.043
0.132,0.044
0.142,0.044
0.150,0.042
0.147,0.043
0.138,0.045
0.121,0.047
0.069,0.048
0.012,0.049
-0.023,0.048
-0.028,0.047
-0.005,0.047
0.030,0.046
0.062,0.049
0.088,0.048
0.101,0.050
0.107,0.045
0.112,0.046
0.113,0.044
0.120,0.043
0.121,0.044
0.118,0.044
0.114,0.041
0.107,0.041
0.102,0.038
0.094,0.036
0.083,0.034
0.076,0.039
0.064,0.035
0.062,0.040
0.058,0.037
0.059,0.037
0.058,0.034
0.062,0.034
0.060,0.036
0.060,0.034
0.053,0.034
0.054,0.030
0.055,0.031
0.052,0.026
0.056,0.030
0.055,0.024
0.055,0.024
0.051,0.023
0.050,0.019
0.050,0.021
0.053,0.021
0.049,0.023
0.049,0.017
0.048,0.020
0.051,0.017
0.047,0.018
0.045,0.014
0.045,0.015
0.044,0.014
0.044,0.013
0.044,0.011
0.048,0.010
0.049,0.010
0.050,0.008
0.051,0.007
0.050,0.005
0.048,0.008
0.048,0.006
0.047,0.008
0.047,0.005
0.049,0.007
0.047,0.003
0.051,0.001
0.048,0.005
0.048,0.002
0.046,0.002
0.047,-0.005
0.049,-0.007
0.049,-0.011
0.052,-0.008
0.046,-0.009
0.046,-0.006
0.044,-0.002
0.046,0.001
0.041,0.002
0.044,-0.000
0.045,0.001
0.043,-0.003
0.042,-0.003
0.042,-0.001
0.042,-0.002
0.043,-0.002
0.041,-0.003
0.045,-0.003
0.042,-0.006
0.042,-0.003
0.041,-0.002
0.041,-0.001
0.039,0.001
0.041,0.001
0.040,0.002
0.040,0.001
0.039,0.001
0.041,0.001
0.038,0.000
0.037,0.003
0.038,0.003
0.037,0.004
0.036,0.002
0.040,0.005
0.039,0.002
0.041,0.004
0.036,0.007
0.042,0.007
0.037,0.010
0.038,0.009
0.037,0.011
0.040,0.010
0.038,0.008
0.041,0.009
0.038,0.010
0.039,0.013
0.041,0.014
0.037,0.013
0.036,0.013
0.040,0.013
0.037,0.016
0.039,0.014
0.039,0.015
0.039,0.015
0.037,0.019
0.035,0.017
0.035,0.022
0.036,0.017
0.034,0.022
0.034,0.021
0.035,0.025
0.034,0.025
0.037,0.030
0.037,0.028
0.038,0.028
0.039,0.028
0.040,0.032
0.035,0.031
0.036,0.032
0.031,0.032
0.039,0.033
0.037,0.036
0.042,0.036
0.040,0.039
0.042,0.038
0.039,0.039
0.039,0.037
0.040,0.039
0.039,0.039
0.043,0.038
0.039,0.038
0.040,0.038
0.041,0.040
0.040,0.037
0.038,0.043
0.036,0.039
0.040,0.043
0.037,0.040
0.043,0.044
0.028,0.043
0.014,0.044
-0.021,0.048
-0.043,0.045
-0.060,0.044
-0.038,0.042
-0.005,0.043
0.029,0.043
0.057,0.043
0.077,0.043
0.087,0.042
0.088,0.048
0.093,0.047
0.092,0.049
0.094,0.048
0.090,0.049
0.083,0.047
0.075,0.047
0.065,0.049
0.060,0.049
0.053,0.051
0.049,0.049
0.051,0.047
0.047,0.044
0.048,0.044
0.046,0.045
0.043,0.045
0.031,0.046
0.029,0.042
0.027,0.041
0.032,0.038
0.036,0.039
0.034,0.037
0.032,0.038
0.026,0.043
0.027,0.039
0.030,0.037
0.035,0.036
0.047,0.037
0.058,0.033
0.066,0.034
0.069,0.032
0.068,0.030
0.066,0.031
0.060,0.030
0.059,0.031
0.054,0.030
0.052,0.028
0.052,0.025
0.050,0.026
0.050,0.027
0.049,0.023
0.050,0.023
0.048,0.017
0.049,0.018
0.049,0.017
0.044,0.015
0.043,0.018
0.043,0.015
0.044,0.015
0.046,0.016
0.043,0.015
0.047,0.016
0.047,0.013
0.046,0.011
0.048,0.009
0.044,0.006
0.044,0.012
0.043,0.009
0.041,0.012
0.043,0.007
0.044,0.006
0.041,0.003
0.045,0.006
0.043,0.008
0.043,0.009
0.041,0.007
0.044,0.006
0.047,0.004
0.047,0.003
0.046,0.002
0.047,-0.000
0.043,0.000
0.039,0.000
0.036,-0.003
0.035,-0.002
0.040,-0.005
0.048,-0.005
0.049,-0.003
0.051,-0.002
0.050,0.001
0.050,-0.002
0.045,-0.002
0.045,-0.003
0.048,-0.003
0.046,-0.004
0.044,-0.004
0.044,0.000
0.041,-0.000
0.040,0.004
0.038,0.000
0.043,0.001
0.040,-0.002
0.042,0.001
0.041,0.004
0.042,0.002
0.036,0.010
0.042,0.008
0.039,0.009
0.040,0.007
0.041,0.008
0.042,0.010
0.041,0.009
0.040,0.009
0.038,0.009
0.038,0.009
0.040,0.009
0.041,0.009
0.042,0.011
0.043,0.010
0.043,0.014
0.040,0.013
0.041,0.017
0.037,0.016
0.042,0.019
0.041,0.015
0.042,0.017
0.041,0.017
0.042,0.017
0.039,0.019
0.042,0.018
0.039,0.018
0.041,0.021
0.036,0.022
0.041,0.024
0.038,0.028
0.041,0.029
0.039,0.030
0.039,0.030
0.039,0.032
0.041,0.031
0.040,0.032
0.040,0.030
0.040,0.033
0.037,0.033
0.026,0.036
-0.002,0.034
-0.021,0.035
-0.036,0.038
-0.055,0.038
-0.053,0.040
-0.033,0.038
-0.008,0.042
0.018,0.042
0.042,0.043
0.059,0.042
0.073,0.043
0.088,0.042
0.114,0.041
0.120,0.040
0.120,0.038
0.108,0.042
0.099,0.042
0.084,0.043
0.075,0.043
0.068,0.045
0.061,0.046
0.055,0.047
0.050,0.051
0.050,0.049
0.048,0.050
0.047,0.047
0.049,0.046
0.048,0.046
0.046,0.048
0.046,0.050
0.045,0.047
0.044,0.049
0.042,0.049
0.045,0.048
0.043,0.048
0.046,0.047
0.042,0.050
0.045,0.051
0.045,0.052
0.045,0.050
0.049,0.050
0.047,0.048
0.046,0.048
0.046,0.047
0.045,0.046
0.044,0.047
0.043,0.046
0.045,0.044
0.044,0.043
0.048,0.043
0.045,0.043
0.047,0.040
0.044,0.042
0.045,0.041
0.046,0.040
0.043,0.041
0.045,0.039
0.047,0.040
0.047,0.037
0.047,0.041
0.046,0.038
0.046,0.036
0.045,0.032
0.045,0.035
0.045,0.030
0.046,0.033
0.046,0.033
0.049,0.030
0.049,0.032
0.049,0.030
0.049,0.030
0.051,0.026
0.047,0.025
0.049,0.022
0.048,0.021
0.048,0.017
0.046,0.018
0.047,0.015
0.047,0.015
0.045,0.011
0.048,0.014
0.047,0.013
0.048,0.014
0.046,0.012
0.047,0.009
0.044,0.011
0.046,0.009
0.047,0.007
0.045,0.003
0.049,0.006
0.048,0.004
0.048,0.003
0.045,0.005
0.045,0.005
0.042,0.005
0.045,0.002
0.045,0.002
0.045,0.000
0.048,0.000
0.049,-0.002
0.049,-0.001
0.047,0.000
0.049,0.001
0.047,0.003
0.045,-0.001
0.047,-0.003
0.049,-0.003
0.048,-0.004
0.046,-0.001
0.046,-0.000
0.045,0.003
0.043,-0.001
0.049,0.002
0.048,-0.002
0.049,-0.000
0.047,-0.001
0.046,-0.002
0.040,0.003
0.043,-0.000
0.041,0.004
0.042,-0.003
0.045,-0.002
0.043,-0.002
0.045,0.001
0.042,0.004
0.043,0.004
0.042,0.004
0.042,0.005
0.042,0.003
0.042,0.004
0.045,0.006
0.044,0.009
0.040,0.010
0.043,0.011
0.041,0.010
0.044,0.011
0.040,0.011
0.045,0.012
0.043,0.013
0.045,0.015
0.040,0.014
0.039,0.014
0.038,0.014
0.039,0.015
0.042,0.016
0.043,0.014
0.043,0.016
0.044,0.018
0.041,0.018
0.041,0.020
0.041,0.019
0.042,0.020
0.042,0.020
0.040,0.021
0.038,0.022
0.040,0.024
0.040,0.026
0.042,0.027
0.042,0.028
0.044,0.032
0.042,0.030
0.045,0.032
0.045,0.029
0.041,0.031
0.042,0.034
0.044,0.032
0.041,0.032
0.043,0.031
0.039,0.037
0.043,0.034
0.041,0.038
0.041,0.037
0.040,0.040
0.042,0.039
0.042,0.039
0.044,0.041
0.045,0.042
0.043,0.044
0.043,0.045
0.043,0.045
0.045,0.044
0.046,0.043
0.045,0.042
0.043,0.042
0.041,0.046
0.041,0.046
0.040,0.047
0.039,0.045
0.043,0.049
0.043,0.046
0.047,0.047
0.043,0.050
0.044,0.047
0.040,0.047
0.042,0.045
0.040,0.046
0.040,0.045
0.042,0.047
0.042,0.045
0.041,0.048
0.041,0.050
0.043,0.050
0.042,0.050
0.041,0.050
0.044,0.047
0.043,0.047
0.046,0.049
0.044,0.048
0.046,0.046
0.041,0.049
0.043,0.046
0.043,0.049
0.043,0.046
0.046,0.045
0.048,0.044
0.047,0.045
0.043,0.044
0.044,0.042
0.044,0.042
0.043,0.040
0.044,0.041
0.042,0.037
0.046,0.039
0.046,0.042
0.046,0.038
0.041,0.039
0.042,0.038
0.045,0.035
0.046,0.032
0.047,0.034
0.046,0.033
0.046,0.033
0.043,0.034
0.043,0.032
0.043,0.030
0.043,0.028
0.044,0.026
0.046,0.025
0.048,0.027
0.049,0.021
0.049,0.022
0.047,0.020
0.047,0.022
0.046,0.018
0.046,0.017
0.045,0.015
0.044,0.013
0.047,0.012
0.048,0.012
0.046,0.013
0.047,0.013
0.047,0.014
0.046,0.011
0.047,0.008
0.047,0.004
0.050,0.005
0.049,0.007
0.047,0.005
0.046,0.006
0.048,0.007
0.042,0.006
0.044,0.005
0.047,0.004
0.043,0.002
0.045,0.003
0.044,0.004
0.043,0.004
0.041,0.006
0.042,-0.001
0.045,-0.001
0.045,-0.001
0.047,-0.003
0.042,-0.002
0.044,0.001
0.044,-0.001
0.047,-0.002
0.045,-0.003
0.048,-0.002
0.045,-0.002
0.047,-0.002
0.046,-0.002
0.044,0.002
0.045,-0.001
0.046,0.001
0.042,-0.002
0.046,-0.003
0.044,-0.002
0.044,-0.003
0.040,0.001
0.041,-0.001
0.038,0.002
0.039,0.001
0.041,0.004
0.041,-0.000
0.040,0.003
0.044,0.001
0.044,0.004
0.042,0.006
0.043,0.007
0.041,0.010
0.042,0.008
0.043,0.008
0.045,0.008
0.044,0.011
0.044,0.011
0.044,0.012
0.041,0.014
0.038,0.011
0.039,0.011
0.039,0.010
0.042,0.015
0.039,0.012
0.028,0.015
0.010,0.013
-0.028,0.016
-0.049,0.018
-0.051,0.021
-0.030,0.018
0.004,0.020
0.034,0.017
0.062,0.019
0.077,0.023
0.084,0.024
0.091,0.024
0.096,0.026
0.096,0.030
0.094,0.030
0.091,0.031
0.085,0.030
0.074,0.032
0.068,0.031
0.061,0.029
0.057,0.033
0.052,0.033
0.049,0.036
0.046,0.034
0.042,0.039
0.044,0.038
0.046,0.038
0.044,0.039
0.046,0.038
0.045,0.042
0.044,0.039
0.043,0.043
0.043,0.040
0.043,0.041
0.041,0.039
0.045,0.042
0.044,0.039
0.043,0.037
0.042,0.042
0.042,0.044
0.039,0.047
0.039,0.045
0.043,0.047
0.042,0.049
0.042,0.044
0.043,0.048
0.043,0.046
0.040,0.049
0.036,0.048
0.036,0.046
0.034,0.047
0.037,0.048
0.043,0.047
0.049,0.046
0.049,0.051
0.048,0.050
0.045,0.054
0.045,0.049
0.046,0.050
0.046,0.048
0.045,0.047
0.044,0.047
0.044,0.048
0.044,0.049
0.041,0.049
0.043,0.046
0.044,0.047
0.043,0.045
0.045,0.045
0.042,0.045
0.041,0.046
0.044,0.044
0.044,0.046
0.043,0.040
0.048,0.041
0.043,0.040
0.048,0.040
0.045,0.041
0.049,0.041
0.046,0.042
0.050,0.039
0.047,0.037
0.047,0.034
0.042,0.034
0.046,0.036
0.046,0.034
0.044,0.033
0.045,0.032
0.048,0.030
0.047,0.027
0.049,0.029
0.047,0.026
0.053,0.025
0.048,0.022
0.051,0.024
0.049,0.020
0.051,0.019
0.048,0.016
0.049,0.016
0.045,0.016
0.049,0.016
0.044,0.016
0.049,0.014
0.045,0.015
0.045,0.013
0.047,0.013
0.049,0.013
0.049,0.009
0.052,0.010
0.050,0.007
0.051,0.007
0.047,0.004
0.047,0.009
0.046,0.004
0.049,0.004
0.047,0.003
0.050,0.001
0.047,0.005
0.046,0.002
0.045,0.006
0.048,0.003
0.048,0.004
0.046,-0.000
0.052,-0.002
0.048,0.000
0.049,0.001
0.045,0.001
0.045,-0.001
0.043,-0.000
0.043,-0.002
0.047,-0.001
0.044,-0.003
0.048,-0.003
0.046,-0.001
0.048,-0.005
0.045,-0.000
0.047,-0.003
0.047,-0.002
0.049,-0.003
0.050,-0.002
0.048,-0.003
0.049,-0.003
0.045,0.001
0.047,-0.002
0.043,-0.001
0.044,-0.002
0.045,0.000
0.045,0.000
0.044,0.004
0.044,0.008
0.043,0.009
0.043,0.008
0.041,0.006
0.045,0.008
0.041,0.004
0.044,0.006
0.041,0.008
0.046,0.008
0.044,0.010
0.045,0.009
0.039,0.010
0.042,0.010
0.043,0.011
0.045,0.010
0.043,0.015
0.045,0.013
0.043,0.014
0.041,0.015
0.043,0.016
0.043,0.015
0.042,0.015
0.043,0.017
0.042,0.016
0.041,0.018
0.039,0.019
0.039,0.022
0.040,0.021
0.039,0.023
0.040,0.024
0.041,0.028
0.040,0.027
0.040,0.029
0.040,0.030
0.040,0.031
0.040,0.032
0.040,0.032
0.039,0.035
0.040,0.033
0.039,0.034
0.039,0.036
0.039,0.038
0.041,0.037
0.041,0.041
0.041,0.037
0.043,0.039
0.041,0.038
0.043,0.041
0.037,0.041
0.042,0.041
0.040,0.041
0.041,0.042
0.042,0.041
0.041,0.040
0.041,0.040
0.042,0.047
0.038,0.043
0.039,0.047
0.038,0.044
0.043,0.048
0.042,0.046
0.044,0.047
0.042,0.048
0.043,0.046
0.041,0.050
0.038,0.046
0.041,0.046
0.040,0.045
0.045,0.041
0.040,0.045
0.045,0.047
0.041,0.049
0.043,0.049
0.042,0.051
0.044,0.047
0.043,0.047
0.045,0.046
0.046,0.048
0.044,0.050
0.046,0.047
0.041,0.054
0.040,0.050
0.047,0.049
0.044,0.044
0.046,0.041
0.044,0.044
0.044,0.043
0.045,0.046
0.044,0.047
0.047,0.043
0.046,0.042
0.049,0.041
0.049,0.041
0.047,0.037
0.044,0.041
0.043,0.038
0.046,0.038
0.047,0.035
0.048,0.033
0.046,0.036
0.048,0.034
0.043,0.037
0.046,0.034
0.045,0.034
0.047,0.032
0.047,0.031
0.047,0.027
0.045,0.028
0.043,0.024
0.028,0.025
0.001,0.026
-0.026,0.023
-0.053,0.022
-0.053,0.017
-0.037,0.016
-0.003,0.015
0.026,0.015
0.054,0.016
0.072,0.016
0.086,0.013
0.091,0.015
0.096,0.013
0.101,0.011
0.101,0.010
0.100,0.012
0.094,0.008
0.084,0.008
0.078,0.010
0.068,0.009
0.060,0.010
0.057,0.006
0.059,0.005
0.056,0.003
0.053,0.002
0.050,0.004
0.049,0.004
0.047,0.003
0.048,0.003
0.050,-0.000
0.050,0.001
0.052,0.000
0.050,0.002
0.051,-0.001
0.048,0.000
0.048,-0.003
0.052,-0.003
0.048,-0.006
0.051,-0.005
0.049,-0.003
0.049,-0.002
0.045,0.000
0.048,-0.003
0.045,-0.001
0.048,-0.003
0.048,-0.005
0.046,-0.003
0.047,-0.002
0.046,0.000
0.046,0.002
0.042,0.000
0.044,0.000
0.047,0.000
0.046,-0.001
0.047,-0.001
0.046,-0.000
0.047,0.002
0.046,0.004
0.044,0.006
0.048,0.004
0.045,0.004
0.047,0.003
0.044,0.006
0.046,0.002
0.042,0.007
0.044,0.006
0.044,0.009
0.044,0.005
0.045,0.007
0.046,0.005
0.043,0.009
0.043,0.012
0.043,0.013
0.041,0.018
0.041,0.017
0.040,0.017
0.041,0.016
0.044,0.015
0.042,0.013
0.042,0.016
0.044,0.016
0.043,0.018
0.042,0.018
0.044,0.018
0.040,0.019
0.040,0.020
0.039,0.025
0.043,0.025
0.049,0.029
0.050,0.026
0.031,0.034
0.019,0.031
0.013,0.033
0.008,0.032
0.013,0.035
0.017,0.032
0.025,0.034
0.030,0.033
0.047,0.033
0.058,0.036
0.068,0.038
0.065,0.039
0.063,0.041
0.057,0.042
0.057,0.039
0.053,0.041
0.050,0.042
0.044,0.042
0.041,0.043
0.038,0.041
0.035,0.043
0.032,0.042
0.035,0.044
0.036,0.040
0.041,0.042
0.046,0.045
0.046,0.045
0.046,0.048
0.045,0.049
0.044,0.049
0.043,0.049
0.045,0.047
0.045,0.046
0.045,0.042
0.044,0.047
0.043,0.043
0.041,0.048
0.041,0.045
0.042,0.048
0.040,0.046
0.043,0.045
0.040,0.047
0.041,0.045
0.039,0.051
0.040,0.047
0.040,0.051
0.038,0.049
0.041,0.050
0.043,0.046
0.042,0.046
0.043,0.047
0.046,0.043
0.042,0.046
0.043,0.047
0.043,0.046
0.044,0.040
0.044,0.040
0.046,0.040
0.045,0.040
0.044,0.041
0.044,0.039
0.045,0.038
0.045,0.037
0.047,0.032
0.045,0.036
0.048,0.035
0.044,0.037
0.047,0.035
0.044,0.033
0.043,0.032
0.046,0.031
0.044,0.032
0.044,0.028
0.043,0.032
0.045,0.027
0.043,0.029
0.045,0.024
0.045,0.025
0.045,0.022
0.049,0.021
0.044,0.019
0.049,0.019
0.046,0.017
0.049,0.018
0.046,0.013
0.047,0.014
0.045,0.013
0.045,0.012
0.044,0.012
0.047,0.010
0.045,0.011
0.048,0.010
0.044,0.010
0.045,0.010
0.047,0.010
0.046,0.001
0.050,0.003
0.049,0.001
0.047,0.002
0.046,0.005
0.047,0.004
0.042,0.002
0.044,0.002
0.044,0.004
0.045,0.001
0.046,0.001
0.045,0.001
0.046,-0.000
0.045,-0.000
0.046,-0.001
0.048,-0.001
0.045,-0.004
0.050,-0.002
0.047,-0.003
0.048,-0.006
0.047,-0.001
0.046,-0.003
0.046,0.001
0.049,-0.001
0.050,-0.002
0.048,-0.002
0.045,-0.001
0.044,-0.000
0.046,-0.000
0.043,-0.000
0.044,-0.001
0.046,-0.001
0.043,-0.001
0.045,-0.000
0.045,0.000
0.046,0.000
0.041,0.001
0.043,0.003
0.039,0.005
0.043,0.002
0.043,0.003
0.044,0.002
0.043,0.004
0.046,0.008
0.043,0.007
0.044,0.006
0.042,0.006
0.045,0.008
0.043,0.008
0.044,0.007
0.043,0.010
0.043,0.009
0.041,0.014
0.042,0.012
0.043,0.015
0.042,0.012
0.045,0.015
0.042,0.014
0.043,0.013
0.041,0.016
0.041,0.017
0.039,0.017
0.040,0.019
0.038,0.017
0.039,0.018
0.038,0.016
0.039,0.018
0.039,0.023
0.042,0.023
0.038,0.026
0.040,0.027
0.041,0.030
0.040,0.030
0.043,0.031
0.040,0.030
0.042,0.030
0.041,0.033
0.041,0.034
0.042,0.035
0.041,0.034
0.040,0.037
0.040,0.035
0.041,0.037
0.038,0.036
0.040,0.037
0.038,0.036
0.041,0.038
0.040,0.039
0.041,0.037
0.037,0.040
0.040,0.039
0.042,0.041
0.038,0.038
0.025,0.039
0.008,0.037
-0.031,0.040
-0.051,0.043
-0.055,0.042
-0.035,0.041
0.001,0.044
0.033,0.044
0.059,0.041
0.076,0.041
0.088,0.044
0.093,0.044
0.099,0.046
0.097,0.045
0.097,0.047
0.090,0.044
0.081,0.044
0.069,0.043
0.064,0.042
0.057,0.045
0.055,0.046
0.050,0.048
0.050,0.047
0.046,0.048
0.049,0.045
0.048,0.043
0.048,0.046
0.044,0.044
0.044,0.045
0.044,0.043
0.043,0.042
0.043,0.041
0.045,0.043
0.043,0.041
0.047,0.040
0.044,0.041
0.045,0.039
0.040,0.043
0.044,0.040
0.045,0.041
0.045,0.036
0.046,0.037
0.044,0.041
0.045,0.036
0.044,0.038
0.043,0.033
0.048,0.032
0.044,0.032
0.046,0.030
0.043,0.031
0.045,0.030
0.040,0.029
0.047,0.028
0.042,0.030
0.048,0.026
0.045,0.025
0.048,0.022
0.047,0.022
0.046,0.018
0.047,0.021
0.046,0.014
0.048,0.016
0.047,0.012
0.046,0.013
0.045,0.012
0.045,0.009
0.046,0.013
0.047,0.013
0.045,0.014
0.047,0.012
0.044,0.011
0.047,0.008
0.046,0.009
0.048,0.006
0.049,0.003
0.047,0.003
0.045,0.003
0.045,0.006
0.045,0.004
0.045,0.005
0.043,0.003
0.048,0.004
0.045,0.001
0.047,0.002
0.045,0.003
0.045,0.000
0.042,0.001
0.044,-0.000
0.045,-0.002
0.045,-0.006
0.047,-0.006
0.045,-0.005
0.044,-0.006
0.044,-0.003
0.044,-0.004
0.045,-0.001
0.046,-0.005
0.049,-0.003
0.047,-0.005
0.049,-0.005
0.045,-0.003
0.048,-0.004
0.044,-0.004
0.045,-0.003
0.045,-0.005
0.044,-0.004
0.043,-0.005
0.042,-0.001
0.040,-0.002
0.043,-0.001
0.041,-0.001
0.048,-0.002
0.044,-0.003
0.048,-0.001
0.046,0.001
0.048,-0.000
0.045,0.004
0.046,0.001
0.043,0.004
0.043,0.003
0.047,0.003
0.045,0.003
0.046,0.005
0.045,0.009
0.046,0.008
0.039,0.008
0.042,0.007
0.041,0.009
0.042,0.008
0.045,0.009
0.044,0.011
0.043,0.010
0.043,0.016
0.042,0.013
0.043,0.016
0.043,0.014
0.044,0.017
0.040,0.015
0.044,0.015
0.041,0.015
0.044,0.018
0.042,0.020
0.045,0.022
0.044,0.023
0.045,0.025
0.044,0.026
0.045,0.027
0.042,0.031
0.043,0.029
0.043,0.034
0.040,0.029
0.040,0.034
0.043,0.032
0.044,0.034
0.041,0.036
0.044,0.036
0.041,0.034
0.046,0.036
0.043,0.036
0.044,0.034
0.042,0.040
0.042,0.039
0.041,0.039
0.044,0.039
0.044,0.037
0.047,0.038
0.043,0.038
0.042,0.043
0.042,0.043
0.038,0.042
0.037,0.043
0.042,0.046
0.039,0.043
0.045,0.044
0.043,0.046
0.046,0.046
0.045,0.047
0.047,0.046
0.045,0.045
0.045,0.044
0.043,0.046
0.046,0.047
0.044,0.046
0.047,0.048
0.043,0.048
0.046,0.050
0.043,0.048
0.047,0.049
0.043,0.049
0.049,0.049
0.045,0.049
0.048,0.048
0.043,0.049
0.044,0.045
0.047,0.046
0.048,0.041
0.047,0.041
0.047,0.044
0.046,0.045
0.043,0.044
0.042,0.043
0.044,0.041
0.046,0.042
0.046,0.042
0.046,0.041
0.042,0.041
0.044,0.043
0.043,0.039
0.045,0.039
0.045,0.037
0.050,0.036
0.045,0.035
0.047,0.035
0.043,0.037
0.045,0.036
0.042,0.037
0.046,0.035
0.044,0.034
0.044,0.031
0.045,0.028
0.044,0.026
0.048,0.025
0.048,0.023
0.048,0.020
0.049,0.021
0.050,0.018
0.050,0.019
0.048,0.016
0.047,0.018
0.046,0.014
0.045,0.019
0.047,0.013
0.046,0.015
0.045,0.010
0.048,0.011
0.046,0.008
0.047,0.010
0.047,0.005
0.048,0.006
0.046,0.006
0.047,0.006
0.042,0.006
0.043,0.004
0.044,0.003
0.047,-0.000
0.047,0.002
0.046,0.000
0.045,0.000
0.044,0.004
0.044,0.001
0.049,0.003
0.047,0.000
0.050,-0.002
0.045,0.001
0.048,-0.003
0.044,-0.000
0.046,-0.001
0.046,-0.001
0.049,-0.005
0.048,-0.002
0.048,-0.003
0.047,-0.005
0.047,-0.003
0.046,-0.005
0.044,-0.004
0.045,-0.004
0.046,0.000
0.045,-0.004
0.042,-0.005
0.044,-0.002
0.044,-0.004
0.043,-0.003
0.043,-0.003
0.046,-0.000
0.045,-0.002
0.046,-0.001
0.047,0.001
0.047,-0.000
0.044,0.002
0.044,0.003
0.045,0.004
0.045,0.003
0.046,0.002
0.044,0.000
0.043,0.002
0.044,0.007
0.043,0.006
0.040,0.005
0.041,0.004
0.043,0.008
0.040,0.009
0.044,0.009
0.041,0.008
0.041,0.011
0.038,0.014
0.040,0.014
0.038,0.013
0.040,0.014
0.040,0.012
0.042,0.013
0.043,0.013
0.041,0.016
0.040,0.012
0.043,0.017
0.042,0.018
0.042,0.021
0.042,0.019
0.041,0.023
0.037,0.025
0.037,0.028
0.038,0.028
0.036,0.030
0.037,0.032
0.035,0.033
0.040,0.030
0.039,0.031
0.040,0.032
0.039,0.031
0.040,0.031
0.039,0.032
0.040,0.032
0.038,0.034
0.036,0.034
0.039,0.036
0.040,0.038
0.039,0.037
0.042,0.040
0.040,0.036
0.041,0.038
0.041,0.037
0.045,0.036
0.041,0.037
0.040,0.039
0.040,0.042
0.040,0.040
0.039,0.041
0.042,0.038
0.042,0.043
0.042,0.041
0.044,0.043
0.045,0.046
0.045,0.045
0.044,0.048
0.043,0.046
0.043,0.044
0.044,0.043
0.045,0.043
0.042,0.040
0.041,0.045
0.042,0.048
0.043,0.046
0.040,0.046
0.044,0.046
0.045,0.046
0.048,0.046
0.047,0.044
0.045,0.049
0.044,0.047
0.043,0.048
0.044,0.044
0.047,0.045
0.043,0.044
0.047,0.046
0.043,0.043
0.046,0.043
0.042,0.047
0.045,0.043
0.042,0.045
0.043,0.040
0.046,0.040
0.045,0.038
0.047,0.043
0.044,0.043
0.045,0.041
0.043,0.040
0.045,0.040
0.047,0.037
0.047,0.036
0.047,0.033
0.044,0.037
0.044,0.036
0.043,0.037
0.042,0.033
0.046,0.035
0.045,0.029
0.049,0.028
0.046,0.027
0.047,0.027
0.048,0.027
0.047,0.024
0.046,0.025
0.047,0.021
0.045,0.020
0.046,0.020
0.044,0.018
0.047,0.018
0.047,0.014
0.047,0.015
0.047,0.012
0.044,0.012
0.047,0.011
0.046,0.011
0.047,0.010
0.049,0.010
0.048,0.009
0.047,0.010
0.048,0.008
0.047,0.007
0.046,0.004
0.051,0.004
0.047,0.003
0.048,0.002
0.047,0.006
0.049,0.002
0.043,0.006
0.045,0.001
0.046,0.003
0.049,0.001
0.049,0.003
0.050,-0.001
0.048,-0.002
0.048,0.000
0.047,-0.002
0.048,-0.003
0.047,-0.003
0.048,-0.005
0.050,-0.005
0.050,-0.004
0.048,-0.000
0.047,-0.003
0.046,0.001
0.046,-0.001
0.053,0.000
0.048,-0.003
0.049,-0.004
0.046,0.000
0.046,0.000
0.045,-0.001
0.048,0.000
0.047,-0.000
0.047,-0.004
0.048,-0.003
0.047,0.000
0.045,-0.001
0.044,0.002
0.045,0.001
0.047,0.004
0.043,0.001
0.050,0.005
0.048,0.001
0.047,0.002
0.045,0.006
0.045,0.007
0.045,0.008
0.045,0.008
0.045,0.010
0.045,0.008
0.042,0.008
0.046,0.010
0.041,0.008
0.042,0.010
0.042,0.013
0.042,0.012
0.043,0.011
0.046,0.010
0.044,0.011
0.047,0.011
0.046,0.016
0.046,0.014
0.040,0.020
0.042,0.014
0.039,0.017
0.042,0.017
0.040,0.022
0.041,0.021
0.039,0.024
0.038,0.026
0.040,0.028
0.040,0.025
0.043,0.029
0.041,0.025
0.044,0.031
0.040,0.032
0.047,0.031
0.043,0.031
0.045,0.032
0.041,0.036
0.043,0.033
0.042,0.036
0.043,0.034
0.042,0.038
0.043,0.038
0.044,0.040
0.045,0.038
0.044,0.038
0.045,0.040
0.044,0.040
0.043,0.043
0.043,0.039
0.047,0.042
0.044,0.039
0.046,0.041
0.044,0.042
0.045,0.041
0.038,0.045
0.044,0.044
0.042,0.047
0.043,0.046
0.042,0.048
0.047,0.045
0.045,0.044
0.028,0.043
-0.003,0.044
-0.032,0.048
-0.058,0.046
-0.059,0.048
-0.042,0.047
-0.004,0.047
0.027,0.047
0.057,0.045
0.072,0.048
0.085,0.046
0.086,0.048
0.089,0.044
0.094,0.047
0.093,0.040
0.094,0.046
0.087,0.046
0.081,0.043
0.069,0.046
0.065,0.044
0.057,0.046
0.054,0.042
0.054,0.043
0.053,0.042
0.050,0.040
0.047,0.042
0.048,0.041
0.049,0.040
0.049,0.039
0.050,0.038
0.048,0.039
0.049,0.038
0.048,0.037
0.048,0.035
0.044,0.036
0.045,0.030
0.048,0.029
0.047,0.026
0.048,0.026
0.049,0.031
0.051,0.026
0.049,0.028
0.049,0.026
0.047,0.027
0.049,0.025
0.051,0.024
0.049,0.017
0.051,0.020
0.047,0.016
0.051,0.020
0.049,0.014
0.050,0.015
0.049,0.010
0.050,0.012
0.048,0.010
0.050,0.009
0.048,0.013
0.052,0.011
0.047,0.015
0.053,0.013
0.048,0.013
0.050,0.007
0.051,0.009
0.053,0.006
0.052,0.006
0.052,0.006
0.050,0.006
0.047,0.004
0.049,0.005
0.048,0.005
0.050,0.002
0.051,0.004
0.051,0.005
0.046,0.003
0.046,0.002
0.047,0.003
0.050,0.000
0.049,-0.001
0.052,-0.001
0.049,-0.004
0.049,-0.003
0.047,0.000
0.049,-0.002
0.044,0.001
0.047,-0.001
0.047,0.002
0.049,-0.002
0.049,-0.003
0.050,-0.002
0.049,-0.003
0.046,0.001
0.047,-0.001
0.044,-0.001
0.045,-0.003
0.047,0.000
0.047,-0.001
0.046,0.004
0.046,0.006
0.047,0.003
0.044,0.003
0.045,0.000
0.047,0.004
0.048,0.002
0.046,0.006
0.045,0.009
0.045,0.010
0.043,0.006
0.041,0.006
0.043,0.010
0.047,0.008
0.044,0.008
0.045,0.012
0.046,0.012
0.045,0.013
0.042,0.011
0.043,0.012
0.042,0.011
0.046,0.012
0.045,0.013
0.045,0.013
0.047,0.015
0.045,0.016
0.043,0.020
0.043,0.017
0.042,0.017
0.040,0.018
0.043,0.015
0.043,0.017
0.042,0.018
0.040,0.020
0.044,0.021
0.041,0.024
0.043,0.028
0.045,0.028
0.047,0.030
0.046,0.028
0.045,0.030
0.045,0.028
0.043,0.029
0.043,0.031
0.044,0.032
0.042,0.035
0.042,0.034
0.041,0.035
0.040,0.036
0.042,0.037
0.044,0.036
0.043,0.034
0.045,0.036
0.045,0.034
0.042,0.039
0.044,0.038
0.044,0.039
0.043,0.039
0.045,0.041
0.045,0.039
0.045,0.040
0.044,0.041
0.044,0.040
0.043,0.047
0.043,0.046
0.041,0.047
0.044,0.047
0.047,0.045
0.046,0.046
0.048,0.044
0.047,0.048
0.047,0.047
0.048,0.049
0.046,0.045
0.044,0.044
0.043,0.044
0.047,0.043
0.044,0.047
0.043,0.049
0.043,0.050
0.044,0.050
0.045,0.049
0.045,0.049
0.048,0.046
0.048,0.047
0.048,0.045
0.045,0.049
0.045,0.046
0.049,0.048
0.046,0.041
0.050,0.042
0.048,0.040
0.049,0.041
0.046,0.044
0.047,0.042
0.045,0.044
0.045,0.040
0.047,0.039
0.046,0.036
0.050,0.039
0.049,0.039
0.049,0.036
0.046,0.036
0.047,0.036
0.048,0.033
0.047,0.033
0.044,0.034
0.047,0.034
0.048,0.031
0.048,0.031
0.049,0.030
0.049,0.028
0.047,0.027
0.051,0.029
0.049,0.024
0.051,0.024
0.050,0.019
0.052,0.018
0.049,0.017
0.052,0.015
0.051,0.016
0.051,0.016
0.049,0.015
0.049,0.011
0.046,0.013
0.048,0.011
0.046,0.013
0.048,0.012
0.046,0.009
0.047,0.007
0.049,0.007
0.051,0.006
0.050,0.005
0.052,0.004
0.048,0.003
0.046,0.003
0.047,0.002
0.047,0.002
0.046,0.002
0.049,0.002
0.047,0.008
0.048,0.005
0.045,0.008
0.045,0.006
0.049,0.004
0.049,0.001
0.051,-0.001
0.049,-0.002
0.054,-0.003
0.049,-0.001
0.051,-0.003
0.048,-0.002
0.047,-0.003
0.048,-0.001
0.047,-0.003
0.047,-0.003
0.050,0.001
0.049,-0.002
0.049,0.001
0.048,-0.001
0.049,0.001
0.047,-0.006
0.051,-0.004
0.049,-0.003
0.050,-0.004
0.047,-0.002
0.049,-0.002
0.044,-0.001
0.046,-0.003
0.046,0.000
0.047,-0.001
0.044,0.000
0.047,0.004
0.046,0.007
0.045,0.004
0.045,0.002
0.048,0.002
0.045,0.002
0.048,0.001
0.047,0.007
0.046,0.004
0.046,0.007
0.046,0.005
0.047,0.007
0.043,0.005
0.048,0.006
0.048,0.007
0.045,0.008
0.045,0.012
0.045,0.013
0.043,0.011
0.044,0.014
0.045,0.012
0.046,0.013
0.047,0.013
0.047,0.014
0.047,0.013
0.047,0.016
0.044,0.016
0.045,0.019
0.043,0.019
0.040,0.022
0.041,0.022
0.044,0.024
0.041,0.023
0.044,0.028
0.043,0.028
0.040,0.031
0.039,0.028
0.042,0.030
0.044,0.030
0.045,0.030
0.040,0.030
0.043,0.034
0.041,0.033
0.042,0.035
0.041,0.036
0.043,0.036
0.038,0.038
0.042,0.036
0.041,0.039
0.041,0.036
0.045,0.037
0.043,0.038
0.043,0.037
0.044,0.037
0.044,0.038
0.042,0.039
0.040,0.041
0.041,0.042
0.043,0.040
0.041,0.041
0.044,0.045
0.042,0.045
0.044,0.047
0.041,0.045
0.042,0.045
0.042,0.044
0.044,0.047
0.043,0.042
0.044,0.044
0.042,0.043
0.045,0.045
0.043,0.046
0.043,0.048
0.043,0.049
0.043,0.047
0.043,0.045
0.043,0.047
0.046,0.048
0.042,0.048
0.043,0.046
0.043,0.047
0.042,0.045
0.046,0.045
0.044,0.042
0.048,0.043
0.047,0.044
0.047,0.043
0.043,0.044
0.044,0.044
0.043,0.043
0.048,0.038
0.049,0.037
0.048,0.040
0.048,0.039
0.049,0.040
0.046,0.038
0.048,0.037
0.044,0.035
0.047,0.035
0.046,0.033
0.046,0.030
0.046,0.035
0.046,0.032
0.044,0.033
0.046,0.028
0.049,0.030
0.044,0.024
0.046,0.026
0.045,0.024
0.050,0.023
0.048,0.022
0.047,0.021
0.047,0.023
0.049,0.019
0.045,0.019
0.044,0.015
0.043,0.016
0.043,0.016
0.043,0.014
0.044,0.014
0.043,0.013
0.041,0.012
0.044,0.012
0.047,0.012
0.046,0.010
0.046,0.010
0.045,0.008
0.046,0.010
0.045,0.005
0.045,0.005
0.043,0.003
0.047,0.004
0.047,0.000
0.047,0.001
0.047,0.004
0.045,0.002
0.041,0.007
0.046,0.001
0.048,0.001
0.048,-0.002
0.051,-0.002
0.048,0.001
0.046,-0.000
0.044,-0.002
0.045,-0.002
0.044,-0.003
0.043,-0.004
0.042,-0.003
0.029,-0.002
0.014,0.000
-0.022,0.000
-0.050,-0.003
-0.055,-0.003
-0.040,-0.003
0.000,-0.002
0.034,-0.005
0.062,-0.006
0.078,-0.005
0.089,-0.004
0.094,-0.002
0.098,0.000
0.101,0.001
0.100,-0.001
0.093,0.000
0.087,0.002
0.078,0.002
0.069,0.003
0.060,0.003
0.058,0.004
0.053,0.002
0.052,0.005
0.046,0.005
0.047,0.003
0.044,0.008
0.045,0.009
0.043,0.011
0.043,0.010
0.047,0.010
0.046,0.008
0.046,0.008
0.044,0.009
0.045,0.010
0.039,0.015
0.043,0.015
0.041,0.015
0.042,0.013
0.043,0.018
0.043,0.018
0.042,0.015
0.042,0.017
0.039,0.017
0.040,0.020
0.040,0.020
0.042,0.023
0.042,0.023
0.042,0.023
0.041,0.025
0.040,0.028
0.038,0.025
0.035,0.030
0.033,0.030
0.032,0.031
0.033,0.030
0.039,0.032
0.042,0.032
0.052,0.032
0.052,0.031
0.053,0.036
0.046,0.035
0.046,0.035
0.043,0.036
0.045,0.037
0.041,0.041
0.042,0.039
0.042,0.041
0.044,0.040
0.045,0.042
0.042,0.039
0.043,0.042
0.041,0.043
0.041,0.042
0.041,0.043
0.039,0.044
0.043,0.044
0.041,0.043
0.042,0.044
0.040,0.046
0.042,0.046
0.039,0.050
0.038,0.049
0.042,0.050
0.039,0.047
0.045,0.047
0.040,0.044
0.045,0.044
0.040,0.048
0.041,0.047
0.036,0.047
0.038,0.047
0.041,0.049
0.042,0.049
0.042,0.048
0.043,0.049
0.043,0.047
0.044,0.052
0.040,0.048
0.045,0.050
0.044,0.047
0.045,0.048
0.044,0.048
0.045,0.043
0.040,0.045
0.042,0.043
0.042,0.045
0.044,0.044
0.044,0.042
0.044,0.039
0.043,0.038
0.045,0.042
0.044,0.039
0.044,0.041
0.041,0.039
0.046,0.037
0.044,0.036
0.045,0.034
0.043,0.035
0.049,0.033
0.043,0.036
0.046,0.031
0.045,0.034
0.047,0.030
0.047,0.030
0.044,0.025
0.046,0.028
0.046,0.028
0.047,0.029
0.044,0.026
0.046,0.026
0.047,0.024
0.049,0.024
0.047,0.019
0.049,0.018
0.046,0.017
0.046,0.015
0.045,0.017
0.047,0.013
0.046,0.015
0.045,0.011
0.045,0.011
0.046,0.011
0.045,0.008
0.045,0.011
0.043,0.009
0.045,0.012
0.046,0.010
0.047,0.010
0.048,0.006
0.049,0.005
0.045,0.006
0.046,0.005
0.043,0.008
0.046,0.005
0.042,0.004
0.042,0.003
0.048,0.004
0.045,0.000
0.049,0.002
0.047,0.000
0.048,0.001
0.044,-0.001
0.049,-0.002
0.046,-0.002
0.049,-0.003
0.047,-0.004
0.047,-0.001
0.046,-0.002
0.046,-0.000
0.046,-0.004
0.050,-0.000
0.046,-0.002
0.051,-0.003
0.049,-0.004
0.047,-0.005
0.045,-0.001
0.048,-0.003
0.045,-0.002
0.046,-0.004
0.048,-0.002
0.046,0.001
0.047,-0.001
0.046,0.007
0.046,0.005
0.044,0.007
0.044,0.004
0.044,0.003
0.042,0.002
0.048,0.005
0.044,0.005
0.045,0.004
0.043,0.009
0.041,0.008
0.041,0.011
0.039,0.010
0.043,0.011
0.042,0.006
0.044,0.010
0.041,0.012
0.044,0.012
0.036,0.014
0.040,0.015
0.042,0.016
0.044,0.014
0.043,0.017
0.045,0.014
0.042,0.016
0.043,0.018
0.041,0.017
0.045,0.018
0.042,0.016
0.040,0.019
0.041,0.020
0.039,0.023
0.038,0.023
0.038,0.028
0.038,0.028
0.037,0.026
0.039,0.028
0.039,0.031
0.041,0.030
0.040,0.031
0.038,0.031
0.040,0.032
0.039,0.032
0.042,0.032
0.041,0.029
0.043,0.033
0.041,0.035
0.043,0.037
0.040,0.039
0.041,0.038
0.040,0.037
0.041,0.037
0.042,0.037
0.043,0.038
0.039,0.038
0.042,0.039
0.041,0.039
0.040,0.041
0.039,0.039
0.040,0.041
0.036,0.043
0.040,0.043
0.042,0.043
0.042,0.042
0.042,0.049
0.043,0.045
0.041,0.048
0.040,0.046
0.044,0.047
0.043,0.042
0.047,0.044
0.044,0.045
0.045,0.044
0.041,0.045
0.042,0.044
0.042,0.046
0.043,0.044
0.045,0.047
0.040,0.046
0.043,0.046
0.042,0.050
0.041,0.046
0.039,0.048
0.041,0.045
0.042,0.048
0.042,0.045
0.043,0.047
0.042,0.048
0.042,0.044
0.042,0.044
0.043,0.044
0.042,0.042
0.045,0.040
0.046,0.042
0.046,0.039
0.043,0.040
0.042,0.038
0.042,0.040
0.042,0.039
0.041,0.036
0.045,0.034
0.045,0.032
0.044,0.031
0.040,0.036
0.039,0.034
0.040,0.034
0.040,0.031
0.044,0.032
0.042,0.028
0.045,0.029
0.041,0.027
0.044,0.026
0.042,0.027
0.045,0.026
0.041,0.023
0.044,0.021
0.044,0.022
0.047,0.017
0.043,0.018
0.045,0.018
0.043,0.017
0.042,0.013
0.044,0.013
0.043,0.012
0.044,0.011
0.044,0.010
0.045,0.009
0.046,0.011
0.046,0.009
0.045,0.011
0.043,0.007
0.043,0.010
0.041,0.007
0.045,0.007
0.043,0.003
0.044,0.004
0.045,0.005
0.046,0.002
0.042,0.004
0.043,0.003
0.040,0.005
0.043,0.001
0.044,0.003
0.045,0.001
0.045,0.002
0.047,0.004
0.043,0.001
0.042,-0.000
0.042,-0.002
0.044,-0.003
0.042,-0.000
0.044,-0.003
0.043,0.002
0.044,0.000
0.044,0.004
0.047,0.001
0.045,0.001
0.046,-0.003
0.043,-0.002
0.043,-0.002
0.042,-0.001
0.041,-0.001
0.042,0.000
0.041,0.000
0.042,-0.001
0.046,-0.001
0.045,0.004
0.043,0.002
0.044,0.004
0.043,0.004
0.043,0.003
0.041,0.002
0.045,0.004
0.042,0.003
0.044,0.004
0.043,0.007
0.044,0.008
0.041,0.010
0.044,0.008
0.046,0.007
0.045,0.006
0.045,0.005
0.042,0.009
0.042,0.007
0.041,0.012
0.043,0.011
0.042,0.014
0.043,0.011
0.046,0.011
0.043,0.011
0.045,0.013
0.042,0.015
0.044,0.013
0.041,0.019
0.042,0.016
0.041,0.021
0.043,0.019
0.038,0.023
0.043,0.023
0.040,0.027
0.039,0.026
0.039,0.026
0.038,0.026
0.041,0.030
0.039,0.031
0.042,0.033
0.040,0.032
0.042,0.033
0.039,0.032
0.044,0.034
0.040,0.032
0.042,0.035
0.041,0.038
0.041,0.039
0.039,0.042
0.041,0.039
0.041,0.039
0.041,0.039
0.043,0.039
0.045,0.037
0.045,0.040
0.045,0.043
0.046,0.038
0.040,0.042
0.040,0.041
0.043,0.041
0.041,0.040
0.039,0.041
0.039,0.044
0.041,0.047
0.038,0.049
0.040,0.048
0.040,0.048
0.044,0.043
0.044,0.044
0.043,0.046
0.043,0.046
0.043,0.046
0.042,0.046
0.043,0.046
0.045,0.044
0.046,0.043
0.045,0.046
0.045,0.044
0.041,0.049
0.042,0.046
0.040,0.051
0.042,0.047
0.046,0.048
0.044,0.045
0.044,0.047
0.046,0.049
0.047,0.047
0.045,0.046
0.045,0.045
0.044,0.041
0.044,0.041
0.047,0.040
0.047,0.040
0.047,0.041
0.047,0.042
0.045,0.040
0.041,0.042
0.041,0.039
0.046,0.039
0.046,0.037
0.048,0.038
0.045,0.038
0.046,0.036
0.042,0.035
0.044,0.034
0.045,0.033
0.047,0.029
0.045,0.027
0.045,0.032
0.043,0.030
0.046,0.032
0.040,0.026
0.043,0.030
0.043,0.025
0.045,0.027
0.044,0.022
0.045,0.023
0.044,0.021
0.043,0.020
0.043,0.017
0.044,0.013
0.043,0.014
0.045,0.011
0.043,0.009
0.043,0.009
0.043,0.010
0.044,0.009
0.044,0.011
0.045,0.009
0.047,0.011
0.046,0.009
0.043,0.010
0.045,0.006
0.047,0.007
0.043,0.005
0.045,0.005
0.042,0.007
0.043,0.005
0.043,0.007
0.043,0.002
0.045,0.005
0.045,0.008
0.045,0.002
0.046,0.003
0.045,0.002
0.045,-0.000
0.042,-0.003
0.043,-0.003
0.041,-0.006
0.044,-0.006
0.043,-0.005
0.041,-0.004
0.043,-0.003
0.043,-0.002
0.039,-0.002
0.042,-0.003
0.045,-0.003
0.045,-0.003
0.046,-0.003
0.045,-0.002
0.043,-0.006
0.045,-0.003
0.043,-0.005
0.046,-0.003
0.042,-0.004
0.045,-0.002
0.045,-0.001
0.044,-0.001
0.044,0.004
0.049,0.003
0.044,0.001
0.045,0.001
0.043,0.005
0.047,0.004
0.045,0.004
0.044,0.006
0.041,0.004
0.044,0.006
0.042,0.007
0.044,0.004
0.044,0.005
0.046,0.006
0.044,0.008
0.044,0.005
0.044,0.010
0.043,0.010
0.045,0.012
0.045,0.010
0.047,0.013
0.045,0.011
0.047,0.011
0.044,0.013
0.045,0.013
0.042,0.018
0.045,0.017
0.043,0.019
0.040,0.018
0.038,0.021
0.039,0.023
0.038,0.024
0.039,0.023
0.041,0.023
0.042,0.025
0.043,0.026
0.043,0.029
0.042,0.031
0.043,0.030
0.041,0.030
0.044,0.028
0.040,0.029
0.040,0.031
0.040,0.033
0.037,0.033
0.038,0.036
0.036,0.034
0.040,0.037
0.040,0.037
0.039,0.037
0.042,0.037
0.044,0.039
0.042,0.038
0.044,0.041
0.045,0.041
0.041,0.041
0.042,0.041
0.041,0.041
0.040,0.039
0.042,0.042
0.041,0.044
0.043,0.044
0.040,0.047
0.043,0.045
0.041,0.045
0.043,0.046
0.045,0.043
0.045,0.043
0.044,0.041
0.043,0.045
0.045,0.044
0.042,0.045
0.043,0.043
0.044,0.046
0.042,0.044
0.044,0.045
0.039,0.044
0.044,0.044
0.041,0.048
0.044,0.045
0.044,0.044
0.044,0.042
0.043,0.043
0.043,0.043
0.044,0.044
0.042,0.044
0.044,0.044
0.042,0.043
0.042,0.041
0.043,0.041
0.046,0.039
0.047,0.037
0.047,0.041
0.044,0.040
0.048,0.043
0.046,0.040
0.049,0.040
0.047,0.036
0.049,0.037
0.045,0.040
0.047,0.036
0.046,0.035
0.048,0.033
0.047,0.033
0.050,0.031
0.051,0.032
0.050,0.031
0.049,0.028
0.046,0.029
0.046,0.026
0.045,0.031
0.047,0.028
0.046,0.027
0.046,0.023
0.049,0.023
0.048,0.019
0.052,0.018
0.047,0.015
0.052,0.014
0.048,0.012
0.051,0.013
0.050,0.013
0.048,0.011
0.048,0.012
0.049,0.011
0.048,0.011
0.047,0.010
0.048,0.012
0.044,0.009
0.050,0.010
0.048,0.008
0.051,0.006
0.048,0.008
0.048,0.003
0.042,0.007
0.047,0.004
0.046,0.003
0.049,0.001
0.049,0.005
0.049,0.006
0.053,0.003
0.049,0.005
0.052,0.002
0.051,0.005
0.053,0.001
0.052,-0.001
0.051,-0.003
0.051,-0.005
0.049,-0.002
0.049,-0.002
0.047,-0.003
0.048,-0.003
0.049,-0.002
0.050,-0.004
0.049,-0.003
0.049,-0.002
0.049,-0.004
0.048,-0.001
0.048,-0.003
0.050,-0.003
0.045,-0.003
0.048,-0.005
0.048,0.001
0.036,-0.001
0.016,0.000
-0.011,-0.001
-0.048,-0.000
-0.057,-0.001
-0.042,0.003
-0.012,0.001
0.026,0.001
0.057,0.004
0.078,0.005
0.089,0.008
0.099,0.007
0.100,0.008
0.101,0.010
0.102,0.009
0.098,0.009
0.089,0.010
0.080,0.012
0.071,0.008
0.062,0.011
0.059,0.013
0.056,0.014
0.053,0.013
0.052,0.015
0.048,0.016
0.048,0.017
0.045,0.016
0.047,0.016
0.045,0.020
0.046,0.020
0.046,0.022
0.046,0.020
0.045,0.020
0.047,0.021
0.045,0.023
0.043,0.025
0.044,0.025
0.041,0.029
0.045,0.029
0.043,0.031
0.043,0.032
0.039,0.036
0.042,0.034
0.039,0.035
0.043,0.034
0.043,0.036
0.042,0.035
0.045,0.037
0.042,0.034
0.043,0.035
0.044,0.038
0.045,0.037
0.041,0.043
0.042,0.041
0.042,0.045
0.041,0.041
0.043,0.045
0.041,0.041
0.045,0.043
0.042,0.042
0.044,0.043
0.038,0.046
0.038,0.045
0.036,0.045
0.038,0.043
0.039,0.047
0.040,0.046
0.028,0.047
0.002,0.051
-0.032,0.048
-0.060,0.049
-0.066,0.048
-0.044,0.048
-0.010,0.045
0.024,0.045
0.054,0.046
0.071,0.045
0.082,0.050
0.086,0.051
0.093,0.050
0.096,0.048
0.101,0.048
0.094,0.048
0.090,0.048
0.079,0.050
0.072,0.048
0.066,0.048
0.059,0.047
0.058,0.047
0.054,0.044
0.050,0.045
0.050,0.047
0.049,0.045
0.046,0.044
0.045,0.040
0.047,0.043
0.049,0.041
0.050,0.041
0.048,0.042
0.048,0.042
0.045,0.041
0.045,0.040
0.050,0.036
0.049,0.036
0.049,0.035
0.049,0.037
0.048,0.034
0.046,0.036
0.044,0.033
0.048,0.034
0.044,0.031
0.046,0.030
0.045,0.029
0.047,0.028
0.044,0.032
0.046,0.029
0.047,0.029
0.049,0.027
0.047,0.028
0.045,0.023
0.047,0.023
0.046,0.018
0.047,0.020
0.044,0.017
0.049,0.014
0.045,0.015
0.048,0.015
0.045,0.012
0.046,0.014
0.046,0.012
0.047,0.011
0.045,0.012
0.046,0.012
0.047,0.012
0.045,0.009
0.048,0.008
0.046,0.006
0.048,0.004
0.048,0.005
0.045,0.002
0.045,0.007
0.045,0.002
0.042,0.004
0.042,0.003
0.047,0.002
0.044,0.001
0.049,0.001
0.047,0.000
0.046,-0.002
0.043,-0.003
0.046,-0.003
0.046,-0.004
0.045,-0.006
0.042,-0.004
0.046,-0.004
0.044,-0.001
0.042,-0.002
0.043,-0.002
0.045,-0.001
0.044,-0.002
0.046,-0.001
0.047,-0.003
0.045,-0.003
0.044,-0.002
0.043,-0.002
0.042,-0.002
0.041,0.000
0.043,-0.001
0.043,-0.004
0.044,-0.001
0.044,0.001
0.042,0.004
0.043,0.006
0.041,0.004
0.040,0.004
0.043,0.003
0.043,0.003
0.043,0.009
0.042,0.006
0.042,0.007
0.040,0.008
0.043,0.006
0.041,0.010
0.045,0.007
0.043,0.009
0.044,0.006
0.045,0.011
0.043,0.010
0.042,0.014
0.041,0.010
0.044,0.013
0.041,0.010
0.043,0.013
0.041,0.014
0.045,0.016
0.041,0.017
0.044,0.019
0.040,0.020
0.043,0.020
0.038,0.019
0.042,0.020
0.039,0.023
0.041,0.024
0.040,0.025
0.041,0.025
0.043,0.026
0.044,0.027
0.043,0.028
0.044,0.027
0.046,0.030
0.045,0.029
0.045,0.028
0.045,0.032
0.044,0.029
0.043,0.033
0.042,0.031
0.043,0.035
0.041,0.034
0.043,0.037
0.041,0.036
0.047,0.039
0.043,0.037
0.045,0.039
0.043,0.043
0.046,0.041
0.043,0.041
0.044,0.038
0.046,0.039
0.045,0.038
0.045,0.041
0.044,0.040
0.044,0.042
0.041,0.045
0.043,0.044
0.041,0.047
0.043,0.046
0.048,0.047
0.049,0.048
0.046,0.047
0.046,0.046
0.045,0.045
0.045,0.046
0.044,0.045
0.048,0.043
0.041,0.046
0.045,0.045
0.045,0.049
0.044,0.051
0.043,0.050
0.045,0.050
0.046,0.049
0.044,0.046
0.049,0.046
0.046,0.050
0.047,0.047
0.046,0.049
0.045,0.046
0.046,0.049
0.046,0.045
0.047,0.044
0.046,0.045
0.046,0.043
0.044,0.046
0.044,0.042
0.046,0.042
0.045,0.040
0.048,0.039
0.045,0.039
0.049,0.041
0.045,0.041
0.046,0.039
0.045,0.038
0.049,0.034
0.049,0.035
0.049,0.036
0.047,0.036
0.046,0.037
0.044,0.033
0.047,0.033
0.045,0.029
0.049,0.028
0.048,0.027
0.052,0.027
0.048,0.024
0.051,0.024
0.049,0.020
0.052,0.019
0.051,0.017
0.049,0.016
0.048,0.015
0.048,0.016
0.043,0.015
0.043,0.014
0.044,0.013
0.045,0.011
0.047,0.011
0.045,0.011
0.049,0.008
0.047,0.006
0.048,0.005
0.048,0.007
0.048,0.001
0.047,0.004
0.046,0.003
0.049,0.002
0.044,0.000
0.048,-0.003
0.046,0.003
0.046,0.001
0.047,0.006
0.046,0.002
0.049,0.003
0.048,0.001
0.052,-0.002
0.048,-0.004
0.049,-0.003
0.050,-0.000
0.051,-0.001
0.046,-0.003
0.047,-0.003
0.048,-0.001
0.047,-0.003
0.051,-0.001
0.049,0.000
0.049,-0.002
0.047,0.000
0.048,-0.002
0.050,-0.004
0.047,-0.004
0.049,-0.005
0.048,-0.004
0.049,-0.004
0.047,-0.001
0.049,-0.001
0.047,0.001
0.048,-0.000
0.050,-0.002
0.049,-0.003
0.049,-0.003
0.047,0.003
0.047,-0.001
0.046,0.007
0.047,0.004
0.047,0.005
0.043,0.003
0.047,0.007
0.044,0.006
0.046,0.009
0.047,0.009
0.046,0.008
0.043,0.010
0.045,0.009
0.047,0.010
0.046,0.009
0.045,0.010
0.045,0.012
0.045,0.013
0.042,0.013
0.043,0.014
0.044,0.012
0.044,0.013
0.046,0.016
0.045,0.016
0.044,0.018
0.042,0.017
0.043,0.019
0.043,0.020
0.042,0.020
0.043,0.023
0.041,0.024
0.043,0.030
0.040,0.029
0.042,0.034
0.043,0.030
0.041,0.032
0.040,0.031
0.041,0.030
0.039,0.033
0.040,0.032
0.039,0.031
0.042,0.034
0.040,0.033
0.043,0.036
0.040,0.036
0.042,0.036
0.042,0.037
0.043,0.039
0.039,0.041
0.041,0.040
0.043,0.039
0.043,0.037
0.044,0.040
0.044,0.039
0.041,0.038
0.042,0.041
0.037,0.042
0.038,0.043
0.038,0.045
0.041,0.047
0.039,0.046
0.042,0.047
0.040,0.049
0.039,0.047
0.040,0.049
0.041,0.045
0.044,0.047
0.043,0.043
0.045,0.049
0.042,0.049
0.042,0.047
0.037,0.050
0.041,0.049
0.040,0.050
0.041,0.049
0.044,0.050
0.044,0.048
0.041,0.049
0.042,0.051
0.043,0.047
0.043,0.047
0.043,0.047
0.044,0.047
0.043,0.043
0.046,0.043
0.042,0.046
0.045,0.042
0.044,0.045
0.046,0.041
0.043,0.042
0.044,0.040
0.047,0.041
0.046,0.042
0.046,0.037
0.045,0.041
0.046,0.037
0.044,0.041
0.044,0.035
0.049,0.038
0.044,0.033
0.049,0.034
0.047,0.032
0.048,0.029
0.043,0.032
0.047,0.029
0.045,0.031
0.045,0.028
0.045,0.031
0.045,0.026
0.045,0.028
0.044,0.025
0.049,0.023
0.046,0.023
0.049,0.021
0.047,0.021
0.049,0.020
0.047,0.020
0.045,0.015
0.043,0.017
0.043,0.015
0.044,0.015
0.046,0.014
0.047,0.015
0.045,0.012
0.049,0.013
0.047,0.009
0.048,0.007
0.047,0.007
0.047,0.006
0.046,0.009
0.046,0.008
0.046,0.006
0.043,0.004
0.047,0.005
0.045,0.003
0.044,0.005
0.042,0.006
0.042,0.008
0.042,0.005
0.045,0.003
0.047,0.001
0.048,0.001
0.046,-0.002
0.049,-0.001
0.046,-0.002
0.045,-0.002
0.044,-0.002
0.045,0.000
0.045,0.000
0.045,-0.001
0.044,0.000
0.044,-0.004
0.043,-0.001
0.043,-0.002
0.046,0.000
0.043,-0.004
0.048,-0.002
0.043,-0.004
0.046,-0.003
0.042,0.000
0.046,-0.001
0.041,0.003
0.043,-0.001
0.044,-0.002
0.044,-0.001
0.041,0.001
0.043,0.003
0.044,0.003
0.041,0.006
0.041,0.004
0.045,0.006
0.044,0.002
0.043,0.003
0.040,0.005
0.044,0.005
0.042,0.009
0.043,0.009
0.043,0.009
0.041,0.010
0.044,0.008
0.045,0.010
0.044,0.009
0.043,0.014
0.044,0.011
0.042,0.015
0.042,0.014
0.046,0.015
0.042,0.014
0.045,0.016
0.041,0.016
0.045,0.016
0.040,0.019
0.042,0.017
0.041,0.023
0.038,0.019
0.041,0.023
0.039,0.020
0.038,0.024
0.038,0.024
0.037,0.030
0.039,0.030
0.037,0.033
0.035,0.033
0.038,0.031
0.039,0.031
0.042,0.032
0.039,0.030
0.042,0.029
0.041,0.032
0.042,0.033
0.037,0.036
0.039,0.036
0.037,0.037
0.039,0.039
0.041,0.043
0.042,0.040
0.041,0.041
0.044,0.040
0.043,0.042
0.041,0.041
0.041,0.042
0.042,0.043
0.040,0.045
0.042,0.046
0.040,0.044
0.043,0.045
0.041,0.046
0.040,0.048
0.040,0.049
0.044,0.049
0.040,0.048
0.042,0.047
0.045,0.048
0.044,0.047
0.042,0.045
0.041,0.049
0.039,0.045
0.041,0.050
0.039,0.046
0.043,0.048
0.039,0.047
0.042,0.047
0.042,0.049
0.043,0.048
0.041,0.052
0.042,0.048
0.043,0.047
0.043,0.044
0.046,0.047
0.043,0.043
0.043,0.047
0.043,0.045
0.043,0.043
0.042,0.045
0.042,0.043
0.044,0.043
0.046,0.040
0.043,0.040
0.047,0.040
0.044,0.039
0.044,0.041
0.043,0.038
0.046,0.037
0.041,0.035
0.044,0.036
0.042,0.035
0.045,0.034
0.041,0.032
0.044,0.034
0.041,0.030
0.043,0.027
0.044,0.029
0.044,0.030
0.043,0.026
0.043,0.029
0.045,0.025
0.043,0.029
0.045,0.023
0.044,0.028
0.044,0.023
0.045,0.023
0.043,0.019
0.046,0.017
0.042,0.015
0.049,0.016
0.046,0.012
0.050,0.012
0.046,0.013
0.046,0.008
0.046,0.012
0.046,0.007
0.047,0.010
0.048,0.009
0.047,0.011
0.046,0.005
0.048,0.003
0.047,0.001
0.047,0.003
0.046,0.004
0.047,0.003
0.044,0.005
0.045,0.004
0.042,0.007
0.046,0.001
0.046,0.003
0.049,0.001
0.049,0.002
0.050,0.002
0.047,-0.002
0.047,-0.002
0.044,-0.003
0.047,-0.001
0.048,-0.004
0.048,-0.004
0.045,-0.005
0.044,-0.003
0.041,0.000
0.043,-0.001
0.045,-0.000
0.043,-0.001
0.045,-0.003
0.046,-0.001
0.045,-0.003
0.044,-0.003
0.046,-0.004
0.043,-0.000
0.040,-0.003
0.043,0.000
0.042,0.001
0.043,0.000
0.042,0.004
0.043,0.001
0.042,0.004
0.041,0.003
0.045,0.002
0.042,0.002
0.043,0.001
0.043,0.007
0.043,0.006
0.040,0.006
0.042,0.004
0.045,0.007
0.045,0.007
0.044,0.008
0.042,0.010
0.044,0.008
0.040,0.013
0.039,0.009
0.037,0.013
0.042,0.010
0.044,0.013
0.042,0.011
0.043,0.010
0.042,0.014
0.043,0.014
0.041,0.016
0.041,0.018
0.039,0.020
0.040,0.019
0.039,0.020
0.040,0.019
0.041,0.022
0.038,0.019
0.039,0.024
0.037,0.024
0.041,0.027
0.040,0.028
0.042,0.032
0.040,0.031
0.041,0.030
0.040,0.032
0.041,0.030
0.042,0.034
0.040,0.031
0.037,0.036
0.038,0.036
0.037,0.035
0.039,0.036
0.041,0.036
0.040,0.038
0.042,0.035
0.042,0.040
0.041,0.039
0.041,0.042
0.042,0.040
0.043,0.041
0.043,0.037
0.046,0.039
0.041,0.037
0.041,0.039
0.039,0.042
0.042,0.046
0.038,0.048
0.039,0.045
0.040,0.046
0.041,0.045
0.043,0.045
0.046,0.042
0.042,0.042
0.043,0.045
0.045,0.046
0.043,0.045
0.041,0.045
0.043,0.044
0.041,0.044
0.043,0.044
0.044,0.043
0.041,0.043
0.040,0.046
0.039,0.044
0.041,0.047
0.042,0.046
0.046,0.045
0.044,0.047
0.044,0.046
0.043,0.048
0.043,0.044
0.042,0.045
0.045,0.044
0.047,0.044
0.046,0.042
0.045,0.041
0.045,0.043
0.044,0.041
0.044,0.043
0.042,0.038
0.047,0.040
0.043,0.036
0.047,0.036
0.047,0.036
0.045,0.036
0.045,0.036
0.047,0.034
0.049,0.035
0.049,0.032
0.046,0.032
0.047,0.032
0.045,0.029
0.048,0.033
0.047,0.031
0.045,0.030
0.045,0.030
0.048,0.029
0.043,0.026
0.047,0.025
0.044,0.022
0.047,0.019
0.047,0.020
0.050,0.020
0.050,0.018
0.047,0.015
0.047,0.017
0.048,0.015
0.046,0.015
0.044,0.013
0.044,0.015
0.046,0.012
0.046,0.011
0.046,0.011
0.047,0.010
0.043,0.009
0.049,0.007
0.047,0.006
0.047,0.002
0.044,0.003
0.044,0.005
0.043,0.001
0.043,0.003
0.047,0.002
0.045,0.002
0.044,-0.002
0.046,0.003
0.045,-0.001
0.047,0.001
0.045,-0.002
0.049,-0.001
0.047,-0.004
0.050,-0.005
0.048,-0.003
0.049,-0.003
0.045,-0.003
0.050,-0.002
0.047,-0.001
0.046,-0.004
0.045,-0.003
0.046,-0.003
0.046,0.000
0.047,0.001
0.044,-0.000
0.045,-0.001
0.044,-0.003
0.046,0.000
0.044,-0.001
0.045,-0.002
0.043,0.000
0.042,-0.001
0.042,0.002
0.039,0.000
0.044,0.004
0.042,0.002
0.047,0.002
0.042,0.002
0.045,0.001
0.042,0.007
0.044,0.003
0.045,0.004
0.045,0.003
0.046,0.005
0.048,0.006
0.045,0.005
0.043,0.008
0.042,0.007
0.042,0.010
0.042,0.009
0.044,0.010
0.043,0.010
0.045,0.010
0.044,0.014
0.043,0.016
0.042,0.016
0.042,0.015
0.040,0.014
0.040,0.015
0.042,0.016
0.043,0.016
0.043,0.014
0.043,0.017
0.044,0.016
0.042,0.016
0.042,0.019
0.043,0.021
0.039,0.023
0.038,0.024
0.041,0.024
0.043,0.027
0.041,0.028
0.043,0.031
0.042,0.030
0.041,0.032
0.041,0.032
0.042,0.033
0.042,0.034
0.039,0.034
0.040,0.035
0.037,0.035
0.037,0.036
0.040,0.036
0.042,0.039
0.039,0.038
0.039,0.040
0.041,0.040
0.040,0.043
0.040,0.040
0.041,0.041
0.043,0.040
0.041,0.042
0.040,0.042
0.039,0.042
0.038,0.044
0.039,0.044
0.044,0.047
0.044,0.045
0.044,0.047
0.046,0.049
0.043,0.044
0.047,0.047
0.045,0.045
0.045,0.046
0.045,0.043
0.051,0.043
0.045,0.043
0.044,0.045
0.041,0.048
0.044,0.044
0.042,0.049
0.043,0.046
0.045,0.050
0.045,0.046
0.047,0.050
0.048,0.048
0.048,0.048
0.045,0.048
0.046,0.047
0.045,0.046
0.045,0.043
0.045,0.043
0.047,0.042
0.045,0.041
0.047,0.043
0.045,0.043
0.047,0.042
0.046,0.039
0.049,0.040
0.047,0.037
0.048,0.039
0.047,0.037
0.047,0.039
0.043,0.034
0.047,0.036
0.048,0.035
0.049,0.032
0.046,0.033
0.047,0.031
0.044,0.029
0.040,0.030
0.043,0.030
0.045,0.027
0.044,0.028
0.045,0.026
0.044,0.026
0.047,0.024
0.046,0.025
0.048,0.021
0.049,0.021
0.049,0.017
0.048,0.019
0.046,0.015
0.044,0.016
0.043,0.011
0.043,0.013
0.042,0.012
0.044,0.011
0.043,0.014
0.042,0.012
0.041,0.011
0.048,0.009
0.046,0.008
0.048,0.007
0.045,0.010
0.046,0.006
0.042,0.005
0.043,0.003
0.045,0.006
0.044,0.002
0.044,0.004
0.043,0.005
0.042,0.003
0.041,0.007
0.041,0.006
0.041,0.007
0.042,0.003
0.045,0.003
0.045,-0.002
0.045,-0.002
0.043,0.001
0.043,-0.002
0.039,-0.001
0.041,-0.004
0.042,-0.002
0.044,-0.002
0.043,-0.002
0.044,0.000
0.040,0.001
0.042,0.002
0.040,-0.001
0.044,-0.001
0.040,-0.004
0.042,-0.005
0.042,-0.002
0.042,-0.004
0.040,0.001
0.040,-0.002
0.042,0.003
0.039,-0.000
0.041,0.002
0.040,0.003
0.041,0.002
0.039,0.005
0.042,0.004
0.037,0.004
0.039,0.004
0.041,0.006
0.040,0.004
0.042,0.005
0.043,0.006
0.043,0.007
0.043,0.009
0.044,0.008
0.043,0.009
0.045,0.010
0.046,0.010
0.043,0.007
0.045,0.010
0.046,0.013
0.045,0.012
0.043,0.013
0.044,0.013
0.043,0.013
0.042,0.013
0.043,0.013
0.044,0.015
0.045,0.016
0.044,0.017
0.041,0.019
0.040,0.019
0.040,0.021
0.042,0.024
0.041,0.025
0.041,0.029
0.042,0.026
0.041,0.029
0.045,0.028
0.040,0.031
0.044,0.033
0.039,0.035
0.041,0.031
0.042,0.034
0.041,0.033
0.041,0.034
0.039,0.035
0.040,0.035
0.041,0.036
0.041,0.037
0.039,0.041
0.039,0.040
0.041,0.041
0.042,0.039
0.041,0.040
0.041,0.041
0.044,0.040
0.043,0.041
0.042,0.042
0.038,0.042
0.041,0.045
0.041,0.043
0.041,0.045
0.043,0.046
0.043,0.049
0.041,0.048
0.043,0.050
0.043,0.046
0.043,0.049
0.041,0.047
0.046,0.046
0.044,0.045
0.047,0.042
0.045,0.048
0.044,0.048
0.041,0.050
0.040,0.047
0.044,0.048
0.044,0.045
0.045,0.050
0.044,0.051
0.045,0.050
0.043,0.051
0.045,0.052
0.046,0.047
0.047,0.046
0.046,0.049
0.045,0.047
0.044,0.045
0.044,0.043
0.042,0.040
0.045,0.042
0.044,0.040
0.047,0.041
0.044,0.041
0.045,0.041
0.042,0.044
0.042,0.040
0.041,0.040
0.044,0.036
0.047,0.037
0.045,0.036
0.045,0.036
0.044,0.039
0.045,0.036
0.045,0.036
0.043,0.034
0.045,0.035
0.044,0.031
0.048,0.031
0.045,0.031
0.046,0.029
0.045,0.032
0.049,0.029
0.049,0.028
0.051,0.026
0.048,0.028
0.050,0.021
0.048,0.023
0.048,0.016
0.050,0.017
0.047,0.013
0.050,0.013
0.045,0.011
0.049,0.012
0.046,0.014
0.048,0.013
0.046,0.014
0.049,0.009
0.047,0.013
0.049,0.010
0.046,0.010
0.047,0.006
0.048,0.005
0.049,0.002
0.047,0.001
0.046,0.004
0.047,0.003
0.046,0.004
0.047,0.004
0.046,0.005
0.046,0.001
0.049,0.000
0.046,0.000
0.047,-0.001
0.047,0.002
0.049,-0.005
0.046,-0.003
0.048,-0.003
0.048,-0.006
0.045,-0.004
0.045,-0.004
0.047,-0.002
0.044,-0.002
0.044,-0.001
0.043,-0.003
0.048,-0.003
0.046,-0.002
0.048,-0.004
0.043,0.000
0.043,-0.005
0.041,0.000
0.041,-0.003
0.042,0.000
0.042,-0.003
0.046,0.000
0.041,0.001
0.041,0.002
0.038,0.001
0.042,0.001
0.039,0.000
0.043,0.001
0.044,0.001
0.043,0.002
0.042,0.000
0.042,0.005
0.039,0.007
0.039,0.010
0.038,0.009
0.041,0.012
0.039,0.011
0.042,0.010
0.041,0.010
0.039,0.010
0.040,0.010
0.039,0.009
0.039,0.012
0.039,0.011
0.041,0.012
0.039,0.010
0.041,0.011
0.040,0.016
0.040,0.014
0.039,0.021
0.039,0.016
0.039,0.018
0.037,0.016
0.036,0.022
0.037,0.019
0.039,0.023
0.040,0.025
0.040,0.024
0.040,0.028
0.042,0.029
0.040,0.028
0.044,0.031
0.042,0.032
0.045,0.032
0.041,0.031
0.042,0.033
0.041,0.036
0.039,0.035
0.039,0.037
0.038,0.036
0.040,0.038
0.036,0.039
0.043,0.038
0.040,0.034
0.045,0.036
0.042,0.037
0.043,0.038
0.040,0.043
0.042,0.041
0.038,0.040
0.042,0.041
0.043,0.041
0.041,0.043
0.043,0.044
0.040,0.045
0.039,0.044
0.038,0.046
0.040,0.048
0.041,0.047
0.041,0.044
0.045,0.048
0.044,0.044
0.042,0.046
0.039,0.047
0.042,0.045
0.041,0.045
0.040,0.043
0.043,0.046
0.043,0.042
0.042,0.044
0.043,0.047
0.040,0.049
0.040,0.050
0.042,0.047
0.041,0.046
0.044,0.046
0.043,0.045
0.044,0.044
0.041,0.045
0.042,0.047
0.040,0.048
0.041,0.048
0.041,0.046
0.046,0.047
0.044,0.042
0.044,0.041
0.042,0.044
0.045,0.043
0.043,0.042
0.041,0.040
0.045,0.040
0.043,0.036
0.042,0.036
0.043,0.036
0.043,0.036
0.044,0.036
0.041,0.034
0.043,0.033
0.043,0.033
0.048,0.031
0.047,0.030
0.046,0.032
0.046,0.032
0.047,0.030
0.047,0.031
0.047,0.026
0.045,0.027
0.047,0.027
0.048,0.027
0.046,0.024
0.049,0.021
0.047,0.020
0.049,0.017
0.049,0.014
0.049,0.015
0.048,0.013
0.051,0.015
0.049,0.015
0.044,0.016
0.045,0.012
0.046,0.012
0.047,0.013
0.046,0.011
0.049,0.010
0.046,0.009
0.047,0.006
0.045,0.008
0.046,0.006
0.045,0.007
0.047,0.006
0.044,0.005
0.046,0.004
0.048,0.007
0.046,0.004
0.046,0.004
0.046,0.005
0.047,0.005
0.047,0.003
0.047,0.002
0.047,-0.000
0.048,-0.003
0.048,-0.001
0.048,-0.000
0.045,-0.003
0.045,-0.001
0.045,-0.002
0.046,-0.000
0.044,-0.005
0.045,-0.000
0.046,-0.003
0.046,-0.002
0.043,-0.001
0.048,-0.000
0.045,-0.002
0.046,-0.001
0.045,-0.001
0.044,-0.002
0.043,0.001
0.041,0.002
0.041,0.002
0.042,0.003
0.041,0.004
0.043,0.004
0.042,0.003
0.043,0.003
0.042,0.007
0.040,0.008
0.041,0.011
0.043,0.011
0.043,0.009
0.040,0.010
0.045,0.011
0.041,0.009
0.043,0.009
0.040,0.010
0.041,0.009
0.040,0.013
0.041,0.011
0.042,0.013
0.042,0.013
0.043,0.016
0.044,0.017
0.043,0.017
0.041,0.017
0.041,0.015
0.043,0.018
0.042,0.020
0.043,0.018
0.040,0.018
0.042,0.019
0.041,0.018
0.043,0.021
0.041,0.022
0.044,0.025
0.041,0.026
0.042,0.028
0.040,0.029
0.043,0.030
0.043,0.031
0.044,0.031
0.041,0.033
0.045,0.034
0.045,0.034
0.043,0.034
0.042,0.037
0.046,0.036
0.041,0.036
0.042,0.036
0.043,0.038
0.043,0.037
0.042,0.042
0.043,0.040
0.041,0.040
0.042,0.043
0.040,0.043
0.042,0.040
0.041,0.042
0.044,0.040
